304,296,305,306,1
305,297,302,307,1
309,300,299,307,1
311,304,298,306,1
312,303,298,306,1
313,300,300,307,1
312,296,302,309,1
310,293,303,310,1
308,293,302,311,1
307,294,301,313,1
306,295,300,313,1
307,292,297,313,1
308,286,295,312,1
310,279,294,310,1
309,273,294,310,1
310,269,295,309,1
312,271,296,310,1
316,279,299,311,1
320,290,301,312,1
321,302,304,312,1
320,312,305,311,1
317,318,304,308,1
313,320,304,305,1
310,322,307,302,1
309,323,312,302,1
308,323,318,301,1
306,320,323,298,1
303,317,325,296,1
300,314,324,294,1
299,311,321,296,1
300,307,317,299,1
302,303,313,302,1
305,300,310,305,1
307,298,307,307,1
306,299,304,307,1
305,303,300,306,1
303,309,297,304,1
302,314,297,303,1
302,317,300,304,1
304,316,304,305,1
306,314,307,308,1
308,311,309,310,1
310,308,310,312,1
310,304,311,312,1
309,301,310,312,1
308,299,310,313,1
307,299,310,314,1
306,301,312,314,1
306,305,313,314,1
305,309,314,313,1
305,313,313,312,1
304,315,312,311,1
305,316,311,310,1
306,313,311,310,1
309,308,313,311,1
311,302,316,311,1
311,296,319,312,1
309,291,321,312,1
306,289,319,312,1
301,289,316,310,1
299,289,313,309,1
302,291,310,308,1
310,292,308,310,1
321,297,306,313,1
333,309,305,316,1
343,319,304,317,1
348,325,302,317,1
346,325,299,313,1
338,320,298,310,1
329,313,299,310,1
318,308,300,310,1
307,302,302,309,1
299,297,301,308,1
294,294,300,306,1
291,291,299,304,1
290,289,299,303,1
292,289,301,303,1
297,290,303,305,1
304,293,305,308,1
312,296,305,310,1
318,298,303,310,1
319,300,300,309,1
313,302,297,306,1
304,303,295,303,1
295,306,292,301,1
290,310,290,301,1
286,312,289,302,1
285,307,290,304,1
286,299,293,306,1
288,288,296,307,1
289,277,296,307,1
289,266,297,306,1
290,262,298,306,1
292,267,301,307,1
296,276,305,308,1
299,282,305,309,1
300,282,303,309,1
302,280,300,308,1
305,281,298,306,1
309,287,297,305,1
312,299,297,304,1
315,313,297,303,1
315,324,297,302,1
314,329,298,302,1
313,329,302,302,1
312,325,307,303,1
313,321,313,304,1
314,317,319,307,1
316,314,325,311,1
319,312,330,315,1
321,311,332,318,1
320,309,333,319,1
317,305,332,318,1
314,302,329,316,1
312,304,327,315,1
312,308,324,315,1
313,311,321,314,1
311,309,317,313,1
309,303,314,311,1
304,296,311,310,1
300,290,308,308,1
295,288,304,307,1
292,292,303,306,1
291,300,303,306,1
293,308,306,307,1
298,315,309,308,1
302,318,313,309,1
307,319,315,310,1
311,319,315,310,1
315,316,313,310,1
318,315,312,310,1
323,317,313,310,1
330,319,315,310,1
338,320,318,311,1
346,317,319,312,1
350,314,320,313,1
348,313,319,313,1
336,311,318,312,1
318,310,315,310,1
302,309,313,307,1
290,309,311,304,1
282,309,308,302,1
279,308,306,301,1
279,307,305,303,1
281,304,305,306,1
283,303,305,309,1
286,300,306,311,1
289,298,308,312,1
292,296,311,313,1
297,296,314,313,1
301,298,317,312,1
304,299,318,310,1
305,300,316,308,1
306,300,313,307,1
307,301,309,307,1
307,303,307,307,1
307,304,305,307,1
306,305,303,307,1
303,305,302,306,1
301,303,301,305,1
299,301,299,304,1
299,301,298,305,1
302,304,296,306,1
305,308,296,308,1
307,307,296,310,1
308,300,297,312,1
309,293,299,314,1
311,290,301,316,1
311,290,302,317,1
311,290,303,318,1
312,288,302,318,1
313,286,301,318,1
314,284,298,316,1
315,285,297,314,1
316,287,298,313,1
316,293,301,313,1
317,303,307,314,1
316,313,313,314,1
313,321,316,312,1
309,324,317,310,1
304,323,316,307,1
298,319,314,305,1
292,314,312,304,1
290,308,310,305,1
293,303,310,308,1
300,302,312,312,1
310,304,315,316,1
318,305,319,317,1
323,306,319,317,1
322,308,317,315,1
316,310,314,313,1
307,312,311,311,1
300,313,309,310,1
296,314,309,310,1
296,314,308,310,1
298,315,307,310,1
303,315,306,312,1
310,314,307,313,1
316,311,306,314,1
320,307,304,314,1
322,302,300,313,1
320,298,297,313,1
316,297,294,312,1
309,298,292,312,1
302,300,292,312,1
297,299,291,311,1
293,296,290,308,1
291,291,290,306,1
289,283,289,304,1
288,276,289,302,1
289,271,289,301,1
294,270,293,303,1
301,275,299,306,1
308,283,306,308,1
315,295,314,308,1
320,309,320,308,1
324,318,323,308,1
324,320,324,308,1
319,319,322,308,1
310,318,317,309,1
300,315,312,309,1
292,314,308,309,1
289,313,305,310,1
291,311,304,312,1
295,309,304,315,1
301,307,305,316,1
305,306,307,317,1
307,304,309,318,1
308,299,310,318,1
308,290,311,317,1
307,281,310,317,1
305,271,308,315,1
303,266,304,314,1
303,265,300,313,1
304,267,297,311,1
306,270,294,308,1
309,276,293,307,1
314,285,295,306,1
319,294,298,307,1
324,301,302,308,1
327,309,307,311,1
329,319,311,313,1
328,327,314,315,1
323,332,316,316,1
316,334,315,315,1
307,332,314,314,1
299,326,311,311,1
294,319,309,308,1
294,313,310,305,1
296,309,312,304,1
299,308,315,305,1
303,308,319,308,1
307,307,319,309,1
307,307,316,308,1
306,308,313,306,1
304,308,310,304,1
301,308,308,303,1
299,309,307,302,1
297,309,305,302,1
296,310,305,302,1
297,311,305,305,1
298,313,305,307,1
299,312,303,308,1
301,309,299,308,1
302,304,296,309,1
304,299,295,312,1
306,296,296,315,1
310,293,298,317,1
314,289,300,318,1
318,285,303,319,1
322,282,307,320,1
326,281,311,321,1
328,279,312,321,1
328,281,311,319,1
326,288,308,316,1
322,299,304,312,1
316,309,300,307,1
309,314,300,302,1
303,317,304,300,1
300,319,309,302,1
300,320,313,304,1
299,318,316,307,1
299,316,317,308,1
299,316,319,308,1
299,317,323,308,1
300,318,327,308,1
302,315,326,307,1
304,309,321,306,1
308,303,317,306,1
313,303,316,308,1
316,309,318,311,1
316,319,320,314,1
312,327,319,315,1
306,329,316,314,1
302,323,312,311,1
299,313,310,308,1
295,300,308,304,1
292,287,308,302,1
290,274,308,301,1
289,266,308,302,1
291,263,308,304,1
295,266,308,306,1
300,272,307,307,1
305,279,306,308,1
309,288,305,309,1
309,299,305,308,1
308,308,304,306,1
303,314,303,303,1
299,317,301,299,1
297,316,302,297,1
298,312,304,298,1
299,307,305,298,1
299,299,304,298,1
299,292,299,297,1
300,288,295,298,1
302,288,294,300,1
306,291,295,302,1
310,296,299,305,1
314,301,301,308,1
316,304,304,311,1
315,309,309,312,1
314,313,312,312,1
313,317,314,312,1
310,320,313,312,1
307,321,310,312,1
300,323,307,312,1
294,323,306,313,1
290,323,307,312,1
289,323,310,311,1
291,325,311,310,1
296,323,310,308,1
302,316,307,308,1
309,309,303,308,1
316,305,302,310,1
320,303,301,311,1
320,302,301,312,1
318,304,301,312,1
313,304,302,312,1
307,304,302,312,1
303,304,304,312,1
301,305,305,313,1
302,306,305,314,1
304,306,305,314,1
308,306,305,314,1
312,306,304,314,1
315,307,304,314,1
319,311,305,315,1
325,318,307,317,1
330,325,308,318,1
334,331,309,319,1
336,335,309,319,1
335,337,311,319,1
330,334,312,317,1
321,322,311,315,1
312,307,310,313,1
304,293,309,313,1
298,283,309,313,1
295,277,311,314,1
293,276,312,314,1
291,278,311,313,1
291,281,308,311,1
291,286,303,310,1
294,289,297,308,1
296,289,292,306,1
299,287,288,305,1
301,284,287,305,1
303,282,288,305,1
303,283,290,306,1
305,288,295,306,1
308,295,299,306,1
311,301,301,306,1
314,305,303,306,1
315,305,303,307,1
315,305,303,308,1
314,304,303,310,1
313,304,304,311,1
312,307,303,311,1
309,310,301,309,1
307,313,300,308,1
306,315,299,307,1
306,317,300,308,1
306,321,301,310,1
307,325,304,312,1
309,328,307,313,1
311,328,312,315,1
313,326,317,316,1
315,325,322,317,1
317,323,327,319,1
318,320,330,320,1
319,315,331,321,1
319,310,330,321,1
320,302,326,320,1
320,295,319,320,1
318,288,312,318,1
314,286,307,315,1
309,291,305,312,1
304,299,304,309,1
301,309,304,307,1
300,318,305,307,1
300,324,307,308,1
300,326,307,309,1
297,323,306,310,1
295,319,304,312,1
293,315,304,313,1
293,312,305,315,1
295,312,306,316,1
299,313,307,316,1
303,315,309,316,1
305,316,310,316,1
307,317,310,316,1
309,316,310,316,1
310,314,309,315,1
312,312,307,314,1
313,311,305,313,1
313,309,302,311,1
312,305,299,309,1
309,300,298,307,1
307,297,297,305,1
306,296,298,305,1
306,298,298,305,1
305,301,297,305,1
305,302,297,306,1
303,304,298,306,1
300,306,300,306,1
299,308,302,307,1
299,310,305,309,1
301,310,308,311,1
304,309,309,313,1
307,307,310,315,1
311,304,312,316,1
315,302,314,316,1
317,300,316,316,1
319,300,317,316,1
318,300,317,315,1
316,299,316,313,1
313,300,314,312,1
310,302,316,311,1
306,302,318,311,1
303,300,320,311,1
301,298,319,310,1
299,297,315,310,1
297,297,311,310,1
297,299,307,311,1
299,301,304,312,1
301,301,301,312,1
304,297,298,313,1
307,293,297,313,1
308,292,298,312,1
307,298,301,311,1
305,305,306,310,1
301,311,311,310,1
299,316,315,311,1
301,317,317,313,1
305,317,316,314,1
308,316,315,314,1
310,316,312,314,1
311,316,308,313,1
311,316,305,312,1
310,316,301,311,1
308,317,298,311,1
305,318,296,310,1
302,319,296,310,1
299,321,298,310,1
297,322,300,310,1
297,321,304,311,1
299,320,309,312,1
302,321,315,314,1
305,321,320,316,1
308,318,322,317,1
311,312,323,317,1
314,305,323,315,1
317,300,322,315,1
321,297,321,314,1
322,296,320,313,1
320,296,318,312,1
318,299,317,310,1
317,303,316,309,1
316,309,315,309,1
315,316,313,308,1
313,321,310,307,1
311,325,305,304,1
307,326,301,302,1
305,325,299,301,1
304,323,297,302,1
304,320,296,303,1
303,317,298,304,1
304,313,299,307,1
306,308,300,308,1
307,301,298,308,1
307,295,295,307,1
307,291,294,305,1
307,289,295,304,1
308,290,298,304,1
308,293,302,302,1
307,295,307,301,1
304,297,309,299,1
299,299,311,298,1
296,301,312,298,1
293,304,312,298,1
292,305,312,297,1
294,305,311,298,1
300,305,312,301,1
309,305,312,306,1
316,304,311,308,1
320,302,309,309,1
319,298,305,309,1
314,296,302,308,1
308,296,300,306,1
303,297,299,305,1
299,296,300,303,1
297,295,299,303,1
297,294,300,304,1
298,295,300,305,1
298,301,300,305,1
299,312,302,305,1
300,324,303,305,1
301,334,306,305,1
304,339,308,305,1
307,338,310,306,1
310,332,312,306,1
311,327,313,307,1
311,325,313,308,1
310,324,314,308,1
309,326,312,308,1
309,327,308,308,1
309,326,304,307,1
311,322,301,308,1
314,320,299,309,1
316,319,299,311,1
315,320,299,311,1
312,317,299,311,1
308,311,297,309,1
303,300,295,306,1
297,290,292,304,1
293,283,292,304,1
292,284,294,305,1
293,290,298,307,1
297,300,301,308,1
301,308,303,309,1
304,311,303,309,1
304,311,302,308,1
303,308,301,308,1
302,307,301,307,1
301,306,303,307,1
300,307,306,308,1
301,310,312,308,1
303,313,316,308,1
304,314,316,308,1
304,311,312,307,1
304,306,306,307,1
305,303,300,309,1
306,299,296,309,1
308,294,293,310,1
311,289,292,310,1
314,290,295,310,1
315,296,299,310,1
316,304,304,310,1
316,311,307,311,1
315,316,309,310,1
314,318,310,309,1
313,320,309,308,1
311,320,307,308,1
308,318,304,306,1
304,315,300,305,1
299,312,297,304,1
296,309,297,305,1
295,306,300,306,1
298,306,303,308,1
301,311,306,309,1
305,318,307,309,1
309,322,308,309,1
312,321,306,309,1
314,317,303,309,1
314,311,301,309,1
313,307,299,309,1
312,309,299,309,1
311,316,299,309,1
311,324,300,308,1
311,324,301,308,1
309,320,301,307,1
305,311,302,306,1
298,302,303,304,1
293,296,304,304,1
291,294,304,305,1
292,295,305,308,1
295,300,307,310,1
298,304,309,311,1
301,308,311,311,1
302,311,311,310,1
301,312,311,311,1
301,314,311,311,1
301,315,309,311,1
300,315,307,311,1
301,313,304,311,1
302,310,302,310,1
302,307,301,310,1
301,304,302,309,1
298,301,304,307,1
297,298,305,307,1
297,297,306,306,1
296,297,305,305,1
297,299,302,305,1
298,301,297,304,1
299,302,293,302,1
301,303,291,300,1
304,303,292,301,1
310,303,296,302,1
317,305,300,305,1
325,309,303,308,1
332,312,305,310,1
335,311,306,311,1
333,308,307,310,1
325,305,308,309,1
316,303,311,308,1
309,303,313,307,1
305,304,312,305,1
302,305,309,303,1
299,305,305,301,1
297,302,299,301,1
295,295,293,300,1
293,286,288,300,1
292,279,287,301,1
293,277,293,304,1
294,280,302,307,1
296,285,308,309,1
298,289,309,309,1
298,295,307,308,1
300,299,305,309,1
302,301,304,310,1
306,303,305,311,1
311,307,307,312,1
316,311,310,313,1
320,314,313,313,1
322,315,317,313,1
322,314,319,313,1
320,313,319,312,1
314,311,317,310,1
306,304,314,309,1
298,294,313,308,1
292,284,313,308,1
288,280,313,310,1
287,281,313,311,1
288,283,312,311,1
292,290,310,311,1
296,307,309,312,1
299,328,308,313,1
299,342,307,312,1
297,346,306,312,1
296,342,306,311,1
296,334,306,311,1
297,326,304,310,1
297,322,303,309,1
296,321,300,307,1
294,321,298,305,1
293,320,297,303,1
293,316,296,302,1
295,312,297,301,1
300,309,297,302,1
304,306,297,303,1
307,305,296,304,1
309,306,294,306,1
312,308,293,309,1
313,307,292,310,1
313,305,293,309,1
313,302,293,308,1
314,298,292,308,1
315,293,292,306,1
318,289,294,305,1
320,287,296,305,1
321,288,302,307,1
322,292,309,311,1
322,299,316,314,1
321,306,322,315,1
321,314,328,314,1
320,320,330,313,1
315,322,327,310,1
308,322,321,307,1
302,319,313,305,1
298,313,305,304,1
296,307,299,304,1
295,304,296,305,1
294,303,296,306,1
293,305,300,307,1
293,308,304,309,1
295,313,310,311,1
297,318,315,312,1
298,323,318,313,1
298,323,320,312,1
298,320,320,311,1
298,315,318,309,1
299,311,317,307,1
301,310,317,306,1
305,311,317,307,1
308,313,317,308,1
311,315,317,309,1
313,316,317,310,1
315,314,315,312,1
315,309,313,312,1
313,302,310,312,1
311,297,307,313,1
311,295,305,314,1
312,294,303,316,1
311,295,302,316,1
309,295,302,316,1
307,296,302,316,1
306,297,302,316,1
305,298,302,315,1
304,299,303,313,1
301,301,302,311,1
297,303,300,308,1
292,304,298,306,1
286,304,297,305,1
282,304,295,304,1
279,305,295,305,1
280,309,296,308,1
284,314,301,310,1
290,317,307,313,1
301,317,313,314,1
312,316,317,315,1
321,313,316,315,1
326,309,312,314,1
328,307,308,313,1
326,309,307,314,1
322,315,308,317,1
316,322,309,318,1
310,328,310,317,1
306,327,311,314,1
303,324,310,311,1
300,318,310,308,1
298,313,309,307,1
296,309,308,306,1
295,307,306,305,1
295,306,305,306,1
298,306,303,307,1
303,308,302,308,1
306,311,301,307,1
308,316,300,307,1
308,320,299,306,1
308,318,300,305,1
308,314,300,305,1
309,307,300,306,1
311,301,301,308,1
314,295,302,310,1
319,291,304,311,1
324,294,305,313,1
326,300,304,313,1
325,304,302,312,1
321,304,300,309,1
316,301,299,307,1
312,298,300,307,1
310,297,304,307,1
308,298,309,308,1
305,302,314,309,1
301,306,316,308,1
296,309,316,307,1
292,312,315,307,1
291,319,315,307,1
292,322,314,306,1
293,320,313,305,1
296,313,312,304,1
299,306,311,303,1
304,302,311,304,1
309,303,312,306,1
315,306,313,308,1
320,310,316,309,1
323,312,318,310,1
323,313,320,312,1
321,313,321,312,1
318,315,321,311,1
313,316,319,309,1
307,315,312,305,1
301,314,305,300,1
296,311,299,298,1
294,307,296,298,1
295,304,296,301,1
301,301,298,304,1
307,301,299,306,1
311,305,300,308,1
313,314,302,309,1
314,324,304,309,1
315,331,305,308,1
315,330,306,307,1
314,325,307,307,1
311,320,308,307,1
307,316,308,306,1
302,313,307,304,1
298,313,307,303,1
298,314,308,302,1
299,316,309,303,1
301,316,307,304,1
302,314,304,303,1
301,310,302,303,1
300,307,304,305,1
300,306,309,308,1
301,307,314,311,1
300,308,317,312,1
301,309,318,313,1
303,312,317,313,1
305,315,315,313,1
308,318,316,312,1
308,322,318,311,1
308,324,320,311,1
307,322,319,311,1
307,314,315,311,1
309,304,313,312,1
311,295,311,313,1
313,290,310,314,1
314,288,310,314,1
312,288,310,313,1
308,290,308,312,1
304,295,305,311,1
302,301,303,310,1
301,304,299,308,1
300,305,296,306,1
300,306,293,304,1
300,306,290,303,1
299,304,289,303,1
298,301,290,305,1
297,296,291,307,1
297,291,292,308,1
298,287,294,310,1
302,288,297,311,1
305,292,302,312,1
309,300,307,314,1
312,309,310,315,1
314,315,311,315,1
316,320,310,313,1
315,322,309,311,1
314,320,309,308,1
313,318,312,306,1
311,316,315,304,1
309,316,316,302,1
304,316,316,302,1
301,318,315,302,1
298,322,315,302,1
300,329,316,304,1
304,336,318,306,1
306,339,319,307,1
307,338,318,309,1
305,335,314,309,1
299,332,310,308,1
290,331,307,305,1
281,332,305,303,1
278,333,304,302,1
279,329,304,302,1
281,321,305,302,1
286,312,306,305,1
293,307,307,307,1
299,302,307,308,1
303,298,307,308,1
307,292,305,308,1
309,286,301,306,1
310,277,297,304,1
310,270,294,303,1
311,268,295,303,1
313,270,300,304,1
315,276,306,306,1
316,284,310,306,1
315,292,312,306,1
313,302,312,306,1
310,313,312,305,1
307,324,313,305,1
304,333,315,306,1
300,338,318,308,1
298,339,320,309,1
297,334,317,309,1
296,328,313,308,1
294,321,308,307,1
294,317,305,306,1
294,315,303,305,1
296,313,302,305,1
299,310,302,305,1
300,305,304,305,1
301,301,307,304,1
302,298,309,305,1
303,299,310,306,1
305,300,311,307,1
309,301,311,307,1
311,302,309,307,1
311,302,308,307,1
310,301,308,307,1
310,302,308,308,1
311,303,310,309,1
313,304,311,310,1
315,304,313,310,1
319,302,313,308,1
323,299,311,306,1
327,297,308,303,1
330,298,306,302,1
334,305,308,303,1
336,317,313,305,1
335,327,319,308,1
331,330,323,308,1
326,328,323,308,1
319,324,321,307,1
311,316,316,305,1
301,309,309,303,1
293,303,304,301,1
287,300,300,300,1
284,301,298,300,1
281,303,299,300,1
280,306,301,301,1
280,309,303,302,1
280,311,302,302,1
282,315,303,303,1
286,319,307,305,1
292,323,312,307,1
296,327,315,309,1
298,327,315,309,1
299,321,311,308,1
299,313,306,305,1
298,307,301,302,1
297,302,297,300,1
297,299,296,298,1
297,296,295,297,1
297,292,295,297,1
299,288,296,298,1
301,286,297,299,1
303,287,298,300,1
305,289,301,301,1
307,289,307,302,1
309,285,315,305,1
312,281,320,308,1
314,281,321,310,1
313,286,318,311,1
311,295,314,312,1
310,307,312,312,1
312,320,312,311,1
316,330,312,310,1
320,336,311,310,1
322,334,310,309,1
323,329,309,309,1
320,323,309,308,1
315,318,309,306,1
309,313,309,303,1
302,309,308,300,1
298,308,305,298,1
297,309,302,299,1
297,311,301,300,1
298,312,301,301,1
299,312,302,302,1
300,311,302,304,1
301,311,302,306,1
302,312,301,308,1
302,313,302,309,1
301,311,303,309,1
301,308,304,310,1
303,306,306,310,1
308,305,307,311,1
314,306,309,312,1
319,306,309,312,1
321,304,308,311,1
320,298,307,310,1
314,290,305,309,1
306,281,303,308,1
300,273,301,308,1
295,270,299,307,1
293,271,298,307,1
294,278,297,307,1
296,289,299,307,1
299,299,301,306,1
300,305,301,305,1
300,310,302,304,1
300,318,302,305,1
301,329,302,307,1
302,336,303,310,1
303,338,306,312,1
302,336,309,314,1
302,332,312,315,1
299,325,313,314,1
297,314,312,311,1
294,302,309,308,1
293,292,308,306,1
294,288,311,306,1
296,289,314,305,1
300,294,316,305,1
304,302,312,305,1
307,309,307,303,1
308,315,301,300,1
309,320,299,299,1
311,327,300,298,1
312,331,305,299,1
311,332,311,302,1
309,331,316,304,1
308,328,317,306,1
309,325,316,308,1
311,323,314,310,1
312,321,314,310,1
314,319,315,310,1
315,318,315,310,1
316,318,312,308,1
316,319,307,307,1
318,317,302,306,1
321,314,298,306,1
324,311,295,307,1
324,310,295,308,1
323,308,296,311,1
322,307,300,313,1
322,305,303,314,1
324,300,306,314,1
327,293,306,313,1
328,286,305,312,1
326,281,306,311,1
321,281,307,311,1
312,286,308,311,1
302,294,309,311,1
294,301,309,310,1
292,305,310,310,1
293,306,310,309,1
297,305,311,308,1
303,303,312,308,1
307,300,311,308,1
310,298,308,309,1
310,297,305,308,1
308,296,304,307,1
304,297,304,307,1
301,300,306,306,1
297,304,308,306,1
294,310,311,306,1
291,312,313,305,1
290,308,316,305,1
291,301,319,305,1
294,294,322,305,1
297,292,324,306,1
298,294,324,307,1
297,298,323,307,1
292,302,320,306,1
288,305,318,304,1
285,306,316,303,1
283,307,313,301,1
284,307,309,300,1
289,306,304,300,1
295,306,302,301,1
301,308,302,302,1
305,309,305,304,1
308,310,305,307,1
312,311,305,309,1
317,314,304,311,1
322,317,304,312,1
325,321,306,312,1
327,326,309,312,1
326,327,312,312,1
321,324,312,312,1
313,320,310,312,1
307,318,308,312,1
303,320,307,312,1
302,322,307,312,1
303,321,307,313,1
303,316,307,313,1
304,309,309,313,1
303,304,309,311,1
300,301,308,310,1
298,300,307,308,1
296,300,305,305,1
296,299,305,304,1
298,299,305,304,1
300,300,305,304,1
303,303,305,304,1
306,307,304,303,1
310,312,306,301,1
315,320,307,301,1
323,328,310,303,1
330,333,312,305,1
332,333,315,307,1
328,326,317,310,1
320,315,316,312,1
312,304,314,313,1
307,296,312,313,1
303,292,309,313,1
300,290,306,311,1
296,288,303,308,1
292,288,301,305,1
290,290,299,302,1
290,298,297,300,1
289,307,297,299,1
289,314,298,300,1
291,319,301,302,1
292,321,303,304,1
292,322,304,305,1
293,319,304,306,1
295,311,302,306,1
294,303,303,305,1
293,295,306,304,1
291,291,310,304,1
289,290,315,304,1
291,295,318,305,1
296,305,317,308,1
301,309,317,311,1
305,304,316,315,1
308,296,318,317,1
310,291,320,318,1
313,290,319,319,1
315,294,314,317,1
317,300,308,315,1
316,306,303,312,1
315,310,298,309,1
313,314,295,307,1
310,318,294,307,1
308,324,296,307,1
307,328,300,308,1
307,330,303,309,1
305,329,306,310,1
302,327,307,310,1
299,324,308,309,1
297,321,310,310,1
296,319,311,311,1
296,318,312,312,1
295,317,313,312,1
296,314,312,313,1
297,308,312,313,1
296,301,310,312,1
294,294,309,311,1
294,289,308,310,1
297,287,306,310,1
300,288,305,310,1
305,291,303,309,1
311,297,301,309,1
316,302,299,309,1
318,305,297,310,1
316,305,296,309,1
313,304,296,309,1
308,305,298,308,1
306,310,302,310,1
304,316,305,311,1
303,319,306,313,1
302,320,307,315,1
302,315,307,316,1
302,306,307,316,1
301,298,306,315,1
300,290,304,314,1
300,283,301,312,1
301,277,297,310,1
301,273,293,307,1
302,272,289,305,1
302,275,286,302,1
301,279,286,299,1
299,284,287,298,1
294,289,291,299,1
290,296,295,302,1
287,302,299,305,1
288,306,303,309,1
291,311,308,312,1
297,316,311,314,1
306,320,313,315,1
315,323,313,315,1
320,324,313,312,1
323,323,312,311,1
325,323,313,311,1
326,325,313,311,1
326,327,314,311,1
327,327,315,310,1
325,326,314,310,1
324,323,314,310,1
321,319,313,310,1
319,317,310,309,1
316,316,307,308,1
311,317,307,308,1
306,318,307,308,1
303,318,305,308,1
302,315,302,307,1
300,311,300,305,1
301,305,300,305,1
302,298,299,303,1
302,292,298,302,1
301,287,298,301,1
299,285,300,302,1
298,287,303,304,1
296,293,304,306,1
294,301,305,309,1
295,309,307,312,1
299,316,309,315,1
303,318,312,315,1
308,318,315,315,1
311,317,319,314,1
313,317,321,313,1
315,323,321,313,1
316,332,319,312,1
314,339,315,310,1
310,339,310,308,1
304,333,305,307,1
295,325,301,306,1
287,319,298,305,1
282,315,297,305,1
280,312,297,306,1
281,310,298,307,1
283,308,300,308,1
286,305,301,308,1
289,304,303,308,1
293,304,304,306,1
298,305,304,304,1
302,305,304,302,1
305,305,304,301,1
306,304,304,302,1
307,302,304,304,1
308,299,304,307,1
309,295,305,310,1
311,289,306,311,1
310,282,308,310,1
310,277,307,311,1
310,275,304,311,1
310,279,303,313,1
311,290,305,315,1
310,305,309,317,1
307,321,313,318,1
306,330,316,318,1
306,329,317,319,1
307,319,317,319,1
307,304,318,319,1
307,291,320,319,1
308,281,322,319,1
309,278,321,319,1
309,283,320,318,1
310,293,318,318,1
312,305,317,317,1
313,315,316,318,1
314,320,314,317,1
314,322,312,316,1
313,321,311,315,1
310,320,310,313,1
308,320,308,311,1
306,318,306,310,1
306,317,304,310,1
307,316,302,311,1
306,314,301,312,1
304,312,300,312,1
303,309,300,311,1
304,307,300,312,1
308,307,302,313,1
313,310,306,314,1
316,312,309,315,1
316,314,311,314,1
312,317,312,312,1
310,322,311,310,1
310,326,309,308,1
311,329,306,306,1
314,328,303,305,1
316,325,301,304,1
315,321,296,303,1
310,315,291,301,1
304,310,287,300,1
298,306,285,300,1
296,306,286,302,1
296,308,291,304,1
297,311,298,306,1
299,315,305,309,1
301,318,310,312,1
304,318,312,313,1
306,315,312,313,1
308,312,312,312,1
310,310,312,311,1
313,308,311,309,1
314,306,310,309,1
313,305,309,309,1
312,304,308,310,1
309,305,307,310,1
308,308,306,310,1
306,310,305,310,1
305,312,304,310,1
303,312,301,309,1
301,313,301,308,1
300,314,301,308,1
301,315,302,308,1
303,317,305,310,1
304,318,308,311,1
302,316,309,311,1
297,311,307,309,1
291,307,301,306,1
289,305,297,304,1
292,305,296,304,1
296,307,298,305,1
301,306,301,308,1
304,302,305,309,1
307,301,309,310,1
309,304,311,310,1
310,308,312,309,1
311,311,313,309,1
312,309,313,308,1
315,303,311,309,1
316,298,309,309,1
316,293,306,309,1
313,290,302,309,1
310,289,299,307,1
306,288,296,306,1
302,286,293,305,1
298,286,292,304,1
297,288,296,304,1
298,291,301,305,1
301,293,304,306,1
304,295,305,307,1
308,297,305,309,1
309,299,303,310,1
309,303,300,311,1
308,309,298,310,1
309,316,298,309,1
311,322,299,307,1
316,326,303,307,1
322,330,309,308,1
326,331,314,309,1
327,331,318,310,1
323,330,322,311,1
319,330,324,311,1
314,329,323,311,1
311,327,320,312,1
309,325,316,312,1
306,323,313,312,1
302,321,311,312,1
300,318,309,312,1
300,315,308,312,1
301,312,307,310,1
302,308,306,308,1
302,306,302,305,1
303,305,299,303,1
306,304,297,303,1
310,302,295,303,1
315,298,294,303,1
320,294,294,305,1
325,290,297,308,1
327,289,301,311,1
325,289,304,312,1
318,288,306,311,1
309,287,307,309,1
301,287,308,309,1
296,291,310,308,1
294,297,310,308,1
294,306,311,308,1
295,317,310,307,1
297,327,308,307,1
297,330,305,307,1
297,329,302,306,1
297,326,301,304,1
296,322,300,301,1
295,317,300,298,1
295,314,303,296,1
295,309,307,296,1
295,304,311,296,1
296,299,313,297,1
299,296,312,298,1
303,295,310,300,1
307,294,308,302,1
310,295,306,303,1
311,296,306,305,1
310,298,308,306,1
305,303,310,306,1
298,309,311,305,1
294,314,311,304,1
296,316,309,304,1
301,317,307,303,1
309,317,305,303,1
316,316,301,302,1
320,313,298,300,1
321,308,296,299,1
320,305,295,299,1
315,302,294,298,1
308,300,293,296,1
303,300,293,295,1
300,301,296,296,1
299,305,301,296,1
299,309,305,296,1
298,314,309,296,1
297,317,312,297,1
296,320,313,298,1
295,321,313,300,1
294,321,312,302,1
295,319,309,303,1
299,317,307,306,1
303,315,308,308,1
303,315,312,309,1
302,315,318,310,1
300,316,324,311,1
299,316,327,311,1
299,315,327,310,1
300,313,325,308,1
302,312,323,307,1
305,310,321,306,1
310,309,320,307,1
314,307,317,307,1
319,306,312,308,1
324,304,305,308,1
326,302,299,308,1
325,299,296,308,1
322,296,296,308,1
316,295,297,309,1
309,298,301,310,1
304,302,305,312,1
301,307,308,313,1
298,310,309,313,1
296,312,307,311,1
294,312,304,309,1
295,313,302,308,1
296,314,301,308,1
299,313,301,309,1
302,307,301,310,1
303,297,301,310,1
303,290,300,310,1
301,287,299,309,1
297,290,299,307,1
293,296,298,306,1
290,305,298,307,1
289,317,297,308,1
290,324,297,309,1
294,323,294,310,1
296,317,290,309,1
299,310,288,308,1
302,307,288,308,1
304,306,290,308,1
305,304,295,310,1
307,302,299,311,1
309,299,303,314,1
312,298,308,314,1
314,298,312,314,1
314,300,316,314,1
313,302,319,313,1
312,304,320,313,1
309,306,321,313,1
307,308,320,313,1
304,306,318,313,1
302,301,312,313,1
300,293,307,312,1
298,283,302,311,1
297,275,298,311,1
296,272,295,311,1
296,274,292,310,1
296,281,291,310,1
297,290,293,310,1
298,301,297,311,1
299,311,302,311,1
299,319,307,310,1
300,324,310,309,1
301,323,312,310,1
302,320,313,310,1
300,315,313,309,1
300,311,313,309,1
302,308,311,308,1
306,306,310,308,1
311,303,308,308,1
316,301,307,308,1
318,301,307,308,1
317,304,307,308,1
312,307,308,307,1
305,315,310,306,1
299,326,314,306,1
295,333,314,306,1
291,334,312,304,1
288,329,310,302,1
287,322,309,301,1
287,314,307,300,1
289,308,305,300,1
292,303,302,301,1
294,295,299,302,1
296,285,297,303,1
300,280,297,304,1
308,282,299,306,1
317,287,300,307,1
322,291,301,308,1
322,293,301,308,1
318,293,300,308,1
312,294,300,307,1
306,296,302,306,1
302,300,306,306,1
298,304,311,306,1
294,308,315,306,1
290,310,316,306,1
288,311,315,306,1
288,313,315,306,1
292,318,315,306,1
298,323,314,306,1
304,324,312,306,1
310,323,310,305,1
314,321,308,303,1
316,321,306,301,1
318,320,305,300,1
320,320,305,301,1
321,320,306,302,1
319,318,306,303,1
316,316,305,303,1
312,313,303,302,1
310,309,301,302,1
308,304,299,302,1
306,297,296,303,1
304,292,294,304,1
306,290,294,306,1
309,289,298,307,1
312,289,302,308,1
312,289,306,308,1
310,287,307,307,1
308,287,305,305,1
307,288,304,303,1
307,293,304,303,1
306,299,304,302,1
305,302,305,302,1
304,303,304,302,1
304,304,302,301,1
304,304,300,300,1
305,306,300,300,1
306,310,301,300,1
307,316,302,301,1
307,322,304,302,1
308,325,304,304,1
307,325,304,305,1
305,322,304,307,1
303,319,304,308,1
300,314,306,310,1
300,307,309,311,1
301,303,310,312,1
302,303,309,313,1
304,306,308,313,1
304,308,307,313,1
304,308,306,314,1
306,305,305,312,1
307,299,305,311,1
307,291,305,309,1
307,284,307,307,1
307,277,309,307,1
307,271,309,307,1
307,267,308,308,1
307,266,305,308,1
307,273,304,309,1
308,286,304,310,1
310,301,304,310,1
312,313,305,310,1
314,321,306,311,1
316,324,308,312,1
318,320,310,313,1
318,315,312,313,1
313,311,314,312,1
308,309,313,311,1
303,308,309,309,1
301,305,305,309,1
301,300,303,309,1
299,292,303,307,1
296,283,302,306,1
295,276,300,306,1
295,274,299,305,1
298,279,300,305,1
301,289,300,306,1
303,300,301,306,1
303,308,304,306,1
301,309,308,306,1
299,305,310,307,1
296,299,310,306,1
295,293,308,307,1
295,291,306,309,1
297,294,304,312,1
300,297,303,315,1
304,302,306,316,1
306,307,309,317,1
307,314,311,316,1
306,322,311,313,1
304,327,308,311,1
304,325,304,309,1
305,318,299,309,1
307,311,295,308,1
310,305,292,308,1
314,303,289,308,1
315,304,289,308,1
315,306,289,308,1
312,309,289,308,1
309,313,290,308,1
307,318,292,308,1
307,323,296,308,1
310,331,300,310,1
314,338,305,311,1
319,341,309,313,1
322,341,312,314,1
322,338,313,314,1
320,331,313,314,1
316,323,313,313,1
312,316,313,311,1
308,310,314,309,1
305,308,317,307,1
304,310,318,305,1
303,316,317,302,1
304,320,314,299,1
304,321,312,297,1
306,320,313,297,1
307,320,316,299,1
306,321,322,301,1
304,321,325,304,1
300,316,324,305,1
297,306,319,305,1
294,296,313,304,1
292,288,307,304,1
292,283,301,304,1
294,282,298,304,1
298,284,295,306,1
303,288,294,307,1
308,293,295,308,1
311,300,297,310,1
311,307,301,312,1
309,312,306,313,1
307,314,312,313,1
306,315,318,313,1
305,315,319,312,1
305,315,317,312,1
305,315,314,311,1
305,315,309,311,1
304,315,305,310,1
304,314,302,309,1
303,312,300,308,1
302,309,298,305,1
299,304,296,303,1
297,300,296,302,1
295,299,296,302,1
295,301,297,303,1
295,304,297,305,1
297,307,299,308,1
300,311,301,311,1
304,316,304,314,1
310,319,305,316,1
316,316,306,318,1
320,308,304,318,1
320,298,301,317,1
315,286,297,315,1
310,275,295,313,1
305,267,295,312,1
303,263,297,312,1
302,262,299,312,1
302,261,302,312,1
303,265,305,312,1
304,276,308,312,1
305,291,312,312,1
307,304,315,313,1
308,316,317,313,1
308,329,316,312,1
308,337,314,310,1
307,341,312,308,1
305,341,309,306,1
304,338,308,304,1
303,336,309,303,1
302,332,311,303,1
302,329,315,303,1
303,327,318,303,1
304,327,319,302,1
307,327,319,303,1
310,328,318,304,1
311,327,317,305,1
312,324,316,305,1
313,321,314,306,1
316,320,313,307,1
320,318,311,308,1
324,312,309,309,1
325,308,309,310,1
324,308,310,311,1
319,313,311,312,1
313,320,312,312,1
306,325,312,310,1
301,325,313,310,1
297,322,313,310,1
294,318,311,310,1
292,313,307,309,1
290,309,302,308,1
291,305,298,306,1
296,301,295,305,1
301,297,293,302,1
306,292,292,300,1
311,290,292,299,1
317,294,295,300,1
321,300,297,301,1
320,306,299,301,1
315,310,301,302,1
306,313,302,302,1
295,315,303,301,1
285,313,302,301,1
279,307,301,300,1
279,301,301,300,1
284,296,302,301,1
294,293,304,303,1
305,293,305,306,1
315,297,304,308,1
321,302,303,310,1
323,307,302,311,1
323,310,304,313,1
322,313,306,314,1
320,317,310,314,1
315,319,312,313,1
309,320,314,312,1
303,320,314,310,1
299,322,315,308,1
296,323,313,307,1
294,324,310,306,1
292,323,308,306,1
291,322,307,304,1
290,319,308,302,1
291,317,307,302,1
292,314,305,301,1
292,313,302,301,1
294,313,300,302,1
298,312,300,303,1
304,310,300,306,1
311,309,301,309,1
318,307,302,312,1
323,307,303,315,1
324,306,305,317,1
322,304,307,318,1
317,301,309,318,1
311,296,312,317,1
305,290,314,317,1
300,283,314,316,1
297,277,312,314,1
296,275,309,312,1
296,278,306,311,1
298,286,307,312,1
299,297,310,311,1
300,307,312,310,1
300,314,313,309,1
301,320,314,310,1
302,327,314,311,1
305,337,313,312,1
311,345,312,313,1
318,347,311,315,1
325,344,311,316,1
330,338,311,317,1
333,329,311,317,1
333,323,310,317,1
331,317,311,316,1
328,312,309,316,1
322,306,307,315,1
315,301,304,314,1
308,297,302,313,1
302,293,300,312,1
298,292,300,312,1
297,294,299,312,1
297,297,297,312,1
297,299,295,312,1
295,298,294,311,1
292,296,295,310,1
290,296,297,309,1
289,299,299,310,1
289,304,303,310,1
291,305,307,311,1
293,300,311,311,1
296,295,314,312,1
301,291,316,313,1
308,291,317,314,1
313,296,315,314,1
315,304,313,313,1
315,314,309,312,1
314,321,307,311,1
313,324,305,311,1
310,322,304,311,1
308,315,304,311,1
306,306,304,312,1
304,298,304,312,1
302,291,303,312,1
300,288,301,312,1
298,290,298,312,1
297,292,293,311,1
295,293,288,309,1
293,293,283,307,1
293,294,280,305,1
295,297,281,303,1
299,302,283,302,1
304,310,285,301,1
306,319,288,300,1
306,325,292,297,1
304,328,296,295,1
303,325,302,295,1
303,319,308,296,1
305,312,313,298,1
309,308,316,300,1
313,308,316,304,1
319,311,316,308,1
321,314,316,311,1
319,315,316,313,1
313,313,315,313,1
307,309,313,312,1
304,305,313,310,1
303,302,313,310,1
306,300,315,310,1
310,298,315,311,1
315,298,315,311,1
320,299,314,311,1
322,303,315,311,1
321,306,314,310,1
320,308,311,308,1
321,311,308,307,1
323,316,304,306,1
326,324,303,305,1
326,334,302,306,1
324,340,302,306,1
320,339,302,307,1
315,333,302,306,1
307,325,302,305,1
301,316,301,303,1
296,310,300,302,1
294,307,297,301,1
293,307,295,300,1
292,307,295,301,1
292,306,298,302,1
292,301,301,303,1
292,296,304,304,1
292,292,305,305,1
294,290,305,307,1
298,289,304,310,1
304,289,305,312,1
309,289,306,314,1
314,291,309,316,1
316,294,309,316,1
315,296,309,313,1
311,298,307,310,1
306,299,305,307,1
302,300,302,305,1
298,301,301,303,1
296,301,299,303,1
295,301,298,303,1
293,302,298,304,1
291,305,301,305,1
291,308,306,306,1
291,311,312,306,1
291,310,316,306,1
295,304,318,307,1
299,293,318,308,1
306,279,316,310,1
313,266,313,313,1
318,258,309,316,1
320,255,305,316,1
320,259,301,316,1
320,272,299,315,1
319,289,299,314,1
317,305,301,312,1
315,314,303,311,1
315,317,306,312,1
316,318,310,313,1
315,314,313,314,1
312,308,315,315,1
310,307,316,315,1
310,311,319,315,1
312,314,320,314,1
315,315,320,313,1
320,316,318,311,1
324,318,315,309,1
327,321,312,307,1
327,325,311,306,1
323,328,311,305,1
319,327,310,305,1
313,323,308,304,1
306,317,305,302,1
299,310,302,301,1
294,306,300,300,1
291,306,297,299,1
290,310,296,299,1
290,318,295,301,1
291,326,295,301,1
293,333,296,302,1
296,338,297,303,1
300,337,298,304,1
302,334,300,304,1
303,329,301,305,1
303,323,302,304,1
302,317,304,303,1
301,309,305,303,1
301,302,307,303,1
301,296,310,304,1
302,293,315,305,1
302,293,320,306,1
303,295,322,306,1
304,297,322,304,1
304,301,321,303,1
304,305,320,302,1
304,311,319,300,1
302,316,318,299,1
300,322,314,299,1
297,327,310,300,1
295,329,306,301,1
292,328,305,301,1
290,325,304,301,1
289,322,305,303,1
290,318,306,304,1
293,315,307,305,1
298,313,307,305,1
304,312,305,305,1
308,312,304,305,1
312,311,303,306,1
313,309,303,306,1
314,307,304,304,1
312,304,305,300,1
310,304,307,297,1
307,305,308,296,1
306,309,309,296,1
304,315,309,299,1
302,318,307,300,1
298,318,303,299,1
295,314,298,297,1
295,309,294,296,1
300,302,293,296,1
306,295,295,299,1
312,288,300,302,1
316,284,306,305,1
318,284,310,308,1
318,288,313,310,1
315,293,312,311,1
310,296,308,309,1
305,297,305,307,1
303,296,301,305,1
301,295,299,302,1
299,297,299,301,1
297,301,300,300,1
296,309,305,301,1
296,315,312,301,1
296,319,317,301,1
295,321,318,302,1
294,323,315,302,1
294,324,312,303,1
294,325,310,304,1
294,325,309,304,1
297,323,310,306,1
299,318,311,308,1
301,312,313,310,1
304,306,315,312,1
306,302,317,313,1
308,298,319,313,1
310,294,316,312,1
310,292,312,311,1
309,293,308,309,1
309,299,306,308,1
308,308,306,308,1
309,316,308,308,1
312,314,308,309,1
318,306,305,309,1
325,295,299,308,1
331,286,291,307,1
337,280,286,308,1
339,280,286,310,1
337,285,289,312,1
329,294,294,312,1
317,303,297,310,1
305,308,298,307,1
296,311,297,305,1
292,313,297,303,1
289,315,297,302,1
289,317,299,302,1
290,318,302,303,1
292,315,306,303,1
293,309,308,304,1
295,302,308,305,1
297,295,307,305,1
301,290,305,305,1
305,289,304,305,1
308,292,303,305,1
310,300,303,306,1
311,310,303,306,1
311,317,303,307,1
312,317,303,308,1
313,313,302,308,1
315,305,300,309,1
317,297,297,310,1
319,292,295,312,1
320,292,297,314,1
316,297,300,315,1
310,301,304,314,1
304,302,306,312,1
301,304,306,309,1
298,307,307,307,1
296,311,307,306,1
294,314,308,305,1
291,314,309,304,1
288,311,310,305,1
287,308,312,308,1
291,307,314,312,1
297,307,316,314,1
302,308,316,316,1
306,310,316,317,1
308,313,317,318,1
308,315,317,317,1
307,316,317,315,1
304,314,318,313,1
302,310,317,312,1
302,306,312,310,1
301,303,307,307,1
301,302,304,305,1
302,306,304,304,1
302,313,307,303,1
302,320,310,304,1
302,328,312,304,1
304,332,313,306,1
307,333,316,307,1
310,327,318,305,1
313,318,319,305,1
314,311,317,305,1
315,304,312,305,1
315,300,305,304,1
313,298,298,304,1
311,299,293,304,1
309,302,288,304,1
307,303,283,304,1
305,301,281,304,1
303,299,282,304,1
303,299,285,304,1
306,300,289,303,1
311,302,293,303,1
317,303,297,304,1
322,304,304,305,1
326,303,312,305,1
328,301,318,305,1
326,299,318,304,1
321,299,315,303,1
316,298,311,303,1
312,296,307,305,1
310,296,306,308,1
307,298,305,309,1
303,303,304,310,1
300,310,302,310,1
297,317,300,310,1
295,320,299,310,1
296,320,297,310,1
297,318,296,311,1
300,315,296,310,1
302,312,297,310,1
304,310,299,309,1
306,307,301,310,1
307,305,302,310,1
310,301,301,310,1
311,292,298,310,1
310,280,295,309,1
310,272,295,309,1
311,274,300,310,1
310,280,304,311,1
308,287,304,311,1
303,289,301,310,1
299,288,295,308,1
295,289,292,305,1
294,295,292,304,1
292,305,295,305,1
290,319,298,307,1
289,332,301,309,1
289,339,304,309,1
288,337,304,308,1
289,330,305,307,1
294,324,306,307,1
299,316,307,307,1
304,308,306,306,1
307,302,305,305,1
308,304,305,305,1
308,310,306,306,1
309,314,306,306,1
308,313,305,306,1
307,307,302,306,1
304,299,300,305,1
301,293,299,304,1
299,287,299,304,1
298,283,300,305,1
299,284,303,306,1
301,290,307,308,1
304,300,312,309,1
307,312,314,308,1
307,322,315,307,1
308,331,314,308,1
309,334,313,308,1
309,333,312,308,1
308,332,312,306,1
307,331,313,306,1
307,328,313,306,1
308,321,313,307,1
313,313,312,308,1
321,307,314,308,1
327,303,317,310,1
329,300,321,312,1
327,299,322,313,1
322,299,319,312,1
314,300,315,312,1
306,299,311,313,1
300,298,308,312,1
296,297,306,312,1
296,297,305,312,1
299,299,304,312,1
306,303,303,312,1
314,308,303,312,1
322,311,303,313,1
327,311,303,314,1
328,307,302,315,1
325,301,302,315,1
319,296,302,314,1
313,294,302,313,1
309,296,301,313,1
307,301,301,312,1
306,308,302,311,1
304,314,304,311,1
300,317,306,310,1
296,318,307,310,1
292,319,310,309,1
290,319,312,310,1
290,320,313,311,1
293,320,311,311,1
296,319,308,310,1
298,317,304,310,1
298,314,302,309,1
297,310,301,308,1
296,305,299,309,1
296,300,297,309,1
296,296,294,308,1
298,292,293,307,1
300,290,293,307,1
303,293,295,306,1
307,301,296,306,1
309,306,296,305,1
310,305,295,304,1
309,301,294,302,1
306,297,295,302,1
303,294,297,302,1
300,292,298,302,1
298,291,298,303,1
298,290,298,304,1
303,291,300,305,1
311,293,302,308,1
319,298,303,310,1
324,304,304,311,1
324,308,304,311,1
319,311,303,311,1
312,313,302,310,1
305,315,301,309,1
303,319,300,308,1
304,325,301,307,1
305,330,304,307,1
307,333,309,308,1
307,333,312,307,1
307,329,313,307,1
306,322,311,305,1
304,311,310,304,1
305,301,308,304,1
308,295,307,304,1
310,291,305,304,1
311,291,302,305,1
310,292,298,306,1
307,292,297,307,1
304,290,297,309,1
304,288,300,311,1
307,288,304,315,1
314,290,309,317,1
321,295,314,319,1
328,302,317,319,1
332,310,317,318,1
332,316,317,317,1
331,318,316,318,1
328,317,315,318,1
323,316,312,317,1
314,320,309,314,1
305,327,307,312,1
296,334,308,311,1
290,334,311,310,1
286,328,313,309,1
285,320,313,308,1
286,314,312,306,1
287,311,310,306,1
289,308,308,307,1
291,306,306,307,1
290,303,304,306,1
289,302,302,305,1
290,302,301,305,1
292,304,300,306,1
296,306,299,307,1
301,307,301,309,1
306,305,303,311,1
309,302,306,311,1
312,301,308,311,1
313,300,307,310,1
312,300,304,308,1
310,301,299,307,1
308,303,295,306,1
307,305,294,306,1
306,307,295,306,1
306,309,297,307,1
305,310,298,308,1
304,312,299,308,1
302,316,300,308,1
299,320,303,308,1
299,322,305,309,1
298,322,307,309,1
298,320,309,310,1
300,319,310,310,1
302,318,313,311,1
304,317,316,311,1
305,316,317,312,1
304,314,317,312,1
304,312,317,312,1
306,310,315,312,1
311,308,312,312,1
317,305,309,311,1
324,302,306,310,1
331,301,305,311,1
333,300,306,311,1
329,299,307,311,1
322,298,309,310,1
315,298,311,309,1
312,299,312,309,1
310,300,312,309,1
309,299,310,309,1
308,298,306,309,1
307,297,303,308,1
304,297,300,307,1
299,299,298,307,1
294,299,299,307,1
290,299,300,308,1
289,300,303,310,1
293,301,307,313,1
299,305,311,315,1
305,310,313,316,1
310,313,313,316,1
312,315,313,315,1
311,315,312,314,1
306,315,311,312,1
300,309,310,310,1
294,301,305,309,1
289,295,301,308,1
287,292,297,308,1
287,295,294,308,1
289,300,294,309,1
294,304,296,309,1
302,304,300,309,1
309,300,304,310,1
314,294,308,310,1
313,290,312,309,1
310,293,314,308,1
306,303,314,306,1
301,313,311,304,1
297,318,306,302,1
295,319,301,301,1
296,315,297,302,1
300,313,296,303,1
306,312,298,306,1
311,312,301,308,1
315,310,303,310,1
314,305,305,310,1
312,304,305,311,1
308,306,306,311,1
306,310,307,311,1
305,315,308,311,1
305,320,311,311,1
306,324,313,312,1
306,324,313,311,1
306,320,312,311,1
305,316,311,310,1
304,313,309,309,1
304,312,306,308,1
303,310,304,307,1
303,307,303,307,1
303,304,306,305,1
302,300,310,304,1
302,298,314,302,1
303,298,317,300,1
305,299,319,301,1
308,301,317,304,1
311,304,314,307,1
312,308,310,310,1
314,313,308,312,1
315,319,308,314,1
314,321,309,315,1
311,318,309,314,1
305,313,307,312,1
299,309,305,310,1
295,306,304,308,1
292,303,303,307,1
292,300,302,307,1
292,298,302,307,1
292,299,303,307,1
293,302,304,307,1
295,304,306,307,1
299,307,308,307,1
306,309,308,308,1
315,312,309,309,1
325,315,309,309,1
336,319,309,310,1
342,323,309,311,1
342,325,308,311,1
333,322,307,311,1
319,319,306,310,1
304,317,306,310,1
294,318,307,311,1
289,321,310,312,1
288,322,312,313,1
289,318,314,312,1
291,311,315,311,1
293,305,313,311,1
295,300,310,312,1
297,296,308,313,1
300,294,308,315,1
302,291,309,316,1
305,289,311,317,1
309,289,313,319,1
315,291,316,320,1
321,294,318,322,1
325,296,319,322,1
326,295,320,321,1
323,294,321,319,1
317,294,321,318,1
311,297,317,318,1
305,303,312,317,1
301,309,306,315,1
299,319,303,314,1
297,328,302,313,1
295,331,302,312,1
292,327,303,311,1
291,322,303,310,1
291,317,304,309,1
291,314,305,308,1
292,311,305,308,1
294,307,307,307,1
295,302,308,307,1
296,299,309,307,1
297,300,309,308,1
298,304,311,308,1
299,310,313,308,1
299,315,313,308,1
299,317,311,309,1
300,317,306,309,1
301,314,299,308,1
302,309,292,307,1
303,303,287,307,1
303,299,286,309,1
303,296,287,311,1
300,295,289,312,1
298,296,290,312,1
296,302,292,311,1
295,309,295,311,1
296,318,300,311,1
297,323,307,311,1
299,326,312,311,1
301,327,316,310,1
303,326,317,309,1
303,324,315,307,1
302,322,311,305,1
299,319,307,303,1
296,316,304,301,1
292,313,303,300,1
291,311,306,300,1
293,310,309,302,1
298,309,311,304,1
306,308,311,306,1
314,304,311,307,1
317,298,309,308,1
315,293,308,308,1
310,290,308,308,1
306,289,309,309,1
305,289,310,309,1
306,290,311,310,1
308,295,312,311,1
309,301,313,312,1
308,302,314,313,1
304,299,315,313,1
299,293,315,312,1
296,289,314,311,1
295,289,313,309,1
297,291,308,307,1
301,296,303,306,1
306,304,301,305,1
312,311,301,306,1
317,317,303,308,1
320,320,305,309,1
323,322,308,310,1
323,321,309,310,1
319,317,309,309,1
314,308,308,308,1
307,296,307,306,1
301,284,305,305,1
296,278,304,304,1
293,279,304,303,1
289,287,308,302,1
287,300,314,301,1
285,313,321,299,1
283,318,325,297,1
280,316,325,296,1
279,313,321,296,1
280,311,318,298,1
282,312,317,301,1
287,314,318,304,1
292,318,318,308,1
297,320,317,310,1
302,320,317,311,1
304,317,318,311,1
305,314,319,309,1
306,312,318,308,1
308,310,315,307,1
309,309,309,307,1
309,308,303,307,1
308,307,299,307,1
308,306,296,307,1
309,312,295,308,1
310,321,296,310,1
311,329,298,312,1
310,331,300,312,1
308,326,304,312,1
306,318,306,313,1
305,309,306,313,1
304,299,305,313,1
303,291,302,312,1
301,288,300,311,1
299,289,300,309,1
299,296,302,308,1
298,303,304,306,1
296,308,304,304,1
295,310,302,302,1
297,311,301,301,1
301,309,299,300,1
305,305,298,301,1
309,301,298,302,1
310,298,299,303,1
307,295,302,304,1
304,292,304,304,1
302,293,308,305,1
304,297,311,306,1
308,302,312,307,1
313,309,313,310,1
316,315,314,312,1
316,318,314,313,1
313,317,314,314,1
309,314,314,314,1
305,310,314,313,1
302,307,313,312,1
298,304,312,312,1
296,300,312,312,1
294,296,312,312,1
294,292,312,313,1
294,287,313,314,1
297,283,314,315,1
301,281,314,316,1
304,281,314,316,1
308,283,313,316,1
312,287,312,315,1
313,293,308,314,1
311,300,304,312,1
307,308,301,311,1
304,315,298,310,1
304,317,297,310,1
307,313,297,310,1
311,307,298,311,1
314,305,299,311,1
315,307,301,311,1
316,312,302,311,1
315,316,302,311,1
311,317,301,309,1
304,315,300,307,1
299,312,299,306,1
297,308,299,305,1
297,302,301,306,1
299,296,304,306,1
301,292,307,307,1
301,292,308,307,1
302,300,308,306,1
304,312,308,306,1
305,323,307,305,1
306,331,306,304,1
306,334,305,303,1
305,333,306,302,1
305,326,309,301,1
304,318,312,300,1
303,313,314,301,1
302,310,315,303,1
301,309,315,304,1
300,309,316,305,1
299,310,319,306,1
298,313,320,307,1
298,314,318,308,1
301,313,316,308,1
305,311,313,308,1
309,309,309,307,1
313,309,306,306,1
317,310,304,307,1
319,311,303,307,1
319,311,302,308,1
319,310,299,309,1
318,308,297,309,1
317,307,294,309,1
314,305,292,309,1
310,302,293,308,1
304,299,297,308,1
298,297,303,308,1
295,296,309,308,1
296,297,311,310,1
298,298,313,311,1
301,300,313,313,1
303,302,312,313,1
305,303,311,313,1
308,301,308,313,1
309,296,306,311,1
309,290,306,309,1
311,287,306,308,1
313,290,307,307,1
315,299,308,307,1
315,309,309,307,1
315,313,309,308,1
317,315,308,309,1
318,316,306,311,1
317,316,304,311,1
313,312,303,311,1
309,305,303,310,1
305,297,302,309,1
302,288,301,308,1
300,280,300,306,1
301,277,301,305,1
304,277,302,304,1
308,281,305,305,1
312,285,309,305,1
313,291,313,305,1
311,298,315,305,1
307,308,316,303,1
302,315,314,300,1
299,319,312,298,1
299,322,310,297,1
300,323,306,297,1
301,322,302,297,1
300,317,296,297,1
299,313,291,297,1
298,309,289,299,1
298,307,288,300,1
299,309,292,301,1
303,314,299,303,1
307,320,305,305,1
309,322,309,305,1
308,319,309,305,1
306,310,307,305,1
303,301,304,305,1
303,295,301,305,1
304,296,299,306,1
306,301,299,308,1
309,307,300,309,1
310,311,300,309,1
308,313,301,309,1
305,315,303,308,1
302,316,304,307,1
299,317,303,305,1
297,318,301,304,1
297,318,301,304,1
298,318,299,303,1
303,316,298,303,1
306,314,297,304,1
309,314,297,306,1
309,316,298,307,1
308,319,299,308,1
307,320,303,309,1
309,316,307,311,1
312,310,311,312,1
314,304,314,312,1
315,299,315,312,1
315,295,316,312,1
314,291,315,311,1
311,290,314,311,1
307,292,314,310,1
303,297,317,310,1
300,303,323,312,1
299,307,329,313,1
301,304,329,314,1
303,298,326,314,1
307,295,324,314,1
313,298,324,315,1
317,303,325,316,1
317,308,322,315,1
315,309,316,313,1
314,308,309,312,1
313,304,303,311,1
309,300,299,309,1
305,296,296,307,1
303,291,295,305,1
302,289,295,304,1
302,289,296,303,1
302,292,297,303,1
302,297,299,305,1
303,302,301,307,1
304,308,303,308,1
304,310,305,309,1
304,308,305,310,1
303,307,306,309,1
304,307,306,309,1
304,309,305,309,1
305,312,305,310,1
307,317,305,310,1
308,323,306,310,1
308,328,309,310,1
308,330,311,309,1
309,331,311,308,1
309,328,310,305,1
308,323,309,303,1
307,317,306,301,1
307,313,305,300,1
308,311,304,300,1
308,310,303,301,1
308,311,303,302,1
308,311,303,305,1
308,313,305,307,1
308,314,306,310,1
307,314,307,311,1
307,312,307,312,1
307,310,306,313,1
308,308,305,313,1
310,307,304,313,1
311,307,302,312,1
313,308,300,312,1
314,308,299,312,1
314,308,300,311,1
311,309,301,311,1
307,310,304,310,1
305,314,306,310,1
305,320,308,310,1
305,324,308,309,1
305,324,304,307,1
304,320,301,306,1
304,314,300,305,1
303,306,299,305,1
303,300,299,305,1
303,296,299,306,1
304,296,301,308,1
304,297,303,308,1
304,297,304,309,1
303,296,304,309,1
302,294,305,310,1
302,292,305,310,1
301,291,301,309,1
301,291,297,308,1
303,293,292,307,1
305,296,291,306,1
307,302,292,305,1
308,308,298,305,1
307,311,302,304,1
304,312,305,304,1
302,308,305,303,1
302,305,304,303,1
303,304,304,303,1
304,307,304,303,1
305,312,305,304,1
306,316,305,305,1
306,315,305,307,1
305,311,306,308,1
304,304,306,310,1
303,300,307,311,1
303,299,309,313,1
304,303,312,315,1
305,308,316,315,1
307,313,318,316,1
309,316,318,315,1
313,320,317,315,1
316,324,316,315,1
319,325,316,314,1
322,326,316,314,1
324,324,316,313,1
322,320,316,312,1
318,313,316,311,1
312,307,316,310,1
307,304,316,308,1
304,303,316,307,1
303,306,317,306,1
303,309,316,306,1
303,310,315,305,1
302,310,313,305,1
301,309,311,305,1
299,308,309,306,1
298,307,309,307,1
296,306,308,308,1
294,305,307,308,1
293,303,307,308,1
291,299,306,307,1
289,293,303,305,1
288,286,300,303,1
290,285,298,302,1
296,292,299,302,1
304,304,300,304,1
312,316,303,306,1
319,321,306,309,1
323,321,309,310,1
329,320,311,311,1
333,320,311,310,1
337,324,312,309,1
339,328,311,308,1
339,329,310,308,1
337,327,307,308,1
329,322,302,307,1
316,315,296,304,1
302,307,290,301,1
291,301,287,299,1
284,300,287,298,1
283,301,290,298,1
288,303,294,298,1
296,304,301,298,1
305,304,307,298,1
314,303,310,299,1
318,299,311,301,1
318,294,311,303,1
314,288,312,305,1
306,283,313,306,1
300,282,312,308,1
295,285,311,309,1
294,291,310,310,1
293,300,309,310,1
294,308,309,309,1
296,314,308,310,1
299,318,307,310,1
302,317,305,311,1
303,313,303,312,1
304,308,303,312,1
308,305,304,314,1
313,305,307,316,1
315,305,311,317,1
314,305,314,317,1
310,306,316,317,1
305,308,317,316,1
300,310,318,313,1
297,312,318,312,1
297,313,315,310,1
298,313,313,309,1
300,315,311,308,1
302,319,309,308,1
303,321,309,308,1
304,319,312,309,1
305,316,313,310,1
306,314,312,310,1
307,312,311,310,1
307,311,311,310,1
307,310,312,311,1
307,310,313,312,1
307,313,313,312,1
309,317,311,313,1
312,320,308,313,1
314,314,303,312,1
314,304,299,311,1
311,295,298,310,1
307,289,299,309,1
304,286,303,308,1
304,285,307,308,1
305,285,310,308,1
308,286,311,309,1
311,291,311,309,1
313,300,310,309,1
314,310,309,309,1
313,319,308,309,1
310,323,309,308,1
307,321,311,308,1
305,317,314,309,1
305,313,317,310,1
305,308,317,311,1
306,304,316,312,1
305,300,314,312,1
304,297,311,312,1
302,296,308,311,1
300,294,305,310,1
298,295,304,309,1
298,296,303,308,1
298,299,303,308,1
300,303,302,306,1
304,307,300,305,1
309,311,299,304,1
314,315,300,303,1
319,320,301,303,1
324,326,303,302,1
326,329,304,303,1
324,330,304,303,1
318,329,304,304,1
310,324,304,306,1
303,318,304,307,1
299,310,304,309,1
298,303,305,310,1
299,299,307,311,1
300,296,308,312,1
301,296,308,311,1
299,295,309,308,1
298,293,312,306,1
297,289,315,305,1
297,286,319,304,1
300,286,320,305,1
304,287,319,307,1
308,290,316,309,1
311,296,312,310,1
312,302,309,310,1
313,309,306,309,1
313,317,304,308,1
311,322,302,308,1
309,325,300,308,1
306,325,300,308,1
305,324,299,308,1
303,323,298,309,1
302,321,295,308,1
299,314,292,307,1
296,304,291,306,1
292,294,292,306,1
290,289,293,306,1
291,287,296,307,1
293,290,299,308,1
297,292,301,309,1
302,293,302,309,1
306,294,303,309,1
309,296,305,309,1
312,299,307,310,1
315,303,309,310,1
316,310,311,311,1
314,318,311,310,1
312,323,311,310,1
309,324,308,309,1
305,319,304,307,1
302,309,300,304,1
299,298,295,303,1
297,290,292,302,1
297,287,291,301,1
297,290,292,301,1
299,298,296,302,1
304,308,302,304,1
310,317,308,307,1
317,321,312,308,1
320,320,315,308,1
322,318,315,308,1
322,315,313,308,1
321,313,311,308,1
317,311,310,308,1
311,310,312,308,1
307,311,315,309,1
307,315,320,311,1
310,320,323,313,1
313,323,321,313,1
315,323,318,313,1
313,321,315,312,1
309,318,313,311,1
302,314,312,309,1
296,310,312,307,1
294,303,312,305,1
298,295,314,305,1
304,287,315,305,1
310,281,316,305,1
313,277,316,305,1
313,278,315,304,1
310,282,311,303,1
307,287,307,302,1
305,292,302,302,1
304,296,298,303,1
304,302,294,304,1
304,310,292,305,1
302,318,291,306,1
300,322,294,308,1
299,324,299,310,1
302,322,305,313,1
307,317,311,316,1
314,314,317,318,1
320,313,321,319,1
322,314,323,319,1
321,318,320,316,1
315,320,315,313,1
307,320,309,311,1
300,317,305,308,1
295,313,304,306,1
293,310,306,305,1
291,304,310,304,1
290,298,314,303,1
291,295,316,302,1
291,297,313,300,1
290,301,308,300,1
290,304,304,300,1
290,304,301,302,1
292,304,299,304,1
293,306,299,306,1
295,309,298,307,1
297,312,296,307,1
301,314,295,309,1
305,316,296,310,1
309,317,297,312,1
313,318,299,313,1
315,319,300,313,1
315,317,299,312,1
315,314,298,311,1
315,309,297,310,1
313,302,294,309,1
309,295,292,307,1
304,287,289,305,1
298,283,287,304,1
293,285,287,303,1
290,290,290,305,1
289,297,295,307,1
287,301,300,308,1
286,305,304,309,1
286,309,309,308,1
288,312,312,309,1
292,313,317,310,1
299,314,323,313,1
309,317,328,316,1
318,319,331,319,1
324,318,329,318,1
325,314,326,316,1
322,309,321,313,1
314,306,319,310,1
306,303,318,308,1
299,300,318,308,1
296,298,316,309,1
297,296,312,310,1
300,295,307,311,1
304,297,304,311,1
309,302,303,310,1
314,308,303,310,1
319,315,305,311,1
323,321,306,311,1
325,326,305,311,1
323,326,305,310,1
318,323,304,309,1
313,318,304,308,1
308,313,306,308,1
305,310,308,307,1
303,312,311,307,1
300,317,312,305,1
299,324,310,304,1
298,331,308,303,1
299,334,304,303,1
301,329,301,301,1
304,318,299,301,1
306,308,298,302,1
307,300,298,302,1
306,296,299,302,1
306,293,298,302,1
306,293,299,303,1
305,294,301,304,1
305,298,306,306,1
304,304,311,307,1
302,311,314,308,1
301,316,315,308,1
300,317,314,308,1
297,314,313,307,1
297,312,312,306,1
297,311,312,305,1
300,311,313,305,1
307,313,314,306,1
315,314,316,307,1
323,313,314,307,1
327,309,311,307,1
326,302,306,305,1
320,294,302,303,1
309,288,300,302,1
299,286,300,300,1
291,285,300,301,1
287,287,301,302,1
287,289,303,304,1
289,291,305,305,1
292,294,306,306,1
297,297,305,307,1
301,301,303,307,1
305,305,301,308,1
307,310,300,308,1
307,314,299,308,1
305,317,298,307,1
304,320,297,305,1
304,320,296,303,1
304,319,295,300,1
306,316,296,300,1
312,315,300,301,1
317,314,304,302,1
322,314,308,304,1
324,312,310,305,1
325,310,310,306,1
325,307,309,307,1
322,306,307,308,1
316,306,304,308,1
308,308,303,306,1
302,309,304,307,1
298,312,309,307,1
296,313,316,308,1
296,313,321,310,1
297,313,324,311,1
300,312,323,311,1
302,310,319,311,1
305,309,315,310,1
307,309,312,310,1
310,310,310,312,1
315,313,310,313,1
322,319,311,315,1
329,320,313,318,1
334,315,315,319,1
335,308,317,319,1
330,299,317,317,1
320,291,313,313,1
311,286,307,310,1
305,283,303,308,1
301,280,302,306,1
300,279,303,307,1
300,278,304,307,1
301,280,304,307,1
302,283,302,307,1
303,290,301,307,1
305,299,301,306,1
307,311,301,306,1
310,323,301,306,1
312,331,301,306,1
313,335,302,307,1
313,337,303,308,1
311,338,305,308,1
308,336,307,308,1
306,330,310,309,1
305,323,312,310,1
305,317,312,311,1
305,314,311,311,1
308,311,309,310,1
310,307,306,308,1
312,301,301,306,1
311,294,295,305,1
309,290,290,304,1
305,290,288,305,1
303,296,292,307,1
302,304,299,310,1
303,314,307,313,1
305,321,314,315,1
307,325,317,315,1
308,326,317,315,1
307,324,316,315,1
303,319,316,315,1
300,313,318,314,1
299,309,320,313,1
301,307,320,312,1
305,307,317,311,1
312,310,316,311,1
322,312,314,312,1
330,314,314,313,1
333,317,314,312,1
331,321,317,311,1
324,323,320,310,1
314,323,322,309,1
302,321,321,309,1
294,318,319,309,1
288,316,316,309,1
285,316,313,308,1
284,319,310,306,1
288,323,307,305,1
293,328,306,305,1
298,330,305,305,1
301,326,305,305,1
302,317,306,306,1
303,304,308,306,1
304,292,308,305,1
305,282,308,304,1
307,275,310,303,1
310,276,311,303,1
314,284,312,304,1
317,293,309,304,1
318,299,304,305,1
318,302,302,307,1
316,303,302,309,1
313,303,303,312,1
309,304,304,313,1
304,307,306,313,1
300,311,309,313,1
298,315,311,312,1
298,314,313,311,1
298,308,312,310,1
299,299,310,309,1
299,293,310,309,1
300,291,310,308,1
301,289,310,308,1
302,289,309,307,1
305,292,306,305,1
309,295,303,304,1
313,297,299,303,1
317,298,297,302,1
318,299,296,302,1
317,302,298,303,1
314,309,302,304,1
310,317,305,305,1
307,323,307,307,1
306,326,308,308,1
305,326,309,309,1
306,326,308,311,1
305,322,307,312,1
304,314,305,311,1
302,302,304,311,1
302,293,303,311,1
303,289,303,311,1
304,289,303,310,1
304,294,306,310,1
305,300,310,310,1
306,305,313,311,1
306,307,314,311,1
305,307,313,311,1
306,305,310,309,1
307,304,306,309,1
309,304,303,308,1
309,306,301,307,1
309,313,301,307,1
309,323,303,308,1
310,330,308,310,1
312,330,313,311,1
315,327,318,312,1
319,322,321,312,1
323,317,321,313,1
327,312,318,313,1
327,308,314,312,1
325,306,313,312,1
321,305,312,311,1
316,305,312,311,1
312,304,310,310,1
309,306,307,308,1
307,310,305,308,1
306,314,303,306,1
303,318,300,305,1
300,322,298,304,1
298,324,295,303,1
296,324,293,303,1
296,322,292,303,1
297,321,294,303,1
299,318,296,304,1
301,316,300,305,1
304,314,304,306,1
308,313,309,307,1
312,310,314,310,1
317,308,316,311,1
322,308,317,311,1
324,307,315,308,1
326,307,313,306,1
326,307,314,306,1
322,308,316,306,1
316,310,318,307,1
310,313,314,307,1
304,314,305,305,1
300,312,295,304,1
299,307,287,304,1
300,301,284,304,1
302,297,284,305,1
304,298,288,307,1
305,300,293,309,1
305,304,298,311,1
303,307,301,311,1
303,309,304,312,1
303,309,307,312,1
305,307,311,313,1
309,303,314,313,1
312,300,315,312,1
313,299,314,310,1
310,298,313,308,1
306,297,314,306,1
303,297,315,306,1
300,296,315,307,1
298,295,312,307,1
297,293,310,308,1
298,292,307,308,1
298,291,304,309,1
298,289,302,309,1
297,284,298,309,1
294,275,294,308,1
291,268,292,308,1
289,264,292,309,1
287,265,294,310,1
287,275,300,311,1
291,294,307,313,1
299,315,313,313,1
308,332,317,312,1
316,343,318,312,1
323,349,319,311,1
327,349,318,311,1
327,347,317,311,1
324,345,316,310,1
321,344,314,311,1
319,342,313,311,1
318,337,311,311,1
316,332,309,311,1
314,326,307,311,1
309,319,305,310,1
305,313,303,310,1
303,309,302,310,1
304,308,301,310,1
305,309,301,311,1
306,310,302,311,1
305,310,302,311,1
304,310,303,310,1
305,310,304,309,1
305,308,309,309,1
307,306,316,310,1
308,304,320,310,1
307,303,320,309,1
304,303,315,308,1
300,306,308,306,1
298,313,302,304,1
298,323,299,303,1
299,332,298,303,1
299,335,296,303,1
299,333,294,304,1
299,325,293,305,1
299,313,292,307,1
301,302,292,309,1
305,295,293,313,1
309,290,294,316,1
313,285,295,317,1
316,280,296,316,1
316,277,297,314,1
316,279,301,313,1
315,282,306,311,1
313,284,309,311,1
309,285,310,311,1
304,287,310,310,1
301,290,309,311,1
300,294,308,312,1
301,299,306,312,1
304,302,304,312,1
307,303,303,311,1
310,302,301,310,1
311,302,301,309,1
310,303,302,309,1
308,303,302,308,1
302,304,301,305,1
292,305,301,304,1
283,306,302,303,1
275,308,305,302,1
272,308,306,302,1
271,307,306,302,1
274,302,303,302,1
280,293,301,302,1
287,283,297,302,1
294,273,294,303,1
301,268,293,304,1
308,271,295,306,1
314,279,297,308,1
317,291,299,309,1
318,305,300,309,1
319,318,300,309,1
321,327,300,309,1
324,334,302,310,1
329,338,303,312,1
331,341,305,314,1
331,344,307,315,1
327,347,309,316,1
318,348,310,315,1
310,348,311,314,1
303,345,311,313,1
299,339,311,312,1
297,333,311,311,1
297,328,312,311,1
298,323,312,310,1
299,318,312,309,1
301,312,312,308,1
303,308,312,307,1
304,305,311,306,1
304,303,310,305,1
305,305,311,305,1
304,308,313,305,1
304,311,315,304,1
302,313,317,303,1
302,318,317,302,1
304,323,317,301,1
308,326,315,301,1
314,327,311,303,1
319,325,305,306,1
319,319,301,306,1
317,309,298,307,1
311,299,296,308,1
304,292,295,307,1
300,287,294,306,1
298,288,294,306,1
298,296,296,306,1
301,309,298,307,1
305,319,301,309,1
310,319,302,311,1
313,312,301,311,1
315,304,300,312,1
315,297,299,310,1
313,294,299,309,1
309,293,299,309,1
306,296,299,309,1
304,302,300,309,1
303,308,301,309,1
302,311,303,310,1
302,311,304,310,1
303,309,305,310,1
303,307,306,310,1
303,305,305,309,1
302,304,304,308,1
303,304,303,307,1
304,304,303,305,1
303,302,303,303,1
303,300,303,300,1
303,296,303,299,1
306,292,302,299,1
310,291,301,301,1
314,294,301,301,1
316,300,299,301,1
315,304,294,299,1
310,303,289,297,1
304,300,288,298,1
300,299,292,301,1
298,301,299,305,1
297,308,307,308,1
298,313,314,310,1
300,317,319,311,1
302,319,321,311,1
304,320,322,311,1
304,319,323,310,1
303,318,322,309,1
302,316,322,309,1
301,315,321,309,1
301,315,322,308,1
302,315,323,307,1
302,315,323,306,1
301,316,324,304,1
299,316,328,303,1
297,315,333,303,1
296,311,337,304,1
297,305,335,305,1
298,298,327,306,1
301,293,320,308,1
305,290,313,309,1
309,293,308,309,1
313,303,304,310,1
316,321,301,310,1
318,340,298,309,1
320,353,296,308,1
322,358,296,307,1
323,354,297,306,1
323,343,298,306,1
319,329,298,305,1
314,319,299,304,1
310,312,300,304,1
305,307,302,304,1
302,303,302,303,1
300,298,302,303,1
298,295,301,303,1
297,292,301,303,1
297,290,300,303,1
296,289,299,303,1
294,288,298,303,1
290,286,298,302,1
285,284,298,301,1
281,281,299,301,1
281,281,299,303,1
286,286,299,306,1
296,293,302,310,1
311,299,305,312,1
325,299,307,313,1
339,295,308,313,1
349,289,308,312,1
355,284,310,311,1
354,284,311,310,1
346,288,312,309,1
333,293,310,306,1
319,298,306,303,1
308,306,303,300,1
300,314,300,298,1
295,320,298,298,1
294,323,296,298,1
296,325,294,299,1
299,325,293,300,1
303,323,293,303,1
305,320,293,304,1
305,314,293,304,1
304,309,293,304,1
301,306,294,304,1
297,303,297,303,1
294,301,300,302,1
293,301,304,301,1
292,301,307,301,1
292,301,308,300,1
294,302,308,300,1
296,301,306,301,1
297,299,303,301,1
298,296,300,302,1
299,296,297,301,1
301,296,295,301,1
303,296,294,303,1
305,298,296,305,1
307,301,302,307,1
308,303,308,309,1
307,306,313,311,1
306,310,317,312,1
308,314,320,313,1
312,317,321,314,1
316,318,322,314,1
318,317,322,314,1
319,316,322,314,1
318,314,320,313,1
315,311,318,312,1
311,308,316,311,1
309,306,314,310,1
307,304,312,309,1
306,304,312,309,1
306,306,311,308,1
306,307,312,308,1
307,309,312,308,1
308,310,310,308,1
309,311,309,307,1
310,313,308,307,1
310,315,308,306,1
305,315,308,304,1
298,315,310,303,1
290,313,310,301,1
283,304,305,298,1
279,294,299,295,1
280,287,296,294,1
287,286,297,297,1
298,287,303,301,1
310,285,308,304,1
319,282,312,307,1
324,279,315,308,1
326,278,317,309,1
324,280,318,309,1
320,284,317,309,1
315,286,315,309,1
312,286,313,309,1
309,287,312,309,1
310,289,312,309,1
311,296,310,308,1
312,305,308,308,1
314,315,305,307,1
316,324,300,307,1
316,329,297,306,1
314,331,294,307,1
309,330,294,306,1
304,329,296,306,1
299,329,300,305,1
295,327,305,304,1
294,323,309,304,1
295,318,310,304,1
296,315,310,303,1
299,311,309,303,1
302,308,308,301,1
304,304,307,300,1
304,300,307,300,1
304,296,308,300,1
304,295,310,300,1
306,296,309,299,1
309,299,306,298,1
313,304,301,298,1
317,308,296,300,1
320,312,293,302,1
323,314,293,304,1
323,317,294,306,1
320,320,296,307,1
315,322,299,307,1
309,324,302,308,1
303,326,306,308,1
300,327,311,308,1
297,326,314,307,1
295,322,314,305,1
292,317,311,304,1
290,313,309,303,1
290,309,307,304,1
291,307,307,306,1
295,307,308,309,1
298,307,309,310,1
302,307,309,311,1
304,307,308,312,1
305,307,307,312,1
306,306,306,311,1
306,304,306,310,1
306,302,306,309,1
307,302,306,308,1
308,304,306,308,1
310,306,306,307,1
311,309,305,305,1
310,309,305,305,1
309,309,304,306,1
307,308,303,306,1
305,308,302,305,1
303,308,300,304,1
300,308,298,303,1
297,307,297,301,1
294,304,296,301,1
291,299,295,301,1
290,295,295,303,1
294,293,296,306,1
302,291,296,309,1
310,289,297,312,1
315,288,297,314,1
316,288,297,315,1
313,289,298,314,1
307,292,301,314,1
303,298,306,315,1
301,305,312,315,1
301,310,317,314,1
301,311,319,313,1
302,310,320,311,1
304,306,320,310,1
306,304,319,309,1
307,307,318,309,1
307,312,316,309,1
305,320,315,309,1
304,325,314,308,1
302,326,314,307,1
299,324,313,307,1
297,323,312,306,1
296,319,310,305,1
297,315,307,305,1
298,312,305,304,1
299,310,304,304,1
300,309,304,304,1
301,308,304,304,1
302,306,304,304,1
304,304,307,305,1
306,303,310,306,1
309,301,313,306,1
312,299,313,305,1
312,297,312,305,1
311,295,309,306,1
308,292,305,306,1
304,291,301,306,1
301,291,301,307,1
299,295,303,308,1
298,301,304,308,1
298,308,305,307,1
300,313,305,307,1
301,317,307,307,1
302,319,308,308,1
302,320,308,309,1
302,320,306,309,1
304,320,302,309,1
306,319,300,309,1
306,315,299,308,1
304,312,299,307,1
302,308,300,306,1
302,303,301,305,1
304,300,304,305,1
308,301,306,307,1
310,306,309,308,1
311,310,312,310,1
311,313,314,311,1
310,316,316,312,1
310,318,316,311,1
310,316,313,308,1
309,310,307,305,1
305,304,301,304,1
300,302,298,304,1
294,304,300,305,1
292,312,303,306,1
289,320,305,306,1
289,326,304,306,1
290,328,302,305,1
296,324,300,304,1
304,318,299,304,1
311,314,300,305,1
316,312,302,307,1
319,313,305,309,1
320,318,307,309,1
321,323,309,308,1
322,327,312,307,1
324,331,313,306,1
325,335,315,306,1
324,336,315,306,1
319,333,313,305,1
313,329,311,305,1
308,328,310,307,1
306,325,311,309,1
305,320,312,310,1
303,314,314,311,1
302,308,316,310,1
300,303,317,310,1
299,300,317,310,1
299,299,315,310,1
298,298,312,310,1
300,298,309,309,1
301,298,306,307,1
303,298,304,306,1
305,300,303,304,1
307,302,302,303,1
311,304,300,303,1
313,305,300,304,1
315,306,301,305,1
316,306,302,307,1
316,305,304,309,1
314,304,307,310,1
311,302,309,311,1
309,301,312,313,1
307,303,314,313,1
307,307,316,314,1
307,311,316,315,1
306,313,315,314,1
304,313,313,312,1
303,311,311,311,1
304,311,310,309,1
307,311,309,307,1
310,309,309,306,1
312,305,307,304,1
313,299,305,303,1
313,292,303,303,1
311,287,301,303,1
307,285,299,303,1
304,285,297,303,1
301,286,295,303,1
301,287,294,303,1
302,289,294,304,1
301,290,296,305,1
301,289,296,305,1
299,288,297,304,1
296,287,297,304,1
294,288,296,305,1
294,290,295,306,1
294,294,296,306,1
296,302,299,306,1
301,311,305,307,1
309,320,311,309,1
319,326,316,311,1
327,326,318,313,1
332,323,316,314,1
332,320,313,315,1
327,319,309,314,1
320,322,305,313,1
313,323,301,311,1
307,322,297,309,1
302,321,292,307,1
298,319,288,306,1
297,316,288,306,1
297,316,290,306,1
299,321,295,307,1
302,329,301,309,1
305,332,305,311,1
306,328,309,312,1
304,322,311,311,1
302,316,313,311,1
302,312,313,311,1
304,311,311,311,1
307,309,309,310,1
311,305,307,309,1
316,300,305,308,1
322,296,305,308,1
328,295,306,309,1
329,294,308,309,1
324,293,309,308,1
318,292,308,307,1
311,294,307,307,1
307,300,306,308,1
303,306,305,309,1
300,311,307,309,1
297,314,309,308,1
296,317,313,308,1
297,319,315,307,1
298,319,315,307,1
301,316,311,306,1
303,310,306,305,1
305,300,303,305,1
306,291,301,304,1
307,285,299,304,1
309,282,298,305,1
311,283,297,306,1
313,287,297,308,1
314,292,298,309,1
315,297,301,310,1
314,302,304,310,1
312,305,307,309,1
308,307,307,309,1
303,307,305,307,1
298,306,304,306,1
295,307,304,305,1
295,309,307,305,1
299,312,310,307,1
305,314,314,308,1
314,312,316,310,1
321,309,318,311,1
329,305,316,311,1
334,304,312,312,1
335,305,309,312,1
334,309,309,312,1
331,314,310,312,1
324,316,311,312,1
315,314,311,312,1
306,308,310,311,1
298,299,307,310,1
293,291,305,308,1
290,286,303,307,1
289,284,302,306,1
290,286,299,304,1
290,291,298,303,1
290,298,298,303,1
289,304,299,303,1
290,309,302,304,1
291,313,304,305,1
293,318,306,306,1
294,322,307,306,1
295,327,307,307,1
294,332,307,307,1
294,334,307,307,1
295,334,308,308,1
298,332,310,309,1
302,330,311,310,1
306,326,312,310,1
309,320,311,309,1
312,316,311,309,1
312,315,313,308,1
312,317,315,308,1
313,324,317,306,1
314,328,314,304,1
313,328,309,303,1
311,323,306,304,1
308,317,304,305,1
305,311,304,307,1
304,305,302,309,1
304,302,299,311,1
306,302,295,312,1
308,301,292,313,1
309,297,291,312,1
308,292,290,312,1
307,289,291,311,1
307,287,293,310,1
307,285,296,310,1
310,286,297,310,1
312,289,299,310,1
313,294,300,310,1
314,299,301,309,1
314,302,302,308,1
314,304,301,308,1
314,305,300,306,1
313,306,299,304,1
312,306,296,302,1
311,304,296,301,1
310,302,296,301,1
307,301,298,301,1
304,304,300,300,1
301,310,303,299,1
300,315,305,299,1
300,317,307,300,1
301,315,308,300,1
302,312,309,302,1
304,310,310,304,1
304,304,310,306,1
303,296,307,308,1
301,288,302,309,1
301,282,298,310,1
304,283,297,312,1
310,291,300,314,1
316,302,304,314,1
318,310,308,313,1
318,314,310,312,1
315,314,311,311,1
311,311,311,310,1
307,307,311,310,1
303,305,313,311,1
302,306,314,312,1
303,311,317,313,1
306,317,317,313,1
310,322,316,312,1
312,326,314,310,1
313,326,312,309,1
313,326,311,308,1
312,325,309,307,1
309,323,308,306,1
307,319,307,306,1
305,315,306,306,1
302,310,305,306,1
298,305,304,307,1
295,303,303,307,1
293,304,302,308,1
293,307,304,310,1
295,312,306,313,1
297,320,308,315,1
298,329,310,316,1
301,336,311,317,1
304,337,312,317,1
306,332,313,316,1
308,324,313,315,1
309,318,313,315,1
311,315,313,314,1
313,314,311,313,1
314,313,309,313,1
316,313,307,314,1
319,312,306,315,1
319,307,308,315,1
316,300,312,315,1
311,295,317,315,1
307,292,319,314,1
304,291,319,311,1
301,291,315,310,1
299,292,312,310,1
298,295,310,310,1
298,299,310,310,1
299,304,310,309,1
300,309,310,309,1
301,312,310,310,1
302,313,311,311,1
303,314,312,312,1
305,314,314,313,1
308,313,316,314,1
310,313,319,315,1
312,313,321,316,1
310,313,320,315,1
307,313,316,313,1
303,312,310,312,1
300,311,305,311,1
298,306,301,310,1
299,300,299,308,1
299,295,299,307,1
300,293,299,305,1
302,295,299,305,1
303,299,299,306,1
303,304,299,305,1
303,310,300,306,1
305,313,302,307,1
308,311,304,307,1
312,304,304,307,1
315,294,302,306,1
318,283,297,306,1
319,273,294,307,1
316,267,295,309,1
311,267,298,310,1
305,275,301,310,1
301,289,304,311,1
298,304,308,311,1
299,318,310,312,1
301,327,311,311,1
304,333,310,310,1
306,336,310,310,1
306,335,310,309,1
305,334,310,308,1
303,331,309,306,1
300,328,308,304,1
298,325,306,302,1
296,319,305,302,1
297,311,304,302,1
300,303,304,303,1
304,297,304,303,1
309,293,304,303,1
314,295,304,303,1
316,300,304,304,1
315,306,305,304,1
312,309,306,304,1
310,309,306,305,1
310,305,306,306,1
312,300,304,308,1
314,295,303,308,1
314,290,302,308,1
312,289,302,308,1
306,294,305,306,1
302,302,309,306,1
299,311,312,306,1
299,316,315,308,1
301,317,317,310,1
304,315,317,311,1
306,312,316,310,1
307,310,313,308,1
307,308,310,307,1
309,307,307,307,1
310,307,305,307,1
310,307,303,307,1
311,307,302,306,1
310,306,301,305,1
309,303,300,304,1
308,299,298,304,1
306,292,296,303,1
306,285,294,303,1
308,282,292,303,1
309,283,290,303,1
309,287,289,303,1
309,295,289,302,1
307,299,289,301,1
303,295,288,299,1
300,286,287,298,1
299,279,288,299,1
299,277,289,300,1
302,278,291,302,1
305,283,293,304,1
306,289,296,304,1
306,296,299,304,1
306,303,302,303,1
308,312,308,303,1
311,320,314,303,1
313,326,320,304,1
316,329,326,305,1
321,331,332,306,1
326,335,336,308,1
333,338,335,310,1
338,338,330,312,1
337,336,321,310,1
331,331,313,308,1
323,326,306,306,1
313,319,301,304,1
305,314,297,302,1
300,311,295,301,1
297,309,295,301,1
294,306,295,302,1
292,304,298,304,1
292,303,301,305,1
292,302,304,306,1
293,302,308,307,1
295,302,313,307,1
296,301,317,307,1
297,297,318,308,1
298,294,316,308,1
298,291,310,308,1
299,289,305,308,1
299,291,303,307,1
300,295,303,307,1
302,302,306,306,1
303,308,310,305,1
304,312,313,304,1
304,314,314,304,1
305,315,314,305,1
305,317,314,307,1
304,322,315,309,1
303,325,315,310,1
299,322,315,311,1
296,313,314,310,1
294,302,312,310,1
295,293,310,310,1
300,287,309,310,1
307,285,309,310,1
315,291,310,312,1
322,301,311,314,1
328,310,312,315,1
331,312,311,316,1
330,304,310,315,1
327,296,308,314,1
324,291,308,313,1
322,291,308,312,1
320,296,306,311,1
316,303,304,310,1
311,306,301,309,1
305,304,299,308,1
299,300,298,308,1
295,297,299,308,1
293,297,302,308,1
292,298,304,308,1
294,301,307,308,1
297,303,309,308,1
301,305,310,309,1
304,306,310,309,1
306,308,310,309,1
309,311,311,310,1
311,313,313,311,1
313,313,314,310,1
313,313,316,308,1
312,312,317,306,1
309,313,318,303,1
304,315,318,301,1
303,318,317,300,1
305,320,317,301,1
310,320,316,304,1
313,318,314,307,1
311,314,311,309,1
304,310,308,309,1
296,306,308,310,1
289,302,309,310,1
287,298,310,311,1
290,297,310,312,1
294,296,308,312,1
299,297,305,312,1
304,297,304,311,1
307,298,303,309,1
308,300,304,307,1
307,303,306,305,1
305,304,308,304,1
301,304,311,304,1
298,302,311,305,1
294,296,312,306,1
292,292,311,306,1
292,290,310,306,1
294,293,308,307,1
297,297,305,307,1
300,300,302,305,1
302,300,301,304,1
303,298,303,304,1
304,296,307,306,1
307,294,310,308,1
312,292,310,309,1
317,291,308,310,1
320,291,305,311,1
321,294,300,311,1
321,300,296,312,1
319,310,293,313,1
316,319,292,312,1
311,324,293,311,1
305,325,296,310,1
301,325,301,311,1
300,326,307,313,1
300,325,311,314,1
299,321,314,313,1
298,319,316,313,1
297,317,315,312,1
298,317,315,311,1
301,316,315,311,1
303,316,315,310,1
304,317,315,310,1
305,318,314,309,1
306,316,314,309,1
305,308,313,307,1
303,298,312,305,1
302,288,310,304,1
301,282,309,305,1
302,282,310,307,1
303,288,313,308,1
303,296,313,308,1
302,304,313,308,1
302,312,313,308,1
302,322,314,307,1
302,331,315,306,1
302,337,316,306,1
302,339,315,305,1
303,335,314,305,1
304,328,312,306,1
305,321,310,307,1
307,317,309,308,1
310,317,309,309,1
312,319,310,309,1
313,321,310,308,1
313,321,310,306,1
311,316,309,305,1
308,311,306,303,1
303,305,301,301,1
298,299,295,298,1
294,294,291,297,1
292,289,290,297,1
292,287,293,299,1
295,287,299,301,1
298,290,307,304,1
299,295,313,307,1
299,301,316,308,1
299,306,317,308,1
298,309,316,306,1
297,308,312,304,1
298,304,308,304,1
300,297,305,304,1
303,291,303,305,1
305,286,303,305,1
308,285,303,305,1
310,286,304,306,1
311,290,306,308,1
311,294,308,310,1
309,298,310,311,1
307,302,312,313,1
305,303,312,314,1
303,302,312,314,1
304,299,311,316,1
307,298,310,316,1
311,297,309,316,1
316,299,308,315,1
319,301,307,314,1
320,307,307,313,1
320,314,306,312,1
318,324,306,312,1
315,333,307,312,1
312,338,308,312,1
311,339,310,312,1
309,331,312,311,1
308,317,313,310,1
306,305,313,306,1
306,297,311,303,1
306,294,310,302,1
307,297,312,304,1
307,301,315,306,1
307,305,319,309,1
307,307,322,311,1
309,308,326,313,1
310,306,328,314,1
311,303,327,314,1
308,299,324,314,1
304,296,320,313,1
300,294,314,312,1
297,296,309,312,1
297,299,307,312,1
300,301,306,313,1
306,301,308,315,1
313,300,310,317,1
320,299,313,318,1
325,298,315,318,1
325,298,314,317,1
320,299,312,313,1
312,301,308,310,1
304,304,305,307,1
298,303,302,306,1
292,300,299,305,1
288,295,297,304,1
288,288,295,306,1
288,282,293,307,1
288,278,292,308,1
289,277,291,310,1
291,280,290,312,1
294,288,291,313,1
297,300,293,315,1
302,314,295,315,1
307,326,298,315,1
310,332,300,314,1
312,333,302,312,1
312,329,302,310,1
311,325,301,308,1
309,321,299,306,1
306,318,297,304,1
304,314,298,304,1
304,312,301,304,1
304,313,306,306,1
305,314,312,309,1
305,317,316,310,1
304,318,318,310,1
302,319,317,310,1
300,319,313,310,1
298,318,309,310,1
297,318,306,310,1
298,316,303,311,1
299,315,301,311,1
302,315,300,312,1
306,315,301,313,1
311,315,301,314,1
317,312,302,315,1
322,309,303,315,1
326,307,305,315,1
329,305,309,315,1
329,305,313,315,1
325,304,315,314,1
316,303,316,313,1
305,303,315,311,1
298,303,314,309,1
293,303,312,308,1
291,302,310,307,1
291,301,307,306,1
291,302,305,305,1
291,303,304,304,1
291,304,304,305,1
290,303,303,305,1
290,300,302,305,1
291,298,302,306,1
293,298,303,306,1
299,299,304,308,1
306,301,306,309,1
311,302,308,309,1
314,301,310,310,1
314,301,313,310,1
312,303,315,309,1
310,307,315,308,1
307,310,314,308,1
306,312,312,307,1
306,312,310,306,1
310,313,307,306,1
314,313,304,305,1
319,314,301,305,1
323,315,299,306,1
325,314,296,306,1
324,312,294,307,1
322,309,293,308,1
318,307,293,309,1
313,305,297,309,1
309,304,302,308,1
307,304,309,308,1
307,306,314,307,1
307,308,316,307,1
305,310,315,306,1
303,310,313,305,1
302,309,310,305,1
302,308,308,305,1
303,307,306,304,1
304,304,303,303,1
306,302,300,303,1
306,299,299,302,1
305,297,298,302,1
300,297,299,302,1
295,297,300,302,1
292,299,302,302,1
293,303,304,302,1
295,307,306,302,1
296,310,307,303,1
298,312,307,304,1
300,313,308,306,1
302,313,308,308,1
304,313,307,308,1
304,313,306,308,1
304,314,306,308,1
304,314,308,309,1
304,313,308,310,1
306,311,309,311,1
307,310,308,311,1
308,309,306,310,1
309,307,304,308,1
311,304,301,307,1
313,298,299,306,1
315,293,297,307,1
316,288,296,307,1
316,285,297,309,1
314,284,297,309,1
311,287,297,310,1
307,292,297,311,1
303,299,297,311,1
302,302,299,310,1
303,305,301,309,1
307,310,303,309,1
312,315,306,309,1
317,320,309,309,1
321,321,310,308,1
324,321,309,306,1
325,319,306,303,1
325,317,303,301,1
322,316,303,299,1
317,315,302,297,1
310,315,302,295,1
304,314,301,295,1
302,314,302,296,1
302,316,302,299,1
304,318,302,302,1
305,321,302,304,1
306,323,302,305,1
306,325,303,306,1
307,327,305,307,1
310,328,308,308,1
314,330,311,309,1
318,329,313,311,1
321,327,315,312,1
321,324,315,312,1
317,320,315,312,1
311,315,313,311,1
304,310,312,309,1
298,307,310,308,1
294,308,309,306,1
292,310,311,305,1
292,311,312,303,1
292,310,311,302,1
292,307,307,301,1
293,305,303,301,1
294,303,299,301,1
295,300,298,301,1
296,299,297,301,1
295,297,297,301,1
294,294,297,302,1
295,293,296,302,1
296,295,296,303,1
298,293,297,305,1
300,291,301,307,1
300,288,306,309,1
300,286,312,309,1
300,283,317,308,1
301,282,320,307,1
303,281,321,306,1
307,285,319,305,1
312,294,315,306,1
316,303,308,307,1
316,310,300,306,1
310,314,293,304,1
300,313,289,303,1
292,313,290,303,1
288,314,296,303,1
289,317,302,304,1
292,320,309,306,1
296,325,316,309,1
299,329,322,312,1
300,330,329,314,1
303,328,334,316,1
305,324,335,316,1
308,320,332,315,1
309,316,326,313,1
311,313,321,313,1
314,314,317,312,1
315,316,316,312,1
315,320,316,311,1
314,325,317,311,1
313,329,318,311,1
311,329,317,311,1
309,325,315,311,1
308,319,311,311,1
309,312,307,311,1
313,306,303,311,1
316,301,301,310,1
319,299,301,310,1
321,301,302,312,1
321,307,305,313,1
320,312,306,313,1
315,315,307,313,1
310,315,308,313,1
307,314,309,313,1
306,311,311,314,1
309,309,312,314,1
314,308,312,314,1
320,310,311,314,1
325,313,311,313,1
325,315,309,312,1
318,318,306,309,1
309,320,304,307,1
300,323,303,307,1
295,325,303,307,1
293,327,304,307,1
295,327,306,308,1
298,325,307,309,1
298,323,308,309,1
297,321,309,309,1
295,315,308,309,1
294,305,306,309,1
294,296,305,310,1
295,290,306,310,1
296,286,310,311,1
298,284,315,313,1
301,284,317,314,1
303,286,316,313,1
305,290,314,311,1
305,296,312,308,1
305,302,309,305,1
305,305,305,302,1
304,304,302,299,1
302,300,298,299,1
301,298,296,299,1
299,298,295,300,1
300,300,295,301,1
302,304,298,304,1
306,307,301,307,1
308,310,303,310,1
309,310,305,311,1
308,309,305,312,1
305,308,305,311,1
302,307,305,310,1
300,306,307,310,1
300,305,308,310,1
299,303,308,308,1
298,300,306,306,1
300,298,304,304,1
301,297,301,302,1
303,294,299,302,1
305,292,299,302,1
306,292,301,303,1
307,296,305,304,1
309,304,311,306,1
310,314,315,308,1
311,322,318,310,1
311,327,318,311,1
311,330,316,312,1
313,330,314,313,1
315,328,311,313,1
317,323,309,313,1
319,318,306,313,1
319,312,303,311,1
317,306,301,309,1
313,303,300,306,1
309,302,299,306,1
308,301,300,307,1
309,301,302,308,1
313,302,303,310,1
320,303,304,311,1
328,306,306,313,1
337,310,308,316,1
342,314,311,318,1
339,318,312,320,1
331,320,312,320,1
320,322,312,319,1
311,323,312,316,1
304,323,310,314,1
298,321,309,312,1
295,317,308,310,1
292,312,307,310,1
292,307,307,311,1
293,303,307,312,1
296,302,307,313,1
301,302,308,313,1
305,303,308,313,1
308,304,308,312,1
310,305,305,310,1
311,304,303,309,1
311,303,300,307,1
311,303,300,307,1
312,305,301,307,1
310,307,302,305,1
305,307,304,304,1
299,307,305,302,1
294,305,304,301,1
292,302,300,300,1
292,300,295,300,1
295,300,293,302,1
300,302,292,303,1
307,309,295,304,1
312,322,300,304,1
315,333,306,304,1
314,338,310,304,1
312,337,313,305,1
310,329,314,306,1
309,318,313,307,1
309,308,312,308,1
309,302,311,308,1
307,298,311,308,1
306,297,310,308,1
304,298,308,307,1
301,299,305,304,1
298,301,301,303,1
295,303,297,301,1
295,304,296,301,1
297,305,297,301,1
300,305,300,303,1
303,304,304,304,1
305,303,306,306,1
308,300,307,309,1
312,297,307,310,1
314,294,307,310,1
316,292,307,310,1
317,291,308,309,1
315,290,309,309,1
311,291,310,308,1
308,295,312,307,1
305,300,312,306,1
303,307,310,304,1
302,315,308,302,1
302,321,306,301,1
301,323,305,300,1
298,320,305,300,1
293,314,306,300,1
290,306,309,302,1
289,300,313,304,1
291,294,319,306,1
293,289,323,308,1
294,286,324,310,1
294,285,323,311,1
295,290,322,312,1
299,298,322,312,1
303,307,320,312,1
306,313,318,311,1
308,317,315,309,1
311,319,312,307,1
312,320,308,305,1
311,321,305,303,1
309,319,302,302,1
307,318,299,301,1
304,316,299,301,1
302,315,299,302,1
301,318,300,302,1
301,322,302,303,1
305,325,303,304,1
310,327,305,305,1
317,326,307,307,1
323,324,309,309,1
325,322,310,309,1
323,322,311,309,1
319,320,313,308,1
313,316,312,306,1
306,313,312,304,1
301,310,310,303,1
296,307,307,302,1
291,303,303,301,1
286,298,299,298,1
281,295,297,296,1
278,294,298,294,1
278,294,300,295,1
282,297,304,298,1
287,299,306,300,1
292,300,305,302,1
295,300,301,303,1
298,299,297,303,1
303,298,294,304,1
308,297,292,306,1
313,298,292,308,1
319,298,293,310,1
326,299,297,312,1
334,302,303,315,1
342,304,309,318,1
346,306,314,319,1
343,308,317,319,1
333,311,318,317,1
321,313,317,314,1
313,314,316,312,1
308,313,315,310,1
306,312,315,309,1
305,311,312,307,1
304,312,309,304,1
301,313,305,301,1
299,313,302,299,1
296,310,299,298,1
295,306,297,298,1
294,304,296,300,1
296,303,298,302,1
298,304,299,304,1
301,304,301,306,1
304,304,302,307,1
306,304,302,308,1
306,304,302,308,1
307,306,301,308,1
307,308,300,308,1
305,309,300,306,1
304,308,302,305,1
304,306,304,304,1
303,304,306,303,1
302,301,307,302,1
302,297,306,303,1
303,295,304,304,1
304,293,301,305,1
303,291,299,306,1
302,291,296,307,1
301,292,295,308,1
301,292,294,309,1
302,292,296,309,1
304,292,299,310,1
307,293,303,311,1
308,294,307,310,1
306,292,310,309,1
303,289,312,307,1
300,287,314,304,1
299,287,315,303,1
299,290,315,302,1
302,296,317,303,1
305,303,317,304,1
306,309,318,306,1
305,314,317,306,1
303,317,317,306,1
301,317,316,307,1
301,318,315,308,1
303,317,313,308,1
308,316,310,308,1
315,313,307,309,1
321,311,305,310,1
326,310,304,310,1
327,312,305,311,1
327,315,307,312,1
326,320,310,313,1
323,322,313,312,1
319,320,312,309,1
313,316,309,306,1
308,311,307,303,1
304,305,305,300,1
301,300,302,298,1
299,298,301,296,1
299,298,300,297,1
301,299,300,298,1
302,301,301,300,1
300,302,302,300,1
297,304,305,302,1
293,307,308,303,1
290,312,311,303,1
290,315,313,304,1
291,316,313,304,1
292,317,312,305,1
294,317,312,305,1
296,315,312,306,1
298,313,313,307,1
299,310,310,308,1
299,306,307,309,1
300,302,303,309,1
300,298,300,307,1
300,296,298,304,1
301,295,297,303,1
302,295,298,300,1
303,296,302,298,1
305,297,306,297,1
306,300,310,297,1
308,303,315,300,1
308,308,317,303,1
307,314,317,306,1
305,323,315,309,1
305,331,313,312,1
305,334,311,315,1
305,331,309,316,1
305,324,307,316,1
304,316,304,314,1
302,308,301,312,1
300,300,299,311,1
299,294,297,310,1
298,289,298,311,1
300,287,301,312,1
303,287,304,313,1
307,287,306,314,1
310,286,306,314,1
312,286,305,312,1
313,289,302,310,1
314,293,300,309,1
317,298,301,308,1
319,302,304,309,1
320,305,308,310,1
319,307,312,312,1
316,309,313,312,1
311,310,311,312,1
306,310,310,312,1
303,309,310,312,1
301,307,310,314,1
302,306,311,315,1
303,305,312,316,1
305,305,313,316,1
306,308,315,317,1
306,312,316,315,1
306,315,314,312,1
305,316,312,309,1
304,317,312,308,1
304,316,313,307,1
304,314,314,306,1
307,311,314,304,1
313,309,312,303,1
320,310,310,302,1
323,312,309,301,1
322,314,310,302,1
319,314,309,303,1
316,312,306,305,1
313,309,302,306,1
310,304,298,307,1
306,301,295,308,1
302,300,294,308,1
298,302,294,309,1
293,305,294,309,1
289,308,294,308,1
288,308,294,306,1
289,308,294,304,1
293,310,295,303,1
299,311,296,304,1
307,312,298,305,1
314,311,300,307,1
319,308,301,308,1
321,305,303,309,1
321,302,304,309,1
319,302,304,310,1
315,306,305,310,1
309,313,307,310,1
302,319,310,309,1
294,319,312,308,1
289,311,312,306,1
287,301,310,306,1
286,292,307,305,1
286,287,306,306,1
285,288,306,307,1
285,293,307,308,1
286,301,310,308,1
290,304,312,307,1
295,302,312,305,1
302,296,310,304,1
309,292,309,307,1
317,290,310,311,1
321,292,309,314,1
320,294,308,314,1
314,295,305,314,1
308,297,302,313,1
304,301,301,312,1
302,307,302,312,1
302,312,303,313,1
300,313,304,312,1
298,311,305,312,1
296,305,305,311,1
294,300,307,311,1
294,300,307,310,1
295,301,308,309,1
299,303,307,309,1
302,306,305,308,1
305,308,304,307,1
307,309,304,306,1
308,309,305,305,1
308,307,306,305,1
308,304,307,305,1
309,303,309,305,1
310,304,311,307,1
311,307,312,307,1
313,309,311,307,1
315,311,310,306,1
315,313,307,306,1
314,314,305,305,1
313,316,305,304,1
313,317,307,304,1
310,320,308,304,1
306,320,309,303,1
302,320,308,303,1
300,319,308,304,1
300,316,308,306,1
300,312,309,308,1
300,309,310,310,1
299,309,313,312,1
297,312,315,314,1
294,315,315,313,1
292,318,311,312,1
293,322,306,311,1
295,326,302,310,1
297,326,299,310,1
299,321,297,309,1
301,315,298,309,1
304,310,299,310,1
307,306,300,310,1
309,306,299,311,1
310,309,298,310,1
310,310,299,310,1
308,309,301,308,1
305,306,302,306,1
302,304,302,305,1
300,302,301,304,1
299,299,300,303,1
297,294,298,302,1
296,289,297,302,1
295,286,296,302,1
296,287,297,302,1
299,290,299,303,1
306,295,304,305,1
314,300,309,307,1
321,303,312,309,1
325,305,314,309,1
324,307,313,308,1
320,307,312,308,1
311,307,310,307,1
302,304,309,306,1
296,304,308,306,1
293,304,308,307,1
292,304,308,308,1
292,305,309,309,1
297,307,311,311,1
304,310,312,312,1
311,311,316,313,1
315,312,319,314,1
317,312,322,313,1
315,312,322,312,1
310,313,320,310,1
305,314,316,309,1
301,315,312,308,1
299,314,308,309,1
299,312,305,308,1
299,309,304,308,1
302,306,304,308,1
304,304,305,308,1
306,303,306,309,1
306,304,305,310,1
306,305,305,311,1
304,306,304,311,1
300,304,302,308,1
296,301,301,306,1
296,298,300,304,1
300,296,300,303,1
304,297,302,303,1
308,297,303,304,1
309,298,302,305,1
310,297,299,306,1
311,296,295,306,1
310,295,292,306,1
311,294,291,305,1
312,297,293,305,1
313,303,297,305,1
313,309,303,306,1
310,313,307,306,1
309,314,309,306,1
308,314,306,306,1
308,312,303,306,1
307,309,300,305,1
306,304,299,304,1
304,300,298,304,1
302,296,298,304,1
300,293,298,304,1
298,295,298,304,1
300,302,299,306,1
306,317,302,309,1
313,335,305,311,1
320,349,309,313,1
325,350,311,315,1
326,338,312,315,1
323,321,311,314,1
319,308,313,313,1
317,301,315,314,1
316,299,317,316,1
316,300,317,316,1
314,303,315,315,1
313,306,312,314,1
312,309,310,313,1
310,312,310,313,1
307,314,311,313,1
304,313,312,313,1
301,311,312,312,1
299,307,311,310,1
298,304,310,309,1
298,302,311,308,1
297,300,310,306,1
295,299,308,304,1
291,297,306,302,1
286,295,303,300,1
283,293,302,299,1
283,292,303,300,1
288,293,306,304,1
296,297,310,307,1
305,301,312,308,1
313,305,311,309,1
319,307,308,309,1
321,306,305,308,1
318,302,303,308,1
311,296,303,307,1
304,289,305,307,1
301,282,307,309,1
302,277,309,310,1
304,274,310,313,1
308,274,311,316,1
312,277,312,317,1
314,283,313,318,1
313,290,313,317,1
311,298,313,316,1
308,305,312,315,1
306,310,312,314,1
304,313,311,312,1
303,314,310,311,1
303,313,309,310,1
303,310,307,309,1
303,308,304,308,1
303,306,301,308,1
303,304,297,308,1
300,303,296,309,1
298,304,298,310,1
297,306,303,312,1
295,306,308,313,1
295,306,310,315,1
297,306,310,316,1
301,308,309,315,1
307,312,308,315,1
312,318,306,314,1
315,324,305,312,1
315,327,304,311,1
314,328,302,309,1
311,324,300,308,1
309,319,299,306,1
308,314,300,306,1
309,310,302,306,1
310,308,304,306,1
309,307,305,305,1
308,308,305,305,1
305,309,305,306,1
302,311,305,306,1
301,312,303,305,1
302,310,300,305,1
304,307,297,304,1
305,303,295,303,1
306,301,294,303,1
308,301,297,305,1
309,303,301,307,1
310,307,307,309,1
312,310,313,311,1
313,311,317,313,1
315,311,318,313,1
315,312,318,313,1
315,313,317,311,1
315,316,317,310,1
315,318,317,309,1
314,317,316,308,1
312,313,315,308,1
311,311,315,308,1
311,310,315,309,1
312,312,315,310,1
312,316,314,311,1
311,318,313,313,1
308,313,312,313,1
303,304,310,313,1
296,295,309,311,1
291,290,310,309,1
289,287,313,306,1
292,288,315,305,1
298,291,315,304,1
305,299,314,303,1
309,305,313,304,1
309,309,312,304,1
305,311,311,305,1
300,311,310,306,1
297,311,309,308,1
296,312,308,310,1
298,314,307,312,1
301,317,306,313,1
304,319,306,314,1
305,320,306,315,1
304,320,306,315,1
302,317,305,315,1
299,311,303,314,1
297,305,301,313,1
293,297,299,312,1
292,292,299,312,1
294,290,300,313,1
296,290,302,313,1
298,290,304,314,1
300,291,305,314,1
301,293,304,313,1
302,295,304,313,1
304,298,305,313,1
308,302,306,314,1
311,305,308,315,1
314,308,309,315,1
315,309,310,316,1
315,309,311,316,1
313,307,311,315,1
310,306,311,314,1
308,307,310,313,1
306,309,309,312,1
304,310,308,310,1
303,312,308,309,1
303,314,307,309,1
305,316,307,309,1
307,317,306,309,1
308,315,304,309,1
310,312,302,309,1
310,308,300,309,1
309,304,296,307,1
306,299,291,305,1
303,295,288,305,1
302,292,288,305,1
302,292,291,306,1
303,296,297,308,1
305,302,303,310,1
307,309,309,312,1
308,314,315,314,1
306,315,318,314,1
302,314,319,313,1
298,313,318,310,1
296,312,316,309,1
295,312,313,308,1
297,312,312,307,1
300,312,310,306,1
305,312,308,305,1
309,312,307,304,1
310,311,304,303,1
310,307,300,302,1
309,303,295,303,1
310,299,293,303,1
310,298,293,304,1
310,298,292,304,1
309,299,292,305,1
310,304,295,307,1
313,309,299,309,1
316,311,304,310,1
320,309,308,310,1
323,305,311,310,1
324,303,312,312,1
322,305,311,312,1
316,311,309,311,1
310,320,309,311,1
306,329,310,311,1
305,330,312,311,1
305,324,315,311,1
304,318,317,310,1
302,314,318,309,1
298,314,315,306,1
295,317,311,304,1
293,319,307,303,1
288,316,304,302,1
282,312,302,301,1
275,308,300,301,1
274,307,300,300,1
276,306,301,301,1
281,307,301,302,1
288,308,302,304,1
294,307,302,305,1
300,308,302,306,1
306,308,301,306,1
310,306,300,306,1
313,304,301,307,1
314,305,305,308,1
314,307,311,309,1
315,308,317,310,1
317,308,323,310,1
321,309,328,311,1
326,312,332,311,1
330,316,334,311,1
333,319,334,312,1
333,321,332,313,1
332,322,327,313,1
328,321,321,312,1
322,320,314,311,1
317,318,308,311,1
310,317,305,310,1
304,316,304,310,1
297,315,304,310,1
292,312,304,309,1
287,308,302,308,1
285,304,301,308,1
285,300,300,307,1
287,297,298,307,1
290,295,296,308,1
294,293,295,308,1
297,293,295,307,1
300,294,298,307,1
304,298,300,307,1
307,303,303,307,1
310,307,305,307,1
314,311,306,307,1
318,315,308,308,1
323,317,308,310,1
329,319,308,311,1
336,320,308,313,1
341,320,306,314,1
340,320,305,313,1
333,320,303,312,1
320,319,303,311,1
310,318,306,311,1
302,317,310,311,1
299,316,314,312,1
297,314,318,313,1
295,312,320,314,1
295,308,322,314,1
296,306,322,314,1
299,308,320,313,1
302,312,317,312,1
303,318,314,309,1
303,324,311,307,1
299,329,308,304,1
296,331,306,303,1
292,329,306,302,1
292,324,306,303,1
295,315,307,304,1
298,306,309,307,1
302,302,310,310,1
306,302,310,313,1
309,303,309,314,1
310,304,307,314,1
308,305,305,314,1
304,305,304,311,1
299,304,305,309,1
294,303,306,307,1
291,301,305,305,1
291,299,304,305,1
293,299,302,306,1
296,300,300,307,1
300,301,299,308,1
304,301,296,307,1
308,300,292,305,1
310,300,288,303,1
312,303,286,302,1
313,309,287,302,1
313,318,291,304,1
313,325,296,306,1
311,328,302,308,1
309,327,308,309,1
306,325,311,309,1
303,322,313,308,1
301,318,314,307,1
301,315,317,306,1
303,313,318,305,1
309,312,318,306,1
315,312,317,307,1
318,312,317,308,1
316,311,318,309,1
310,306,318,308,1
303,300,316,307,1
300,295,313,306,1
298,294,310,305,1
300,296,308,305,1
305,302,306,307,1
309,310,305,308,1
313,314,304,309,1
313,315,303,309,1
311,312,301,308,1
306,306,301,307,1
303,301,300,307,1
300,295,299,307,1
299,292,297,308,1
300,293,298,310,1
302,299,300,312,1
304,305,303,314,1
305,309,305,315,1
303,309,304,314,1
301,305,301,313,1
300,300,298,311,1
299,297,295,310,1
299,297,296,308,1
299,299,298,306,1
299,303,301,305,1
299,309,304,305,1
298,313,306,304,1
297,317,308,303,1
296,319,308,302,1
294,320,307,301,1
294,319,305,302,1
297,318,304,303,1
301,316,303,305,1
307,312,303,306,1
313,308,305,307,1
318,304,306,309,1
320,300,307,310,1
319,296,307,310,1
319,293,306,310,1
320,293,305,311,1
322,295,305,312,1
324,297,304,313,1
323,300,305,312,1
321,305,308,311,1
318,310,310,311,1
314,313,310,310,1
311,317,309,310,1
307,321,307,309,1
304,323,307,308,1
301,323,307,306,1
300,320,307,306,1
300,317,306,305,1
301,312,304,305,1
304,310,303,304,1
308,310,305,305,1
310,310,308,305,1
311,310,311,306,1
311,310,313,305,1
312,307,313,305,1
314,303,312,305,1
316,300,312,304,1
317,298,313,305,1
317,298,315,306,1
315,300,315,306,1
312,300,312,305,1
309,302,308,304,1
308,307,305,305,1
309,313,304,306,1
312,320,304,308,1
315,323,304,307,1
316,324,303,306,1
317,325,303,304,1
318,326,303,303,1
319,323,305,303,1
320,316,308,304,1
320,308,310,305,1
320,299,308,306,1
318,292,305,305,1
315,288,303,305,1
313,290,304,305,1
310,294,307,305,1
306,297,310,306,1
300,297,311,305,1
295,295,308,305,1
295,293,304,304,1
295,293,302,304,1
295,293,301,305,1
292,294,302,306,1
289,296,304,307,1
289,301,309,309,1
296,307,314,312,1
306,315,318,314,1
314,324,318,314,1
317,329,315,311,1
316,329,309,307,1
312,325,303,303,1
307,319,299,301,1
303,313,298,301,1
301,306,299,302,1
302,299,300,304,1
303,295,301,304,1
305,293,301,304,1
306,294,300,303,1
306,298,299,303,1
304,301,299,302,1
303,304,301,302,1
302,308,305,304,1
301,313,312,306,1
299,317,318,308,1
296,322,322,310,1
293,326,323,309,1
292,327,321,308,1
294,326,318,307,1
297,322,314,308,1
301,317,310,308,1
304,310,307,307,1
305,304,306,307,1
305,300,308,306,1
305,298,311,305,1
304,298,313,303,1
303,299,312,302,1
303,300,309,302,1
305,303,307,302,1
306,306,307,303,1
307,308,310,303,1
306,308,314,302,1
305,308,316,302,1
305,308,315,303,1
306,311,313,304,1
309,318,311,306,1
313,322,309,308,1
318,323,306,310,1
322,322,304,311,1
325,321,302,313,1
327,320,301,314,1
328,318,299,315,1
327,317,298,315,1
323,314,297,313,1
317,312,295,310,1
311,310,294,307,1
306,307,295,304,1
302,304,295,301,1
299,300,295,298,1
298,294,294,295,1
299,289,291,294,1
300,284,289,294,1
303,283,289,297,1
305,287,293,302,1
306,294,300,307,1
305,299,307,312,1
304,300,312,315,1
306,301,314,318,1
309,301,316,319,1
311,302,317,320,1
311,303,317,320,1
309,305,317,320,1
309,307,316,319,1
310,308,313,317,1
311,309,311,315,1
310,308,309,313,1
307,306,308,311,1
302,302,306,309,1
297,298,304,307,1
293,295,302,305,1
289,292,300,304,1
287,293,298,303,1
285,298,299,302,1
286,303,300,301,1
288,308,303,301,1
291,312,307,301,1
295,313,310,301,1
298,312,311,300,1
298,308,308,298,1
300,303,305,299,1
304,297,303,301,1
309,291,301,303,1
313,284,301,305,1
317,280,302,306,1
321,280,304,308,1
321,284,306,308,1
319,289,306,308,1
313,292,305,307,1
307,293,305,307,1
303,294,306,306,1
302,298,307,306,1
301,304,306,306,1
301,310,304,305,1
301,316,300,304,1
303,321,298,303,1
305,327,297,304,1
309,331,299,305,1
311,330,302,306,1
313,326,306,307,1
315,322,309,307,1
317,321,313,307,1
316,321,317,305,1
313,317,319,302,1
306,309,319,297,1
299,300,317,294,1
294,293,317,293,1
291,287,317,294,1
291,284,316,296,1
291,283,311,299,1
294,286,305,300,1
299,289,300,300,1
306,292,299,301,1
316,296,299,304,1
328,300,300,307,1
339,305,300,310,1
347,309,300,312,1
348,315,300,313,1
342,321,298,312,1
332,325,297,310,1
322,323,296,309,1
312,315,293,306,1
303,304,290,301,1
296,291,284,296,1
289,281,279,293,1
284,278,281,292,1
281,280,287,294,1
281,285,295,295,1
284,291,301,298,1
293,297,306,303,1
303,303,309,308,1
310,309,311,312,1
313,314,312,314,1
311,316,312,314,1
307,317,311,314,1
303,317,309,313,1
301,316,307,312,1
298,315,305,312,1
297,314,305,311,1
299,312,304,311,1
300,309,304,311,1
302,304,304,311,1
304,301,305,311,1
306,300,306,312,1
309,301,309,313,1
312,306,313,313,1
313,310,315,313,1
313,311,315,311,1
311,309,312,309,1
309,305,309,306,1
307,302,304,303,1
304,301,301,301,1
304,305,301,300,1
306,310,301,301,1
311,315,304,303,1
317,318,307,306,1
321,320,311,308,1
321,321,314,309,1
319,318,317,309,1
315,314,320,309,1
313,310,321,309,1
312,308,321,309,1
309,307,320,308,1
307,307,319,307,1
306,307,317,307,1
305,304,316,306,1
304,298,313,305,1
303,291,311,304,1
302,285,308,303,1
300,282,306,302,1
301,282,305,303,1
302,286,302,303,1
302,291,300,302,1
302,297,299,302,1
305,303,298,303,1
309,309,298,305,1
314,314,300,307,1
321,315,302,308,1
329,316,306,310,1
336,316,309,313,1
342,316,313,314,1
343,318,314,314,1
340,320,315,314,1
332,322,314,312,1
318,321,313,309,1
304,318,309,305,1
294,312,306,302,1
290,305,303,300,1
290,300,300,299,1
292,297,299,298,1
294,296,299,299,1
295,297,299,300,1
296,297,301,301,1
298,298,305,303,1
301,300,309,307,1
304,303,311,311,1
307,307,311,314,1
310,311,311,316,1
310,314,310,316,1
306,313,310,315,1
302,309,309,313,1
300,302,309,313,1
298,294,310,312,1
298,286,310,313,1
299,281,311,313,1
301,279,311,314,1
304,282,311,315,1
307,289,312,315,1
311,300,313,315,1
313,312,313,313,1
315,321,312,312,1
316,330,310,310,1
315,338,309,308,1
314,346,309,307,1
313,354,309,306,1
310,360,308,304,1
307,364,307,304,1
305,367,308,305,1
304,366,309,307,1
303,360,310,308,1
303,349,311,309,1
303,336,312,309,1
302,323,313,309,1
300,311,313,308,1
298,303,312,306,1
295,296,312,303,1
293,288,314,300,1
292,279,315,297,1
292,269,315,295,1
293,264,312,294,1
295,265,306,294,1
299,270,300,294,1
302,275,293,295,1
306,281,289,297,1
311,288,290,302,1
316,295,294,308,1
319,301,299,314,1
319,304,303,317,1
315,305,305,319,1
310,304,304,319,1
304,299,300,318,1
299,292,294,315,1
296,284,288,313,1
295,276,285,311,1
298,272,286,311,1
305,275,293,312,1
315,285,306,315,1
326,297,318,318,1
334,305,327,321,1
339,311,332,321,1
339,314,333,320,1
338,314,332,318,1
337,314,329,316,1
334,315,327,313,1
328,318,323,311,1
321,322,320,308,1
314,323,316,306,1
307,325,314,304,1
305,325,314,305,1
306,324,315,307,1
307,321,316,309,1
306,318,316,310,1
302,316,315,309,1
295,317,314,308,1
290,321,313,308,1
289,328,312,307,1
292,333,312,306,1
295,334,311,306,1
297,331,310,305,1
297,324,308,304,1
294,317,306,303,1
291,313,304,303,1
289,311,302,304,1
289,310,300,305,1
292,311,300,306,1
295,316,303,308,1
300,322,307,310,1
302,324,310,310,1
302,318,309,308,1
298,308,306,305,1
294,297,304,304,1
290,287,303,302,1
287,277,301,301,1
285,272,300,301,1
286,273,300,302,1
290,282,302,305,1
298,298,307,307,1
305,317,311,308,1
310,329,314,308,1
312,333,315,308,1
310,329,313,306,1
308,324,311,305,1
305,321,309,304,1
302,320,307,302,1
299,318,304,300,1
297,314,301,298,1
296,309,299,297,1
298,305,298,298,1
306,302,299,303,1
319,300,302,310,1
334,301,305,316,1
346,305,307,320,1
350,309,308,322,1
345,312,308,322,1
333,312,307,319,1
320,309,307,316,1
306,304,306,311,1
295,301,306,307,1
288,298,306,304,1
285,298,304,303,1
286,298,301,304,1
288,296,297,305,1
290,293,292,306,1
293,292,289,307,1
295,297,288,308,1
298,307,290,309,1
300,317,293,310,1
302,323,296,311,1
304,323,296,311,1
303,319,297,312,1
300,314,298,312,1
296,313,301,311,1
294,312,305,311,1
295,313,310,312,1
299,312,315,312,1
305,309,319,314,1
313,305,320,315,1
320,299,320,316,1
323,293,319,317,1
323,290,318,316,1
322,290,318,316,1
321,293,318,315,1
319,299,318,315,1
317,308,318,314,1
315,318,319,314,1
314,327,321,314,1
311,333,324,312,1
306,335,328,310,1
301,335,331,306,1
295,329,331,302,1
291,322,323,299,1
290,314,312,297,1
292,308,304,297,1
297,305,300,299,1
303,304,300,302,1
307,305,302,304,1
308,305,305,305,1
309,305,307,308,1
309,306,309,309,1
310,306,311,311,1
312,306,310,312,1
314,307,310,314,1
317,310,311,315,1
320,312,312,316,1
325,315,312,317,1
330,316,312,317,1
335,310,312,317,1
338,300,312,317,1
339,293,312,317,1
334,289,312,318,1
326,289,311,318,1
315,291,310,315,1
303,293,307,311,1
295,294,305,307,1
291,295,304,304,1
290,296,304,302,1
291,295,306,303,1
292,294,308,303,1
292,292,309,303,1
291,291,311,303,1
292,289,311,304,1
295,290,312,305,1
299,292,312,308,1
306,297,312,311,1
313,303,311,314,1
318,311,310,316,1
321,318,307,315,1
320,324,305,314,1
317,328,303,312,1
310,329,302,309,1
303,327,301,306,1
297,323,300,304,1
293,319,302,302,1
292,317,305,302,1
292,316,311,302,1
294,313,314,303,1
296,310,314,304,1
298,309,311,304,1
300,310,306,303,1
303,311,300,303,1
305,311,296,304,1
307,310,295,304,1
307,309,295,305,1
306,309,296,305,1
304,309,297,305,1
304,310,298,305,1
304,313,301,306,1
307,317,304,307,1
311,321,308,308,1
314,323,311,310,1
317,325,314,311,1
320,327,319,312,1
323,328,322,313,1
323,328,324,311,1
322,326,322,309,1
321,323,320,307,1
320,320,316,306,1
319,317,313,306,1
316,314,310,304,1
311,311,309,303,1
305,307,306,302,1
301,304,304,301,1
299,302,302,301,1
298,302,301,301,1
298,305,298,302,1
298,309,295,302,1
299,313,294,302,1
302,314,293,302,1
306,314,294,302,1
310,312,297,304,1
313,309,300,305,1
313,304,303,306,1
312,299,305,306,1
310,296,307,307,1
309,295,309,307,1
308,296,310,307,1
307,298,310,306,1
305,299,311,304,1
303,298,311,302,1
300,297,311,301,1
298,295,312,300,1
298,293,313,300,1
302,292,313,301,1
305,289,312,303,1
309,285,309,305,1
311,281,307,307,1
311,281,306,307,1
309,285,306,307,1
305,294,307,308,1
300,304,308,310,1
296,314,308,310,1
295,320,308,311,1
297,321,308,312,1
299,320,310,313,1
302,317,311,313,1
303,314,310,313,1
304,312,308,312,1
304,310,306,311,1
304,307,304,309,1
304,304,303,307,1
304,302,302,306,1
305,302,301,305,1
308,301,300,305,1
311,301,300,307,1
315,302,301,309,1
319,303,302,310,1
320,301,301,309,1
316,297,300,309,1
311,293,300,309,1
307,288,301,309,1
305,285,302,309,1
304,287,302,307,1
303,293,304,306,1
302,302,308,305,1
302,309,313,306,1
304,315,316,307,1
304,318,317,307,1
305,319,317,306,1
305,319,318,305,1
305,320,319,304,1
305,320,321,302,1
306,321,320,300,1
308,323,317,301,1
312,326,311,302,1
319,330,307,304,1
326,334,304,305,1
331,334,303,307,1
334,331,302,307,1
333,323,302,308,1
328,313,301,308,1
322,302,300,308,1
317,296,301,309,1
312,293,302,309,1
311,294,304,308,1
310,295,305,308,1
309,296,305,309,1
307,297,303,308,1
306,297,302,308,1
305,297,300,308,1
306,297,299,308,1
306,298,297,306,1
305,300,297,305,1
304,303,296,304,1
301,306,296,303,1
298,309,297,303,1
295,310,299,304,1
293,309,302,305,1
293,308,304,308,1
295,307,308,310,1
298,307,311,312,1
301,309,314,313,1
305,311,317,314,1
308,312,320,314,1
312,312,322,314,1
314,312,320,313,1
315,312,316,313,1
315,310,312,312,1
314,308,308,310,1
312,306,305,308,1
311,305,302,307,1
310,306,299,305,1
312,305,298,305,1
315,306,297,306,1
317,311,296,307,1
318,319,294,308,1
316,322,291,308,1
311,319,290,307,1
305,312,290,307,1
301,305,293,308,1
300,299,297,310,1
299,296,301,312,1
298,295,306,313,1
297,295,310,313,1
295,295,313,313,1
294,295,315,312,1
294,295,317,312,1
297,294,318,313,1
303,292,318,314,1
308,289,316,314,1
312,287,313,314,1
313,286,309,312,1
313,286,305,310,1
313,288,303,308,1
314,291,302,308,1
316,294,302,308,1
318,296,300,309,1
316,297,300,311,1
311,296,302,312,1
303,295,303,311,1
295,293,304,310,1
292,293,304,311,1
294,297,307,313,1
301,299,309,315,1
307,298,310,316,1
311,294,309,316,1
313,289,306,315,1
314,289,305,314,1
316,296,306,313,1
318,310,308,312,1
319,325,311,310,1
319,335,311,308,1
318,338,311,307,1
318,337,310,306,1
318,334,308,306,1
317,331,307,306,1
314,328,306,307,1
311,324,307,308,1
307,320,308,308,1
302,317,308,306,1
298,314,306,306,1
297,313,304,305,1
298,312,303,306,1
300,312,304,306,1
301,312,305,307,1
303,313,307,308,1
305,313,308,308,1
309,313,308,307,1
310,311,307,305,1
309,309,306,303,1
308,307,304,301,1
306,306,304,300,1
307,305,304,300,1
307,304,304,300,1
304,303,305,302,1
300,302,306,303,1
297,302,306,304,1
295,301,306,304,1
295,302,306,304,1
297,303,305,304,1
298,304,303,305,1
299,306,303,305,1
300,306,302,305,1
300,305,300,306,1
300,303,300,307,1
300,299,300,308,1
300,297,303,308,1
303,296,307,309,1
304,297,309,309,1
305,298,309,308,1
305,296,306,306,1
304,293,304,306,1
305,293,305,307,1
307,298,308,308,1
309,305,314,310,1
310,309,318,311,1
310,312,320,311,1
310,312,319,310,1
311,310,316,310,1
312,305,310,308,1
315,300,303,307,1
320,297,299,305,1
323,297,296,305,1
323,300,296,304,1
320,304,297,304,1
318,307,299,304,1
319,310,301,306,1
320,311,304,307,1
320,308,306,308,1
318,301,307,309,1
315,291,307,308,1
310,284,307,307,1
305,281,307,306,1
303,281,305,306,1
303,286,302,304,1
305,294,301,303,1
309,305,301,304,1
313,316,305,306,1
315,326,309,308,1
314,330,312,310,1
311,330,313,310,1
306,329,312,310,1
301,327,310,310,1
297,325,309,308,1
294,321,307,307,1
294,316,306,308,1
295,311,307,310,1
298,309,310,311,1
300,308,313,312,1
301,307,316,312,1
303,306,316,312,1
303,305,315,311,1
304,304,312,309,1
307,304,308,307,1
310,304,304,306,1
312,303,300,304,1
312,303,299,302,1
311,306,300,302,1
311,310,302,302,1
310,312,305,303,1
308,310,308,305,1
308,306,312,308,1
309,302,315,309,1
310,299,318,311,1
309,299,319,311,1
307,304,318,312,1
307,315,318,312,1
306,326,319,312,1
306,333,318,310,1
302,330,316,308,1
298,319,312,306,1
295,308,307,303,1
294,303,303,301,1
295,304,302,301,1
297,310,303,303,1
300,318,305,305,1
302,323,306,307,1
303,321,306,309,1
304,313,306,310,1
307,305,306,312,1
311,300,308,313,1
316,296,312,314,1
319,294,317,316,1
320,294,322,317,1
319,294,325,317,1
317,296,326,316,1
316,299,325,315,1
315,301,322,313,1
313,302,318,312,1
308,302,312,310,1
301,301,305,308,1
297,300,301,305,1
296,299,298,303,1
298,299,297,301,1
301,300,298,299,1
306,303,299,298,1
310,307,298,297,1
310,309,297,296,1
308,310,295,296,1
305,311,294,297,1
303,310,292,297,1
301,306,290,296,1
300,300,290,296,1
298,297,292,297,1
299,296,297,300,1
301,297,302,303,1
307,298,307,306,1
312,299,310,309,1
314,301,311,311,1
314,304,312,313,1
315,307,312,314,1
317,307,311,315,1
315,304,311,315,1
312,300,310,314,1
307,295,309,313,1
302,292,308,312,1
297,289,307,311,1
293,289,307,310,1
292,289,307,309,1
294,293,306,308,1
296,298,305,306,1
299,302,304,304,1
302,306,303,303,1
307,310,303,303,1
314,314,303,304,1
323,318,304,306,1
333,322,306,308,1
340,325,309,310,1
340,327,311,310,1
332,328,313,308,1
320,327,312,306,1
308,324,309,304,1
299,319,305,303,1
294,311,302,302,1
292,303,298,302,1
291,298,296,302,1
292,299,296,302,1
293,305,297,304,1
295,313,298,306,1
296,315,300,307,1
299,312,300,308,1
301,307,300,308,1
304,303,301,309,1
307,302,302,311,1
310,303,303,312,1
313,309,304,312,1
312,315,305,313,1
309,317,306,312,1
304,315,308,311,1
300,311,308,308,1
298,308,310,307,1
299,307,312,307,1
303,307,314,308,1
305,307,314,309,1
307,307,314,311,1
305,307,312,311,1
302,307,313,310,1
299,308,315,309,1
298,310,319,308,1
299,313,322,308,1
301,315,323,308,1
305,317,321,309,1
309,318,318,311,1
314,320,315,312,1
318,322,313,313,1
319,324,312,313,1
316,322,311,312,1
312,319,310,310,1
307,316,308,309,1
303,315,307,307,1
300,313,305,307,1
298,312,305,307,1
298,311,304,306,1
299,311,304,306,1
300,312,307,306,1
302,313,313,307,1
304,312,318,307,1
303,310,318,306,1
301,306,310,305,1
296,300,300,304,1
291,295,292,303,1
289,289,288,304,1
290,286,287,304,1
293,283,288,305,1
297,283,291,306,1
302,286,295,306,1
305,291,299,307,1
306,295,301,307,1
304,297,302,308,1
302,298,302,308,1
300,298,301,309,1
301,299,301,310,1
305,301,300,312,1
313,306,301,315,1
323,312,302,317,1
329,317,303,318,1
331,319,303,318,1
327,317,303,317,1
320,313,303,315,1
312,306,303,313,1
306,301,303,312,1
301,297,303,311,1
298,296,304,311,1
297,298,307,311,1
297,299,311,310,1
295,298,314,309,1
294,297,316,308,1
294,296,317,307,1
296,297,317,306,1
300,300,316,307,1
305,305,313,307,1
309,309,309,307,1
312,310,303,306,1
315,309,297,306,1
317,309,291,305,1
319,309,287,305,1
316,308,285,304,1
309,306,285,304,1
300,302,287,302,1
293,297,288,301,1
288,293,291,301,1
285,292,294,300,1
284,292,298,300,1
287,293,302,301,1
290,295,303,302,1
293,296,305,303,1
295,297,307,304,1
297,297,309,305,1
298,297,311,305,1
298,300,313,306,1
297,303,314,305,1
295,305,314,303,1
293,308,314,302,1
291,311,315,301,1
291,315,317,301,1
292,323,319,302,1
293,336,321,303,1
294,349,322,305,1
293,352,320,306,1
292,346,319,307,1
291,338,319,308,1
293,331,319,309,1
297,325,319,309,1
302,321,318,310,1
307,317,316,310,1
312,313,313,310,1
313,308,309,308,1
312,304,307,306,1
311,301,305,305,1
309,299,303,303,1
306,296,302,302,1
304,294,303,301,1
302,294,307,299,1
302,296,315,299,1
303,300,322,300,1
304,305,324,301,1
308,309,321,302,1
310,311,317,304,1
312,311,312,306,1
313,311,309,308,1
314,308,308,310,1
315,304,307,311,1
312,300,307,310,1
305,295,307,309,1
298,291,303,307,1
294,288,300,306,1
294,287,299,306,1
298,288,301,307,1
304,291,304,309,1
309,294,305,309,1
312,297,305,308,1
312,299,304,308,1
311,298,301,307,1
310,297,298,307,1
309,297,296,308,1
309,296,295,308,1
307,293,297,308,1
304,293,300,308,1
302,296,303,309,1
299,301,307,310,1
298,309,309,310,1
299,318,311,311,1
302,328,311,310,1
306,334,309,310,1
309,335,305,310,1
311,330,302,311,1
313,323,299,311,1
312,314,297,310,1
310,306,296,308,1
306,300,296,307,1
301,297,297,306,1
298,297,298,306,1
297,300,301,307,1
297,304,304,307,1
299,307,307,308,1
301,308,307,309,1
303,307,305,310,1
307,308,304,311,1
311,312,303,312,1
312,316,302,313,1
310,317,303,313,1
306,315,302,312,1
304,311,301,312,1
302,308,300,310,1
303,307,301,309,1
305,305,303,309,1
308,303,306,309,1
311,301,308,308,1
314,301,309,308,1
314,302,308,308,1
312,304,308,307,1
310,308,309,307,1
309,310,311,307,1
308,312,314,307,1
307,312,314,306,1
304,311,311,304,1
301,311,305,303,1
301,313,301,303,1
303,315,298,304,1
308,320,298,305,1
314,326,299,306,1
320,330,299,307,1
323,327,299,308,1
324,319,299,309,1
321,311,299,309,1
314,302,298,307,1
306,295,296,305,1
298,290,294,302,1
292,286,295,300,1
290,287,299,300,1
290,290,304,300,1
291,294,312,300,1
293,300,319,301,1
295,305,324,302,1
297,308,323,304,1
299,308,321,305,1
301,307,318,308,1
302,307,316,310,1
301,306,313,311,1
301,304,309,312,1
300,302,307,312,1
300,302,308,312,1
300,305,309,311,1
302,309,311,311,1
306,313,313,312,1
310,315,313,313,1
316,314,311,313,1
320,311,310,311,1
326,306,307,309,1
332,302,305,307,1
335,300,304,305,1
334,300,305,304,1
328,301,306,304,1
318,302,307,303,1
305,302,307,302,1
294,301,307,302,1
288,301,307,303,1
287,304,307,305,1
289,309,308,307,1
294,315,312,310,1
298,319,316,313,1
302,322,320,316,1
305,323,322,317,1
307,322,321,317,1
308,319,319,317,1
310,316,317,317,1
311,312,316,317,1
311,306,314,315,1
311,301,312,313,1
311,298,311,312,1
311,297,311,311,1
310,299,312,311,1
308,303,312,309,1
306,306,309,307,1
305,307,306,307,1
306,308,304,307,1
307,307,303,307,1
309,306,303,307,1
309,305,303,309,1
309,307,303,310,1
309,311,305,311,1
309,316,305,311,1
310,321,305,310,1
312,327,304,310,1
314,329,304,308,1
317,328,303,307,1
320,326,302,306,1
322,322,303,305,1
322,317,303,305,1
319,313,304,305,1
315,309,305,305,1
311,310,305,304,1
308,313,306,304,1
304,314,305,302,1
300,314,305,301,1
297,311,304,301,1
297,308,304,302,1
301,306,305,304,1
308,307,305,307,1
316,309,305,309,1
324,313,304,312,1
329,319,303,314,1
330,319,302,316,1
325,312,301,316,1
316,302,299,314,1
308,297,297,312,1
303,296,296,310,1
302,297,295,308,1
302,298,292,305,1
303,300,290,302,1
304,300,290,299,1
306,299,292,297,1
307,299,295,296,1
310,301,297,296,1
311,304,299,296,1
310,308,301,299,1
311,310,305,302,1
312,310,308,306,1
314,310,312,308,1
316,308,315,310,1
316,305,316,310,1
315,302,316,309,1
314,300,315,308,1
315,300,314,308,1
318,301,313,308,1
321,303,312,308,1
323,306,312,308,1
323,310,315,307,1
321,314,318,308,1
317,316,322,308,1
312,315,323,308,1
305,312,322,308,1
299,306,320,308,1
293,304,318,308,1
288,304,315,307,1
283,309,313,307,1
280,315,311,307,1
277,319,309,308,1
279,321,307,308,1
284,319,305,308,1
291,316,303,309,1
298,313,303,311,1
304,310,303,313,1
307,310,304,314,1
308,310,304,314,1
310,311,305,315,1
313,312,305,315,1
315,312,306,313,1
318,312,307,312,1
321,311,309,311,1
321,309,312,310,1
318,305,314,309,1
312,303,316,308,1
308,303,318,307,1
306,306,319,306,1
305,310,319,305,1
305,315,315,304,1
304,318,308,303,1
303,318,301,303,1
300,312,295,302,1
298,302,291,303,1
296,291,288,303,1
295,283,288,302,1
297,277,289,302,1
300,275,292,302,1
305,279,294,302,1
312,286,296,304,1
319,292,297,305,1
326,297,298,306,1
331,300,301,308,1
334,304,305,308,1
331,307,309,308,1
324,310,310,306,1
314,313,309,303,1
306,318,308,300,1
300,322,307,298,1
298,324,307,297,1
297,324,307,296,1
295,322,307,296,1
296,319,306,296,1
297,314,305,298,1
298,309,303,300,1
299,306,303,302,1
300,305,304,304,1
301,306,307,306,1
304,308,310,307,1
309,309,313,309,1
315,310,315,310,1
320,311,318,312,1
323,311,319,312,1
322,310,319,311,1
320,306,318,310,1
318,301,316,309,1
315,294,313,307,1
312,289,310,306,1
308,287,307,304,1
305,291,306,304,1
302,297,304,305,1
299,302,303,305,1
297,304,302,304,1
297,303,302,304,1
298,300,305,305,1
302,297,308,307,1
306,295,312,308,1
309,295,316,308,1
310,300,322,307,1
310,305,325,305,1
309,307,323,304,1
306,305,317,302,1
303,303,310,301,1
299,301,305,301,1
294,299,302,301,1
291,297,300,303,1
289,297,300,305,1
292,299,303,308,1
297,304,306,310,1
303,312,309,312,1
308,319,310,313,1
309,323,310,313,1
308,327,309,311,1
306,330,308,310,1
304,331,306,309,1
301,327,307,310,1
300,321,308,310,1
300,316,309,310,1
300,312,309,309,1
300,308,308,307,1
299,303,307,305,1
298,299,305,304,1
299,295,305,303,1
302,294,304,303,1
307,294,304,304,1
313,295,303,304,1
317,298,304,305,1
318,302,308,306,1
314,308,313,307,1
308,312,317,308,1
303,314,317,308,1
301,314,313,309,1
302,312,310,309,1
304,310,306,308,1
307,307,302,307,1
309,306,298,306,1
309,306,295,304,1
308,307,295,304,1
305,306,296,303,1
304,305,298,303,1
305,303,299,303,1
309,302,299,303,1
313,302,299,302,1
316,302,301,301,1
316,300,302,302,1
312,297,303,302,1
306,294,304,301,1
301,293,306,301,1
297,295,309,301,1
298,301,312,302,1
300,307,312,303,1
301,313,309,303,1
302,319,306,304,1
302,324,302,306,1
301,326,299,306,1
300,324,297,305,1
300,319,296,306,1
301,315,297,307,1
304,313,301,308,1
307,312,306,309,1
309,310,309,309,1
310,307,311,310,1
311,305,312,310,1
311,305,312,310,1
312,304,313,310,1
314,303,314,309,1
316,300,314,308,1
318,296,312,307,1
318,290,308,305,1
315,284,303,305,1
309,283,299,304,1
303,286,298,305,1
300,292,299,306,1
299,298,303,306,1
299,303,308,307,1
299,307,310,308,1
301,312,310,309,1
304,315,308,309,1
307,313,305,310,1
309,309,302,310,1
308,303,300,309,1
306,300,298,309,1
302,299,298,308,1
300,300,298,309,1
298,302,297,308,1
296,305,297,308,1
296,310,298,308,1
297,316,300,310,1
299,322,303,311,1
301,326,306,313,1
303,327,307,314,1
302,325,307,315,1
301,321,306,315,1
299,317,307,314,1
298,314,311,314,1
298,313,316,315,1
299,314,323,316,1
302,315,326,317,1
305,315,325,318,1
307,315,322,318,1
308,313,319,317,1
310,312,317,316,1
312,311,314,316,1
314,309,312,315,1
316,308,308,315,1
320,308,305,314,1
324,309,302,313,1
326,308,298,312,1
322,306,294,310,1
315,304,291,308,1
309,306,291,308,1
303,311,294,309,1
298,315,299,309,1
295,316,303,309,1
292,315,305,309,1
291,312,306,308,1
292,308,306,308,1
294,306,307,308,1
296,306,309,308,1
299,307,312,309,1
300,308,315,309,1
299,309,316,308,1
299,310,313,308,1
299,312,310,307,1
298,316,309,307,1
299,320,310,307,1
300,322,310,305,1
302,321,310,304,1
303,318,309,304,1
308,315,308,306,1
314,311,306,307,1
322,308,304,309,1
329,306,302,311,1
331,306,302,312,1
329,308,302,312,1
324,310,303,312,1
318,311,303,310,1
311,313,303,308,1
304,311,302,305,1
299,306,301,303,1
296,299,300,301,1
295,292,299,302,1
298,286,297,303,1
303,282,297,304,1
306,283,299,306,1
308,289,304,307,1
308,297,311,309,1
308,302,316,311,1
306,304,319,312,1
304,302,320,313,1
303,302,319,313,1
304,304,316,314,1
307,306,313,315,1
310,307,311,315,1
312,306,310,315,1
313,305,309,315,1
313,301,307,314,1
310,297,304,312,1
304,293,300,309,1
299,290,296,307,1
295,287,293,307,1
294,283,292,307,1
294,282,293,308,1
297,284,296,310,1
304,288,300,312,1
312,292,302,313,1
319,293,301,313,1
323,294,299,312,1
320,296,298,311,1
313,296,298,309,1
305,297,299,308,1
298,299,301,308,1
296,302,304,309,1
297,308,306,310,1
301,314,307,311,1
307,319,306,312,1
314,325,304,313,1
318,330,302,313,1
318,333,300,312,1
316,332,300,312,1
311,329,301,311,1
307,325,303,311,1
304,320,306,311,1
302,316,309,310,1
301,313,311,309,1
302,313,311,308,1
303,314,310,308,1
305,315,308,307,1
306,315,307,308,1
307,314,306,308,1
308,313,306,309,1
310,314,307,310,1
312,316,310,311,1
315,317,313,312,1
316,318,314,314,1
317,318,314,314,1
317,316,313,314,1
317,316,314,314,1
317,319,315,314,1
314,324,315,313,1
309,326,313,311,1
305,324,310,309,1
302,318,308,307,1
300,311,307,305,1
299,304,306,303,1
298,299,304,302,1
298,295,302,300,1
298,293,300,299,1
298,291,298,299,1
300,291,297,300,1
301,294,299,302,1
301,298,301,304,1
300,305,302,306,1
298,313,303,307,1
296,320,302,307,1
294,322,300,305,1
293,320,298,303,1
294,317,299,303,1
298,313,300,304,1
303,309,302,304,1
305,305,301,304,1
303,301,300,303,1
299,299,301,303,1
296,299,304,304,1
295,300,309,305,1
295,301,313,306,1
298,301,314,307,1
300,301,313,307,1
303,302,310,307,1
307,304,306,307,1
309,304,301,306,1
310,303,296,306,1
309,299,292,304,1
308,294,290,304,1
309,292,292,304,1
311,292,295,306,1
316,294,299,307,1
321,296,302,307,1
325,297,303,306,1
326,298,303,305,1
326,298,303,304,1
326,296,303,304,1
326,295,305,305,1
325,295,307,306,1
321,294,309,306,1
316,295,309,305,1
312,296,309,305,1
310,300,309,305,1
310,307,311,306,1
311,312,313,306,1
310,315,313,305,1
306,314,311,302,1
300,310,308,297,1
293,306,305,295,1
291,300,303,296,1
292,297,301,299,1
296,298,300,303,1
301,301,299,307,1
305,304,300,309,1
308,304,300,310,1
311,303,300,310,1
311,302,301,309,1
312,301,303,308,1
311,301,305,308,1
311,301,310,307,1
312,301,315,307,1
312,301,319,307,1
313,304,320,307,1
314,307,316,306,1
314,310,312,306,1
313,310,308,306,1
310,309,306,306,1
306,304,306,306,1
303,300,307,307,1
303,297,310,308,1
305,299,313,307,1
307,304,315,306,1
308,311,313,303,1
308,316,311,299,1
308,316,309,297,1
309,311,309,298,1
309,303,310,302,1
310,297,312,306,1
309,293,312,311,1
309,293,311,313,1
309,295,310,316,1
310,301,309,317,1
314,308,309,318,1
317,313,308,318,1
318,315,307,317,1
317,314,305,316,1
315,312,305,314,1
315,310,305,314,1
318,309,305,313,1
322,308,304,313,1
326,307,303,313,1
328,308,303,312,1
325,308,304,312,1
319,309,305,311,1
313,310,306,310,1
308,310,305,309,1
305,308,305,308,1
303,305,304,308,1
305,303,302,308,1
310,304,301,309,1
316,307,301,309,1
321,311,302,309,1
325,313,303,309,1
326,315,302,308,1
321,315,300,305,1
311,312,298,303,1
302,310,298,301,1
295,307,297,300,1
291,306,297,300,1
288,307,299,300,1
287,309,302,302,1
288,312,304,305,1
290,314,305,307,1
292,316,305,308,1
294,315,306,309,1
297,307,306,309,1
300,299,307,309,1
303,293,309,309,1
307,289,312,310,1
309,289,316,311,1
313,292,318,312,1
315,296,318,312,1
315,300,315,311,1
313,304,312,311,1
310,310,308,309,1
308,316,305,308,1
307,319,304,307,1
306,320,307,307,1
306,320,312,307,1
306,320,320,307,1
306,320,328,307,1
306,321,334,307,1
306,319,333,305,1
306,314,328,303,1
307,308,322,303,1
309,303,317,303,1
312,299,314,303,1
315,298,313,304,1
316,299,313,304,1
315,297,314,304,1
313,294,313,304,1
310,289,307,304,1
306,285,298,304,1
302,284,288,303,1
297,287,282,302,1
294,293,283,303,1
294,302,289,305,1
296,312,297,308,1
299,319,305,310,1
302,324,311,312,1
305,326,315,314,1
307,326,318,316,1
307,325,319,316,1
308,324,319,317,1
308,323,318,317,1
308,320,317,316,1
308,317,314,314,1
308,314,312,312,1
309,311,310,311,1
310,308,309,310,1
313,307,310,311,1
317,308,312,311,1
322,308,313,312,1
327,309,314,312,1
333,309,315,312,1
335,309,317,311,1
332,309,318,311,1
323,306,314,310,1
309,303,308,306,1
297,301,302,304,1
291,302,299,302,1
288,306,300,303,1
288,310,302,304,1
290,313,304,306,1
292,312,305,307,1
293,308,304,308,1
292,304,304,308,1
291,300,303,309,1
291,300,303,310,1
293,303,303,311,1
295,309,303,312,1
298,313,302,312,1
300,314,301,312,1
301,310,300,312,1
301,305,300,312,1
300,299,301,312,1
299,294,303,312,1
298,293,304,312,1
296,294,306,312,1
295,298,307,312,1
294,304,308,312,1
295,308,308,312,1
296,313,307,312,1
298,315,307,312,1
300,317,307,312,1
303,318,309,312,1
305,318,309,311,1
306,318,310,311,1
306,316,309,310,1
305,311,308,307,1
303,301,306,304,1
299,289,306,300,1
296,280,306,297,1
296,276,308,295,1
299,280,311,295,1
305,291,309,297,1
312,305,305,301,1
318,318,300,306,1
321,323,296,310,1
322,320,294,313,1
318,313,292,315,1
313,308,292,315,1
308,309,295,314,1
303,311,300,314,1
300,312,305,314,1
299,313,311,313,1
301,313,314,314,1
305,314,314,315,1
309,313,313,315,1
312,313,309,314,1
312,312,306,313,1
310,311,302,312,1
307,308,299,312,1
304,304,298,312,1
304,302,299,312,1
306,301,301,312,1
310,302,304,312,1
312,306,307,313,1
315,309,310,315,1
317,313,313,319,1
317,316,317,322,1
315,318,321,324,1
311,319,327,323,1
307,316,332,322,1
303,311,333,319,1
298,304,329,315,1
296,299,322,310,1
296,297,315,308,1
298,300,310,307,1
302,307,307,308,1
307,315,307,310,1
311,318,308,312,1
313,317,308,314,1
311,313,308,315,1
308,308,306,315,1
304,305,304,314,1
301,304,303,313,1
298,303,304,312,1
296,302,305,311,1
295,301,307,310,1
295,301,307,310,1
296,302,306,310,1
297,306,304,311,1
299,310,302,312,1
302,312,299,313,1
305,309,298,313,1
309,303,296,314,1
312,297,297,313,1
313,292,298,313,1
313,290,301,313,1
311,292,304,311,1
307,295,306,309,1
305,299,308,308,1
302,303,309,306,1
301,304,310,306,1
300,304,310,306,1
300,302,309,308,1
301,301,307,310,1
303,301,305,311,1
304,302,305,311,1
306,304,306,310,1
305,306,307,309,1
303,308,308,307,1
299,308,309,305,1
296,307,309,304,1
295,304,308,303,1
296,300,307,303,1
299,297,306,303,1
302,295,305,303,1
306,294,304,305,1
310,296,304,308,1
310,298,303,309,1
309,299,303,310,1
306,300,305,310,1
304,301,306,311,1
303,303,306,312,1
301,304,305,311,1
300,306,303,310,1
300,306,303,310,1
299,305,306,309,1
298,303,310,308,1
297,302,314,307,1
297,300,318,307,1
300,301,321,307,1
305,304,323,307,1
311,308,322,309,1
317,312,318,311,1
320,314,313,312,1
321,315,308,312,1
319,315,304,311,1
314,314,302,310,1
309,312,302,309,1
306,310,301,308,1
305,307,301,308,1
306,304,301,308,1
308,302,300,309,1
308,299,300,310,1
