326,299,299,311,1
328,302,299,309,1
329,305,299,306,1
328,308,299,304,1
325,310,300,303,1
322,310,303,304,1
321,311,305,305,1
321,310,306,308,1
321,309,305,310,1
321,306,301,310,1
321,303,299,310,1
321,302,298,309,1
320,303,298,308,1
321,304,299,309,1
324,305,301,311,1
327,307,303,313,1
330,309,305,315,1
332,310,305,315,1
333,309,305,315,1
332,307,304,314,1
331,305,303,313,1
328,302,302,313,1
326,298,301,312,1
324,295,299,311,1
323,293,299,310,1
322,293,300,309,1
324,294,301,308,1
326,295,303,307,1
329,295,305,307,1
332,296,308,307,1
333,298,310,308,1
334,301,312,308,1
333,305,313,309,1
331,309,313,309,1
328,311,313,309,1
327,311,312,309,1
328,309,311,309,1
330,307,310,309,1
333,307,310,309,1
335,309,310,309,1
337,311,310,309,1
338,312,308,309,1
337,312,306,308,1
334,308,302,308,1
331,305,299,308,1
328,303,299,308,1
327,304,300,308,1
326,307,302,309,1
324,310,305,310,1
323,312,308,309,1
321,313,310,309,1
321,313,311,308,1
322,313,311,308,1
323,312,310,310,1
324,311,310,311,1
325,309,310,312,1
323,307,309,312,1
321,305,307,311,1
319,303,306,310,1
320,303,306,309,1
322,304,306,310,1
325,306,305,311,1
327,308,304,312,1
328,309,303,311,1
326,309,302,310,1
324,307,302,309,1
323,309,305,308,1
324,312,312,309,1
327,317,319,311,1
330,320,322,313,1
332,320,321,313,1
332,317,316,313,1
330,312,309,311,1
327,307,301,308,1
324,301,295,307,1
320,296,291,305,1
318,292,290,304,1
317,291,291,305,1
319,293,295,306,1
320,296,299,308,1
321,297,302,309,1
321,296,301,308,1
320,295,299,307,1
320,294,297,306,1
320,296,297,306,1
322,301,299,307,1
323,307,302,308,1
324,310,303,309,1
325,310,302,309,1
324,307,301,310,1
324,305,302,311,1
325,304,303,312,1
326,305,306,314,1
327,311,309,314,1
327,316,312,313,1
327,320,313,313,1
326,322,315,311,1
325,322,316,311,1
324,321,318,310,1
323,319,320,310,1
323,315,320,310,1
324,311,319,310,1
325,306,316,311,1
328,304,313,311,1
331,302,309,313,1
335,303,307,313,1
336,305,305,313,1
335,307,305,313,1
335,312,305,313,1
336,317,306,312,1
337,323,309,311,1
338,327,315,311,1
338,330,321,312,1
337,332,326,313,1
335,331,327,313,1
330,328,324,311,1
325,322,319,310,1
323,317,315,309,1
322,313,314,308,1
323,309,314,308,1
323,306,314,307,1
323,302,312,306,1
326,298,308,306,1
330,295,304,306,1
333,294,302,308,1
334,294,302,309,1
333,296,303,311,1
329,299,304,311,1
324,301,305,311,1
319,302,305,310,1
315,304,305,308,1
311,305,306,306,1
309,306,305,305,1
308,308,306,304,1
308,309,307,305,1
311,310,307,306,1
314,309,308,308,1
316,308,308,309,1
318,307,308,310,1
318,305,308,310,1
318,303,308,310,1
319,301,307,309,1
318,300,305,309,1
318,300,303,307,1
317,300,302,306,1
316,299,302,303,1
315,299,304,301,1
315,301,306,300,1
317,303,308,299,1
321,305,310,300,1
326,308,312,302,1
330,310,314,304,1
330,310,314,304,1
328,310,311,304,1
324,308,308,302,1
321,306,304,300,1
317,306,303,299,1
316,307,303,298,1
315,309,304,298,1
316,308,305,298,1
317,306,304,299,1
316,304,303,299,1
315,301,301,299,1
315,301,300,299,1
317,303,302,301,1
320,307,304,302,1
321,308,305,304,1
322,307,305,304,1
321,304,304,304,1
320,301,302,305,1
318,299,302,305,1
318,300,304,306,1
319,303,306,308,1
320,307,309,310,1
322,312,311,311,1
324,315,312,312,1
326,318,313,312,1
327,320,313,312,1
327,320,314,310,1
327,321,315,309,1
328,320,315,309,1
327,318,314,307,1
325,315,313,306,1
323,313,311,304,1
320,311,311,303,1
318,306,311,303,1
315,300,309,304,1
314,294,307,305,1
314,290,307,306,1
315,288,309,307,1
316,289,312,308,1
316,293,313,310,1
316,300,314,310,1
315,307,314,310,1
314,313,313,309,1
315,316,312,307,1
317,317,312,307,1
320,316,313,307,1
324,315,314,308,1
330,315,315,309,1
338,316,316,311,1
345,319,317,312,1
351,320,316,312,1
354,321,316,311,1
352,321,316,311,1
344,320,317,309,1
334,318,317,308,1
323,316,316,307,1
313,314,316,305,1
306,312,317,305,1
303,310,317,305,1
301,307,316,304,1
300,304,311,303,1
300,301,305,303,1
301,299,300,303,1
302,299,297,303,1
302,301,296,302,1
302,303,297,301,1
303,306,299,301,1
303,308,301,300,1
303,311,303,301,1
302,312,307,302,1
304,312,310,305,1
307,312,313,308,1
313,309,314,311,1
319,307,313,314,1
326,304,311,316,1
331,300,308,317,1
333,297,304,318,1
332,296,303,318,1
327,299,304,318,1
322,307,306,318,1
318,313,310,318,1
315,316,313,317,1
313,316,316,315,1
311,314,316,313,1
308,313,315,311,1
307,312,314,310,1
307,311,314,310,1
309,310,313,310,1
312,308,312,309,1
313,305,308,308,1
314,302,304,307,1
314,299,300,306,1
313,297,297,305,1
314,296,296,306,1
314,297,297,307,1
316,297,299,308,1
316,299,302,310,1
316,301,304,312,1
315,304,306,313,1
313,308,307,313,1
311,310,307,313,1
310,313,307,312,1
310,314,308,311,1
310,315,310,311,1
311,315,311,310,1
312,313,312,309,1
313,310,311,309,1
315,307,310,308,1
316,305,309,307,1
317,304,308,307,1
317,306,308,307,1
317,306,308,307,1
316,306,309,306,1
315,305,309,305,1
314,304,307,304,1
313,303,306,302,1
311,301,304,301,1
310,299,305,299,1
310,299,308,298,1
312,300,311,298,1
316,301,311,299,1
320,302,309,302,1
323,300,306,303,1
324,297,302,304,1
323,296,301,305,1
321,299,302,307,1
321,305,307,309,1
322,312,311,313,1
323,317,315,316,1
321,318,317,318,1
318,316,317,317,1
313,313,316,316,1
308,309,314,315,1
304,307,312,314,1
303,306,310,313,1
303,308,309,311,1
305,310,306,311,1
307,312,304,310,1
311,313,304,311,1
314,313,304,311,1
316,312,306,311,1
316,311,307,311,1
315,310,308,311,1
313,308,308,310,1
311,307,308,310,1
311,305,307,310,1
313,301,305,310,1
313,298,304,309,1
312,296,303,308,1
310,296,303,308,1
307,298,303,309,1
304,299,303,310,1
300,298,303,310,1
297,298,304,310,1
297,299,306,310,1
300,303,309,311,1
306,308,312,312,1
313,312,315,314,1
319,313,318,316,1
325,313,319,318,1
329,312,317,319,1
331,311,315,319,1
330,312,313,319,1
326,313,311,318,1
321,314,307,317,1
317,315,304,315,1
316,314,302,313,1
316,310,301,312,1
318,307,302,313,1
321,306,305,315,1
323,306,308,317,1
322,306,309,318,1
318,306,310,318,1
314,307,310,316,1
312,309,310,316,1
311,311,310,316,1
312,311,309,316,1
312,310,308,316,1
311,308,306,315,1
309,304,303,314,1
306,299,301,312,1
302,296,300,311,1
299,296,302,310,1
298,298,305,310,1
299,303,308,311,1
301,308,310,311,1
302,312,311,311,1
303,313,311,310,1
305,313,310,309,1
305,311,308,308,1
306,306,306,307,1
305,301,302,306,1
305,295,298,305,1
305,292,296,305,1
306,293,295,306,1
306,297,296,308,1
306,302,298,311,1
307,308,301,313,1
308,312,305,314,1
308,315,308,316,1
308,316,311,316,1
309,317,313,316,1
309,316,314,316,1
311,314,315,316,1
312,311,314,317,1
313,308,313,317,1
315,304,312,316,1
315,300,309,315,1
315,296,307,314,1
315,294,306,313,1
314,294,304,313,1
315,297,303,312,1
317,301,303,312,1
319,304,303,312,1
321,307,304,311,1
324,310,306,312,1
327,313,308,313,1
327,315,310,314,1
324,315,312,314,1
320,313,312,314,1
315,310,312,314,1
312,308,311,315,1
309,306,311,315,1
309,306,311,314,1
309,308,312,314,1
310,312,313,313,1
312,316,313,313,1
313,319,314,312,1
312,319,314,311,1
309,317,314,310,1
308,314,314,309,1
306,311,312,308,1
306,306,309,307,1
305,302,305,305,1
305,298,301,304,1
305,296,299,304,1
307,298,300,305,1
311,301,303,307,1
315,305,307,308,1
317,309,310,310,1
317,311,311,312,1
314,310,311,313,1
310,308,310,314,1
306,305,309,314,1
305,303,308,314,1
305,301,310,314,1
306,299,312,313,1
307,298,315,311,1
309,299,315,309,1
310,300,313,307,1
310,301,308,306,1
309,302,305,306,1
308,303,304,306,1
309,306,304,308,1
310,310,306,310,1
312,313,308,310,1
313,315,309,310,1
314,316,310,311,1
315,318,310,311,1
314,318,310,311,1
314,317,309,310,1
312,315,307,309,1
311,313,305,308,1
310,311,303,307,1
310,309,302,307,1
311,307,302,309,1
312,305,300,311,1
313,303,298,312,1
313,300,296,311,1
313,297,293,311,1
312,294,292,311,1
311,293,292,311,1
311,294,293,311,1
311,296,294,311,1
310,299,294,310,1
308,301,295,309,1
306,303,296,307,1
305,304,297,306,1
307,306,300,306,1
310,309,303,307,1
316,310,306,308,1
320,311,309,308,1
322,311,312,308,1
321,312,316,308,1
318,311,320,309,1
314,310,322,310,1
311,308,323,312,1
311,307,322,313,1
313,306,320,315,1
318,308,319,317,1
323,312,318,318,1
326,316,317,319,1
326,319,315,317,1
324,319,313,315,1
319,317,311,314,1
313,316,312,313,1
307,317,312,312,1
303,318,313,311,1
300,318,313,310,1
299,317,313,310,1
299,316,314,309,1
300,315,315,309,1
301,314,315,309,1
301,312,314,309,1
300,311,313,308,1
300,310,310,306,1
299,309,307,305,1
298,307,304,303,1
299,305,302,302,1
301,303,301,302,1
304,304,302,303,1
307,304,303,304,1
307,305,306,305,1
306,307,310,307,1
305,308,314,310,1
305,309,317,313,1
303,310,319,315,1
302,311,320,316,1
303,311,320,316,1
305,310,318,315,1
306,310,315,314,1
308,308,313,313,1
307,305,309,311,1
307,301,306,310,1
306,296,304,309,1
305,293,304,309,1
304,291,305,309,1
305,293,307,311,1
309,298,312,313,1
313,304,317,314,1
318,310,321,315,1
321,314,323,316,1
324,317,323,316,1
323,319,323,315,1
322,320,323,314,1
320,321,322,313,1
317,322,320,312,1
312,322,317,310,1
306,320,314,308,1
301,319,312,306,1
296,316,310,303,1
293,314,307,302,1
292,310,305,302,1
292,306,303,302,1
294,303,301,303,1
296,302,300,304,1
299,300,300,307,1
301,298,301,310,1
303,296,303,312,1
306,297,304,315,1
307,297,304,317,1
308,297,302,317,1
308,297,300,315,1
308,298,300,314,1
309,302,301,314,1
310,307,305,313,1
311,312,308,313,1
313,315,310,313,1
315,317,310,312,1
316,317,310,312,1
317,316,309,312,1
316,314,308,312,1
315,313,307,312,1
315,312,306,312,1
314,310,303,312,1
311,308,301,311,1
309,305,299,310,1
308,306,298,309,1
308,308,299,308,1
308,310,300,308,1
308,313,303,307,1
308,316,306,306,1
309,317,308,307,1
311,317,310,307,1
311,315,310,308,1
310,312,308,308,1
308,307,306,308,1
307,303,303,307,1
305,299,301,307,1
302,296,300,306,1
297,295,300,305,1
293,299,301,305,1
291,304,304,307,1
290,309,307,308,1
290,312,309,309,1
290,312,309,309,1
291,311,308,309,1
293,310,308,310,1
298,308,308,312,1
303,306,308,313,1
308,303,309,314,1
310,302,311,314,1
311,300,312,314,1
310,299,312,313,1
310,299,315,314,1
312,303,317,314,1
313,307,319,315,1
314,312,320,315,1
314,316,321,315,1
314,320,322,315,1
312,323,324,315,1
310,325,324,316,1
308,325,321,317,1
307,324,318,316,1
306,323,315,315,1
306,321,313,314,1
306,318,312,313,1
306,314,310,312,1
305,310,308,311,1
303,308,306,310,1
303,307,305,309,1
303,308,304,310,1
304,309,304,310,1
305,309,303,311,1
306,308,302,311,1
304,307,302,310,1
303,306,302,310,1
302,305,302,310,1
301,305,302,309,1
300,306,303,309,1
301,308,306,309,1
302,309,309,309,1
304,309,311,309,1
306,311,313,311,1
309,312,314,313,1
313,314,315,315,1
317,314,314,316,1
320,314,313,316,1
320,312,312,316,1
318,310,311,315,1
313,306,309,314,1
307,301,307,312,1
302,295,304,309,1
298,290,300,307,1
296,286,296,306,1
296,282,291,305,1
297,281,289,306,1
299,284,289,308,1
301,288,290,308,1
302,294,292,308,1
302,299,295,309,1
301,305,299,309,1
300,311,305,311,1
299,317,311,312,1
299,321,315,312,1
299,323,318,312,1
300,323,320,312,1
302,323,319,312,1
304,321,317,311,1
304,318,314,310,1
306,316,312,309,1
307,314,310,308,1
308,312,309,308,1
309,311,307,308,1
312,310,307,309,1
314,311,307,310,1
315,312,309,311,1
315,313,309,311,1
313,312,309,310,1
309,310,309,309,1
306,308,308,306,1
302,306,307,304,1
301,303,306,304,1
302,301,306,306,1
304,299,306,309,1
304,296,306,311,1
303,291,304,312,1
301,288,302,311,1
299,285,301,311,1
299,286,300,311,1
300,288,300,311,1
301,293,300,312,1
301,298,301,313,1
302,303,303,314,1
303,308,305,314,1
303,312,306,314,1
302,314,306,313,1
299,316,305,311,1
295,316,305,310,1
294,316,305,309,1
295,316,307,309,1
296,317,310,308,1
298,316,313,307,1
299,314,315,307,1
300,313,316,307,1
301,311,316,308,1
302,309,315,309,1
303,307,315,310,1
305,305,314,311,1
306,304,312,312,1
307,302,311,313,1
308,303,310,313,1
309,303,308,313,1
309,304,306,313,1
308,305,303,312,1
305,306,300,310,1
302,306,296,307,1
300,304,294,305,1
298,303,294,304,1
298,302,296,303,1
298,301,300,302,1
299,303,303,303,1
301,306,306,303,1
302,311,309,304,1
303,315,311,304,1
304,319,311,304,1
303,320,311,303,1
303,318,310,303,1
302,315,308,302,1
302,313,307,302,1
302,311,307,301,1
304,309,307,302,1
306,308,308,303,1
309,306,307,304,1
312,304,305,305,1
313,301,302,305,1
312,300,301,306,1
310,301,303,307,1
307,303,306,308,1
304,306,307,309,1
302,307,308,309,1
301,307,308,309,1
301,307,306,309,1
300,306,305,308,1
300,305,303,308,1
300,304,303,307,1
301,305,304,307,1
302,306,305,307,1
303,307,305,308,1
304,307,305,309,1
305,305,305,310,1
307,303,307,310,1
308,302,307,309,1
307,302,307,308,1
305,302,307,308,1
303,304,307,307,1
301,304,305,306,1
299,303,304,305,1
296,301,303,304,1
294,298,302,305,1
293,297,303,306,1
293,298,304,309,1
295,299,306,312,1
298,300,308,314,1
300,302,310,314,1
302,304,310,313,1
302,304,309,312,1
302,303,308,311,1
301,301,306,309,1
301,298,303,309,1
301,294,299,308,1
301,292,297,308,1
302,290,295,308,1
304,289,294,307,1
305,292,295,306,1
309,298,298,306,1
314,306,303,307,1
317,314,307,308,1
318,320,311,309,1
314,323,314,309,1
309,324,314,308,1
303,324,314,307,1
300,322,312,307,1
299,320,311,306,1
299,317,310,306,1
299,315,310,306,1
300,314,312,307,1
300,314,314,307,1
301,313,315,307,1
303,311,314,308,1
304,308,312,309,1
305,304,310,308,1
306,300,308,307,1
307,298,305,306,1
306,298,302,304,1
305,302,301,304,1
303,307,300,304,1
301,312,301,304,1
301,315,302,305,1
301,317,302,306,1
302,318,303,307,1
300,317,303,307,1
297,315,303,306,1
294,312,302,305,1
291,309,301,303,1
290,307,300,302,1
289,306,300,301,1
290,305,301,302,1
292,306,302,304,1
295,307,303,307,1
298,309,304,309,1
301,310,305,310,1
303,309,304,309,1
303,307,303,308,1
302,306,302,306,1
302,306,301,305,1
302,307,300,305,1
302,307,300,305,1
302,305,298,306,1
303,304,296,306,1
303,302,296,306,1
303,303,298,305,1
304,305,301,306,1
305,308,304,307,1
308,310,308,308,1
311,312,310,309,1
315,313,312,309,1
318,312,312,309,1
319,310,312,309,1
318,307,313,309,1
315,305,313,307,1
311,304,312,305,1
307,304,311,303,1
306,305,309,301,1
305,305,307,300,1
305,305,305,301,1
306,304,304,303,1
306,304,303,305,1
306,303,303,307,1
306,303,305,309,1
305,303,307,310,1
305,304,311,311,1
306,305,313,311,1
306,306,314,310,1
306,308,314,309,1
305,309,314,308,1
301,309,313,307,1
297,307,313,306,1
296,307,313,306,1
296,308,312,307,1
296,309,310,308,1
295,309,309,307,1
296,307,307,308,1
296,306,306,308,1
297,305,306,309,1
298,305,308,310,1
299,305,308,310,1
299,304,308,308,1
299,304,307,307,1
299,304,305,306,1
299,304,302,304,1
299,304,299,302,1
300,304,298,302,1
302,304,297,303,1
303,304,298,304,1
303,303,299,305,1
302,302,299,305,1
300,299,299,305,1
297,296,300,304,1
293,294,300,302,1
291,292,302,302,1
291,293,304,302,1
294,293,306,303,1
299,293,306,304,1
305,293,306,306,1
310,295,305,308,1
314,298,305,310,1
316,300,305,311,1
316,302,303,311,1
316,303,301,310,1
317,304,300,310,1
317,305,298,309,1
315,307,298,309,1
310,308,299,309,1
305,309,300,309,1
300,309,300,309,1
296,306,297,308,1
293,303,295,306,1
291,299,293,305,1
290,296,293,304,1
290,295,295,304,1
292,299,300,305,1
294,305,307,307,1
298,313,313,309,1
301,318,316,309,1
302,322,319,310,1
302,323,321,309,1
301,323,323,309,1
301,321,322,309,1
300,319,319,308,1
299,316,314,307,1
299,314,308,305,1
299,311,303,304,1
300,309,300,302,1
302,308,301,302,1
304,309,302,304,1
306,311,303,305,1
307,311,304,306,1
310,312,304,307,1
314,313,304,307,1
316,313,304,307,1
317,313,303,306,1
315,312,302,306,1
310,312,302,307,1
306,313,303,309,1
301,313,304,310,1
297,312,305,311,1
295,311,306,312,1
296,310,308,312,1
298,309,309,311,1
301,307,309,310,1
301,305,309,309,1
299,305,308,308,1
297,304,306,307,1
294,302,304,305,1
292,299,302,303,1
291,296,299,302,1
289,292,296,302,1
289,287,292,303,1
290,285,289,304,1
293,287,290,304,1
295,293,292,306,1
297,301,297,307,1
298,308,300,308,1
299,314,303,308,1
299,317,304,309,1
299,319,305,310,1
298,319,305,311,1
298,318,305,311,1
298,315,305,311,1
299,313,305,312,1
299,312,306,312,1
300,313,308,312,1
301,315,309,312,1
300,315,311,311,1
300,314,311,310,1
301,313,312,310,1
302,311,312,310,1
302,310,311,309,1
304,308,309,309,1
307,306,308,309,1
311,306,308,309,1
315,307,308,309,1
320,308,309,309,1
322,309,309,309,1
322,309,307,308,1
318,309,306,305,1
311,307,304,301,1
304,303,301,297,1
298,299,299,295,1
295,298,298,295,1
294,299,300,298,1
294,303,304,301,1
294,305,309,304,1
294,306,313,306,1
293,305,316,306,1
293,304,317,307,1
294,304,317,308,1
297,304,317,309,1
300,305,316,310,1
305,306,313,311,1
309,305,310,310,1
312,304,306,310,1
314,302,303,310,1
314,300,301,310,1
311,299,301,311,1
305,297,300,311,1
297,296,301,311,1
291,297,303,311,1
289,299,306,312,1
288,303,308,312,1
289,306,309,312,1
290,308,308,310,1
290,310,306,309,1
290,310,302,307,1
291,309,298,305,1
291,309,297,304,1
292,310,297,304,1
293,313,300,305,1
294,313,303,306,1
294,312,304,307,1
294,310,305,307,1
294,308,306,307,1
293,306,306,306,1
293,304,305,305,1
293,305,305,304,1
294,306,305,305,1
297,309,305,304,1
298,312,305,305,1
301,316,304,307,1
304,318,304,310,1
306,319,304,312,1
306,318,304,312,1
305,314,303,311,1
302,310,300,310,1
300,305,298,309,1
298,302,298,309,1
296,301,301,308,1
296,303,306,309,1
297,305,311,309,1
297,308,315,309,1
297,309,317,307,1
297,310,318,305,1
298,310,317,303,1
299,312,316,302,1
301,314,314,301,1
304,316,313,301,1
306,318,312,303,1
308,319,311,305,1
309,318,309,307,1
310,315,307,308,1
309,310,305,308,1
307,306,305,307,1
304,303,304,307,1
299,300,304,307,1
293,297,303,309,1
288,294,303,310,1
283,292,303,310,1
281,291,305,311,1
281,291,306,311,1
282,291,308,310,1
284,293,310,309,1
285,297,313,309,1
288,301,315,309,1
290,307,315,309,1
291,311,314,309,1
293,315,312,309,1
293,317,310,309,1
293,317,308,309,1
294,317,306,309,1
294,316,305,309,1
295,315,305,309,1
297,315,306,310,1
297,315,307,310,1
298,314,309,310,1
297,310,311,308,1
297,307,312,306,1
295,304,313,305,1
294,301,312,306,1
293,300,311,306,1
292,300,310,306,1
294,302,308,307,1
296,306,305,307,1
297,309,304,306,1
297,313,302,306,1
298,315,301,306,1
298,315,301,305,1
298,314,301,305,1
299,312,300,304,1
299,310,299,304,1
298,311,300,304,1
298,312,300,304,1
297,313,302,305,1
296,313,304,307,1
295,311,304,308,1
292,307,303,309,1
289,301,301,308,1
285,296,298,306,1
285,293,296,306,1
287,292,295,305,1
291,294,295,305,1
294,297,296,305,1
295,299,296,306,1
296,300,296,306,1
297,300,297,306,1
299,302,300,306,1
302,305,302,305,1
304,307,303,304,1
304,306,303,304,1
303,304,303,303,1
300,301,304,303,1
298,299,305,303,1
297,300,307,303,1
299,303,310,303,1
301,307,313,304,1
303,311,313,305,1
302,312,312,306,1
298,313,311,306,1
295,314,310,308,1
293,315,310,310,1
294,316,311,312,1
296,317,311,313,1
298,317,311,314,1
301,316,311,314,1
305,315,310,314,1
307,315,309,314,1
309,313,309,313,1
308,311,309,313,1
305,309,310,312,1
300,308,310,312,1
295,307,310,311,1
292,306,309,310,1
290,306,310,308,1
290,306,310,308,1
290,306,311,308,1
290,307,312,309,1
290,309,311,310,1
291,310,311,311,1
292,311,310,312,1
293,309,309,312,1
293,306,308,312,1
293,303,307,311,1
293,299,306,309,1
293,294,305,308,1
293,290,304,308,1
294,285,303,308,1
296,282,302,308,1
298,280,299,306,1
298,281,297,305,1
298,287,299,305,1
297,297,303,306,1
295,308,307,306,1
293,316,309,307,1
289,319,311,306,1
287,317,312,307,1
287,313,313,308,1
290,309,315,310,1
294,306,314,312,1
300,306,313,313,1
306,307,312,315,1
311,310,311,315,1
315,311,311,314,1
315,312,310,313,1
314,311,309,312,1
314,311,307,311,1
313,311,306,310,1
311,310,305,310,1
306,310,304,309,1
300,309,303,308,1
294,306,302,306,1
290,305,302,304,1
287,304,303,303,1
286,305,305,303,1
286,307,307,305,1
286,308,308,307,1
287,308,309,309,1
287,307,309,310,1
288,306,309,311,1
289,306,309,311,1
290,305,308,311,1
291,305,305,311,1
292,304,302,310,1
293,302,299,309,1
293,300,296,308,1
294,299,295,307,1
296,300,296,307,1
298,302,299,307,1
300,305,302,309,1
300,307,306,311,1
300,309,308,313,1
297,312,312,314,1
295,315,314,316,1
294,317,316,317,1
293,318,316,317,1
292,317,315,316,1
290,315,313,314,1
289,313,311,312,1
289,313,308,310,1
289,313,305,309,1
290,313,304,309,1
291,313,303,310,1
292,313,303,311,1
293,312,305,313,1
294,312,306,314,1
294,311,307,314,1
294,311,306,315,1
294,311,305,315,1
294,310,303,315,1
293,309,301,315,1
292,305,299,314,1
291,300,297,313,1
289,293,292,312,1
287,287,288,310,1
285,283,284,309,1
284,284,283,308,1
283,287,285,308,1
283,291,288,307,1
284,295,293,308,1
288,300,300,309,1
294,306,307,311,1
300,312,313,314,1
306,316,318,317,1
311,319,322,320,1
312,320,324,323,1
309,320,324,324,1
306,318,322,323,1
304,316,320,320,1
302,314,318,317,1
300,312,315,314,1
298,310,312,310,1
296,308,307,306,1
293,307,302,304,1
291,306,299,303,1
291,305,297,303,1
290,303,296,304,1
290,301,296,305,1
290,297,296,306,1
291,295,297,308,1
292,295,300,308,1
294,295,303,307,1
295,297,305,307,1
297,299,306,308,1
297,300,306,308,1
297,299,305,309,1
298,299,305,310,1
300,298,305,311,1
301,298,305,312,1
303,297,306,312,1
305,296,306,313,1
305,297,307,313,1
305,299,308,313,1
304,302,310,313,1
302,306,311,312,1
302,310,310,311,1
303,312,310,311,1
304,316,312,312,1
305,319,315,313,1
307,322,319,313,1
308,323,321,313,1
307,322,320,311,1
305,319,318,310,1
301,315,315,309,1
298,313,310,308,1
295,310,307,307,1
294,307,305,306,1
293,304,303,305,1
292,301,303,303,1
291,298,302,303,1
292,295,301,304,1
291,293,301,304,1
292,291,301,306,1
292,291,301,306,1
293,294,301,307,1
295,297,300,309,1
298,301,301,310,1
301,305,301,312,1
305,309,302,312,1
310,313,303,313,1
314,314,303,312,1
315,314,304,312,1
315,314,304,312,1
310,314,305,311,1
303,313,306,310,1
297,311,307,310,1
292,307,307,309,1
289,303,307,308,1
287,300,306,307,1
286,299,306,306,1
284,299,305,306,1
283,300,304,306,1
283,301,304,306,1
284,303,303,305,1
284,303,303,305,1
285,301,303,305,1
286,299,303,305,1
287,298,304,305,1
290,297,305,306,1
294,299,305,305,1
298,303,306,306,1
301,308,308,306,1
303,313,309,306,1
304,317,311,307,1
303,319,312,307,1
303,319,312,308,1
303,319,311,307,1
302,318,310,306,1
302,317,308,305,1
302,317,305,302,1
302,317,303,301,1
301,317,303,300,1
299,318,305,300,1
297,319,308,300,1
293,318,311,301,1
289,317,313,303,1
287,315,313,304,1
285,312,312,305,1
285,310,311,307,1
286,308,309,308,1
287,306,307,308,1
288,304,305,307,1
288,303,304,305,1
289,302,304,304,1
290,303,304,304,1
290,302,304,304,1
291,301,302,305,1
292,299,300,306,1
294,299,300,308,1
296,300,303,312,1
298,300,306,314,1
300,300,308,316,1
303,301,312,317,1
305,304,315,317,1
306,309,317,316,1
304,313,319,315,1
300,316,320,314,1
297,318,319,312,1
293,318,317,309,1
292,317,315,307,1
291,315,313,304,1
292,311,311,304,1
293,307,309,303,1
293,303,306,303,1
293,300,303,303,1
292,298,302,303,1
291,299,301,303,1
292,299,300,303,1
293,300,298,304,1
294,302,298,305,1
294,302,299,307,1
295,303,302,308,1
296,305,305,309,1
298,307,308,309,1
298,307,310,309,1
299,307,311,309,1
299,305,310,310,1
300,302,308,311,1
301,299,305,311,1
300,298,304,311,1
298,300,305,311,1
297,302,306,310,1
296,304,306,310,1
296,304,306,310,1
295,303,304,311,1
295,302,301,311,1
294,301,299,310,1
292,302,297,309,1
291,304,296,308,1
290,308,297,308,1
289,312,299,308,1
289,313,302,309,1
289,313,304,309,1
289,311,304,309,1
289,310,304,308,1
290,309,305,308,1
290,310,307,308,1
291,310,311,307,1
292,311,315,307,1
292,310,317,306,1
293,309,318,306,1
294,309,317,306,1
294,309,315,305,1
294,310,313,303,1
293,309,310,302,1
292,308,308,302,1
292,307,306,302,1
293,306,303,303,1
294,304,299,304,1
295,302,297,304,1
295,300,296,305,1
295,301,299,305,1
295,302,303,306,1
296,304,305,306,1
297,305,306,306,1
299,304,306,307,1
302,304,305,309,1
304,303,304,310,1
306,303,305,310,1
306,303,305,311,1
305,304,307,312,1
304,305,310,312,1
302,306,313,312,1
300,306,315,312,1
297,304,315,311,1
296,302,313,309,1
294,300,310,308,1
292,299,308,308,1
291,300,307,307,1
292,304,307,308,1
294,309,306,309,1
296,313,306,311,1
298,314,304,313,1
300,313,301,313,1
301,310,296,312,1
302,305,290,310,1
300,301,284,308,1
297,298,281,306,1
294,296,281,305,1
295,297,283,306,1
298,299,287,306,1
302,304,292,308,1
305,309,299,310,1
305,313,304,311,1
304,316,308,311,1
301,320,312,311,1
299,324,313,311,1
294,327,313,310,1
290,329,312,309,1
286,330,310,308,1
285,327,309,308,1
285,324,309,309,1
286,320,309,310,1
286,316,310,311,1
287,313,311,312,1
288,311,312,314,1
290,309,313,315,1
292,309,313,316,1
293,308,312,317,1
294,308,310,316,1
294,308,306,314,1
294,308,304,312,1
294,307,302,309,1
293,305,303,306,1
292,301,302,305,1
292,298,301,305,1
292,296,298,306,1
291,296,296,307,1
292,299,296,309,1
293,302,298,312,1
295,305,300,314,1
298,308,301,315,1
299,308,301,315,1
300,308,301,315,1
300,310,301,315,1
298,310,301,314,1
296,309,300,313,1
295,307,301,312,1
295,309,303,312,1
295,312,306,311,1
297,314,309,312,1
297,315,310,312,1
297,314,310,311,1
297,312,309,311,1
296,310,307,309,1
295,309,307,309,1
295,310,307,310,1
295,312,309,310,1
296,313,311,310,1
298,314,312,310,1
302,315,313,311,1
305,315,314,312,1
307,315,315,313,1
308,313,314,313,1
306,310,312,312,1
303,306,309,311,1
301,303,307,310,1
302,302,305,310,1
304,302,304,310,1
304,303,303,310,1
304,303,303,310,1
302,302,303,310,1
298,302,303,310,1
294,303,303,309,1
288,305,304,307,1
284,308,305,307,1
283,311,307,307,1
282,313,310,307,1
282,314,311,307,1
284,315,312,307,1
285,315,313,307,1
287,314,313,308,1
287,313,312,308,1
288,311,311,308,1
287,309,309,308,1
286,308,309,308,1
286,307,309,308,1
286,306,310,307,1
287,305,311,307,1
288,305,311,307,1
289,306,311,306,1
290,306,309,306,1
290,306,307,307,1
289,305,306,308,1
289,304,306,308,1
288,302,305,309,1
286,298,304,310,1
287,295,303,311,1
288,292,302,312,1
290,289,301,313,1
291,285,299,313,1
292,281,297,313,1
294,281,297,313,1
296,285,299,313,1
297,292,302,313,1
298,300,305,314,1
299,307,307,314,1
299,312,309,314,1
300,316,309,314,1
299,318,308,313,1
297,318,306,311,1
294,317,304,309,1
292,314,303,308,1
291,311,302,308,1
291,309,304,309,1
293,306,307,311,1
295,304,310,313,1
296,303,314,315,1
296,302,316,316,1
296,302,316,315,1
296,302,315,314,1
296,302,313,312,1
296,303,312,311,1
297,303,310,309,1
299,303,309,308,1
300,303,309,308,1
300,304,309,308,1
299,305,311,309,1
298,306,312,311,1
298,305,312,312,1
298,303,311,313,1
300,303,310,314,1
303,303,310,316,1
308,305,311,317,1
313,307,313,318,1
318,308,314,318,1
321,311,314,318,1
322,314,313,318,1
320,316,313,317,1
316,317,313,317,1
308,317,313,317,1
299,317,313,316,1
289,316,314,314,1
281,315,315,312,1
276,313,316,311,1
275,310,316,311,1
276,307,315,312,1
278,305,313,312,1
280,303,312,312,1
283,301,311,313,1
284,299,312,313,1
287,299,314,313,1
290,300,316,313,1
293,301,316,313,1
296,302,315,313,1
297,303,314,313,1
298,304,312,312,1
298,306,310,312,1
297,308,309,313,1
296,309,309,313,1
295,308,309,313,1
295,308,309,313,1
295,306,307,312,1
295,304,306,311,1
295,300,303,310,1
296,298,301,310,1
296,296,299,309,1
297,294,299,308,1
298,293,299,308,1
297,294,301,307,1
296,295,304,306,1
294,297,310,305,1
292,299,316,305,1
291,301,321,305,1
291,306,325,305,1
291,310,327,306,1
291,314,326,306,1
292,315,322,307,1
293,317,318,308,1
295,317,315,309,1
296,316,313,310,1
296,315,312,310,1
297,313,313,311,1
297,312,315,311,1
296,310,317,311,1
295,309,317,311,1
293,308,315,311,1
292,309,312,310,1
291,310,309,310,1
292,310,307,309,1
294,309,304,308,1
295,308,302,307,1
297,306,300,306,1
300,306,299,306,1
303,307,299,306,1
306,307,298,306,1
308,308,299,307,1
308,308,302,308,1
305,309,304,309,1
301,309,307,310,1
298,309,311,311,1
296,310,314,311,1
296,310,316,310,1
297,311,318,310,1
299,313,320,310,1
302,315,321,310,1
302,316,322,310,1
300,317,323,310,1
296,317,323,308,1
290,315,321,306,1
286,311,318,304,1
284,309,314,303,1
284,306,311,302,1
288,304,308,303,1
292,302,306,304,1
295,300,304,307,1
297,300,303,309,1
298,299,302,310,1
299,299,301,310,1
298,298,300,310,1
297,296,300,310,1
294,295,301,310,1
292,297,303,310,1
290,300,305,310,1
289,304,308,310,1
289,306,309,310,1
289,306,308,309,1
289,304,306,307,1
289,303,304,305,1
290,304,302,304,1
292,304,301,304,1
294,304,299,304,1
295,302,297,304,1
293,299,292,304,1
291,294,288,303,1
289,292,287,303,1
288,294,289,303,1
289,299,294,304,1
292,305,299,304,1
293,309,303,304,1
293,310,307,304,1
293,310,310,304,1
293,309,313,305,1
293,308,315,306,1
295,309,318,307,1
297,310,321,308,1
299,311,324,310,1
301,312,327,311,1
302,312,328,313,1
303,312,329,313,1
302,312,328,313,1
302,311,324,313,1
301,309,320,313,1
300,308,316,312,1
298,306,313,311,1
296,306,311,310,1
294,306,309,310,1
293,306,309,311,1
295,307,308,311,1
297,308,308,311,1
299,309,307,310,1
301,308,307,309,1
301,307,307,308,1
299,306,308,307,1
297,306,309,306,1
296,305,310,306,1
295,304,310,305,1
294,304,312,304,1
293,305,313,304,1
293,306,314,305,1
294,308,314,305,1
294,309,313,304,1
296,309,312,304,1
298,309,311,305,1
302,309,311,306,1
304,308,310,308,1
305,307,310,308,1
302,307,309,309,1
298,308,309,308,1
295,309,309,309,1
294,309,308,310,1
294,310,308,309,1
294,310,307,309,1
294,309,306,308,1
293,306,305,307,1
292,303,303,306,1
290,299,300,307,1
290,295,298,308,1
291,295,298,309,1
293,297,300,311,1
296,301,303,311,1
297,305,307,311,1
297,308,310,311,1
298,310,311,311,1
298,309,311,310,1
297,308,308,309,1
296,307,307,308,1
295,306,305,307,1
294,307,304,307,1
294,307,303,307,1
296,308,304,309,1
298,309,307,311,1
300,312,310,314,1
299,313,313,315,1
297,314,316,316,1
296,315,318,317,1
295,317,321,316,1
295,317,321,315,1
295,318,320,314,1
295,318,318,313,1
295,317,315,312,1
295,316,312,310,1
294,316,310,309,1
294,317,309,308,1
294,318,307,306,1
294,317,306,304,1
294,315,305,303,1
294,312,304,302,1
293,308,302,302,1
292,305,298,301,1
291,301,295,302,1
292,298,294,303,1
296,298,293,305,1
302,300,296,307,1
309,304,299,310,1
315,308,303,313,1
320,310,306,314,1
324,310,308,315,1
324,309,310,315,1
318,308,310,314,1
309,308,310,312,1
300,308,310,311,1
295,309,310,309,1
292,310,310,309,1
291,311,311,308,1
290,312,311,307,1
289,313,313,306,1
289,314,315,306,1
288,314,316,305,1
288,315,316,305,1
288,315,315,304,1
287,313,312,303,1
287,311,309,301,1
287,308,306,300,1
287,307,304,299,1
287,305,303,298,1
288,304,302,299,1
291,304,301,301,1
295,305,302,303,1
300,305,301,305,1
305,305,300,305,1
307,304,299,306,1
309,303,299,306,1
308,302,300,307,1
305,302,301,307,1
300,303,301,307,1
296,305,301,307,1
293,307,301,307,1
293,309,300,307,1
292,311,298,307,1
292,311,297,306,1
292,311,296,306,1
292,310,296,306,1
292,309,297,306,1
294,308,298,307,1
295,307,300,307,1
297,307,303,307,1
299,307,306,307,1
301,307,308,307,1
302,307,310,308,1
303,308,311,308,1
303,308,311,308,1
303,309,312,308,1
302,309,312,308,1
301,309,312,308,1
299,310,313,309,1
298,310,312,310,1
296,310,312,311,1
295,309,312,312,1
296,308,312,313,1
296,306,312,313,1
296,304,310,312,1
295,302,307,311,1
294,299,304,310,1
293,297,302,310,1
292,294,300,310,1
292,291,300,310,1
291,288,301,310,1
291,286,301,311,1
291,286,302,311,1
291,287,303,311,1
291,290,305,311,1
292,294,307,311,1
293,298,309,310,1
293,301,312,310,1
293,303,314,309,1
292,303,315,307,1
291,303,314,306,1
292,305,312,306,1
295,310,310,307,1
298,314,309,309,1
301,317,307,310,1
303,318,307,310,1
305,318,306,310,1
307,318,306,311,1
307,317,307,312,1
306,317,309,313,1
304,316,309,313,1
303,314,309,312,1
304,313,309,312,1
305,311,307,311,1
306,310,306,311,1
306,309,304,311,1
303,309,303,311,1
300,308,300,310,1
296,306,296,309,1
292,303,292,307,1
290,299,288,306,1
289,294,285,306,1
288,291,284,307,1
288,290,286,308,1
287,291,290,309,1
287,295,295,309,1
287,301,301,309,1
287,306,307,310,1
289,309,311,310,1
293,310,313,311,1
296,308,314,311,1
299,305,315,312,1
301,304,317,313,1
301,305,319,315,1
300,307,320,315,1
298,309,321,315,1
297,311,320,314,1
297,313,319,313,1
297,315,317,312,1
296,318,314,310,1
295,320,312,309,1
295,321,308,308,1
293,321,307,308,1
292,320,305,309,1
293,319,305,309,1
293,317,304,309,1
295,316,304,309,1
296,313,304,310,1
296,310,304,310,1
296,306,302,311,1
296,301,300,312,1
295,294,296,312,1
294,288,294,313,1
293,283,292,313,1
293,283,293,313,1
293,287,296,313,1
294,294,299,313,1
296,301,304,313,1
297,308,307,312,1
298,313,309,311,1
297,317,310,311,1
297,319,310,310,1
295,319,309,309,1
295,318,308,308,1
295,317,308,307,1
296,316,309,308,1
298,316,309,309,1
298,314,309,310,1
298,312,308,311,1
297,311,308,311,1
297,310,307,311,1
299,309,308,311,1
301,309,307,313,1
303,309,307,314,1
302,309,307,314,1
299,308,307,314,1
297,307,307,313,1
294,305,307,312,1
292,302,307,311,1
290,300,306,309,1
289,299,304,308,1
289,297,302,307,1
289,296,299,306,1
290,294,298,305,1
291,294,298,305,1
292,294,297,305,1
292,295,298,305,1
294,299,299,305,1
294,303,302,305,1
294,306,305,305,1
294,308,306,305,1
294,307,306,306,1
293,306,306,307,1
294,304,306,307,1
294,302,305,306,1
293,300,305,305,1
294,299,305,306,1
294,300,304,305,1
294,300,305,306,1
295,301,308,307,1
296,302,309,307,1
296,301,309,307,1
296,300,308,306,1
296,299,306,305,1
296,301,305,305,1
297,305,307,306,1
299,308,310,308,1
301,311,312,310,1
301,313,314,311,1
300,313,313,312,1
297,312,313,312,1
294,310,313,312,1
291,308,313,310,1
289,306,313,309,1
287,306,311,308,1
285,306,309,307,1
285,305,307,307,1
285,305,306,306,1
284,305,305,305,1
283,305,304,304,1
282,305,302,303,1
281,306,301,303,1
282,305,299,303,1
283,305,298,304,1
285,306,299,305,1
286,307,301,306,1
288,308,304,308,1
291,309,307,310,1
294,310,311,312,1
297,311,313,313,1
298,312,314,314,1
300,312,315,315,1
302,311,315,315,1
303,310,316,315,1
305,308,316,314,1
304,307,315,314,1
301,305,315,313,1
296,301,313,312,1
290,298,311,311,1
285,296,309,311,1
282,294,307,310,1
283,294,305,309,1
286,295,302,309,1
288,297,301,308,1
290,299,300,306,1
291,302,301,305,1
291,304,304,305,1
292,305,305,306,1
293,303,305,305,1
293,301,305,305,1
294,299,304,305,1
293,297,303,304,1
293,295,302,302,1
293,294,301,299,1
292,296,303,299,1
291,301,307,300,1
292,306,311,303,1
294,309,315,306,1
297,312,319,309,1
300,314,321,312,1
301,313,320,313,1
299,312,316,313,1
296,309,312,313,1
295,308,308,313,1
296,307,306,313,1
297,308,304,313,1
298,310,302,312,1
300,312,301,312,1
300,312,301,310,1
299,312,301,309,1
296,312,302,308,1
292,313,303,307,1
290,314,305,307,1
289,316,308,307,1
290,317,310,308,1
292,318,312,307,1
293,317,312,307,1
294,316,311,306,1
294,315,309,306,1
294,315,308,307,1
294,315,307,307,1
294,317,308,307,1
294,318,310,307,1
295,317,312,308,1
295,316,313,308,1
294,313,313,308,1
294,309,312,308,1
294,307,311,308,1
295,307,310,308,1
296,308,310,307,1
296,310,311,306,1
297,312,312,308,1
297,312,313,310,1
298,311,312,313,1
298,307,311,315,1
297,303,309,316,1
296,298,307,316,1
296,295,304,314,1
297,293,302,314,1
301,293,301,313,1
304,296,300,313,1
307,299,301,313,1
308,302,302,313,1
306,304,303,313,1
303,307,304,312,1
299,309,305,310,1
295,308,305,308,1
290,306,305,306,1
287,303,304,304,1
285,300,303,303,1
284,299,303,303,1
284,299,304,303,1
284,302,306,302,1
286,304,306,301,1
290,305,305,301,1
294,305,305,301,1
298,304,305,301,1
301,303,305,301,1
302,303,305,300,1
302,304,304,301,1
300,307,304,303,1
299,310,305,304,1
299,314,307,306,1
299,317,309,308,1
299,319,310,308,1
299,319,309,307,1
298,318,305,306,1
296,315,302,304,1
294,310,298,303,1
293,306,294,303,1
292,303,292,303,1
294,302,292,303,1
297,304,294,305,1
300,306,299,306,1
305,309,303,308,1
309,311,308,309,1
312,312,311,310,1
312,314,312,311,1
309,315,312,311,1
306,316,313,311,1
302,318,313,311,1
298,320,313,312,1
294,321,313,313,1
290,321,312,312,1
288,320,311,312,1
286,318,310,311,1
287,315,309,311,1
288,313,309,310,1
288,311,310,310,1
290,310,310,310,1
292,310,310,311,1
295,310,309,311,1
297,310,307,312,1
299,309,304,312,1
300,310,302,312,1
301,311,302,311,1
301,312,303,311,1
301,312,304,311,1
300,311,305,312,1
299,310,306,311,1
298,309,307,310,1
296,307,305,309,1
294,305,303,309,1
294,301,300,309,1
293,296,297,308,1
293,293,295,307,1
294,294,295,306,1
296,298,296,307,1
298,301,299,307,1
302,304,301,307,1
304,305,303,306,1
305,304,304,305,1
305,304,304,302,1
301,303,305,300,1
296,304,306,299,1
292,306,309,300,1
291,308,310,301,1
295,309,311,303,1
301,310,312,305,1
306,310,312,307,1
310,309,312,309,1
312,307,312,310,1
311,305,310,311,1
308,304,308,312,1
302,305,306,311,1
297,306,305,311,1
293,305,304,311,1
290,304,303,310,1
290,302,303,309,1
290,301,302,309,1
291,300,301,308,1
292,299,300,307,1
294,296,299,306,1
295,295,298,306,1
296,296,299,306,1
297,299,301,305,1
298,302,303,305,1
298,304,305,305,1
298,305,305,304,1
296,304,303,303,1
295,302,302,303,1
296,302,303,303,1
298,304,306,304,1
301,308,310,305,1
305,312,314,307,1
309,316,317,310,1
312,318,319,311,1
311,320,321,312,1
308,321,321,312,1
303,322,321,310,1
296,321,320,308,1
293,319,317,306,1
292,316,312,304,1
294,310,308,304,1
296,306,306,304,1
298,302,307,305,1
299,300,309,305,1
298,298,310,306,1
297,296,311,307,1
295,296,311,306,1
294,296,310,306,1
294,298,311,307,1
293,301,313,306,1
293,303,311,304,1
292,303,308,303,1
292,303,304,302,1
292,303,303,302,1
294,304,302,303,1
296,308,303,305,1
297,310,304,307,1
297,311,305,309,1
298,310,305,309,1
299,308,306,310,1
302,306,306,310,1
303,305,307,309,1
306,304,308,309,1
309,306,310,309,1
312,308,312,308,1
314,311,314,308,1
313,313,314,307,1
310,314,314,306,1
307,313,312,305,1
302,312,309,304,1
298,310,306,304,1
295,309,306,304,1
294,309,306,305,1
294,309,305,306,1
294,308,305,306,1
294,305,304,307,1
294,301,302,306,1
293,297,300,306,1
293,293,298,305,1
294,290,299,304,1
294,290,300,303,1
295,293,304,303,1
295,296,309,302,1
295,300,314,302,1
296,304,317,301,1
297,306,317,301,1
296,308,315,300,1
296,309,312,300,1
296,309,308,301,1
296,309,305,302,1
296,308,302,302,1
297,308,301,304,1
298,308,302,305,1
298,309,305,306,1
298,311,309,306,1
298,312,311,306,1
298,312,311,306,1
300,312,310,306,1
303,313,308,308,1
305,313,306,308,1
304,314,306,308,1
301,314,307,307,1
297,313,307,305,1
294,309,307,304,1
292,304,307,303,1
291,301,306,304,1
289,300,304,304,1
287,299,303,304,1
285,299,301,305,1
283,299,299,305,1
284,301,299,306,1
286,302,299,306,1
291,304,299,306,1
294,304,300,305,1
296,302,299,305,1
298,298,297,303,1
299,294,295,302,1
303,290,294,302,1
308,288,295,303,1
312,288,298,303,1
314,289,300,303,1
312,290,303,303,1
307,291,305,303,1
301,294,307,304,1
296,298,309,305,1
291,301,310,307,1
289,304,310,308,1
288,304,310,309,1
288,304,310,310,1
288,304,310,311,1
289,305,311,312,1
290,306,311,313,1
291,308,310,314,1
293,310,309,314,1
294,314,306,313,1
295,316,303,312,1
295,317,300,310,1
295,315,297,308,1
296,312,295,308,1
296,309,294,308,1
296,308,294,308,1
297,308,297,308,1
297,308,300,308,1
297,307,304,307,1
296,306,309,307,1
295,306,313,307,1
295,307,314,307,1
294,308,312,305,1
295,308,310,305,1
294,308,308,304,1
294,308,307,305,1
293,308,307,305,1
293,308,309,306,1
292,310,311,307,1
293,312,314,308,1
293,314,316,309,1
293,315,319,309,1
294,316,320,310,1
295,315,320,310,1
295,314,319,310,1
295,312,318,309,1
295,309,317,308,1
296,307,318,307,1
299,305,319,307,1
302,303,320,308,1
304,303,319,308,1
305,304,318,309,1
307,305,318,310,1
309,308,318,310,1
310,309,317,309,1
310,309,315,308,1
308,309,314,307,1
305,308,312,307,1
302,307,310,307,1
299,304,306,308,1
297,302,303,309,1
296,301,301,310,1
297,299,300,311,1
300,299,301,312,1
303,300,303,313,1
306,303,305,315,1
307,307,306,314,1
306,310,306,313,1
305,312,305,312,1
304,312,304,310,1
303,311,301,308,1
302,310,299,305,1
301,308,296,304,1
299,306,294,302,1
297,305,294,301,1
294,305,295,301,1
290,306,297,301,1
287,306,298,302,1
283,306,299,304,1
282,307,300,306,1
282,309,300,308,1
284,311,302,309,1
287,311,302,309,1
291,310,302,308,1
294,308,301,308,1
296,307,302,309,1
297,308,303,309,1
298,310,306,310,1
298,313,308,309,1
297,314,310,309,1
296,314,310,308,1
294,314,310,308,1
292,314,309,307,1
291,313,308,306,1
289,311,307,305,1
288,309,305,305,1
287,307,304,305,1
286,306,304,306,1
286,306,304,305,1
286,307,304,305,1
287,310,305,305,1
289,313,306,306,1
292,315,307,307,1
295,314,307,306,1
299,310,306,305,1
302,305,306,306,1
304,301,308,306,1
303,299,312,308,1
302,300,316,309,1
301,303,318,311,1
301,309,318,312,1
300,315,318,312,1
300,318,317,311,1
299,320,315,310,1
299,320,313,308,1
300,319,313,308,1
301,318,313,308,1
304,316,313,308,1
304,314,311,308,1
304,312,308,308,1
301,311,304,308,1
297,310,301,308,1
294,310,300,308,1
292,310,299,308,1
291,309,298,308,1
289,308,298,307,1
288,305,297,306,1
287,303,297,306,1
286,302,298,305,1
286,300,299,306,1
287,298,300,306,1
288,297,301,306,1
290,296,301,307,1
291,297,301,308,1
292,299,302,309,1
294,301,302,311,1
295,305,304,312,1
296,309,305,312,1
297,313,306,311,1
298,316,306,311,1
301,318,307,311,1
304,319,308,311,1
308,318,309,311,1
309,317,309,311,1
307,315,309,311,1
304,313,309,310,1
301,311,308,309,1
300,309,307,309,1
299,308,306,307,1
299,307,304,306,1
299,306,302,304,1
299,306,300,303,1
299,306,298,303,1
297,308,298,303,1
294,312,300,302,1
290,316,301,302,1
285,320,302,302,1
282,321,303,302,1
280,322,303,301,1
279,321,304,300,1
279,319,304,299,1
279,316,304,299,1
281,312,304,301,1
286,308,304,302,1
290,304,304,302,1
295,302,303,303,1
300,300,303,305,1
304,299,305,307,1
304,299,307,309,1
300,302,310,310,1
296,305,312,311,1
292,307,313,312,1
289,308,312,312,1
287,308,309,312,1
285,307,306,311,1
283,306,304,310,1
282,305,303,309,1
281,305,303,308,1
280,306,303,307,1
281,307,303,306,1
282,308,302,306,1
284,307,302,306,1
286,305,301,307,1
287,304,303,308,1
290,303,307,309,1
295,302,311,310,1
301,302,314,311,1
306,302,313,311,1
310,304,310,311,1
311,305,307,310,1
309,305,304,309,1
304,305,302,307,1
298,307,301,305,1
294,310,303,303,1
291,313,305,303,1
291,316,308,304,1
291,318,309,305,1
292,318,308,306,1
292,317,306,305,1
292,313,304,305,1
291,309,302,304,1
291,306,301,304,1
291,302,300,304,1
292,300,301,305,1
293,298,303,305,1
296,297,304,305,1
297,296,304,306,1
299,295,303,306,1
300,295,303,305,1
301,296,302,305,1
302,297,302,306,1
305,301,303,306,1
308,305,303,307,1
311,309,303,308,1
313,312,303,309,1
314,314,301,309,1
314,318,301,310,1
312,321,302,310,1
309,325,303,309,1
303,327,304,308,1
298,326,305,307,1
294,324,306,307,1
291,321,307,307,1
289,317,307,307,1
288,312,306,306,1
287,306,305,305,1
287,300,304,304,1
289,297,304,304,1
290,297,306,304,1
293,298,309,304,1
295,299,311,304,1
295,299,312,304,1
294,299,310,303,1
292,297,306,302,1
290,295,302,301,1
289,294,298,301,1
289,295,298,302,1
291,298,301,304,1
292,302,305,305,1
293,305,310,307,1
293,306,313,308,1
294,308,315,308,1
294,308,315,309,1
295,309,315,309,1
296,309,314,309,1
297,309,312,309,1
298,309,311,309,1
300,308,309,309,1
301,308,308,308,1
301,306,307,308,1
299,305,308,309,1
297,304,309,309,1
296,304,309,309,1
297,305,310,309,1
301,308,311,310,1
306,311,312,311,1
309,313,315,312,1
309,314,318,312,1
305,313,318,312,1
299,311,316,311,1
294,310,313,310,1
290,308,310,309,1
288,307,308,308,1
287,307,308,308,1
286,309,309,308,1
288,310,311,309,1
290,311,311,309,1
294,310,310,310,1
298,307,307,310,1
301,303,305,309,1
303,300,303,310,1
304,296,301,310,1
303,294,301,310,1
299,293,301,310,1
294,295,302,310,1
290,298,304,310,1
288,302,305,309,1
288,306,307,309,1
290,309,309,309,1
293,311,309,307,1
294,310,309,305,1
295,308,308,304,1
294,306,308,303,1
293,304,306,303,1
290,301,303,303,1
288,298,300,304,1
287,295,298,306,1
287,294,297,309,1
288,295,297,311,1
290,297,299,313,1
291,300,302,313,1
291,303,304,313,1
291,305,306,312,1
290,307,306,312,1
290,309,306,312,1
291,312,307,312,1
291,314,307,313,1
292,315,308,312,1
291,314,308,312,1
290,311,307,310,1
289,307,306,309,1
289,303,304,309,1
289,300,302,308,1
291,299,302,308,1
293,301,303,307,1
296,305,306,306,1
298,309,308,306,1
300,314,309,305,1
300,317,309,304,1
299,319,309,304,1
297,320,308,304,1
296,320,307,304,1
296,319,308,305,1
297,317,307,306,1
298,315,306,307,1
298,313,305,307,1
297,310,303,306,1
295,307,299,303,1
293,305,297,301,1
291,303,294,299,1
289,301,293,299,1
289,298,294,300,1
291,297,295,303,1
293,297,298,305,1
295,297,302,307,1
296,299,306,307,1
296,302,310,309,1
297,305,312,310,1
299,307,314,311,1
300,307,315,311,1
302,307,314,311,1
304,307,314,311,1
303,308,313,311,1
301,309,312,310,1
298,308,311,311,1
295,308,309,311,1
293,307,309,311,1
293,308,310,311,1
294,310,311,311,1
297,312,312,311,1
299,315,314,310,1
301,317,315,309,1
301,318,314,308,1
298,318,314,306,1
295,315,314,306,1
294,310,313,305,1
294,306,313,305,1
296,303,315,306,1
298,302,316,307,1
299,303,316,308,1
300,304,314,308,1
300,306,312,308,1
300,306,309,307,1
298,305,304,305,1
295,302,300,303,1
292,300,296,302,1
289,298,294,301,1
287,297,293,300,1
286,298,294,301,1
288,301,297,302,1
291,304,300,303,1
294,304,301,303,1
296,303,301,304,1
298,303,301,304,1
298,303,300,305,1
298,302,299,305,1
296,301,298,306,1
294,301,299,306,1
292,304,304,307,1
291,307,309,309,1
291,310,314,310,1
292,312,317,311,1
293,312,317,312,1
293,312,317,311,1
293,311,315,311,1
294,309,313,310,1
294,308,310,309,1
294,306,307,309,1
294,305,306,308,1
295,305,306,307,1
295,306,306,306,1
296,308,308,306,1
297,308,310,306,1
297,309,311,305,1
297,308,310,304,1
296,306,307,303,1
294,303,304,303,1
291,298,300,303,1
288,295,296,302,1
287,292,294,301,1
288,292,294,302,1
291,296,297,304,1
296,301,301,306,1
299,307,304,307,1
300,311,306,308,1
300,314,307,308,1
298,315,307,307,1
298,313,307,306,1
300,311,309,306,1
306,309,311,308,1
313,309,313,310,1
317,309,315,311,1
316,309,315,311,1
309,309,314,310,1
301,310,314,308,1
295,311,313,306,1
291,311,312,305,1
290,310,311,304,1
291,308,310,305,1
292,307,309,306,1
294,307,308,308,1
295,306,306,310,1
297,306,304,311,1
299,306,304,312,1
300,307,305,313,1
300,309,306,313,1
299,309,306,312,1
298,309,305,312,1
297,306,304,311,1
295,302,301,310,1
292,295,298,309,1
289,289,298,308,1
288,286,299,307,1
288,286,302,306,1
289,288,305,306,1
291,291,307,306,1
292,295,307,306,1
293,298,307,306,1
294,302,306,305,1
296,307,306,304,1
298,311,307,304,1
299,315,309,304,1
301,317,310,305,1
301,319,311,305,1
299,319,311,304,1
298,319,312,303,1
297,318,312,302,1
296,317,312,302,1
295,317,313,302,1
294,317,315,304,1
294,317,316,306,1
294,317,318,307,1
295,316,319,309,1
295,315,321,311,1
296,314,321,313,1
297,314,321,314,1
297,314,319,314,1
298,313,316,314,1
298,312,312,312,1
297,310,308,310,1
297,308,305,308,1
295,307,303,305,1
295,305,302,303,1
295,304,303,302,1
294,302,304,300,1
293,301,303,298,1
293,299,300,297,1
295,297,296,297,1
296,297,293,298,1
297,297,294,300,1
297,299,296,303,1
295,302,300,305,1
294,305,305,307,1
296,307,309,309,1
300,307,312,312,1
305,307,313,313,1
308,308,313,313,1
310,309,312,313,1
309,311,311,313,1
307,312,310,312,1
303,312,308,311,1
299,313,306,310,1
296,314,305,309,1
292,317,306,309,1
289,318,307,308,1
286,319,307,308,1
284,319,307,308,1
283,319,306,309,1
284,316,305,309,1
285,314,304,310,1
285,313,304,310,1
287,311,304,310,1
289,311,303,310,1
292,310,303,310,1
296,310,303,311,1
300,310,302,311,1
304,309,301,312,1
305,305,299,312,1
304,299,296,311,1
302,293,293,309,1
298,288,292,308,1
294,286,293,306,1
291,288,296,305,1
289,295,301,305,1
289,305,307,305,1
289,314,312,306,1
290,322,313,306,1
291,324,312,307,1
291,324,311,308,1
291,323,311,308,1
291,321,312,308,1
291,319,312,307,1
291,318,312,307,1
292,316,312,308,1
294,315,312,310,1
296,314,311,312,1
299,313,311,313,1
301,313,310,314,1
303,313,311,314,1
304,312,311,314,1
304,311,310,313,1
304,310,308,313,1
303,307,305,312,1
301,304,302,310,1
299,302,299,308,1
297,301,297,306,1
295,302,298,305,1
296,304,300,305,1
298,305,303,307,1
301,305,307,308,1
304,304,311,310,1
307,303,314,312,1
310,303,316,314,1
312,305,316,314,1
311,309,316,313,1
307,312,315,311,1
302,315,314,309,1
299,317,314,307,1
297,318,312,307,1
296,319,308,307,1
295,318,305,307,1
295,316,303,308,1
293,314,302,309,1
292,312,301,308,1
291,310,300,307,1
289,309,300,306,1
288,309,300,306,1
288,308,301,306,1
290,308,302,306,1
293,307,303,306,1
299,306,304,307,1
306,307,304,307,1
312,308,303,308,1
316,307,301,308,1
316,306,300,308,1
313,303,299,309,1
307,300,299,310,1
301,296,300,311,1
296,295,301,311,1
293,295,302,311,1
292,297,303,311,1
294,298,304,312,1
297,299,305,313,1
300,299,304,314,1
302,298,302,314,1
301,295,300,314,1
300,292,297,313,1
297,292,297,312,1
297,296,299,312,1
297,300,301,311,1
297,303,304,311,1
298,307,307,311,1
299,312,309,311,1
300,314,310,311,1
301,316,311,312,1
302,316,312,313,1
302,316,311,313,1
303,316,311,313,1
303,316,309,312,1
303,316,308,311,1
302,316,307,311,1
303,317,306,310,1
304,316,306,310,1
305,313,307,308,1
305,311,308,307,1
307,307,310,306,1
307,304,309,306,1
307,301,306,305,1
305,299,301,304,1
303,297,297,304,1
300,296,294,304,1
298,297,295,304,1
298,299,297,306,1
299,303,300,307,1
300,307,303,307,1
303,310,305,308,1
306,312,306,308,1
309,313,307,308,1
312,313,308,309,1
313,314,308,310,1
312,314,308,310,1
310,316,308,310,1
306,318,309,309,1
303,319,309,308,1
299,319,308,308,1
296,318,308,308,1
295,317,308,308,1
295,314,306,308,1
293,311,304,306,1
292,308,301,305,1
290,306,299,304,1
290,304,298,302,1
291,303,298,301,1
292,302,297,299,1
294,301,296,298,1
296,300,295,297,1
297,300,296,296,1
299,300,298,297,1
301,303,301,299,1
302,306,304,302,1
303,308,306,305,1
303,309,308,308,1
302,310,309,310,1
299,309,308,311,1
296,308,307,311,1
294,308,305,310,1
293,309,303,310,1
292,310,299,309,1
291,309,296,307,1
290,307,292,306,1
290,305,290,305,1
290,304,289,304,1
291,301,290,303,1
292,298,290,303,1
293,298,293,304,1
296,300,298,306,1
300,306,303,309,1
304,312,306,311,1
308,316,309,313,1
311,319,311,314,1
315,322,312,314,1
317,322,313,313,1
316,322,312,312,1
313,322,312,311,1
309,321,310,309,1
302,319,307,307,1
296,317,307,306,1
293,316,309,307,1
291,315,312,308,1
290,312,314,310,1
290,309,313,311,1
290,305,310,311,1
290,302,306,311,1
290,301,304,310,1
291,300,302,310,1
292,300,303,310,1
293,301,304,309,1
294,301,304,309,1
294,302,302,308,1
294,302,300,308,1
294,301,298,307,1
294,302,296,307,1
294,303,296,307,1
294,305,297,308,1
294,308,299,309,1
295,309,302,309,1
296,310,304,309,1
298,309,307,308,1
301,308,308,308,1
304,307,308,308,1
306,307,308,307,1
306,306,307,306,1
305,306,307,305,1
303,305,306,305,1
301,304,306,306,1
298,304,306,308,1
296,305,306,309,1
294,305,305,310,1
292,304,303,310,1
291,301,301,309,1
291,296,298,309,1
291,292,297,308,1
291,290,296,307,1
291,288,296,307,1
291,288,297,307,1
292,291,297,307,1
293,294,299,307,1
294,298,301,308,1
294,302,303,309,1
294,306,306,310,1
294,310,309,310,1
293,312,311,310,1
292,313,311,310,1
291,312,310,310,1
292,309,309,311,1
293,303,306,311,1
296,296,304,310,1
301,291,303,311,1
306,290,304,311,1
312,294,307,313,1
317,299,311,315,1
319,305,316,317,1
318,311,318,318,1
312,316,318,318,1
304,319,317,317,1
298,321,313,315,1
295,322,311,313,1
293,323,309,312,1
292,322,307,311,1
291,320,305,310,1
291,318,304,309,1
291,313,304,309,1
290,308,304,309,1
289,303,303,308,1
287,300,301,309,1
287,300,300,309,1
289,302,299,310,1
291,306,299,312,1
294,311,301,313,1
296,315,304,314,1
298,319,307,315,1
298,320,311,315,1
299,321,313,315,1
299,320,313,314,1
299,318,311,314,1
299,314,308,313,1
300,309,306,313,1
301,306,304,314,1
303,303,303,313,1
306,302,302,313,1
308,301,303,312,1
310,303,305,312,1
311,305,307,313,1
309,307,309,313,1
307,308,312,314,1
305,308,312,315,1
303,306,311,314,1
301,303,307,313,1
299,298,303,311,1
298,294,299,309,1
296,290,297,307,1
293,287,295,305,1
292,287,296,304,1
291,291,300,305,1
293,296,305,307,1
295,301,308,309,1
296,305,310,311,1
297,308,310,312,1
298,311,311,314,1
300,313,311,315,1
302,314,311,315,1
303,315,311,315,1
304,315,311,315,1
306,316,310,314,1
308,316,309,314,1
309,316,307,314,1
309,315,307,315,1
307,313,309,315,1
305,312,310,315,1
303,311,311,315,1
302,309,311,314,1
302,307,309,314,1
304,303,308,314,1
307,300,305,314,1
309,298,303,313,1
308,295,301,311,1
306,296,301,311,1
303,298,304,311,1
302,302,306,310,1
300,307,308,309,1
298,311,310,307,1
297,315,311,307,1
295,318,314,308,1
294,319,317,308,1
294,319,318,310,1
293,318,319,311,1
292,318,318,311,1
291,316,317,310,1
291,315,317,310,1
291,314,316,309,1
292,314,314,308,1
293,314,312,307,1
293,314,311,307,1
293,314,311,307,1
293,314,311,307,1
294,312,310,307,1
295,309,307,307,1
297,305,303,307,1
298,303,299,308,1
298,300,296,309,1
298,298,293,309,1
297,298,292,309,1
296,298,292,309,1
295,299,293,309,1
295,300,294,309,1
295,302,296,309,1
296,305,299,310,1
299,309,302,310,1
303,313,305,310,1
307,315,307,310,1
311,314,308,309,1
313,312,307,308,1
313,308,305,307,1
311,305,304,307,1
308,302,303,306,1
305,301,304,306,1
304,301,306,307,1
302,303,306,307,1
298,304,304,307,1
294,305,302,307,1
291,308,302,307,1
289,311,303,307,1
291,314,305,307,1
293,316,306,307,1
295,318,307,306,1
297,318,307,306,1
298,318,306,305,1
298,317,306,305,1
299,315,306,305,1
300,314,306,307,1
300,314,307,308,1
299,313,306,309,1
298,312,306,310,1
296,313,305,310,1
294,313,305,311,1
294,313,305,313,1
295,313,305,314,1
296,312,305,314,1
298,311,304,315,1
300,310,303,314,1
301,308,302,314,1
300,304,300,312,1
298,300,299,312,1
297,299,300,312,1
296,299,302,312,1
297,298,303,312,1
297,297,304,310,1
298,296,305,310,1
299,298,307,310,1
301,301,310,311,1
303,305,314,312,1
304,309,316,312,1
304,310,316,311,1
303,310,313,309,1
301,310,309,306,1
301,309,305,304,1
302,309,304,303,1
303,311,303,303,1
305,312,303,303,1
307,312,304,305,1
308,312,306,307,1
308,311,308,308,1
306,310,310,308,1
303,309,311,307,1
301,307,311,306,1
299,305,310,305,1
297,303,310,305,1
296,301,311,305,1
295,300,312,304,1
295,300,312,304,1
296,301,310,304,1
296,302,309,304,1
297,304,309,304,1
300,306,310,305,1
304,311,311,307,1
307,315,310,308,1
310,317,309,309,1
310,317,310,310,1
308,318,311,310,1
304,318,313,310,1
301,318,315,311,1
298,318,316,312,1
298,317,315,312,1
298,317,314,311,1
298,316,312,310,1
298,316,310,308,1
298,315,308,306,1
297,313,306,304,1
295,312,304,302,1
294,310,303,301,1
295,310,302,300,1
296,310,301,300,1
298,310,302,301,1
298,309,303,302,1
296,306,303,303,1
294,304,303,305,1
293,302,302,306,1
293,302,302,306,1
295,302,301,306,1
297,303,301,306,1
299,304,302,306,1
301,304,303,307,1
302,305,304,307,1
302,305,304,308,1
301,304,304,308,1
299,304,305,308,1
299,304,305,307,1
299,304,306,307,1
300,305,308,306,1
301,306,310,305,1
300,306,312,304,1
298,307,312,304,1
296,306,310,302,1
294,303,307,301,1
294,299,304,300,1
295,295,302,301,1
297,293,299,302,1
300,291,298,303,1
303,289,297,303,1
304,289,297,304,1
304,290,299,305,1
304,292,303,305,1
303,296,310,306,1
301,299,315,307,1
300,301,317,308,1
298,302,317,307,1
297,302,316,306,1
297,303,313,306,1
298,305,311,305,1
300,307,308,305,1
304,308,306,304,1
311,307,306,306,1
318,306,305,308,1
325,304,304,310,1
327,302,304,311,1
326,300,304,312,1
318,299,304,310,1
308,296,304,309,1
298,295,304,307,1
292,293,306,306,1
288,294,309,305,1
288,299,312,305,1
288,305,314,305,1
289,312,316,304,1
291,317,317,304,1
292,320,317,303,1
292,320,316,303,1
292,318,314,302,1
290,315,314,301,1
291,312,312,301,1
292,311,312,300,1
294,311,311,300,1
297,312,311,301,1
301,313,310,303,1
306,314,309,305,1
310,315,309,307,1
314,316,310,308,1
314,316,309,309,1
309,316,308,307,1
303,314,308,306,1
297,313,307,304,1
292,311,307,302,1
289,308,306,300,1
288,305,305,299,1
289,302,303,299,1
290,300,301,298,1
290,298,299,299,1
292,296,299,299,1
295,295,299,300,1
299,293,299,302,1
302,290,297,303,1
304,287,295,303,1
305,284,293,304,1
304,284,292,305,1
302,288,294,306,1
300,295,299,307,1
299,302,303,307,1
297,308,306,307,1
296,313,307,306,1
295,315,309,305,1
297,315,311,306,1
300,314,313,307,1
301,312,312,308,1
301,310,310,308,1
300,309,309,308,1
299,308,308,309,1
298,310,308,310,1
298,311,308,311,1
298,312,306,311,1
300,313,305,311,1
303,313,304,310,1
306,313,303,309,1
308,314,303,308,1
309,315,303,307,1
309,316,304,307,1
308,316,304,308,1
306,315,304,308,1
304,313,304,308,1
302,308,304,307,1
301,303,303,308,1
298,300,303,309,1
296,298,304,309,1
295,298,304,308,1
295,300,306,307,1
296,303,308,306,1
298,306,309,305,1
300,307,309,304,1
301,308,309,304,1
301,308,308,303,1
302,310,308,303,1
303,311,309,304,1
304,313,311,306,1
305,313,311,307,1
305,313,311,307,1
305,311,309,307,1
306,310,308,308,1
309,309,307,309,1
311,307,306,311,1
314,305,305,312,1
314,301,303,312,1
313,297,303,312,1
311,297,305,313,1
308,298,309,313,1
305,299,312,313,1
303,301,313,313,1
301,301,314,312,1
300,301,314,312,1
299,303,315,312,1
299,306,318,312,1
299,310,320,312,1
298,311,321,312,1
297,313,322,311,1
297,314,322,310,1
296,315,322,310,1
296,316,322,310,1
295,314,319,310,1
295,312,316,309,1
295,310,313,309,1
297,308,310,310,1
298,306,310,310,1
299,304,309,310,1
301,303,310,310,1
303,300,310,310,1
305,297,308,310,1
306,293,305,309,1
307,289,302,308,1
307,288,299,308,1
306,287,298,308,1
304,287,297,307,1
299,289,298,307,1
295,291,300,306,1
292,295,302,306,1
291,296,304,306,1
291,297,305,306,1
291,300,307,307,1
292,305,309,309,1
294,309,311,310,1
296,312,313,312,1
299,314,313,313,1
300,314,313,313,1
302,312,312,313,1
303,310,311,312,1
305,308,310,311,1
307,308,310,310,1
309,308,310,310,1
312,308,309,309,1
314,308,307,308,1
314,308,306,308,1
312,308,304,307,1
309,307,303,308,1
306,306,303,309,1
301,306,305,310,1
296,307,307,310,1
291,307,310,310,1
287,307,311,309,1
283,305,311,308,1
283,304,312,307,1
283,304,310,307,1
286,304,309,306,1
291,305,308,306,1
297,305,307,305,1
302,305,307,304,1
305,304,307,304,1
307,302,309,305,1
307,301,309,307,1
306,301,309,308,1
303,301,307,309,1
300,302,305,308,1
296,303,305,307,1
294,304,304,306,1
292,304,304,304,1
293,304,303,302,1
295,305,303,301,1
297,305,303,300,1
298,305,303,300,1
299,304,304,299,1
298,304,305,300,1
296,304,305,301,1
295,303,305,302,1
293,302,306,304,1
292,302,306,306,1
292,303,307,307,1
293,303,304,306,1
294,302,300,305,1
296,301,299,306,1
299,300,300,307,1
302,299,304,309,1
306,298,308,311,1
308,299,311,313,1
308,302,313,314,1
305,305,316,315,1
302,307,318,315,1
299,308,317,314,1
297,308,314,313,1
295,307,311,311,1
294,305,307,308,1
292,301,304,306,1
291,298,302,304,1
292,295,301,303,1
294,295,302,304,1
298,298,306,306,1
301,304,312,309,1
305,310,317,311,1
309,314,322,313,1
312,315,323,314,1
313,313,322,313,1
311,308,318,312,1
307,302,313,310,1
301,298,310,308,1
297,297,309,307,1
297,302,311,307,1
298,310,313,308,1
301,318,314,308,1
304,323,312,308,1
307,323,309,307,1
306,322,305,306,1
305,319,303,305,1
301,319,303,304,1
297,317,303,304,1
294,316,304,303,1
291,316,306,303,1
290,315,309,304,1
289,315,310,304,1
289,314,311,305,1
290,312,310,305,1
290,310,309,305,1
292,307,306,306,1
293,302,304,306,1
294,298,301,306,1
296,295,299,306,1
298,296,298,308,1
300,299,299,309,1
302,303,301,310,1
302,306,301,310,1
301,308,301,309,1
300,310,301,309,1
298,310,300,308,1
297,309,299,307,1
295,308,299,307,1
296,309,301,307,1
299,309,303,308,1
302,309,306,309,1
303,308,309,308,1
305,306,311,308,1
308,306,315,307,1
312,306,318,307,1
313,306,319,307,1
311,306,318,307,1
309,307,315,307,1
305,310,313,305,1
303,313,314,304,1
304,317,315,303,1
304,318,316,303,1
305,317,314,303,1
306,315,312,305,1
307,312,310,307,1
309,310,309,309,1
310,308,307,310,1
309,307,304,310,1
307,307,303,309,1
304,308,303,308,1
301,309,306,308,1
299,309,311,309,1
297,309,316,310,1
297,310,320,310,1
297,311,322,310,1
297,313,322,310,1
297,314,322,310,1
296,314,320,309,1
295,313,318,307,1
295,311,314,306,1
295,309,309,305,1
295,307,305,302,1
294,307,302,300,1
294,309,301,300,1
296,311,301,301,1
299,311,299,302,1
302,309,298,302,1
306,305,297,303,1
310,302,296,306,1
314,299,297,308,1
317,299,298,310,1
317,300,300,311,1
314,302,302,312,1
309,304,304,311,1
304,305,306,312,1
300,306,305,312,1
298,305,305,311,1
298,304,304,310,1
298,303,303,309,1
299,302,302,307,1
301,302,302,306,1
304,302,303,305,1
305,302,304,305,1
306,303,307,305,1
305,306,310,305,1
303,308,311,306,1
300,309,312,307,1
298,309,311,307,1
297,308,309,306,1
296,305,307,306,1
295,304,305,305,1
296,304,305,306,1
297,305,305,307,1
297,306,304,307,1
297,307,302,306,1
296,308,301,306,1
296,309,299,306,1
295,309,299,306,1
293,307,298,306,1
291,303,298,306,1
290,299,297,307,1
290,295,294,307,1
291,293,293,308,1
297,295,295,308,1
304,300,299,309,1
312,306,303,311,1
316,310,305,310,1
315,311,306,309,1
311,310,305,307,1
306,308,304,306,1
301,306,302,305,1
299,302,301,305,1
297,300,302,306,1
295,300,304,308,1
293,301,306,309,1
292,302,306,309,1
291,303,304,307,1
290,305,300,306,1
290,307,297,304,1
289,309,294,303,1
289,309,292,303,1
290,308,291,304,1
292,307,292,306,1
294,307,294,308,1
297,310,298,309,1
299,312,303,310,1
301,314,306,311,1
302,315,310,311,1
302,314,312,312,1
301,312,313,311,1
299,308,313,310,1
297,304,312,309,1
294,302,312,308,1
294,302,314,308,1
295,305,316,308,1
297,308,318,308,1
300,311,318,309,1
301,312,319,310,1
302,314,319,311,1
302,315,319,312,1
303,316,317,312,1
304,316,316,312,1
306,315,314,313,1
309,314,313,313,1
313,313,312,314,1
314,312,310,314,1
312,310,309,315,1
308,309,307,315,1
306,307,305,316,1
304,305,303,316,1
303,302,301,314,1
303,301,301,313,1
302,302,302,312,1
300,304,304,312,1
297,306,308,311,1
295,307,312,311,1
293,308,315,311,1
293,309,317,310,1
294,308,316,309,1
297,307,314,309,1
299,306,312,309,1
300,306,311,310,1
300,307,309,310,1
298,307,307,310,1
297,307,305,311,1
296,306,303,311,1
296,304,302,311,1
295,302,301,309,1
295,299,299,309,1
296,299,298,309,1
296,300,299,309,1
297,302,301,309,1
299,303,303,309,1
301,304,305,309,1
302,305,307,309,1
301,306,310,308,1
299,308,311,308,1
297,309,313,307,1
294,309,314,307,1
291,310,315,307,1
289,311,313,306,1
288,311,310,305,1
288,311,305,304,1
290,312,301,303,1
293,311,298,303,1
296,310,294,302,1
298,308,292,301,1
300,305,291,300,1
301,304,292,300,1
303,305,296,301,1
305,306,300,304,1
306,309,304,306,1
307,310,308,307,1
307,311,309,308,1
307,311,309,308,1
308,310,309,308,1
308,308,309,308,1
306,306,309,309,1
303,304,309,311,1
301,302,310,311,1
298,302,312,311,1
296,302,313,310,1
293,302,313,309,1
292,302,311,308,1
294,302,308,309,1
297,302,305,310,1
301,302,302,312,1
303,302,300,314,1
302,302,299,315,1
300,304,299,316,1
298,306,299,315,1
297,310,300,314,1
297,314,301,313,1
298,317,302,313,1
299,317,301,313,1
299,315,299,313,1
300,312,298,313,1
300,310,296,311,1
300,308,296,310,1
300,307,295,308,1
301,307,296,307,1
303,309,297,308,1
305,311,301,308,1
306,314,306,308,1
306,316,310,309,1
305,317,313,309,1
303,317,313,308,1
302,315,312,308,1
303,314,310,307,1
305,313,309,307,1
308,311,309,307,1
310,309,310,307,1
310,308,311,308,1
309,307,313,310,1
306,309,315,311,1
302,310,316,311,1
297,311,316,310,1
293,311,315,310,1
289,310,314,308,1
287,307,311,307,1
287,304,308,306,1
288,302,306,305,1
291,303,304,305,1
295,305,304,306,1
300,308,305,308,1
306,310,306,310,1
310,311,307,312,1
311,310,306,312,1
309,306,304,312,1
305,302,303,310,1
302,299,304,308,1
298,298,306,307,1
296,300,310,307,1
295,301,313,306,1
295,301,314,306,1
295,301,314,306,1
295,301,313,307,1
295,301,310,306,1
296,302,308,306,1
296,304,306,306,1
297,305,305,307,1
298,306,303,307,1
301,305,302,308,1
303,304,301,308,1
304,302,302,309,1
304,301,304,309,1
303,301,306,309,1
303,299,308,309,1
302,297,308,309,1
302,295,308,309,1
301,293,309,309,1
301,294,309,309,1
301,298,311,310,1
302,305,312,310,1
302,310,311,310,1
303,314,310,310,1
303,316,308,309,1
304,317,307,308,1
304,316,304,307,1
305,315,304,306,1
306,314,304,307,1
307,316,306,308,1
308,318,309,309,1
308,318,310,310,1
308,318,309,311,1
307,315,307,310,1
309,310,304,309,1
311,306,301,308,1
313,303,298,308,1
315,301,296,308,1
316,301,294,308,1
316,303,295,309,1
315,307,298,309,1
314,310,302,310,1
312,311,305,311,1
308,311,307,311,1
303,309,306,309,1
298,307,305,307,1
295,307,304,306,1
293,308,305,305,1
293,309,306,305,1
294,309,306,306,1
296,309,308,307,1
298,309,311,309,1
299,311,314,311,1
300,312,316,312,1
301,313,317,312,1
301,313,318,312,1
302,312,317,313,1
303,312,316,312,1
302,310,314,312,1
299,308,313,311,1
296,306,310,310,1
294,305,308,310,1
294,304,308,309,1
294,305,308,309,1
295,305,310,308,1
295,306,312,308,1
295,306,313,308,1
295,307,313,309,1
295,307,311,310,1
294,307,310,310,1
294,307,309,309,1
293,307,307,309,1
294,307,307,309,1
296,307,307,309,1
297,306,307,309,1
298,305,307,308,1
298,303,308,309,1
298,302,308,309,1
296,300,309,309,1
294,297,308,309,1
292,294,307,309,1
290,292,304,308,1
290,291,300,306,1
292,291,297,305,1
293,292,293,304,1
295,293,291,302,1
296,294,291,301,1
298,295,294,302,1
299,295,298,303,1
300,296,302,305,1
300,298,304,305,1
299,300,305,306,1
299,304,305,307,1
299,308,306,309,1
301,313,308,310,1
303,315,308,311,1
305,317,308,312,1
307,318,307,311,1
307,319,305,309,1
308,318,302,308,1
308,318,300,308,1
310,317,299,308,1
314,316,298,308,1
318,314,298,309,1
321,311,296,310,1
322,308,294,310,1
320,305,291,310,1
317,304,290,309,1
316,306,291,310,1
315,311,294,310,1
314,316,298,310,1
312,319,302,311,1
309,321,304,311,1
304,318,305,310,1
299,313,304,310,1
295,308,304,309,1
293,304,303,309,1
291,301,303,308,1
290,300,304,308,1
289,302,305,309,1
290,305,308,309,1
291,309,310,310,1
293,313,310,312,1
294,316,310,312,1
295,318,309,312,1
297,319,308,311,1
298,317,307,311,1
300,316,305,310,1
302,313,303,309,1
302,310,300,308,1
302,307,297,308,1
301,304,295,308,1
299,302,293,308,1
298,299,293,307,1
297,297,294,308,1
296,297,296,308,1
297,297,299,309,1
298,297,302,310,1
299,299,307,310,1
301,302,314,311,1
302,304,322,313,1
303,306,328,314,1
303,308,328,314,1
303,311,326,314,1
303,313,322,314,1
304,316,318,313,1
305,316,316,314,1
307,316,314,315,1
308,316,313,316,1
308,316,313,317,1
307,317,314,318,1
305,316,313,319,1
302,315,311,318,1
300,311,306,318,1
299,306,302,317,1
300,301,299,315,1
301,299,298,314,1
302,299,299,312,1
303,299,299,310,1
304,297,299,309,1
304,296,300,308,1
305,297,302,307,1
306,299,303,306,1
308,302,306,306,1
311,304,307,307,1
313,306,309,309,1
315,308,309,311,1
317,310,309,312,1
318,313,308,313,1
318,316,306,312,1
319,319,304,311,1
322,321,303,310,1
323,323,302,308,1
319,321,301,308,1
312,318,300,308,1
304,312,299,308,1
298,308,300,309,1
296,306,301,310,1
295,307,304,310,1
295,310,306,310,1
295,314,308,309,1
295,316,309,307,1
295,318,311,307,1
296,320,311,306,1
299,320,312,306,1
302,319,311,307,1
306,317,310,307,1
308,314,308,308,1
307,312,306,309,1
305,310,304,309,1
304,309,303,308,1
302,308,302,308,1
301,307,302,307,1
301,305,301,306,1
299,304,300,306,1
298,302,299,306,1
296,302,299,307,1
296,301,299,307,1
296,300,300,308,1
296,299,299,309,1
297,300,298,310,1
298,300,297,311,1
299,301,296,311,1
300,301,297,311,1
301,302,299,312,1
301,302,302,312,1
300,301,304,312,1
299,300,306,311,1
299,297,306,311,1
298,295,304,309,1
298,293,301,308,1
298,291,297,307,1
300,291,293,307,1
301,292,291,307,1
300,294,292,307,1
300,295,293,307,1
298,295,296,307,1
296,295,300,307,1
295,297,305,307,1
295,299,308,308,1
295,303,311,310,1
294,308,314,311,1
293,311,316,312,1
295,313,319,312,1
297,313,320,313,1
300,313,318,312,1
300,311,314,312,1
299,308,309,310,1
297,305,306,309,1
295,304,304,309,1
294,304,303,308,1
295,304,304,308,1
298,307,305,309,1
303,310,309,311,1
307,312,312,313,1
310,315,314,314,1
309,317,315,314,1
309,317,316,314,1
309,317,318,315,1
310,315,319,316,1
310,313,319,315,1
309,310,317,313,1
305,309,314,311,1
301,308,311,309,1
298,309,307,307,1
296,310,304,305,1
294,309,301,303,1
293,308,299,302,1
292,306,296,300,1
291,303,295,300,1
290,301,294,300,1
291,301,295,300,1
293,302,297,301,1
296,304,299,303,1
302,305,303,305,1
309,306,305,307,1
314,307,307,308,1
318,306,307,310,1
318,305,309,311,1
314,304,310,312,1
307,304,311,311,1
298,303,310,310,1
290,301,308,308,1
284,300,307,306,1
281,299,305,305,1
281,298,303,304,1
283,298,300,305,1
287,299,298,306,1
291,299,296,307,1
294,298,296,308,1
297,297,299,309,1
298,297,303,310,1
300,298,306,310,1
300,300,310,310,1
300,303,313,310,1
301,308,316,310,1
300,314,320,310,1
300,318,324,310,1
299,319,324,310,1
300,317,322,310,1
300,314,318,309,1
301,310,314,308,1
302,307,310,307,1
302,306,307,304,1
302,304,304,302,1
302,306,304,301,1
303,309,305,301,1
305,313,307,301,1
306,316,309,302,1
308,318,312,303,1
310,318,313,304,1
311,317,314,305,1
312,316,313,305,1
310,314,312,306,1
309,312,311,307,1
306,309,309,307,1
302,306,307,307,1
297,304,307,306,1
293,302,307,306,1
290,300,307,307,1
290,299,307,308,1
291,299,306,308,1
293,299,305,309,1
296,300,305,309,1
298,302,307,309,1
302,304,309,308,1
304,306,312,307,1
304,308,313,306,1
302,309,314,305,1
300,309,313,304,1
298,308,313,303,1
297,307,312,303,1
296,307,311,303,1
296,306,311,303,1
297,304,309,304,1
297,301,307,303,1
298,299,306,303,1
299,300,307,304,1
301,303,308,305,1
304,306,310,307,1
308,309,313,309,1
312,310,315,310,1
316,311,316,311,1
318,311,314,312,1
319,309,312,313,1
318,309,309,312,1
315,308,307,312,1
311,307,306,311,1
308,308,306,312,1
306,307,306,313,1
304,304,306,313,1
302,298,304,313,1
299,294,302,312,1
296,291,300,311,1
293,290,299,310,1
292,290,299,309,1
291,292,300,308,1
291,294,301,306,1
291,298,301,305,1
293,301,301,304,1
294,304,300,304,1
296,306,298,304,1
299,306,296,304,1
301,304,293,304,1
300,300,290,303,1
301,296,289,303,1
302,296,290,303,1
306,299,296,305,1
310,306,303,307,1
314,315,309,310,1
318,324,314,313,1
318,332,318,314,1
317,335,317,314,1
313,336,315,313,1
308,332,312,311,1
305,326,310,310,1
304,320,308,310,1
304,314,306,311,1
305,309,305,311,1
307,305,304,311,1
308,302,304,311,1
308,302,305,310,1
306,304,306,310,1
304,307,309,309,1
301,311,311,308,1
298,313,313,308,1
296,314,315,309,1
295,315,316,310,1
295,316,317,311,1
296,316,315,312,1
299,316,313,311,1
303,316,311,312,1
306,315,309,311,1
309,313,307,311,1
310,310,305,310,1
310,305,303,309,1
310,300,302,309,1
310,297,301,308,1
310,296,301,307,1
310,298,302,306,1
308,300,303,305,1
307,301,304,303,1
304,303,304,302,1
302,304,304,302,1
300,304,304,302,1
300,303,302,303,1
300,302,301,303,1
301,303,300,304,1
304,305,302,306,1
307,308,304,307,1
310,312,307,308,1
313,315,309,308,1
316,317,311,307,1
318,318,312,306,1
318,318,314,306,1
317,317,316,306,1
314,315,317,305,1
310,311,318,305,1
304,306,319,304,1
299,300,319,302,1
296,294,318,300,1
294,289,317,298,1
294,287,315,298,1
294,289,312,298,1
294,292,309,298,1
294,297,307,300,1
295,301,305,302,1
295,305,305,305,1
297,309,308,307,1
298,313,311,308,1
298,316,314,309,1
298,318,315,309,1
297,318,314,308,1
297,318,313,308,1
299,317,312,308,1
301,317,311,308,1
304,316,309,308,1
306,314,307,308,1
307,314,306,308,1
308,314,305,307,1
309,315,305,307,1
310,316,306,308,1
310,317,309,310,1
311,318,310,311,1
312,318,311,311,1
312,316,310,310,1
312,314,307,307,1
312,311,304,305,1
309,308,302,303,1
305,306,301,302,1
301,306,301,302,1
297,307,302,302,1
296,309,303,303,1
297,310,304,303,1
298,309,305,304,1
298,308,306,305,1
299,307,306,305,1
299,305,305,305,1
299,304,304,306,1
301,303,304,307,1
302,303,302,308,1
302,302,299,307,1
301,301,297,306,1
301,299,296,306,1
300,297,296,306,1
299,295,297,306,1
299,294,299,306,1
301,296,302,307,1
304,299,306,307,1
306,303,308,307,1
308,305,309,306,1
309,306,310,306,1
310,306,310,306,1
312,306,310,307,1
313,305,310,307,1
314,303,310,307,1
314,303,310,307,1
314,303,311,308,1
315,302,312,309,1
314,300,311,309,1
312,297,310,308,1
308,295,309,306,1
304,294,310,306,1
301,297,312,306,1
301,301,314,306,1
302,305,316,308,1
305,308,316,308,1
308,312,316,309,1
310,314,314,308,1
311,315,312,308,1
310,314,309,307,1
308,313,306,307,1
306,311,303,305,1
304,308,300,304,1
302,306,298,303,1
301,306,297,303,1
301,308,300,302,1
301,310,304,303,1
301,314,308,303,1
301,316,310,303,1
301,316,310,303,1
301,314,310,302,1
300,311,310,303,1
300,310,312,304,1
300,309,315,306,1
300,309,320,307,1
301,310,323,307,1
302,312,326,307,1
305,314,325,307,1
307,316,324,306,1
308,315,320,306,1
309,314,316,305,1
309,312,311,305,1
310,311,307,306,1
312,310,304,307,1
313,309,303,307,1
314,307,302,307,1
314,305,301,306,1
312,302,300,305,1
310,300,300,304,1
307,298,299,302,1
303,297,298,300,1
300,296,297,298,1
298,295,296,297,1
297,294,295,297,1
297,296,295,299,1
300,299,297,301,1
302,302,299,303,1
303,306,303,305,1
304,309,305,306,1
304,310,308,307,1
304,311,310,307,1
305,312,312,309,1
308,312,313,310,1
312,312,314,312,1
317,310,315,313,1
318,308,315,313,1
314,305,315,312,1
310,304,315,311,1
304,303,315,311,1
300,303,315,311,1
296,303,315,309,1
294,303,315,308,1
294,304,313,307,1
294,304,311,305,1
295,305,307,304,1
294,304,303,301,1
293,303,298,299,1
292,302,294,297,1
291,300,291,298,1
291,297,289,300,1
292,295,289,302,1
293,296,291,303,1
298,299,295,305,1
302,302,297,305,1
306,305,300,305,1
309,307,302,305,1
310,308,305,305,1
309,309,307,306,1
307,312,309,305,1
305,317,312,306,1
305,320,313,306,1
306,323,314,306,1
306,322,314,306,1
307,319,315,306,1
307,317,316,307,1
308,316,318,309,1
308,314,319,309,1
306,313,318,309,1
301,312,317,308,1
299,311,315,308,1
297,311,313,309,1
297,313,312,310,1
297,315,311,310,1
297,316,309,310,1
298,317,308,310,1
298,318,307,309,1
298,318,305,307,1
298,315,304,305,1
298,311,304,305,1
299,305,305,305,1
300,300,305,307,1
301,296,303,307,1
302,294,301,307,1
302,294,300,307,1
301,296,299,307,1
300,298,301,307,1
300,300,302,306,1
301,303,303,306,1
303,305,304,306,1
306,306,305,306,1
309,307,305,306,1
312,305,305,306,1
314,304,305,307,1
315,303,306,308,1
316,303,307,309,1
313,305,308,309,1
306,307,306,308,1
300,309,304,306,1
296,310,302,305,1
297,310,302,306,1
299,311,302,307,1
299,311,304,308,1
299,310,304,309,1
297,310,305,309,1
297,308,307,310,1
298,307,306,310,1
300,305,306,310,1
303,304,304,310,1
304,304,302,310,1
303,305,302,308,1
300,306,303,308,1
298,306,305,308,1
296,305,305,307,1
294,304,305,307,1
294,304,305,307,1
295,304,303,307,1
296,304,301,307,1
298,301,299,307,1
299,298,296,307,1
300,293,293,307,1
301,288,291,307,1
302,288,291,307,1
302,290,294,307,1
303,296,298,307,1
304,303,303,307,1
305,308,307,307,1
306,312,309,306,1
306,316,311,305,1
307,319,311,305,1
308,321,313,306,1
311,324,315,308,1
314,327,316,310,1
315,328,317,311,1
314,326,316,311,1
312,322,315,310,1
310,317,313,309,1
307,312,312,308,1
304,306,310,308,1
302,301,309,308,1
300,298,309,309,1
298,297,309,310,1
297,297,310,310,1
296,299,310,310,1
296,301,310,310,1
296,304,310,309,1
296,306,309,309,1
297,308,309,308,1
299,310,310,308,1
304,313,311,310,1
307,317,313,311,1
310,320,314,312,1
309,322,314,312,1
307,322,314,312,1
305,321,315,311,1
303,318,314,311,1
301,316,312,310,1
299,315,311,310,1
299,314,310,310,1
299,314,310,308,1
298,313,310,307,1
297,310,308,306,1
297,306,306,305,1
296,303,304,304,1
295,300,302,303,1
294,299,301,303,1
295,299,300,304,1
298,299,300,306,1
302,300,300,308,1
307,303,300,310,1
312,306,302,311,1
315,309,303,311,1
314,310,303,310,1
310,312,302,309,1
305,313,301,307,1
300,313,299,306,1
297,312,296,305,1
295,310,294,305,1
295,308,294,306,1
295,307,294,307,1
295,307,295,307,1
293,306,297,306,1
292,307,299,306,1
290,308,301,306,1
290,307,301,306,1
290,304,300,307,1
292,299,298,307,1
295,296,296,309,1
298,295,295,310,1
299,296,295,310,1
300,298,297,312,1
300,303,300,313,1
299,309,306,314,1
299,315,311,314,1
299,318,316,315,1
300,321,321,314,1
302,323,324,314,1
305,326,324,314,1
307,328,324,314,1
310,327,321,314,1
310,325,318,313,1
308,320,314,312,1
306,314,311,312,1
303,308,308,312,1
302,302,305,311,1
301,299,304,310,1
301,300,303,311,1
302,305,303,312,1
301,312,304,312,1
302,317,306,312,1
301,321,308,313,1
301,323,309,313,1
301,323,309,313,1
300,321,309,312,1
299,319,308,311,1
298,317,308,310,1
298,314,308,310,1
299,312,309,310,1
301,311,309,310,1
303,311,310,310,1
304,311,311,309,1
306,311,312,309,1
308,311,312,309,1
309,311,313,309,1
309,311,312,308,1
309,311,311,308,1
308,311,310,308,1
307,312,311,308,1
307,311,311,309,1
306,311,311,308,1
305,309,310,309,1
303,308,306,308,1
301,306,303,308,1
300,305,301,307,1
300,304,301,307,1
301,302,303,308,1
305,303,306,309,1
308,305,309,311,1
312,306,311,312,1
313,306,313,313,1
313,304,314,313,1
311,300,315,314,1
311,297,314,313,1
311,293,312,313,1
311,292,308,313,1
311,292,305,313,1
309,294,302,312,1
306,295,300,311,1
302,297,299,309,1
300,301,299,308,1
299,305,300,308,1
299,308,301,307,1
301,310,302,307,1
303,312,303,307,1
306,313,308,308,1
310,316,313,309,1
314,317,318,309,1
314,316,319,308,1
313,312,315,307,1
309,308,309,305,1
306,304,303,305,1
302,298,298,304,1
300,293,295,304,1
299,291,293,304,1
300,294,294,305,1
300,299,296,305,1
298,304,301,306,1
295,309,306,307,1
292,315,310,308,1
290,319,311,308,1
289,322,310,308,1
289,323,308,308,1
291,322,304,309,1
293,319,301,310,1
295,316,299,310,1
297,313,300,311,1
299,311,303,312,1
302,311,306,313,1
305,312,308,314,1
308,314,309,315,1
310,315,309,315,1
312,316,309,315,1
314,316,310,314,1
315,316,311,313,1
315,315,310,312,1
313,313,309,310,1
310,312,308,309,1
307,312,307,307,1
305,312,309,307,1
303,312,310,307,1
302,312,312,308,1
301,313,313,310,1
302,314,314,311,1
305,315,314,313,1
307,316,314,316,1
308,316,315,317,1
308,315,315,317,1
307,313,314,315,1
303,308,313,313,1
299,304,311,310,1
296,301,309,308,1
295,298,307,307,1
295,295,305,307,1
295,293,303,307,1
295,291,302,307,1
295,289,301,307,1
295,289,301,307,1
296,292,303,308,1
296,296,306,309,1
297,300,310,309,1
297,304,314,310,1
296,307,315,310,1
296,308,313,310,1
297,309,310,309,1
298,310,308,308,1
300,310,307,307,1
302,311,306,306,1
304,309,305,305,1
306,307,304,304,1
306,305,304,305,1
307,304,304,306,1
308,304,306,307,1
309,305,307,309,1
311,305,307,310,1
312,305,306,311,1
313,306,306,311,1
316,305,305,310,1
320,304,303,309,1
325,301,300,308,1
328,297,297,307,1
327,293,297,307,1
321,292,299,307,1
312,295,303,306,1
301,300,306,306,1
293,305,305,306,1
290,308,303,305,1
290,310,302,304,1
291,311,301,304,1
291,311,302,303,1
291,312,304,303,1
292,313,307,304,1
294,313,310,305,1
296,314,312,307,1
298,316,313,308,1
301,317,312,310,1
304,318,309,310,1
306,317,307,310,1
307,315,304,309,1
306,313,301,308,1
302,310,300,306,1
297,307,299,305,1
293,305,300,305,1
291,302,301,305,1
290,300,304,305,1
289,300,306,306,1
290,302,309,306,1
290,306,313,306,1
292,309,315,306,1
294,311,317,307,1
295,311,317,307,1
296,309,315,305,1
296,306,315,305,1
296,304,314,305,1
297,303,312,304,1
298,301,310,303,1
299,301,307,303,1
301,303,307,304,1
302,307,309,305,1
304,312,312,307,1
305,316,315,309,1
306,319,318,310,1
307,319,319,310,1
306,318,318,310,1
305,315,315,309,1
304,311,312,308,1
304,308,310,307,1
305,306,308,307,1
306,305,307,307,1
308,304,306,307,1
310,304,306,308,1
312,304,306,309,1
312,304,306,308,1
311,303,306,308,1
309,303,306,308,1
306,303,306,308,1
305,304,307,308,1
307,306,309,308,1
312,309,312,308,1
319,313,313,308,1
325,315,314,308,1
330,316,311,309,1
329,314,309,308,1
323,309,306,307,1
314,303,302,305,1
307,298,300,303,1
303,295,299,301,1
301,295,300,300,1
301,296,301,299,1
302,298,302,300,1
303,299,303,300,1
303,301,303,301,1
303,303,303,301,1
300,305,303,301,1
297,304,302,303,1
293,303,300,303,1
291,300,298,303,1
290,298,296,303,1
289,297,294,302,1
289,297,293,302,1
290,299,293,302,1
291,304,295,303,1
293,310,298,304,1
295,314,301,305,1
297,316,301,306,1
298,316,301,308,1
299,313,302,309,1
300,311,303,311,1
301,311,305,312,1
303,311,308,313,1
304,313,311,313,1
305,314,313,313,1
305,314,314,312,1
305,313,315,311,1
306,313,317,311,1
307,315,317,309,1
307,318,317,309,1
309,322,316,308,1
309,325,313,307,1
309,325,310,306,1
309,325,308,305,1
308,324,306,305,1
307,324,305,304,1
306,324,305,304,1
306,325,306,304,1
306,327,308,305,1
306,327,309,306,1
305,326,311,307,1
305,322,313,307,1
304,317,316,307,1
305,312,319,308,1
307,309,320,309,1
308,307,320,311,1
309,305,318,311,1
309,302,313,311,1
307,301,308,310,1
306,299,304,309,1
305,298,301,307,1
303,298,299,305,1
301,298,297,303,1
300,300,297,301,1
300,301,297,300,1
300,303,298,300,1
300,304,300,302,1
301,306,302,304,1
301,309,306,306,1
302,310,309,308,1
302,311,313,308,1
302,311,315,308,1
302,310,316,307,1
303,308,316,307,1
304,304,314,306,1
304,299,311,305,1
303,294,308,304,1
303,290,305,303,1
304,286,302,303,1
308,286,301,303,1
313,289,301,304,1
317,296,302,305,1
319,303,303,306,1
319,308,304,307,1
316,311,304,307,1
311,311,303,307,1
304,310,301,305,1
299,309,300,305,1
297,310,298,305,1
296,312,297,305,1
297,311,295,305,1
298,309,293,304,1
297,306,291,303,1
297,301,290,302,1
297,297,289,302,1
296,294,291,302,1
296,292,293,302,1
294,293,297,302,1
293,295,300,301,1
290,297,301,298,1
287,299,301,296,1
285,301,300,296,1
285,304,300,297,1
286,306,302,301,1
289,308,303,304,1
292,309,305,307,1
295,310,307,310,1
297,310,309,312,1
298,310,310,313,1
299,309,310,315,1
300,308,310,316,1
302,308,310,316,1
303,307,309,316,1
304,308,309,316,1
304,308,307,315,1
305,310,307,314,1
305,313,307,313,1
306,315,307,312,1
306,316,306,312,1
306,312,305,311,1
304,306,303,310,1
302,301,301,309,1
301,299,300,308,1
299,299,302,307,1
298,303,305,307,1
300,308,310,307,1
303,313,317,308,1
307,317,321,308,1
312,319,323,308,1
318,319,321,308,1
323,318,318,308,1
327,314,314,309,1
326,311,311,309,1
320,307,308,308,1
311,305,306,307,1
303,303,304,305,1
297,301,303,305,1
295,299,304,305,1
294,298,304,305,1
294,297,304,306,1
294,295,303,305,1
294,294,301,305,1
293,294,298,303,1
293,295,297,301,1
292,296,296,299,1
292,298,297,298,1
293,300,300,299,1
295,304,304,301,1
297,307,308,303,1
301,310,310,305,1
304,313,312,306,1
307,315,314,307,1
309,316,313,306,1
309,315,312,305,1
307,313,311,304,1
303,312,310,304,1
301,311,310,305,1
301,311,309,306,1
301,311,309,308,1
302,310,309,309,1
302,309,310,309,1
303,308,310,309,1
304,307,309,309,1
304,307,307,309,1
304,307,305,307,1
305,307,303,306,1
307,308,302,306,1
309,309,300,305,1
311,309,297,306,1
313,308,296,307,1
314,308,295,309,1
314,309,297,310,1
312,310,299,311,1
309,311,302,312,1
306,312,304,312,1
304,310,306,311,1
301,308,307,310,1
299,306,307,309,1
297,303,306,308,1
296,302,306,308,1
296,301,306,308,1
297,302,306,308,1
300,302,306,308,1
303,303,306,309,1
306,306,308,310,1
308,308,309,310,1
308,309,310,310,1
306,308,310,308,1
303,306,309,307,1
300,302,306,307,1
298,299,304,307,1
298,297,304,308,1
299,296,305,309,1
300,297,308,310,1
301,299,311,310,1
301,300,312,308,1
302,300,311,307,1
302,300,309,305,1
302,300,308,305,1
304,301,307,305,1
306,302,307,307,1
308,304,308,308,1
310,305,309,309,1
311,307,309,309,1
312,309,310,310,1
309,311,309,311,1
305,311,308,311,1
301,312,308,311,1
298,313,309,311,1
299,314,312,311,1
302,315,315,311,1
307,315,316,312,1
310,315,315,312,1
310,315,313,312,1
308,314,312,313,1
305,314,311,313,1
303,313,308,313,1
301,313,305,312,1
301,312,301,310,1
301,310,297,308,1
301,309,294,306,1
302,309,292,306,1
303,310,294,306,1
305,312,299,308,1
306,314,304,311,1
307,313,310,314,1
307,312,313,315,1
306,311,314,316,1
305,311,314,316,1
304,312,313,315,1
301,312,311,314,1
299,311,309,313,1
296,310,307,311,1
293,308,305,309,1
292,306,302,307,1
291,303,299,304,1
291,301,297,302,1
294,299,296,301,1
297,298,294,302,1
299,297,294,302,1
301,296,295,304,1
303,298,296,306,1
305,299,298,309,1
308,300,298,311,1
311,301,298,312,1
312,299,297,312,1
312,297,297,312,1
312,295,296,311,1
311,293,294,311,1
310,291,292,309,1
308,290,289,308,1
307,291,289,307,1
306,293,292,307,1
305,295,297,307,1
305,298,303,308,1
305,302,307,308,1
306,305,310,310,1
308,308,312,311,1
310,311,313,312,1
312,314,314,313,1
312,316,313,312,1
311,318,313,310,1
309,318,313,309,1
307,319,312,308,1
305,319,312,308,1
304,319,312,307,1
303,317,312,308,1
303,315,312,308,1
305,311,311,308,1
306,306,309,307,1
307,302,307,306,1
306,298,305,305,1
304,294,303,304,1
302,291,300,303,1
301,291,296,302,1
301,295,294,302,1
303,301,295,303,1
307,308,298,305,1
309,313,302,306,1
312,318,306,308,1
314,320,309,309,1
315,320,311,311,1
314,318,312,311,1
313,314,312,311,1
311,310,310,311,1
309,305,306,311,1
308,301,303,310,1
306,299,301,309,1
304,299,301,308,1
302,300,302,308,1
301,302,303,307,1
300,304,303,307,1
301,306,303,305,1
302,307,304,304,1
302,308,305,303,1
302,307,306,302,1
303,308,308,301,1
303,308,309,300,1
303,307,309,300,1
302,306,308,299,1
301,306,307,299,1
301,305,306,300,1
300,305,305,300,1
299,304,305,302,1
298,305,304,303,1
297,306,304,303,1
297,307,303,304,1
298,308,303,303,1
298,309,302,303,1
298,310,303,304,1
297,311,305,304,1
296,312,307,305,1
295,312,309,307,1
294,312,311,309,1
294,312,313,310,1
293,312,314,310,1
292,311,314,310,1
292,310,314,310,1
294,309,314,309,1
299,309,314,310,1
305,309,315,310,1
309,308,314,311,1
312,306,312,311,1
314,304,310,312,1
316,302,308,313,1
317,300,306,313,1
317,300,305,313,1
317,302,304,313,1
315,304,303,311,1
312,306,303,310,1
308,308,304,309,1
304,310,305,308,1
301,310,308,307,1
300,311,311,306,1
301,310,314,306,1
302,308,315,304,1
302,306,314,303,1
303,303,311,301,1
304,301,308,299,1
306,300,305,297,1
308,299,303,297,1
310,298,302,297,1
310,300,302,299,1
310,302,302,300,1
307,303,303,301,1
303,303,304,302,1
301,301,303,302,1
298,299,303,303,1
297,299,304,303,1
297,301,305,303,1
298,304,307,304,1
300,307,309,306,1
302,309,311,306,1
304,311,312,308,1
305,313,313,309,1
307,314,314,309,1
307,316,315,309,1
308,317,315,309,1
308,318,314,309,1
309,318,313,308,1
310,317,312,308,1
310,316,312,308,1
311,314,311,307,1
311,312,310,307,1
312,309,309,306,1
311,306,308,306,1
308,304,308,305,1
304,303,308,304,1
301,304,308,304,1
298,304,309,302,1
297,304,309,301,1
296,303,309,300,1
296,300,307,300,1
298,296,304,300,1
300,293,302,300,1
302,294,302,300,1
305,296,304,302,1
307,301,307,303,1
307,305,310,306,1
307,308,313,308,1
307,308,314,311,1
308,308,313,313,1
308,306,311,314,1
306,303,307,315,1
304,299,304,314,1
300,298,304,313,1
295,299,306,312,1
292,302,310,311,1
292,307,314,311,1
294,312,317,311,1
297,316,319,311,1
300,317,320,312,1
304,316,321,312,1
307,313,320,314,1
310,309,317,314,1
311,306,315,313,1
310,305,313,313,1
310,306,310,313,1
309,308,309,313,1
309,310,308,313,1
309,312,307,312,1
310,313,307,311,1
309,314,307,311,1
309,313,307,310,1
309,312,307,309,1
308,309,306,307,1
308,307,305,305,1
308,306,305,303,1
307,305,303,302,1
307,304,302,301,1
307,303,302,301,1
309,303,302,302,1
310,302,304,303,1
312,302,307,305,1
313,300,310,307,1
315,300,314,308,1
316,301,316,309,1
314,303,318,310,1
310,306,321,311,1
306,308,322,311,1
304,309,321,311,1
303,309,317,310,1
303,309,311,309,1
304,307,306,307,1
305,306,301,306,1
307,306,298,305,1
309,307,297,305,1
311,309,298,305,1
311,310,299,306,1
309,311,301,306,1
306,312,302,307,1
304,313,304,307,1
304,313,306,308,1
307,311,308,309,1
311,310,310,310,1
314,310,312,310,1
315,309,311,311,1
313,308,309,310,1
308,306,308,310,1
304,305,307,309,1
300,306,308,309,1
297,307,309,309,1
295,308,310,308,1
295,309,310,308,1
295,311,310,308,1
296,312,310,308,1
297,312,311,307,1
299,312,312,307,1
301,312,312,305,1
301,310,310,303,1
301,306,308,302,1
299,301,307,300,1
297,297,306,300,1
294,295,307,300,1
293,295,309,302,1
294,297,312,304,1
294,299,313,305,1
296,301,314,305,1
297,301,314,305,1
298,302,314,304,1
298,302,314,305,1
298,302,315,306,1
298,302,316,307,1
296,304,316,308,1
295,306,315,308,1
294,309,313,308,1
294,312,311,308,1
296,314,310,309,1
299,314,309,309,1
302,312,308,309,1
304,309,306,307,1
304,305,306,306,1
304,302,306,304,1
303,300,307,303,1
304,298,309,304,1
305,299,311,305,1
306,301,314,305,1
307,304,316,306,1
309,307,317,307,1
310,310,317,307,1
312,311,316,307,1
315,310,313,307,1
317,309,310,308,1
319,308,307,309,1
317,305,304,308,1
313,303,302,307,1
308,302,301,307,1
304,304,301,307,1
304,307,302,308,1
306,310,302,308,1
309,311,301,308,1
311,311,300,308,1
311,309,298,308,1
309,305,296,308,1
308,301,295,308,1
306,297,294,307,1
304,293,295,307,1
304,291,296,307,1
304,291,298,308,1
305,292,301,309,1
307,296,304,309,1
308,301,309,309,1
308,306,311,308,1
308,309,311,307,1
308,310,309,306,1
309,310,307,305,1
310,309,305,304,1
311,308,303,303,1
310,307,302,303,1
308,305,300,304,1
302,302,297,304,1
297,298,294,304,1
294,294,292,306,1
294,291,289,307,1
295,290,289,308,1
297,291,290,309,1
300,295,293,310,1
301,299,298,310,1
301,302,303,311,1
299,306,307,311,1
298,310,310,312,1
298,314,313,313,1
298,316,313,313,1
298,316,312,312,1
298,316,311,311,1
298,314,310,310,1
298,313,310,309,1
298,312,311,309,1
298,310,311,310,1
298,306,309,309,1
298,302,306,309,1
298,299,303,309,1
299,297,301,308,1
299,296,299,308,1
300,297,299,308,1
301,299,302,309,1
302,302,305,310,1
302,305,308,310,1
302,308,310,309,1
303,310,310,309,1
303,311,310,308,1
303,313,310,307,1
302,314,310,306,1
302,314,311,305,1
301,315,312,304,1
299,315,313,304,1
298,315,313,305,1
297,316,313,306,1
297,316,312,307,1
299,314,311,308,1
302,312,311,310,1
305,310,311,310,1
306,308,312,310,1
306,306,314,310,1
306,304,316,311,1
305,303,318,311,1
304,302,317,311,1
304,300,314,310,1
305,299,310,310,1
307,299,305,310,1
309,302,302,309,1
311,304,300,308,1
313,306,298,306,1
313,308,297,305,1
310,310,298,305,1
307,312,299,304,1
306,312,301,304,1
305,312,303,303,1
305,312,305,303,1
305,312,307,303,1
307,312,310,305,1
310,313,312,307,1
313,313,314,310,1
314,312,315,311,1
313,309,314,312,1
312,308,312,312,1
310,307,308,312,1
304,305,304,310,1
297,302,300,308,1
292,301,296,307,1
288,300,293,307,1
287,300,293,307,1
288,302,295,307,1
290,304,298,308,1
292,307,301,308,1
294,309,304,309,1
296,311,306,309,1
297,312,308,308,1
296,312,309,308,1
296,312,308,308,1
294,311,308,307,1
294,310,307,307,1
295,309,307,306,1
296,308,306,306,1
297,306,306,306,1
299,306,307,307,1
300,306,309,307,1
301,306,310,308,1
302,307,310,308,1
303,307,308,307,1
303,306,305,306,1
302,305,303,306,1
302,306,303,307,1
301,308,304,308,1
301,309,305,309,1
301,309,306,310,1
299,308,307,310,1
298,307,307,310,1
296,307,308,310,1
297,306,309,311,1
299,305,309,311,1
302,302,308,312,1
304,299,306,312,1
303,295,304,311,1
300,291,302,310,1
297,289,301,309,1
294,289,303,308,1
293,290,305,308,1
295,294,307,308,1
298,298,308,308,1
302,303,308,309,1
305,308,309,310,1
308,311,309,310,1
310,312,310,311,1
313,312,310,311,1
313,311,309,311,1
311,309,308,311,1
306,306,308,311,1
302,305,307,310,1
299,304,307,309,1
298,305,306,309,1
298,306,305,307,1
298,307,305,306,1
298,306,304,304,1
298,306,305,303,1
299,305,305,304,1
299,304,305,304,1
298,302,304,303,1
296,299,301,300,1
294,297,298,298,1
294,296,295,296,1
295,298,292,297,1
298,302,294,301,1
302,308,298,305,1
306,313,303,309,1
310,318,308,312,1
312,323,312,313,1
313,325,314,313,1
315,325,315,314,1
316,325,316,315,1
317,322,315,315,1
317,320,315,316,1
316,318,315,316,1
315,317,314,316,1
313,317,314,315,1
309,316,312,313,1
304,314,310,312,1
299,312,306,310,1
295,309,303,308,1
294,307,301,307,1
294,307,299,307,1
295,307,298,306,1
296,309,298,306,1
297,310,298,305,1
298,311,298,306,1
299,312,299,305,1
299,313,302,305,1
299,313,304,304,1
298,313,308,302,1
297,312,311,301,1
297,311,313,300,1
296,309,314,299,1
296,307,314,299,1
295,304,312,300,1
295,302,310,300,1
295,302,307,300,1
295,302,304,300,1
296,305,303,302,1
298,309,305,303,1
301,311,308,304,1
303,311,312,304,1
303,312,316,304,1
303,312,321,305,1
303,313,324,307,1
302,313,323,307,1
301,313,319,306,1
299,313,313,305,1
296,312,307,305,1
295,310,303,304,1
297,307,299,304,1
300,304,297,304,1
303,302,296,304,1
306,300,297,305,1
308,300,300,306,1
309,301,302,307,1
310,302,303,307,1
310,303,303,307,1
311,305,302,306,1
313,307,302,306,1
315,310,302,307,1
316,312,302,308,1
314,313,302,308,1
309,313,302,308,1
303,313,302,306,1
297,312,301,305,1
293,312,302,304,1
291,313,304,304,1
290,315,305,304,1
292,318,306,304,1
296,319,306,304,1
301,319,305,305,1
307,317,304,306,1
312,312,302,307,1
315,307,300,308,1
316,303,299,308,1
315,300,298,308,1
311,298,298,307,1
306,296,298,307,1
301,296,298,307,1
298,299,301,307,1
296,304,306,308,1
297,309,310,309,1
298,314,313,311,1
299,318,315,312,1
301,319,315,313,1
302,319,313,313,1
302,318,311,313,1
302,316,308,312,1
304,315,307,311,1
306,314,306,310,1
309,314,305,309,1
310,313,304,308,1
310,312,304,307,1
309,310,304,306,1
307,308,304,307,1
306,307,304,308,1
304,306,303,309,1
303,307,303,310,1
304,309,303,310,1
305,312,304,310,1
306,313,305,309,1
307,314,305,308,1
308,313,306,308,1
307,312,307,308,1
306,311,308,307,1
306,311,309,307,1
306,311,313,307,1
308,311,318,308,1
310,312,322,308,1
312,312,324,308,1
314,312,322,308,1
315,312,318,307,1
315,312,314,306,1
314,312,312,304,1
311,311,310,303,1
308,310,307,302,1
305,309,306,302,1
304,309,306,303,1
304,310,306,304,1
303,311,306,305,1
303,312,304,306,1
303,312,302,306,1
303,312,300,306,1
302,310,297,306,1
302,307,295,305,1
301,304,292,303,1
301,303,290,301,1
301,302,290,301,1
302,303,290,301,1
302,303,290,302,1
304,304,291,303,1
307,306,293,304,1
312,308,296,305,1
317,311,301,307,1
322,313,306,310,1
326,316,312,311,1
326,317,316,312,1
325,317,318,312,1
321,316,318,311,1
316,316,318,310,1
310,315,316,309,1
306,315,313,309,1
303,315,311,309,1
303,317,311,310,1
304,319,311,310,1
306,321,312,310,1
307,322,312,311,1
309,321,312,311,1
309,320,312,312,1
310,316,312,314,1
310,313,312,315,1
309,310,312,315,1
307,307,312,315,1
305,305,310,314,1
302,303,309,313,1
301,303,308,312,1
300,304,308,311,1
299,305,308,310,1
298,305,307,309,1
298,306,306,308,1
298,307,306,307,1
298,310,308,306,1
298,312,311,306,1
299,314,313,305,1
301,315,314,305,1
303,314,314,305,1
305,313,315,306,1
308,311,314,307,1
310,309,313,307,1
311,307,311,308,1
312,306,308,310,1
311,307,305,311,1
309,308,305,312,1
307,310,306,313,1
306,311,309,314,1
305,311,312,314,1
304,309,313,314,1
302,306,312,314,1
302,304,310,314,1
302,304,308,313,1
303,306,306,312,1
304,307,305,310,1
305,308,305,309,1
306,310,305,309,1
307,311,305,309,1
307,311,305,309,1
306,310,305,308,1
306,309,304,308,1
306,307,303,307,1
305,304,302,306,1
305,301,301,305,1
305,298,302,305,1
305,297,303,304,1
305,298,305,304,1
306,300,307,303,1
306,303,307,302,1
306,305,308,301,1
306,305,309,301,1
307,305,309,302,1
308,305,308,304,1
309,304,307,305,1
310,304,304,305,1
311,303,301,305,1
312,300,297,304,1
315,297,294,303,1
319,296,293,304,1
324,298,296,304,1
327,301,301,305,1
326,305,306,306,1
323,307,311,306,1
318,307,313,306,1
314,306,314,306,1
311,304,314,305,1
308,300,312,304,1
306,297,311,304,1
305,298,311,304,1
305,302,312,304,1
305,306,314,304,1
306,309,315,305,1
308,311,314,306,1
308,312,313,307,1
308,311,310,308,1
307,311,307,307,1
306,311,305,306,1
306,311,304,306,1
306,310,302,305,1
306,309,300,304,1
306,307,299,302,1
305,304,299,301,1
303,302,300,300,1
303,301,303,299,1
304,302,307,300,1
307,306,311,301,1
310,310,315,301,1
312,313,317,301,1
313,313,318,303,1
314,312,319,304,1
314,311,318,305,1
314,309,319,307,1
314,308,321,311,1
315,307,323,313,1
316,306,322,314,1
317,307,318,314,1
318,308,312,314,1
318,309,306,311,1
315,310,303,309,1
311,310,302,307,1
308,311,303,306,1
304,310,302,305,1
301,310,300,305,1
300,309,299,305,1
299,309,297,306,1
299,310,296,306,1
299,310,297,306,1
300,309,298,306,1
301,309,300,306,1
303,309,301,306,1
304,308,302,305,1
305,307,302,305,1
306,306,302,304,1
306,306,302,304,1
306,306,303,305,1
306,306,303,306,1
305,307,303,307,1
305,308,303,308,1
304,308,303,309,1
304,306,303,309,1
303,304,303,308,1
301,301,302,306,1
299,297,301,305,1
296,294,300,304,1
292,290,299,303,1
290,287,298,303,1
291,286,298,304,1
296,288,301,305,1
303,292,305,307,1
310,295,309,309,1
315,299,310,310,1
317,303,312,310,1
316,308,312,310,1
313,312,313,309,1
313,314,314,310,1
313,317,315,312,1
313,319,317,314,1
311,320,316,316,1
308,320,314,316,1
305,318,312,316,1
303,316,310,314,1
301,314,308,312,1
302,312,307,311,1
303,311,307,310,1
304,309,307,310,1
305,309,305,310,1
305,308,304,309,1
305,307,302,309,1
305,306,300,308,1
305,305,298,307,1
304,303,297,306,1
302,303,297,306,1
301,303,299,307,1
302,305,301,307,1
302,307,303,308,1
302,309,305,308,1
302,312,307,309,1
302,313,309,309,1
302,314,310,309,1
301,314,311,309,1
301,315,310,308,1
300,315,311,308,1
300,315,311,307,1
301,313,311,305,1
301,311,310,304,1
301,309,310,303,1
302,307,309,303,1
304,304,308,304,1
307,302,307,306,1
311,301,305,308,1
316,300,303,309,1
320,302,303,309,1
322,303,303,309,1
324,305,306,308,1
323,307,310,308,1
322,308,312,307,1
319,309,312,306,1
314,308,310,306,1
309,307,308,306,1
303,306,307,306,1
299,304,306,306,1
298,303,307,307,1
299,304,310,308,1
303,306,313,310,1
307,307,314,311,1
310,309,315,311,1
311,310,314,311,1
310,310,313,309,1
307,310,312,308,1
303,310,311,306,1
300,309,309,305,1
298,308,306,304,1
296,305,304,303,1
296,303,301,303,1
296,301,297,303,1
296,299,294,302,1
297,299,291,303,1
298,299,290,302,1
299,299,289,302,1
300,299,289,302,1
300,298,289,302,1
301,298,291,303,1
301,300,296,304,1
303,304,303,306,1
305,309,310,308,1
307,313,316,309,1
307,315,319,310,1
306,316,320,310,1
305,317,320,310,1
304,318,319,310,1
304,319,319,309,1
305,319,319,308,1
307,319,318,306,1
310,319,315,306,1
313,320,313,306,1
313,319,311,307,1
312,318,309,308,1
310,315,308,309,1
307,312,307,308,1
304,308,305,306,1
302,305,304,304,1
300,303,303,303,1
302,302,304,305,1
306,302,305,308,1
310,303,305,310,1
314,304,305,312,1
315,305,305,313,1
315,305,303,312,1
312,305,301,312,1
309,306,299,311,1
306,306,298,310,1
305,306,296,310,1
304,305,294,310,1
305,303,293,310,1
305,302,293,310,1
304,300,293,309,1
304,298,293,309,1
303,295,293,308,1
302,292,293,308,1
302,290,292,308,1
302,291,293,308,1
303,295,295,309,1
305,300,299,309,1
307,305,302,310,1
309,308,303,310,1
310,310,304,310,1
312,310,306,311,1
315,309,306,311,1
317,308,307,311,1
320,308,307,310,1
320,309,308,309,1
319,311,308,308,1
315,312,308,305,1
310,313,308,303,1
305,314,307,302,1
304,315,307,303,1
305,315,306,303,1
306,313,305,303,1
306,310,303,303,1
305,307,302,304,1
301,304,301,305,1
298,303,302,306,1
294,303,303,306,1
293,305,304,307,1
294,307,306,309,1
297,309,307,310,1
303,310,309,312,1
310,311,311,312,1
315,310,313,312,1
319,309,311,311,1
318,307,308,309,1
315,304,305,306,1
312,300,301,305,1
309,299,297,305,1
306,299,295,306,1
305,301,295,306,1
304,305,296,307,1
305,307,297,308,1
307,309,298,308,1
309,312,301,309,1
311,314,304,310,1
309,315,308,310,1
305,315,311,309,1
302,312,313,309,1
299,310,315,309,1
297,309,316,309,1
295,308,315,308,1
295,308,314,308,1
295,308,312,307,1
295,308,309,306,1
296,309,306,304,1
296,311,305,303,1
297,310,305,302,1
297,309,304,302,1
298,306,303,302,1
299,304,301,301,1
299,304,298,300,1
299,304,298,300,1
299,307,300,302,1
301,310,303,304,1
304,313,305,307,1
306,314,308,309,1
309,314,309,310,1
310,312,310,309,1
311,310,311,308,1
309,308,311,307,1
308,306,311,306,1
307,304,311,307,1
307,303,310,306,1
307,302,308,306,1
307,302,306,306,1
306,301,304,307,1
303,301,304,307,1
300,300,306,307,1
298,300,308,306,1
296,300,309,305,1
296,299,308,304,1
296,298,306,303,1
297,297,303,303,1
298,295,301,303,1
299,294,301,304,1
300,294,301,305,1
301,296,303,306,1
304,298,306,308,1
306,301,308,310,1
309,303,311,311,1
311,304,313,311,1
312,304,316,311,1
312,301,317,310,1
311,299,316,308,1
310,298,314,307,1
309,297,310,306,1
309,298,306,305,1
308,299,304,304,1
309,302,305,304,1
310,305,307,304,1
312,309,309,305,1
315,312,311,305,1
319,315,311,306,1
322,316,311,306,1
321,317,309,306,1
316,315,306,304,1
310,312,304,302,1
304,308,302,301,1
299,304,301,301,1
297,300,300,301,1
297,296,300,302,1
300,295,301,304,1
304,295,303,306,1
305,298,304,307,1
305,302,305,308,1
305,307,306,310,1
305,311,307,310,1
305,312,307,310,1
304,312,304,308,1
303,311,302,307,1
301,310,299,305,1
299,310,298,304,1
297,310,298,303,1
296,310,298,303,1
295,308,299,304,1
296,307,301,305,1
296,306,304,306,1
298,305,305,306,1
300,305,307,306,1
301,304,309,306,1
302,304,310,306,1
303,305,312,305,1
304,307,313,304,1
305,308,312,303,1
306,310,312,303,1
306,311,311,302,1
306,312,309,302,1
307,313,308,302,1
308,314,307,304,1
310,314,307,305,1
313,313,307,305,1
315,312,307,306,1
316,311,307,306,1
313,311,306,305,1
309,311,306,304,1
305,311,306,303,1
302,311,305,302,1
300,310,305,302,1
300,308,305,303,1
301,307,308,304,1
302,306,311,306,1
303,305,315,307,1
305,306,319,308,1
306,307,320,309,1
307,307,320,309,1
308,307,318,310,1
309,305,315,310,1
309,303,312,310,1
309,301,309,311,1
309,298,306,310,1
309,295,302,308,1
309,292,299,306,1
308,290,298,304,1
307,290,298,303,1
308,294,299,303,1
308,297,301,303,1
309,300,304,304,1
309,302,306,305,1
309,304,307,305,1
310,305,309,305,1
309,306,310,306,1
309,306,311,306,1
308,305,312,306,1
308,303,311,305,1
306,299,308,304,1
305,296,305,303,1
304,294,304,302,1
305,294,304,301,1
307,297,307,302,1
309,301,310,303,1
309,303,312,304,1
307,304,312,304,1
303,303,310,304,1
300,303,307,303,1
299,305,305,303,1
298,307,305,303,1
301,312,306,303,1
306,316,307,305,1
312,319,309,306,1
318,320,310,308,1
321,320,311,310,1
323,318,310,311,1
323,316,309,311,1
321,313,307,311,1
317,310,305,310,1
313,308,303,309,1
312,307,301,308,1
311,308,300,307,1
309,309,299,305,1
305,309,299,303,1
301,310,299,303,1
298,311,300,304,1
297,312,302,306,1
297,313,303,308,1
296,312,303,309,1
297,310,302,309,1
298,307,301,309,1
302,305,303,309,1
306,304,305,309,1
309,304,306,309,1
309,305,307,308,1
309,306,308,308,1
306,307,308,307,1
302,307,307,307,1
299,305,306,306,1
297,304,304,305,1
297,303,302,304,1
296,303,301,303,1
297,305,300,302,1
299,307,299,302,1
300,310,300,303,1
300,312,302,303,1
301,313,303,303,1
301,315,304,303,1
300,315,305,302,1
299,315,305,301,1
299,314,306,301,1
299,315,307,301,1
300,315,307,301,1
301,313,308,302,1
303,311,309,303,1
305,308,310,305,1
307,304,311,307,1
307,301,308,307,1
306,298,304,307,1
306,298,302,308,1
306,301,302,307,1
306,306,303,307,1
307,310,305,307,1
307,312,305,308,1
307,313,304,307,1
306,312,304,307,1
305,310,303,308,1
305,309,304,308,1
305,309,305,308,1
304,308,306,307,1
303,306,306,307,1
302,304,306,308,1
301,301,305,308,1
301,300,305,308,1
301,301,306,309,1
302,304,309,309,1
304,309,310,309,1
306,314,312,309,1
309,318,314,308,1
311,320,315,307,1
314,320,316,307,1
316,317,315,306,1
318,314,314,305,1
319,310,313,305,1
318,308,313,306,1
315,307,314,306,1
311,307,316,306,1
306,308,319,307,1
302,307,322,307,1
298,308,324,308,1
296,308,324,309,1
295,309,321,309,1
295,308,316,307,1
296,307,312,306,1
298,306,307,306,1
299,305,304,306,1
299,304,301,306,1
300,304,300,306,1
300,306,301,307,1
300,310,302,308,1
300,314,304,308,1
301,316,305,309,1
302,316,306,309,1
302,316,306,309,1
304,316,305,310,1
306,316,305,310,1
310,316,305,310,1
315,317,306,310,1
320,318,306,310,1
321,318,307,310,1
317,317,307,310,1
311,316,306,309,1
304,315,306,308,1
300,314,306,307,1
297,313,306,306,1
296,311,306,305,1
296,311,307,304,1
297,310,307,303,1
298,309,307,303,1
298,306,306,302,1
297,303,305,302,1
294,301,303,301,1
292,299,302,300,1
291,298,301,300,1
290,298,300,300,1
288,299,300,299,1
288,300,300,299,1
288,301,302,299,1
289,302,307,300,1
292,304,313,303,1
295,306,318,306,1
299,307,319,309,1
303,307,316,311,1
306,306,313,311,1
307,303,309,311,1
306,301,306,310,1
306,299,304,310,1
306,300,304,310,1
307,301,305,310,1
307,302,306,310,1
308,302,306,311,1
307,301,305,311,1
306,299,303,310,1
305,299,302,309,1
305,300,301,309,1
306,303,303,309,1
307,307,306,311,1
309,312,309,313,1
310,314,312,314,1
309,315,313,314,1
307,313,314,313,1
305,309,314,312,1
303,306,313,310,1
302,304,314,309,1
301,304,315,308,1
301,307,317,307,1
302,309,318,307,1
303,311,319,307,1
304,311,321,308,1
304,308,322,309,1
306,305,322,310,1
310,301,322,311,1
314,299,319,311,1
314,297,314,310,1
314,296,308,309,1
315,297,304,310,1
315,299,303,311,1
315,303,303,313,1
311,307,305,313,1
306,309,307,313,1
301,311,307,311,1
298,311,306,310,1
296,311,304,310,1
295,312,302,309,1
295,314,301,310,1
296,315,300,309,1
298,314,298,309,1
299,313,297,310,1
299,311,296,310,1
299,309,295,310,1
299,309,296,310,1
299,310,297,310,1
300,311,299,310,1
300,312,301,310,1
301,311,303,310,1
301,310,304,310,1
301,308,304,310,1
301,305,303,309,1
300,302,301,308,1
300,298,298,307,1
301,296,296,306,1
304,296,296,305,1
306,298,298,306,1
309,298,299,305,1
311,297,301,305,1
312,294,300,304,1
309,291,298,302,1
305,288,296,301,1
300,287,297,300,1
296,291,302,301,1
296,299,309,303,1
296,309,316,304,1
298,318,322,306,1
300,325,324,306,1
303,329,324,306,1
304,331,323,305,1
306,332,323,307,1
309,332,325,310,1
311,331,326,312,1
313,329,326,314,1
314,326,325,314,1
314,322,321,314,1
313,318,316,312,1
312,314,312,310,1
309,311,309,309,1
306,310,308,307,1
304,310,309,307,1
303,311,310,307,1
303,310,312,308,1
304,309,313,309,1
305,308,314,310,1
306,306,314,311,1
306,305,313,311,1
306,305,312,311,1
306,304,308,309,1
306,305,306,307,1
305,306,304,306,1
305,308,303,305,1
305,310,304,306,1
305,311,304,307,1
305,313,305,307,1
307,315,306,308,1
312,316,308,309,1
318,317,309,310,1
322,318,309,309,1
322,318,309,308,1
320,317,309,307,1
315,317,309,306,1
310,316,309,305,1
306,315,308,304,1
304,313,307,304,1
304,311,307,305,1
304,310,306,306,1
304,309,304,306,1
303,308,302,306,1
302,306,300,305,1
299,304,299,304,1
298,301,298,305,1
298,299,297,305,1
298,297,297,305,1
298,295,295,305,1
298,293,293,303,1
298,292,293,302,1
298,291,294,302,1
299,291,296,302,1
300,291,299,302,1
302,291,301,302,1
304,292,302,303,1
308,294,304,304,1
311,297,306,304,1
314,299,306,305,1
315,301,307,306,1
314,302,307,307,1
312,303,308,308,1
308,304,309,308,1
304,305,311,308,1
302,305,312,309,1
300,307,313,309,1
299,308,315,309,1
299,309,316,309,1
300,309,316,309,1
300,308,315,309,1
300,305,314,309,1
300,302,312,309,1
302,299,309,310,1
305,297,308,310,1
309,295,307,310,1
313,295,308,310,1
316,296,309,311,1
317,296,309,311,1
315,296,308,310,1
311,295,307,309,1
307,296,307,308,1
303,300,308,306,1
300,303,311,305,1
298,306,315,304,1
297,306,317,304,1
297,304,318,304,1
298,302,318,305,1
299,300,318,305,1
300,298,317,305,1
300,297,315,305,1
301,295,311,304,1
302,294,306,302,1
304,293,303,302,1
306,294,301,303,1
308,295,301,304,1
309,296,302,306,1
309,299,304,307,1
308,302,305,309,1
307,305,306,310,1
306,307,306,310,1
305,310,307,310,1
306,314,307,309,1
307,318,309,309,1
309,320,310,309,1
310,321,312,309,1
310,322,313,308,1
311,323,314,308,1
310,322,314,307,1
309,320,313,307,1
308,316,312,307,1
307,313,311,307,1
307,310,311,306,1
306,307,311,305,1
306,305,310,304,1
306,303,309,303,1
307,301,308,303,1
308,299,305,302,1
306,298,302,302,1
304,296,300,303,1
301,296,300,305,1
299,297,301,306,1
298,300,303,306,1
300,303,305,307,1
303,306,306,308,1
306,309,307,310,1
308,310,308,311,1
310,311,308,311,1
310,311,309,311,1
309,310,309,310,1
308,309,308,308,1
308,306,306,308,1
310,304,304,307,1
311,302,302,307,1
313,300,300,307,1
314,299,299,306,1
314,299,300,306,1
314,301,303,307,1
313,304,306,307,1
311,306,309,306,1
308,307,309,305,1
306,308,309,304,1
305,309,309,304,1
307,310,311,305,1
310,310,313,307,1
314,309,313,308,1
317,307,312,309,1
319,306,308,309,1
320,305,304,307,1
318,303,299,306,1
314,300,296,305,1
309,297,296,304,1
305,297,298,304,1
303,297,302,306,1
303,298,304,306,1
302,299,305,307,1
302,300,306,306,1
302,303,309,306,1
303,307,313,307,1
304,310,315,306,1
305,312,318,307,1
307,314,318,307,1
308,315,318,308,1
310,314,317,309,1
312,313,315,310,1
315,312,313,311,1
317,311,311,313,1
319,309,310,313,1
319,307,308,312,1
317,306,306,311,1
315,304,304,310,1
313,302,301,308,1
312,300,298,306,1
311,298,296,305,1
309,296,296,305,1
305,296,298,305,1
301,297,300,305,1
299,299,304,306,1
298,301,306,308,1
299,305,307,310,1
301,308,307,312,1
304,309,306,313,1
305,309,304,313,1
305,307,303,312,1
304,306,303,311,1
304,307,303,311,1
304,309,304,310,1
304,309,306,310,1
306,309,307,310,1
307,308,308,309,1
307,308,308,309,1
307,307,307,308,1
306,307,306,308,1
305,307,305,308,1
306,308,305,310,1
307,309,306,312,1
309,309,305,314,1
310,307,304,314,1
312,303,303,314,1
312,300,301,314,1
312,298,300,313,1
311,298,300,313,1
310,300,301,313,1
310,303,303,313,1
312,305,304,312,1
313,306,305,312,1
314,305,305,311,1
314,304,305,311,1
314,303,307,311,1
316,303,307,312,1
317,303,309,312,1
316,302,311,311,1
314,300,312,310,1
310,297,311,308,1
306,292,308,306,1
302,287,304,303,1
297,284,301,300,1
293,282,300,298,1
293,283,300,298,1
294,288,302,300,1
297,297,305,303,1
299,306,310,306,1
301,313,313,307,1
300,316,315,309,1
299,316,316,309,1
297,315,316,309,1
297,315,317,310,1
297,315,316,311,1
297,317,315,311,1
298,319,314,311,1
298,320,313,311,1
297,320,312,310,1
298,320,312,311,1
299,319,311,310,1
300,318,309,309,1
302,316,307,307,1
302,314,305,305,1
303,314,305,305,1
303,315,305,305,1
303,315,305,306,1
303,316,306,307,1
304,316,307,309,1
306,316,307,311,1
307,316,307,311,1
308,315,305,311,1
309,313,304,312,1
309,312,302,312,1
309,311,301,313,1
308,310,300,313,1
307,309,300,313,1
307,308,300,311,1
307,306,301,310,1
307,304,301,310,1
306,303,302,309,1
306,302,303,308,1
305,302,305,308,1
306,303,309,309,1
306,304,314,309,1
307,306,318,309,1
309,307,319,309,1
310,308,316,309,1
309,307,312,309,1
310,306,310,310,1
311,305,308,310,1
312,304,308,310,1
312,303,307,309,1
312,303,307,308,1
311,304,310,308,1
311,304,313,309,1
310,305,315,310,1
311,305,316,310,1
311,305,314,310,1
310,304,311,309,1
307,303,308,308,1
304,302,305,308,1
302,299,302,308,1
300,298,298,308,1
299,296,294,308,1
297,295,290,307,1
296,292,286,306,1
296,289,283,306,1
298,288,282,306,1
302,289,284,307,1
307,291,288,309,1
311,294,292,311,1
314,297,296,312,1
316,301,299,313,1
316,306,302,313,1
315,311,305,313,1
316,315,307,312,1
317,318,310,312,1
318,318,312,312,1
320,317,313,311,1
321,316,314,312,1
320,314,313,312,1
317,313,313,312,1
312,310,312,312,1
306,308,311,311,1
301,306,309,311,1
298,305,307,310,1
296,305,307,309,1
295,306,306,308,1
296,307,307,308,1
298,308,307,308,1
302,310,308,309,1
305,310,308,310,1
307,310,308,311,1
309,309,308,313,1
310,308,308,313,1
310,307,307,313,1
309,304,306,312,1
308,301,306,313,1
307,298,306,312,1
306,297,307,311,1
305,297,308,311,1
305,300,309,312,1
305,303,309,312,1
304,305,309,312,1
303,305,308,311,1
302,304,307,311,1
304,303,306,311,1
306,302,304,310,1
308,303,302,309,1
309,304,301,309,1
311,306,302,309,1
311,309,304,310,1
310,312,308,311,1
308,314,310,311,1
307,315,310,312,1
307,314,310,311,1
308,311,309,310,1
309,308,308,311,1
310,306,308,311,1
309,306,310,311,1
310,307,312,312,1
310,309,313,312,1
311,310,314,312,1
311,309,314,312,1
311,308,313,312,1
310,308,312,311,1
309,308,313,311,1
309,309,314,310,1
310,311,314,310,1
310,312,313,308,1
311,311,309,307,1
312,309,304,306,1
313,306,298,305,1
315,304,293,305,1
318,301,289,305,1
319,299,287,306,1
319,296,286,306,1
316,294,288,305,1
310,294,292,305,1
304,295,296,306,1
297,294,300,306,1
293,293,303,307,1
293,294,305,308,1
295,296,306,310,1
297,301,307,312,1
300,306,308,314,1
303,311,308,315,1
304,317,307,316,1
304,321,307,315,1
304,322,307,314,1
303,320,308,314,1
301,317,308,313,1
298,313,308,313,1
296,308,308,312,1
294,305,309,313,1
294,303,310,313,1
295,303,312,313,1
296,303,313,313,1
298,303,315,312,1
301,305,315,312,1
303,306,315,310,1
306,307,314,309,1
308,307,312,309,1
310,306,310,309,1
310,306,308,309,1
309,307,305,309,1
307,308,303,309,1
305,311,304,309,1
305,311,305,310,1
304,311,306,310,1
302,309,307,310,1
301,308,307,310,1
301,308,307,310,1
302,310,307,311,1
303,314,308,312,1
305,316,310,314,1
307,318,311,315,1
309,318,311,315,1
310,318,309,314,1
310,316,307,312,1
308,313,305,311,1
306,311,304,309,1
304,310,303,308,1
303,309,300,307,1
302,307,300,307,1
302,305,300,308,1
305,304,300,308,1
307,304,301,309,1
309,303,301,308,1
310,302,301,307,1
310,302,301,306,1
309,303,302,305,1
307,305,304,304,1
305,306,305,305,1
304,307,306,305,1
303,308,306,305,1
302,309,306,305,1
301,310,305,305,1
301,310,303,304,1
301,310,302,302,1
300,309,300,300,1
301,308,298,300,1
301,305,296,301,1
302,303,297,302,1
304,302,299,304,1
307,303,304,306,1
310,303,308,308,1
314,303,311,308,1
318,302,310,307,1
321,302,306,306,1
323,303,303,305,1
323,305,302,305,1
321,309,303,306,1
314,312,305,305,1
308,312,306,305,1
301,311,307,304,1
296,308,307,304,1
293,304,305,304,1
292,302,305,304,1
292,302,306,306,1
295,304,307,308,1
299,307,309,310,1
305,309,310,312,1
310,311,311,313,1
314,311,310,313,1
317,312,309,313,1
319,313,308,313,1
319,313,308,311,1
316,312,307,309,1
310,311,306,306,1
304,310,307,306,1
298,309,308,307,1
294,309,310,308,1
293,310,312,309,1
293,310,311,308,1
293,310,309,307,1
294,310,306,307,1
296,311,305,307,1
299,311,304,307,1
301,310,302,307,1
302,307,301,306,1
302,303,299,306,1
302,300,299,306,1
302,296,298,305,1
302,293,298,304,1
302,292,299,304,1
302,292,301,305,1
302,296,304,305,1
303,299,306,306,1
303,302,306,307,1
302,304,305,307,1
301,304,304,307,1
299,304,304,308,1
297,303,304,309,1
295,304,304,309,1
294,305,305,309,1
294,306,306,309,1
296,307,306,308,1
300,307,306,308,1
305,306,305,308,1
307,304,303,307,1
307,302,302,305,1
308,302,301,305,1
309,304,300,305,1
310,304,299,306,1
311,305,300,308,1
313,306,302,310,1
313,306,304,311,1
312,304,306,311,1
309,301,305,310,1
306,300,305,308,1
302,298,305,306,1
301,298,303,306,1
300,296,301,306,1
302,295,300,306,1
305,294,301,306,1
311,294,302,307,1
316,295,302,309,1
322,297,300,310,1
325,299,297,310,1
325,302,294,308,1
321,304,291,307,1
315,306,288,306,1
309,309,288,305,1
305,312,291,307,1
303,317,296,308,1
303,320,302,310,1
303,322,305,311,1
303,323,307,311,1
302,323,307,310,1
301,322,306,309,1
300,320,306,308,1
300,318,305,308,1
302,317,306,309,1
305,317,308,310,1
308,316,309,311,1
311,315,310,312,1
311,313,310,311,1
309,311,310,310,1
306,309,309,309,1
302,309,311,309,1
299,310,313,310,1
297,311,316,310,1
299,310,318,311,1
302,310,317,312,1
306,311,316,312,1
311,313,315,312,1
315,313,313,313,1
317,314,312,313,1
317,314,312,313,1
315,313,312,313,1
312,311,311,314,1
309,309,310,313,1
306,308,310,313,1
302,307,310,313,1
299,306,311,312,1
297,305,312,311,1
296,304,313,311,1
294,302,313,311,1
294,299,311,311,1
294,296,309,311,1
295,292,306,311,1
295,289,304,311,1
293,289,304,310,1
292,290,305,310,1
291,293,307,309,1
289,299,310,308,1
289,304,313,307,1
292,308,315,307,1
296,310,317,308,1
299,309,316,309,1
301,308,312,310,1
302,305,306,309,1
302,301,300,308,1
303,296,296,308,1
303,294,294,309,1
303,295,297,310,1
305,297,301,312,1
307,299,305,313,1
307,301,308,313,1
308,302,311,312,1
308,303,313,312,1
308,306,314,312,1
308,308,314,311,1
307,309,313,310,1
305,309,313,310,1
304,309,312,309,1
301,308,311,308,1
300,307,311,308,1
300,308,311,308,1
301,309,312,309,1
302,310,314,309,1
302,310,314,308,1
302,307,312,306,1
302,304,309,304,1
303,302,307,303,1
306,300,308,304,1
310,300,310,306,1
314,302,313,309,1
317,305,315,311,1
317,309,315,313,1
314,311,313,313,1
309,313,310,313,1
306,315,308,313,1
305,317,307,313,1
305,318,308,313,1
307,318,307,313,1
308,317,307,314,1
309,315,306,314,1
309,314,305,314,1
307,313,304,313,1
304,313,301,313,1
300,312,299,313,1
298,313,299,313,1
298,313,302,313,1
299,313,305,314,1
300,313,306,315,1
300,311,307,314,1
302,309,306,314,1
304,307,305,313,1
306,304,305,313,1
307,303,304,312,1
308,302,304,312,1
310,300,305,312,1
313,299,305,313,1
315,298,304,312,1
316,296,303,312,1
313,294,301,310,1
310,295,301,309,1
307,296,301,309,1
304,298,303,309,1
300,301,305,310,1
297,305,307,311,1
293,310,310,313,1
292,314,313,314,1
293,316,316,315,1
296,318,318,316,1
300,318,320,315,1
302,317,320,314,1
303,314,318,312,1
303,310,314,310,1
303,306,312,308,1
302,302,311,306,1
303,298,311,305,1
303,295,311,305,1
303,292,310,304,1
303,291,307,304,1
304,292,304,305,1
305,295,303,305,1
304,298,302,306,1
302,299,301,305,1
300,300,301,305,1
299,302,302,305,1
299,304,304,305,1
299,307,307,305,1
299,308,308,305,1
300,308,309,306,1
301,306,310,305,1
302,303,310,305,1
303,301,311,305,1
303,300,312,304,1
305,301,314,305,1
307,305,316,305,1
310,309,318,306,1
312,313,318,306,1
312,316,319,306,1
310,317,318,307,1
307,318,316,308,1
306,318,314,310,1
305,317,311,310,1
305,315,309,311,1
304,315,308,311,1
304,314,307,310,1
304,313,306,310,1
303,312,306,309,1
303,311,306,310,1
303,311,307,311,1
303,310,308,311,1
304,309,308,310,1
305,310,310,310,1
306,310,311,310,1
309,312,312,310,1
313,312,312,311,1
317,313,311,312,1
319,312,309,314,1
320,311,306,316,1
318,308,304,316,1
314,306,303,316,1
310,305,301,316,1
304,305,301,314,1
300,307,302,314,1
298,312,303,314,1
297,317,305,313,1
298,319,306,313,1
298,319,307,312,1
299,318,307,311,1
299,317,307,310,1
299,314,306,308,1
300,310,304,307,1
302,306,302,307,1
303,304,301,307,1
304,303,301,307,1
305,302,301,308,1
306,302,300,308,1
306,301,301,309,1
305,301,301,310,1
304,301,301,310,1
304,301,302,311,1
304,300,302,310,1
305,298,301,310,1
305,296,300,309,1
307,295,299,308,1
310,297,301,308,1
315,300,305,309,1
320,303,308,312,1
324,305,310,314,1
327,306,311,316,1
328,306,311,317,1
327,306,312,316,1
323,305,311,314,1
317,303,310,312,1
313,302,309,312,1
311,304,310,311,1
310,307,311,311,1
311,310,312,310,1
310,312,311,309,1
309,313,311,307,1
306,313,311,306,1
304,312,313,306,1
302,312,313,306,1
301,311,312,307,1
300,310,308,308,1
299,310,305,308,1
298,310,303,309,1
299,311,303,310,1
300,311,304,310,1
303,310,306,310,1
306,308,306,311,1
309,305,306,311,1
312,302,305,310,1
313,302,304,310,1
313,303,303,309,1
311,305,303,307,1
307,307,301,306,1
304,306,299,304,1
303,304,297,303,1
302,302,296,303,1
302,301,296,303,1
302,302,297,304,1
302,303,298,304,1
303,305,300,305,1
303,307,302,305,1
303,307,304,306,1
304,308,305,307,1
305,308,307,308,1
307,310,309,310,1
308,311,309,312,1
309,313,309,313,1
310,313,310,313,1
310,312,309,313,1
312,311,309,313,1
315,310,308,313,1
318,311,308,313,1
321,312,307,312,1
322,315,307,311,1
320,318,307,310,1
316,319,306,308,1
311,318,305,307,1
309,316,304,308,1
308,312,305,308,1
308,306,305,309,1
309,301,304,309,1
307,298,303,309,1
302,296,303,309,1
299,297,305,310,1
297,298,306,311,1
294,299,307,311,1
292,299,308,311,1
292,297,308,310,1
295,294,307,309,1
299,293,305,308,1
304,294,304,308,1
309,296,302,308,1
312,298,301,307,1
314,300,300,306,1
313,301,298,305,1
310,301,297,304,1
308,301,296,304,1
305,301,295,303,1
303,302,294,302,1
301,302,294,301,1
300,301,295,300,1
300,301,297,301,1
301,300,300,302,1
302,298,303,303,1
303,297,305,304,1
305,297,306,304,1
306,297,308,304,1
308,297,310,304,1
309,299,311,304,1
310,301,310,305,1
310,303,308,306,1
310,304,306,306,1
309,305,304,305,1
309,305,302,304,1
310,306,302,304,1
311,308,302,305,1
310,311,304,306,1
308,314,307,307,1
306,318,310,308,1
305,319,312,308,1
303,320,314,309,1
302,319,316,309,1
301,318,317,309,1
300,317,317,309,1
300,317,318,309,1
300,317,319,309,1
300,317,321,309,1
301,314,322,309,1
303,311,320,308,1
304,308,315,307,1
305,306,310,306,1
305,305,307,306,1
305,305,305,306,1
305,305,304,307,1
306,303,304,307,1
307,301,303,307,1
308,300,302,308,1
308,298,302,308,1
308,298,303,309,1
309,300,306,311,1
312,304,309,313,1
313,309,313,314,1
314,313,316,314,1
315,316,316,314,1
313,315,314,312,1
311,313,312,310,1
308,309,310,308,1
305,307,310,308,1
302,306,311,306,1
300,305,311,307,1
302,304,310,307,1
303,305,309,308,1
304,306,309,308,1
304,306,309,309,1
304,307,307,310,1
304,307,305,309,1
305,307,303,309,1
306,307,302,310,1
307,305,301,310,1
307,303,299,310,1
306,298,297,310,1
306,294,294,309,1
305,291,294,309,1
306,292,296,309,1
307,296,300,309,1
309,300,305,310,1
311,302,308,310,1
312,303,309,310,1
313,303,308,310,1
312,301,306,308,1
311,298,303,306,1
310,296,302,304,1
310,297,302,303,1
311,297,303,303,1
313,297,304,303,1
314,297,305,303,1
316,298,307,305,1
316,299,307,306,1
314,300,305,307,1
310,301,304,308,1
306,303,303,309,1
303,305,303,309,1
302,307,304,310,1
302,309,305,309,1
303,312,306,309,1
305,314,308,309,1
306,315,310,309,1
306,316,310,309,1
307,315,310,308,1
309,314,309,306,1
312,313,308,305,1
313,311,307,305,1
311,308,307,305,1
309,306,306,305,1
307,306,306,305,1
306,306,306,305,1
305,307,306,305,1
306,308,306,305,1
306,309,307,306,1
305,309,307,307,1
304,309,306,308,1
304,309,303,309,1
305,308,301,310,1
307,306,299,310,1
311,303,299,310,1
315,300,300,311,1
318,299,301,313,1
318,302,302,314,1
316,305,304,314,1
311,306,306,313,1
306,307,309,312,1
301,307,311,311,1
297,308,312,310,1
294,308,312,310,1
293,309,312,309,1
293,311,312,309,1
295,314,312,308,1
298,315,312,306,1
299,314,311,304,1
299,314,311,303,1
298,312,311,302,1
297,311,311,302,1
297,308,311,302,1
299,306,310,304,1
301,304,309,304,1
302,301,307,303,1
303,299,305,303,1
303,298,302,303,1
304,296,300,302,1
305,296,298,303,1
306,297,297,304,1
307,298,296,304,1
308,300,295,304,1
308,299,294,304,1
309,296,292,305,1
308,294,291,306,1
308,293,291,307,1
307,293,290,307,1
306,296,292,307,1
307,301,295,308,1
309,307,301,310,1
312,313,306,312,1
313,317,310,313,1
314,318,312,314,1
313,318,312,314,1
311,316,311,314,1
310,314,310,313,1
308,312,308,313,1
308,311,307,313,1
309,311,308,313,1
309,310,309,312,1
309,311,309,312,1
310,311,310,311,1
310,312,310,311,1
311,313,311,310,1
311,314,312,310,1
313,314,312,310,1
316,315,312,310,1
319,314,312,310,1
321,314,311,310,1
322,313,310,310,1
321,311,309,310,1
319,309,307,308,1
314,307,304,306,1
309,305,301,305,1
303,304,300,304,1
299,304,301,304,1
297,304,301,303,1
297,304,303,303,1
299,304,305,304,1
303,304,305,306,1
308,304,304,307,1
312,305,303,309,1
316,306,302,309,1
318,307,303,310,1
318,310,304,310,1
315,313,306,311,1
