337,319,306,311,0
335,313,307,311,0
334,306,307,311,0
334,298,308,310,0
334,288,308,311,0
336,283,308,311,0
336,281,306,310,0
336,279,305,309,0
336,275,303,309,0
333,273,304,310,0
330,278,306,311,0
329,291,309,312,0
329,306,311,312,0
328,320,310,310,0
327,330,308,308,0
327,336,305,306,0
327,337,303,305,0
327,331,301,304,0
327,322,301,304,0
328,313,302,306,0
330,310,303,308,0
332,313,305,310,0
334,315,307,311,0
333,312,306,310,0
332,307,305,309,0
331,303,305,308,0
330,305,305,308,0
331,311,306,308,0
332,314,305,307,0
333,314,305,306,0
333,311,303,305,0
331,308,303,304,0
331,303,304,306,0
332,297,307,308,0
332,293,311,311,0
333,290,314,313,0
334,290,317,313,0
333,291,317,311,0
331,290,314,308,0
330,290,309,303,0
329,294,306,299,0
330,299,304,295,0
330,304,302,293,0
331,308,301,291,0
334,313,302,291,0
337,318,304,292,0
339,320,307,295,0
338,315,309,297,0
335,310,308,298,0
331,304,306,299,0
328,297,305,301,0
327,294,305,303,0
328,298,306,305,0
330,299,306,309,0
330,289,306,313,0
329,270,306,316,0
328,250,307,318,0
327,239,308,320,0
326,240,310,320,0
327,251,311,319,0
326,264,312,318,0
325,271,313,316,0
323,277,314,315,0
322,287,314,314,0
321,299,313,312,0
320,314,311,311,0
320,329,309,311,0
320,343,308,311,0
321,354,308,311,0
324,361,307,311,0
325,357,306,311,0
325,346,304,310,0
323,332,304,310,0
321,318,304,309,0
320,307,306,309,0
321,302,309,309,0
323,300,312,309,0
325,303,314,308,0
327,307,314,306,0
328,311,311,304,0
329,313,310,304,0
331,316,310,304,0
333,317,311,305,0
333,317,312,304,0
332,317,311,303,0
328,316,309,302,0
325,314,306,302,0
321,309,304,303,0
318,301,303,305,0
315,288,303,306,0
314,274,303,307,0
312,263,304,307,0
312,258,305,308,0
313,261,306,308,0
315,268,306,308,0
317,275,307,309,0
319,282,307,310,0
322,292,308,312,0
326,301,310,313,0
329,306,311,313,0
329,307,310,312,0
328,307,308,310,0
327,306,306,309,0
326,306,303,308,0
325,304,301,306,0
325,301,300,306,0
327,296,301,306,0
328,290,301,305,0
327,287,301,304,0
326,290,303,303,0
325,301,304,303,0
325,320,305,303,0
326,337,306,304,0
326,341,306,305,0
325,330,306,305,0
323,315,304,304,0
320,307,302,303,0
319,306,301,302,0
318,307,301,301,0
318,306,301,300,0
320,310,301,298,0
321,317,300,297,0
322,323,301,296,0
323,324,302,295,0
322,318,303,296,0
320,303,305,298,0
318,285,307,300,0
315,269,308,301,0
312,259,308,303,0
309,260,309,305,0
309,267,310,308,0
311,281,311,311,0
314,296,311,312,0
317,304,309,311,0
319,305,306,310,0
321,303,302,307,0
322,299,301,305,0
324,296,301,304,0
325,297,302,305,0
326,297,304,306,0
324,293,305,307,0
323,290,307,308,0
323,290,310,310,0
324,296,311,310,0
325,302,311,309,0
325,312,308,307,0
324,324,306,306,0
324,335,303,306,0
323,343,301,306,0
323,344,301,308,0
322,336,304,311,0
321,324,307,314,0
320,310,311,316,0
319,297,313,317,0
318,288,313,316,0
320,288,313,316,0
323,296,313,316,0
326,301,313,316,0
326,300,312,315,0
324,296,310,315,0
322,292,308,314,0
320,289,308,314,0
320,293,308,314,0
320,304,308,314,0
320,314,309,313,0
320,319,308,314,0
320,315,307,314,0
320,307,306,314,0
321,298,306,314,0
321,293,306,313,0
322,294,306,312,0
321,298,307,310,0
322,307,308,309,0
323,312,308,306,0
321,310,308,304,0
318,307,306,302,0
314,303,305,300,0
312,298,304,298,0
312,296,305,299,0
313,297,306,300,0
314,300,306,301,0
315,299,306,302,0
315,296,307,303,0
314,293,307,304,0
314,292,308,306,0
316,293,310,308,0
317,297,311,311,0
321,308,314,314,0
324,320,315,316,0
324,324,314,316,0
323,323,313,315,0
322,316,313,313,0
320,307,312,313,0
319,299,310,313,0
317,292,309,312,0
315,287,309,311,0
314,280,310,310,0
314,273,311,310,0
316,273,312,311,0
319,283,312,312,0
321,294,312,311,0
323,304,311,312,0
324,310,309,310,0
321,312,307,309,0
317,314,306,308,0
314,317,307,309,0
313,319,309,310,0
313,321,311,312,0
316,320,313,313,0
318,316,316,315,0
320,314,317,316,0
321,313,317,316,0
322,309,316,316,0
324,302,315,315,0
326,292,314,315,0
325,282,312,314,0
324,279,310,312,0
323,285,309,309,0
320,296,307,306,0
317,306,306,303,0
315,317,304,300,0
313,327,304,297,0
313,335,303,295,0
313,340,301,295,0
314,344,300,297,0
315,348,301,300,0
316,347,302,303,0
315,339,302,306,0
313,324,302,309,0
312,306,304,312,0
313,291,306,313,0
315,281,307,314,0
317,274,306,310,0
318,266,304,306,0
319,264,300,301,0
319,268,297,297,0
317,271,296,294,0
313,272,297,294,0
310,271,301,298,0
308,271,306,303,0
310,278,311,310,0
314,292,315,315,0
317,307,316,317,0
319,322,314,317,0
320,333,311,316,0
320,338,309,315,0
318,337,307,315,0
316,333,305,315,0
313,326,303,315,0
312,318,302,315,0
312,309,301,315,0
312,301,300,314,0
313,299,300,314,0
314,303,302,314,0
316,303,303,314,0
317,296,305,315,0
317,288,306,315,0
318,287,308,315,0
321,295,310,316,0
325,307,312,317,0
327,316,313,317,0
328,316,313,317,0
327,310,314,318,0
326,300,314,318,0
324,288,313,317,0
320,274,310,316,0
317,263,308,314,0
315,258,307,312,0
314,266,307,310,0
313,280,307,307,0
310,290,306,304,0
308,291,306,302,0
307,288,305,300,0
306,282,304,299,0
306,278,305,301,0
305,275,306,303,0
305,274,308,306,0
306,277,308,308,0
309,282,308,309,0
312,288,307,309,0
316,297,306,309,0
319,308,305,308,0
319,319,304,307,0
318,326,302,307,0
316,327,300,307,0
313,322,301,308,0
311,317,302,309,0
309,314,303,309,0
311,315,305,310,0
313,316,307,310,0
314,313,306,309,0
312,309,303,307,0
310,311,302,307,0
311,315,303,307,0
313,319,304,307,0
315,322,305,306,0
316,325,305,306,0
316,326,304,305,0
315,324,304,305,0
314,320,303,305,0
314,314,302,305,0
313,303,300,304,0
312,291,299,304,0
312,283,298,304,0
311,274,298,305,0
310,266,299,305,0
309,264,301,307,0
308,269,303,307,0
307,278,305,308,0
306,286,305,308,0
307,291,304,308,0
309,294,304,308,0
311,293,304,308,0
312,290,304,307,0
313,289,305,306,0
316,297,307,304,0
319,310,308,301,0
323,322,307,298,0
326,328,306,295,0
325,325,304,294,0
323,314,301,293,0
320,303,300,294,0
319,301,301,296,0
318,305,302,298,0
316,313,304,300,0
316,324,305,302,0
315,330,307,304,0
313,322,308,305,0
311,304,306,304,0
308,283,304,303,0
308,266,302,302,0
308,258,300,300,0
309,263,297,297,0
311,279,294,294,0
312,298,292,294,0
315,315,293,295,0
317,330,297,299,0
320,346,302,303,0
323,362,306,307,0
324,371,309,309,0
324,366,310,310,0
323,352,310,310,0
322,336,311,310,0
322,326,311,309,0
322,324,313,310,0
322,327,314,311,0
321,327,314,311,0
317,319,312,309,0
312,301,309,309,0
309,275,306,309,0
308,246,305,309,0
309,220,305,310,0
312,206,307,311,0
314,213,309,313,0
317,239,312,314,0
318,266,313,313,0
317,281,313,313,0
314,285,313,312,0
311,281,312,312,0
308,272,313,313,0
308,264,314,313,0
311,259,314,314,0
315,261,314,314,0
319,270,311,312,0
322,284,309,310,0
325,299,307,309,0
325,310,307,309,0
323,313,306,309,0
319,311,306,309,0
315,314,306,310,0
312,322,305,310,0
310,327,304,309,0
310,331,303,308,0
311,334,304,307,0
312,334,306,307,0
312,326,308,306,0
311,314,309,304,0
310,303,309,303,0
309,296,309,303,0
310,293,308,303,0
312,292,306,304,0
314,295,306,305,0
316,299,307,306,0
318,301,308,308,0
320,298,309,309,0
321,293,310,310,0
320,290,310,311,0
319,289,311,312,0
317,286,311,314,0
314,280,311,315,0
310,276,311,316,0
307,275,310,315,0
305,281,309,314,0
305,292,308,312,0
307,305,309,311,0
311,314,312,311,0
313,317,313,310,0
314,320,312,310,0
315,325,312,309,0
314,327,311,307,0
312,320,309,305,0
310,309,308,303,0
307,297,308,301,0
304,284,308,299,0
302,275,309,298,0
299,270,309,296,0
296,269,308,295,0
294,273,305,294,0
294,277,302,295,0
294,284,301,295,0
296,291,301,298,0
299,296,302,302,0
302,302,304,306,0
306,307,306,310,0
309,311,308,313,0
311,312,307,313,0
310,306,305,313,0
308,299,303,311,0
306,291,303,310,0
305,281,304,309,0
305,270,306,310,0
305,266,309,311,0
307,268,312,312,0
310,277,314,311,0
311,292,315,309,0
311,307,313,306,0
308,319,308,301,0
304,325,303,297,0
302,328,298,294,0
302,331,298,293,0
306,332,301,293,0
310,330,306,296,0
313,323,312,300,0
313,318,316,304,0
314,314,319,308,0
314,313,318,311,0
313,313,317,313,0
312,308,315,314,0
309,294,313,315,0
305,277,311,314,0
301,261,309,314,0
298,254,309,313,0
298,258,309,314,0
300,269,311,314,0
302,282,311,313,0
304,296,310,312,0
305,308,307,310,0
305,315,305,308,0
306,319,304,306,0
306,321,304,305,0
306,323,305,304,0
305,322,305,303,0
304,318,305,303,0
304,316,306,305,0
305,317,308,307,0
308,317,310,310,0
310,312,310,311,0
312,305,309,311,0
312,297,307,309,0
311,293,304,306,0
309,296,301,303,0
308,300,299,299,0
308,301,298,296,0
309,299,297,295,0
310,292,300,297,0
311,282,304,301,0
313,276,308,304,0
315,280,311,306,0
317,290,313,307,0
317,297,313,306,0
314,298,311,304,0
311,295,308,303,0
309,294,308,305,0
310,301,311,310,0
314,313,314,315,0
319,324,317,318,0
322,333,318,319,0
322,340,316,319,0
321,344,313,316,0
318,342,309,313,0
315,336,305,310,0
312,326,302,308,0
308,309,301,307,0
303,286,301,306,0
298,265,301,306,0
295,254,304,308,0
295,254,307,309,0
297,264,309,310,0
299,275,311,310,0
300,285,309,309,0
301,291,306,306,0
301,294,304,304,0
301,296,305,303,0
303,302,307,305,0
305,310,310,306,0
307,317,313,309,0
308,323,314,311,0
308,325,314,311,0
307,324,312,311,0
306,324,310,310,0
306,324,309,310,0
306,321,308,309,0
306,313,306,309,0
304,300,304,310,0
302,286,303,311,0
301,272,304,314,0
301,260,305,316,0
302,251,306,317,0
304,251,306,315,0
307,267,305,313,0
310,298,304,312,0
314,330,304,312,0
317,351,305,312,0
318,361,307,313,0
319,363,308,313,0
318,350,307,313,0
314,322,307,311,0
309,286,307,310,0
305,258,307,310,0
302,245,308,309,0
300,249,307,308,0
300,264,306,308,0
302,279,305,307,0
304,284,304,306,0
305,274,305,307,0
306,263,308,307,0
305,263,310,306,0
304,274,312,306,0
301,287,312,305,0
299,298,310,304,0
297,308,307,303,0
297,321,304,302,0
297,333,302,301,0
297,340,301,301,0
298,342,301,300,0
300,337,302,299,0
302,331,304,300,0
305,326,305,301,0
309,324,306,303,0
312,324,307,304,0
315,327,308,305,0
318,336,309,306,0
320,348,310,306,0
322,356,311,305,0
323,351,312,304,0
320,336,312,304,0
316,318,311,304,0
311,303,310,304,0
306,292,310,305,0
303,286,311,307,0
302,284,311,308,0
304,286,312,309,0
309,293,313,308,0
312,299,310,306,0
313,301,307,303,0
314,300,304,301,0
313,297,303,300,0
312,289,302,301,0
309,279,300,302,0
306,270,299,302,0
303,266,299,303,0
303,269,298,303,0
304,276,299,302,0
304,280,301,302,0
304,282,303,302,0
304,285,305,303,0
304,288,307,304,0
304,293,308,307,0
305,300,309,310,0
307,306,310,313,0
309,311,311,314,0
311,315,310,313,0
309,320,307,308,0
306,323,303,304,0
304,323,301,299,0
303,314,301,296,0
303,299,302,294,0
303,283,304,291,0
304,270,305,289,0
304,266,304,288,0
306,276,305,291,0
311,295,306,297,0
317,309,306,303,0
320,315,306,307,0
321,316,306,310,0
321,320,306,312,0
319,327,306,314,0
316,336,306,315,0
312,341,305,317,0
309,344,304,317,0
307,340,303,318,0
305,327,302,318,0
304,309,302,318,0
304,293,304,319,0
306,287,306,321,0
309,291,309,322,0
312,302,311,321,0
313,317,313,320,0
314,328,312,318,0
312,333,311,315,0
308,335,309,312,0
305,335,307,310,0
302,330,307,309,0
300,318,306,308,0
298,302,305,308,0
296,284,304,308,0
296,268,304,309,0
298,257,304,310,0
300,255,306,311,0
302,258,308,313,0
302,263,309,313,0
301,268,307,311,0
299,275,305,309,0
297,280,303,306,0
296,287,302,303,0
295,295,302,300,0
295,304,302,299,0
295,315,303,300,0
297,320,304,302,0
299,319,304,304,0
300,318,303,306,0
302,324,301,307,0
304,333,300,308,0
305,340,299,308,0
305,340,298,308,0
304,332,298,308,0
304,323,298,309,0
304,315,299,310,0
306,312,302,311,0
309,312,304,312,0
310,312,305,313,0
308,310,305,312,0
306,308,305,312,0
305,304,305,312,0
305,299,306,312,0
304,291,307,312,0
302,284,308,312,0
301,278,308,311,0
302,279,309,310,0
304,288,309,308,0
306,306,309,306,0
309,332,310,303,0
312,360,310,302,0
312,373,310,300,0
310,365,308,299,0
304,339,305,299,0
298,308,304,300,0
294,286,303,303,0
293,278,303,305,0
293,277,303,307,0
294,276,302,308,0
295,268,301,308,0
296,253,299,309,0
297,235,298,310,0
298,219,299,310,0
300,212,302,311,0
302,211,304,310,0
303,216,305,310,0
304,226,305,309,0
304,244,305,309,0
305,270,306,310,0
306,301,308,310,0
305,329,308,309,0
303,347,307,307,0
302,355,307,306,0
302,357,307,304,0
303,356,307,304,0
306,354,308,304,0
308,352,309,304,0
308,350,308,302,0
306,344,306,302,0
304,337,304,301,0
303,333,303,301,0
302,330,303,302,0
301,324,304,303,0
300,312,305,304,0
299,298,307,306,0
297,289,308,308,0
296,285,309,309,0
296,288,309,309,0
296,299,308,308,0
299,314,307,307,0
301,324,305,306,0
304,330,302,305,0
305,333,301,304,0
306,334,299,304,0
306,333,297,303,0
305,331,296,303,0
304,328,296,303,0
305,324,297,304,0
305,317,297,304,0
302,305,297,302,0
300,293,297,300,0
299,282,299,300,0
300,277,304,301,0
303,276,309,302,0
306,274,313,305,0
307,271,316,307,0
306,264,317,308,0
303,257,316,307,0
301,257,314,306,0
301,270,312,305,0
302,286,309,302,0
303,299,305,299,0
303,306,303,298,0
302,306,301,297,0
302,300,301,297,0
302,293,302,299,0
304,292,304,302,0
306,296,306,305,0
306,298,306,307,0
306,297,306,307,0
304,294,306,308,0
302,293,306,308,0
301,298,307,310,0
301,305,309,312,0
301,311,309,313,0
301,316,307,313,0
302,324,306,313,0
305,336,307,314,0
308,351,308,314,0
309,360,308,314,0
309,356,306,313,0
307,343,304,312,0
304,327,303,311,0
301,316,303,311,0
300,311,303,311,0
298,311,302,310,0
296,312,300,310,0
295,313,300,311,0
295,312,302,313,0
297,311,303,315,0
298,311,304,316,0
298,309,304,316,0
298,306,304,315,0
298,303,303,314,0
297,301,302,314,0
296,300,302,314,0
297,299,302,314,0
297,296,303,314,0
298,291,304,314,0
300,286,308,316,0
304,283,312,318,0
306,286,316,320,0
307,296,319,321,0
306,303,319,321,0
301,300,315,319,0
296,289,310,318,0
291,276,306,316,0
289,267,303,315,0
291,269,301,315,0
294,279,301,315,0
297,293,301,315,0
298,303,303,315,0
299,307,305,316,0
299,305,306,316,0
301,302,307,318,0
304,300,308,318,0
305,299,308,317,0
306,298,308,315,0
305,300,307,313,0
303,302,306,311,0
302,303,304,309,0
301,304,304,308,0
300,304,304,308,0
300,306,304,308,0
301,309,303,309,0
302,313,303,310,0
302,315,305,311,0
303,319,308,313,0
304,322,312,315,0
304,314,317,315,0
302,296,319,315,0
298,278,320,314,0
293,263,318,312,0
290,254,316,311,0
290,257,314,310,0
291,270,312,308,0
292,283,307,306,0
293,293,303,306,0
295,302,301,306,0
297,313,301,307,0
299,325,302,309,0
299,334,302,308,0
299,339,301,308,0
299,344,301,308,0
301,348,302,308,0
302,351,303,309,0
303,350,304,310,0
303,345,304,311,0
302,337,304,311,0
300,329,304,311,0
298,320,304,310,0
297,310,304,311,0
298,301,304,311,0
299,293,305,312,0
301,285,307,313,0
305,279,310,314,0
307,278,312,314,0
309,281,311,313,0
308,281,309,311,0
306,279,306,310,0
304,279,303,308,0
303,285,302,307,0
304,299,302,308,0
307,318,304,309,0
309,331,306,309,0
308,329,305,307,0
304,318,304,305,0
302,304,303,302,0
300,292,303,301,0
301,285,305,301,0
302,283,308,304,0
303,288,311,307,0
302,297,313,310,0
301,306,312,312,0
298,314,310,312,0
297,317,307,311,0
295,314,305,311,0
294,305,305,312,0
296,294,306,313,0
297,281,307,315,0
297,272,307,316,0
297,269,306,315,0
294,270,303,313,0
292,275,301,310,0
291,286,299,306,0
292,296,299,304,0
293,303,299,302,0
293,307,300,302,0
293,312,301,302,0
294,318,303,305,0
296,323,306,308,0
299,327,307,310,0
300,324,307,309,0
300,317,307,310,0
301,310,308,311,0
302,302,310,312,0
302,293,311,312,0
301,286,311,311,0
301,285,310,311,0
301,290,310,310,0
301,298,311,309,0
302,307,311,308,0
301,314,310,307,0
299,316,308,306,0
299,315,306,305,0
300,311,305,307,0
301,308,306,310,0
302,312,307,313,0
303,322,307,315,0
305,327,308,317,0
306,328,309,318,0
306,327,308,318,0
305,320,306,316,0
303,308,304,313,0
302,295,304,311,0
300,285,305,310,0
300,281,309,310,0
301,285,313,310,0
302,293,316,311,0
302,307,317,311,0
302,322,316,311,0
303,333,313,309,0
304,338,309,308,0
307,336,307,307,0
310,329,306,307,0
310,316,305,306,0
307,298,305,306,0
304,284,305,306,0
300,272,304,306,0
297,262,302,307,0
296,258,302,308,0
296,262,303,309,0
296,272,304,308,0
296,284,304,307,0
294,292,303,305,0
293,294,303,304,0
294,292,303,303,0
295,290,303,303,0
298,290,304,303,0
301,292,305,304,0
303,298,305,303,0
304,306,305,303,0
305,316,304,303,0
306,322,304,303,0
305,324,304,303,0
303,322,304,303,0
300,318,305,302,0
297,313,306,303,0
296,309,307,304,0
295,306,308,305,0
296,304,308,306,0
297,302,307,306,0
297,297,305,306,0
298,291,302,304,0
300,289,300,304,0
301,293,299,303,0
302,299,300,302,0
304,304,303,302,0
305,306,305,302,0
307,305,306,302,0
306,303,306,300,0
304,301,306,299,0
302,299,306,298,0
299,295,306,298,0
298,291,306,298,0
296,289,307,300,0
295,288,307,301,0
294,286,307,302,0
293,284,306,303,0
292,284,306,304,0
292,285,306,306,0
292,288,307,307,0
294,294,307,308,0
296,302,309,310,0
299,310,311,313,0
301,316,313,314,0
302,317,312,314,0
302,310,309,312,0
302,300,307,310,0
301,291,306,309,0
303,291,306,309,0
306,303,308,309,0
310,318,311,311,0
310,327,313,310,0
309,330,313,310,0
305,324,311,309,0
301,313,309,309,0
297,304,306,310,0
296,300,305,311,0
297,300,305,312,0
300,301,306,312,0
303,304,309,312,0
306,303,311,312,0
309,298,311,311,0
311,290,312,309,0
311,285,310,307,0
309,285,308,305,0
306,288,305,304,0
302,292,302,303,0
298,294,300,303,0
296,292,298,304,0
295,286,297,305,0
294,280,296,306,0
294,278,296,308,0
294,279,297,310,0
294,283,300,312,0
295,290,302,314,0
297,300,305,316,0
299,311,308,316,0
302,326,310,316,0
305,344,311,315,0
306,358,311,312,0
304,362,310,310,0
300,348,309,307,0
296,321,307,306,0
294,297,307,305,0
296,287,308,304,0
299,292,308,303,0
303,302,308,303,0
305,309,308,303,0
305,306,308,304,0
304,296,308,305,0
301,280,307,306,0
298,263,305,307,0
296,253,303,308,0
294,255,301,308,0
294,268,299,307,0
295,284,298,306,0
296,298,298,306,0
297,307,297,305,0
298,309,298,306,0
300,308,299,308,0
304,309,302,309,0
308,316,306,311,0
311,326,308,310,0
310,334,308,308,0
308,335,307,306,0
305,333,306,304,0
303,330,305,303,0
302,328,305,302,0
300,326,304,301,0
298,325,303,301,0
296,323,301,301,0
294,317,302,302,0
294,309,304,305,0
294,302,306,308,0
296,297,309,310,0
299,292,311,312,0
301,287,313,314,0
301,284,313,313,0
301,286,312,312,0
299,289,310,310,0
298,289,309,307,0
298,287,310,305,0
299,288,310,303,0
299,295,310,301,0
298,302,308,298,0
295,302,305,296,0
294,297,303,296,0
292,290,302,298,0
291,287,302,300,0
292,288,302,303,0
294,292,303,307,0
296,298,305,309,0
296,302,306,310,0
296,302,305,309,0
296,300,305,308,0
296,298,305,307,0
297,297,305,307,0
299,296,306,307,0
301,300,307,309,0
301,306,308,310,0
300,313,310,311,0
299,313,312,310,0
297,303,313,308,0
295,292,312,307,0
294,285,310,305,0
294,282,309,304,0
296,282,308,305,0
298,288,308,307,0
301,299,309,309,0
304,310,310,310,0
305,320,310,310,0
305,326,309,311,0
304,325,309,310,0
302,318,308,309,0
301,310,307,309,0
300,306,307,308,0
299,305,306,307,0
298,304,305,306,0
296,298,303,304,0
294,291,301,303,0
292,284,300,301,0
293,280,299,301,0
294,286,298,300,0
296,297,298,300,0
296,305,298,300,0
296,308,298,300,0
295,307,298,300,0
294,302,300,299,0
293,295,303,301,0
294,292,306,302,0
295,295,309,305,0
296,301,310,308,0
298,305,311,312,0
298,306,312,314,0
298,301,314,316,0
296,293,315,317,0
295,287,316,317,0
294,286,318,318,0
296,291,320,319,0
297,296,320,318,0
297,294,318,316,0
295,291,316,313,0
294,288,314,310,0
294,289,311,308,0
294,291,308,305,0
296,291,306,303,0
298,290,305,302,0
301,289,305,302,0
303,288,304,301,0
303,286,304,300,0
302,287,303,298,0
302,291,304,298,0
302,300,305,298,0
303,308,306,298,0
303,310,308,299,0
303,311,310,301,0
303,310,310,302,0
303,311,310,303,0
304,314,311,304,0
305,320,311,306,0
306,326,311,306,0
305,328,311,306,0
302,327,309,304,0
300,325,308,302,0
300,325,308,301,0
301,324,308,301,0
302,323,310,302,0
302,317,312,303,0
301,310,314,305,0
301,304,314,307,0
300,302,312,306,0
298,301,310,305,0
296,300,306,303,0
294,300,303,301,0
292,298,301,299,0
291,297,300,298,0
291,299,300,298,0
291,304,302,299,0
291,310,304,301,0
292,316,307,304,0
293,322,309,306,0
294,323,310,308,0
295,319,309,309,0
296,312,308,309,0
297,303,307,309,0
298,290,304,309,0
298,284,302,308,0
300,284,301,308,0
301,284,300,307,0
301,286,300,307,0
300,288,301,308,0
299,290,303,308,0
299,290,306,309,0
299,288,308,311,0
298,286,309,311,0
296,285,308,310,0
293,284,305,307,0
290,284,304,305,0
290,286,302,304,0
291,288,300,303,0
292,287,298,301,0
293,286,297,300,0
295,290,296,299,0
297,299,296,299,0
301,316,297,300,0
305,337,297,300,0
307,349,298,299,0
309,347,299,300,0
309,336,300,301,0
308,326,301,302,0
307,323,301,303,0
305,327,302,304,0
304,330,303,305,0
301,327,303,305,0
299,322,304,307,0
297,320,304,307,0
297,320,304,307,0
299,322,304,307,0
302,323,303,305,0
304,321,303,303,0
306,319,303,300,0
307,318,303,297,0
307,314,301,295,0
304,306,298,293,0
299,297,296,292,0
296,291,294,294,0
292,289,296,297,0
290,288,298,301,0
289,290,298,305,0
290,297,300,308,0
293,308,301,310,0
296,320,302,312,0
298,329,302,313,0
298,331,301,314,0
298,324,300,314,0
297,311,300,315,0
295,295,301,315,0
293,281,301,314,0
289,268,301,313,0
288,260,303,312,0
289,259,304,313,0
293,264,306,313,0
296,271,308,313,0
300,277,307,312,0
301,281,306,311,0
301,282,305,309,0
301,283,303,307,0
301,286,302,306,0
302,291,302,305,0
303,297,302,305,0
305,305,303,307,0
309,320,306,309,0
312,334,307,310,0
311,333,307,310,0
309,317,306,310,0
305,299,306,310,0
303,291,307,310,0
301,294,308,310,0
299,307,307,309,0
297,325,305,308,0
295,338,303,308,0
295,335,301,307,0
295,324,300,307,0
298,318,300,308,0
303,317,301,308,0
308,320,301,308,0
312,320,301,307,0
313,313,300,306,0
310,304,300,305,0
304,295,300,304,0
299,292,301,304,0
295,294,302,304,0
293,300,302,304,0
290,303,300,304,0
288,302,300,305,0
288,298,300,307,0
288,293,301,308,0
288,290,301,309,0
288,291,301,309,0
288,295,301,309,0
290,299,301,310,0
291,300,301,311,0
293,299,301,312,0
295,296,301,313,0
297,292,302,314,0
299,292,302,314,0
300,296,303,314,0
302,303,302,314,0
301,312,300,312,0
301,316,299,310,0
299,312,298,310,0
298,299,299,310,0
297,288,301,311,0
298,285,302,311,0
299,291,303,311,0
301,296,303,311,0
301,292,304,311,0
300,277,305,310,0
298,261,304,309,0
296,249,303,306,0
295,248,303,304,0
296,260,303,303,0
298,280,304,302,0
300,301,305,303,0
302,314,305,304,0
300,322,304,304,0
298,327,303,306,0
296,330,302,309,0
295,333,302,310,0
294,335,302,311,0
295,336,302,311,0
298,342,303,312,0
301,350,305,313,0
305,356,307,315,0
308,361,309,315,0
308,363,310,315,0
307,361,310,314,0
304,350,308,312,0
301,335,306,311,0
298,319,305,309,0
295,310,303,308,0
295,305,302,308,0
297,303,301,307,0
298,301,300,308,0
298,299,298,308,0
297,297,297,308,0
296,297,297,308,0
295,300,296,308,0
295,302,296,307,0
294,301,295,306,0
294,299,295,306,0
295,302,296,306,0
296,307,299,306,0
297,309,302,306,0
297,306,304,307,0
298,298,306,309,0
297,287,308,310,0
297,276,310,311,0
296,269,309,312,0
296,267,307,312,0
296,270,305,312,0
296,273,305,313,0
297,277,308,315,0
297,278,309,315,0
296,278,309,315,0
296,278,308,316,0
296,281,307,316,0
297,287,306,316,0
297,295,306,316,0
297,301,305,316,0
297,303,305,317,0
299,303,307,318,0
301,303,308,319,0
302,302,309,319,0
304,304,309,319,0
304,310,308,318,0
305,320,308,317,0
306,329,310,317,0
306,331,311,316,0
304,327,311,314,0
300,317,310,312,0
298,309,308,310,0
296,306,306,309,0
295,310,306,309,0
296,317,305,308,0
296,323,305,308,0
295,326,306,308,0
294,324,306,308,0
294,321,305,308,0
293,316,304,308,0
294,311,302,308,0
294,307,300,308,0
293,306,299,308,0
292,303,298,308,0
291,295,299,309,0
289,284,301,310,0
289,274,304,312,0
290,267,308,314,0
292,269,313,315,0
295,282,317,315,0
300,298,318,314,0
302,312,316,312,0
304,320,314,309,0
302,323,312,308,0
300,321,311,307,0
298,318,310,307,0
296,314,309,306,0
295,307,308,307,0
294,298,307,308,0
293,289,307,308,0
292,281,305,307,0
290,278,304,307,0
289,284,303,308,0
290,298,303,308,0
291,315,303,309,0
294,328,303,310,0
296,332,303,310,0
300,332,303,311,0
303,332,304,311,0
306,333,304,310,0
306,334,303,309,0
305,336,304,309,0
303,335,306,308,0
300,326,308,308,0
296,314,308,308,0
291,300,307,308,0
289,290,308,310,0
290,286,309,311,0
292,288,309,311,0
294,288,308,310,0
294,286,307,307,0
294,279,305,305,0
294,269,304,304,0
293,258,304,305,0
293,248,305,307,0
294,243,305,309,0
295,245,305,310,0
294,256,305,310,0
294,272,306,309,0
295,292,309,307,0
296,311,310,304,0
296,326,311,302,0
297,336,309,300,0
295,341,307,300,0
294,341,305,300,0
293,338,305,302,0
292,335,306,304,0
292,332,307,306,0
293,327,308,308,0
294,319,308,309,0
296,309,308,310,0
298,304,309,310,0
300,303,310,310,0
301,300,309,309,0
300,294,307,306,0
299,288,305,304,0
298,286,304,303,0
298,285,304,302,0
298,286,305,303,0
297,289,306,304,0
297,296,307,307,0
297,306,308,309,0
297,315,308,310,0
298,322,308,310,0
300,323,309,310,0
301,325,309,310,0
303,328,309,311,0
303,331,309,312,0
302,338,308,312,0
300,345,308,311,0
296,347,306,309,0
293,345,304,309,0
290,339,302,310,0
288,327,300,311,0
286,313,298,311,0
286,304,297,312,0
288,301,298,312,0
290,300,300,311,0
291,302,302,310,0
293,303,304,309,0
293,301,305,307,0
294,294,307,307,0
295,288,309,307,0
296,282,310,308,0
296,276,310,308,0
295,268,309,308,0
294,259,308,308,0
294,254,308,308,0
293,259,307,306,0
294,278,307,306,0
297,302,307,306,0
299,322,308,306,0
301,336,308,307,0
302,342,309,308,0
301,342,308,308,0
300,338,307,307,0
298,332,305,306,0
297,327,304,306,0
296,322,302,306,0
295,319,300,305,0
293,317,298,304,0
291,314,297,303,0
290,310,296,303,0
289,308,297,304,0
289,306,298,304,0
289,303,300,305,0
289,298,303,305,0
291,293,306,307,0
293,291,308,309,0
294,293,310,310,0
295,297,310,311,0
295,299,310,312,0
294,298,309,313,0
293,294,309,315,0
292,287,310,317,0
291,281,311,318,0
290,274,312,319,0
290,271,314,320,0
292,277,315,321,0
294,285,314,320,0
295,295,313,319,0
296,308,311,316,0
296,320,308,312,0
297,327,304,308,0
296,325,302,303,0
293,311,301,299,0
290,293,299,297,0
287,280,298,295,0
286,274,297,297,0
288,276,298,302,0
292,283,299,307,0
296,291,300,311,0
299,298,301,313,0
300,303,303,313,0
301,309,305,313,0
301,315,306,311,0
299,318,305,310,0
297,321,303,308,0
296,325,302,308,0
297,329,301,308,0
299,335,301,309,0
303,340,302,309,0
306,342,303,308,0
305,338,304,305,0
301,327,305,304,0
296,312,305,303,0
291,298,306,302,0
290,289,307,303,0
290,288,306,304,0
291,289,304,305,0
290,289,301,306,0
290,290,300,308,0
291,295,301,310,0
293,305,302,312,0
293,313,303,313,0
292,315,303,314,0
292,315,303,314,0
293,313,303,314,0
295,314,303,314,0
298,319,303,314,0
301,318,303,313,0
302,311,302,313,0
301,299,302,312,0
299,287,303,311,0
296,277,303,311,0
293,272,304,310,0
292,273,304,309,0
292,280,305,307,0
291,290,307,305,0
292,302,309,304,0
292,305,309,304,0
291,298,310,305,0
290,287,310,307,0
290,277,310,309,0
290,275,310,310,0
291,283,311,311,0
292,295,311,311,0
292,306,310,311,0
294,319,309,311,0
296,332,308,311,0
298,342,308,311,0
301,349,309,312,0
303,348,310,312,0
303,343,310,311,0
302,337,310,310,0
300,330,309,309,0
296,322,307,307,0
293,316,305,305,0
291,309,306,305,0
291,306,307,306,0
291,305,310,307,0
292,307,311,309,0
291,311,310,309,0
291,312,309,309,0
291,311,308,310,0
291,311,309,311,0
292,309,309,312,0
294,306,309,313,0
295,304,308,313,0
296,303,306,313,0
295,302,305,312,0
294,299,306,311,0
293,297,307,310,0
292,295,308,310,0
293,294,309,309,0
293,294,309,307,0
293,297,308,304,0
293,302,307,302,0
294,307,307,301,0
296,311,307,301,0
300,311,307,302,0
302,308,306,303,0
303,307,304,304,0
302,309,303,305,0
300,315,302,305,0
297,320,301,304,0
295,319,301,302,0
293,312,301,301,0
291,302,301,299,0
290,292,301,299,0
290,285,301,300,0
290,281,302,302,0
291,282,304,305,0
293,290,306,308,0
295,299,307,311,0
297,304,308,313,0
299,304,309,315,0
301,296,310,316,0
301,286,311,318,0
300,277,312,320,0
299,273,314,320,0
296,272,316,320,0
294,274,316,319,0
293,281,315,319,0
293,294,314,317,0
295,311,312,315,0
296,330,308,312,0
296,340,305,309,0
295,339,302,306,0
293,332,300,304,0
293,328,301,302,0
294,328,301,301,0
294,328,301,301,0
295,326,303,303,0
296,321,305,304,0
297,314,307,305,0
297,309,308,305,0
298,310,309,306,0
298,311,309,306,0
297,306,309,307,0
296,298,308,308,0
295,295,309,309,0
298,298,311,311,0
299,306,312,311,0
298,315,310,308,0
295,321,305,306,0
292,326,302,304,0
291,329,301,305,0
291,327,301,306,0
292,320,302,307,0
292,312,304,309,0
293,307,305,310,0
295,309,306,311,0
297,316,308,311,0
298,322,308,310,0
298,326,307,308,0
296,325,303,306,0
294,319,301,304,0
293,312,299,304,0
293,305,298,305,0
294,299,299,306,0
294,295,299,306,0
294,294,299,307,0
295,294,301,308,0
296,294,303,310,0
297,291,305,311,0
298,285,309,313,0
297,275,311,314,0
295,270,313,315,0
295,272,312,315,0
296,282,309,313,0
297,295,306,311,0
298,307,304,310,0
298,315,303,309,0
298,323,303,308,0
298,333,303,308,0
298,341,302,307,0
296,346,301,306,0
294,343,301,306,0
293,336,301,306,0
293,330,300,305,0
292,324,299,305,0
291,320,296,304,0
290,315,295,304,0
290,310,295,305,0
289,303,297,307,0
288,295,299,309,0
288,288,302,310,0
291,284,307,311,0
297,289,312,312,0
303,302,316,313,0
308,315,318,312,0
309,321,318,310,0
306,316,317,309,0
301,301,314,307,0
294,285,312,307,0
289,275,310,308,0
289,277,310,309,0
290,286,310,310,0
293,296,311,311,0
296,307,311,309,0
297,314,310,308,0
297,317,307,305,0
296,316,304,302,0
295,314,302,300,0
295,309,299,297,0
295,304,297,296,0
295,303,295,295,0
296,305,295,296,0
296,309,295,298,0
298,317,297,300,0
300,329,301,302,0
304,340,305,304,0
306,345,309,305,0
306,344,312,306,0
306,344,313,308,0
306,346,313,309,0
306,347,311,311,0
306,338,310,312,0
303,324,307,310,0
299,308,305,308,0
295,292,303,305,0
291,279,302,303,0
291,272,303,302,0
291,266,304,303,0
289,254,303,303,0
286,239,301,304,0
283,227,300,305,0
284,225,302,308,0
287,234,306,311,0
292,252,309,313,0
297,274,311,314,0
300,294,311,314,0
303,311,311,314,0
304,324,312,313,0
304,334,312,312,0
303,347,312,311,0
302,362,311,310,0
302,371,308,308,0
300,370,305,305,0
297,365,302,304,0
294,361,299,301,0
289,356,298,300,0
287,350,298,300,0
286,340,299,301,0
288,329,301,304,0
291,318,302,306,0
295,304,304,309,0
298,297,307,311,0
300,297,310,312,0
301,302,311,313,0
300,308,311,312,0
299,311,309,310,0
300,313,307,309,0
301,314,305,307,0
302,312,304,305,0
301,307,303,303,0
298,301,301,301,0
295,297,299,300,0
292,294,298,300,0
291,290,298,301,0
289,285,298,303,0
287,282,297,303,0
286,279,296,304,0
285,280,296,305,0
286,287,298,305,0
289,297,301,306,0
290,308,303,306,0
292,319,305,306,0
293,328,308,306,0
293,332,309,307,0
294,327,310,308,0
296,319,310,309,0
298,315,308,309,0
298,314,306,308,0
297,315,306,308,0
296,318,306,307,0
295,315,307,307,0
295,306,308,307,0
294,294,308,307,0
292,280,307,307,0
291,269,305,308,0
289,265,303,308,0
290,267,302,308,0
292,274,302,309,0
297,290,304,310,0
301,311,306,311,0
303,330,310,311,0
302,340,312,309,0
299,342,312,307,0
297,337,312,305,0
295,328,311,302,0
293,316,309,300,0
294,306,307,299,0
295,301,305,299,0
296,298,303,300,0
297,301,302,302,0
297,305,301,305,0
297,312,300,307,0
296,320,300,308,0
297,327,301,310,0
297,329,302,311,0
300,331,304,313,0
302,335,307,315,0
304,338,309,315,0
302,335,309,314,0
298,326,308,314,0
295,316,307,314,0
293,308,307,314,0
293,302,308,315,0
295,301,311,316,0
299,302,314,318,0
304,303,316,318,0
307,304,318,319,0
308,304,318,318,0
306,302,316,316,0
302,301,314,313,0
298,301,311,311,0
295,303,310,309,0
293,304,309,308,0
292,307,308,308,0
293,311,307,308,0
294,315,306,308,0
295,317,305,307,0
293,314,304,306,0
291,308,304,306,0
288,304,304,305,0
286,304,305,306,0
284,301,306,306,0
283,295,307,307,0
284,288,307,309,0
286,280,308,310,0
289,275,310,312,0
292,275,310,313,0
293,279,310,312,0
293,281,308,312,0
293,283,306,311,0
294,284,304,311,0
295,286,303,310,0
295,289,302,310,0
295,293,300,309,0
295,298,299,308,0
295,302,298,308,0
297,307,298,308,0
298,318,298,307,0
298,332,297,306,0
298,341,297,305,0
300,338,298,306,0
301,324,300,307,0
302,308,304,309,0
302,296,307,310,0
299,289,307,309,0
296,285,307,307,0
292,286,306,305,0
290,293,307,304,0
290,305,309,304,0
291,314,310,303,0
292,319,309,304,0
293,323,310,304,0
294,321,310,305,0
293,314,309,305,0
291,308,309,304,0
290,306,307,304,0
290,308,304,304,0
291,310,301,304,0
293,308,299,304,0
294,306,298,304,0
297,305,298,305,0
300,307,301,306,0
302,311,304,306,0
302,315,305,306,0
302,316,306,306,0
302,315,306,305,0
301,310,305,303,0
300,304,305,302,0
300,301,307,302,0
301,300,309,302,0
302,302,310,302,0
303,309,309,302,0
304,320,308,302,0
303,330,307,302,0
302,330,307,305,0
300,314,307,307,0
298,289,306,309,0
296,267,306,310,0
294,260,305,310,0
293,270,305,310,0
294,288,306,310,0
295,301,305,310,0
296,303,305,309,0
296,298,304,309,0
298,297,305,307,0
301,308,308,306,0
305,323,311,305,0
306,328,311,303,0
304,323,310,303,0
300,315,308,303,0
297,309,307,303,0
294,306,307,304,0
293,304,308,304,0
293,303,308,305,0
293,304,309,305,0
295,303,310,306,0
297,303,310,305,0
299,309,311,306,0
303,319,312,307,0
305,329,311,309,0
307,341,309,310,0
306,348,308,310,0
304,350,306,310,0
301,349,307,309,0
300,346,308,309,0
298,338,310,308,0
295,322,308,307,0
293,306,306,306,0
292,297,303,305,0
293,295,302,305,0
294,297,301,305,0
296,298,302,305,0
298,295,302,307,0
299,289,304,309,0
301,287,307,311,0
302,290,310,313,0
302,295,314,315,0
301,303,316,315,0
301,310,316,314,0
300,314,315,313,0
300,315,314,313,0
300,310,314,312,0
298,299,312,311,0
297,289,312,310,0
297,287,314,310,0
298,290,316,310,0
298,292,316,309,0
297,288,316,309,0
296,281,313,308,0
295,276,312,309,0
296,281,311,310,0
300,294,311,311,0
302,309,310,310,0
303,321,308,309,0
304,331,306,308,0
303,337,305,307,0
300,336,303,306,0
299,330,302,307,0
299,321,302,307,0
299,317,303,307,0
299,319,304,307,0
299,327,304,307,0
299,334,304,306,0
298,333,304,306,0
297,329,305,305,0
295,322,306,305,0
293,311,308,305,0
292,298,309,305,0
291,287,309,305,0
291,284,310,306,0
293,291,311,306,0
294,301,312,305,0
295,308,311,304,0
295,312,310,303,0
294,309,308,303,0
293,297,305,303,0
292,283,303,303,0
292,272,303,303,0
293,267,303,303,0
294,268,303,301,0
295,274,301,299,0
297,285,300,299,0
300,302,300,300,0
302,313,302,302,0
300,317,303,304,0
296,311,302,305,0
292,299,301,305,0
291,291,302,307,0
292,291,304,308,0
294,295,305,308,0
296,302,305,307,0
295,308,304,306,0
294,314,304,303,0
293,317,304,302,0
292,321,305,301,0
293,326,306,300,0
294,331,306,298,0
296,332,306,297,0
296,328,305,298,0
295,319,305,300,0
294,307,306,305,0
294,298,307,310,0
293,292,309,315,0
294,288,312,319,0
296,285,314,321,0
298,284,314,322,0
300,284,314,321,0
301,284,313,319,0
300,281,311,316,0
299,279,310,314,0
297,282,309,312,0
296,290,310,312,0
296,300,309,312,0
294,307,307,311,0
292,311,305,311,0
291,312,303,310,0
290,311,301,309,0
290,311,301,309,0
289,314,302,309,0
289,317,304,310,0
290,320,305,309,0
290,321,306,309,0
290,321,307,309,0
290,319,307,308,0
290,316,307,307,0
290,315,308,307,0
292,320,309,308,0
293,323,309,310,0
294,319,310,311,0
296,313,311,312,0
297,310,311,314,0
297,308,310,315,0
297,305,309,314,0
297,301,307,314,0
297,296,306,314,0
298,291,305,313,0
298,291,305,313,0
298,294,305,314,0
297,298,305,314,0
296,302,306,314,0
293,305,307,313,0
292,307,308,313,0
292,309,310,314,0
293,311,311,313,0
294,311,313,312,0
295,312,313,310,0
296,310,315,309,0
297,306,315,309,0
295,299,313,308,0
292,287,310,307,0
290,274,307,307,0
289,264,304,307,0
289,259,301,307,0
289,262,299,306,0
290,274,298,305,0
291,288,297,305,0
292,296,298,305,0
290,298,299,306,0
290,303,301,307,0
290,309,304,308,0
290,312,305,310,0
290,315,306,311,0
291,323,306,312,0
292,330,306,312,0
293,331,306,313,0
293,327,307,312,0
293,321,308,311,0
294,319,309,311,0
294,322,309,309,0
295,327,309,308,0
295,332,308,307,0
295,339,307,307,0
295,347,306,306,0
296,349,305,305,0
296,343,304,304,0
297,334,304,304,0
298,326,304,304,0
300,320,305,305,0
300,312,306,305,0
298,299,305,306,0
295,286,304,306,0
294,282,304,307,0
295,286,303,308,0
297,292,302,309,0
298,297,301,309,0
299,301,300,309,0
300,305,300,309,0
301,308,301,310,0
304,310,305,312,0
308,312,310,314,0
311,312,313,315,0
310,311,315,313,0
308,311,316,311,0
306,311,315,308,0
304,309,313,307,0
302,307,312,307,0
301,305,311,306,0
300,303,310,305,0
301,299,307,304,0
302,294,303,302,0
302,292,300,299,0
301,291,299,296,0
300,293,298,296,0
300,297,299,298,0
299,300,300,302,0
299,299,302,305,0
298,298,303,309,0
296,297,304,310,0
294,296,304,311,0
294,297,303,311,0
293,300,303,311,0
295,306,304,311,0
296,309,304,309,0
297,309,303,308,0
298,307,303,306,0
296,303,302,305,0
294,302,302,306,0
292,305,303,307,0
293,312,303,310,0
295,322,304,312,0
296,330,303,313,0
297,332,303,313,0
295,327,301,313,0
292,319,301,313,0
291,312,301,312,0
290,310,302,313,0
290,309,304,313,0
291,307,306,314,0
293,304,308,315,0
296,299,310,317,0
298,296,313,318,0
301,293,315,320,0
302,286,316,320,0
302,278,313,318,0
300,271,308,315,0
299,268,305,313,0
299,268,304,313,0
299,270,304,313,0
299,271,302,313,0
299,272,301,312,0
300,275,301,311,0
302,286,302,310,0
303,306,303,308,0
303,326,302,306,0
301,341,301,305,0
299,350,302,305,0
299,356,305,306,0
301,361,309,308,0
302,366,312,309,0
302,366,312,308,0
298,359,310,307,0
294,347,307,306,0
290,334,305,305,0
289,324,305,306,0
290,321,305,307,0
291,320,304,308,0
292,322,304,307,0
293,322,303,306,0
293,321,302,305,0
292,319,301,304,0
292,315,303,305,0
292,307,305,307,0
293,298,306,309,0
295,293,308,312,0
298,296,310,315,0
302,305,313,317,0
306,311,316,319,0
309,310,317,319,0
309,302,316,317,0
308,292,314,315,0
307,285,312,314,0
306,279,310,312,0
304,276,307,309,0
300,275,304,306,0
295,277,302,304,0
291,280,300,302,0
289,284,300,302,0
289,287,301,303,0
290,295,301,305,0
292,305,302,306,0
293,314,302,307,0
294,315,303,309,0
295,309,304,310,0
296,298,305,310,0
296,288,305,310,0
295,286,304,310,0
294,291,303,308,0
294,299,303,308,0
296,307,303,308,0
297,314,304,308,0
299,320,304,308,0
300,320,304,308,0
299,315,302,308,0
298,308,301,307,0
297,304,301,307,0
297,306,301,308,0
297,310,301,308,0
298,314,302,309,0
299,315,304,309,0
300,314,307,309,0
301,312,310,310,0
301,313,311,310,0
300,314,309,309,0
298,311,306,308,0
296,305,303,307,0
294,299,300,306,0
293,293,298,306,0
293,292,300,307,0
294,298,303,309,0
296,303,306,311,0
297,302,306,312,0
298,299,307,312,0
299,297,308,312,0
302,298,308,312,0
304,303,309,311,0
305,313,308,312,0
304,324,308,312,0
302,333,307,312,0
300,341,307,312,0
299,346,308,313,0
298,344,309,314,0
296,335,309,314,0
295,323,308,312,0
295,314,306,310,0
297,310,304,308,0
298,306,302,305,0
299,302,301,304,0
298,297,301,304,0
296,290,302,305,0
293,282,302,307,0
291,276,301,308,0
289,269,301,309,0
289,261,301,311,0
293,261,302,313,0
296,264,303,314,0
298,272,302,313,0
299,282,302,312,0
299,293,302,312,0
299,305,305,313,0
299,317,308,314,0
300,322,310,315,0
299,319,311,315,0
298,309,312,315,0
297,295,312,315,0
296,279,312,314,0
295,268,312,314,0
295,265,312,312,0
294,272,312,310,0
294,285,312,306,0
292,299,312,303,0
291,308,311,301,0
291,313,309,299,0
291,317,307,299,0
293,323,307,300,0
294,329,307,301,0
296,333,307,304,0
298,333,308,306,0
299,328,309,308,0
300,320,311,310,0
300,307,313,312,0
298,292,315,313,0
294,279,317,314,0
292,272,319,316,0
293,275,322,319,0
297,289,324,320,0
302,308,325,320,0
304,328,323,318,0
304,343,320,317,0
304,352,316,314,0
302,352,313,312,0
300,345,310,312,0
299,333,309,312,0
299,320,309,312,0
300,310,310,313,0
302,304,311,313,0
305,303,310,313,0
305,305,308,311,0
303,306,304,309,0
299,303,299,306,0
296,300,297,304,0
295,302,297,303,0
297,312,297,303,0
298,323,298,303,0
299,327,301,303,0
299,325,302,302,0
297,317,303,302,0
296,309,303,301,0
294,303,304,301,0
294,303,304,302,0
295,306,304,302,0
296,305,305,303,0
296,297,304,304,0
295,285,303,304,0
292,274,301,304,0
291,269,299,305,0
292,271,298,307,0
293,277,298,309,0
294,283,298,310,0
295,288,300,311,0
297,293,302,312,0
299,298,302,310,0
301,306,302,309,0
303,317,301,307,0
305,328,300,305,0
307,338,299,302,0
307,345,299,301,0
307,342,300,299,0
305,326,301,299,0
303,308,303,299,0
301,295,306,299,0
299,285,308,298,0
296,276,308,298,0
295,269,308,297,0
296,269,308,299,0
298,274,309,301,0
299,284,311,304,0
299,293,310,309,0
298,296,308,312,0
297,297,305,315,0
298,301,304,318,0
301,309,305,320,0
303,318,306,321,0
303,325,306,320,0
300,328,305,319,0
298,330,303,317,0
297,330,303,316,0
297,330,305,314,0
297,330,307,313,0
298,327,308,311,0
298,321,308,309,0
299,311,307,307,0
298,300,307,307,0
298,289,306,308,0
297,285,307,310,0
296,289,308,312,0
295,292,308,313,0
293,289,308,315,0
293,287,309,315,0
294,289,311,316,0
297,294,313,318,0
301,298,315,320,0
304,304,317,321,0
306,313,317,322,0
307,323,316,322,0
305,331,313,319,0
301,332,309,315,0
297,324,304,311,0
293,310,300,308,0
291,291,297,306,0
290,278,295,306,0
290,271,295,306,0
290,267,295,307,0
289,268,296,308,0
289,274,299,310,0
289,287,302,312,0
290,304,305,314,0
293,321,308,314,0
296,334,308,314,0
298,340,308,313,0
300,342,308,313,0
302,340,308,313,0
302,336,309,313,0
301,332,308,313,0
300,325,306,312,0
298,313,303,310,0
296,299,301,309,0
294,289,301,309,0
294,284,302,309,0
295,290,304,309,0
295,298,304,309,0
295,301,302,308,0
294,297,300,308,0
295,290,299,310,0
295,285,301,312,0
296,286,303,314,0
298,294,305,316,0
300,305,307,315,0
301,310,308,313,0
300,312,307,310,0
299,312,307,308,0
297,311,306,306,0
294,312,305,304,0
293,315,305,303,0
293,320,304,303,0
294,321,303,303,0
294,318,303,303,0
294,312,304,303,0
294,306,304,303,0
294,304,305,302,0
295,304,307,302,0
295,306,308,302,0
295,310,308,303,0
295,311,307,304,0
295,308,307,306,0
294,301,306,307,0
292,293,304,307,0
291,288,302,305,0
291,291,301,305,0
293,304,302,305,0
296,319,302,306,0
298,332,300,305,0
299,337,299,304,0
300,335,299,304,0
300,333,298,303,0
302,332,299,302,0
303,328,302,302,0
304,320,305,302,0
304,309,307,302,0
302,298,309,304,0
301,288,311,306,0
299,283,312,308,0
296,283,314,311,0
294,287,315,312,0
292,293,314,313,0
292,300,313,313,0
294,308,313,313,0
297,318,314,314,0
300,326,313,314,0
300,331,313,314,0
300,333,313,314,0
297,331,313,312,0
296,329,313,311,0
293,329,313,310,0
291,325,313,307,0
290,315,314,306,0
291,303,314,306,0
294,290,314,309,0
296,279,315,312,0
297,273,315,314,0
297,273,315,316,0
296,275,314,316,0
295,277,314,316,0
295,277,312,315,0
294,277,310,314,0
292,278,308,312,0
292,277,308,311,0
294,280,308,310,0
296,291,309,309,0
299,307,309,308,0
299,320,308,307,0
299,327,307,307,0
299,331,306,307,0
299,331,305,308,0
299,330,305,308,0
300,330,304,309,0
301,326,303,308,0
300,318,301,307,0
300,308,299,307,0
300,293,298,307,0
300,283,297,306,0
302,280,298,306,0
302,282,299,304,0
302,282,300,304,0
302,284,302,305,0
304,293,304,305,0
304,310,305,306,0
303,331,306,305,0
300,348,305,304,0
297,356,304,302,0
293,352,303,301,0
290,341,302,301,0
288,324,301,302,0
286,306,300,303,0
285,289,299,304,0
285,272,299,306,0
285,256,300,307,0
287,245,301,309,0
291,245,305,312,0
296,252,309,315,0
301,264,311,317,0
303,279,312,318,0
303,298,313,318,0
303,321,314,317,0
304,345,315,315,0
305,365,313,312,0
304,378,309,308,0
303,378,304,304,0
301,372,299,300,0
300,365,296,297,0
298,356,295,296,0
296,347,296,296,0
295,340,299,297,0
296,332,302,299,0
299,324,304,302,0
303,321,306,305,0
308,325,308,308,0
310,328,308,310,0
308,325,307,310,0
304,319,305,310,0
299,309,303,309,0
295,297,301,308,0
292,285,300,308,0
290,276,299,307,0
289,272,299,307,0
291,278,301,308,0
292,289,302,309,0
292,300,302,310,0
292,310,303,311,0
293,318,303,312,0
295,326,305,313,0
296,331,307,312,0
295,327,308,310,0
294,310,309,308,0
294,285,309,305,0
295,266,309,302,0
297,259,310,301,0
300,264,310,301,0
304,277,310,301,0
305,289,308,301,0
304,295,305,299,0
303,295,304,299,0
302,294,304,301,0
300,295,305,304,0
299,303,308,308,0
298,313,310,312,0
296,321,310,315,0
295,327,311,316,0
295,328,311,317,0
294,326,311,318,0
294,323,312,318,0
293,319,314,319,0
293,316,316,319,0
293,314,318,318,0
293,314,318,317,0
294,314,316,314,0
295,311,314,311,0
294,300,310,309,0
293,281,309,309,0
292,260,309,310,0
292,245,310,312,0
294,243,310,313,0
296,253,310,312,0
298,271,309,311,0
298,289,307,309,0
297,304,305,308,0
297,318,304,307,0
296,329,303,308,0
296,334,301,309,0
294,333,301,309,0
293,328,300,310,0
292,325,301,311,0
292,331,304,312,0
295,344,306,313,0
297,349,306,311,0
297,343,304,308,0
296,329,301,306,0
297,313,301,305,0
298,297,301,304,0
299,283,301,305,0
300,278,302,306,0
302,284,304,307,0
303,297,304,308,0
303,307,303,307,0
301,309,302,306,0
298,304,299,304,0
295,297,298,302,0
293,289,298,302,0
292,283,299,303,0
293,277,301,305,0
293,269,303,307,0
293,257,304,308,0
292,248,306,310,0
292,245,308,311,0
292,249,310,312,0
293,258,311,311,0
293,269,310,309,0
295,283,308,307,0
297,296,306,304,0
298,302,305,303,0
299,307,304,302,0
300,311,304,302,0
300,317,304,304,0
302,326,306,306,0
303,336,308,307,0
303,343,308,307,0
302,346,306,306,0
303,349,304,307,0
305,354,304,308,0
308,357,305,309,0
310,355,307,310,0
310,350,309,310,0
307,343,310,309,0
303,334,309,307,0
300,326,309,305,0
298,318,308,303,0
297,312,306,301,0
297,308,304,300,0
297,304,303,299,0
297,300,301,298,0
296,296,300,298,0
297,294,300,299,0
298,296,300,299,0
299,300,301,300,0
300,302,302,301,0
300,304,303,302,0
299,303,303,303,0
297,303,302,303,0
296,306,302,303,0
296,312,303,304,0
297,316,304,304,0
297,315,304,304,0
298,310,304,305,0
298,304,305,306,0
299,301,305,307,0
301,303,306,308,0
303,307,308,309,0
304,312,308,308,0
303,317,309,307,0
303,322,308,306,0
302,328,307,305,0
302,331,306,304,0
301,331,306,303,0
299,329,307,303,0
299,324,309,303,0
298,317,312,303,0
296,303,312,303,0
293,284,312,302,0
290,262,312,302,0
289,246,312,302,0
289,241,312,303,0
290,248,312,302,0
291,266,311,302,0
292,286,310,301,0
293,300,308,302,0
294,306,308,303,0
296,307,310,305,0
297,301,311,307,0
297,288,312,308,0
297,274,312,308,0
298,265,312,309,0
301,267,313,310,0
305,279,314,310,0
307,294,311,308,0
306,306,306,304,0
305,312,301,303,0
305,323,297,303,0
307,337,295,304,0
311,355,297,306,0
314,369,301,308,0
314,374,304,309,0
310,365,306,308,0
303,351,307,307,0
298,340,306,305,0
295,334,306,304,0
293,329,306,304,0
293,322,306,303,0
293,315,307,303,0
292,309,308,304,0
291,304,307,305,0
290,301,308,306,0
290,302,308,308,0
290,307,307,307,0
289,308,305,306,0
288,305,304,306,0
287,298,303,306,0
286,288,304,306,0
287,279,304,307,0
288,272,306,308,0
291,266,307,309,0
293,261,307,310,0
294,259,306,309,0
294,262,306,307,0
295,273,306,307,0
296,291,307,307,0
298,309,310,308,0
300,320,314,309,0
301,321,315,311,0
302,319,315,313,0
302,313,314,313,0
300,304,311,312,0
299,296,309,309,0
297,289,308,307,0
296,286,306,306,0
294,289,305,304,0
291,295,303,302,0
289,304,302,300,0
289,317,302,300,0
290,328,302,301,0
292,330,304,302,0
293,327,305,303,0
292,325,305,305,0
292,326,306,307,0
292,328,307,309,0
292,324,308,311,0
293,316,308,312,0
294,305,308,312,0
296,302,309,312,0
300,313,309,312,0
303,329,309,312,0
304,342,307,310,0
304,346,306,309,0
304,341,305,308,0
304,326,305,309,0
305,311,305,310,0
306,299,305,310,0
305,295,305,309,0
303,298,306,308,0
300,307,305,305,0
298,314,305,303,0
295,318,305,301,0
293,319,306,301,0
292,319,307,301,0
292,316,310,302,0
294,313,313,304,0
295,314,315,305,0
296,316,316,305,0
296,315,313,306,0
296,311,311,306,0
296,306,309,308,0
297,302,308,308,0
298,299,308,309,0
299,296,308,309,0
299,295,308,308,0
299,298,308,308,0
298,302,308,307,0
297,306,308,306,0
298,313,310,306,0
300,324,312,306,0
304,339,315,307,0
308,349,317,306,0
309,347,314,304,0
306,330,310,301,0
302,307,307,300,0
299,286,305,301,0
296,273,303,302,0
294,268,300,302,0
294,269,297,301,0
293,272,294,300,0
294,278,292,299,0
294,284,292,298,0
295,287,294,300,0
296,291,296,301,0
298,299,298,302,0
300,308,300,303,0
302,319,301,304,0
303,328,303,306,0
306,332,307,307,0
307,327,310,308,0
306,320,313,308,0
304,319,313,307,0
304,324,313,307,0
303,328,312,306,0
301,322,310,305,0
298,310,309,306,0
296,295,309,307,0
295,281,311,310,0
295,270,313,312,0
295,264,313,313,0
295,266,312,312,0
293,275,310,311,0
291,288,308,310,0
291,303,307,309,0
291,316,306,310,0
291,324,306,310,0
291,323,307,311,0
291,318,308,311,0
292,312,309,311,0
293,309,309,311,0
294,309,308,310,0
296,311,307,310,0
297,315,305,309,0
299,320,304,310,0
300,323,303,310,0
300,320,303,310,0
299,314,302,310,0
299,309,302,309,0
299,305,302,310,0
299,303,302,309,0
299,301,302,309,0
299,296,301,309,0
300,291,300,310,0
300,289,300,310,0
302,290,301,310,0
302,289,302,310,0
301,286,303,310,0
300,286,304,311,0
297,288,305,312,0
295,291,308,314,0
293,295,310,316,0
291,299,312,317,0
290,302,314,318,0
291,303,315,318,0
293,301,314,318,0
295,299,312,317,0
296,296,310,315,0
297,292,310,315,0
299,290,310,314,0
300,289,311,313,0
300,289,311,312,0
299,286,310,310,0
297,279,309,308,0
296,270,308,306,0
296,263,307,304,0
296,258,305,302,0
296,258,306,301,0
298,263,306,302,0
300,273,307,303,0
302,286,308,305,0
303,298,308,307,0
302,309,307,308,0
299,320,306,308,0
298,333,306,309,0
298,347,308,309,0
300,357,310,309,0
302,362,310,308,0
302,362,310,306,0
302,356,308,305,0
301,347,307,303,0
298,336,304,301,0
295,327,303,300,0
293,318,303,299,0
292,308,303,299,0
292,296,303,300,0
292,285,304,301,0
292,277,304,303,0
290,274,306,304,0
290,278,308,305,0
293,291,311,307,0
297,310,314,308,0
301,329,315,308,0
303,343,314,307,0
303,352,312,305,0
303,351,311,304,0
303,342,310,304,0
304,329,309,305,0
304,316,309,306,0
304,304,308,305,0
304,293,307,306,0
305,290,307,306,0
305,295,307,305,0
305,302,307,304,0
304,309,306,301,0
301,312,305,300,0
300,316,305,301,0
302,321,306,303,0
305,328,308,306,0
306,332,308,308,0
304,331,306,310,0
302,328,305,310,0
300,323,304,309,0
298,318,302,308,0
296,310,302,307,0
294,300,300,306,0
292,288,299,306,0
291,275,300,307,0
293,259,302,309,0
297,243,305,311,0
300,233,310,313,0
304,235,317,314,0
308,247,322,314,0
308,261,323,313,0
306,279,322,308,0
303,297,319,303,0
300,313,313,297,0
297,326,309,294,0
295,336,305,293,0
294,346,303,292,0
295,358,302,292,0
297,366,301,294,0
298,367,300,296,0
297,357,300,299,0
296,337,300,302,0
294,312,302,304,0
295,288,303,305,0
296,273,306,306,0
298,269,307,306,0
300,274,306,305,0
300,284,303,304,0
300,298,301,303,0
302,313,298,302,0
304,323,297,302,0
304,329,297,302,0
303,333,298,302,0
300,330,298,304,0
297,322,299,306,0
296,315,300,308,0
297,317,303,311,0
304,334,308,314,0
312,356,314,317,0
318,368,317,319,0
320,370,319,318,0
318,362,321,317,0
314,349,321,316,0
310,331,321,315,0
305,312,316,313,0
300,297,312,311,0
297,291,308,310,0
295,292,306,310,0
295,292,304,310,0
294,286,303,310,0
293,273,303,311,0
294,261,304,313,0
296,255,305,315,0
300,261,307,317,0
304,277,308,318,0
309,297,310,318,0
311,313,309,317,0
309,321,308,315,0
306,322,307,313,0
302,318,306,312,0
299,309,307,312,0
299,309,309,312,0
300,312,310,312,0
301,309,310,312,0
301,306,310,310,0
300,306,310,308,0
300,310,310,306,0
300,317,311,303,0
303,327,311,302,0
307,335,310,300,0
311,337,309,299,0
312,331,307,298,0
313,323,305,299,0
312,321,304,300,0
312,327,303,304,0
309,338,303,306,0
304,343,303,307,0
298,339,303,308,0
294,329,303,309,0
293,319,304,311,0
294,311,306,313,0
295,304,308,314,0
297,302,307,313,0
297,303,305,311,0
298,305,302,309,0
299,307,301,308,0
302,310,301,310,0
305,312,302,311,0
307,312,304,313,0
307,310,305,314,0
305,308,305,314,0
303,307,303,311,0
300,306,299,307,0
297,303,295,303,0
296,296,292,300,0
295,287,291,298,0
295,278,294,299,0
296,276,298,303,0
297,280,303,306,0
298,287,305,308,0
300,296,306,310,0
302,304,306,312,0
303,310,306,312,0
303,314,309,312,0
304,315,311,313,0
306,314,314,314,0
306,311,316,313,0
306,310,315,311,0
305,310,312,309,0
303,309,310,308,0
300,307,309,307,0
299,304,310,308,0
299,302,310,310,0
299,302,310,310,0
298,302,309,309,0
297,301,305,307,0
295,301,302,304,0
294,301,298,302,0
293,301,294,301,0
293,299,292,301,0
294,290,291,302,0
297,287,294,305,0
302,295,298,311,0
306,309,303,315,0
307,317,306,319,0
305,319,309,320,0
302,317,310,320,0
299,314,309,319,0
298,315,306,318,0
297,319,304,316,0
298,322,304,315,0
299,323,304,315,0
300,323,306,316,0
302,321,308,317,0
302,317,309,316,0
302,313,309,317,0
303,310,309,317,0
303,307,308,315,0
303,304,307,314,0
304,304,305,314,0
305,308,304,313,0
305,312,304,313,0
306,313,304,313,0
307,312,306,314,0
307,313,309,314,0
308,313,311,314,0
308,310,311,315,0
306,306,312,314,0
305,304,312,313,0
304,306,312,313,0
305,312,313,313,0
307,320,312,313,0
306,320,311,312,0
304,313,308,311,0
301,306,307,310,0
299,302,306,310,0
297,301,306,309,0
296,300,307,309,0
296,298,308,310,0
296,294,309,310,0
297,295,310,312,0
299,301,310,313,0
303,312,310,314,0
306,322,309,314,0
307,326,309,314,0
306,320,308,313,0
304,309,307,310,0
302,295,306,308,0
299,281,305,307,0
298,265,304,306,0
296,251,304,306,0
296,243,305,308,0
298,245,308,311,0
303,257,312,314,0
308,271,315,316,0
309,286,316,317,0
307,297,315,316,0
304,306,313,316,0
302,317,311,316,0
300,329,310,316,0
299,339,309,315,0
299,345,307,315,0
298,350,306,314,0
299,354,304,312,0
299,354,303,310,0
299,351,302,309,0
297,340,302,309,0
295,323,303,310,0
293,304,304,312,0
293,290,306,314,0
295,284,308,316,0
298,286,309,316,0
301,293,309,315,0
304,301,308,315,0
307,312,308,314,0
309,322,309,314,0
310,325,309,314,0
308,321,308,314,0
304,314,307,314,0
301,309,306,313,0
297,304,305,311,0
295,307,303,308,0
294,310,302,306,0
294,310,301,303,0
297,312,302,302,0
299,314,302,301,0
300,314,303,302,0
298,308,303,302,0
295,299,302,304,0
292,292,302,304,0
291,295,302,306,0
293,306,302,308,0
297,321,304,309,0
300,329,305,310,0
300,325,306,311,0
298,315,307,312,0
297,303,307,313,0
298,295,308,315,0
302,295,309,316,0
304,297,309,316,0
303,300,308,313,0
302,304,308,311,0
301,307,307,309,0
299,306,305,308,0
298,303,304,308,0
297,302,304,309,0
297,300,304,312,0
297,296,305,314,0
297,294,306,317,0
300,297,307,320,0
303,306,309,321,0
307,316,310,322,0
309,325,311,322,0
308,328,311,321,0
305,326,310,321,0
300,321,310,320,0
296,317,309,320,0
293,316,308,320,0
292,314,308,320,0
294,311,308,321,0
297,306,309,321,0
299,301,309,320,0
299,299,309,319,0
298,302,309,318,0
297,307,309,317,0
294,303,309,316,0
291,291,307,316,0
290,280,308,316,0
291,274,308,317,0
294,272,308,316,0
298,271,307,315,0
301,272,306,313,0
303,275,305,311,0
303,278,306,310,0
303,280,307,310,0
302,283,307,310,0
300,284,306,309,0
299,283,306,310,0
299,286,306,310,0
300,291,306,310,0
301,300,305,310,0
303,309,306,311,0
305,319,308,312,0
307,329,310,312,0
307,336,313,313,0
307,339,316,313,0
304,337,317,313,0
302,332,316,312,0
301,329,315,311,0
302,327,315,311,0
303,330,314,310,0
304,338,315,309,0
306,344,316,308,0
305,339,317,307,0
303,325,318,306,0
301,312,318,305,0
301,303,318,305,0
301,302,318,306,0
302,307,317,307,0
303,313,316,309,0
302,316,313,309,0
300,316,309,308,0
297,316,306,307,0
297,317,304,306,0
298,318,303,305,0
299,318,302,303,0
299,317,301,301,0
300,314,300,299,0
302,310,300,299,0
305,308,302,300,0
308,307,305,304,0
311,305,307,308,0
310,302,307,309,0
308,296,305,309,0
305,295,303,308,0
304,297,301,307,0
304,301,300,305,0
305,303,300,303,0
306,303,302,302,0
305,299,303,301,0
302,290,304,301,0
297,278,303,302,0
294,265,304,304,0
293,253,305,306,0
296,245,309,309,0
300,247,312,312,0
304,262,315,313,0
307,289,316,313,0
310,318,316,312,0
309,339,314,310,0
308,350,311,307,0
304,348,309,304,0
301,338,308,302,0
298,327,308,301,0
296,319,308,301,0
296,316,308,302,0
296,317,308,303,0
298,322,308,305,0
300,328,308,307,0
301,328,308,308,0
301,323,309,309,0
300,311,310,309,0
298,297,310,308,0
297,290,312,307,0
296,292,313,307,0
298,300,315,307,0
301,313,316,308,0
303,323,316,309,0
303,325,315,310,0
302,326,314,310,0
301,330,313,310,0
301,337,312,310,0
300,341,310,308,0
300,337,307,306,0
299,327,305,305,0
298,318,304,304,0
297,313,304,306,0
298,313,305,307,0
301,317,306,308,0
304,323,307,309,0
306,327,308,308,0
307,325,309,308,0
306,319,310,308,0
305,312,311,308,0
303,306,311,308,0
301,300,312,308,0
302,295,312,309,0
303,292,312,309,0
303,291,311,308,0
302,289,309,308,0
300,288,308,307,0
299,287,309,307,0
299,292,310,307,0
299,299,309,307,0
299,303,308,306,0
299,303,306,305,0
299,300,305,306,0
301,295,305,307,0
303,287,306,309,0
305,281,305,310,0
305,279,306,310,0
304,278,307,310,0
302,277,307,309,0
300,271,305,306,0
300,267,305,304,0
304,269,306,303,0
308,280,307,303,0
312,291,307,304,0
314,297,309,305,0
312,294,310,306,0
308,286,311,306,0
301,279,312,305,0
296,278,313,305,0
293,287,313,304,0
293,302,311,303,0
294,318,307,301,0
294,330,302,300,0
296,335,300,300,0
297,335,299,301,0
298,330,299,302,0
299,326,299,302,0
301,320,299,303,0
302,311,298,303,0
302,303,297,302,0
303,302,298,302,0
305,308,300,301,0
306,316,302,301,0
308,327,304,302,0
309,340,308,305,0
310,349,311,307,0
309,346,313,309,0
306,335,314,309,0
304,321,315,308,0
304,303,313,305,0
302,283,310,301,0
301,270,307,297,0
300,266,306,294,0
300,267,306,295,0
302,273,308,299,0
302,286,310,303,0
301,303,309,305,0
299,319,307,306,0
299,325,307,308,0
300,320,307,308,0
299,309,305,307,0
298,300,302,304,0
298,301,301,301,0
299,310,300,299,0
302,321,301,299,0
304,331,303,300,0
306,337,305,303,0
304,339,306,305,0
302,337,306,308,0
301,332,306,311,0
301,324,306,313,0
301,316,307,314,0
302,310,308,315,0
302,303,309,316,0
300,297,311,315,0
298,292,312,313,0
297,292,312,312,0
297,295,312,309,0
296,299,312,308,0
296,301,312,308,0
297,300,311,309,0
297,297,309,309,0
297,293,307,309,0
297,291,307,310,0
298,295,308,312,0
300,302,310,313,0
302,305,310,314,0
303,304,310,313,0
303,304,309,312,0
304,307,307,310,0
305,312,307,308,0
305,318,306,307,0
303,327,306,306,0
300,334,307,307,0
297,336,308,308,0
296,330,311,310,0
294,315,312,312,0
291,293,312,314,0
288,273,311,314,0
287,261,311,314,0
287,261,312,315,0
290,266,312,315,0
292,270,309,314,0
295,274,306,312,0
299,283,303,311,0
301,291,301,309,0
301,298,299,308,0
300,303,298,308,0
300,307,297,308,0
300,313,297,308,0
299,316,298,307,0
298,318,297,306,0
297,318,296,306,0
295,313,296,305,0
295,306,299,306,0
297,302,303,306,0
300,306,307,305,0
304,314,309,302,0
306,323,309,299,0
305,327,308,296,0
302,325,305,294,0
300,323,304,294,0
299,322,303,296,0
299,325,304,298,0
299,331,305,300,0
299,335,306,303,0
300,332,307,303,0
299,324,305,303,0
298,317,303,301,0
296,313,302,300,0
296,309,301,301,0
296,303,302,302,0
296,294,305,303,0
295,285,307,305,0
297,279,311,308,0
299,278,313,309,0
301,279,312,308,0
302,281,310,307,0
302,285,308,305,0
301,293,306,303,0
301,304,303,302,0
301,315,299,300,0
303,326,298,299,0
306,336,298,297,0
307,339,299,297,0
307,334,301,297,0
307,328,303,299,0
307,323,304,300,0
305,317,305,302,0
303,308,306,304,0
302,303,307,307,0
301,306,308,309,0
301,316,309,311,0
301,326,310,311,0
302,322,309,311,0
301,308,307,309,0
299,290,308,309,0
298,276,310,309,0
297,269,312,310,0
298,270,315,311,0
299,278,316,312,0
300,291,315,311,0
300,302,313,309,0
299,309,311,307,0
297,310,312,307,0
297,306,312,308,0
298,300,313,309,0
299,295,314,309,0
301,294,313,309,0
302,298,311,306,0
301,305,307,304,0
299,311,303,302,0
298,314,302,304,0
299,319,304,307,0
301,320,307,310,0
303,318,307,312,0
302,316,307,311,0
300,316,306,308,0
298,320,305,304,0
297,324,303,301,0
295,325,302,299,0
294,320,302,299,0
294,312,301,300,0
295,303,301,301,0
296,296,302,303,0
299,299,302,305,0
303,315,304,307,0
308,335,306,309,0
312,347,308,311,0
313,348,309,312,0
312,338,308,312,0
309,319,306,311,0
307,298,305,311,0
305,282,307,310,0
303,274,307,309,0
301,271,307,309,0
298,272,306,309,0
297,275,305,308,0
295,280,303,307,0
293,289,300,305,0
293,301,298,304,0
294,314,298,304,0
295,325,298,304,0
296,325,297,304,0
296,316,296,304,0
296,305,294,303,0
296,300,295,303,0
298,302,296,303,0
300,310,299,304,0
302,314,303,305,0
303,312,305,306,0
304,303,307,308,0
304,293,308,310,0
304,281,308,311,0
303,269,306,310,0
300,260,304,309,0
297,252,302,306,0
294,247,302,305,0
294,250,307,308,0
297,262,312,311,0
300,283,315,312,0
302,308,316,311,0
303,328,316,309,0
302,338,314,306,0
301,335,312,304,0
300,329,310,302,0
300,323,307,300,0
300,316,305,298,0
300,310,304,297,0
301,309,302,295,0
301,310,302,294,0
301,312,300,293,0
301,315,300,293,0
302,319,303,296,0
302,324,307,299,0
300,322,309,302,0
299,314,310,306,0
298,304,311,309,0
298,296,310,311,0
299,290,309,312,0
300,286,307,309,0
302,288,306,308,0
304,299,306,308,0
305,316,306,308,0
305,333,308,310,0
306,344,309,311,0
304,343,310,311,0
302,335,310,310,0
300,327,308,309,0
300,322,306,307,0
300,318,304,306,0
300,313,303,307,0
299,306,302,307,0
298,297,300,307,0
296,289,299,306,0
295,286,299,307,0
297,286,301,308,0
300,287,303,310,0
304,287,306,312,0
309,286,309,313,0
312,285,312,313,0
312,284,313,312,0
309,286,312,309,0
306,292,311,306,0
304,299,311,304,0
304,307,311,304,0
304,313,310,304,0
304,317,306,302,0
302,314,302,301,0
301,310,297,299,0
300,306,294,299,0
300,302,293,300,0
299,299,294,300,0
298,296,295,302,0
298,296,299,304,0
298,300,303,306,0
298,305,305,308,0
298,308,306,309,0
298,309,306,309,0
298,312,305,309,0
298,317,304,308,0
300,323,303,308,0
301,328,302,308,0
302,326,301,308,0
301,316,301,309,0
302,304,301,310,0
303,298,301,311,0
304,299,301,312,0
306,302,301,312,0
309,307,301,311,0
311,310,301,310,0
310,313,301,309,0
307,318,302,309,0
305,326,302,309,0
303,336,302,310,0
302,339,300,310,0
301,332,299,310,0
300,316,299,310,0
299,299,299,311,0
298,285,301,312,0
298,273,303,313,0
298,262,304,313,0
298,250,305,313,0
299,242,306,312,0
301,240,307,312,0
302,245,308,312,0
304,257,311,313,0
307,273,315,315,0
310,295,317,315,0
311,317,316,314,0
310,334,314,313,0
308,341,311,311,0
303,338,308,309,0
298,329,305,308,0
292,319,302,306,0
288,308,302,306,0
286,302,302,306,0
286,298,303,306,0
287,292,304,306,0
288,285,303,306,0
289,284,303,307,0
291,286,302,308,0
294,292,302,309,0
298,299,303,310,0
302,309,304,311,0
304,318,306,311,0
306,319,306,310,0
307,315,305,309,0
308,311,304,308,0
310,313,304,307,0
311,320,306,307,0
312,329,307,306,0
310,336,307,303,0
307,340,305,301,0
305,341,303,300,0
304,342,300,300,0
303,349,301,302,0
306,360,305,305,0
308,369,312,309,0
310,369,316,311,0
309,357,318,310,0
305,334,316,309,0
302,310,312,307,0
300,294,310,306,0
299,289,308,306,0
299,289,305,307,0
299,293,302,306,0
300,298,299,305,0
301,297,297,304,0
301,292,294,301,0
299,290,291,300,0
297,292,290,299,0
296,294,292,300,0
295,295,295,300,0
294,291,299,301,0
293,281,303,303,0
294,269,307,305,0
295,263,310,306,0
297,264,311,306,0
298,273,310,305,0
298,282,310,305,0
298,287,309,305,0
297,289,309,305,0
297,289,309,306,0
297,293,310,308,0
299,299,311,310,0
301,306,312,311,0
302,317,312,312,0
303,321,312,313,0
303,315,310,312,0
300,302,307,311,0
296,288,305,310,0
292,280,303,309,0
291,279,303,309,0
292,286,304,310,0
295,296,305,312,0
299,306,305,311,0
304,314,303,310,0
307,321,301,308,0
309,326,299,307,0
310,329,297,306,0
309,329,298,305,0
308,326,300,304,0
306,321,303,304,0
302,316,305,303,0
299,311,306,302,0
298,309,305,302,0
298,310,305,302,0
301,312,304,303,0
304,316,305,305,0
308,324,307,308,0
310,333,310,311,0
310,340,312,313,0
309,344,313,312,0
308,345,312,312,0
307,344,312,311,0
307,343,311,310,0
309,345,311,311,0
312,345,311,312,0
312,336,312,311,0
309,321,311,310,0
305,308,311,310,0
304,304,310,311,0
304,302,310,311,0
304,298,311,311,0
304,289,310,309,0
303,280,308,307,0
301,274,306,305,0
299,273,303,304,0
300,276,303,304,0
301,281,302,304,0
301,288,302,304,0
301,296,301,305,0
300,306,301,305,0
300,314,301,305,0
302,320,302,305,0
306,325,304,306,0
310,328,305,306,0
313,328,308,305,0
314,324,309,305,0
312,315,309,304,0
307,303,307,304,0
303,291,306,304,0
300,278,306,305,0
298,261,306,306,0
298,244,307,307,0
298,235,307,307,0
298,237,306,307,0
300,252,305,305,0
300,270,303,303,0
298,284,302,302,0
297,290,301,302,0
295,292,300,302,0
294,294,300,302,0
293,295,301,302,0
292,295,301,301,0
293,301,302,301,0
294,308,302,301,0
296,315,302,301,0
297,322,302,301,0
298,330,302,301,0
299,333,301,301,0
300,330,301,302,0
302,326,302,302,0
306,329,302,303,0
309,336,302,302,0
311,342,304,302,0
311,344,306,303,0
310,339,308,305,0
310,333,310,306,0
308,325,310,307,0
306,319,308,308,0
303,317,306,307,0
301,321,305,306,0
301,328,305,304,0
302,329,306,303,0
302,327,306,300,0
301,323,307,299,0
302,321,308,298,0
302,322,308,296,0
302,324,309,295,0
301,327,309,294,0
301,327,311,294,0
301,324,312,297,0
302,317,313,300,0
303,307,313,303,0
303,294,313,306,0
302,280,314,310,0
302,268,314,313,0
302,258,314,315,0
301,251,313,316,0
301,248,311,316,0
300,251,309,314,0
300,255,306,313,0
302,259,303,311,0
304,265,302,310,0
306,274,302,309,0
307,286,304,309,0
306,299,306,309,0
305,314,307,308,0
306,329,306,307,0
308,342,304,305,0
308,351,302,304,0
308,355,302,303,0
307,349,302,305,0
305,337,303,306,0
301,326,304,306,0
300,321,306,308,0
301,323,308,310,0
304,326,311,311,0
307,328,312,312,0
310,326,313,313,0
311,321,312,312,0
310,317,311,311,0
309,314,310,311,0
306,312,310,311,0
302,310,310,311,0
299,309,310,311,0
297,313,310,311,0
297,320,310,311,0
299,329,311,312,0
302,337,311,312,0
304,339,312,312,0
306,342,312,311,0
308,346,311,310,0
309,344,310,308,0
310,336,309,306,0
308,328,308,304,0
307,321,308,303,0
305,317,307,303,0
302,312,306,302,0
300,306,306,303,0
299,299,307,306,0
298,297,307,308,0
298,297,308,309,0
299,298,309,310,0
302,296,311,309,0
305,293,311,309,0
305,287,310,308,0
304,279,308,307,0
302,272,306,305,0
302,275,305,305,0
304,287,306,306,0
307,302,307,307,0
309,312,306,307,0
308,313,303,305,0
307,309,300,303,0
309,304,299,302,0
313,305,300,301,0
315,307,300,299,0
312,307,298,296,0
306,305,297,295,0
299,305,297,296,0
295,307,299,299,0
293,308,300,301,0
293,306,300,302,0
293,300,300,303,0
293,290,299,303,0
293,282,300,303,0
293,281,302,303,0
295,289,304,304,0
297,304,306,304,0
300,315,306,304,0
300,317,305,304,0
300,309,305,305,0
299,295,305,306,0
298,283,307,309,0
300,280,310,310,0
303,287,313,311,0
305,300,313,309,0
306,316,311,307,0
306,331,308,304,0
306,342,305,301,0
304,346,302,299,0
301,344,299,299,0
298,337,297,299,0
297,324,297,300,0
297,311,298,302,0
297,300,300,305,0
300,293,303,308,0
303,297,306,312,0
307,308,310,316,0
311,320,313,318,0
313,335,313,319,0
314,351,313,318,0
314,362,313,317,0
313,360,311,315,0
310,341,310,314,0
307,313,311,312,0
303,278,312,312,0
300,247,314,312,0
298,232,315,313,0
297,235,316,313,0
298,250,316,313,0
299,268,316,312,0
302,285,315,310,0
302,295,313,306,0
302,300,309,304,0
301,300,306,303,0
302,301,305,304,0
305,306,306,307,0
308,311,308,310,0
310,316,308,312,0
309,319,309,312,0
308,320,310,312,0
306,319,312,310,0
306,319,314,310,0
306,322,315,309,0
305,327,315,309,0
305,331,313,309,0
304,337,313,309,0
305,345,312,309,0
306,353,312,310,0
307,356,311,310,0
305,352,309,309,0
303,341,306,309,0
301,329,306,309,0
300,317,305,309,0
300,309,306,310,0
300,305,306,311,0
301,305,306,312,0
301,306,306,311,0
303,309,307,312,0
305,313,308,312,0
306,316,308,311,0
307,317,309,311,0
307,314,310,311,0
306,309,310,310,0
304,303,308,309,0
304,304,307,307,0
306,310,305,307,0
308,321,304,307,0
310,334,304,307,0
310,344,303,307,0
307,347,302,307,0
305,346,303,308,0
302,340,304,308,0
300,330,304,309,0
300,320,305,310,0
299,308,306,309,0
299,295,306,309,0
298,281,306,308,0
298,267,306,307,0
298,256,307,307,0
300,252,309,308,0
301,253,312,308,0
303,258,315,308,0
304,264,318,309,0
304,267,319,308,0
302,268,318,307,0
300,272,315,307,0
298,278,314,307,0
298,287,313,309,0
299,300,311,309,0
297,317,308,307,0
296,334,304,304,0
295,347,301,302,0
295,351,299,299,0
296,339,297,298,0
296,317,296,297,0
296,294,298,297,0
297,277,301,299,0
299,271,306,302,0
301,273,309,303,0
303,282,312,305,0
305,295,315,306,0
308,308,317,306,0
311,316,317,306,0
312,320,317,306,0
311,321,316,305,0
308,321,312,307,0
305,324,310,309,0
302,328,307,311,0
299,332,305,312,0
298,333,303,312,0
296,333,301,310,0
296,333,300,308,0
297,334,301,305,0
300,337,304,304,0
304,337,308,302,0
305,327,311,301,0
304,312,312,300,0
303,299,312,302,0
302,293,312,306,0
302,293,313,311,0
303,295,313,315,0
302,296,313,317,0
301,294,313,318,0
299,288,313,317,0
299,284,313,317,0
298,284,313,317,0
297,285,314,317,0
297,288,315,318,0
298,296,315,316,0
298,305,314,314,0
297,313,311,311,0
296,315,308,308,0
295,314,305,305,0
295,310,304,303,0
297,307,303,302,0
299,307,303,301,0
301,306,303,302,0
302,303,303,302,0
302,298,303,302,0
301,292,303,302,0
300,289,302,302,0
300,293,303,302,0
302,302,304,303,0
305,315,306,304,0
306,323,306,304,0
306,322,306,304,0
304,311,305,305,0
302,300,305,306,0
303,301,307,308,0
306,313,310,311,0
309,330,312,313,0
312,342,313,314,0
313,343,311,314,0
311,333,308,313,0
307,318,304,312,0
304,304,303,311,0
305,298,305,313,0
309,304,307,314,0
313,316,309,313,0
315,323,308,312,0
312,323,306,310,0
309,320,306,308,0
307,322,306,307,0
307,330,308,309,0
308,338,310,310,0
307,336,309,310,0
305,326,308,309,0
303,314,306,309,0
300,302,304,310,0
296,290,303,310,0
293,279,303,310,0
292,276,303,310,0
292,282,303,309,0
293,293,302,308,0
295,300,302,307,0
297,305,303,307,0
300,308,302,306,0
300,308,299,305,0
300,306,298,303,0
300,305,297,302,0
300,305,297,303,0
302,309,299,303,0
304,316,300,303,0
305,322,301,302,0
304,318,301,301,0
301,302,301,300,0
298,286,301,299,0
297,279,301,300,0
296,283,300,301,0
297,291,299,302,0
299,300,299,304,0
301,305,298,305,0
302,307,299,306,0
302,307,303,308,0
302,311,308,310,0
304,321,313,312,0
306,336,316,313,0
308,351,317,311,0
308,356,314,308,0
305,351,310,303,0
303,343,307,299,0
301,336,305,297,0
300,328,304,296,0
299,319,304,298,0
298,310,304,301,0
298,301,304,305,0
297,293,305,310,0
298,286,306,314,0
299,282,308,317,0
301,285,309,318,0
301,293,310,317,0
299,301,309,316,0
298,308,308,314,0
297,315,308,313,0
300,321,310,313,0
306,327,313,315,0
312,333,316,315,0
316,337,317,315,0
317,335,316,314,0
315,325,313,312,0
312,308,310,310,0
308,287,309,310,0
304,263,309,310,0
298,242,308,311,0
295,234,307,313,0
296,247,308,315,0
299,276,307,315,0
304,310,307,316,0
308,335,307,315,0
309,347,305,314,0
307,349,304,311,0
304,346,301,310,0
302,345,299,308,0
300,344,299,307,0
298,339,299,306,0
296,332,298,304,0
294,323,297,303,0
291,318,296,301,0
289,314,296,300,0
290,313,296,300,0
292,314,297,302,0
296,315,299,304,0
300,313,301,306,0
303,309,303,307,0
305,305,304,308,0
306,302,306,308,0
306,301,306,309,0
306,300,307,309,0
304,299,306,309,0
301,296,304,309,0
298,288,302,309,0
296,279,300,309,0
295,268,300,310,0
294,255,301,311,0
295,241,303,312,0
297,230,306,314,0
300,228,309,315,0
303,237,312,316,0
306,255,313,316,0
308,279,312,315,0
308,301,310,313,0
306,315,307,310,0
303,321,305,307,0
300,321,304,305,0
299,321,304,304,0
298,321,303,305,0
299,325,303,307,0
302,331,305,308,0
305,336,307,310,0
308,338,308,312,0
309,338,309,313,0
310,336,308,314,0
310,329,307,314,0
311,320,307,315,0
310,314,308,316,0
311,310,309,316,0
311,307,310,316,0
312,307,310,317,0
314,310,310,316,0
315,318,310,314,0
316,320,311,313,0
314,318,313,312,0
311,317,314,311,0
307,319,313,309,0
301,323,310,306,0
295,324,306,303,0
290,319,302,302,0
287,311,299,300,0
286,302,296,300,0
285,296,295,301,0
286,295,295,303,0
289,300,298,306,0
292,307,303,309,0
294,314,308,311,0
294,313,309,312,0
294,307,309,312,0
293,300,309,311,0
296,296,308,309,0
300,295,308,309,0
304,294,307,309,0
305,291,305,307,0
304,283,302,305,0
302,276,299,304,0
301,271,298,303,0
300,271,296,302,0
300,278,295,301,0
301,293,294,298,0
302,309,294,297,0
304,321,295,296,0
304,326,297,298,0
304,326,300,301,0
304,323,303,304,0
305,320,307,309,0
306,313,312,314,0
306,303,315,317,0
304,290,317,318,0
302,281,316,317,0
301,280,315,316,0
301,283,316,316,0
303,287,317,316,0
305,293,317,317,0
308,300,317,317,0
312,307,315,317,0
314,313,313,316,0
315,316,310,315,0
314,315,308,313,0
312,312,307,313,0
309,310,306,312,0
305,314,306,311,0
301,316,305,310,0
298,314,304,310,0
297,313,304,310,0
299,318,303,311,0
302,330,304,312,0
306,344,307,313,0
310,349,309,313,0
312,344,311,313,0
314,337,311,312,0
316,332,311,310,0
317,329,310,308,0
317,324,309,306,0
315,312,307,304,0
310,291,304,302,0
305,267,302,301,0
302,247,300,302,0
301,242,300,304,0
303,251,303,307,0
304,268,305,309,0
305,286,307,311,0
303,297,307,310,0
299,302,307,309,0
294,307,307,309,0
290,314,308,309,0
289,325,310,309,0
290,337,311,309,0
293,343,311,309,0
294,339,310,308,0
295,329,308,307,0
297,317,306,307,0
299,306,305,307,0
301,299,304,307,0
304,293,304,308,0
306,286,304,309,0
305,275,303,310,0
302,261,303,309,0
301,251,303,310,0
300,253,304,311,0
301,266,305,311,0
302,283,305,311,0
304,302,304,311,0
306,323,303,312,0
309,341,304,313,0
312,351,306,315,0
316,349,308,317,0
317,338,310,317,0
315,321,311,316,0
309,304,311,314,0
304,295,311,311,0
299,295,308,309,0
297,298,307,308,0
297,303,305,308,0
299,309,305,308,0
303,314,305,308,0
306,318,306,308,0
307,318,305,307,0
306,316,303,307,0
304,320,302,305,0
304,328,301,305,0
305,340,300,304,0
305,349,301,304,0
305,353,304,304,0
305,353,307,305,0
305,349,311,307,0
305,340,314,308,0
304,329,315,309,0
303,319,315,308,0
300,309,314,306,0
299,303,313,304,0
298,301,313,304,0
300,302,313,304,0
303,303,313,305,0
305,302,312,306,0
304,299,309,306,0
302,295,307,305,0
299,289,304,305,0
295,285,301,305,0
292,287,300,305,0
292,292,302,306,0
295,298,303,307,0
301,301,305,306,0
305,300,305,304,0
307,294,304,301,0
306,285,302,300,0
305,277,301,300,0
305,274,301,302,0
305,277,303,304,0
305,283,304,306,0
303,289,304,305,0
302,295,304,305,0
302,299,304,305,0
301,298,303,306,0
301,290,302,306,0
300,278,302,307,0
300,263,302,308,0
302,252,304,311,0
304,256,306,314,0
307,273,308,316,0
308,296,308,316,0
308,315,307,315,0
307,325,305,314,0
305,329,304,313,0
305,332,304,313,0
305,332,305,314,0
306,326,306,315,0
306,318,308,316,0
306,310,310,317,0
307,304,312,317,0
308,300,313,317,0
308,297,313,317,0
308,294,312,316,0
309,291,311,316,0
309,295,311,315,0
309,304,310,314,0
306,317,307,311,0
303,330,304,308,0
301,338,302,306,0
298,334,300,304,0
298,324,299,304,0
299,317,300,306,0
301,315,301,308,0
304,317,302,310,0
305,322,303,311,0
305,327,303,310,0
303,328,302,309,0
303,326,301,308,0
304,324,301,308,0
304,325,300,306,0
305,330,301,305,0
305,336,302,304,0
306,337,303,303,0
307,333,304,303,0
306,322,304,303,0
305,309,304,303,0
305,297,303,304,0
304,287,302,305,0
304,280,302,306,0
303,274,303,308,0
303,271,304,310,0
303,274,305,311,0
303,280,306,311,0
304,284,306,311,0
304,287,306,309,0
304,288,305,308,0
304,288,306,307,0
304,289,307,308,0
304,288,308,308,0
304,283,310,309,0
303,277,311,310,0
302,272,312,310,0
303,278,313,311,0
305,294,313,310,0
306,315,312,310,0
308,331,309,309,0
308,338,307,309,0
309,339,304,308,0
310,336,301,307,0
309,333,298,305,0
306,329,296,304,0
304,326,296,303,0
302,322,297,304,0
302,321,298,305,0
303,324,300,306,0
304,329,302,307,0
304,330,303,306,0
301,324,305,306,0
299,313,306,306,0
298,300,308,307,0
298,289,309,308,0
300,284,310,309,0
302,283,311,309,0
303,282,310,309,0
304,281,309,309,0
304,280,308,310,0
305,283,307,311,0
307,290,305,312,0
309,302,305,314,0
311,315,305,315,0
314,326,305,315,0
315,331,304,314,0
313,331,303,311,0
308,326,302,308,0
304,320,302,304,0
302,321,303,303,0
301,325,303,302,0
302,327,306,303,0
305,325,308,304,0
308,321,310,306,0
311,318,311,307,0
310,312,311,307,0
307,306,312,307,0
307,302,312,306,0
307,298,312,306,0
309,298,311,307,0
311,304,312,308,0
313,314,311,310,0
311,316,309,311,0
308,308,307,312,0
305,301,306,313,0
303,298,306,313,0
302,293,306,312,0
300,282,305,310,0
297,270,303,309,0
294,259,301,309,0
293,251,300,309,0
295,248,300,310,0
299,252,302,311,0
302,259,305,310,0
304,272,307,309,0
305,289,308,309,0
306,304,305,308,0
308,313,304,308,0
311,318,304,309,0
312,322,306,311,0
314,330,309,314,0
314,341,310,314,0
313,350,310,313,0
311,359,309,312,0
310,366,308,311,0
308,369,307,310,0
306,368,307,310,0
303,362,307,310,0
303,356,308,312,0
306,348,310,315,0
310,336,313,317,0
313,322,315,318,0
313,308,315,318,0
310,293,313,316,0
307,280,309,314,0
303,271,305,312,0
302,270,305,311,0
303,275,305,310,0
304,285,307,309,0
305,295,307,307,0
305,303,307,306,0
304,308,306,305,0
305,314,304,305,0
307,320,304,305,0
309,328,304,307,0
309,336,304,308,0
309,343,304,310,0
307,349,305,310,0
304,350,305,311,0
302,347,304,311,0
300,336,304,311,0
299,323,305,311,0
299,308,306,311,0
300,296,306,311,0
301,287,307,310,0
301,285,307,309,0
302,288,307,309,0
302,294,307,308,0
303,296,309,308,0
302,288,309,308,0
299,272,309,308,0
296,256,309,307,0
296,247,309,307,0
297,247,308,306,0
298,252,305,305,0
299,263,302,305,0
301,281,301,305,0
304,301,300,307,0
307,321,301,308,0
309,341,303,308,0
310,357,304,309,0
309,367,305,309,0
309,374,307,308,0
309,370,310,307,0
308,361,312,304,0
307,352,313,302,0
309,346,313,301,0
310,340,311,302,0
312,331,310,305,0
315,322,309,311,0
317,313,308,315,0
316,307,306,318,0
314,305,303,319,0
313,309,301,320,0
312,313,300,319,0
310,314,300,317,0
309,313,300,315,0
306,311,301,312,0
304,305,301,309,0
300,297,301,307,0
297,291,302,306,0
296,294,304,307,0
298,302,305,308,0
301,310,304,308,0
304,315,303,308,0
306,317,302,309,0
308,315,303,310,0
308,311,303,311,0
308,308,304,312,0
306,307,304,311,0
305,307,305,312,0
303,301,306,313,0
300,289,307,314,0
298,277,308,316,0
297,271,309,318,0
297,275,310,319,0
300,287,310,319,0
303,300,308,318,0
305,304,307,316,0
306,299,305,313,0
306,289,305,312,0
305,284,304,312,0
303,286,304,312,0
302,294,304,312,0
301,302,303,311,0
300,311,302,311,0
299,321,302,310,0
300,332,303,310,0
302,340,303,310,0
303,343,301,308,0
303,343,299,307,0
305,343,300,307,0
307,343,303,306,0
308,340,305,306,0
307,332,306,305,0
305,319,307,306,0
304,306,307,308,0
304,290,308,311,0
309,276,310,317,0
315,270,315,323,0
321,273,318,326,0
322,279,318,326,0
318,282,316,323,0
313,285,313,320,0
308,290,310,316,0
305,297,306,313,0
303,307,303,309,0
302,316,302,307,0
302,324,301,305,0
300,329,300,303,0
298,331,301,301,0
297,329,301,301,0
297,325,302,300,0
298,322,304,299,0
301,324,306,300,0
304,330,308,301,0
307,333,310,302,0
307,331,309,302,0
306,325,308,302,0
305,318,306,303,0
305,311,306,304,0
307,306,306,306,0
310,304,310,309,0
314,308,314,313,0
317,316,317,315,0
317,320,318,315,0
316,320,317,315,0
314,319,316,313,0
311,317,314,312,0
309,314,312,310,0
306,311,309,308,0
304,307,307,305,0
302,301,304,303,0
299,292,302,301,0
296,284,300,299,0
295,280,300,298,0
295,282,302,299,0
296,286,303,300,0
297,287,303,301,0
296,284,302,302,0
297,276,302,303,0
297,267,301,303,0
299,260,303,304,0
303,262,305,304,0
306,271,307,303,0
307,282,309,304,0
308,293,311,306,0
308,301,312,308,0
309,309,314,312,0
309,317,314,314,0
307,322,312,314,0
305,322,309,314,0
303,321,308,313,0
303,320,308,313,0
302,316,308,310,0
300,308,306,308,0
298,302,304,306,0
296,299,303,305,0
294,298,304,304,0
294,296,304,305,0
296,295,306,305,0
301,299,308,307,0
308,306,310,309,0
314,313,311,309,0
318,318,310,308,0
319,322,308,307,0
318,324,306,306,0
316,328,305,305,0
315,334,304,305,0
312,337,304,305,0
308,335,302,304,0
304,333,301,304,0
303,335,300,304,0
304,344,301,307,0
306,355,304,309,0
307,358,308,310,0
307,350,310,310,0
305,339,311,309,0
305,330,311,308,0
304,324,310,308,0
304,322,310,307,0
304,321,310,306,0
301,319,311,305,0
299,316,311,303,0
299,313,310,302,0
300,306,310,302,0
301,295,309,302,0
302,284,308,302,0
303,279,309,304,0
306,284,310,307,0
308,295,311,309,0
308,304,310,309,0
307,311,309,309,0
306,313,308,309,0
306,311,307,309,0
306,307,308,310,0
306,300,308,311,0
305,291,306,312,0
301,284,305,312,0
298,280,304,312,0
295,280,304,312,0
293,283,303,311,0
294,287,302,310,0
297,292,303,308,0
299,294,302,306,0
300,291,302,305,0
301,281,302,305,0
301,270,304,307,0
301,262,305,309,0
303,259,307,311,0
304,263,309,311,0
307,276,310,311,0
311,293,310,310,0
315,307,309,309,0
318,321,308,308,0
322,336,308,309,0
326,353,310,311,0
328,367,313,313,0
327,370,314,312,0
321,362,311,309,0
314,349,307,306,0
309,334,303,304,0
305,319,299,302,0
303,309,297,302,0
303,308,297,302,0
304,316,299,302,0
304,323,300,301,0
302,324,300,300,0
301,318,300,299,0
300,310,300,300,0
298,303,300,299,0
298,302,301,300,0
299,310,302,301,0
301,321,302,302,0
301,332,302,304,0
301,339,302,305,0
300,340,301,305,0
298,334,301,305,0
296,321,301,305,0
295,304,302,306,0
295,285,304,308,0
295,269,306,310,0
296,258,309,312,0
299,253,312,313,0
302,255,315,315,0
306,262,318,315,0
308,273,320,315,0
311,282,322,315,0
314,288,322,315,0
318,294,320,313,0
319,300,316,312,0
318,305,314,312,0
317,310,312,313,0
314,313,310,312,0
310,315,308,312,0
305,317,306,311,0
300,320,305,310,0
297,322,304,309,0
297,322,305,309,0
297,319,307,310,0
299,319,308,310,0
301,324,309,310,0
302,331,308,310,0
303,337,307,309,0
305,343,307,309,0
307,347,307,309,0
307,345,307,308,0
306,335,306,308,0
305,320,305,308,0
303,307,303,307,0
301,298,302,306,0
300,293,300,305,0
299,291,299,305,0
300,291,298,306,0
300,291,297,308,0
301,289,297,309,0
301,284,299,311,0
302,280,300,311,0
302,276,301,311,0
304,277,302,311,0
307,285,302,310,0
310,295,302,309,0
311,304,300,307,0
311,307,299,306,0
312,308,299,306,0
310,307,299,306,0
308,303,299,307,0
306,300,300,307,0
306,299,301,309,0
306,301,302,310,0
306,306,303,310,0
307,313,304,311,0
308,318,305,311,0
309,322,305,312,0
310,326,305,313,0
310,331,306,313,0
311,336,306,313,0
311,336,307,313,0
310,330,307,312,0
309,320,307,311,0
308,307,308,311,0
307,293,307,311,0
306,280,307,311,0
305,273,307,311,0
304,271,306,309,0
304,272,306,306,0
303,276,305,303,0
303,284,305,301,0
302,291,306,301,0
302,298,307,302,0
302,303,308,302,0
302,305,307,303,0
302,301,305,304,0
302,296,303,305,0
302,293,303,306,0
304,295,305,308,0
307,298,308,310,0
310,300,310,311,0
311,302,312,313,0
313,308,315,314,0
314,317,316,315,0
312,322,313,314,0
306,324,311,311,0
301,323,309,309,0
299,317,308,308,0
297,311,306,306,0
297,305,304,306,0
299,300,303,306,0
301,296,303,307,0
302,293,303,307,0
303,291,302,306,0
303,290,301,305,0
303,286,299,305,0
303,283,299,305,0
304,286,300,305,0
304,301,302,304,0
303,321,302,303,0
302,339,302,300,0
301,353,303,299,0
301,361,303,298,0
300,359,302,298,0
300,349,301,298,0
301,335,301,300,0
302,315,302,302,0
303,297,304,303,0
304,287,304,304,0
304,285,304,303,0
303,288,303,302,0
304,292,303,302,0
305,296,303,302,0
306,298,302,302,0
306,302,302,302,0
307,307,303,303,0
308,315,305,305,0
310,324,307,306,0
312,329,309,307,0
313,329,310,307,0
314,323,310,307,0
313,314,309,306,0
310,304,306,305,0
306,296,302,303,0
303,287,298,303,0
300,276,297,304,0
300,268,298,306,0
302,266,301,309,0
306,275,306,312,0
311,289,310,314,0
314,304,312,313,0
314,317,313,310,0
311,327,311,306,0
307,332,308,303,0
304,333,304,300,0
300,329,301,298,0
296,322,298,297,0
295,315,298,299,0
295,308,299,301,0
296,301,301,303,0
298,296,304,305,0
300,294,306,307,0
300,293,308,309,0
301,293,310,312,0
301,293,313,313,0
301,294,315,313,0
302,297,314,313,0
303,302,314,312,0
305,310,313,312,0
307,318,311,311,0
307,324,309,310,0
307,330,307,309,0
306,337,307,308,0
305,344,308,307,0
304,348,308,306,0
303,350,308,306,0
301,347,306,305,0
301,340,304,304,0
304,337,304,305,0
307,335,305,308,0
310,328,308,312,0
311,315,310,315,0
310,302,311,317,0
308,293,311,318,0
305,292,311,318,0
303,298,311,317,0
302,304,310,316,0
301,301,308,314,0
300,293,308,312,0
301,285,308,310,0
303,281,308,310,0
303,279,308,309,0
301,278,306,309,0
299,277,306,309,0
298,275,307,311,0
295,270,307,312,0
293,261,308,313,0
293,251,309,315,0
293,247,311,317,0
295,250,313,318,0
297,261,313,319,0
299,277,314,319,0
302,294,314,319,0
305,309,314,318,0
308,321,313,315,0
311,328,312,311,0
313,330,311,309,0
314,330,310,308,0
316,329,308,309,0
316,328,306,310,0
314,323,304,311,0
310,314,302,312,0
304,305,299,312,0
300,300,299,313,0
299,301,302,314,0
299,307,304,314,0
299,312,306,313,0
300,314,306,312,0
299,313,304,309,0
298,313,302,307,0
298,316,302,306,0
300,320,302,307,0
303,323,303,307,0
305,325,302,308,0
305,324,300,308,0
304,321,297,307,0
303,317,295,306,0
302,317,293,305,0
302,320,293,304,0
303,324,294,304,0
303,327,295,304,0
302,326,297,304,0
301,324,299,304,0
300,321,301,304,0
301,322,302,305,0
302,324,304,306,0
304,322,305,306,0
304,315,305,306,0
303,303,304,305,0
302,289,303,306,0
301,274,303,308,0
300,265,303,310,0
301,268,304,312,0
303,283,306,313,0
305,301,308,314,0
306,311,308,313,0
305,307,307,312,0
304,289,307,311,0
304,269,308,312,0
306,258,310,313,0
310,263,312,315,0
314,279,314,316,0
316,298,315,316,0
316,316,314,315,0
314,325,310,313,0
311,325,307,311,0
307,319,305,310,0
304,309,304,310,0
302,304,306,311,0
302,304,308,313,0
303,309,310,315,0
304,314,310,315,0
304,319,310,313,0
304,324,310,311,0
304,328,309,308,0
304,330,309,308,0
305,329,310,308,0
307,325,311,309,0
307,317,311,310,0
306,308,310,310,0
305,299,309,311,0
305,289,308,311,0
305,282,306,311,0
307,279,304,310,0
308,282,304,309,0
307,286,304,309,0
305,287,304,309,0
301,289,304,309,0
299,294,304,309,0
298,304,305,310,0
299,317,305,311,0
301,329,305,311,0
301,336,304,310,0
300,336,303,310,0
299,332,304,312,0
300,328,304,313,0
302,329,305,315,0
304,337,306,316,0
305,346,306,317,0
305,350,306,317,0
303,342,304,316,0
300,326,301,313,0
297,305,298,310,0
294,286,297,308,0
294,273,298,306,0
294,265,300,306,0
295,258,301,306,0
295,254,302,306,0
295,253,301,305,0
296,259,301,304,0
299,272,301,304,0
303,289,301,304,0
305,304,301,305,0
307,315,301,308,0
310,323,305,311,0
314,328,308,314,0
317,329,311,316,0
320,320,314,317,0
321,302,314,317,0
319,289,312,314,0
318,292,310,312,0
317,312,310,309,0
316,335,309,308,0
314,351,308,306,0
310,355,306,306,0
305,350,304,306,0
301,339,302,306,0
298,330,299,307,0
297,326,298,308,0
297,326,299,309,0
298,327,300,310,0
298,330,303,310,0
299,330,305,311,0
300,328,308,312,0
300,323,311,312,0
299,316,312,312,0
300,307,313,311,0
302,302,312,310,0
304,298,312,309,0
306,297,313,309,0
308,299,312,308,0
308,301,311,306,0
308,300,309,306,0
308,297,308,306,0
308,294,307,308,0
309,290,308,309,0
309,287,308,308,0
308,282,309,308,0
306,274,309,306,0
304,266,309,305,0
302,265,309,305,0
303,273,310,305,0
304,288,310,306,0
305,307,309,308,0
307,321,307,309,0
308,325,306,311,0
309,321,306,311,0
307,312,306,310,0
304,305,305,308,0
302,305,304,307,0
302,312,303,306,0
304,320,304,306,0
307,326,305,307,0
308,326,306,307,0
309,325,306,307,0
308,326,307,306,0
308,323,308,307,0
306,318,307,307,0
303,316,306,308,0
301,312,305,309,0
300,306,305,310,0
298,296,304,311,0
296,283,305,312,0
296,273,307,313,0
298,270,308,313,0
301,277,308,314,0
305,291,307,312,0
308,307,306,310,0
309,319,304,306,0
309,322,304,304,0
308,321,304,303,0
307,317,305,302,0
306,311,308,302,0
306,308,309,302,0
308,306,310,302,0
309,305,308,302,0
309,304,305,300,0
308,300,302,298,0
306,297,298,295,0
305,294,297,295,0
304,292,297,296,0
304,290,299,297,0
303,287,299,299,0
303,283,299,301,0
302,283,300,302,0
303,292,302,304,0
306,307,305,306,0
309,323,309,307,0
313,332,312,307,0
315,330,314,306,0
316,325,314,305,0
317,321,312,303,0
317,318,309,302,0
314,313,308,300,0
311,303,306,298,0
306,289,305,297,0
301,275,303,297,0
298,267,303,300,0
297,269,305,305,0
300,282,308,309,0
302,296,309,311,0
303,304,309,311,0
304,308,308,310,0
307,312,308,311,0
310,316,309,311,0
312,318,311,311,0
311,316,313,310,0
310,312,312,309,0
309,306,312,307,0
309,302,312,307,0
310,302,311,306,0
311,305,311,305,0
311,309,311,304,0
310,308,311,303,0
308,306,311,302,0
306,306,310,302,0
304,308,309,300,0
302,313,309,300,0
303,324,311,299,0
305,337,311,298,0
305,344,310,296,0
304,341,308,294,0
304,331,306,294,0
303,317,305,296,0
303,302,305,298,0
302,291,305,300,0
302,285,306,301,0
302,283,305,302,0
301,283,305,302,0
302,285,305,303,0
303,293,306,303,0
306,305,308,304,0
310,314,311,304,0
313,321,313,305,0
315,323,314,305,0
314,319,314,304,0
311,313,312,303,0
308,308,310,301,0
306,306,308,300,0
304,305,307,300,0
304,303,307,302,0
307,303,308,305,0
309,306,310,308,0
310,310,311,310,0
310,313,311,310,0
310,316,311,311,0
310,314,310,311,0
312,311,309,310,0
312,303,307,310,0
311,289,305,308,0
309,273,303,307,0
306,260,302,306,0
304,249,302,305,0
305,242,304,306,0
308,242,307,307,0
311,250,310,309,0
313,265,311,309,0
312,281,310,308,0
309,298,308,308,0
307,312,305,308,0
307,324,304,309,0
308,331,303,309,0
309,334,302,310,0
309,330,302,310,0
307,320,302,310,0
306,313,302,310,0
305,310,303,309,0
306,311,304,308,0
308,311,305,308,0
309,306,306,308,0
307,291,307,310,0
305,271,310,313,0
303,261,311,315,0
302,264,313,316,0
302,276,313,316,0
302,291,312,314,0
301,304,308,311,0
298,310,305,307,0
295,312,303,305,0
295,315,302,306,0
295,321,303,306,0
296,327,304,306,0
297,333,305,306,0
298,337,305,306,0
300,339,305,306,0
302,337,305,306,0
303,329,305,306,0
304,322,305,307,0
305,321,305,307,0
306,326,306,308,0
307,334,307,310,0
308,341,308,311,0
309,344,308,313,0
309,345,310,314,0
310,345,313,315,0
310,342,316,315,0
309,334,317,315,0
308,325,317,314,0
305,315,316,314,0
302,304,315,313,0
301,291,313,313,0
301,277,313,313,0
301,265,313,314,0
303,257,313,314,0
304,251,312,313,0
305,251,311,312,0
306,257,310,310,0
308,267,310,308,0
309,277,308,305,0
310,286,307,304,0
310,292,308,304,0
309,298,308,307,0
308,307,307,308,0
307,314,306,309,0
307,320,305,310,0
308,320,304,309,0
306,315,301,308,0
304,306,299,306,0
303,298,297,306,0
304,298,297,306,0
306,306,297,308,0
308,316,298,309,0
308,324,301,309,0
306,328,302,310,0
304,329,304,310,0
304,329,306,311,0
306,330,308,311,0
308,332,308,310,0
308,332,308,308,0
306,329,307,305,0
304,324,306,302,0
303,319,304,301,0
303,314,302,302,0
304,309,302,302,0
305,310,301,303,0
307,313,301,305,0
308,317,301,309,0
310,319,302,313,0
310,315,302,316,0
309,308,302,318,0
308,304,301,318,0
306,301,300,317,0
303,299,300,317,0
302,300,300,315,0
301,302,300,314,0
299,306,300,312,0
299,315,302,311,0
300,327,303,311,0
302,339,307,311,0
305,349,310,312,0
308,352,313,313,0
310,339,314,314,0
309,313,314,314,0
306,284,314,315,0
303,253,313,315,0
299,228,311,314,0
296,213,309,312,0
293,212,305,309,0
293,229,303,307,0
298,259,303,306,0
303,290,303,305,0
308,316,302,305,0
310,335,301,304,0
310,347,301,304,0
311,353,303,304,0
312,356,306,305,0
313,357,307,305,0
313,352,306,304,0
312,344,305,303,0
311,333,302,302,0
309,317,299,301,0
307,300,298,301,0
306,288,297,301,0
304,280,297,300,0
302,278,298,299,0
301,281,299,299,0
300,289,300,300,0
300,298,302,303,0
300,306,304,306,0
299,311,306,309,0
296,311,308,313,0
294,309,310,315,0
293,305,312,317,0
294,298,313,317,0
297,292,315,318,0
300,289,316,318,0
303,289,315,317,0
305,293,314,316,0
308,301,313,315,0
310,307,312,314,0
311,308,311,312,0
309,305,311,311,0
306,299,311,309,0
303,296,311,308,0
300,292,310,306,0
297,290,309,306,0
296,286,309,306,0
297,283,310,309,0
299,285,312,312,0
302,293,312,313,0
304,303,313,314,0
305,311,312,313,0
304,312,311,311,0
302,309,310,308,0
300,306,309,306,0
298,304,307,305,0
298,301,307,306,0
300,299,307,308,0
303,300,308,310,0
305,303,310,311,0
307,310,311,312,0
308,321,311,311,0
308,333,309,309,0
308,340,306,307,0
309,342,304,305,0
308,337,302,304,0
305,324,302,303,0
302,309,302,302,0
300,300,302,301,0
300,302,303,300,0
301,311,305,300,0
303,324,306,300,0
305,331,306,299,0
305,329,305,299,0
307,324,304,300,0
309,323,303,300,0
310,326,303,301,0
310,328,303,301,0
307,323,302,301,0
305,314,301,302,0
303,308,303,303,0
304,305,305,305,0
307,304,306,308,0
309,302,307,309,0
312,300,307,309,0
312,299,304,310,0
310,299,302,309,0
307,299,301,309,0
304,303,301,309,0
301,309,301,308,0
297,311,301,308,0
295,310,302,307,0
294,307,303,307,0
295,301,305,309,0
297,293,308,310,0
300,283,312,312,0
302,273,314,313,0
302,269,314,314,0
302,275,312,313,0
301,288,309,312,0
300,298,306,311,0
300,302,301,310,0
300,305,300,309,0
302,309,300,311,0
303,314,301,312,0
304,320,302,312,0
304,323,302,311,0
303,319,302,311,0
304,311,303,312,0
304,307,304,312,0
305,304,305,312,0
306,303,304,311,0
306,300,302,308,0
307,295,301,306,0
306,288,301,302,0
305,283,300,299,0
304,286,299,298,0
303,291,299,298,0
303,292,301,301,0
303,286,302,304,0
304,279,305,309,0
306,282,309,313,0
309,298,312,316,0
311,317,313,317,0
310,328,312,315,0
307,331,311,314,0
304,331,310,313,0
301,331,310,312,0
299,329,310,312,0
298,324,311,312,0
298,320,311,313,0
299,319,311,313,0
301,319,312,314,0
304,320,313,315,0
308,321,313,315,0
312,318,313,314,0
314,313,311,312,0
315,308,310,311,0
316,307,309,310,0
315,309,308,310,0
312,311,307,309,0
308,314,306,308,0
305,315,305,307,0
302,313,304,307,0
301,308,304,307,0
300,306,304,306,0
299,310,304,306,0
300,318,304,306,0
301,329,304,306,0
303,340,303,306,0
305,350,303,306,0
307,353,302,305,0
307,345,301,304,0
306,327,300,303,0
303,307,298,301,0
300,294,296,300,0
299,289,295,300,0
300,291,296,300,0
302,294,298,301,0
303,295,299,303,0
304,294,300,303,0
304,293,300,304,0
305,292,299,304,0
306,291,298,304,0
307,289,298,304,0
307,288,297,302,0
307,292,297,301,0
307,302,295,300,0
306,312,295,300,0
307,318,297,303,0
308,323,301,307,0
308,322,306,311,0
308,310,310,314,0
308,293,312,317,0
308,278,313,318,0
309,269,314,319,0
310,270,316,320,0
313,281,317,320,0
315,296,317,319,0
314,307,316,317,0
312,315,315,315,0
309,319,315,313,0
307,322,316,312,0
307,324,318,311,0
308,327,320,310,0
308,329,320,309,0
307,331,318,308,0
306,335,316,308,0
305,339,314,308,0
304,339,312,306,0
303,338,310,304,0
300,333,307,302,0
298,322,305,301,0
295,307,304,302,0
293,292,303,304,0
293,279,304,306,0
294,269,305,306,0
295,266,307,307,0
298,272,309,308,0
302,285,311,308,0
306,300,310,307,0
309,316,309,305,0
309,329,307,304,0
308,335,306,303,0
306,332,306,303,0
303,325,305,304,0
301,317,304,305,0
300,314,304,307,0
299,317,303,308,0
299,324,301,309,0
299,330,300,310,0
299,332,302,311,0
300,328,307,313,0
302,322,314,314,0
304,312,319,315,0
303,298,321,316,0
300,278,321,317,0
298,258,320,318,0
298,242,318,319,0
298,232,314,318,0
298,232,312,317,0
300,241,312,317,0
303,256,313,317,0
305,273,312,315,0
306,286,311,313,0
306,295,309,311,0
306,302,307,309,0
306,307,307,309,0
307,311,307,310,0
307,313,306,310,0
304,310,305,309,0
302,307,304,308,0
300,306,304,309,0
300,307,305,309,0
300,308,305,310,0
301,311,304,309,0
301,317,305,309,0
303,328,306,307,0
304,340,308,306,0
303,351,308,304,0
301,353,307,302,0
301,355,308,302,0
303,356,310,302,0
305,354,311,301,0
306,348,311,299,0
307,338,311,298,0
306,323,310,297,0
301,301,309,296,0
295,274,307,296,0
291,254,307,298,0
290,247,309,302,0
295,253,312,306,0
299,267,313,309,0
302,282,311,309,0
304,293,308,309,0
305,297,306,308,0
306,292,307,308,0
308,281,310,310,0
310,270,313,312,0
310,269,314,313,0
310,274,314,314,0
309,281,315,313,0
308,293,314,312,0
308,309,312,309,0
307,324,310,305,0
306,332,308,302,0
303,332,305,299,0
300,329,303,296,0
298,325,300,295,0
296,323,298,295,0
296,324,296,296,0
297,324,297,299,0
300,322,298,303,0
303,316,300,305,0
306,308,302,307,0
309,302,304,308,0
313,302,307,308,0
316,308,309,306,0
316,313,310,302,0
314,313,309,297,0
310,311,308,293,0
308,311,308,292,0
306,310,308,292,0
306,306,310,295,0
305,301,311,299,0
304,294,312,302,0
304,285,313,305,0
304,279,313,307,0
304,279,313,310,0
304,284,313,311,0
303,291,312,312,0
302,291,309,312,0
301,286,307,313,0
301,281,307,314,0
302,274,309,317,0
304,270,312,319,0
305,274,314,320,0
306,283,314,319,0
306,292,311,316,0
304,296,306,312,0
302,300,302,309,0
302,308,300,307,0
303,318,299,306,0
303,327,300,307,0
304,332,302,307,0
305,335,304,307,0
305,338,305,307,0
304,341,305,306,0
302,342,303,305,0
300,340,302,304,0
299,339,301,303,0
298,338,301,302,0
298,338,302,303,0
301,342,302,303,0
304,346,302,304,0
306,348,302,303,0
309,348,302,304,0
310,343,301,304,0
310,335,299,304,0
310,331,297,304,0
311,330,296,305,0
312,328,297,307,0
311,321,300,310,0
308,311,303,311,0
304,300,304,311,0
300,291,305,310,0
297,286,306,310,0
297,286,308,310,0
299,291,309,310,0
301,296,311,310,0
302,297,311,309,0
302,293,310,308,0
301,283,308,307,0
300,272,308,307,0
300,264,309,307,0
300,263,311,308,0
302,270,312,309,0
305,282,312,309,0
307,295,312,309,0
308,303,311,309,0
307,306,310,309,0
306,306,310,309,0
306,306,311,310,0
307,308,313,310,0
310,313,313,311,0
309,315,311,309,0
306,313,307,308,0
301,309,305,307,0
297,307,304,308,0
294,306,306,308,0
292,305,308,310,0
294,304,309,311,0
295,303,310,311,0
298,303,311,311,0
302,299,310,310,0
304,290,309,309,0
305,284,309,308,0
306,286,309,308,0
307,297,309,306,0
309,313,310,305,0
312,327,310,303,0
314,337,309,300,0
314,339,308,297,0
311,333,305,293,0
306,322,301,291,0
300,308,297,290,0
296,297,295,291,0
294,293,295,294,0
294,292,297,298,0
295,292,300,302,0
296,291,302,305,0
296,289,304,308,0
296,286,304,311,0
296,279,306,312,0
296,273,309,312,0
297,271,308,311,0
297,274,307,309,0
299,283,306,307,0
303,295,306,306,0
308,308,307,304,0
311,316,307,303,0
311,320,306,302,0
309,322,305,302,0
307,325,305,304,0
305,329,308,307,0
304,335,311,310,0
304,341,312,311,0
303,345,312,311,0
304,345,312,311,0
305,341,313,311,0
307,332,313,312,0
307,317,312,313,0
305,300,310,313,0
303,283,306,311,0
302,269,303,309,0
303,263,301,307,0
306,269,300,305,0
311,288,300,303,0
316,314,300,303,0
319,338,301,305,0
320,352,302,307,0
318,354,303,308,0
314,347,304,310,0
310,332,305,311,0
305,309,306,311,0
301,289,307,311,0
299,279,308,311,0
300,280,308,311,0
302,290,308,310,0
305,303,308,309,0
307,315,307,306,0
307,322,306,304,0
305,325,305,304,0
302,324,305,303,0
300,319,305,304,0
299,314,305,306,0
299,309,306,307,0
300,302,306,307,0
302,293,306,308,0
304,283,307,308,0
307,275,308,309,0
308,270,308,309,0
309,266,308,309,0
308,262,308,308,0
308,262,308,307,0
310,271,310,307,0
313,286,313,307,0
316,300,315,308,0
319,313,317,308,0
320,321,316,308,0
317,324,314,307,0
312,319,311,306,0
305,309,308,305,0
300,299,306,305,0
298,296,304,305,0
298,298,304,306,0
300,301,304,306,0
303,302,304,307,0
307,300,304,307,0
311,296,305,307,0
312,294,305,307,0
312,301,304,305,0
310,314,304,303,0
306,324,303,300,0
303,326,303,298,0
301,326,304,298,0
300,325,304,297,0
299,322,305,297,0
299,322,304,298,0
298,325,304,298,0
299,333,304,299,0
300,342,305,300,0
302,350,305,300,0
303,356,305,301,0
303,360,306,301,0
303,361,308,302,0
304,357,310,304,0
306,348,311,306,0
308,335,311,308,0
310,324,310,309,0
312,318,310,310,0
313,317,309,309,0
314,315,307,308,0
313,313,306,308,0
312,313,306,308,0
313,315,306,308,0
313,317,306,308,0
311,319,305,307,0
307,317,302,305,0
302,311,300,302,0
298,301,299,300,0
297,292,300,300,0
300,288,304,302,0
306,293,308,305,0
311,300,310,306,0
313,303,310,305,0
311,297,309,302,0
307,283,306,299,0
302,267,303,296,0
298,251,301,295,0
294,240,301,295,0
292,241,300,295,0
292,254,300,296,0
292,274,300,297,0
294,296,301,300,0
297,312,301,302,0
301,317,301,304,0
304,312,301,306,0
305,304,301,309,0
306,298,301,312,0
305,293,301,315,0
304,289,302,318,0
302,283,304,320,0
303,276,308,323,0
304,272,311,324,0
305,276,313,324,0
306,287,315,323,0
308,304,315,321,0
310,325,315,319,0
311,341,313,316,0
309,348,311,313,0
308,346,308,311,0
305,338,306,309,0
304,330,306,308,0
304,327,306,308,0
304,326,307,308,0
305,322,307,309,0
306,317,308,310,0
306,311,308,310,0
307,310,308,310,0
307,315,308,311,0
309,327,309,312,0
309,339,311,314,0
309,342,312,315,0
306,336,311,315,0
303,328,310,315,0
301,321,309,315,0
300,317,308,314,0
299,317,308,314,0
301,318,309,314,0
303,314,311,315,0
307,307,312,317,0
311,301,313,317,0
315,295,313,317,0
318,291,313,316,0
319,293,313,314,0
317,299,313,311,0
313,305,312,308,0
307,309,308,305,0
303,311,304,302,0
301,314,301,300,0
300,316,300,299,0
299,317,300,298,0
299,318,300,298,0
299,319,300,298,0
300,320,299,300,0
301,320,298,301,0
301,319,299,303,0
302,316,301,304,0
303,311,303,304,0
304,305,306,304,0
304,296,307,305,0
305,285,308,305,0
305,278,307,304,0
304,275,305,304,0
303,279,303,303,0
302,286,302,304,0
304,289,302,306,0
304,286,303,308,0
306,278,305,309,0
307,269,307,310,0
307,260,307,311,0
307,255,308,311,0
306,256,309,312,0
307,260,310,312,0
307,267,311,312,0
308,279,311,311,0
310,297,311,309,0
313,318,310,307,0
314,331,309,304,0
312,331,307,302,0
310,323,305,301,0
306,310,303,300,0
304,296,301,299,0
302,288,302,299,0
302,288,304,301,0
302,298,308,302,0
303,312,309,302,0
301,323,308,300,0
298,327,306,297,0
295,329,304,295,0
293,333,303,295,0
293,337,303,295,0
293,340,304,296,0
296,345,304,298,0
299,349,304,298,0
300,347,302,298,0
300,338,299,297,0
300,327,297,296,0
300,315,296,294,0
300,307,296,293,0
302,303,297,293,0
303,302,297,294,0
305,302,299,297,0
306,300,301,302,0
307,297,303,307,0
308,296,305,311,0
307,296,307,315,0
306,297,309,316,0
305,298,309,315,0
304,298,309,313,0
301,295,310,312,0
300,295,309,311,0
299,298,309,311,0
299,304,309,312,0
301,311,310,313,0
303,314,311,314,0
304,316,311,313,0
306,317,311,313,0
307,320,311,312,0
308,320,311,312,0
310,318,312,311,0
311,315,313,310,0
313,313,314,310,0
313,308,313,308,0
310,302,312,307,0
307,295,311,307,0
305,290,309,307,0
303,289,308,308,0
302,287,307,309,0
300,283,305,309,0
299,276,304,309,0
298,265,304,310,0
299,254,305,312,0
301,250,308,315,0
305,257,310,317,0
309,275,312,318,0
310,298,314,318,0
312,322,315,318,0
312,338,317,318,0
312,342,316,316,0
310,334,314,314,0
308,326,311,312,0
308,324,308,310,0
307,327,305,308,0
306,333,301,306,0
304,338,298,305,0
303,336,295,304,0
302,331,293,303,0
301,323,294,303,0
302,314,296,303,0
303,305,299,304,0
304,295,302,305,0
305,287,304,307,0
306,287,304,308,0
308,295,304,308,0
309,308,304,308,0
310,321,305,309,0
311,332,307,309,0
314,338,310,311,0
315,339,313,311,0
315,331,315,311,0
312,314,316,311,0
307,291,317,312,0
302,272,318,314,0
301,267,320,316,0
303,280,320,316,0
305,298,318,315,0
307,313,314,312,0
307,324,311,309,0
308,330,308,307,0
310,331,307,306,0
311,325,305,305,0
311,319,304,305,0
311,316,304,305,0
312,313,304,305,0
311,303,304,304,0
310,289,303,304,0
308,277,302,303,0
306,273,301,304,0
308,281,302,305,0
310,293,305,307,0
312,302,307,308,0
311,309,307,307,0
311,317,305,306,0
310,327,302,303,0
307,335,300,299,0
304,339,297,295,0
302,341,295,292,0
302,342,296,291,0
303,343,298,292,0
304,342,301,296,0
305,339,304,300,0
307,336,306,304,0
308,333,307,305,0
307,326,308,305,0
307,314,307,304,0
306,303,306,303,0
305,293,307,302,0
305,289,308,302,0
306,291,309,302,0
308,299,309,301,0
309,306,307,300,0
307,309,304,298,0
303,305,301,298,0
300,298,300,300,0
299,294,302,304,0
298,292,306,307,0
299,293,310,310,0
299,296,313,312,0
300,300,316,313,0
300,300,318,314,0
301,298,318,315,0
301,295,318,315,0
302,298,316,314,0
303,308,315,313,0
307,320,315,313,0
312,333,315,313,0
317,344,315,313,0
319,347,314,313,0
318,339,312,312,0
315,327,310,310,0
312,317,309,311,0
310,309,309,311,0
307,297,308,310,0
302,276,306,309,0
297,255,304,308,0
294,245,302,308,0
293,253,301,308,0
295,271,301,309,0
297,291,302,309,0
300,307,304,310,0
302,315,305,311,0
303,315,306,311,0
305,312,308,313,0
308,310,310,315,0
311,309,313,316,0
312,309,315,316,0
312,308,317,316,0
311,306,318,315,0
309,303,318,314,0
307,303,316,313,0
306,307,314,312,0
306,312,314,312,0
305,316,314,313,0
306,317,314,313,0
305,317,314,313,0
304,313,315,313,0
303,306,315,313,0
301,298,313,313,0
299,290,309,310,0
297,281,305,308,0
295,271,302,307,0
293,260,301,308,0
292,252,302,310,0
294,254,305,313,0
298,265,309,315,0
302,283,312,316,0
305,304,310,314,0
306,320,307,311,0
307,325,303,308,0
307,326,301,306,0
308,328,301,306,0
309,334,302,307,0
310,340,303,309,0
312,344,305,311,0
313,345,307,312,0
313,343,307,311,0
311,338,306,309,0
308,331,304,307,0
305,323,304,305,0
302,315,304,304,0
300,307,304,304,0
300,303,306,304,0
301,300,307,304,0
302,297,308,305,0
301,289,309,306,0
300,278,310,307,0
300,268,309,309,0
300,261,309,308,0
301,259,309,306,0
303,262,309,303,0
303,263,307,299,0
301,262,305,294,0
299,262,303,291,0
297,266,302,290,0
296,274,303,292,0
296,285,304,295,0
298,299,304,299,0
300,314,305,303,0
302,326,305,304,0
303,333,306,304,0
303,333,305,303,0
301,329,304,303,0
299,323,304,304,0
297,318,305,306,0
298,316,308,308,0
302,316,311,310,0
307,315,313,311,0
310,317,314,311,0
313,321,314,311,0
315,327,313,310,0
315,330,311,308,0
313,328,310,305,0
311,324,308,304,0
310,323,306,303,0
309,325,307,303,0
310,328,309,304,0
311,327,310,305,0
311,321,311,306,0
310,314,311,305,0
308,312,311,305,0
307,313,310,305,0
306,314,309,307,0
307,314,307,309,0
309,312,304,309,0
310,309,301,309,0
310,303,298,308,0
308,296,297,307,0
305,292,298,307,0
303,295,300,308,0
302,303,303,310,0
302,319,306,312,0
306,341,310,314,0
309,358,313,316,0
310,360,312,315,0
308,348,311,314,0
305,330,308,312,0
303,313,307,311,0
302,297,306,310,0
301,287,306,310,0
301,285,307,311,0
301,284,307,312,0
301,285,308,312,0
301,284,309,313,0
302,281,309,313,0
302,274,309,314,0
303,267,309,313,0
304,262,308,313,0
305,263,307,313,0
306,269,306,311,0
308,281,305,311,0
310,295,304,310,0
312,310,304,310,0
313,324,304,309,0
313,334,304,308,0
311,339,304,306,0
310,339,304,305,0
308,339,303,303,0
306,336,302,301,0
302,333,299,300,0
298,327,297,300,0
295,320,296,301,0
293,309,295,302,0
291,295,295,303,0
292,283,298,305,0
295,277,300,307,0
300,278,303,308,0
305,286,305,309,0
310,300,309,309,0
315,314,312,310,0
315,321,313,309,0
311,316,313,309,0
306,308,310,309,0
302,303,308,308,0
301,306,307,309,0
302,314,305,308,0
303,324,304,307,0
302,331,302,305,0
301,334,301,304,0
301,330,302,304,0
300,321,303,304,0
300,308,305,305,0
301,293,306,306,0
302,279,308,307,0
303,271,309,308,0
305,271,310,308,0
308,280,312,308,0
312,294,313,308,0
316,311,313,308,0
318,327,313,307,0
320,342,312,307,0
322,355,311,307,0
321,360,309,306,0
316,353,306,305,0
311,338,304,304,0
307,320,302,304,0
303,303,302,305,0
302,290,303,306,0
302,283,303,307,0
302,279,304,308,0
302,277,303,308,0
300,276,301,307,0
299,276,301,305,0
299,278,303,303,0
299,284,304,302,0
299,294,306,303,0
300,305,307,303,0
300,312,307,305,0
302,313,308,308,0
306,315,309,310,0
310,320,310,312,0
313,320,310,312,0
312,311,309,312,0
309,298,308,311,0
306,288,307,311,0
305,285,307,311,0
306,293,307,311,0
307,308,307,309,0
307,321,305,307,0
307,327,303,304,0
307,328,302,300,0
306,326,300,297,0
305,323,298,293,0
305,324,298,292,0
304,328,299,291,0
305,328,301,293,0
305,325,303,296,0
307,320,306,300,0
309,312,309,305,0
312,303,311,307,0
311,295,312,309,0
308,288,309,309,0
305,284,307,308,0
303,283,307,309,0
302,285,306,308,0
300,289,306,307,0
300,289,305,307,0
299,286,304,306,0
300,280,302,305,0
300,273,302,305,0
302,268,303,306,0
304,264,305,306,0
307,271,306,306,0
310,290,307,305,0
311,309,306,303,0
308,319,302,299,0
302,316,299,296,0
298,308,298,294,0
296,303,299,295,0
298,305,303,298,0
301,310,306,301,0
305,316,309,304,0
308,319,312,307,0
309,321,314,310,0
309,321,316,312,0
309,320,316,313,0
309,317,315,314,0
309,318,314,314,0
310,321,313,313,0
311,326,311,312,0
311,331,309,310,0
311,333,307,308,0
310,329,307,306,0
311,322,309,305,0
312,316,310,305,0
312,309,310,305,0
311,304,310,304,0
309,302,308,303,0
307,303,305,301,0
307,308,303,300,0
306,312,302,299,0
306,315,301,299,0
308,320,301,301,0
312,327,302,303,0
316,333,304,305,0
319,334,306,307,0
317,332,306,307,0
312,325,304,307,0
305,316,303,308,0
300,307,303,309,0
298,302,304,310,0
300,302,305,311,0
301,305,307,312,0
303,311,307,313,0
303,318,308,312,0
303,324,310,312,0
304,332,313,312,0
306,339,316,314,0
308,339,318,314,0
310,330,318,314,0
310,316,317,313,0
310,297,315,312,0
309,274,314,311,0
305,252,313,310,0
302,234,311,310,0
298,226,311,311,0
297,225,312,312,0
298,227,313,314,0
300,228,313,315,0
303,231,315,315,0
307,241,315,314,0
309,257,313,311,0
309,276,310,307,0
308,298,305,304,0
307,318,302,302,0
308,332,300,301,0
309,341,299,300,0
310,346,299,299,0
312,345,300,300,0
314,336,301,302,0
315,324,303,303,0
317,314,304,305,0
318,311,305,305,0
318,317,305,306,0
316,329,304,305,0
314,340,303,305,0
310,343,302,304,0
306,339,301,304,0
302,332,300,304,0
298,324,300,304,0
298,319,301,305,0
299,318,303,306,0
301,317,305,306,0
302,315,306,306,0
303,313,307,307,0
306,314,308,307,0
308,315,309,308,0
310,311,310,308,0
308,301,310,307,0
305,289,309,306,0
304,284,310,306,0
303,284,312,306,0
302,284,312,305,0
301,286,312,304,0
302,288,311,302,0
303,292,311,301,0
304,300,310,301,0
306,310,309,300,0
308,317,308,301,0
309,319,308,302,0
308,318,307,301,0
308,316,306,299,0
308,315,306,298,0
309,316,306,297,0
311,320,308,298,0
312,323,310,299,0
310,324,312,300,0
307,326,313,301,0
306,330,314,302,0
306,333,314,303,0
306,333,313,303,0
307,324,311,304,0
307,309,308,303,0
306,290,306,302,0
305,273,305,303,0
304,261,304,304,0
303,255,302,303,0
302,257,299,301,0
303,267,297,300,0
307,285,295,298,0
310,310,295,298,0
315,337,298,299,0
318,358,303,302,0
319,369,306,305,0
316,366,308,307,0
311,353,307,308,0
307,337,305,308,0
305,324,303,308,0
304,312,301,308,0
303,302,300,307,0
302,293,299,306,0
302,287,298,306,0
301,285,298,306,0
302,290,299,307,0
303,298,300,308,0
304,304,300,308,0
303,308,302,309,0
303,310,303,309,0
302,310,304,309,0
302,310,304,309,0
302,312,304,309,0
303,316,305,308,0
303,320,304,307,0
303,323,303,304,0
302,324,302,301,0
302,323,302,299,0
303,322,302,299,0
304,319,303,299,0
304,312,303,299,0
303,303,303,300,0
301,292,302,301,0
299,284,302,302,0
299,283,303,304,0
301,287,305,307,0
304,293,305,309,0
306,300,305,310,0
308,305,306,311,0
309,307,306,312,0
308,304,306,313,0
306,297,306,312,0
303,294,306,311,0
301,298,306,310,0
300,309,308,310,0
301,318,310,311,0
301,321,311,310,0
302,315,311,310,0
304,304,312,311,0
305,290,313,311,0
307,280,312,310,0
308,281,311,309,0
310,294,309,306,0
311,308,305,304,0
310,315,302,300,0
309,315,300,299,0
308,313,299,297,0
308,309,298,297,0
308,304,298,298,0
307,298,297,299,0
308,291,296,301,0
310,284,297,303,0
314,281,299,306,0
319,282,302,308,0
322,286,305,310,0
322,294,308,311,0
319,305,309,309,0
316,319,309,308,0
313,326,308,306,0
310,320,308,305,0
307,305,309,305,0
303,291,310,307,0
301,284,312,310,0
301,287,315,313,0
302,299,315,314,0
304,310,313,313,0
305,314,309,310,0
305,309,305,309,0
306,301,303,308,0
306,297,302,309,0
306,297,302,309,0
304,301,301,308,0
302,308,302,307,0
301,316,303,307,0
301,324,304,307,0
301,329,306,307,0
301,327,308,307,0
302,320,310,307,0
304,311,309,307,0
306,301,308,306,0
308,291,308,307,0
311,286,310,308,0
313,286,311,307,0
314,288,312,306,0
314,294,310,304,0
313,300,308,301,0
312,306,305,299,0
311,310,303,298,0
310,309,303,299,0
308,306,304,302,0
307,307,306,306,0
305,307,307,309,0
301,305,306,312,0
298,305,307,313,0
298,313,307,313,0
298,326,308,313,0
300,340,308,313,0
301,350,308,313,0
302,355,307,312,0
302,352,306,310,0
302,345,305,309,0
304,337,306,310,0
306,328,307,311,0
308,320,309,311,0
308,313,309,310,0
308,314,309,307,0
307,322,309,305,0
307,331,309,303,0
307,338,310,302,0
307,336,312,303,0
305,326,312,303,0
304,315,312,305,0
304,305,313,310,0
305,299,315,313,0
307,297,317,316,0
308,293,315,317,0
306,286,313,317,0
307,282,313,317,0
308,281,313,317,0
307,280,313,317,0
306,282,313,317,0
304,286,313,317,0
302,290,311,316,0
300,295,308,314,0
298,299,306,313,0
300,303,308,314,0
305,313,312,315,0
310,325,316,316,0
312,333,317,315,0
313,333,316,315,0
313,328,315,314,0
311,316,314,313,0
309,302,312,312,0
307,290,311,312,0
306,284,312,311,0
305,284,313,311,0
304,288,313,310,0
303,291,312,308,0
302,292,311,307,0
302,292,310,307,0
303,293,310,307,0
305,296,309,307,0
307,305,309,307,0
309,318,308,306,0
309,329,307,305,0
308,336,306,305,0
307,338,305,305,0
305,334,306,307,0
304,327,305,308,0
301,317,305,309,0
298,308,306,309,0
297,304,307,310,0
297,303,308,311,0
297,299,308,311,0
298,294,307,312,0
300,286,308,312,0
303,276,308,312,0
305,271,309,312,0
307,274,309,310,0
309,282,309,308,0
309,289,308,306,0
310,296,309,304,0
309,299,309,301,0
306,294,308,298,0
303,287,307,296,0
301,278,306,296,0
299,271,305,297,0
298,270,305,300,0
301,279,305,304,0
307,296,307,309,0
313,315,308,312,0
316,332,307,313,0
315,341,307,312,0
312,345,306,310,0
310,347,307,309,0
309,347,309,308,0
309,341,311,307,0
309,333,312,306,0
309,325,312,305,0
310,317,311,304,0
310,314,310,304,0
310,316,309,304,0
310,315,307,304,0
309,309,305,303,0
308,305,303,301,0
306,308,301,299,0
306,319,300,298,0
307,331,300,299,0
306,336,300,301,0
304,331,300,304,0
302,317,300,308,0
300,301,300,311,0
300,290,300,313,0
302,284,302,314,0
304,282,302,313,0
305,278,302,311,0
305,272,302,308,0
304,272,304,307,0
303,281,305,305,0
304,297,306,304,0
303,313,306,303,0
303,322,305,303,0
303,323,306,304,0
302,316,308,306,0
302,307,309,309,0
303,298,310,310,0
304,291,309,311,0
305,289,308,311,0
306,299,306,311,0
305,314,305,310,0
303,325,303,309,0
299,325,302,310,0
297,315,300,311,0
297,297,301,312,0
299,284,304,314,0
301,278,307,315,0
304,278,310,315,0
307,278,313,315,0
309,276,315,314,0
310,277,315,312,0
310,279,314,310,0
310,286,311,308,0
309,293,310,308,0
309,299,310,308,0
308,300,311,309,0
308,300,312,310,0
309,306,313,310,0
309,314,311,309,0
308,320,308,308,0
306,326,305,307,0
305,329,302,306,0
305,332,300,306,0
306,335,300,306,0
306,336,301,307,0
307,331,303,308,0
308,327,305,308,0
308,325,305,308,0
309,326,305,308,0
310,328,305,308,0
311,330,305,308,0
312,329,306,308,0
313,324,306,308,0
311,315,305,307,0
308,299,304,307,0
305,279,304,307,0
302,261,304,308,0
302,248,306,310,0
304,242,308,312,0
308,243,310,313,0
311,251,309,312,0
312,263,306,309,0
313,280,305,306,0
314,297,305,305,0
312,303,304,303,0
309,300,304,303,0
305,295,304,304,0
303,294,305,306,0
304,299,308,307,0
306,314,312,309,0
310,334,315,309,0
312,353,315,307,0
314,365,313,305,0
315,367,310,303,0
314,362,306,301,0
312,352,301,299,0
309,338,299,298,0
307,326,297,298,0
306,317,296,297,0
306,314,295,296,0
307,314,296,297,0
308,316,298,297,0
308,318,300,297,0
307,321,300,296,0
306,323,300,296,0
306,323,300,297,0
306,321,300,298,0
306,315,300,299,0
306,309,300,299,0
306,303,300,300,0
307,300,301,302,0
308,300,302,304,0
309,300,303,305,0
309,302,303,305,0
310,308,303,305,0
311,314,303,306,0
311,314,305,308,0
311,308,307,310,0
309,300,309,311,0
307,298,310,311,0
306,299,310,309,0
306,301,308,307,0
305,303,306,306,0
304,301,304,307,0
303,296,302,309,0
300,291,300,310,0
298,284,299,310,0
295,274,299,310,0
292,261,300,311,0
290,247,302,312,0
290,243,305,313,0
293,254,309,315,0
298,274,312,315,0
303,293,311,313,0
305,306,309,311,0
305,314,307,309,0
304,317,306,309,0
304,316,306,309,0
303,311,305,310,0
303,304,306,311,0
304,298,306,311,0
304,291,306,311,0
305,285,305,311,0
307,282,305,312,0
309,285,307,313,0
311,292,310,315,0
312,303,313,316,0
311,314,314,316,0
310,321,313,316,0
309,322,312,315,0
309,318,311,315,0
309,305,311,315,0
308,289,311,315,0
307,280,310,315,0
306,289,310,314,0
307,308,310,312,0
308,323,309,311,0
308,333,307,310,0
307,341,306,309,0
307,349,305,309,0
308,356,305,310,0
309,359,305,311,0
310,357,305,311,0
310,351,305,310,0
310,344,306,310,0
311,336,306,309,0
309,323,306,307,0
305,308,305,305,0
300,296,303,302,0
296,289,301,300,0
293,289,300,298,0
292,292,300,298,0
294,296,302,299,0
297,297,304,301,0
299,295,305,303,0
301,289,306,303,0
301,283,306,303,0
299,281,304,303,0
297,283,303,303,0
296,292,303,304,0
297,306,304,306,0
299,316,303,306,0
300,319,300,305,0
301,319,298,304,0
301,318,297,303,0
302,316,297,303,0
302,310,299,304,0
302,300,301,304,0
302,290,302,305,0
303,283,303,305,0
304,279,303,306,0
306,281,303,306,0
307,285,303,307,0
309,289,305,306,0
310,294,307,307,0
312,304,310,308,0
314,320,313,309,0
315,336,315,309,0
314,343,314,307,0
311,336,310,305,0
306,323,305,301,0
303,311,303,299,0
302,308,301,297,0
301,313,299,294,0
301,323,298,292,0
301,331,298,291,0
301,335,299,291,0
302,334,301,291,0
304,329,303,293,0
306,320,304,294,0
307,310,304,295,0
307,299,304,295,0
306,291,303,297,0
305,286,302,298,0
305,285,301,300,0
306,287,301,303,0
308,292,303,304,0
309,299,306,305,0
310,305,307,305,0
308,309,307,304,0
306,313,306,304,0
305,317,304,304,0
305,320,303,305,0
306,322,302,305,0
307,322,301,306,0
306,320,301,307,0
305,315,303,308,0
305,313,306,310,0
306,315,310,310,0
308,317,313,310,0
309,320,313,309,0
309,323,312,308,0
309,324,311,306,0
308,323,309,305,0
307,318,309,306,0
307,312,309,307,0
306,300,311,309,0
305,283,311,310,0
303,265,311,311,0
301,251,312,313,0
300,244,313,315,0
300,245,313,317,0
300,258,314,318,0
300,279,314,317,0
300,299,313,315,0
300,313,312,313,0
301,322,310,311,0
301,326,308,310,0
302,323,307,310,0
302,317,307,310,0
301,308,307,310,0
301,299,308,311,0
301,291,310,311,0
303,286,312,312,0
306,286,313,312,0
310,291,314,312,0
314,295,315,313,0
317,300,316,315,0
318,307,317,316,0
317,310,317,315,0
315,306,316,314,0
313,300,313,313,0
312,297,311,310,0
309,299,308,307,0
307,303,306,305,0
305,309,304,303,0
303,317,303,302,0
303,328,303,302,0
304,336,303,302,0
305,339,304,302,0
306,339,306,303,0
308,336,307,304,0
309,332,308,304,0
309,328,309,305,0
309,324,310,305,0
308,318,310,305,0
307,310,310,305,0
305,304,310,305,0
304,305,310,306,0
306,313,310,307,0
308,322,311,308,0
311,329,310,310,0
313,336,310,310,0
314,340,310,309,0
313,344,309,308,0
310,341,308,308,0
307,332,309,307,0
304,316,310,307,0
303,300,311,308,0
301,286,312,310,0
301,278,314,311,0
301,273,315,311,0
303,272,315,310,0
304,277,314,309,0
306,287,313,308,0
307,295,313,307,0
308,297,311,305,0
309,295,309,302,0
308,291,306,300,0
306,294,303,298,0
305,300,302,298,0
304,306,301,300,0
303,312,301,301,0
302,318,301,301,0
301,321,301,301,0
300,321,302,301,0
298,318,302,300,0
296,309,302,300,0
296,296,303,300,0
294,279,305,301,0
293,266,307,304,0
295,267,310,308,0
298,280,312,311,0
301,295,312,313,0
303,308,310,313,0
304,317,306,312,0
303,318,302,308,0
301,313,298,305,0
299,303,294,302,0
298,294,292,302,0
299,289,292,304,0
302,293,294,306,0
305,304,295,309,0
308,314,296,312,0
310,322,297,313,0
314,325,299,315,0
317,323,300,315,0
319,318,302,315,0
320,316,304,315,0
320,322,306,315,0
322,335,309,316,0
322,345,310,316,0
319,350,310,315,0
312,348,308,314,0
305,340,307,312,0
300,330,307,310,0
296,318,308,309,0
295,309,309,309,0
294,302,309,309,0
295,300,310,311,0
297,304,310,313,0
300,311,312,315,0
303,314,313,317,0
306,314,314,317,0
309,312,314,317,0
309,309,312,315,0
306,302,309,313,0
303,294,305,311,0
300,289,303,310,0
300,292,302,310,0
302,300,303,310,0
304,307,304,309,0
307,313,306,309,0
307,317,308,307,0
306,317,309,305,0
304,312,308,304,0
301,301,307,303,0
298,286,307,304,0
297,274,308,305,0
298,267,308,307,0
300,268,307,306,0
300,277,306,305,0
302,290,305,304,0
303,303,305,304,0
305,313,306,304,0
305,320,307,305,0
304,326,307,304,0
303,330,305,304,0
301,330,305,305,0
301,328,304,306,0
303,325,304,307,0
306,322,304,307,0
307,318,304,306,0
307,313,304,306,0
308,308,304,305,0
309,303,304,305,0
308,299,303,304,0
307,298,302,303,0
306,299,302,302,0
306,301,302,302,0
307,302,303,304,0
307,303,304,305,0
307,304,306,307,0
308,308,306,307,0
309,313,306,306,0
309,317,307,305,0
310,316,307,304,0
311,310,307,303,0
311,300,308,302,0
312,288,308,303,0
313,278,309,303,0
312,273,309,302,0
310,272,307,301,0
309,271,305,301,0
308,270,303,301,0
308,276,302,303,0
310,290,302,305,0
314,305,303,308,0
318,321,303,310,0
321,336,303,310,0
322,349,303,310,0
322,355,304,310,0
319,352,303,309,0
316,346,302,307,0
312,340,301,306,0
307,333,301,303,0
303,323,301,301,0
301,310,301,299,0
300,299,302,298,0
300,292,304,297,0
300,285,304,297,0
299,276,304,297,0
298,273,305,300,0
299,285,307,303,0
301,305,310,304,0
302,324,311,304,0
302,332,309,303,0
300,325,307,303,0
300,314,304,304,0
301,309,304,306,0
304,312,304,309,0
304,316,304,310,0
304,317,304,310,0
303,318,304,308,0
301,317,303,305,0
302,317,303,304,0
303,317,302,303,0
306,316,302,304,0
309,313,302,305,0
312,307,303,306,0
314,301,303,306,0
317,298,303,306,0
318,297,303,305,0
318,298,302,305,0
317,298,303,305,0
315,296,303,305,0
311,292,303,305,0
308,286,303,305,0
305,277,304,306,0
304,268,305,308,0
305,257,306,310,0
307,250,308,312,0
310,251,310,314,0
310,263,311,313,0
307,277,310,313,0
303,289,308,312,0
300,296,306,311,0
300,304,307,312,0
302,313,308,313,0
305,319,309,314,0
306,324,309,313,0
306,327,307,312,0
306,322,305,310,0
305,309,303,309,0
305,296,302,309,0
306,291,302,309,0
307,296,303,309,0
307,309,304,309,0
308,322,306,309,0
308,333,308,310,0
306,335,309,309,0
305,329,309,308,0
304,320,308,308,0
304,313,308,307,0
305,310,308,307,0
306,311,309,307,0
305,308,309,306,0
304,299,308,306,0
302,287,307,305,0
301,278,307,304,0
302,282,308,303,0
304,303,310,302,0
307,331,311,302,0
311,353,312,301,0
313,366,311,300,0
314,368,308,299,0
313,362,305,299,0
310,353,304,298,0
308,347,304,299,0
305,340,304,299,0
302,332,304,300,0
299,323,303,300,0
296,313,303,299,0
294,304,303,300,0
294,300,304,301,0
294,301,306,304,0
295,304,305,306,0
295,303,304,307,0
295,297,303,309,0
297,289,303,310,0
299,284,304,311,0
302,283,306,312,0
304,286,307,312,0
305,288,307,310,0
304,290,306,307,0
302,295,304,303,0
300,301,303,300,0
299,305,302,297,0
299,309,303,297,0
301,309,304,299,0
303,308,307,303,0
305,303,311,307,0
307,299,314,312,0
309,300,316,316,0
310,308,316,318,0
310,318,313,317,0
308,324,311,315,0
305,324,310,314,0
302,314,309,312,0
298,296,309,310,0
296,278,309,309,0
296,267,311,308,0
298,264,312,307,0
302,272,313,307,0
306,286,313,307,0
310,302,314,306,0
313,311,313,306,0
311,314,312,305,0
