312,308,305,306,0
316,300,307,310,0
321,296,310,313,0
324,299,311,315,0
323,303,312,313,0
318,303,309,309,0
310,305,305,304,0
303,311,302,300,0
299,319,299,298,0
298,325,300,299,0
299,325,301,300,0
301,318,302,301,0
303,310,303,302,0
305,304,304,304,0
308,301,304,306,0
309,299,306,308,0
310,302,307,310,0
310,310,306,310,0
309,316,304,309,0
307,319,301,308,0
305,320,299,307,0
303,319,297,305,0
302,318,296,304,0
301,317,295,304,0
301,315,295,304,0
300,314,297,305,0
302,312,299,306,0
304,309,301,307,0
307,304,303,307,0
311,298,304,307,0
313,294,306,307,0
316,294,309,309,0
318,298,312,311,0
320,307,315,311,0
322,315,316,309,0
322,316,315,307,0
320,311,314,306,0
318,308,313,306,0
315,306,312,305,0
310,298,308,304,0
303,287,305,303,0
297,278,303,304,0
296,272,303,307,0
300,274,305,311,0
308,287,309,314,0
316,308,311,315,0
321,332,311,313,0
321,351,310,309,0
316,352,306,304,0
308,335,302,300,0
302,310,300,300,0
301,287,303,302,0
302,272,307,305,0
304,264,308,306,0
305,266,308,307,0
306,274,307,306,0
306,284,305,305,0
305,289,303,303,0
303,291,302,304,0
302,291,304,305,0
302,290,306,306,0
303,289,309,307,0
302,286,310,306,0
301,281,310,304,0
302,278,310,303,0
302,278,310,302,0
301,278,308,302,0
299,280,306,302,0
298,284,305,302,0
299,288,304,302,0
300,292,303,302,0
302,296,304,302,0
303,304,306,302,0
304,315,308,303,0
305,323,310,304,0
306,327,310,305,0
307,329,310,307,0
307,329,309,310,0
308,328,309,312,0
309,328,309,313,0
310,331,310,312,0
311,333,311,311,0
313,334,312,311,0
316,334,315,311,0
319,331,318,312,0
320,326,320,312,0
319,319,320,312,0
316,313,318,312,0
313,310,317,314,0
311,308,315,315,0
310,308,313,315,0
310,312,310,313,0
308,314,306,311,0
306,310,303,309,0
304,301,302,308,0
302,292,302,309,0
303,287,302,309,0
303,286,302,310,0
303,287,302,309,0
301,290,300,308,0
299,295,298,306,0
298,300,297,306,0
298,304,297,306,0
299,307,298,307,0
300,308,299,307,0
301,308,301,308,0
303,308,304,309,0
305,307,307,310,0
306,305,309,310,0
306,302,310,310,0
308,301,312,311,0
310,298,311,311,0
309,293,310,310,0
307,284,309,309,0
306,273,308,309,0
305,260,309,308,0
305,249,312,308,0
306,243,315,309,0
308,242,317,312,0
308,247,316,313,0
307,260,314,314,0
304,276,311,314,0
302,290,307,312,0
303,306,304,309,0
307,322,304,308,0
314,334,305,308,0
319,341,307,308,0
322,345,311,309,0
323,350,314,309,0
324,357,315,309,0
322,361,314,307,0
319,360,310,306,0
316,355,308,305,0
312,346,306,304,0
307,337,305,302,0
303,331,305,301,0
300,328,305,300,0
300,325,306,300,0
300,321,307,300,0
301,319,309,301,0
302,319,309,300,0
303,321,306,299,0
302,319,303,297,0
301,316,299,295,0
299,312,298,294,0
298,307,297,295,0
298,305,297,297,0
299,306,299,300,0
303,311,303,304,0
308,308,309,308,0
311,299,313,310,0
313,292,315,310,0
313,290,315,309,0
313,292,315,308,0
315,299,317,307,0
317,306,319,308,0
316,311,320,308,0
313,315,319,309,0
310,320,317,310,0
309,321,313,309,0
309,316,309,308,0
307,304,304,304,0
303,289,301,302,0
301,278,300,301,0
301,272,301,303,0
304,275,305,307,0
309,282,308,310,0
311,285,309,312,0
312,288,310,312,0
313,293,311,313,0
314,298,313,314,0
315,305,314,314,0
314,313,315,313,0
312,319,314,312,0
309,320,313,311,0
304,317,311,310,0
300,311,309,308,0
298,306,308,308,0
297,302,306,308,0
298,302,304,308,0
298,305,303,308,0
299,311,302,308,0
301,317,302,308,0
304,323,302,309,0
306,326,302,308,0
308,325,304,308,0
308,319,305,307,0
307,306,305,307,0
306,291,305,307,0
305,279,306,307,0
305,273,307,308,0
307,277,309,310,0
311,288,311,311,0
314,301,311,311,0
315,311,310,311,0
314,312,309,310,0
312,304,308,309,0
310,295,308,309,0
311,294,310,310,0
316,308,312,311,0
321,327,312,312,0
322,342,310,311,0
321,345,306,310,0
318,339,303,309,0
315,330,302,308,0
310,322,299,306,0
303,313,296,304,0
296,306,293,303,0
292,301,292,303,0
291,297,294,304,0
292,296,296,305,0
294,297,298,306,0
296,300,300,307,0
299,307,302,308,0
301,314,303,308,0
301,319,303,306,0
299,317,301,305,0
297,306,298,305,0
297,296,298,306,0
298,292,300,309,0
303,295,303,311,0
307,297,305,313,0
308,297,305,313,0
307,297,302,311,0
305,298,298,309,0
303,302,295,307,0
301,309,294,305,0
300,314,296,304,0
299,315,297,304,0
297,314,300,304,0
297,315,303,303,0
299,315,307,303,0
302,316,310,303,0
306,319,313,304,0
308,322,314,306,0
309,326,312,307,0
308,331,309,307,0
307,336,305,305,0
305,339,302,304,0
303,332,300,302,0
301,314,299,301,0
300,290,299,303,0
300,270,301,305,0
303,264,303,308,0
307,267,304,309,0
312,272,305,311,0
314,272,305,311,0
314,269,305,311,0
313,266,305,310,0
313,271,306,310,0
314,279,307,311,0
315,284,310,311,0
316,287,312,312,0
317,289,314,311,0
317,291,313,308,0
316,294,313,305,0
314,299,312,304,0
312,304,313,304,0
310,308,312,305,0
308,313,311,307,0
307,317,310,308,0
308,321,309,309,0
309,322,308,311,0
311,318,308,313,0
311,309,308,313,0
309,297,309,313,0
307,288,310,312,0
310,288,311,311,0
313,292,311,309,0
314,292,310,306,0
316,295,309,305,0
319,305,309,304,0
321,319,308,302,0
320,329,305,300,0
318,334,301,297,0
314,333,297,295,0
310,327,295,295,0
307,323,295,295,0
305,320,296,297,0
304,319,297,299,0
304,317,297,300,0
306,317,297,301,0
312,320,299,302,0
319,326,301,303,0
323,336,303,302,0
322,343,306,302,0
318,342,307,301,0
313,331,306,300,0
308,315,305,300,0
306,300,303,302,0
306,288,304,304,0
308,278,306,305,0
308,269,310,307,0
307,264,311,308,0
305,268,312,309,0
304,279,312,309,0
305,291,312,309,0
308,300,309,309,0
308,299,304,306,0
307,293,299,304,0
307,291,295,304,0
309,297,294,305,0
311,305,294,305,0
312,307,294,306,0
312,306,295,305,0
310,307,297,305,0
307,310,300,304,0
304,311,302,303,0
300,308,304,303,0
296,304,306,303,0
294,301,308,303,0
294,300,310,305,0
297,298,311,307,0
301,294,311,309,0
307,293,311,311,0
311,294,311,312,0
313,294,310,313,0
313,291,309,313,0
312,290,308,313,0
313,296,307,313,0
315,306,306,312,0
316,321,306,311,0
318,338,306,309,0
318,348,306,307,0
317,348,306,305,0
316,342,305,304,0
316,335,303,304,0
315,330,301,305,0
313,327,300,308,0
311,322,300,310,0
309,314,300,311,0
307,305,300,312,0
305,299,300,312,0
305,295,300,312,0
305,292,299,312,0
306,290,299,312,0
306,289,298,313,0
305,288,296,313,0
304,290,294,313,0
303,293,294,313,0
304,298,296,313,0
307,305,301,315,0
313,313,306,317,0
316,319,311,317,0
314,319,314,315,0
311,316,316,315,0
310,313,317,315,0
309,307,318,316,0
312,301,318,317,0
314,296,318,316,0
315,291,317,316,0
315,283,317,316,0
314,272,318,316,0
311,260,319,316,0
307,253,318,316,0
304,255,319,317,0
303,265,319,317,0
303,281,318,316,0
302,300,316,314,0
301,321,315,313,0
301,336,313,312,0
304,343,312,312,0
307,340,311,312,0
311,331,309,312,0
313,325,306,312,0
314,327,304,311,0
312,338,304,310,0
310,349,303,308,0
307,350,302,307,0
305,342,302,305,0
305,331,303,305,0
307,319,305,305,0
308,308,306,306,0
309,300,308,306,0
308,294,308,307,0
308,295,308,307,0
308,299,308,307,0
309,307,309,307,0
312,315,309,308,0
314,321,308,308,0
315,325,309,308,0
316,326,310,308,0
313,323,311,307,0
309,316,310,306,0
305,308,310,307,0
304,302,309,307,0
303,298,307,307,0
303,297,304,307,0
304,300,303,307,0
305,304,302,306,0
305,305,299,304,0
305,299,297,303,0
306,288,296,303,0
307,277,297,303,0
310,270,300,304,0
314,271,304,305,0
317,281,308,305,0
319,293,311,306,0
319,304,313,306,0
317,309,313,305,0
315,307,312,304,0
312,301,310,302,0
310,298,308,302,0
308,301,308,301,0
307,308,309,302,0
306,312,309,302,0
304,311,310,302,0
303,304,311,302,0
302,295,312,302,0
301,288,312,303,0
302,288,312,305,0
303,293,311,306,0
303,297,309,307,0
301,301,307,307,0
298,299,306,308,0
295,291,303,308,0
293,288,301,308,0
294,292,299,307,0
296,299,298,307,0
299,305,297,306,0
302,306,296,304,0
305,304,296,304,0
306,301,296,304,0
308,300,297,306,0
309,304,300,309,0
310,312,302,312,0
310,316,304,313,0
310,316,304,314,0
310,317,303,314,0
312,321,303,315,0
314,327,303,315,0
316,333,305,316,0
318,338,307,316,0
317,338,308,315,0
315,335,310,314,0
313,328,310,312,0
311,319,310,312,0
310,311,310,312,0
312,304,310,313,0
314,300,311,314,0
315,296,311,314,0
314,292,311,312,0
311,287,309,310,0
307,284,310,309,0
305,286,313,309,0
307,295,317,311,0
312,307,321,311,0
315,315,321,309,0
317,318,319,306,0
317,317,318,304,0
317,315,315,302,0
314,311,313,301,0
311,302,311,302,0
308,291,310,304,0
306,279,310,306,0
304,266,311,307,0
301,255,312,309,0
298,249,312,310,0
297,247,311,309,0
297,252,310,309,0
300,269,310,309,0
304,296,311,310,0
309,321,314,313,0
314,334,315,314,0
316,335,314,314,0
315,330,312,313,0
314,324,311,313,0
315,320,311,314,0
316,318,310,313,0
316,319,309,311,0
312,322,307,308,0
307,325,305,305,0
303,328,304,304,0
300,332,305,304,0
299,337,306,305,0
299,339,307,306,0
301,335,308,308,0
304,326,308,308,0
306,315,307,308,0
307,303,306,307,0
308,297,306,307,0
310,301,307,307,0
313,317,309,307,0
313,334,309,307,0
311,345,308,305,0
309,347,307,305,0
308,343,306,303,0
308,336,306,303,0
310,329,307,303,0
316,322,309,304,0
322,317,310,304,0
327,310,312,304,0
328,300,312,304,0
327,291,312,303,0
327,285,313,302,0
325,280,312,301,0
320,272,308,300,0
314,266,305,299,0
309,267,303,299,0
305,274,301,300,0
302,281,299,300,0
300,287,297,301,0
298,292,296,301,0
296,291,295,302,0
295,285,295,304,0
297,276,298,307,0
300,269,302,309,0
302,264,305,308,0
302,265,306,306,0
302,273,305,304,0
304,289,305,302,0
307,303,304,300,0
311,310,302,299,0
313,313,301,299,0
314,315,301,301,0
315,315,300,303,0
312,311,300,305,0
308,304,301,307,0
304,300,303,310,0
302,300,305,312,0
300,301,307,314,0
300,304,308,313,0
301,311,310,313,0
302,320,310,310,0
303,326,310,305,0
304,326,308,301,0
304,322,308,299,0
305,320,307,301,0
307,321,306,304,0
311,324,306,307,0
316,327,306,309,0
320,327,305,309,0
321,322,303,309,0
321,320,301,309,0
323,323,300,311,0
324,325,300,312,0
322,322,297,311,0
316,315,294,309,0
310,306,291,307,0
304,301,290,306,0
302,301,290,307,0
301,303,291,308,0
302,307,293,309,0
303,309,296,310,0
305,310,300,310,0
306,312,304,310,0
307,314,308,311,0
307,314,311,311,0
307,312,314,311,0
306,308,316,310,0
305,301,317,309,0
303,290,317,309,0
301,277,317,309,0
301,267,318,311,0
302,262,319,312,0
304,267,319,313,0
306,278,319,314,0
306,287,317,313,0
306,296,315,313,0
307,306,314,313,0
308,315,313,312,0
310,320,311,312,0
312,322,309,310,0
312,319,306,308,0
312,314,304,306,0
313,313,304,306,0
316,316,305,306,0
316,319,307,306,0
314,318,307,306,0
312,314,307,307,0
311,304,307,309,0
312,290,308,311,0
312,274,310,312,0
312,262,313,312,0
312,253,314,313,0
312,248,317,313,0
313,245,318,312,0
315,248,318,312,0
319,264,318,312,0
321,292,316,309,0
320,323,311,305,0
314,343,304,300,0
307,349,298,297,0
302,347,295,297,0
301,337,295,299,0
301,323,297,302,0
303,311,300,304,0
305,305,302,305,0
306,305,303,304,0
308,310,304,303,0
309,315,305,302,0
310,321,305,301,0
310,330,307,300,0
308,331,308,299,0
305,321,310,298,0
303,311,312,299,0
303,307,313,300,0
303,308,313,301,0
303,308,312,302,0
303,307,309,304,0
304,303,306,305,0
305,299,304,305,0
305,296,303,306,0
304,295,302,306,0
301,293,301,304,0
299,290,301,302,0
298,286,300,301,0
300,284,301,300,0
302,281,300,299,0
302,276,301,299,0
302,273,301,301,0
304,276,302,304,0
306,284,304,306,0
309,290,307,309,0
312,296,310,311,0
314,306,312,312,0
316,319,313,312,0
315,328,311,310,0
312,329,307,308,0
306,324,304,305,0
300,319,303,304,0
295,314,303,304,0
292,312,302,305,0
291,314,301,308,0
293,321,302,311,0
297,326,303,312,0
301,324,303,312,0
305,319,303,310,0
308,315,301,308,0
312,311,300,307,0
315,308,298,305,0
317,310,298,304,0
318,316,299,304,0
317,322,300,303,0
314,322,300,303,0
311,320,299,303,0
308,317,298,302,0
307,316,296,303,0
307,317,295,304,0
305,317,296,305,0
303,313,297,305,0
300,306,300,306,0
299,300,302,308,0
300,295,303,309,0
302,293,303,310,0
306,291,303,312,0
310,289,302,313,0
311,288,302,313,0
312,288,302,314,0
312,290,303,314,0
312,292,304,315,0
313,296,306,316,0
316,300,308,317,0
320,307,311,319,0
325,317,312,320,0
327,324,313,320,0
323,320,309,318,0
315,306,304,314,0
304,285,300,311,0
296,265,297,309,0
292,250,297,309,0
292,239,300,311,0
294,233,303,313,0
296,231,305,314,0
298,233,307,314,0
298,239,307,313,0
298,249,307,312,0
299,260,307,311,0
302,269,307,311,0
304,276,306,311,0
306,282,304,309,0
308,288,302,309,0
310,303,303,309,0
312,326,305,311,0
314,348,309,313,0
316,362,312,314,0
315,369,311,312,0
312,364,309,309,0
308,349,304,305,0
306,333,302,303,0
305,321,301,303,0
304,312,299,303,0
303,306,297,303,0
301,305,296,303,0
301,305,296,304,0
302,307,297,305,0
304,309,300,308,0
308,312,304,312,0
310,319,307,314,0
312,328,310,316,0
311,334,311,315,0
309,328,311,315,0
308,315,311,314,0
307,304,310,312,0
306,296,309,309,0
303,291,307,305,0
300,293,304,302,0
298,296,301,300,0
297,290,300,299,0
297,280,301,302,0
298,267,304,306,0
299,262,309,310,0
301,266,314,314,0
303,276,316,317,0
304,281,314,316,0
303,284,309,315,0
302,289,306,314,0
303,294,304,313,0
305,298,304,314,0
308,303,304,315,0
310,307,306,316,0
312,308,309,318,0
314,306,311,319,0
316,301,311,319,0
319,295,311,319,0
324,294,312,320,0
331,303,314,321,0
336,318,315,320,0
335,327,314,316,0
330,328,312,312,0
321,320,310,308,0
311,306,308,306,0
301,291,305,304,0
293,282,303,301,0
289,283,302,299,0
288,293,301,298,0
289,305,298,297,0
290,316,295,296,0
293,324,293,297,0
295,328,292,297,0
297,323,294,298,0
299,314,296,300,0
301,307,300,301,0
302,304,304,303,0
303,306,307,304,0
302,313,310,305,0
301,321,309,304,0
298,324,307,303,0
297,321,305,303,0
295,312,304,303,0
295,301,303,303,0
295,291,304,305,0
297,283,306,307,0
299,280,309,308,0
301,282,310,308,0
303,287,309,306,0
303,291,309,304,0
304,298,310,302,0
305,307,313,302,0
306,312,315,303,0
306,314,317,305,0
306,315,319,308,0
307,315,320,310,0
308,315,320,312,0
310,316,317,312,0
310,316,314,311,0
309,317,309,310,0
310,319,306,308,0
309,319,304,307,0
308,318,303,307,0
307,315,304,307,0
307,309,306,308,0
307,302,307,308,0
306,294,310,307,0
304,284,310,307,0
301,274,308,306,0
298,267,306,304,0
296,265,303,303,0
295,268,301,303,0
296,271,300,304,0
298,272,301,306,0
300,269,304,307,0
303,261,307,309,0
306,258,309,311,0
310,263,311,313,0
314,273,313,314,0
317,281,314,315,0
318,283,314,315,0
319,284,313,314,0
318,291,311,314,0
316,302,308,312,0
313,312,304,310,0
310,316,301,308,0
306,317,299,306,0
301,315,298,304,0
298,318,299,304,0
296,325,300,303,0
294,328,302,302,0
292,326,303,301,0
291,323,304,302,0
293,321,304,303,0
296,321,305,305,0
301,323,306,307,0
305,325,306,306,0
309,328,305,305,0
310,330,303,302,0
309,330,301,299,0
306,324,301,295,0
303,316,301,295,0
300,310,302,297,0
298,307,303,301,0
298,305,304,305,0
299,303,304,307,0
300,304,304,309,0
301,305,306,309,0
302,305,306,309,0
303,303,305,309,0
303,300,302,310,0
304,298,300,310,0
305,299,298,311,0
308,301,298,313,0
310,301,299,314,0
312,301,301,315,0
313,301,302,316,0
314,303,303,318,0
316,310,306,320,0
321,322,308,321,0
325,335,309,321,0
325,344,309,319,0
324,346,308,317,0
323,342,307,315,0
321,335,305,312,0
319,329,301,307,0
315,323,296,302,0
310,316,292,298,0
306,301,291,297,0
302,276,290,296,0
297,249,289,297,0
295,230,289,298,0
297,232,291,301,0
303,253,293,306,0
309,285,295,310,0
312,313,296,311,0
311,333,295,310,0
307,341,293,308,0
305,340,291,306,0
304,339,292,305,0
305,337,292,305,0
305,335,293,304,0
305,330,295,304,0
304,324,297,302,0
301,319,301,302,0
300,316,305,302,0
299,315,308,302,0
298,312,310,302,0
298,309,310,303,0
298,307,310,304,0
299,306,310,304,0
302,304,310,304,0
305,301,310,303,0
308,298,310,303,0
312,296,311,304,0
315,298,314,306,0
319,302,318,310,0
322,307,321,312,0
324,308,323,314,0
324,306,323,313,0
321,300,321,311,0
317,292,318,309,0
313,287,315,307,0
310,290,312,306,0
309,298,310,305,0
308,305,309,304,0
306,310,307,303,0
304,312,304,303,0
302,312,301,303,0
303,311,299,303,0
305,310,298,303,0
306,307,298,303,0
305,304,298,302,0
301,302,299,301,0
300,300,301,301,0
300,301,302,301,0
301,303,304,302,0
301,304,304,302,0
302,304,303,303,0
303,303,302,304,0
304,300,301,305,0
306,297,301,307,0
308,297,301,309,0
310,297,304,311,0
309,287,308,312,0
307,268,310,313,0
304,252,312,313,0
303,246,314,314,0
303,252,316,314,0
304,260,316,313,0
304,268,316,311,0
304,284,314,308,0
303,303,311,304,0
301,315,307,299,0
300,321,302,296,0
300,324,299,294,0
302,323,298,295,0
306,320,300,297,0
309,316,303,298,0
312,311,304,298,0
312,309,304,298,0
311,308,304,298,0
310,308,304,299,0
309,309,304,300,0
309,313,304,300,0
309,318,303,300,0
307,322,301,298,0
305,324,300,298,0
302,324,300,299,0
301,321,301,301,0
301,318,303,302,0
301,317,305,302,0
302,317,307,302,0
302,315,307,303,0
301,312,307,303,0
301,308,306,304,0
301,304,305,306,0
303,303,305,309,0
305,308,304,311,0
307,312,303,312,0
306,313,300,311,0
306,308,299,311,0
306,297,300,310,0
306,282,299,308,0
305,270,298,305,0
304,263,299,306,0
304,259,300,309,0
305,261,303,313,0
306,272,307,316,0
308,286,309,315,0
307,298,308,312,0
305,307,305,309,0
303,312,301,305,0
302,314,298,304,0
301,312,296,303,0
301,308,295,303,0
302,306,296,305,0
304,310,299,306,0
307,317,302,308,0
310,326,305,309,0
312,336,308,310,0
314,346,311,310,0
313,348,313,310,0
310,340,313,308,0
306,328,312,307,0
304,319,311,306,0
302,316,311,305,0
300,316,311,305,0
300,319,311,305,0
299,320,312,305,0
299,317,312,304,0
298,312,312,304,0
299,306,313,305,0
301,303,314,306,0
303,302,315,308,0
305,302,314,308,0
307,303,313,308,0
308,303,312,308,0
308,300,310,309,0
308,295,309,310,0
308,289,308,311,0
307,282,307,312,0
305,280,306,311,0
303,281,304,311,0
300,286,303,309,0
298,291,302,309,0
297,294,302,309,0
295,294,302,309,0
295,293,302,309,0
296,296,302,309,0
297,302,301,308,0
299,307,302,307,0
301,312,302,307,0
302,316,302,307,0
303,315,302,307,0
303,313,301,308,0
304,307,300,308,0
304,298,301,310,0
306,291,303,313,0
309,286,306,314,0
312,285,308,314,0
313,290,309,314,0
314,298,310,313,0
313,306,309,312,0
311,315,310,310,0
310,324,312,309,0
308,331,312,308,0
306,333,311,308,0
304,328,309,308,0
301,318,307,309,0
300,305,306,310,0
299,295,306,311,0
299,292,307,312,0
300,292,307,313,0
301,289,307,313,0
302,288,307,314,0
304,288,309,315,0
306,293,310,315,0
305,300,310,314,0
304,309,309,313,0
304,318,308,312,0
303,322,306,310,0
302,320,304,307,0
301,316,303,305,0
301,312,303,304,0
302,308,303,302,0
301,304,303,301,0
300,295,304,301,0
299,286,306,302,0
301,280,309,305,0
303,278,311,307,0
305,278,312,308,0
306,281,311,309,0
307,285,310,309,0
307,288,310,309,0
308,292,311,309,0
307,297,310,308,0
305,302,307,308,0
304,310,303,309,0
305,319,299,310,0
308,323,295,311,0
312,325,292,311,0
315,327,290,310,0
317,329,290,310,0
318,328,292,309,0
318,327,295,309,0
315,324,299,309,0
311,319,302,308,0
308,316,303,309,0
306,316,305,309,0
305,314,306,308,0
304,312,306,307,0
302,309,306,305,0
300,307,306,304,0
299,306,307,305,0
299,307,307,305,0
299,310,307,306,0
300,313,308,307,0
302,317,307,308,0
304,319,306,308,0
306,316,307,307,0
308,308,308,307,0
310,298,310,308,0
312,288,312,311,0
311,281,313,313,0
308,279,313,314,0
305,282,312,314,0
304,291,312,312,0
305,300,313,312,0
306,306,314,310,0
306,307,315,310,0
305,304,315,309,0
304,303,314,308,0
302,299,311,306,0
300,292,307,304,0
300,287,304,303,0
300,286,300,302,0
300,287,296,300,0
300,289,292,300,0
302,293,288,301,0
305,298,287,304,0
310,307,287,308,0
315,314,289,311,0
320,320,293,314,0
321,324,298,315,0
319,324,302,315,0
315,321,306,315,0
310,317,310,315,0
308,311,313,315,0
309,301,316,314,0
310,294,318,312,0
311,295,319,309,0
312,305,319,307,0
313,313,320,305,0
312,314,321,305,0
310,308,324,306,0
309,300,325,307,0
308,301,324,307,0
308,313,322,308,0
307,325,317,308,0
303,327,312,310,0
300,322,309,312,0
298,316,309,315,0
297,312,310,317,0
297,310,312,319,0
298,309,313,319,0
299,307,314,319,0
300,305,314,319,0
302,305,314,319,0
304,305,314,319,0
306,305,315,319,0
307,304,315,319,0
307,299,314,318,0
307,291,313,316,0
308,288,313,315,0
313,295,313,314,0
318,317,313,313,0
319,342,310,309,0
315,354,305,304,0
309,348,300,300,0
303,336,297,300,0
299,325,295,301,0
296,313,295,301,0
293,299,295,301,0
289,288,296,301,0
287,281,298,303,0
288,280,300,306,0
291,284,302,310,0
294,290,303,313,0
295,293,304,315,0
297,293,305,317,0
300,295,307,319,0
305,303,309,321,0
310,317,310,322,0
315,332,310,321,0
318,339,308,320,0
317,337,305,318,0
316,330,303,317,0
314,322,300,315,0
313,316,299,314,0
312,312,299,314,0
311,307,300,313,0
309,302,302,313,0
308,295,303,312,0
305,291,303,312,0
303,292,303,312,0
302,299,304,313,0
302,308,305,313,0
300,315,305,312,0
298,316,304,310,0
296,312,303,308,0
295,304,303,306,0
295,293,303,305,0
295,286,304,304,0
297,286,305,305,0
299,293,308,306,0
302,300,311,309,0
305,304,312,311,0
305,305,313,310,0
305,309,313,310,0
306,318,313,308,0
307,329,310,306,0
308,333,305,303,0
306,333,300,300,0
303,330,295,297,0
301,328,292,297,0
300,327,290,296,0
299,323,289,296,0
300,318,290,297,0
303,317,292,298,0
308,318,297,301,0
313,317,301,303,0
315,315,305,305,0
314,315,307,306,0
311,318,309,307,0
308,321,310,308,0
307,325,312,308,0
307,328,313,309,0
306,325,312,309,0
303,319,309,308,0
300,310,305,307,0
297,303,301,306,0
296,302,299,305,0
297,304,297,305,0
299,306,297,305,0
301,303,296,305,0
301,298,297,305,0
300,295,298,306,0
299,289,299,308,0
299,283,300,309,0
299,279,300,309,0
301,280,300,309,0
303,286,300,309,0
304,294,300,309,0
306,302,302,309,0
308,309,306,309,0
310,313,310,310,0
311,309,314,310,0
311,297,317,309,0
311,281,318,308,0
311,271,318,308,0
314,268,321,311,0
317,275,325,314,0
317,286,327,315,0
312,294,323,314,0
303,300,319,311,0
295,306,314,309,0
291,314,311,308,0
290,324,309,307,0
292,335,308,306,0
295,343,309,305,0
298,343,309,304,0
301,335,309,303,0
303,323,308,303,0
305,312,308,304,0
309,309,310,307,0
313,317,313,310,0
315,335,315,311,0
313,348,315,310,0
310,347,313,309,0
305,336,309,307,0
302,323,306,307,0
299,311,304,306,0
297,302,303,305,0
298,297,304,305,0
300,293,305,305,0
302,290,305,304,0
303,285,304,302,0
303,279,302,301,0
303,276,300,301,0
304,277,300,302,0
306,282,300,303,0
307,291,298,303,0
307,295,296,301,0
306,294,295,299,0
306,291,294,298,0
307,288,294,300,0
309,283,296,303,0
313,279,298,307,0
317,280,301,309,0
318,289,303,309,0
316,303,306,308,0
314,316,307,307,0
310,324,307,305,0
306,325,307,304,0
302,321,306,302,0
298,311,307,302,0
294,301,308,303,0
291,296,309,304,0
290,295,310,304,0
291,298,312,305,0
295,303,313,306,0
301,308,313,306,0
306,311,311,305,0
310,310,307,304,0
312,307,304,302,0
312,305,301,301,0
311,308,299,301,0
310,311,298,301,0
310,313,297,300,0
311,316,297,300,0
313,322,297,300,0
315,330,298,300,0
316,338,299,300,0
315,342,299,300,0
314,340,297,301,0
312,337,295,301,0
310,330,294,301,0
310,322,294,301,0
309,312,295,300,0
309,302,295,300,0
310,295,297,299,0
311,291,300,300,0
314,296,304,301,0
315,303,307,301,0
315,310,307,300,0
314,315,306,298,0
312,316,305,297,0
311,319,305,297,0
310,324,305,298,0
309,324,303,298,0
308,318,299,298,0
307,307,295,300,0
306,293,293,301,0
306,276,293,303,0
305,262,294,306,0
306,255,297,308,0
306,256,301,311,0
308,266,306,314,0
308,276,310,316,0
308,276,313,316,0
308,265,317,317,0
309,250,320,318,0
309,240,322,318,0
311,241,322,317,0
312,251,321,315,0
311,267,319,312,0
310,279,317,310,0
308,286,314,307,0
307,293,312,306,0
308,306,312,306,0
308,318,310,305,0
307,324,306,304,0
304,328,302,303,0
303,331,298,302,0
305,336,297,302,0
307,344,296,303,0
310,350,296,304,0
312,351,297,306,0
311,345,298,307,0
309,335,299,308,0
306,326,301,308,0
304,322,303,309,0
305,323,303,309,0
306,326,303,308,0
307,328,303,306,0
308,325,304,305,0
308,319,305,304,0
308,313,305,303,0
308,308,306,302,0
308,308,308,302,0
310,314,310,303,0
313,323,312,305,0
313,328,313,307,0
311,322,314,308,0
306,304,312,307,0
300,288,311,306,0
297,284,309,305,0
297,292,306,304,0
299,308,303,303,0
302,324,300,301,0
304,333,298,300,0
304,334,296,301,0
303,329,295,301,0
302,321,295,302,0
302,311,295,302,0
305,300,297,302,0
308,289,299,302,0
310,281,303,301,0
312,280,308,301,0
313,282,309,302,0
311,284,309,301,0
310,286,310,302,0
309,286,310,302,0
308,283,310,303,0
307,279,309,303,0
307,278,308,303,0
307,282,308,303,0
308,291,309,303,0
308,304,311,303,0
308,319,313,303,0
308,333,313,303,0
308,342,310,302,0
307,343,306,299,0
304,337,300,296,0
301,323,296,293,0
298,307,293,291,0
298,294,293,293,0
299,287,295,296,0
301,289,298,300,0
302,297,300,303,0
303,306,302,305,0
303,313,303,308,0
303,318,304,310,0
303,316,303,311,0
304,307,300,311,0
306,298,298,311,0
308,291,298,310,0
312,287,299,310,0
313,285,301,310,0
312,284,305,311,0
311,284,309,311,0
309,285,315,313,0
310,289,321,314,0
311,294,325,315,0
313,298,327,315,0
312,296,327,314,0
309,287,323,313,0
304,275,320,312,0
301,265,317,311,0
300,260,315,311,0
300,259,311,311,0
298,258,307,311,0
298,259,305,311,0
299,265,305,313,0
303,274,307,315,0
304,280,307,316,0
305,287,307,315,0
305,296,307,315,0
306,306,307,315,0
308,313,309,315,0
309,318,311,315,0
309,323,312,314,0
307,328,310,311,0
305,335,307,307,0
305,345,304,305,0
308,354,302,304,0
311,357,302,304,0
314,352,303,304,0
316,343,304,304,0
315,334,303,304,0
314,329,303,304,0
313,325,303,305,0
313,320,304,305,0
312,312,305,306,0
312,302,306,307,0
313,297,309,308,0
312,298,311,309,0
311,305,312,310,0
309,313,313,311,0
308,314,312,311,0
307,312,310,309,0
306,306,308,308,0
305,297,308,307,0
305,290,308,306,0
305,286,309,306,0
305,285,309,306,0
305,287,310,305,0
304,292,309,304,0
304,300,309,304,0
307,309,310,304,0
312,313,311,305,0
315,310,313,304,0
317,300,314,304,0
316,286,313,303,0
313,270,311,302,0
308,258,309,302,0
306,255,307,303,0
306,263,307,305,0
305,276,308,307,0
306,290,308,307,0
306,301,308,307,0
305,307,308,305,0
306,312,308,304,0
307,319,308,303,0
308,329,306,303,0
308,336,305,304,0
308,333,301,304,0
308,324,298,305,0
310,314,296,305,0
313,307,295,305,0
315,305,296,305,0
318,310,296,305,0
320,318,297,305,0
320,321,297,305,0
317,320,296,305,0
312,315,296,305,0
307,310,296,305,0
304,305,298,307,0
304,302,301,311,0
306,302,304,313,0
310,305,307,317,0
315,310,310,318,0
320,316,312,319,0
323,320,313,318,0
322,319,313,316,0
319,314,313,314,0
314,306,312,312,0
309,298,312,311,0
307,296,311,311,0
306,296,311,311,0
305,297,309,310,0
303,296,306,309,0
300,291,304,308,0
299,283,304,308,0
300,273,306,309,0
303,265,310,312,0
308,265,314,315,0
312,272,317,318,0
313,285,318,318,0
311,297,316,316,0
308,307,310,313,0
305,314,303,309,0
305,318,297,306,0
306,320,294,306,0
307,321,292,306,0
307,320,293,307,0
304,314,295,308,0
301,305,297,309,0
298,297,299,310,0
296,293,301,311,0
295,294,303,313,0
295,296,303,314,0
296,301,303,314,0
297,310,302,314,0
297,320,301,313,0
299,328,301,312,0
299,332,301,310,0
300,332,301,309,0
302,330,302,309,0
303,326,304,309,0
304,321,304,308,0
303,315,304,307,0
301,311,303,305,0
299,307,302,304,0
297,302,302,304,0
297,297,303,306,0
298,290,304,308,0
301,286,307,310,0
305,288,310,312,0
307,293,311,313,0
308,296,311,312,0
307,293,309,312,0
305,286,306,311,0
302,284,303,310,0
299,291,300,309,0
297,306,298,307,0
295,319,296,305,0
294,322,296,304,0
294,321,296,303,0
296,317,297,304,0
300,316,301,306,0
306,325,304,309,0
310,331,305,309,0
311,326,303,308,0
310,313,302,307,0
309,300,304,306,0
310,291,307,306,0
311,287,313,307,0
313,288,317,309,0
315,293,319,310,0
315,297,318,310,0
315,297,316,310,0
313,295,314,310,0
310,297,312,311,0
305,303,311,310,0
301,311,309,309,0
299,317,308,308,0
297,323,307,307,0
297,328,308,307,0
297,332,308,307,0
298,333,309,307,0
299,332,309,307,0
301,329,309,308,0
302,324,310,309,0
302,319,310,309,0
302,313,310,309,0
303,307,309,309,0
303,297,307,308,0
303,288,305,307,0
304,278,305,307,0
305,271,305,308,0
306,269,305,309,0
306,273,305,310,0
305,279,302,309,0
303,281,299,307,0
301,283,296,304,0
300,284,295,302,0
301,290,296,301,0
304,297,300,302,0
306,301,302,302,0
306,304,305,302,0
307,309,307,303,0
307,311,308,305,0
308,309,310,307,0
309,305,310,309,0
310,301,310,311,0
311,296,309,312,0
313,296,309,312,0
314,304,310,313,0
317,320,312,314,0
319,338,312,316,0
319,350,312,316,0
315,356,310,314,0
312,357,309,313,0
308,351,308,311,0
303,337,307,309,0
300,324,306,309,0
298,319,306,309,0
299,320,306,309,0
299,319,306,309,0
300,314,308,309,0
301,308,311,310,0
301,305,313,310,0
302,306,314,311,0
301,307,313,310,0
300,305,312,310,0
299,300,309,309,0
297,293,306,308,0
296,287,304,308,0
296,285,303,307,0
296,287,302,306,0
296,292,301,305,0
296,296,301,305,0
296,299,301,305,0
296,297,302,305,0
297,293,302,306,0
298,287,302,307,0
298,281,303,307,0
299,276,304,308,0
301,271,306,309,0
305,266,308,310,0
309,263,311,311,0
313,258,312,312,0
317,254,311,312,0
321,256,310,312,0
326,270,308,313,0
330,293,306,313,0
332,312,303,312,0
331,322,300,310,0
327,332,295,307,0
320,343,291,303,0
315,350,290,301,0
311,355,291,301,0
309,357,295,301,0
307,355,300,300,0
304,352,304,299,0
301,348,307,299,0
298,339,309,300,0
296,330,312,301,0
294,321,313,303,0
294,317,313,305,0
294,315,313,306,0
295,316,312,309,0
297,318,313,310,0
298,321,312,310,0
298,323,311,309,0
299,322,311,308,0
301,320,312,308,0
301,313,312,308,0
301,299,311,308,0
302,284,310,309,0
304,276,309,308,0
306,273,307,308,0
306,269,306,307,0
307,265,305,306,0
306,262,304,306,0
306,266,304,305,0
306,275,304,305,0
306,282,303,305,0
305,286,301,305,0
305,290,299,304,0
306,298,297,303,0
307,307,297,303,0
309,318,299,304,0
311,328,300,304,0
311,332,299,304,0
309,331,299,305,0
308,327,300,306,0
307,320,301,307,0
307,312,300,307,0
305,303,300,307,0
305,295,300,307,0
305,291,299,306,0
305,292,298,306,0
307,299,297,307,0
308,311,297,308,0
309,316,298,309,0
308,316,301,309,0
308,314,304,308,0
309,317,307,307,0
310,323,310,304,0
309,329,312,302,0
306,330,311,299,0
304,325,309,299,0
303,316,309,299,0
303,304,311,302,0
305,295,313,306,0
305,290,316,309,0
304,289,317,311,0
302,296,317,311,0
300,305,316,310,0
299,313,314,310,0
298,319,312,310,0
298,321,309,310,0
299,321,308,311,0
299,315,307,312,0
301,306,307,313,0
303,301,308,314,0
305,298,310,315,0
307,296,312,316,0
309,295,313,315,0
310,293,310,312,0
309,292,307,308,0
307,292,304,306,0
306,294,303,304,0
305,298,302,303,0
305,302,303,302,0
304,302,303,301,0
303,299,303,300,0
302,294,304,300,0
304,293,305,300,0
307,296,307,302,0
312,305,308,304,0
316,320,309,306,0
316,334,308,307,0
312,343,306,308,0
305,343,304,310,0
299,337,301,311,0
298,328,300,312,0
300,318,300,313,0
304,308,300,314,0
308,302,300,313,0
313,301,301,314,0
316,303,303,313,0
316,307,304,313,0
316,313,304,312,0
314,316,305,312,0
312,318,306,313,0
309,319,308,313,0
305,317,309,313,0
301,313,309,312,0
298,306,308,311,0
296,297,306,310,0
294,287,306,310,0
294,278,307,311,0
295,275,308,311,0
296,276,309,310,0
298,285,308,308,0
301,300,308,307,0
303,316,308,306,0
303,326,309,306,0
304,330,309,307,0
305,328,307,306,0
305,317,304,306,0
305,300,300,306,0
305,282,298,307,0
306,270,298,309,0
306,268,300,310,0
306,272,302,311,0
303,279,304,313,0
301,285,305,314,0
303,295,307,316,0
308,309,309,317,0
315,322,309,316,0
319,327,308,314,0
319,325,305,311,0
314,320,302,308,0
309,318,300,306,0
305,320,298,305,0
303,322,298,305,0
302,323,298,304,0
304,322,297,305,0
306,320,299,305,0
308,318,303,307,0
309,316,307,309,0
310,315,312,311,0
312,318,315,313,0
314,320,316,314,0
315,322,315,314,0
314,320,312,313,0
314,314,309,313,0
312,307,306,313,0
310,301,304,314,0
308,296,303,315,0
307,295,304,316,0
308,301,307,318,0
311,315,310,319,0
314,327,312,319,0
313,331,311,317,0
308,329,308,314,0
303,323,306,312,0
302,317,305,310,0
303,315,306,308,0
306,318,306,307,0
306,325,305,306,0
304,329,305,305,0
301,327,304,306,0
298,320,303,306,0
297,310,303,307,0
299,300,305,309,0
301,291,307,310,0
303,282,308,311,0
302,277,308,310,0
301,276,309,310,0
300,279,310,310,0
299,284,311,310,0
298,286,310,309,0
298,285,308,309,0
297,280,306,308,0
296,275,304,308,0
297,273,303,309,0
300,277,302,310,0
304,288,302,310,0
308,300,301,309,0
310,311,301,308,0
309,317,300,306,0
309,322,300,304,0
311,326,301,303,0
314,327,302,302,0
317,324,304,301,0
318,321,307,300,0
318,323,308,299,0
316,330,309,299,0
314,337,310,299,0
310,337,308,298,0
304,329,306,296,0
300,319,307,295,0
300,314,310,296,0
305,315,313,300,0
310,315,317,303,0
312,312,318,304,0
311,305,318,304,0
310,297,317,303,0
310,290,317,303,0
312,287,317,304,0
316,289,317,306,0
318,290,314,307,0
315,287,309,306,0
309,284,306,306,0
306,285,303,306,0
303,289,301,305,0
300,294,299,304,0
300,303,300,305,0
300,313,301,306,0
299,317,301,305,0
297,312,300,305,0
293,301,301,305,0
290,287,302,307,0
288,275,304,309,0
290,270,307,312,0
293,267,311,314,0
295,265,312,315,0
295,263,311,313,0
293,263,308,311,0
293,266,306,309,0
295,273,304,307,0
298,279,303,305,0
299,285,301,302,0
299,294,298,298,0
296,306,297,296,0
295,320,297,295,0
295,331,298,296,0
296,339,299,297,0
298,343,302,300,0
301,345,305,302,0
300,344,305,304,0
297,340,304,304,0
296,339,303,305,0
298,343,304,305,0
300,348,305,303,0
302,348,305,301,0
304,341,306,299,0
307,334,307,299,0
311,326,307,300,0
313,319,307,303,0
315,313,305,305,0
315,309,305,306,0
314,310,305,308,0
314,318,307,310,0
313,329,309,310,0
313,336,310,309,0
312,335,308,308,0
312,329,305,306,0
313,322,304,305,0
315,319,304,304,0
316,319,304,304,0
314,317,304,305,0
311,312,302,305,0
308,302,301,306,0
306,288,301,308,0
307,275,303,309,0
309,264,306,310,0
311,255,309,310,0
312,249,311,308,0
310,250,312,307,0
307,259,313,305,0
306,273,314,305,0
305,289,314,304,0
305,303,313,303,0
304,309,310,303,0
303,313,307,302,0
303,317,305,302,0
303,320,304,302,0
303,321,303,302,0
303,318,303,303,0
304,311,303,304,0
306,304,303,307,0
307,299,302,310,0
307,298,303,311,0
306,299,304,313,0
306,301,305,314,0
307,305,307,315,0
309,313,308,315,0
312,323,310,315,0
316,333,311,314,0
318,338,311,312,0
317,338,312,310,0
314,332,311,307,0
309,323,310,305,0
304,312,308,305,0
300,300,307,306,0
295,288,307,308,0
290,280,307,310,0
287,279,307,311,0
287,286,307,312,0
290,300,309,312,0
295,312,312,314,0
299,314,314,314,0
303,312,315,315,0
306,312,315,315,0
308,318,315,314,0
307,325,314,312,0
306,333,312,308,0
304,335,308,305,0
302,331,304,303,0
301,324,300,300,0
300,317,296,299,0
299,311,295,299,0
300,308,295,301,0
301,310,295,302,0
302,311,295,303,0
303,309,296,304,0
304,305,297,306,0
304,301,299,307,0
302,296,301,309,0
300,287,302,310,0
297,277,302,311,0
296,268,303,311,0
295,262,304,312,0
296,258,305,313,0
299,254,306,314,0
301,248,305,313,0
303,244,304,312,0
306,246,304,311,0
310,255,304,311,0
313,274,305,311,0
316,296,305,311,0
318,316,305,310,0
316,330,304,309,0
312,339,303,307,0
307,346,302,307,0
303,349,301,307,0
302,344,301,308,0
303,334,301,309,0
306,318,302,311,0
309,304,302,312,0
312,296,301,312,0
314,295,302,312,0
315,298,304,311,0
313,302,304,310,0
308,304,305,308,0
304,306,304,305,0
302,310,302,302,0
301,314,301,302,0
302,317,301,302,0
303,317,301,302,0
302,318,299,301,0
301,319,297,298,0
299,318,294,297,0
298,315,293,298,0
298,313,293,300,0
298,313,295,302,0
299,314,299,305,0
302,318,301,308,0
306,323,304,310,0
311,332,306,312,0
318,341,306,313,0
324,347,306,313,0
326,347,305,312,0
325,339,302,310,0
320,326,298,309,0
316,312,296,309,0
313,303,296,311,0
311,299,298,312,0
309,295,301,313,0
305,289,304,314,0
302,282,307,316,0
301,277,312,319,0
302,277,315,320,0
302,282,316,320,0
301,287,316,319,0
299,291,315,316,0
298,296,313,312,0
297,299,310,309,0
297,303,307,305,0
297,305,305,304,0
297,305,303,303,0
298,302,302,304,0
298,296,301,306,0
298,291,301,307,0
298,289,302,309,0
299,292,304,311,0
301,299,307,312,0
303,305,309,314,0
303,304,309,314,0
302,295,307,313,0
302,283,306,314,0
304,269,307,316,0
309,257,310,318,0
314,257,312,320,0
318,269,311,318,0
317,283,306,314,0
315,293,302,310,0
311,301,299,307,0
306,307,297,305,0
303,313,297,304,0
300,316,297,304,0
300,316,298,305,0
302,315,300,306,0
307,319,303,308,0
313,329,307,310,0
318,342,309,311,0
320,349,310,310,0
320,353,309,309,0
318,351,308,308,0
316,341,307,308,0
315,329,306,307,0
317,319,308,308,0
320,314,310,308,0
322,309,310,307,0
319,301,309,306,0
313,290,307,306,0
308,281,307,307,0
304,277,307,309,0
302,276,308,312,0
300,276,308,313,0
299,277,308,314,0
298,284,307,313,0
298,297,307,312,0
300,313,306,311,0
301,326,306,309,0
304,332,305,307,0
305,330,303,305,0
305,325,301,304,0
305,321,301,302,0
304,314,301,302,0
304,307,302,302,0
305,304,304,303,0
308,306,306,304,0
311,312,306,303,0
312,314,303,303,0
309,314,299,303,0
307,312,296,304,0
304,311,295,306,0
305,309,294,307,0
306,304,295,307,0
308,302,295,308,0
309,301,296,308,0
309,296,297,307,0
307,287,299,306,0
305,280,301,305,0
303,278,303,303,0
303,283,305,302,0
303,291,305,303,0
304,298,306,305,0
307,303,307,308,0
309,303,307,310,0
310,297,305,310,0
309,285,303,309,0
307,274,302,309,0
306,272,301,309,0
305,280,301,309,0
302,290,300,309,0
300,300,299,308,0
297,309,298,308,0
297,315,295,308,0
297,319,292,309,0
299,320,290,309,0
300,318,290,310,0
302,317,291,310,0
303,319,294,309,0
305,321,297,308,0
307,324,302,308,0
309,327,307,308,0
312,326,311,307,0
313,324,314,306,0
313,320,316,305,0
311,318,316,305,0
310,319,317,306,0
310,320,317,308,0
310,320,318,309,0
310,316,318,310,0
309,308,320,310,0
307,300,320,309,0
303,291,319,308,0
299,287,318,307,0
296,288,317,307,0
296,294,315,307,0
297,300,314,308,0
299,306,314,308,0
302,314,316,309,0
304,319,317,309,0
305,315,318,310,0
304,309,317,309,0
302,303,315,309,0
301,298,311,308,0
301,294,308,307,0
303,295,306,307,0
305,301,306,306,0
307,311,306,306,0
308,322,306,306,0
306,326,306,305,0
303,328,304,304,0
299,325,303,303,0
298,321,304,303,0
298,317,305,303,0
300,316,306,304,0
304,319,307,305,0
308,323,307,306,0
312,325,308,307,0
314,322,309,308,0
315,313,311,308,0
313,300,311,308,0
309,288,311,308,0
307,279,312,310,0
305,271,312,311,0
301,264,311,311,0
297,260,310,312,0
296,267,310,312,0
297,285,308,311,0
297,306,305,308,0
296,325,301,305,0
295,334,298,303,0
295,332,296,303,0
295,323,296,304,0
297,314,298,306,0
301,310,302,310,0
305,315,304,312,0
306,324,305,312,0
306,331,305,312,0
307,337,306,312,0
308,341,307,312,0
308,335,307,311,0
308,324,306,309,0
307,318,306,308,0
307,314,307,306,0
306,308,307,305,0
305,304,307,305,0
305,300,307,305,0
305,296,307,305,0
307,296,306,307,0
311,299,306,308,0
316,305,308,310,0
322,315,310,312,0
328,326,312,313,0
330,330,313,313,0
327,324,312,312,0
318,310,309,311,0
309,295,306,308,0
301,283,303,307,0
296,274,300,304,0
294,270,298,303,0
295,271,297,302,0
301,279,299,303,0
306,291,301,305,0
310,306,303,306,0
312,322,304,304,0
312,333,305,302,0
309,335,305,300,0
306,333,305,301,0
303,330,305,302,0
299,326,303,303,0
295,319,301,304,0
293,310,297,305,0
293,300,295,307,0
295,292,295,309,0
298,287,295,312,0
301,286,297,313,0
304,289,298,313,0
305,295,298,311,0
304,302,298,308,0
303,309,298,305,0
302,313,298,303,0
302,311,299,303,0
302,303,301,302,0
303,292,304,304,0
305,283,306,305,0
306,279,309,307,0
307,281,312,310,0
307,289,316,312,0
306,296,319,313,0
304,301,321,314,0
301,306,321,314,0
299,309,320,315,0
300,307,321,316,0
302,301,322,318,0
305,293,323,319,0
309,287,322,320,0
312,287,322,322,0
316,293,321,323,0
317,295,319,322,0
315,291,315,320,0
312,280,310,316,0
309,268,305,312,0
307,266,302,309,0
307,275,300,307,0
307,290,300,305,0
306,307,301,304,0
304,318,302,304,0
302,319,303,306,0
300,310,303,308,0
299,299,305,310,0
299,291,307,311,0
298,290,309,313,0
300,301,312,313,0
302,319,313,312,0
304,336,312,310,0
305,350,312,309,0
306,357,313,309,0
306,357,312,308,0
306,353,311,309,0
306,347,310,308,0
306,339,308,308,0
305,333,307,309,0
305,328,305,309,0
305,322,303,309,0
307,317,302,309,0
310,314,302,310,0
313,314,303,311,0
315,314,303,311,0
316,314,303,312,0
316,312,305,311,0
314,308,307,311,0
312,307,308,312,0
310,308,308,311,0
308,309,307,312,0
307,311,305,312,0
306,311,304,312,0
306,311,305,313,0
307,309,308,314,0
309,300,310,316,0
308,285,311,317,0
306,270,312,316,0
303,258,313,316,0
302,254,312,314,0
303,262,311,313,0
306,276,311,311,0
308,289,311,309,0
310,297,312,308,0
310,301,311,308,0
309,301,309,307,0
307,301,306,306,0
306,302,303,307,0
308,308,301,307,0
311,317,302,309,0
314,324,301,309,0
313,324,299,308,0
309,318,296,306,0
305,310,294,304,0
302,301,294,302,0
300,297,296,301,0
299,299,299,301,0
301,304,302,301,0
302,309,303,301,0
304,314,303,301,0
306,317,303,301,0
307,317,302,300,0
311,314,301,301,0
313,313,299,302,0
315,312,298,304,0
315,313,298,305,0
313,313,300,306,0
310,312,302,306,0
307,304,304,306,0
304,290,303,306,0
302,274,303,306,0
302,264,302,307,0
303,264,303,308,0
305,271,304,309,0
308,280,306,310,0
311,292,308,309,0
315,308,310,308,0
320,321,313,310,0
323,325,314,310,0
321,322,313,311,0
317,316,310,311,0
313,309,308,310,0
310,303,307,309,0
307,301,305,308,0
305,304,303,306,0
306,310,303,305,0
306,318,302,305,0
306,325,302,304,0
305,330,303,305,0
304,330,304,307,0
303,329,307,308,0
301,326,310,309,0
301,322,312,310,0
301,317,314,310,0
302,310,314,309,0
302,305,313,308,0
301,303,311,306,0
302,302,307,303,0
303,301,303,301,0
305,302,300,299,0
309,304,297,299,0
312,306,296,301,0
314,306,296,302,0
315,305,297,303,0
314,304,298,303,0
312,302,300,303,0
307,302,302,303,0
303,304,305,303,0
301,309,309,303,0
302,316,312,304,0
304,322,314,304,0
304,320,314,304,0
304,311,312,305,0
303,298,311,306,0
303,285,310,308,0
304,279,310,309,0
305,282,311,310,0
307,287,312,310,0
310,289,313,310,0
311,288,312,309,0
312,288,312,307,0
311,288,312,306,0
310,295,313,306,0
308,302,312,306,0
305,310,311,306,0
301,317,310,306,0
298,321,309,305,0
296,319,306,304,0
293,309,304,303,0
292,299,301,303,0
293,292,300,303,0
295,288,301,303,0
299,289,302,303,0
305,302,305,303,0
311,317,308,302,0
313,321,308,301,0
313,316,307,300,0
314,310,305,300,0
313,308,303,300,0
313,308,302,300,0
311,307,303,301,0
310,307,303,300,0
308,307,302,300,0
307,309,300,301,0
307,312,300,301,0
306,314,299,301,0
306,314,299,301,0
304,311,299,301,0
301,307,300,302,0
298,305,301,302,0
296,306,303,304,0
296,312,306,306,0
297,319,309,308,0
301,322,310,308,0
304,321,311,309,0
309,318,312,310,0
312,310,313,309,0
315,297,314,310,0
317,287,316,311,0
316,278,317,311,0
314,275,317,312,0
313,286,316,312,0
314,306,316,313,0
316,325,316,312,0
315,332,314,309,0
311,331,310,305,0
305,325,306,302,0
302,318,301,301,0
300,316,297,300,0
299,317,293,300,0
300,319,288,300,0
300,318,284,299,0
300,316,281,299,0
300,313,280,299,0
301,312,284,301,0
302,308,290,302,0
303,303,296,304,0
304,304,302,307,0
306,309,308,309,0
309,318,313,311,0
311,327,317,311,0
311,334,319,310,0
310,335,321,309,0
309,330,323,308,0
309,324,325,307,0
310,315,326,306,0
311,306,325,307,0
310,297,323,308,0
308,289,320,310,0
306,286,317,311,0
304,289,316,313,0
302,294,315,313,0
301,299,316,313,0
302,307,317,313,0
303,318,318,312,0
305,328,318,310,0
306,332,318,308,0
306,334,317,307,0
305,330,316,306,0
303,321,313,305,0
301,310,310,304,0
299,301,306,302,0
299,295,302,302,0
300,287,300,302,0
302,277,299,304,0
304,270,300,307,0
306,267,303,310,0
308,262,305,313,0
307,256,307,314,0
305,252,308,315,0
306,255,309,316,0
309,267,310,316,0
312,286,313,315,0
312,308,314,313,0
311,327,314,312,0
308,336,313,311,0
306,335,311,311,0
304,326,310,311,0
302,314,310,311,0
302,303,310,311,0
302,298,311,311,0
303,299,311,310,0
305,307,311,310,0
307,317,310,309,0
308,327,308,309,0
308,335,307,309,0
307,343,304,308,0
306,349,303,309,0
305,350,303,309,0
304,347,304,310,0
304,342,305,311,0
304,335,306,312,0
304,327,307,313,0
303,320,308,315,0
304,313,309,316,0
306,309,308,316,0
309,307,308,316,0
311,306,307,316,0
311,305,306,315,0
310,306,305,314,0
309,311,305,314,0
308,315,308,314,0
310,317,310,315,0
311,317,311,314,0
309,314,311,314,0
306,311,310,313,0
303,307,309,313,0
302,302,308,313,0
300,295,306,313,0
300,285,306,313,0
301,277,306,314,0
302,271,307,313,0
302,268,307,313,0
302,269,307,312,0
302,272,306,310,0
301,276,306,309,0
302,285,306,308,0
304,296,306,307,0
306,304,304,305,0
306,308,303,304,0
306,307,301,302,0
306,305,300,301,0
304,303,300,301,0
302,302,299,301,0
300,303,300,301,0
300,306,300,303,0
301,311,300,304,0
302,314,299,306,0
300,315,298,306,0
300,316,298,308,0
303,320,300,309,0
308,325,302,309,0
311,326,303,310,0
311,323,303,309,0
310,315,304,309,0
308,299,303,308,0
304,280,303,307,0
300,265,303,306,0
299,259,304,307,0
300,267,305,307,0
302,284,306,307,0
304,304,305,308,0
306,322,305,308,0
306,331,304,307,0
304,330,302,305,0
302,322,300,305,0
300,314,299,305,0
300,309,300,307,0
302,309,302,309,0
304,313,304,309,0
306,319,306,309,0
307,323,306,310,0
307,320,306,311,0
305,316,306,311,0
304,315,307,312,0
305,318,308,313,0
307,325,308,313,0
309,327,306,312,0
310,321,304,310,0
311,312,302,310,0
313,305,302,310,0
313,304,304,310,0
313,303,305,309,0
310,303,305,309,0
307,304,306,308,0
306,308,308,308,0
307,313,310,308,0
307,313,311,308,0
307,311,311,309,0
305,305,311,309,0
304,302,312,310,0
304,301,313,311,0
305,301,313,310,0
304,297,313,308,0
303,291,313,306,0
304,287,311,305,0
306,287,308,304,0
308,289,306,304,0
309,297,306,304,0
310,307,306,305,0
311,313,307,307,0
311,314,310,308,0
310,313,313,309,0
307,316,314,309,0
305,322,314,308,0
304,325,314,308,0
305,326,312,308,0
306,326,309,309,0
306,323,306,309,0
305,317,303,310,0
305,311,301,311,0
305,307,300,311,0
308,307,301,313,0
311,307,302,313,0
311,304,302,313,0
310,298,302,313,0
309,293,303,312,0
306,287,303,310,0
302,283,302,309,0
298,281,301,306,0
295,282,300,303,0
293,286,299,300,0
292,291,299,298,0
292,298,298,298,0
294,304,299,300,0
296,307,299,302,0
297,306,299,304,0
298,304,299,304,0
298,306,299,304,0
297,308,299,305,0
298,310,301,306,0
299,310,302,306,0
301,309,304,306,0
303,308,306,306,0
306,308,307,306,0
310,310,309,306,0
313,310,311,307,0
316,308,311,307,0
317,302,311,308,0
315,294,310,309,0
313,286,308,310,0
309,279,306,310,0
305,275,305,310,0
302,273,304,309,0
301,277,303,308,0
300,288,301,306,0
299,302,299,305,0
298,314,297,303,0
296,320,295,303,0
294,320,294,304,0
291,317,296,305,0
291,316,298,307,0
293,318,302,308,0
297,324,305,309,0
302,331,308,310,0
306,335,311,312,0
309,332,314,312,0
309,323,315,311,0
307,312,315,310,0
306,304,314,309,0
306,298,313,308,0
307,294,312,307,0
309,295,311,307,0
311,301,309,306,0
311,306,308,306,0
311,304,307,304,0
310,298,305,302,0
309,292,303,301,0
309,288,303,301,0
309,285,303,301,0
308,282,301,301,0
306,279,298,300,0
302,274,295,300,0
299,266,294,300,0
298,257,295,302,0
300,249,298,304,0
303,243,302,307,0
306,243,307,309,0
311,254,311,312,0
315,276,316,315,0
319,300,319,316,0
320,319,321,316,0
321,332,323,316,0
322,339,324,314,0
320,338,322,311,0
316,334,320,309,0
312,329,319,308,0
307,323,319,309,0
303,321,318,310,0
299,322,317,310,0
296,322,315,310,0
295,320,313,310,0
295,316,311,311,0
296,310,310,312,0
297,305,310,312,0
298,302,309,311,0
300,305,309,309,0
300,313,309,307,0
299,321,308,306,0
298,325,305,304,0
295,323,303,304,0
294,319,300,303,0
294,315,299,303,0
295,312,299,304,0
296,311,298,304,0
298,311,299,303,0
300,311,299,303,0
300,311,300,304,0
301,311,301,305,0
302,311,302,306,0
303,310,304,307,0
304,308,307,308,0
306,309,310,310,0
310,315,313,312,0
314,322,316,313,0
317,327,317,314,0
319,330,318,315,0
321,331,318,316,0
321,327,318,316,0
320,309,316,316,0
317,284,314,315,0
312,261,313,314,0
308,244,311,313,0
304,237,309,312,0
300,237,308,311,0
298,245,306,309,0
296,256,304,308,0
296,273,303,307,0
296,291,303,306,0
297,306,301,305,0
297,312,297,304,0
298,312,295,303,0
298,305,294,303,0
297,295,295,302,0
296,289,297,301,0
297,290,300,302,0
298,298,304,303,0
301,310,307,304,0
304,319,309,305,0
305,322,310,306,0
304,316,311,307,0
304,304,312,309,0
305,291,313,310,0
307,287,314,311,0
310,296,315,312,0
311,311,314,311,0
310,325,313,310,0
308,335,311,309,0
307,339,309,308,0
306,337,308,309,0
306,333,306,309,0
305,327,306,309,0
305,320,307,311,0
306,315,309,313,0
306,308,310,314,0
307,301,311,314,0
308,298,313,314,0
310,303,313,314,0
314,314,314,313,0
317,327,313,312,0
318,333,311,310,0
317,329,309,308,0
314,324,307,306,0
312,319,305,304,0
311,317,304,303,0
308,318,303,302,0
304,319,303,302,0
299,318,302,302,0
295,313,300,301,0
292,306,300,301,0
292,301,302,302,0
294,298,305,303,0
296,296,306,305,0
298,296,308,307,0
300,298,309,308,0
302,302,309,308,0
302,304,307,305,0
300,306,304,301,0
298,307,300,297,0
298,303,297,295,0
297,295,295,292,0
296,288,296,293,0
298,291,298,294,0
300,302,301,295,0
303,312,303,296,0
304,318,304,295,0
303,320,305,295,0
302,317,307,296,0
301,313,309,299,0
300,310,310,303,0
302,310,311,308,0
304,313,312,311,0
306,316,313,313,0
308,317,313,315,0
308,315,313,315,0
307,313,314,314,0
306,311,313,313,0
305,308,312,312,0
304,304,310,311,0
304,301,310,310,0
304,298,310,311,0
304,295,310,311,0
303,292,309,312,0
303,295,307,311,0
304,301,306,310,0
306,309,304,309,0
306,314,302,308,0
305,315,300,307,0
303,312,299,307,0
303,310,300,307,0
303,304,302,307,0
303,295,303,306,0
302,287,303,305,0
302,282,303,305,0
303,278,303,306,0
304,274,303,308,0
305,268,302,309,0
306,263,302,309,0
306,258,302,310,0
308,258,303,311,0
311,265,304,311,0
313,280,304,310,0
313,299,304,309,0
313,320,303,307,0
312,337,302,305,0
310,344,298,303,0
306,346,296,301,0
303,343,295,301,0
301,337,297,303,0
299,328,298,304,0
299,320,301,305,0
301,315,303,306,0
303,313,304,307,0
305,314,306,307,0
307,316,307,307,0
311,320,309,307,0
314,323,310,306,0
316,324,310,305,0
317,317,310,304,0
315,310,308,303,0
313,305,307,301,0
312,304,307,301,0
309,303,307,301,0
305,297,306,302,0
303,291,307,305,0
303,293,308,307,0
304,298,310,309,0
304,306,310,310,0
304,318,311,310,0
305,328,311,309,0
305,336,310,307,0
304,342,308,305,0
303,344,306,304,0
305,342,304,304,0
306,336,302,303,0
306,322,301,302,0
306,301,300,302,0
306,280,301,302,0
308,265,302,304,0
309,255,304,306,0
310,251,305,309,0
311,257,305,311,0
312,273,305,311,0
311,288,304,310,0
311,299,303,309,0
310,309,303,309,0
310,316,303,309,0
309,321,304,309,0
309,324,305,310,0
310,329,305,309,0
311,335,305,308,0
312,345,304,307,0
314,355,304,306,0
316,361,303,305,0
315,357,302,304,0
312,346,300,302,0
309,333,299,302,0
307,323,299,302,0
305,318,300,301,0
304,318,300,300,0
304,319,301,300,0
305,320,302,298,0
305,317,302,296,0
304,312,302,295,0
303,304,301,294,0
301,298,301,294,0
299,293,300,296,0
299,290,299,300,0
300,291,301,305,0
303,297,303,310,0
305,303,307,315,0
306,307,311,318,0
306,311,313,319,0
306,313,313,319,0
308,312,312,318,0
310,309,313,318,0
312,305,314,317,0
313,304,314,315,0
313,304,314,313,0
313,304,313,312,0
312,304,312,311,0
311,302,311,311,0
310,300,310,311,0
308,299,309,311,0
306,299,308,311,0
306,299,308,311,0
306,299,309,312,0
307,299,309,313,0
308,299,310,312,0
307,299,309,311,0
306,299,307,309,0
304,298,305,309,0
304,301,304,309,0
306,303,305,310,0
309,297,306,312,0
312,288,309,313,0
315,281,313,313,0
315,281,316,313,0
314,287,317,312,0
313,294,316,311,0
312,301,313,309,0
309,303,309,307,0
307,299,306,305,0
305,293,303,303,0
304,285,300,301,0
303,279,299,301,0
304,279,298,302,0
304,281,298,302,0
304,284,299,303,0
304,289,301,304,0
306,298,304,305,0
307,308,307,307,0
307,319,311,308,0
307,329,314,309,0
307,338,316,310,0
307,343,317,310,0
306,343,315,309,0
306,338,313,308,0
306,329,312,308,0
307,319,312,308,0
308,314,312,307,0
308,313,312,307,0
307,316,311,307,0
307,321,308,306,0
306,324,307,306,0
305,321,306,305,0
302,316,305,305,0
300,311,304,306,0
299,308,304,307,0
297,308,304,307,0
297,309,303,308,0
297,306,302,308,0
297,300,300,309,0
298,290,299,309,0
301,282,300,309,0
304,278,303,311,0
307,278,306,311,0
309,283,307,312,0
311,292,308,312,0
313,303,308,313,0
315,311,308,313,0
318,316,308,313,0
321,322,309,313,0
322,325,311,313,0
321,326,312,312,0
318,324,314,311,0
314,319,316,311,0
310,316,317,310,0
308,315,317,310,0
306,314,316,308,0
307,313,314,307,0
309,314,310,305,0
311,315,308,304,0
312,316,308,302,0
311,314,307,302,0
310,308,305,302,0
308,299,302,301,0
306,291,300,300,0
305,289,297,300,0
305,292,296,299,0
305,298,296,299,0
308,306,297,301,0
313,314,299,302,0
315,319,300,302,0
314,319,299,301,0
310,317,297,299,0
304,314,296,297,0
300,313,296,298,0
299,314,297,300,0
300,317,300,302,0
302,321,302,303,0
305,325,304,304,0
306,326,306,304,0
307,324,308,303,0
305,317,309,304,0
305,308,310,306,0
305,298,311,309,0
308,289,312,313,0
309,281,312,315,0
308,274,311,316,0
307,268,310,316,0
306,267,309,316,0
307,269,309,316,0
307,277,310,315,0
308,293,309,314,0
309,312,308,313,0
309,329,306,311,0
309,338,306,310,0
308,334,306,310,0
307,324,308,311,0
307,311,310,313,0
307,297,313,314,0
306,283,314,314,0
305,273,316,315,0
306,275,318,315,0
307,287,318,314,0
308,299,317,313,0
308,313,315,311,0
308,325,314,309,0
310,333,313,309,0
313,337,314,309,0
315,338,314,308,0
315,336,313,308,0
314,332,313,307,0
313,324,312,307,0
311,318,312,307,0
309,313,311,307,0
308,306,309,307,0
307,299,307,308,0
307,291,306,309,0
307,285,305,311,0
308,281,304,311,0
307,284,304,312,0
306,292,303,311,0
305,303,304,310,0
305,311,304,310,0
306,315,305,310,0
307,315,306,310,0
309,310,307,309,0
310,307,308,309,0
312,307,309,310,0
314,315,311,311,0
316,324,311,311,0
316,327,309,310,0
316,327,307,308,0
314,327,304,306,0
311,328,303,305,0
309,329,302,305,0
307,332,302,305,0
306,334,303,306,0
305,333,304,306,0
304,330,305,306,0
304,327,306,307,0
305,324,307,307,0
305,320,308,309,0
306,314,308,309,0
307,308,307,309,0
308,304,306,307,0
309,305,305,306,0
311,310,304,305,0
314,313,304,304,0
317,314,305,304,0
320,316,307,304,0
320,314,308,304,0
317,306,308,304,0
313,297,307,304,0
309,289,308,304,0
307,285,309,305,0
307,286,310,307,0
307,291,310,308,0
308,299,308,308,0
305,302,307,307,0
302,296,306,307,0
300,286,307,307,0
299,281,307,307,0
299,279,307,305,0
300,280,306,304,0
300,284,306,302,0
301,289,303,299,0
299,294,300,296,0
299,299,299,294,0
298,305,298,294,0
298,307,298,297,0
299,307,300,300,0
299,302,300,302,0
300,296,299,303,0
300,290,297,302,0
300,287,294,301,0
300,287,291,300,0
300,290,287,300,0
301,293,285,301,0
301,297,284,303,0
302,303,287,305,0
303,311,292,308,0
306,318,297,311,0
307,322,302,312,0
307,321,307,312,0
306,316,311,312,0
306,305,314,312,0
305,292,316,312,0
304,278,318,312,0
301,267,320,313,0
298,264,322,313,0
297,265,321,313,0
298,269,320,313,0
301,280,319,313,0
306,300,319,313,0
310,319,317,313,0
311,328,313,310,0
310,327,308,307,0
310,325,305,304,0
311,326,302,304,0
314,331,300,306,0
317,339,299,309,0
320,349,299,311,0
321,358,300,313,0
320,360,301,313,0
316,356,303,312,0
313,347,305,312,0
311,338,307,311,0
309,330,307,309,0
308,324,307,308,0
307,320,305,308,0
307,319,303,307,0
307,316,302,307,0
308,314,301,308,0
309,309,301,309,0
308,298,302,311,0
306,282,303,313,0
305,261,304,314,0
303,242,303,315,0
302,227,304,317,0
302,228,305,318,0
304,245,307,317,0
308,271,308,318,0
312,302,309,316,0
315,326,308,313,0
316,339,307,309,0
314,339,308,306,0
313,331,310,305,0
312,322,311,305,0
310,313,311,306,0
307,303,311,306,0
304,292,309,307,0
301,285,307,309,0
298,284,307,310,0
298,289,308,312,0
300,301,308,313,0
302,313,309,314,0
305,319,309,314,0
308,324,310,313,0
310,334,311,314,0
312,349,311,314,0
312,357,310,313,0
310,356,307,311,0
307,349,306,309,0
304,339,305,307,0
301,329,304,305,0
300,321,303,304,0
300,317,304,304,0
302,318,306,304,0
305,324,307,305,0
310,329,309,305,0
313,331,309,305,0
314,331,308,304,0
314,329,307,303,0
313,324,307,302,0
311,317,305,302,0
306,308,304,301,0
301,301,304,302,0
298,298,304,302,0
296,298,304,301,0
296,303,305,301,0
297,311,305,299,0
299,318,305,297,0
300,322,304,296,0
301,324,303,297,0
300,322,302,299,0
300,319,303,303,0
300,312,304,307,0
300,302,306,310,0
299,288,307,313,0
298,273,308,314,0
296,259,308,314,0
295,250,308,314,0
295,252,309,315,0
298,263,311,317,0
302,280,314,319,0
305,298,313,319,0
306,310,311,318,0
306,313,308,316,0
304,312,305,313,0
304,312,304,312,0
304,311,303,311,0
306,308,305,311,0
308,303,307,312,0
311,298,309,313,0
312,293,311,314,0
313,291,310,314,0
313,296,310,314,0
316,304,311,315,0
319,313,311,315,0
322,319,311,316,0
323,320,311,316,0
320,319,311,315,0
316,315,310,315,0
310,309,310,313,0
303,304,310,312,0
297,302,309,310,0
292,298,309,308,0
290,293,308,307,0
290,289,307,306,0
292,289,307,306,0
294,291,307,306,0
296,293,306,306,0
298,295,304,305,0
299,297,302,305,0
301,298,300,304,0
303,295,298,304,0
305,289,296,304,0
308,281,294,305,0
312,273,294,307,0
315,268,294,309,0
318,268,296,311,0
318,272,300,314,0
317,281,303,314,0
313,291,305,314,0
309,298,306,313,0
304,305,306,312,0
301,312,307,312,0
300,316,308,312,0
300,317,309,311,0
299,313,309,311,0
298,305,308,311,0
298,300,307,311,0
298,296,306,310,0
297,292,306,310,0
296,290,307,309,0
296,291,309,309,0
299,292,312,311,0
303,300,315,311,0
308,314,316,310,0
311,326,315,308,0
311,334,312,306,0
309,338,309,304,0
307,339,306,304,0
305,339,304,304,0
303,337,302,305,0
301,337,302,305,0
300,337,303,305,0
299,337,303,304,0
298,335,306,303,0
299,331,310,303,0
301,323,313,305,0
304,310,315,306,0
309,300,314,307,0
315,297,313,308,0
320,299,312,309,0
322,304,309,309,0
320,306,305,309,0
314,305,300,308,0
307,299,297,306,0
302,290,294,305,0
299,282,294,305,0
300,278,296,304,0
303,282,299,303,0
307,292,301,302,0
310,308,302,301,0
311,322,303,299,0
310,331,305,297,0
309,334,306,297,0
308,332,309,298,0
307,326,310,300,0
306,319,312,303,0
307,312,313,305,0
308,306,314,308,0
311,302,315,310,0
314,302,316,313,0
316,302,316,314,0
315,299,314,315,0
312,293,312,314,0
309,288,311,313,0
307,284,310,311,0
307,281,309,311,0
308,280,308,312,0
309,279,308,313,0
309,277,309,315,0
311,281,310,316,0
311,292,311,316,0
310,298,310,315,0
305,295,308,313,0
302,288,308,312,0
298,285,309,311,0
296,287,309,310,0
295,293,309,309,0
296,304,309,308,0
300,317,309,308,0
305,326,309,308,0
310,329,309,307,0
311,325,307,305,0
311,320,306,303,0
310,318,305,302,0
310,319,305,302,0
311,322,305,301,0
310,324,304,301,0
308,324,303,301,0
306,324,303,302,0
303,322,304,303,0
300,317,305,305,0
298,312,306,306,0
296,308,307,307,0
296,306,307,308,0
297,308,308,309,0
301,313,308,311,0
305,318,310,313,0
309,320,310,313,0
310,318,309,312,0
311,314,308,310,0
309,307,306,309,0
308,298,304,309,0
308,293,304,310,0
310,293,304,311,0
312,294,304,312,0
311,293,304,312,0
308,291,304,310,0
303,291,304,309,0
298,293,303,306,0
294,296,302,304,0
292,299,302,302,0
292,304,302,301,0
293,309,303,300,0
295,314,303,300,0
297,318,303,300,0
300,319,303,300,0
302,321,303,300,0
305,323,303,301,0
308,326,304,303,0
311,325,306,305,0
313,320,309,306,0
313,311,312,308,0
311,299,314,309,0
309,288,315,310,0
308,283,316,310,0
308,284,315,309,0
309,288,314,308,0
308,286,314,306,0
305,277,313,306,0
303,269,313,305,0
302,269,313,305,0
303,275,312,305,0
303,285,311,304,0
304,293,309,303,0
305,300,308,303,0
306,306,308,304,0
308,309,309,306,0
311,308,312,308,0
314,306,316,310,0
315,306,317,311,0
316,307,318,310,0
315,310,318,309,0
312,314,317,307,0
310,320,316,306,0
310,329,315,304,0
311,335,315,303,0
311,340,313,300,0
310,342,309,296,0
308,342,305,293,0
306,341,301,291,0
303,338,299,288,0
300,335,298,287,0
298,333,299,288,0
297,329,301,291,0
299,325,303,295,0
301,319,305,298,0
304,313,306,301,0
306,308,306,304,0
308,305,305,306,0
308,303,303,307,0
307,302,302,307,0
306,300,300,306,0
304,296,300,304,0
304,291,301,303,0
305,289,303,304,0
307,290,305,306,0
310,294,307,309,0
313,298,309,311,0
314,298,310,312,0
313,293,310,313,0
310,289,309,312,0
306,286,307,312,0
303,286,306,312,0
300,288,304,313,0
298,292,302,314,0
298,296,302,315,0
301,296,302,315,0
304,293,303,316,0
308,294,304,317,0
312,298,307,317,0
314,306,309,316,0
313,313,311,314,0
311,320,313,312,0
310,324,314,310,0
308,323,316,310,0
307,322,316,310,0
306,322,316,310,0
306,322,314,310,0
304,321,312,310,0
305,320,310,310,0
307,320,307,310,0
310,320,306,308,0
312,319,305,305,0
312,316,304,301,0
311,317,304,300,0
309,318,304,300,0
307,313,304,302,0
307,306,304,304,0
307,298,304,305,0
307,285,303,306,0
306,264,301,306,0
305,241,299,305,0
303,225,296,304,0
302,221,295,305,0
304,231,296,308,0
308,250,298,311,0
310,270,300,314,0
312,286,302,316,0
311,297,304,317,0
309,309,307,317,0
306,324,311,317,0
304,340,313,316,0
302,351,315,314,0
301,358,316,313,0
302,360,316,312,0
302,356,316,310,0
302,354,317,309,0
303,354,318,309,0
304,354,319,308,0
305,351,318,308,0
305,341,317,307,0
306,326,316,307,0
306,314,315,308,0
307,307,316,309,0
308,304,316,310,0
308,303,316,310,0
307,302,315,310,0
306,304,314,310,0
307,310,314,310,0
307,318,314,309,0
305,320,312,307,0
302,316,310,305,0
299,306,307,303,0
298,291,306,303,0
298,279,307,304,0
298,275,308,305,0
300,279,310,307,0
302,290,310,308,0
304,304,310,308,0
306,316,308,307,0
308,318,307,306,0
310,313,306,305,0
312,309,305,305,0
313,310,304,305,0
313,312,303,305,0
313,313,302,306,0
312,309,302,307,0
311,303,302,309,0
310,294,302,309,0
308,286,304,309,0
304,282,304,309,0
301,283,304,307,0
299,288,304,306,0
300,297,303,305,0
304,307,303,305,0
309,313,303,304,0
314,314,302,304,0
319,313,301,304,0
320,311,300,303,0
318,314,299,303,0
315,320,299,303,0
312,323,299,302,0
308,316,298,299,0
304,304,296,296,0
302,291,296,294,0
300,283,296,294,0
300,282,297,296,0
298,285,297,299,0
297,289,297,303,0
297,291,299,309,0
297,290,302,314,0
297,289,305,318,0
298,293,309,320,0
299,303,312,321,0
300,315,312,319,0
300,323,309,317,0
301,326,306,314,0
303,325,303,313,0
305,325,302,312,0
308,327,303,312,0
310,327,304,313,0
309,323,305,313,0
307,314,304,313,0
303,305,302,313,0
301,295,302,313,0
300,284,301,314,0
301,277,301,315,0
303,281,301,315,0
306,293,299,313,0
307,308,298,311,0
309,325,296,310,0
311,336,296,309,0
313,339,296,308,0
314,336,296,308,0
314,328,297,309,0
314,315,296,310,0
313,303,296,309,0
312,295,294,308,0
312,292,294,307,0
311,290,294,305,0
311,289,294,304,0
310,289,295,303,0
310,291,297,303,0
311,295,298,305,0
312,298,301,306,0
312,301,302,309,0
311,303,304,310,0
311,309,305,313,0
312,318,307,314,0
313,325,308,315,0
312,329,308,316,0
310,330,308,317,0
308,327,309,318,0
305,325,311,319,0
303,325,313,320,0
304,325,315,321,0
304,323,316,320,0
304,315,316,319,0
303,304,315,316,0
302,294,314,313,0
301,288,313,310,0
302,284,314,308,0
303,283,314,307,0
302,285,314,305,0
302,288,313,303,0
301,290,312,302,0
301,292,310,301,0
301,292,310,300,0
301,294,311,300,0
303,302,314,301,0
306,314,317,304,0
309,321,319,306,0
309,319,319,307,0
307,311,317,308,0
305,303,317,309,0
304,299,316,309,0
304,296,316,309,0
304,290,314,308,0
306,283,314,309,0
307,279,312,309,0
306,282,310,308,0
304,289,308,307,0
302,295,305,306,0
302,298,303,305,0
304,300,303,307,0
307,304,303,308,0
312,309,304,309,0
315,315,305,310,0
316,321,306,309,0
315,328,306,308,0
313,332,308,307,0
310,332,309,305,0
306,329,309,303,0
304,327,308,302,0
301,323,306,301,0
300,315,305,301,0
300,307,303,301,0
299,302,301,301,0
298,301,300,301,0
297,302,301,301,0
298,306,302,302,0
297,306,303,302,0
296,304,304,302,0
296,301,303,302,0
296,298,304,301,0
297,299,305,300,0
298,302,305,298,0
299,304,305,297,0
301,306,305,297,0
304,309,306,297,0
304,312,307,296,0
303,316,307,296,0
301,319,307,296,0
300,322,305,297,0
299,322,302,298,0
299,320,300,300,0
300,314,298,303,0
303,310,300,307,0
308,310,303,311,0
314,311,308,314,0
317,314,310,315,0
319,317,311,315,0
318,323,310,314,0
317,327,309,313,0
315,327,308,311,0
311,322,308,309,0
308,314,308,308,0
305,303,309,308,0
302,295,309,308,0
300,288,310,309,0
299,283,311,310,0
299,281,311,310,0
298,285,311,310,0
298,294,309,308,0
298,302,307,307,0
298,309,306,307,0
300,315,306,308,0
304,322,308,311,0
309,328,311,312,0
315,330,314,313,0
319,327,317,314,0
322,318,317,314,0
321,302,315,312,0
315,283,313,311,0
309,270,311,310,0
305,266,309,309,0
303,274,307,307,0
301,288,306,305,0
300,301,305,304,0
299,311,305,305,0
299,317,304,306,0
298,321,303,307,0
298,326,302,307,0
297,328,302,307,0
296,326,301,306,0
297,320,301,306,0
299,312,301,307,0
301,300,302,309,0
303,290,302,311,0
304,288,302,312,0
303,291,301,312,0
301,297,299,311,0
299,300,298,309,0
299,301,297,307,0
299,306,297,305,0
299,321,298,305,0
300,338,300,306,0
301,349,301,306,0
302,348,302,305,0
303,338,302,305,0
305,327,302,307,0
307,317,301,309,0
307,310,301,310,0
306,309,301,312,0
305,312,300,312,0
302,318,299,312,0
300,321,299,311,0
299,318,299,309,0
299,309,300,308,0
301,303,301,307,0
304,301,302,306,0
305,299,303,304,0
305,291,304,304,0
302,282,304,304,0
300,277,304,304,0
299,278,303,304,0
299,283,302,303,0
297,289,300,303,0
296,295,299,301,0
295,299,300,301,0
296,304,301,302,0
300,314,304,304,0
305,326,306,305,0
310,335,309,304,0
312,337,310,303,0
312,332,311,301,0
310,320,311,300,0
307,306,308,300,0
305,293,306,300,0
303,286,306,301,0
302,287,305,304,0
301,295,304,305,0
302,307,302,306,0
302,317,301,307,0
303,320,299,307,0
304,319,299,308,0
305,318,300,308,0
308,316,302,309,0
310,313,305,309,0
311,313,309,309,0
312,316,313,310,0
311,318,315,310,0
309,320,316,310,0
306,317,317,310,0
304,310,317,311,0
301,300,316,311,0
300,291,315,311,0
301,288,315,312,0
303,292,314,312,0
306,301,313,311,0
310,308,310,309,0
313,314,307,307,0
316,316,306,306,0
318,316,305,305,0
318,314,306,306,0
316,313,306,307,0
313,314,306,309,0
311,311,306,309,0
308,304,305,308,0
306,297,304,308,0
306,290,305,308,0
306,283,306,308,0
308,279,309,309,0
311,281,313,312,0
312,289,317,313,0
311,298,319,314,0
310,308,319,313,0
309,315,318,311,0
308,312,314,309,0
307,304,311,306,0
307,299,309,305,0
307,297,306,303,0
306,299,304,302,0
307,306,304,301,0
309,318,305,301,0
309,329,305,302,0
308,339,304,302,0
306,344,303,303,0
303,342,302,303,0
300,332,301,304,0
299,319,301,304,0
299,304,301,305,0
299,289,301,306,0
298,277,301,306,0
297,268,300,306,0
297,266,301,307,0
301,271,303,310,0
305,282,305,311,0
309,298,306,311,0
309,310,305,309,0
309,318,303,308,0
309,324,301,307,0
309,329,301,306,0
308,330,302,306,0
307,329,304,307,0
306,328,307,308,0
305,328,308,309,0
305,331,309,310,0
305,334,309,310,0
304,332,306,309,0
302,329,304,307,0
301,326,302,305,0
301,325,302,303,0
301,324,302,302,0
300,323,303,302,0
299,321,303,303,0
300,321,302,305,0
300,323,301,306,0
302,328,301,306,0
305,333,302,305,0
307,334,304,305,0
308,327,306,305,0
307,314,307,305,0
306,299,309,304,0
306,286,310,304,0
306,278,311,303,0
307,278,312,302,0
308,287,313,301,0
308,300,315,300,0
307,305,314,300,0
304,299,313,301,0
301,289,312,303,0
299,283,312,306,0
300,284,312,309,0
301,291,313,311,0
304,299,313,313,0
307,305,314,314,0
309,307,312,312,0
308,305,309,310,0
308,302,305,308,0
308,299,303,307,0
307,298,303,307,0
306,297,304,308,0
306,297,307,308,0
304,297,309,308,0
302,297,309,307,0
299,299,309,306,0
298,305,309,305,0
298,315,309,305,0
298,322,309,304,0
299,325,308,304,0
300,327,307,304,0
302,326,306,305,0
304,322,307,307,0
306,316,307,309,0
308,308,308,311,0
309,300,309,313,0
310,295,308,314,0
309,292,308,314,0
309,292,307,312,0
307,292,306,310,0
304,292,305,308,0
302,294,304,307,0
301,297,305,307,0
301,299,306,306,0
301,302,306,306,0
302,303,306,308,0
305,303,305,310,0
307,302,305,311,0
308,298,305,311,0
307,296,304,312,0
308,296,303,312,0
310,298,303,313,0
312,302,303,314,0
315,309,303,315,0
319,318,302,316,0
321,326,302,316,0
322,331,301,315,0
320,330,301,314,0
318,324,302,313,0
314,313,303,312,0
310,299,304,311,0
306,289,306,310,0
304,288,310,311,0
304,292,313,311,0
304,294,314,311,0
303,288,315,312,0
303,281,314,313,0
303,278,313,313,0
303,282,312,313,0
302,293,310,312,0
299,305,306,308,0
296,311,302,304,0
293,312,298,301,0
293,311,296,301,0
295,313,298,303,0
297,315,300,305,0
300,315,302,306,0
304,317,303,307,0
310,320,304,307,0
315,323,305,308,0
317,325,305,307,0
316,325,303,307,0
313,322,302,307,0
311,321,301,308,0
308,321,302,309,0
306,319,302,309,0
305,317,302,310,0
304,314,300,310,0
303,312,299,310,0
303,308,299,310,0
302,302,300,311,0
303,296,301,312,0
305,289,303,313,0
307,287,304,315,0
307,289,306,316,0
308,291,308,316,0
309,298,311,316,0
309,305,314,316,0
308,304,315,315,0
306,303,316,314,0
304,303,316,313,0
304,305,314,311,0
303,308,312,307,0
304,310,312,304,0
305,314,312,302,0
307,319,312,301,0
307,323,311,299,0
307,322,309,300,0
308,318,308,303,0
309,314,308,308,0
311,308,309,313,0
312,301,309,317,0
311,294,308,320,0
308,289,308,322,0
306,285,309,324,0
306,282,310,326,0
307,280,312,328,0
309,278,314,327,0
310,275,315,325,0
309,277,315,322,0
309,288,313,319,0
309,304,310,315,0
311,315,307,311,0
313,317,304,309,0
313,315,301,307,0
311,314,299,306,0
309,314,298,306,0
308,317,298,307,0
307,322,298,309,0
306,326,298,310,0
304,327,298,311,0
302,326,297,311,0
301,324,297,312,0
301,323,298,313,0
302,322,300,314,0
304,322,303,315,0
307,322,306,315,0
308,319,308,315,0
309,313,309,315,0
310,306,310,314,0
310,297,311,314,0
310,286,310,314,0
311,275,310,315,0
313,270,310,316,0
316,274,310,317,0
319,283,310,318,0
320,295,310,318,0
318,307,307,317,0
315,320,305,315,0
313,331,303,313,0
312,333,302,312,0
311,331,301,311,0
311,329,301,311,0
311,329,302,312,0
310,330,301,312,0
308,326,302,312,0
306,317,303,312,0
304,301,305,313,0
304,281,307,314,0
304,265,309,315,0
306,255,310,316,0
308,250,311,316,0
308,247,311,316,0
307,245,308,314,0
305,247,307,312,0
303,251,306,311,0
300,257,305,309,0
297,267,304,308,0
296,280,303,308,0
297,299,304,308,0
299,320,304,308,0
304,336,304,308,0
308,342,302,309,0
311,341,300,308,0
311,334,299,308,0
309,322,298,309,0
306,309,297,309,0
304,296,298,309,0
303,287,299,310,0
304,284,300,310,0
305,284,301,310,0
306,292,301,311,0
307,303,301,311,0
308,308,300,311,0
308,307,299,310,0
307,303,299,309,0
306,299,299,309,0
305,296,300,309,0
305,292,302,309,0
304,290,304,310,0
304,293,306,311,0
304,298,309,311,0
306,305,310,311,0
308,318,312,311,0
312,335,312,310,0
314,348,313,309,0
314,345,311,308,0
312,330,310,308,0
310,312,310,307,0
308,298,308,307,0
306,292,306,306,0
305,291,304,306,0
306,298,301,305,0
307,307,299,305,0
309,316,298,305,0
308,322,297,305,0
307,325,297,306,0
304,325,297,307,0
302,321,299,308,0
300,316,300,310,0
300,312,302,312,0
302,309,304,315,0
305,307,304,316,0
307,306,304,315,0
309,305,303,314,0
309,304,301,311,0
308,303,300,309,0
307,304,302,308,0
307,302,306,310,0
306,295,311,313,0
306,285,314,314,0
305,275,316,316,0
305,269,314,317,0
304,269,311,316,0
304,273,308,314,0
305,281,305,312,0
304,287,303,309,0
303,290,301,307,0
303,291,300,306,0
305,293,302,305,0
306,297,304,305,0
309,308,305,305,0
311,321,304,305,0
311,333,302,305,0
311,342,300,305,0
312,347,299,305,0
312,347,299,306,0
313,343,300,306,0
313,335,301,307,0
310,326,303,308,0
307,318,305,309,0
305,314,307,310,0
303,313,309,311,0
304,311,311,312,0
305,310,312,312,0
305,310,314,313,0
305,310,313,313,0
305,310,313,311,0
304,310,311,309,0
303,309,310,308,0
303,306,309,307,0
303,293,308,308,0
303,275,307,309,0
302,257,308,311,0
302,242,309,314,0
303,232,313,317,0
303,230,317,320,0
302,238,319,321,0
302,252,321,321,0
303,273,320,320,0
307,296,319,319,0
310,315,317,317,0
314,322,314,314,0
315,322,311,311,0
314,318,308,308,0
311,314,305,306,0
309,318,304,305,0
308,328,303,304,0
307,336,302,303,0
306,337,301,303,0
305,335,301,303,0
304,332,301,304,0
303,329,301,304,0
302,325,300,304,0
302,321,299,305,0
303,319,298,305,0
304,316,298,305,0
307,315,298,307,0
309,313,299,307,0
311,309,301,308,0
311,306,302,306,0
310,305,304,306,0
309,307,305,306,0
309,309,306,306,0
309,310,307,306,0
311,309,308,306,0
312,305,309,305,0
311,297,308,305,0
310,287,307,305,0
307,275,308,306,0
305,264,308,307,0
303,257,309,309,0
302,257,310,311,0
304,270,312,313,0
306,296,313,315,0
309,322,313,315,0
307,332,309,311,0
303,323,306,307,0
300,309,307,305,0
300,299,309,305,0
301,301,314,307,0
303,313,318,310,0
306,328,319,312,0
307,336,318,313,0
307,339,313,312,0
306,339,310,310,0
306,336,307,309,0
307,333,305,307,0
308,330,303,306,0
307,327,303,305,0
306,326,303,305,0
306,329,304,305,0
305,328,305,305,0
303,322,305,306,0
300,313,306,306,0
299,302,305,306,0
299,294,305,306,0
298,289,304,305,0
298,286,303,305,0
297,285,302,305,0
297,286,301,304,0
297,286,300,303,0
298,285,300,303,0
299,283,301,302,0
300,285,302,301,0
302,293,303,301,0
303,305,303,302,0
305,316,303,302,0
308,324,303,303,0
310,328,302,304,0
312,328,302,305,0
311,325,301,305,0
309,318,300,305,0
307,311,300,305,0
306,305,299,306,0
304,301,299,305,0
304,299,300,305,0
304,301,300,304,0
304,303,301,304,0
304,302,302,304,0
305,299,304,305,0
306,294,306,305,0
306,290,308,306,0
305,290,312,305,0
305,295,314,305,0
305,305,315,305,0
304,311,315,305,0
304,313,315,306,0
306,312,315,308,0
308,311,316,311,0
309,308,316,313,0
309,306,316,315,0
309,302,315,315,0
309,300,316,316,0
309,302,316,316,0
309,305,316,316,0
306,303,314,313,0
301,294,311,311,0
298,285,308,308,0
296,279,305,308,0
296,279,304,309,0
298,284,305,311,0
301,289,304,313,0
304,292,305,314,0
308,297,305,314,0
311,303,307,314,0
313,306,307,312,0
311,305,306,309,0
308,302,305,307,0
304,300,304,305,0
303,301,303,305,0
303,307,302,305,0
306,315,301,305,0
310,319,299,305,0
313,317,298,304,0
315,312,297,304,0
314,309,297,303,0
312,308,298,303,0
308,311,301,303,0
306,317,303,304,0
305,321,305,304,0
305,322,306,304,0
306,320,307,303,0
307,318,307,303,0
308,316,308,303,0
308,315,309,305,0
307,316,310,307,0
305,318,311,309,0
303,318,309,310,0
302,318,307,311,0
302,317,305,312,0
303,316,304,312,0
305,313,303,312,0
306,313,301,311,0
308,315,300,309,0
309,318,299,307,0
308,320,297,304,0
306,322,297,303,0
305,325,296,301,0
304,323,296,300,0
303,315,296,300,0
302,308,298,301,0
304,302,300,302,0
307,300,302,303,0
308,297,304,303,0
307,292,305,303,0
306,283,306,303,0
304,276,308,303,0
302,272,310,305,0
301,273,311,307,0
303,282,312,308,0
306,295,311,310,0
310,305,309,309,0
312,309,306,308,0
313,312,303,306,0
313,315,301,304,0
312,318,299,303,0
312,321,299,303,0
312,324,300,303,0
312,325,300,303,0
314,324,302,304,0
314,314,304,306,0
313,301,306,307,0
312,291,307,308,0
311,290,308,309,0
310,297,308,309,0
308,301,308,309,0
306,303,307,307,0
303,306,307,307,0
303,310,307,307,0
301,309,305,306,0
299,306,304,305,0
297,303,303,305,0
296,300,303,305,0
296,298,304,305,0
297,296,307,307,0
300,295,311,309,0
304,295,316,311,0
308,293,319,313,0
312,291,320,314,0
313,289,320,314,0
312,290,319,312,0
310,296,318,310,0
308,308,315,308,0
306,318,313,307,0
304,324,310,307,0
302,326,308,308,0
302,328,306,310,0
302,331,305,311,0
304,335,304,312,0
308,340,304,312,0
310,340,303,310,0
311,331,302,309,0
309,318,301,309,0
306,308,301,310,0
304,302,302,312,0
303,299,305,314,0
306,301,308,315,0
309,307,309,316,0
311,313,309,314,0
312,313,308,312,0
312,309,308,310,0
311,299,307,308,0
310,289,306,307,0
309,283,305,307,0
308,282,304,306,0
307,285,303,305,0
306,291,302,305,0
306,300,302,306,0
306,310,302,307,0
306,317,303,309,0
305,320,303,310,0
306,322,305,311,0
309,328,308,312,0
311,337,310,313,0
313,347,312,314,0
315,353,314,313,0
315,350,313,312,0
312,340,309,309,0
306,326,304,307,0
301,315,300,306,0
297,307,299,306,0
296,299,299,306,0
296,290,299,307,0
298,281,300,307,0
301,271,301,307,0
304,268,302,308,0
305,269,303,307,0
303,272,304,305,0
301,278,304,305,0
300,285,303,304,0
301,293,303,305,0
302,296,304,307,0
305,293,306,309,0
307,287,308,311,0
309,281,309,312,0
310,280,312,313,0
313,287,313,313,0
314,305,314,312,0
315,324,315,311,0
315,336,314,309,0
313,340,312,307,0
309,337,310,306,0
306,329,308,304,0
304,321,307,303,0
301,312,306,303,0
299,303,305,305,0
298,296,305,305,0
298,291,307,307,0
300,291,310,310,0
305,297,314,313,0
310,307,317,314,0
311,314,319,315,0
308,315,319,315,0
303,309,317,314,0
299,301,315,313,0
296,296,313,312,0
296,299,310,312,0
297,305,307,310,0
298,310,305,309,0
299,314,302,307,0
300,316,301,307,0
302,318,301,307,0
304,319,303,307,0
305,320,304,307,0
306,320,306,307,0
306,318,307,307,0
306,314,308,308,0
308,314,309,310,0
310,314,310,311,0
310,313,311,311,0
308,311,313,311,0
306,309,314,312,0
304,308,316,313,0
304,308,318,314,0
305,308,319,315,0
306,309,320,315,0
308,308,321,314,0
309,304,321,312,0
309,298,319,310,0
307,293,316,307,0
306,294,314,306,0
306,300,313,305,0
305,304,313,305,0
304,303,313,305,0
302,299,312,306,0
299,294,310,307,0
297,294,310,309,0
296,298,310,311,0
296,303,310,313,0
297,308,311,314,0
297,309,310,314,0
295,303,309,313,0
294,298,307,313,0
293,299,306,311,0
294,304,305,310,0
296,311,305,309,0
299,314,305,308,0
301,314,305,308,0
305,310,304,308,0
307,307,302,308,0
308,308,299,307,0
309,313,298,307,0
311,323,297,308,0
312,329,296,308,0
313,324,297,308,0
314,313,298,308,0
314,300,299,309,0
315,290,301,309,0
315,281,303,309,0
315,274,304,309,0
314,273,305,308,0
313,281,306,307,0
313,294,307,308,0
313,310,310,309,0
315,330,313,311,0
316,348,315,312,0
316,356,316,312,0
316,356,316,312,0
315,350,316,311,0
313,341,315,311,0
309,330,313,311,0
305,321,312,311,0
302,315,311,311,0
302,310,309,312,0
302,303,307,313,0
301,292,303,313,0
300,281,299,312,0
299,273,298,312,0
299,270,299,313,0
301,272,301,313,0
302,278,301,311,0
302,286,300,308,0
302,296,299,307,0
302,307,297,305,0
302,315,294,304,0
302,318,292,304,0
304,317,289,305,0
305,314,287,305,0
307,311,286,306,0
308,309,287,305,0
308,310,289,306,0
308,313,293,307,0
307,317,298,308,0
306,320,303,309,0
305,322,310,311,0
303,321,314,313,0
302,319,318,313,0
301,316,320,314,0
303,312,321,315,0
305,308,322,316,0
307,302,323,318,0
307,295,323,318,0
307,288,324,319,0
307,285,324,321,0
308,289,324,321,0
310,301,324,321,0
313,315,323,320,0
317,328,322,318,0
319,336,321,315,0
318,339,319,312,0
315,339,316,307,0
311,339,312,302,0
309,340,310,298,0
309,341,306,296,0
308,345,303,295,0
307,348,301,295,0
305,338,299,298,0
302,316,299,301,0
299,294,299,303,0
297,278,300,305,0
296,270,299,305,0
296,268,298,305,0
297,272,298,305,0
298,278,298,305,0
299,284,300,305,0
301,288,302,305,0
303,292,304,306,0
304,297,307,306,0
306,303,308,306,0
307,309,309,307,0
307,313,308,307,0
307,312,306,307,0
307,306,305,306,0
308,298,304,306,0
310,294,304,306,0
312,292,304,307,0
315,294,304,307,0
316,293,305,307,0
315,291,305,306,0
312,288,305,305,0
308,284,304,303,0
306,277,303,302,0
304,269,303,302,0
302,260,304,303,0
302,253,306,305,0
303,249,310,307,0
304,254,315,308,0
308,269,318,308,0
311,290,317,306,0
313,305,315,303,0
313,311,313,302,0
313,310,310,300,0
313,308,309,300,0
313,307,309,300,0
314,314,311,302,0
315,327,310,304,0
315,338,307,304,0
313,343,303,302,0
311,344,300,301,0
309,344,298,300,0
308,346,298,300,0
308,344,298,301,0
308,342,297,301,0
309,340,296,300,0
309,337,293,299,0
308,333,290,299,0
306,329,288,298,0
305,323,287,297,0
304,319,289,297,0
305,316,293,297,0
306,317,298,297,0
308,318,303,298,0
310,317,306,299,0
310,320,309,300,0
311,323,311,302,0
310,323,311,303,0
310,322,312,304,0
310,323,312,306,0
309,326,312,307,0
309,329,314,309,0
309,329,315,310,0
309,324,315,311,0
310,316,316,312,0
312,306,318,312,0
315,297,318,312,0
317,291,319,313,0
319,288,318,314,0
319,288,317,315,0
317,285,315,314,0
314,277,312,312,0
309,264,311,311,0
306,250,311,310,0
304,243,313,310,0
304,246,314,310,0
305,256,315,310,0
307,269,315,310,0
308,280,315,309,0
308,289,315,310,0
308,296,314,309,0
307,298,314,310,0
308,299,314,311,0
309,304,314,312,0
309,312,314,312,0
306,318,311,310,0
302,321,307,309,0
300,319,304,307,0
300,316,301,304,0
302,314,299,302,0
303,318,299,301,0
305,324,299,301,0
306,328,299,301,0
306,328,298,302,0
306,323,297,302,0
306,312,296,302,0
307,300,296,305,0
310,297,299,307,0
313,303,303,311,0
316,314,306,313,0
318,326,308,315,0
317,335,309,315,0
316,340,310,315,0
316,347,311,315,0
316,352,312,315,0
315,353,312,315,0
313,349,310,314,0
310,340,308,313,0
306,326,305,312,0
303,312,304,312,0
301,300,302,312,0
300,293,302,311,0
300,290,301,311,0
301,292,300,311,0
302,293,300,309,0
302,293,299,308,0
303,291,298,307,0
303,288,297,306,0
302,287,296,306,0
301,288,296,307,0
302,290,297,309,0
303,289,300,311,0
306,284,302,314,0
310,280,304,316,0
311,280,305,317,0
310,283,304,316,0
307,288,302,313,0
305,293,301,310,0
304,295,301,308,0
303,292,303,307,0
303,286,305,306,0
304,282,308,307,0
306,283,312,309,0
309,291,316,311,0
311,301,318,312,0
312,309,317,312,0
311,313,314,311,0
311,315,311,311,0
312,316,309,310,0
313,314,307,310,0
312,314,307,309,0
312,317,308,308,0
311,321,308,307,0
311,323,307,306,0
310,323,305,305,0
309,324,305,305,0
309,328,305,305,0
309,331,306,304,0
308,326,306,303,0
308,319,305,303,0
308,314,305,303,0
311,311,304,304,0
313,308,304,304,0
313,304,304,305,0
314,303,304,306,0
314,300,304,307,0
314,296,305,308,0
314,296,308,310,0
313,299,311,312,0
310,305,314,314,0
307,310,316,315,0
303,310,315,316,0
300,303,313,316,0
296,290,310,314,0
294,277,307,314,0
293,270,306,313,0
296,267,307,313,0
300,267,309,313,0
304,268,311,313,0
307,271,312,312,0
308,277,311,310,0
309,287,311,308,0
310,298,311,305,0
309,307,311,302,0
308,313,311,300,0
308,317,311,298,0
309,318,312,299,0
309,319,312,300,0
308,320,311,301,0
307,323,310,304,0
308,326,310,309,0
308,325,309,312,0
306,321,308,314,0
303,315,307,316,0
300,308,306,316,0
298,306,305,316,0
298,311,306,318,0
300,318,307,319,0
302,321,309,319,0
303,318,310,320,0
303,313,311,320,0
304,308,313,320,0
305,306,314,319,0
304,304,315,318,0
302,302,313,317,0
301,302,312,315,0
302,306,310,313,0
302,312,309,310,0
304,319,308,309,0
304,321,308,308,0
304,320,307,307,0
302,316,305,305,0
301,311,303,304,0
301,310,301,304,0
303,311,301,304,0
306,315,301,305,0
308,319,302,305,0
309,323,301,304,0
308,325,299,302,0
306,324,296,299,0
304,322,294,296,0
302,320,295,295,0
302,319,297,294,0
301,318,299,294,0
299,313,303,296,0
299,307,305,297,0
299,301,306,299,0
301,295,307,301,0
303,288,308,303,0
305,281,308,304,0
306,276,308,305,0
307,273,308,306,0
308,273,310,307,0
308,278,311,308,0
307,285,311,308,0
304,291,311,308,0
303,299,310,307,0
302,308,310,308,0
303,318,310,308,0
304,323,310,307,0
305,323,309,306,0
305,320,309,306,0
307,315,310,307,0
311,313,311,308,0
314,310,312,309,0
315,306,312,309,0
312,300,311,309,0
307,293,310,307,0
303,289,309,307,0
299,288,309,307,0
296,289,309,308,0
294,293,309,309,0
294,300,310,310,0
297,313,311,313,0
300,327,312,314,0
303,337,310,314,0
305,345,307,313,0
307,351,305,312,0
310,353,303,311,0
311,351,300,310,0
311,346,298,308,0
311,337,296,306,0
310,326,294,305,0
308,313,293,303,0
307,299,293,303,0
307,289,294,303,0
306,285,295,303,0
306,288,297,304,0
306,295,298,304,0
305,303,300,305,0
304,312,302,306,0
302,315,304,307,0
301,313,307,309,0
302,309,310,310,0
303,304,314,311,0
306,297,316,311,0
308,291,318,309,0
312,290,321,308,0
315,292,323,306,0
317,293,324,304,0
316,295,323,303,0
313,296,321,304,0
309,295,319,305,0
307,296,316,307,0
306,299,314,310,0
307,302,313,313,0
307,304,313,314,0
307,304,312,314,0
305,304,309,312,0
301,304,305,309,0
298,303,302,307,0
297,302,300,304,0
298,301,300,303,0
301,302,301,303,0
304,305,304,303,0
306,306,307,303,0
307,305,308,302,0
306,307,306,301,0
305,312,304,301,0
304,318,302,301,0
304,318,301,302,0
305,312,302,304,0
306,307,303,306,0
307,305,307,309,0
308,309,311,311,0
308,315,313,312,0
307,323,314,311,0
305,331,311,310,0
302,338,307,308,0
301,341,303,307,0
302,338,300,306,0
302,329,299,306,0
302,315,299,307,0
302,303,301,308,0
301,299,303,309,0
300,303,306,309,0
299,309,308,309,0
299,311,309,309,0
301,313,310,309,0
304,316,311,308,0
307,321,312,308,0
309,327,312,306,0
308,330,311,304,0
306,330,310,302,0
303,328,309,301,0
301,323,307,301,0
299,316,307,302,0
298,309,306,302,0
298,301,304,302,0
298,294,303,303,0
297,287,301,303,0
298,278,300,304,0
300,269,299,305,0
301,265,298,306,0
304,270,300,307,0
305,284,301,307,0
305,297,301,305,0
304,301,302,305,0
303,299,305,306,0
302,295,310,308,0
302,291,316,310,0
302,284,320,310,0
301,278,320,309,0
299,272,320,308,0
297,266,319,308,0
297,266,317,309,0
302,271,316,312,0
307,281,313,313,0
312,292,309,313,0
314,305,304,312,0
313,316,298,310,0
310,323,296,308,0
308,326,295,306,0
308,329,296,304,0
310,333,297,304,0
312,341,299,304,0
315,351,302,304,0
317,362,305,304,0
317,369,307,304,0
315,370,310,304,0
312,365,312,304,0
310,355,314,304,0
308,340,314,304,0
305,325,312,303,0
304,317,311,303,0
304,312,310,303,0
304,305,309,302,0
304,302,308,301,0
305,300,308,301,0
305,296,309,301,0
307,293,310,302,0
310,292,311,302,0
313,296,313,303,0
314,305,312,303,0
312,314,312,303,0
308,322,312,302,0
306,326,312,302,0
305,325,311,302,0
304,320,310,302,0
303,312,308,302,0
302,305,307,303,0
303,301,308,304,0
303,298,309,305,0
302,296,309,306,0
300,292,308,306,0
299,293,306,306,0
302,295,304,306,0
305,297,302,306,0
309,296,300,305,0
310,294,299,305,0
308,289,298,303,0
306,285,299,304,0
304,282,301,305,0
304,281,304,307,0
305,281,306,309,0
306,282,307,310,0
307,283,306,311,0
305,280,303,310,0
301,272,301,310,0
298,263,301,310,0
298,258,304,312,0
299,257,307,314,0
299,263,310,314,0
300,277,311,314,0
301,296,310,313,0
302,313,309,311,0
302,327,307,309,0
303,338,304,307,0
303,344,301,306,0
304,348,301,305,0
304,348,300,304,0
303,345,299,304,0
301,340,298,303,0
301,333,296,302,0
300,322,295,301,0
301,313,295,300,0
303,306,295,299,0
304,298,296,299,0
305,291,295,300,0
305,287,294,301,0
305,288,294,303,0
305,291,295,304,0
305,293,297,307,0
306,296,299,309,0
308,300,302,311,0
309,303,303,312,0
310,309,305,313,0
310,316,307,314,0
311,318,309,314,0
309,315,310,313,0
307,308,310,312,0
305,299,310,311,0
303,289,310,311,0
302,280,309,310,0
301,270,308,308,0
301,262,307,307,0
302,257,307,307,0
303,260,307,308,0
304,271,307,308,0
305,285,308,309,0
306,298,309,310,0
307,307,310,311,0
308,313,311,312,0
310,320,313,312,0
311,328,314,311,0
311,336,314,312,0
311,342,313,312,0
310,342,312,311,0
307,335,309,311,0
302,321,306,310,0
298,305,302,308,0
295,291,300,308,0
295,280,301,309,0
296,270,303,310,0
297,262,304,311,0
298,259,305,311,0
300,267,306,310,0
304,286,308,310,0
309,311,310,310,0
313,335,311,309,0
314,353,310,307,0
313,359,309,305,0
313,354,309,303,0
313,349,310,302,0
315,346,311,302,0
315,344,311,300,0
313,338,311,299,0
311,330,310,298,0
310,323,309,298,0
308,318,308,299,0
307,311,307,301,0
306,303,307,303,0
306,292,307,305,0
306,280,307,306,0
306,272,307,307,0
306,271,307,307,0
306,277,307,306,0
306,284,306,305,0
306,290,306,304,0
307,295,307,303,0
309,299,310,304,0
311,302,312,306,0
314,303,314,307,0
318,302,316,309,0
321,298,317,310,0
320,292,316,310,0
316,287,313,309,0
310,286,309,307,0
305,288,306,307,0
303,289,304,307,0
302,290,304,307,0
303,292,304,307,0
306,297,305,307,0
309,300,306,308,0
311,303,307,309,0
311,304,307,308,0
309,306,307,307,0
306,310,308,305,0
302,311,309,304,0
299,310,310,303,0
297,307,311,303,0
298,303,310,304,0
299,299,308,304,0
300,296,309,304,0
303,299,309,303,0
304,308,309,302,0
305,320,307,301,0
306,328,305,300,0
306,331,302,301,0
306,330,301,303,0
306,326,301,306,0
306,320,301,309,0
304,314,302,312,0
304,307,303,314,0
303,302,304,317,0
303,301,305,318,0
305,300,306,319,0
307,302,307,320,0
310,309,308,319,0
311,320,307,318,0
312,328,305,316,0
310,329,304,314,0
308,323,303,313,0
306,315,303,312,0
303,307,304,312,0
302,299,306,312,0
302,293,309,313,0
303,288,310,314,0
302,283,310,313,0
300,278,310,313,0
299,272,310,313,0
296,266,311,314,0
294,262,312,314,0
292,262,312,313,0
293,264,312,312,0
295,267,312,312,0
298,275,312,311,0
302,285,313,311,0
306,294,312,311,0
309,304,312,309,0
311,316,311,308,0
313,324,311,307,0
314,325,311,308,0
313,319,312,308,0
311,312,313,308,0
311,309,316,309,0
311,313,319,310,0
311,319,320,310,0
308,323,320,307,0
305,324,317,306,0
302,326,315,305,0
300,328,314,304,0
300,326,313,305,0
300,324,313,305,0
301,321,313,305,0
302,316,312,306,0
305,310,310,307,0
308,303,307,308,0
312,297,305,307,0
315,293,304,308,0
318,288,305,308,0
317,280,306,307,0
312,274,306,307,0
306,273,306,306,0
301,278,305,305,0
297,288,304,306,0
298,301,303,306,0
299,313,302,306,0
301,323,302,305,0
300,329,302,305,0
298,335,303,304,0
297,340,305,303,0
298,346,307,303,0
298,350,309,302,0
299,352,309,303,0
301,349,310,303,0
304,338,310,304,0
306,323,309,305,0
308,310,308,305,0
309,300,307,305,0
311,289,307,304,0
313,279,308,304,0
314,269,310,303,0
314,262,311,303,0
312,262,313,303,0
309,270,314,303,0
306,282,314,303,0
301,294,313,304,0
298,301,311,305,0
295,304,310,305,0
294,308,308,304,0
294,313,306,303,0
294,317,305,302,0
295,321,304,302,0
296,323,304,303,0
298,322,305,303,0
301,318,306,305,0
305,309,307,306,0
309,296,307,306,0
312,284,307,307,0
313,275,307,308,0
314,272,308,308,0
314,275,309,308,0
315,282,311,309,0
315,293,311,310,0
313,306,311,311,0
311,314,311,312,0
308,319,310,313,0
305,320,309,314,0
302,320,305,313,0
300,317,302,313,0
299,313,299,313,0
301,308,298,314,0
304,304,299,315,0
306,300,301,314,0
306,298,302,313,0
306,299,304,312,0
305,303,305,310,0
304,310,307,308,0
303,317,308,306,0
302,322,309,304,0
302,326,309,303,0
302,331,309,303,0
302,338,310,304,0
303,341,310,307,0
303,336,309,309,0
301,326,307,310,0
298,316,306,311,0
296,309,306,312,0
297,305,306,313,0
301,307,307,315,0
306,312,306,316,0
311,313,305,315,0
314,309,303,315,0
315,302,304,314,0
314,293,306,313,0
312,286,308,312,0
309,283,309,310,0
307,287,311,309,0
306,293,313,307,0
305,300,313,304,0
304,303,313,303,0
302,304,311,301,0
301,302,310,301,0
301,300,309,302,0
301,299,309,302,0
302,301,308,304,0
303,305,308,304,0
304,312,308,305,0
305,317,308,306,0
307,317,308,307,0
308,311,307,308,0
310,299,308,309,0
311,287,309,310,0
312,275,310,311,0
311,264,311,311,0
311,255,312,311,0
311,250,315,313,0
311,250,316,314,0
309,256,316,313,0
307,262,313,312,0
303,266,309,310,0
299,268,305,309,0
296,270,302,308,0
295,273,298,306,0
295,280,295,306,0
297,293,294,305,0
301,311,294,304,0
304,334,294,302,0
306,355,295,300,0
308,371,296,299,0
309,379,297,299,0
308,384,300,299,0
307,387,303,301,0
307,386,306,302,0
306,378,309,303,0
305,365,311,304,0
304,351,311,305,0
304,335,310,305,0
303,321,309,305,0
303,308,309,305,0
303,298,309,305,0
304,292,310,306,0
304,290,312,306,0
304,292,313,308,0
306,298,315,309,0
307,304,315,310,0
307,308,314,310,0
305,311,312,310,0
303,314,310,310,0
301,313,308,309,0
300,309,305,308,0
299,301,303,308,0
300,294,302,309,0
301,287,302,310,0
302,281,302,311,0
305,279,302,311,0
307,282,303,311,0
309,289,304,310,0
310,297,305,308,0
310,304,307,307,0
309,308,309,307,0
307,310,311,308,0
305,310,311,309,0
304,311,310,310,0
303,311,308,310,0
301,309,306,310,0
300,307,304,310,0
299,304,302,310,0
298,301,302,309,0
298,298,303,308,0
300,299,303,307,0
303,303,303,307,0
305,308,302,307,0
306,311,299,306,0
305,312,297,306,0
303,313,297,306,0
300,314,300,307,0
299,316,302,308,0
299,319,305,308,0
299,319,306,308,0
300,316,306,308,0
301,310,306,309,0
302,301,305,310,0
302,294,304,311,0
303,293,304,312,0
303,296,303,313,0
304,300,303,313,0
303,298,303,312,0
302,292,302,313,0
302,286,302,312,0
303,285,303,313,0
303,288,304,312,0
304,297,303,310,0
305,309,302,310,0
306,318,301,309,0
308,319,302,309,0
309,317,302,310,0
310,313,303,310,0
312,307,304,310,0
312,302,305,310,0
312,300,305,309,0
312,307,305,308,0
311,319,305,307,0
309,327,303,306,0
307,329,301,305,0
305,327,300,305,0
305,326,301,305,0
307,326,304,306,0
309,326,304,307,0
308,325,304,307,0
307,322,304,307,0
307,319,304,308,0
308,319,306,310,0
309,319,307,311,0
309,317,308,311,0
305,312,306,310,0
301,308,305,308,0
298,308,304,307,0
297,308,303,306,0
296,305,303,305,0
294,301,304,304,0
294,296,306,305,0
295,289,307,305,0
297,281,306,306,0
299,277,304,305,0
299,274,302,305,0
299,276,300,305,0
299,282,298,307,0
300,291,298,308,0
301,302,300,310,0
304,316,302,312,0
307,330,302,312,0
308,339,302,312,0
307,341,302,312,0
306,333,303,312,0
303,324,302,311,0
298,318,301,310,0
296,317,301,308,0
295,317,301,307,0
296,318,302,306,0
299,318,305,305,0
303,321,308,306,0
307,325,311,308,0
308,327,314,310,0
308,326,314,311,0
307,324,314,311,0
306,323,314,311,0
304,321,313,311,0
303,318,312,311,0
303,314,311,312,0
303,311,310,312,0
304,311,309,312,0
307,316,309,311,0
308,318,308,310,0
309,316,305,308,0
310,310,303,305,0
310,302,301,303,0
311,298,301,303,0
313,301,304,304,0
315,314,307,307,0
316,329,310,309,0
316,336,313,312,0
315,337,314,313,0
315,334,313,314,0
313,329,312,314,0
311,323,310,312,0
308,314,308,311,0
305,300,305,309,0
304,285,304,308,0
304,275,302,308,0
304,273,300,307,0
304,276,299,306,0
304,283,298,306,0
305,294,298,307,0
305,303,299,306,0
304,310,298,305,0
301,312,296,303,0
298,311,295,302,0
296,308,294,300,0
296,304,293,300,0
297,301,294,300,0
298,297,295,300,0
300,294,296,300,0
300,290,296,300,0
300,285,297,301,0
301,280,297,302,0
300,276,298,304,0
300,277,301,307,0
300,286,305,310,0
301,299,309,313,0
303,309,312,314,0
304,314,315,315,0
306,312,318,316,0
307,309,319,316,0
307,305,319,315,0
306,301,317,314,0
306,301,316,312,0
306,305,313,310,0
307,310,309,307,0
307,313,305,305,0
308,315,303,304,0
307,315,302,303,0
306,316,302,303,0
305,318,302,303,0
306,319,302,303,0
308,321,302,303,0
308,322,302,303,0
309,324,301,303,0
310,328,301,303,0
313,334,302,304,0
315,338,306,307,0
317,336,310,310,0
316,332,313,311,0
313,328,316,312,0
306,320,315,310,0
299,310,314,309,0
294,305,313,307,0
293,305,313,307,0
296,306,314,307,0
299,311,314,307,0
302,317,312,306,0
303,321,310,307,0
303,322,308,307,0
304,321,305,307,0
304,316,302,306,0
305,309,299,306,0
306,299,297,306,0
307,292,298,305,0
309,290,299,305,0
311,293,302,306,0
312,297,305,308,0
311,298,307,310,0
310,296,308,312,0
309,295,308,313,0
310,299,308,314,0
312,309,308,314,0
312,314,307,313,0
310,304,306,312,0
306,282,305,311,0
303,258,304,310,0
301,241,303,310,0
299,236,303,309,0
301,248,302,308,0
305,272,301,307,0
309,299,300,305,0
313,324,299,304,0
316,340,298,302,0
314,346,299,301,0
310,344,301,301,0
306,337,303,302,0
302,329,304,302,0
299,323,306,304,0
298,319,308,306,0
298,319,310,308,0
299,321,311,309,0
302,323,310,310,0
305,321,309,310,0
309,318,309,310,0
312,316,309,310,0
313,316,310,309,0
313,319,311,308,0
313,325,312,305,0
313,326,311,303,0
313,322,309,300,0
314,316,306,299,0
315,313,305,298,0
316,311,306,299,0
316,310,308,302,0
315,307,308,304,0
313,305,309,306,0
311,302,309,307,0
309,300,309,307,0
310,299,310,308,0
310,299,308,307,0
308,295,304,306,0
305,293,300,303,0
302,294,297,301,0
300,296,296,300,0
299,299,297,300,0
299,303,298,300,0
301,306,300,301,0
304,309,302,303,0
308,312,304,305,0
312,314,305,307,0
317,312,305,309,0
318,308,304,310,0
316,303,304,308,0
312,301,305,307,0
308,300,308,306,0
304,301,309,305,0
301,304,309,305,0
298,310,309,305,0
298,316,309,307,0
298,324,311,309,0
301,330,313,312,0
302,327,314,313,0
302,313,315,314,0
300,293,314,314,0
298,274,311,313,0
296,258,308,312,0
296,249,306,312,0
297,247,306,312,0
300,252,307,312,0
303,264,308,312,0
305,280,307,312,0
305,291,307,311,0
305,293,306,311,0
303,288,306,311,0
301,280,308,312,0
301,276,310,313,0
302,278,313,314,0
304,290,315,315,0
306,310,316,315,0
308,330,315,314,0
310,340,313,312,0
310,343,311,311,0
311,341,309,309,0
311,337,307,307,0
311,331,305,305,0
310,325,303,304,0
309,319,302,303,0
309,314,303,304,0
310,309,303,305,0
311,305,303,306,0
311,303,303,307,0
310,304,303,307,0
308,310,304,308,0
306,318,305,308,0
305,326,305,307,0
303,329,305,306,0
302,325,305,305,0
301,318,304,305,0
301,312,305,306,0
303,313,307,307,0
306,319,309,309,0
309,327,310,309,0
310,337,310,308,0
311,345,308,306,0
311,348,307,304,0
312,347,305,302,0
313,345,305,302,0
314,340,305,302,0
312,336,304,302,0
310,333,302,301,0
306,328,299,300,0
303,319,296,299,0
301,311,294,298,0
301,304,292,298,0
303,303,293,299,0
304,304,293,299,0
304,306,294,299,0
304,307,294,299,0
304,306,295,300,0
306,303,295,301,0
308,297,296,302,0
310,290,298,303,0
313,286,301,305,0
316,285,305,308,0
319,287,311,310,0
319,284,314,312,0
315,275,315,312,0
308,262,315,311,0
301,251,316,311,0
299,250,318,311,0
301,260,320,312,0
305,275,321,313,0
309,293,321,313,0
314,311,320,312,0
315,322,317,310,0
314,324,313,309,0
311,321,307,308,0
308,318,303,308,0
307,319,301,309,0
308,322,300,310,0
310,324,300,311,0
310,324,300,311,0
311,323,302,311,0
311,319,305,310,0
312,316,307,310,0
313,315,309,309,0
312,313,310,308,0
311,310,309,307,0
310,308,310,307,0
310,309,310,308,0
311,309,311,309,0
311,306,311,310,0
310,301,311,310,0
308,296,310,310,0
306,295,310,310,0
306,300,311,310,0
306,308,312,310,0
308,322,312,310,0
309,333,313,310,0
310,336,313,310,0
309,331,313,309,0
306,325,311,307,0
304,319,309,305,0
303,317,307,304,0
302,317,306,303,0
302,317,306,303,0
303,316,307,303,0
304,312,309,304,0
307,305,311,305,0
310,298,311,306,0
312,293,311,306,0
313,292,311,306,0
313,296,311,306,0
313,303,312,306,0
312,311,312,306,0
312,318,313,306,0
311,321,312,306,0
309,319,311,306,0
307,314,309,306,0
304,307,307,306,0
302,299,307,306,0
300,291,308,307,0
300,285,310,309,0
301,281,312,311,0
303,280,314,313,0
304,278,315,313,0
303,277,314,312,0
303,282,311,309,0
304,293,309,307,0
306,303,305,305,0
306,307,303,304,0
305,303,301,305,0
306,295,300,306,0
309,289,300,309,0
315,296,301,313,0
322,313,304,316,0
325,328,306,316,0
321,331,305,313,0
314,325,302,309,0
307,318,300,306,0
303,311,300,305,0
303,308,302,306,0
305,310,303,307,0
307,311,303,307,0
308,309,302,307,0
309,305,302,308,0
310,304,304,309,0
311,306,306,311,0
312,314,307,312,0
311,324,308,313,0
310,329,308,314,0
309,326,307,314,0
308,317,305,313,0
307,310,303,312,0
306,306,301,311,0
306,305,299,310,0
306,307,296,309,0
307,313,295,308,0
308,317,294,307,0
309,320,294,306,0
311,322,296,306,0
311,322,297,306,0
309,318,299,306,0
307,312,300,306,0
306,304,302,307,0
306,298,304,307,0
306,295,305,307,0
306,295,307,306,0
306,296,309,306,0
306,298,310,306,0
306,300,311,306,0
308,304,312,306,0
310,310,312,307,0
313,317,311,307,0
314,319,310,307,0
313,315,309,307,0
310,309,309,306,0
306,303,310,306,0
304,299,311,307,0
302,297,313,308,0
302,298,314,309,0
302,304,314,309,0
304,309,314,310,0
304,305,314,309,0
302,293,314,309,0
301,280,315,310,0
301,272,318,312,0
304,272,319,313,0
307,280,319,314,0
311,283,317,314,0
313,282,316,315,0
315,283,316,316,0
315,286,315,315,0
313,291,313,313,0
312,300,313,312,0
310,309,313,311,0
306,317,312,309,0
303,325,311,307,0
301,333,310,305,0
300,341,309,305,0
300,346,308,305,0
301,344,308,306,0
302,336,309,308,0
303,324,310,310,0
303,309,310,310,0
303,297,310,310,0
302,293,311,309,0
302,296,311,309,0
302,305,311,309,0
304,317,311,309,0
306,324,311,310,0
308,326,310,310,0
308,325,308,311,0
308,325,306,310,0
307,327,304,310,0
306,330,302,310,0
305,333,301,309,0
304,335,300,308,0
303,335,300,307,0
303,334,299,307,0
303,329,299,306,0
303,323,299,306,0
303,318,298,305,0
303,312,297,304,0
304,307,298,304,0
306,304,298,303,0
309,300,301,304,0
311,297,305,306,0
312,295,308,306,0
313,297,310,307,0
314,302,311,306,0
314,304,310,306,0
311,304,307,305,0
307,302,306,304,0
303,300,305,304,0
300,295,305,303,0
298,290,304,302,0
297,286,304,302,0
297,286,305,302,0
297,290,306,303,0
298,298,308,303,0
302,314,311,305,0
305,329,313,306,0
305,332,313,306,0
303,328,311,305,0
300,318,308,305,0
297,307,305,305,0
297,296,303,306,0
298,285,302,307,0
298,277,301,306,0
298,270,300,305,0
296,266,300,305,0
297,266,301,305,0
299,271,303,307,0
302,278,307,308,0
305,284,310,309,0
307,290,312,309,0
306,296,312,308,0
304,302,311,306,0
303,313,309,305,0
303,325,307,304,0
303,330,305,303,0
302,325,302,301,0
302,320,300,299,0
304,318,301,298,0
306,317,302,298,0
307,315,304,298,0
307,311,306,299,0
305,302,308,301,0
305,294,310,303,0
306,285,312,306,0
307,275,313,308,0
307,267,313,311,0
309,266,314,313,0
311,272,315,316,0
313,282,315,317,0
314,294,313,317,0
313,303,310,316,0
311,310,307,314,0
309,313,304,312,0
309,314,303,310,0
309,315,303,308,0
309,315,304,307,0
308,314,305,306,0
306,310,307,306,0
304,304,307,306,0
302,300,308,306,0
302,302,309,307,0
302,308,308,308,0
302,316,306,309,0
302,321,303,308,0
300,323,300,307,0
300,320,298,307,0
300,315,296,307,0
300,309,295,307,0
301,304,297,309,0
302,300,300,310,0
304,297,301,310,0
306,296,304,310,0
309,296,306,310,0
311,295,307,310,0
313,291,307,309,0
313,287,307,309,0
313,288,306,309,0
312,296,306,309,0
310,306,305,308,0
309,314,305,307,0
308,322,304,306,0
308,333,306,306,0
310,342,308,306,0
310,344,310,306,0
309,336,310,304,0
306,322,308,303,0
303,304,306,302,0
301,284,304,302,0
300,266,302,304,0
300,256,301,305,0
299,258,301,307,0
300,270,302,308,0
301,284,302,309,0
302,294,302,309,0
303,302,302,309,0
303,309,304,310,0
304,308,305,309,0
305,304,308,309,0
308,301,310,310,0
311,303,313,310,0
313,308,315,310,0
313,314,314,310,0
309,312,313,309,0
306,303,312,309,0
304,294,311,308,0
302,286,312,307,0
300,280,311,307,0
298,278,310,306,0
297,286,310,307,0
297,298,310,307,0
298,309,310,308,0
299,316,309,308,0
300,321,307,307,0
302,327,306,307,0
303,332,306,307,0
304,334,306,307,0
306,334,306,307,0
307,331,306,308,0
309,326,305,309,0
310,321,304,310,0
309,317,301,310,0
309,315,300,310,0
310,315,299,309,0
311,312,298,309,0
311,308,298,309,0
309,304,299,308,0
308,303,301,307,0
308,306,304,306,0
308,310,306,305,0
309,315,308,305,0
312,320,310,305,0
314,326,313,305,0
318,329,315,306,0
320,330,317,305,0
320,328,316,305,0
318,328,315,305,0
315,329,314,305,0
311,328,314,305,0
308,327,314,305,0
306,325,314,306,0
304,323,314,306,0
302,320,312,305,0
301,316,311,305,0
301,311,310,304,0
301,305,309,304,0
301,299,307,303,0
300,295,305,303,0
299,291,303,303,0
299,291,301,304,0
298,293,300,305,0
298,298,299,306,0
299,303,299,308,0
300,308,300,309,0
301,310,303,311,0
303,304,305,312,0
306,296,307,314,0
307,287,309,315,0
308,280,311,316,0
310,276,312,317,0
312,276,312,317,0
313,275,311,317,0
313,273,309,316,0
311,273,307,315,0
312,277,307,315,0
312,284,308,313,0
311,292,308,311,0
310,299,308,310,0
309,303,309,310,0
310,303,311,311,0
314,304,314,312,0
319,309,316,313,0
322,317,317,313,0
323,325,314,312,0
320,329,308,309,0
314,327,303,307,0
309,322,298,305,0
305,318,296,305,0
302,315,296,305,0
301,315,298,306,0
301,320,300,307,0
301,327,303,307,0
303,330,307,307,0
304,325,309,307,0
305,315,310,306,0
304,306,309,305,0
303,304,309,305,0
304,306,311,307,0
304,312,313,308,0
305,318,312,307,0
305,321,310,306,0
305,321,310,306,0
305,316,311,306,0
304,309,312,306,0
304,304,313,306,0
303,304,315,306,0
304,306,316,307,0
305,309,315,307,0
305,311,313,306,0
306,312,310,305,0
306,310,306,302,0
306,309,304,301,0
308,315,303,301,0
310,325,304,303,0
311,336,305,305,0
313,345,305,307,0
313,354,305,309,0
314,360,305,311,0
315,359,304,313,0
313,346,302,314,0
308,326,298,313,0
302,308,296,312,0
298,296,296,311,0
297,291,298,312,0
299,287,303,314,0
301,280,308,315,0
304,270,311,317,0
305,259,313,319,0
307,251,316,320,0
310,253,318,320,0
313,263,320,318,0
313,277,320,314,0
312,292,318,311,0
309,306,314,307,0
306,316,311,305,0
305,325,309,304,0
305,333,309,305,0
306,338,308,306,0
305,338,307,307,0
305,337,306,307,0
304,333,305,308,0
304,329,306,308,0
304,326,307,309,0
302,323,307,308,0
300,320,307,308,0
300,317,307,309,0
301,314,307,311,0
302,313,307,312,0
305,313,307,313,0
307,316,306,314,0
309,319,306,314,0
311,319,306,314,0
312,315,307,313,0
311,304,306,311,0
310,291,304,310,0
307,276,301,308,0
304,264,298,307,0
303,260,296,308,0
303,264,297,311,0
305,275,299,312,0
306,287,300,312,0
307,296,300,310,0
308,302,301,310,0
311,307,302,311,0
314,314,302,312,0
318,323,304,314,0
321,339,307,315,0
324,356,310,316,0
324,361,310,315,0
321,352,308,313,0
315,333,304,309,0
308,312,300,305,0
302,297,297,304,0
299,288,297,304,0
298,286,298,305,0
298,289,300,306,0
299,296,300,307,0
299,304,300,307,0
300,315,300,307,0
301,325,300,307,0
302,329,299,306,0
302,326,299,306,0
302,317,300,306,0
302,307,301,306,0
303,300,302,306,0
304,295,303,306,0
306,294,304,305,0
308,291,304,305,0
310,288,303,305,0
313,288,303,306,0
316,289,303,307,0
317,291,302,308,0
318,295,302,308,0
317,302,300,307,0
317,312,300,305,0
315,323,301,304,0
313,332,303,304,0
310,337,307,304,0
308,337,310,305,0
307,334,312,306,0
307,327,312,307,0
307,321,312,309,0
306,316,310,310,0
304,313,308,311,0
301,309,305,310,0
298,301,303,311,0
297,292,302,312,0
298,284,303,313,0
300,280,305,314,0
303,281,307,316,0
305,283,308,316,0
306,283,307,316,0
307,288,306,315,0
308,299,306,314,0
310,312,305,311,0
311,325,304,310,0
312,333,304,309,0
314,331,305,310,0
315,324,305,311,0
314,321,304,312,0
313,320,303,313,0
312,323,302,313,0
310,324,301,314,0
308,322,300,314,0
305,319,298,313,0
303,316,298,312,0
303,314,299,313,0
303,312,300,313,0
304,311,301,312,0
303,307,301,311,0
301,302,300,309,0
298,296,299,308,0
296,293,301,308,0
296,293,304,309,0
298,297,308,312,0
301,303,310,313,0
304,309,311,313,0
307,312,311,313,0
309,309,310,312,0
310,302,309,310,0
312,296,309,309,0
315,293,310,309,0
319,295,311,310,0
321,296,313,311,0
321,300,315,311,0
318,307,316,310,0
315,313,317,308,0
311,315,317,306,0
308,314,315,304,0
305,312,314,302,0
303,313,311,301,0
302,316,309,300,0
303,318,308,300,0
303,316,306,300,0
304,312,304,300,0
306,309,304,303,0
307,309,304,305,0
309,314,304,307,0
309,321,304,307,0
308,327,303,307,0
306,329,303,307,0
305,326,302,306,0
304,322,302,305,0
303,317,302,305,0
302,311,302,305,0
303,306,302,305,0
303,303,302,304,0
304,302,303,304,0
307,305,306,304,0
310,310,308,305,0
313,314,310,306,0
314,314,312,306,0
315,313,312,307,0
315,310,312,308,0
314,307,311,309,0
313,305,308,307,0
311,300,305,304,0
307,291,301,301,0
303,283,298,299,0
300,280,299,299,0
298,284,302,299,0
299,290,305,301,0
298,297,308,302,0
297,303,308,302,0
296,307,308,302,0
297,313,308,302,0
300,316,308,303,0
304,315,308,304,0
308,315,308,304,0
314,319,308,305,0
320,329,309,306,0
324,337,310,307,0
323,335,310,307,0
318,323,308,305,0
312,304,304,303,0
306,285,300,302,0
302,270,299,302,0
301,262,300,303,0
301,259,301,304,0
301,262,302,306,0
301,273,304,306,0
301,287,305,306,0
301,295,304,307,0
302,298,303,308,0
304,302,303,309,0
307,304,304,310,0
310,304,305,311,0
311,297,305,311,0
310,290,307,311,0
309,287,309,311,0
308,290,313,312,0
308,295,315,312,0
309,303,317,312,0
311,311,316,312,0
311,316,313,310,0
310,317,308,308,0
309,317,304,306,0
309,321,301,305,0
308,324,299,305,0
307,326,298,305,0
307,329,297,305,0
307,330,296,304,0
306,328,294,303,0
306,323,293,302,0
304,318,292,302,0
302,313,292,302,0
300,307,294,302,0
298,304,297,303,0
297,303,301,305,0
296,305,305,307,0
299,308,307,310,0
302,311,308,312,0
305,313,307,312,0
307,315,305,310,0
309,316,303,309,0
310,316,302,307,0
310,314,302,307,0
311,309,301,307,0
310,300,301,307,0
311,289,301,307,0
313,283,303,308,0
317,285,307,310,0
323,296,310,312,0
329,311,313,313,0
332,322,314,312,0
331,328,313,311,0
327,327,312,309,0
323,322,312,308,0
317,315,313,307,0
312,308,313,306,0
309,303,314,304,0
306,299,314,303,0
303,292,313,302,0
301,287,312,302,0
299,282,311,302,0
298,279,311,304,0
299,278,312,305,0
300,283,312,307,0
301,292,312,307,0
302,306,310,307,0
302,321,309,307,0
303,332,309,307,0
304,334,309,308,0
304,331,309,309,0
304,326,310,310,0
303,322,310,311,0
303,317,311,311,0
303,312,311,310,0
302,308,310,309,0
302,305,308,307,0
303,302,306,304,0
302,298,304,302,0
302,294,303,300,0
302,291,303,300,0
304,288,304,301,0
306,286,304,304,0
307,284,304,308,0
307,284,304,311,0
307,281,304,314,0
307,275,305,317,0
309,269,306,318,0
310,269,306,316,0
309,278,306,313,0
310,296,305,311,0
311,313,306,309,0
310,322,307,309,0
309,319,309,308,0
306,312,309,307,0
304,308,310,306,0
304,311,310,305,0
307,316,311,305,0
311,319,312,304,0
314,320,313,304,0
315,322,311,304,0
313,323,310,305,0
312,321,309,307,0
310,317,309,308,0
308,311,309,309,0
307,307,309,310,0
307,305,308,310,0
307,303,308,310,0
306,302,308,309,0
303,304,308,307,0
301,305,307,306,0
298,305,306,306,0
297,305,304,306,0
298,304,304,307,0
300,302,305,308,0
303,300,307,309,0
306,300,309,309,0
309,298,311,310,0
312,299,313,311,0
314,305,316,313,0
315,316,316,314,0
311,323,314,312,0
305,324,309,310,0
300,322,305,308,0
296,318,302,307,0
294,315,299,307,0
295,313,298,307,0
297,315,299,308,0
300,319,301,310,0
304,321,303,311,0
308,322,305,312,0
311,320,308,314,0
314,317,312,315,0
316,315,316,316,0
315,311,319,315,0
312,307,319,313,0
307,306,318,309,0
303,307,317,306,0
301,309,315,305,0
300,309,313,304,0
300,308,311,303,0
299,304,309,302,0
298,300,309,301,0
298,302,308,302,0
298,307,307,302,0
298,309,305,302,0
298,308,304,302,0
300,303,303,303,0
303,301,303,305,0
307,304,305,307,0
313,313,308,311,0
316,320,311,313,0
317,318,312,314,0
315,312,311,314,0
312,308,309,313,0
310,308,307,312,0
308,309,303,310,0
306,307,299,308,0
305,305,296,305,0
305,303,296,304,0
306,302,297,303,0
306,301,298,302,0
305,299,300,301,0
304,297,301,300,0
303,293,303,301,0
302,289,306,302,0
302,290,310,305,0
303,297,312,306,0
304,305,313,306,0
305,311,312,306,0
306,314,312,306,0
307,318,312,306,0
308,322,312,306,0
310,326,312,306,0
311,328,312,306,0
311,329,311,305,0
309,328,309,305,0
307,325,307,304,0
305,322,305,304,0
305,320,305,304,0
307,319,305,305,0
309,319,305,305,0
311,318,305,306,0
314,314,305,307,0
314,306,306,308,0
313,299,304,309,0
310,297,303,309,0
306,294,302,310,0
303,288,301,311,0
302,282,300,311,0
302,279,300,312,0
302,280,299,311,0
303,282,299,309,0
303,283,300,308,0
303,282,303,306,0
302,277,305,305,0
300,269,306,304,0
299,266,308,303,0
299,271,309,304,0
301,280,309,305,0
304,291,310,305,0
307,306,311,307,0
310,323,310,307,0
312,340,307,307,0
314,354,306,306,0
315,365,305,306,0
316,371,305,306,0
318,369,306,307,0
319,363,307,308,0
320,357,309,310,0
320,350,310,312,0
319,341,309,313,0
315,328,307,311,0
310,312,304,308,0
304,297,300,306,0
299,287,299,304,0
297,280,300,304,0
298,278,302,304,0
300,281,304,305,0
303,285,307,305,0
306,289,308,305,0
308,293,307,306,0
309,297,306,307,0
309,300,305,307,0
308,302,305,309,0
307,303,305,310,0
306,305,305,310,0
306,307,305,310,0
307,308,305,310,0
308,310,305,310,0
309,310,306,311,0
309,310,306,310,0
310,308,307,310,0
310,306,307,309,0
311,303,308,309,0
313,304,309,310,0
315,308,309,310,0
316,313,309,310,0
316,317,309,311,0
315,319,309,311,0
314,315,310,311,0
311,307,310,311,0
308,298,308,310,0
303,288,307,309,0
299,278,305,309,0
297,273,305,309,0
298,273,304,311,0
301,279,305,313,0
304,292,306,315,0
307,305,306,315,0
306,305,305,315,0
304,296,304,314,0
302,290,303,313,0
301,291,305,313,0
301,292,306,313,0
301,290,308,313,0
302,288,309,313,0
304,289,311,313,0
308,296,313,313,0
311,305,314,313,0
312,314,312,311,0
310,322,309,307,0
310,331,305,305,0
310,338,303,303,0
310,344,302,302,0
311,349,301,302,0
312,351,300,302,0
312,352,300,302,0
311,349,301,302,0
309,343,302,301,0
307,337,304,300,0
306,330,306,300,0
305,325,308,301,0
306,321,309,302,0
306,319,310,304,0
309,318,310,306,0
312,317,311,309,0
315,314,312,310,0
315,310,311,310,0
313,306,312,311,0
312,304,313,312,0
312,307,314,312,0
310,311,314,312,0
308,313,312,310,0
304,310,310,309,0
301,304,308,309,0
298,298,308,310,0
296,294,308,310,0
295,294,309,310,0
295,298,310,311,0
296,302,311,313,0
298,303,314,314,0
301,304,316,316,0
304,304,318,317,0
307,304,317,316,0
310,306,316,316,0
313,311,315,315,0
315,315,315,313,0
316,317,314,312,0
315,318,311,310,0
314,316,307,308,0
314,315,304,307,0
314,313,302,307,0
314,306,299,306,0
313,297,297,305,0
310,290,293,305,0
305,287,291,305,0
301,287,291,305,0
300,291,293,306,0
301,298,296,306,0
304,303,299,307,0
306,305,301,308,0
307,304,304,308,0
306,301,306,308,0
304,296,308,307,0
302,290,310,307,0
301,281,310,306,0
301,272,310,305,0
301,266,311,306,0
303,265,312,308,0
304,271,314,311,0
305,285,315,313,0
308,305,315,314,0
310,325,315,315,0
310,339,314,314,0
310,347,313,314,0
309,351,311,313,0
308,350,311,312,0
308,345,310,311,0
309,339,311,311,0
309,332,311,310,0
309,323,311,310,0
308,318,310,311,0
307,317,311,310,0
306,318,310,310,0
307,317,309,309,0
307,317,308,306,0
307,319,307,304,0
309,322,306,303,0
312,327,305,303,0
315,330,306,305,0
317,330,307,307,0
316,324,307,309,0
313,312,307,309,0
307,298,306,309,0
302,287,304,308,0
298,281,301,307,0
296,286,300,306,0
297,300,302,307,0
301,312,304,308,0
305,315,306,309,0
307,310,307,309,0
309,301,307,310,0
311,293,307,311,0
313,288,307,311,0
313,288,307,311,0
313,293,306,311,0
313,298,305,310,0
314,302,305,310,0
315,304,306,310,0
315,306,308,310,0
315,306,310,309,0
314,307,310,308,0
313,312,311,307,0
312,317,312,306,0
311,318,312,306,0
310,316,311,306,0
309,308,311,307,0
309,298,312,309,0
310,288,313,311,0
311,283,314,311,0
311,287,316,312,0
312,298,318,312,0
311,306,318,311,0
309,303,314,309,0
307,295,309,307,0
306,289,304,305,0
304,286,301,304,0
303,288,300,302,0
302,292,299,300,0
302,297,300,299,0
302,302,300,299,0
303,308,299,299,0
304,312,298,299,0
305,315,296,300,0
306,320,295,301,0
307,327,295,302,0
307,332,296,303,0
305,335,297,303,0
303,337,298,303,0
302,337,299,302,0
301,335,299,302,0
300,331,300,301,0
301,325,302,302,0
302,318,303,303,0
302,311,305,304,0
303,306,307,306,0
306,306,309,307,0
310,310,311,308,0
312,314,310,306,0
311,311,308,303,0
308,301,305,300,0
305,289,303,299,0
303,278,303,299,0
302,275,303,301,0
301,278,303,302,0
301,283,303,304,0
303,287,302,306,0
303,288,300,307,0
303,288,297,306,0
303,290,297,305,0
303,295,298,305,0
304,307,299,304,0
305,321,302,304,0
306,329,304,304,0
306,327,306,304,0
305,319,306,304,0
305,310,307,306,0
307,304,307,307,0
310,304,306,309,0
312,310,305,310,0
313,315,303,310,0
312,317,301,309,0
310,320,299,309,0
308,326,298,308,0
305,333,298,308,0
304,338,298,308,0
303,340,299,309,0
303,341,301,310,0
305,342,303,312,0
308,340,305,313,0
310,340,308,314,0
312,341,310,315,0
313,333,309,314,0
311,318,307,313,0
309,303,306,313,0
308,290,306,313,0
307,284,306,313,0
307,281,306,313,0
305,278,306,312,0
302,275,305,311,0
300,272,304,310,0
299,270,301,310,0
298,268,300,311,0
299,270,301,313,0
301,272,303,315,0
301,275,305,316,0
302,282,307,317,0
303,293,307,317,0
303,303,308,317,0
303,311,308,317,0
302,315,308,316,0
301,315,307,314,0
300,314,306,312,0
298,312,306,309,0
297,308,306,307,0
298,305,307,306,0
299,303,309,305,0
301,302,311,306,0
302,300,312,307,0
303,293,311,307,0
303,284,310,308,0
304,272,310,309,0
304,260,309,310,0
304,253,310,311,0
304,255,310,312,0
304,268,310,312,0
307,291,311,311,0
309,317,313,310,0
310,333,312,308,0
309,339,311,305,0
308,338,308,303,0
307,338,307,302,0
307,341,307,301,0
309,348,308,301,0
312,355,310,300,0
313,360,311,299,0
312,359,310,297,0
310,353,306,294,0
307,348,304,293,0
306,344,301,293,0
306,340,300,295,0
307,335,300,297,0
308,330,300,300,0
309,324,300,303,0
308,315,302,305,0
306,308,303,307,0
305,309,305,309,0
306,317,309,311,0
307,321,312,313,0
308,319,314,314,0
307,309,314,313,0
304,294,312,312,0
302,279,311,310,0
299,266,311,309,0
298,257,313,309,0
300,255,315,309,0
302,259,317,309,0
305,264,317,310,0
306,269,316,309,0
305,275,315,308,0
303,280,313,307,0
300,286,311,307,0
299,294,310,307,0
299,302,308,307,0
299,308,307,307,0
298,313,305,307,0
298,312,304,307,0
299,306,304,307,0
301,301,304,307,0
303,299,304,307,0
306,299,304,307,0
310,304,304,307,0
314,309,304,306,0
315,308,303,304,0
314,306,302,302,0
314,304,301,300,0
314,307,301,299,0
314,312,301,298,0
314,322,303,299,0
313,334,304,299,0
313,345,305,299,0
314,351,306,299,0
316,354,306,299,0
319,357,306,298,0
320,359,304,297,0
318,357,301,295,0
314,354,298,293,0
311,352,296,293,0
308,348,296,294,0
307,343,296,295,0
306,337,298,296,0
307,329,299,298,0
307,322,301,301,0
307,315,303,304,0
306,305,304,306,0
304,295,304,308,0
304,286,304,310,0
305,281,304,311,0
305,279,305,312,0
308,279,305,314,0
310,283,305,313,0
311,286,306,312,0
310,287,307,310,0
307,288,308,309,0
305,288,309,309,0
303,288,310,309,0
302,284,310,310,0
300,277,310,312,0
299,271,310,313,0
299,268,310,314,0
300,266,312,315,0
303,264,313,316,0
305,261,314,318,0
307,259,316,319,0
310,262,317,321,0
312,270,318,322,0
313,280,317,321,0
312,288,314,319,0
311,295,311,317,0
311,298,309,316,0
311,300,308,315,0
312,301,308,315,0
313,299,308,314,0
311,296,307,313,0
310,294,306,311,0
308,297,306,310,0
308,303,306,309,0
308,310,306,307,0
308,316,306,307,0
308,319,307,306,0
307,317,308,306,0
307,314,307,305,0
306,313,309,306,0
308,314,311,308,0
310,316,313,309,0
312,321,313,309,0
313,328,312,309,0
315,335,310,310,0
315,342,309,309,0
314,344,306,309,0
311,344,303,308,0
307,340,300,306,0
304,333,299,305,0
303,327,298,304,0
301,322,299,304,0
299,318,300,304,0
299,310,301,306,0
300,301,300,307,0
301,290,298,307,0
303,282,296,308,0
306,278,296,309,0
309,280,299,311,0
311,285,302,312,0
311,291,305,312,0
310,297,308,312,0
310,303,311,311,0
310,307,313,310,0
310,310,312,310,0
310,313,312,310,0
312,315,313,311,0
314,316,315,312,0
316,318,315,312,0
316,323,315,310,0
314,327,314,307,0
312,329,312,306,0
309,327,312,305,0
306,322,311,304,0
303,316,310,303,0
300,310,309,302,0
298,304,307,301,0
297,295,306,299,0
296,286,305,298,0
296,278,305,298,0
296,271,304,298,0
296,268,304,298,0
298,270,304,298,0
300,277,304,298,0
304,284,304,299,0
307,289,304,300,0
308,289,303,300,0
307,288,302,300,0
304,287,301,299,0
303,286,299,298,0
304,290,297,298,0
305,300,296,298,0
308,312,295,300,0
309,320,294,301,0
310,324,293,303,0
313,326,295,305,0
315,326,296,307,0
315,328,297,308,0
315,331,297,308,0
314,333,296,307,0
312,332,295,306,0
311,327,294,305,0
309,319,294,305,0
308,310,296,306,0
307,304,297,306,0
308,301,300,306,0
309,303,302,307,0
310,306,306,307,0
311,311,310,309,0
312,316,313,310,0
311,318,315,310,0
309,317,315,308,0
305,311,314,307,0
302,305,314,306,0
300,304,314,306,0
299,309,314,306,0
301,318,315,307,0
305,326,316,310,0
309,331,317,310,0
311,329,316,311,0
311,326,315,310,0
309,321,314,308,0
307,317,312,307,0
305,313,310,306,0
304,308,310,305,0
304,306,308,304,0
302,304,307,304,0
302,301,305,303,0
302,296,305,303,0
303,290,304,304,0
304,285,304,306,0
306,281,303,308,0
307,279,302,309,0
307,279,301,309,0
307,281,302,309,0
307,284,303,309,0
307,286,305,309,0
306,284,306,308,0
304,280,307,308,0
302,275,308,309,0
301,269,310,310,0
300,263,309,311,0
299,262,309,310,0
299,271,310,310,0
302,289,309,309,0
303,307,309,307,0
305,320,307,306,0
305,326,305,305,0
306,328,303,305,0
306,328,302,306,0
307,327,303,306,0
309,326,303,307,0
310,326,304,307,0
312,325,304,308,0
312,325,305,308,0
311,324,305,308,0
309,322,305,307,0
307,323,305,306,0
304,327,305,304,0
303,329,306,302,0
302,327,307,300,0
302,321,308,299,0
302,311,309,297,0
303,301,310,296,0
304,292,309,296,0
306,287,307,297,0
307,289,305,297,0
310,298,302,297,0
312,310,300,296,0
313,322,299,295,0
311,331,297,294,0
306,336,294,294,0
302,339,293,295,0
299,336,295,299,0
300,328,298,304,0
303,317,303,310,0
306,307,306,315,0
309,296,309,317,0
310,285,310,319,0
309,274,310,319,0
309,267,310,317,0
308,267,310,316,0
308,278,311,315,0
309,294,311,313,0
309,306,310,312,0
308,311,308,311,0
308,314,307,310,0
307,316,306,310,0
306,319,304,310,0
306,323,302,310,0
306,327,301,309,0
306,327,300,308,0
306,327,299,307,0
306,326,299,307,0
306,324,299,307,0
307,321,302,308,0
309,318,304,310,0
311,315,305,311,0
311,311,307,312,0
310,305,307,313,0
309,298,307,313,0
309,290,309,313,0
310,283,310,314,0
310,275,313,313,0
310,269,314,312,0
310,269,316,312,0
310,274,318,311,0
310,281,319,311,0
309,291,318,310,0
309,300,317,310,0
309,310,316,310,0
311,319,317,311,0
314,325,316,311,0
316,327,316,311,0
317,327,315,311,0
318,324,315,311,0
319,323,316,312,0
320,328,317,313,0
320,334,318,314,0
318,335,318,313,0
315,328,316,311,0
311,316,314,309,0
307,302,313,309,0
306,290,312,309,0
307,285,311,309,0
309,289,312,310,0
311,297,314,310,0
312,305,314,308,0
311,308,314,306,0
308,306,312,304,0
305,306,311,303,0
303,307,310,303,0
302,309,309,303,0
301,311,308,303,0
302,311,307,303,0
303,310,307,303,0
305,307,307,304,0
306,303,309,305,0
307,298,310,305,0
307,295,310,306,0
307,295,311,306,0
309,299,313,307,0
311,303,313,308,0
311,304,312,308,0
310,299,310,309,0
309,295,308,308,0
308,295,307,308,0
309,299,308,307,0
309,307,307,305,0
307,314,306,303,0
303,317,304,301,0
299,316,303,300,0
296,313,304,300,0
294,313,305,302,0
295,315,308,305,0
297,318,310,308,0
300,318,311,309,0
302,316,311,310,0
303,312,311,309,0
304,308,311,309,0
305,304,312,309,0
306,299,312,308,0
306,292,311,306,0
305,286,309,303,0
306,284,308,302,0
307,286,308,301,0
308,296,308,301,0
310,312,308,301,0
311,324,307,302,0
311,327,304,303,0
309,323,300,303,0
307,319,297,303,0
307,318,295,305,0
308,317,294,309,0
311,314,295,313,0
313,311,296,317,0
314,306,297,318,0
314,297,298,319,0
314,289,298,318,0
314,290,300,317,0
314,297,302,315,0
312,307,303,313,0
309,317,304,311,0
307,326,307,310,0
305,332,311,311,0
305,335,315,312,0
304,332,318,312,0
303,325,319,312,0
303,319,320,311,0
302,315,319,311,0
302,314,318,311,0
303,315,316,311,0
302,317,312,311,0
302,317,308,311,0
301,314,305,311,0
301,308,303,312,0
301,305,303,313,0
303,306,304,314,0
304,309,304,314,0
304,310,305,313,0
304,306,304,312,0
304,298,305,313,0
307,290,307,315,0
313,286,310,318,0
319,289,314,320,0
322,298,317,320,0
322,307,317,318,0
319,312,315,316,0
315,312,313,314,0
311,305,312,313,0
308,298,311,311,0
308,297,311,311,0
309,301,311,310,0
310,308,311,309,0
309,314,309,307,0
306,317,307,305,0
303,318,305,305,0
301,319,304,307,0
300,320,304,309,0
301,320,305,310,0
302,315,305,311,0
302,304,304,310,0
303,288,303,309,0
303,272,302,307,0
304,264,302,306,0
305,268,303,306,0
306,284,305,307,0
308,304,307,308,0
307,322,307,309,0
306,331,307,308,0
304,330,305,307,0
303,326,303,304,0
303,321,301,301,0
303,318,299,299,0
302,315,297,299,0
302,313,297,299,0
302,313,297,300,0
