291,318,305,308,0
289,316,303,307,0
289,314,302,306,0
290,313,302,305,0
290,314,302,304,0
291,314,303,303,0
291,314,304,303,0
291,313,304,304,0
291,313,305,306,0
292,312,305,308,0
293,312,306,309,0
295,312,306,311,0
296,312,307,312,0
297,310,307,312,0
297,305,309,312,0
297,301,310,311,0
298,302,311,311,0
300,302,311,309,0
301,300,310,308,0
301,300,309,308,0
299,301,310,309,0
299,298,311,309,0
298,295,311,309,0
298,293,311,309,0
299,294,312,309,0
300,296,313,310,0
299,299,314,311,0
299,301,314,311,0
300,307,313,312,0
301,311,311,312,0
300,307,309,310,0
298,301,306,309,0
298,300,306,309,0
298,300,306,310,0
298,297,306,310,0
297,292,306,310,0
296,287,307,310,0
295,279,309,311,0
294,274,310,311,0
293,278,310,311,0
293,286,308,311,0
293,295,306,311,0
294,303,304,311,0
295,313,302,311,0
295,323,302,310,0
296,332,302,310,0
297,334,301,309,0
297,327,301,309,0
297,314,302,309,0
298,300,304,310,0
298,292,305,311,0
298,292,307,311,0
299,297,308,312,0
301,306,309,312,0
304,321,311,312,0
307,340,312,310,0
307,350,311,308,0
306,345,310,306,0
304,331,310,305,0
301,312,310,305,0
299,296,312,307,0
298,290,314,310,0
297,291,315,313,0
296,296,316,314,0
295,304,315,313,0
295,314,313,313,0
295,323,310,311,0
295,326,308,310,0
295,323,306,310,0
296,320,306,311,0
297,317,305,312,0
298,315,304,312,0
297,314,300,311,0
297,314,296,311,0
297,315,292,310,0
298,315,289,309,0
299,313,287,307,0
298,309,287,306,0
297,303,291,306,0
297,298,296,308,0
298,292,300,310,0
297,284,302,311,0
296,281,304,311,0
296,284,305,312,0
296,289,307,313,0
296,293,309,314,0
296,294,311,314,0
296,294,313,314,0
297,295,313,314,0
297,297,313,313,0
297,299,312,312,0
297,302,310,311,0
296,302,307,309,0
297,298,303,308,0
298,292,300,307,0
300,286,297,305,0
303,284,295,304,0
306,289,296,304,0
310,300,298,305,0
313,312,301,307,0
313,320,304,308,0
308,322,306,309,0
303,322,306,309,0
300,323,305,308,0
296,323,304,307,0
293,322,303,307,0
292,323,303,308,0
292,325,303,310,0
293,328,304,311,0
295,328,306,313,0
296,324,308,315,0
297,314,310,317,0
298,300,311,318,0
298,287,310,319,0
299,279,310,320,0
300,277,310,320,0
301,281,310,318,0
300,287,309,316,0
299,295,308,314,0
299,304,307,313,0
299,311,307,312,0
300,316,306,311,0
300,315,305,310,0
298,309,303,308,0
297,302,303,308,0
296,295,303,308,0
295,289,304,309,0
295,282,305,311,0
296,275,305,313,0
297,269,306,315,0
298,266,306,316,0
300,271,307,316,0
303,286,307,315,0
306,306,308,315,0
308,326,309,314,0
309,342,310,313,0
309,353,310,312,0
307,355,309,310,0
303,349,308,307,0
299,342,308,305,0
299,339,310,306,0
300,339,311,306,0
299,337,311,307,0
298,331,307,306,0
295,323,303,306,0
294,313,300,305,0
295,303,300,306,0
297,297,300,307,0
300,296,299,307,0
300,299,299,307,0
298,301,297,306,0
296,300,296,306,0
295,298,295,306,0
295,298,295,308,0
295,296,296,310,0
296,296,299,311,0
298,298,302,312,0
299,303,305,312,0
299,307,306,311,0
298,312,307,310,0
297,321,306,309,0
295,330,305,308,0
295,339,304,307,0
296,346,304,307,0
297,348,303,307,0
300,342,303,308,0
302,328,302,308,0
302,311,302,308,0
302,297,302,308,0
302,287,302,308,0
301,281,302,307,0
301,279,303,306,0
301,281,302,304,0
302,285,302,303,0
304,289,300,304,0
305,291,300,304,0
305,292,299,305,0
307,300,298,307,0
309,312,298,309,0
312,321,296,310,0
311,329,293,310,0
308,335,291,309,0
304,337,291,308,0
300,330,292,308,0
297,317,294,308,0
294,301,296,308,0
292,286,298,307,0
291,276,302,308,0
291,273,305,309,0
292,279,309,309,0
295,285,310,309,0
296,291,310,308,0
297,296,310,307,0
299,300,309,304,0
302,305,308,303,0
304,309,307,302,0
305,312,306,302,0
306,313,305,303,0
305,315,306,304,0
303,316,308,306,0
300,315,310,308,0
297,310,311,308,0
294,301,313,307,0
292,289,314,307,0
290,276,315,306,0
290,267,316,306,0
291,266,317,306,0
293,274,317,307,0
297,284,318,309,0
299,292,317,310,0
301,300,315,311,0
304,308,316,312,0
308,317,318,314,0
312,328,320,315,0
315,340,322,314,0
316,349,321,313,0
315,353,319,311,0
314,355,314,309,0
310,351,310,307,0
304,342,305,305,0
298,331,301,302,0
292,321,297,300,0
287,316,293,298,0
285,315,291,297,0
284,313,291,298,0
283,307,291,299,0
285,302,293,300,0
287,301,295,301,0
289,301,296,303,0
291,302,298,304,0
293,303,301,305,0
294,304,304,306,0
296,307,307,307,0
298,312,309,307,0
300,316,311,308,0
300,318,313,308,0
299,320,314,308,0
297,320,314,308,0
295,320,312,307,0
293,317,311,307,0
291,314,310,306,0
289,310,308,306,0
289,307,306,306,0
288,305,304,306,0
289,305,302,306,0
289,307,299,305,0
289,308,298,304,0
289,309,296,303,0
290,310,296,303,0
292,309,296,304,0
296,307,298,305,0
301,304,301,307,0
304,298,304,309,0
306,291,307,311,0
307,286,310,312,0
305,281,311,312,0
302,277,311,312,0
300,274,312,313,0
299,270,312,312,0
296,262,310,311,0
292,254,309,309,0
290,255,309,309,0
289,271,309,309,0
289,294,308,310,0
290,320,308,310,0
291,345,308,310,0
291,363,307,308,0
290,367,307,306,0
289,360,307,304,0
289,349,307,303,0
290,339,308,302,0
292,330,308,303,0
294,321,308,304,0
295,314,308,305,0
296,307,309,306,0
296,300,308,306,0
294,291,307,306,0
294,282,305,306,0
293,274,303,306,0
294,269,302,307,0
296,267,301,309,0
298,275,302,310,0
299,293,303,310,0
298,313,303,310,0
295,325,304,309,0
291,325,304,308,0
288,321,307,308,0
286,315,310,308,0
286,310,313,308,0
289,309,316,309,0
293,309,317,309,0
297,309,317,310,0
301,308,316,311,0
304,309,316,312,0
308,311,317,314,0
311,318,318,315,0
311,324,318,315,0
310,324,316,313,0
307,320,313,312,0
303,313,309,312,0
298,304,306,312,0
291,295,304,313,0
285,285,304,314,0
282,280,305,315,0
281,281,305,316,0
282,291,304,317,0
284,306,303,316,0
285,321,302,314,0
286,330,302,312,0
286,333,302,310,0
286,330,303,309,0
286,324,304,309,0
287,319,303,310,0
288,314,302,310,0
289,312,302,310,0
290,312,300,311,0
291,313,298,311,0
292,314,298,312,0
292,316,298,312,0
293,316,298,313,0
293,318,297,314,0
294,323,297,315,0
295,329,298,316,0
296,328,298,317,0
298,319,296,318,0
299,304,296,319,0
301,289,296,320,0
304,279,297,321,0
304,273,297,320,0
304,273,298,318,0
303,278,298,317,0
301,283,299,314,0
298,289,299,311,0
294,294,300,308,0
292,296,301,306,0
290,295,302,305,0
291,292,306,306,0
292,289,309,307,0
293,290,313,309,0
294,295,314,310,0
295,302,314,310,0
295,309,313,309,0
295,317,311,309,0
294,324,309,307,0
293,330,307,306,0
294,336,306,306,0
295,338,307,307,0
296,337,307,308,0
294,332,307,309,0
292,324,306,309,0
289,317,306,309,0
288,310,306,309,0
287,303,307,310,0
288,298,308,310,0
288,294,309,310,0
289,293,309,310,0
290,296,309,309,0
292,303,308,308,0
294,314,306,306,0
295,323,303,305,0
295,325,300,305,0
294,319,298,305,0
293,307,298,306,0
291,294,301,309,0
291,288,304,311,0
293,291,307,313,0
295,300,311,315,0
298,310,313,315,0
299,315,314,315,0
300,313,314,314,0
302,307,314,314,0
304,302,314,314,0
307,301,314,315,0
310,302,315,315,0
311,305,315,315,0
310,313,313,313,0
306,322,310,312,0
303,330,306,310,0
298,335,303,308,0
294,333,300,307,0
292,325,299,307,0
291,315,298,307,0
291,307,299,306,0
293,304,299,306,0
295,306,300,306,0
296,311,302,306,0
297,315,304,307,0
296,318,306,309,0
294,319,307,311,0
292,317,306,311,0
290,314,303,311,0
290,311,300,310,0
292,307,298,310,0
295,303,297,308,0
298,301,296,306,0
299,301,295,302,0
300,301,295,300,0
301,304,297,300,0
300,308,298,300,0
299,310,299,302,0
296,310,300,302,0
293,310,301,303,0
292,312,303,305,0
291,313,306,306,0
289,310,307,308,0
288,306,307,308,0
287,303,307,309,0
288,304,307,310,0
290,305,307,310,0
293,305,306,310,0
295,305,306,310,0
298,304,307,311,0
301,304,308,313,0
303,305,309,315,0
304,308,310,317,0
305,310,312,318,0
306,310,312,319,0
305,310,312,319,0
303,312,311,317,0
298,312,309,315,0
294,312,306,312,0
290,312,306,312,0
288,314,307,312,0
289,313,309,313,0
289,307,311,313,0
290,301,312,311,0
290,296,312,309,0
291,294,312,308,0
293,297,313,306,0
295,303,313,306,0
297,312,312,305,0
298,320,312,305,0
298,321,311,305,0
298,316,309,304,0
297,308,307,304,0
297,300,306,305,0
295,296,305,307,0
295,295,306,308,0
295,298,307,309,0
295,304,308,309,0
295,305,306,308,0
293,304,305,305,0
291,300,303,304,0
291,294,301,302,0
291,288,300,303,0
291,282,300,305,0
292,278,301,308,0
292,276,303,311,0
292,277,304,313,0
292,281,304,314,0
292,286,304,313,0
293,289,305,312,0
295,290,305,312,0
297,292,305,310,0
299,298,305,310,0
301,307,305,309,0
304,315,304,309,0
306,319,303,308,0
305,318,301,307,0
303,312,301,306,0
299,303,302,306,0
296,295,304,306,0
293,292,305,307,0
292,294,305,307,0
292,299,305,306,0
291,306,304,305,0
291,314,304,304,0
294,324,303,304,0
296,335,304,304,0
298,343,303,304,0
298,345,302,304,0
297,340,302,304,0
295,332,301,305,0
293,324,302,306,0
292,317,304,306,0
292,310,306,307,0
292,305,309,308,0
292,302,312,309,0
293,297,313,309,0
293,293,314,309,0
294,288,313,309,0
294,281,312,308,0
295,275,311,307,0
295,272,309,306,0
297,270,308,306,0
299,272,307,306,0
303,281,306,307,0
306,293,306,308,0
308,304,306,309,0
308,311,306,309,0
304,315,304,307,0
300,315,302,306,0
295,316,300,303,0
292,318,298,302,0
288,320,296,301,0
287,321,295,301,0
286,318,295,301,0
287,314,295,301,0
288,310,296,302,0
290,305,297,303,0
291,303,300,303,0
292,301,305,305,0
293,298,308,306,0
293,297,310,307,0
295,298,313,307,0
296,302,314,307,0
298,307,315,305,0
300,314,316,303,0
300,316,315,302,0
297,315,314,301,0
295,311,314,301,0
294,306,315,303,0
294,300,317,306,0
296,294,319,310,0
298,287,320,313,0
300,282,319,315,0
300,277,315,314,0
301,276,312,314,0
302,286,310,313,0
304,307,312,313,0
306,332,315,313,0
306,350,317,313,0
304,357,319,311,0
300,351,319,310,0
296,336,316,309,0
293,320,313,308,0
293,305,310,307,0
295,295,308,308,0
296,291,307,308,0
295,293,305,307,0
294,296,304,305,0
292,298,303,304,0
291,295,303,303,0
291,288,304,304,0
293,280,305,306,0
295,272,307,308,0
296,264,308,309,0
296,261,310,310,0
297,269,310,309,0
297,285,309,308,0
296,300,308,306,0
294,309,306,304,0
293,312,304,304,0
292,309,303,304,0
291,304,302,304,0
290,301,301,305,0
290,300,302,307,0
290,301,304,308,0
291,304,306,309,0
293,309,308,309,0
294,315,310,310,0
296,320,311,312,0
299,326,312,313,0
300,332,314,313,0
301,339,315,313,0
300,346,315,311,0
299,352,315,309,0
296,353,313,306,0
293,352,311,304,0
290,346,309,302,0
289,339,308,301,0
289,330,307,301,0
290,322,305,302,0
291,319,304,303,0
293,318,303,304,0
296,320,303,306,0
298,323,303,308,0
301,326,303,309,0
301,326,302,309,0
299,322,302,308,0
297,317,301,308,0
295,310,302,308,0
295,304,303,309,0
296,300,304,309,0
297,300,304,309,0
297,300,305,308,0
296,300,305,307,0
296,301,307,307,0
297,304,311,309,0
299,305,314,310,0
300,304,317,311,0
299,302,319,312,0
297,301,320,312,0
294,301,320,312,0
291,301,319,311,0
290,303,318,310,0
291,303,318,310,0
293,303,316,308,0
295,302,315,307,0
297,301,314,307,0
299,297,314,307,0
297,291,314,307,0
294,283,314,307,0
292,279,313,308,0
291,280,313,309,0
290,286,312,308,0
289,295,310,307,0
288,304,309,305,0
288,307,308,304,0
290,306,308,306,0
292,304,308,308,0
294,302,308,310,0
295,302,307,310,0
295,304,305,308,0
294,308,303,306,0
293,312,300,305,0
292,314,297,304,0
291,314,295,304,0
290,312,294,304,0
289,309,292,304,0
291,307,293,306,0
294,305,295,307,0
297,303,298,309,0
299,298,301,310,0
299,295,303,311,0
298,292,304,313,0
297,287,304,314,0
295,284,304,314,0
294,284,306,314,0
293,288,308,315,0
292,290,311,315,0
292,292,314,315,0
292,300,315,314,0
293,316,317,313,0
295,332,318,312,0
297,340,317,311,0
299,343,316,311,0
299,340,315,311,0
297,334,313,311,0
294,326,311,311,0
291,319,308,311,0
290,316,306,311,0
290,314,305,312,0
290,312,304,312,0
289,310,304,312,0
289,309,303,312,0
290,311,303,312,0
290,311,304,312,0
290,311,304,311,0
290,311,305,310,0
289,310,306,309,0
289,310,307,309,0
289,310,309,311,0
291,311,311,314,0
293,312,312,317,0
296,315,313,319,0
297,316,311,320,0
297,314,311,321,0
297,310,311,321,0
298,305,311,321,0
298,296,311,320,0
297,284,310,320,0
298,274,310,320,0
298,268,309,320,0
300,267,309,319,0
303,272,309,318,0
305,281,309,318,0
307,287,309,318,0
309,286,309,319,0
311,277,311,320,0
311,263,313,322,0
308,253,315,322,0
305,256,318,322,0
303,274,319,321,0
300,301,317,317,0
296,328,315,312,0
293,349,313,308,0
292,361,311,305,0
292,367,309,303,0
293,368,309,302,0
295,366,309,302,0
298,361,311,302,0
300,354,312,303,0
300,344,311,303,0
299,335,309,302,0
297,328,306,302,0
295,324,303,302,0
293,322,300,301,0
291,321,298,301,0
291,322,297,302,0
291,322,297,303,0
291,322,298,304,0
292,322,299,304,0
294,322,300,303,0
295,321,301,304,0
295,318,303,306,0
295,314,305,308,0
296,312,307,311,0
298,312,310,313,0
301,316,314,316,0
304,322,317,318,0
305,326,318,318,0
303,327,318,317,0
300,323,315,315,0
296,314,310,313,0
293,300,305,312,0
291,282,301,312,0
292,264,298,313,0
294,250,299,314,0
298,247,301,316,0
302,251,304,318,0
303,258,307,317,0
301,264,309,315,0
296,271,309,312,0
291,281,309,309,0
288,291,309,307,0
285,298,309,306,0
283,306,309,305,0
283,318,309,306,0
283,328,309,306,0
285,328,311,308,0
288,321,313,310,0
292,316,314,312,0
297,315,315,314,0
300,318,314,315,0
302,319,314,315,0
302,319,313,315,0
300,319,311,314,0
298,320,308,312,0
296,322,306,311,0
293,322,303,309,0
291,319,301,309,0
290,314,300,309,0
290,309,300,309,0
290,303,302,310,0
291,297,303,310,0
291,292,304,310,0
290,289,304,310,0
290,287,304,310,0
290,288,304,310,0
290,289,304,311,0
291,292,305,312,0
293,296,306,313,0
294,298,305,313,0
295,301,304,314,0
295,303,303,314,0
294,301,301,313,0
294,292,300,312,0
293,283,300,312,0
294,280,301,314,0
296,282,303,315,0
298,285,304,315,0
299,290,305,316,0
301,294,306,316,0
303,298,307,316,0
303,302,306,315,0
301,306,305,314,0
298,310,304,313,0
296,314,304,311,0
296,317,305,311,0
298,321,308,311,0
302,326,310,311,0
305,330,311,311,0
307,331,312,310,0
307,329,311,310,0
306,324,310,309,0
302,318,308,308,0
299,309,307,308,0
296,303,306,308,0
294,303,305,309,0
294,307,305,309,0
293,309,304,310,0
292,309,302,308,0
291,306,298,307,0
291,304,295,305,0
290,304,294,304,0
290,311,294,303,0
289,324,293,301,0
288,334,290,298,0
287,334,287,296,0
287,326,285,296,0
289,316,286,297,0
290,307,288,298,0
291,303,291,300,0
291,302,295,301,0
293,301,298,303,0
294,301,302,304,0
295,301,306,304,0
295,301,309,304,0
295,302,310,305,0
295,303,311,305,0
294,303,310,306,0
294,300,309,306,0
293,296,307,307,0
294,293,305,308,0
295,294,304,308,0
298,297,303,308,0
300,301,303,308,0
302,304,304,307,0
305,304,306,306,0
306,300,307,304,0
305,293,309,302,0
304,288,311,300,0
305,288,314,300,0
307,295,317,302,0
309,306,318,304,0
311,320,319,305,0
310,334,319,306,0
307,340,319,307,0
303,335,318,309,0
300,325,316,310,0
297,315,314,310,0
293,307,313,309,0
288,306,311,309,0
284,311,309,308,0
281,317,307,307,0
279,320,306,306,0
279,320,305,305,0
280,320,304,304,0
283,318,303,304,0
286,316,304,304,0
288,312,304,304,0
289,310,303,304,0
289,310,303,303,0
289,312,304,303,0
289,314,304,304,0
289,314,304,303,0
289,311,303,303,0
289,310,302,303,0
291,311,301,303,0
292,315,301,305,0
294,319,301,305,0
295,321,302,306,0
296,317,303,306,0
296,312,305,307,0
296,307,308,307,0
295,304,310,306,0
294,303,311,306,0
293,302,312,305,0
291,300,312,305,0
290,296,312,304,0
288,290,311,303,0
288,287,310,303,0
289,287,309,303,0
290,290,310,304,0
292,294,310,305,0
294,298,310,305,0
294,303,308,305,0
293,307,306,305,0
291,306,304,304,0
289,302,302,303,0
286,296,301,301,0
284,290,300,300,0
283,287,300,299,0
283,287,301,299,0
284,288,303,301,0
286,288,305,303,0
288,284,307,306,0
290,278,309,307,0
292,269,311,308,0
293,260,313,309,0
295,252,315,310,0
298,254,317,312,0
302,266,319,313,0
303,279,320,314,0
304,293,320,314,0
306,305,320,315,0
308,315,319,315,0
310,323,317,315,0
311,333,315,314,0
311,348,313,313,0
312,359,311,311,0
312,362,308,309,0
312,359,306,308,0
310,349,304,306,0
306,336,303,305,0
301,325,302,304,0
295,319,301,304,0
290,319,301,303,0
287,322,301,303,0
286,327,301,304,0
286,332,301,303,0
287,335,302,304,0
288,330,302,304,0
288,319,303,304,0
289,308,304,305,0
291,302,304,306,0
293,302,305,308,0
295,305,305,309,0
296,308,305,309,0
295,311,304,307,0
293,314,302,306,0
291,317,301,305,0
290,318,300,305,0
290,315,301,305,0
290,308,303,305,0
289,297,303,305,0
289,287,304,306,0
289,276,303,306,0
288,264,300,306,0
287,255,298,304,0
289,252,297,304,0
293,258,296,303,0
296,272,297,302,0
298,291,297,300,0
299,309,297,298,0
299,324,298,297,0
299,333,298,298,0
298,339,300,299,0
297,341,301,300,0
297,338,303,302,0
297,332,306,305,0
297,325,307,306,0
298,314,308,307,0
298,303,308,308,0
299,296,308,308,0
300,291,309,307,0
301,290,310,308,0
300,295,311,308,0
299,303,311,308,0
296,309,310,308,0
292,312,307,308,0
289,314,305,307,0
288,316,305,308,0
288,317,305,308,0
288,317,308,309,0
288,316,311,310,0
289,315,313,311,0
290,315,315,312,0
293,315,316,312,0
295,316,318,312,0
296,317,319,312,0
296,323,319,312,0
297,332,320,312,0
298,342,320,311,0
299,342,319,310,0
297,329,315,308,0
293,315,312,307,0
289,305,309,305,0
287,300,307,305,0
286,299,305,306,0
286,298,305,306,0
287,298,304,306,0
288,299,302,306,0
288,301,301,306,0
289,303,300,305,0
290,304,300,305,0
290,305,300,305,0
291,305,301,305,0
291,304,302,306,0
291,304,303,306,0
291,304,304,307,0
291,302,306,307,0
290,298,306,308,0
290,292,306,308,0
291,285,307,310,0
294,279,308,312,0
298,279,309,314,0
303,284,311,316,0
306,289,312,315,0
307,298,311,314,0
305,305,310,311,0
302,305,308,308,0
297,297,305,306,0
294,286,304,305,0
291,276,303,305,0
290,273,302,304,0
290,273,301,304,0
290,274,300,304,0
289,278,299,303,0
288,283,299,304,0
289,292,300,305,0
292,302,302,307,0
296,312,304,309,0
300,320,306,311,0
302,328,306,312,0
303,331,305,312,0
303,330,303,311,0
302,328,301,310,0
301,327,299,309,0
299,328,298,308,0
296,329,298,307,0
293,327,300,307,0
290,325,300,307,0
288,321,300,307,0
287,313,300,305,0
287,308,300,303,0
290,307,300,302,0
292,307,300,301,0
293,308,299,302,0
293,314,299,304,0
295,322,300,307,0
298,332,300,310,0
302,342,300,311,0
304,346,297,310,0
304,342,295,310,0
302,330,293,310,0
300,316,293,311,0
299,303,295,312,0
298,295,299,313,0
298,290,303,314,0
296,288,305,314,0
294,288,306,312,0
290,290,306,310,0
289,294,306,308,0
288,300,306,307,0
289,308,306,307,0
292,318,306,307,0
295,328,307,307,0
297,335,308,308,0
296,338,309,310,0
294,335,309,311,0
292,328,310,311,0
291,317,310,311,0
291,307,311,310,0
290,302,310,309,0
291,301,310,309,0
291,304,309,308,0
293,308,309,309,0
295,310,308,311,0
297,308,307,312,0
300,304,307,314,0
301,299,307,314,0
300,295,308,314,0
300,296,308,314,0
299,302,308,313,0
297,308,308,314,0
297,317,307,314,0
297,326,306,315,0
296,334,306,314,0
295,333,305,314,0
294,327,303,313,0
291,319,300,311,0
288,311,298,310,0
286,302,297,309,0
284,295,297,308,0
284,292,299,309,0
286,294,303,310,0
289,297,308,312,0
292,303,313,314,0
295,307,316,316,0
298,309,318,317,0
302,310,319,318,0
304,310,320,318,0
302,308,318,316,0
297,303,315,314,0
293,297,312,313,0
290,292,310,313,0
289,287,310,313,0
289,286,309,313,0
290,286,310,313,0
292,286,311,313,0
293,284,310,313,0
292,283,308,313,0
291,285,307,313,0
292,293,307,312,0
294,301,306,311,0
295,304,304,309,0
296,303,304,308,0
297,297,303,306,0
296,286,302,304,0
294,275,300,301,0
292,267,298,299,0
290,264,295,298,0
288,269,293,297,0
288,278,292,298,0
289,286,293,300,0
290,294,292,302,0
292,301,291,304,0
292,308,288,305,0
292,314,288,306,0
294,321,290,309,0
296,332,293,310,0
300,340,297,312,0
303,343,299,312,0
305,343,302,312,0
306,343,305,312,0
304,344,307,310,0
301,344,307,308,0
298,342,306,305,0
295,333,304,304,0
293,324,304,303,0
292,317,306,304,0
291,316,307,305,0
291,313,309,307,0
291,311,310,309,0
291,309,311,310,0
290,307,312,312,0
290,305,311,312,0
289,304,311,311,0
288,304,310,311,0
287,304,309,312,0
287,304,309,312,0
287,304,309,313,0
286,304,310,313,0
286,304,310,312,0
286,302,311,313,0
287,297,310,313,0
288,292,311,313,0
290,287,311,314,0
292,287,310,314,0
294,294,310,315,0
297,307,309,315,0
300,318,307,314,0
302,322,305,313,0
301,320,303,312,0
300,316,302,311,0
297,308,300,310,0
294,301,299,308,0
293,301,300,307,0
294,306,300,305,0
297,310,300,304,0
299,313,300,304,0
297,310,300,303,0
295,301,302,304,0
294,293,303,305,0
293,292,306,307,0
295,295,309,309,0
297,298,311,310,0
298,298,312,311,0
298,299,313,312,0
298,304,313,312,0
299,311,312,311,0
300,320,309,310,0
300,324,307,308,0
301,326,305,307,0
302,327,304,306,0
301,328,304,306,0
300,329,304,307,0
298,331,304,308,0
295,332,304,309,0
292,328,303,310,0
290,320,302,310,0
288,313,301,310,0
288,307,301,311,0
289,303,301,312,0
291,299,300,312,0
292,293,300,313,0
295,284,300,313,0
297,275,300,314,0
298,268,302,314,0
298,269,302,313,0
295,275,301,312,0
293,285,300,311,0
292,292,299,310,0
292,297,298,308,0
293,299,297,308,0
294,300,296,309,0
296,298,296,309,0
296,298,295,309,0
296,297,295,308,0
296,298,294,308,0
295,300,294,306,0
295,303,293,305,0
295,303,293,304,0
294,302,293,303,0
294,298,295,304,0
294,293,298,307,0
294,289,302,311,0
296,285,307,314,0
299,283,311,317,0
300,288,315,318,0
302,300,319,319,0
303,313,323,319,0
304,318,325,320,0
304,315,325,318,0
301,308,323,316,0
298,303,319,313,0
295,304,314,309,0
294,313,312,308,0
295,326,310,308,0
297,336,309,307,0
297,340,308,307,0
296,336,306,306,0
293,327,305,305,0
291,319,304,305,0
291,316,304,306,0
293,317,304,308,0
295,319,305,309,0
298,322,304,309,0
300,325,303,309,0
301,327,304,309,0
300,328,306,308,0
298,326,307,308,0
296,323,308,307,0
295,317,309,307,0
294,304,310,308,0
295,290,310,308,0
295,282,308,308,0
295,281,307,308,0
297,289,307,309,0
301,303,309,312,0
307,318,311,316,0
312,328,312,318,0
313,330,313,318,0
311,328,312,318,0
307,321,310,317,0
302,312,308,316,0
298,305,306,314,0
295,302,305,313,0
292,301,302,310,0
289,299,300,309,0
288,296,299,308,0
287,294,299,308,0
287,293,299,307,0
286,293,300,308,0
286,291,301,308,0
287,289,302,309,0
290,287,303,310,0
295,287,304,312,0
300,292,304,314,0
305,302,305,316,0
309,309,306,317,0
312,312,306,318,0
309,309,304,317,0
304,302,302,316,0
298,293,299,315,0
292,286,297,314,0
288,282,296,313,0
287,283,296,313,0
287,290,296,313,0
290,299,297,312,0
294,308,299,311,0
298,314,300,311,0
302,316,301,311,0
304,315,301,311,0
303,312,300,310,0
301,309,297,309,0
299,304,293,307,0
296,299,291,305,0
294,297,293,305,0
295,302,297,307,0
297,312,303,310,0
297,321,308,312,0
295,320,313,313,0
293,311,315,313,0
291,299,316,313,0
291,287,318,314,0
293,279,319,314,0
295,278,320,314,0
297,283,321,313,0
298,288,321,311,0
297,289,319,310,0
295,291,317,309,0
296,300,315,308,0
297,315,314,309,0
298,328,313,310,0
298,333,313,311,0
297,328,312,312,0
296,320,311,313,0
295,312,310,314,0
296,305,309,315,0
297,303,310,315,0
298,304,309,316,0
299,307,310,315,0
298,310,309,315,0
296,314,308,314,0
294,316,306,312,0
293,318,303,310,0
292,320,302,310,0
293,322,302,310,0
293,323,302,310,0
293,323,302,310,0
293,321,302,309,0
293,318,302,308,0
294,313,302,308,0
294,307,303,308,0
292,301,305,307,0
292,296,307,308,0
293,292,310,308,0
294,291,311,309,0
296,290,312,309,0
296,288,310,308,0
295,287,310,308,0
296,289,309,308,0
297,295,309,308,0
299,300,310,310,0
300,304,310,309,0
299,302,308,309,0
298,298,308,309,0
298,294,309,310,0
299,294,311,311,0
300,300,312,312,0
299,310,311,312,0
297,318,307,311,0
294,323,302,309,0
291,323,297,307,0
289,319,294,306,0
289,316,293,305,0
292,315,292,305,0
295,316,294,305,0
298,317,296,305,0
300,317,299,304,0
300,316,301,302,0
299,314,303,299,0
295,312,303,299,0
292,308,303,300,0
290,306,302,302,0
289,306,301,304,0
289,307,301,306,0
290,308,301,307,0
290,308,301,308,0
291,307,301,308,0
291,305,302,309,0
291,301,303,310,0
293,297,305,311,0
293,294,307,312,0
294,285,309,313,0
295,271,311,313,0
296,260,314,314,0
298,258,318,315,0
301,266,323,316,0
305,286,326,316,0
308,311,326,316,0
310,331,324,315,0
312,342,322,314,0
314,347,321,313,0
315,348,321,313,0
313,346,320,311,0
310,339,319,309,0
306,332,319,308,0
302,325,318,306,0
296,316,317,305,0
291,308,315,305,0
288,305,313,305,0
288,305,312,306,0
289,303,311,306,0
288,300,309,305,0
288,299,307,304,0
287,299,304,304,0
286,299,302,304,0
286,299,300,304,0
287,301,300,305,0
289,302,300,306,0
290,301,302,307,0
291,301,303,308,0
293,302,306,310,0
295,302,309,311,0
295,302,310,310,0
294,302,310,309,0
293,304,308,307,0
292,308,307,305,0
291,309,305,303,0
290,311,304,301,0
289,315,304,299,0
289,315,305,298,0
290,314,305,297,0
292,315,305,298,0
294,315,305,300,0
295,314,305,303,0
297,314,306,305,0
300,315,306,307,0
302,318,304,307,0
302,320,301,306,0
300,318,297,305,0
296,315,292,305,0
293,310,289,304,0
291,304,286,303,0
291,299,284,302,0
292,297,282,302,0
293,297,283,301,0
294,298,286,301,0
295,296,289,301,0
294,291,292,300,0
293,285,296,301,0
294,282,298,304,0
295,283,302,308,0
297,286,306,312,0
301,293,309,315,0
303,300,311,316,0
304,304,311,316,0
304,306,310,314,0
303,304,306,312,0
301,298,303,309,0
299,293,301,308,0
299,289,300,306,0
298,287,300,304,0
296,288,302,303,0
295,291,304,301,0
293,299,306,299,0
292,311,308,297,0
293,324,310,297,0
293,333,311,298,0
293,334,311,300,0
293,329,311,302,0
292,324,310,303,0
292,322,308,304,0
292,322,307,304,0
292,323,306,304,0
292,322,305,304,0
292,319,306,305,0
292,317,308,306,0
291,314,309,307,0
291,310,311,308,0
293,306,313,310,0
295,303,315,310,0
296,303,316,311,0
297,305,316,312,0
297,308,316,313,0
296,309,316,312,0
294,308,316,312,0
293,305,315,311,0
292,307,315,309,0
292,313,313,308,0
292,319,311,306,0
293,324,310,306,0
294,328,309,306,0
296,332,309,307,0
298,334,309,309,0
300,334,310,310,0
301,331,310,310,0
299,322,309,309,0
296,311,308,308,0
293,301,307,307,0
291,298,305,305,0
291,300,303,304,0
292,299,300,302,0
292,293,297,300,0
291,286,296,298,0
291,279,297,298,0
291,276,299,298,0
290,277,301,299,0
290,284,301,300,0
290,290,300,301,0
289,290,299,301,0
288,286,298,301,0
288,278,297,301,0
289,272,298,301,0
291,273,299,302,0
293,278,301,303,0
296,284,304,304,0
298,293,308,305,0
299,304,310,307,0
300,313,310,306,0
299,320,310,305,0
299,325,310,304,0
298,325,310,303,0
297,321,310,302,0
297,314,310,302,0
297,307,309,302,0
298,303,308,303,0
299,303,305,304,0
301,308,304,305,0
301,313,302,307,0
299,316,300,308,0
298,315,298,309,0
298,314,298,310,0
299,313,300,311,0
298,311,303,312,0
297,310,305,313,0
296,309,306,313,0
294,305,307,313,0
291,300,307,312,0
289,296,307,312,0
288,296,309,312,0
288,300,309,311,0
288,308,310,311,0
289,319,311,311,0
289,328,313,311,0
290,331,314,312,0
291,324,316,312,0
293,313,316,312,0
294,304,316,312,0
297,299,315,312,0
300,298,314,312,0
302,302,312,311,0
302,305,310,309,0
301,307,308,307,0
299,307,306,305,0
295,307,306,303,0
293,307,307,303,0
292,307,308,304,0
293,305,309,306,0
294,305,310,308,0
296,304,310,310,0
297,305,308,310,0
299,308,306,309,0
301,313,306,309,0
303,319,306,310,0
304,319,306,310,0
301,313,305,309,0
298,304,303,308,0
296,293,301,307,0
294,281,299,307,0
293,267,297,306,0
291,255,297,306,0
292,248,300,307,0
295,252,302,308,0
298,268,304,309,0
303,291,305,309,0
306,315,305,307,0
306,334,303,305,0
304,345,303,301,0
300,348,302,300,0
297,345,302,301,0
294,339,303,302,0
292,333,303,303,0
290,327,304,303,0
290,323,305,303,0
289,320,306,302,0
290,318,307,301,0
291,316,307,299,0
292,314,307,299,0
293,310,306,299,0
294,307,305,301,0
294,305,304,302,0
295,303,304,303,0
295,300,303,304,0
294,295,303,305,0
292,293,303,305,0
290,291,302,305,0
289,291,301,305,0
289,291,302,306,0
292,292,303,308,0
295,294,304,310,0
298,297,305,310,0
301,301,306,309,0
303,305,307,309,0
306,310,308,307,0
309,317,309,306,0
312,322,311,305,0
312,322,312,305,0
310,316,312,307,0
307,305,311,309,0
303,292,310,310,0
301,285,309,312,0
300,289,309,314,0
301,299,309,315,0
301,309,308,314,0
301,317,307,313,0
301,319,307,312,0
301,316,307,311,0
299,310,308,311,0
299,304,309,311,0
297,297,310,310,0
296,291,310,309,0
294,285,310,308,0
292,284,310,306,0
290,287,311,305,0
290,301,312,305,0
291,319,313,305,0
293,332,312,305,0
296,336,310,307,0
299,336,308,308,0
302,334,307,309,0
304,330,307,309,0
305,326,308,310,0
305,324,308,309,0
304,323,306,309,0
302,321,305,309,0
299,320,303,308,0
298,319,301,308,0
297,317,301,309,0
298,315,302,311,0
297,311,303,313,0
294,304,303,314,0
291,298,302,314,0
287,295,302,314,0
285,296,300,313,0
284,300,300,313,0
285,310,302,312,0
288,320,304,312,0
291,325,308,311,0
294,324,310,311,0
295,321,313,310,0
294,318,314,309,0
293,313,315,307,0
291,307,314,307,0
290,304,313,307,0
290,305,310,306,0
289,307,308,306,0
290,309,305,305,0
290,311,304,305,0
290,309,302,305,0
290,306,301,306,0
289,303,302,306,0
291,302,305,307,0
293,301,308,310,0
295,300,310,311,0
297,296,312,311,0
298,293,313,312,0
298,291,313,312,0
297,293,313,311,0
296,296,312,310,0
296,299,311,309,0
296,302,311,308,0
296,304,310,308,0
295,303,310,307,0
294,301,311,307,0
293,303,311,306,0
293,309,311,307,0
294,317,311,308,0
295,323,310,309,0
296,325,309,311,0
297,326,308,312,0
298,326,308,314,0
299,325,309,316,0
301,325,310,318,0
302,326,311,319,0
303,326,312,318,0
301,322,312,317,0
298,317,311,315,0
296,312,310,313,0
295,309,309,312,0
295,307,308,311,0
295,306,307,310,0
296,305,306,311,0
297,304,305,312,0
298,304,304,313,0
299,307,304,314,0
299,307,304,314,0
296,303,304,313,0
294,297,303,311,0
291,292,302,308,0
289,287,301,305,0
286,282,300,303,0
285,281,302,301,0
286,287,304,301,0
288,297,306,303,0
291,307,306,304,0
294,314,304,306,0
296,317,302,307,0
298,316,300,308,0
301,317,298,309,0
303,318,300,309,0
304,315,302,309,0
303,312,304,310,0
301,308,306,310,0
299,303,307,310,0
298,300,307,310,0
299,298,307,309,0
300,296,306,309,0
301,292,304,309,0
300,287,303,309,0
299,285,303,311,0
298,291,306,313,0
297,299,309,314,0
294,304,311,314,0
292,308,312,313,0
292,312,313,312,0
291,315,313,310,0
291,316,311,308,0
291,317,308,307,0
291,313,305,306,0
292,306,302,307,0
292,298,300,307,0
291,292,297,308,0
291,290,296,309,0
291,293,295,310,0
291,296,296,310,0
291,300,297,310,0
290,303,299,309,0
290,304,301,309,0
291,305,304,309,0
294,308,308,311,0
297,312,310,313,0
300,316,312,314,0
302,323,312,315,0
302,332,312,315,0
302,342,309,315,0
300,350,308,314,0
301,354,306,313,0
302,354,305,313,0
304,350,305,313,0
306,343,304,313,0
307,333,305,313,0
307,327,306,314,0
306,320,307,313,0
304,312,307,313,0
302,303,306,312,0
299,297,305,312,0
298,294,305,312,0
298,293,305,312,0
298,294,305,311,0
297,297,304,310,0
296,302,304,309,0
295,305,304,309,0
294,306,305,308,0
293,307,306,309,0
293,309,308,309,0
292,306,310,309,0
292,299,311,310,0
291,291,313,310,0
291,283,313,310,0
293,274,313,311,0
295,265,312,312,0
298,256,311,313,0
302,253,310,314,0
306,261,311,315,0
310,279,314,316,0
311,299,316,316,0
309,314,316,314,0
305,324,314,312,0
300,328,311,308,0
296,327,308,306,0
293,324,306,304,0
292,322,305,303,0
291,321,304,303,0
291,317,304,303,0
293,312,306,305,0
298,307,309,308,0
303,303,313,311,0
308,300,316,313,0
308,296,317,313,0
304,287,316,310,0
296,279,314,307,0
290,277,311,304,0
286,282,308,303,0
286,295,306,304,0
288,309,306,305,0
291,322,307,306,0
293,331,308,307,0
294,334,309,308,0
295,332,310,309,0
293,327,310,308,0
292,322,309,308,0
292,317,309,308,0
294,314,308,307,0
295,315,305,306,0
297,320,304,305,0
298,326,303,305,0
300,330,304,307,0
302,327,306,310,0
303,317,307,312,0
303,306,308,314,0
302,298,308,314,0
301,292,307,313,0
300,290,306,312,0
299,292,304,309,0
298,298,304,307,0
298,305,304,306,0
298,311,305,305,0
298,314,306,306,0
299,314,306,308,0
299,313,305,309,0
299,311,303,310,0
298,308,303,311,0
299,306,303,312,0
299,304,304,312,0
299,299,304,312,0
299,295,304,311,0
300,294,304,311,0
304,299,305,312,0
308,311,307,313,0
310,322,307,313,0
308,325,306,311,0
304,321,305,309,0
300,314,303,308,0
296,311,302,306,0
294,311,303,306,0
293,311,304,306,0
291,308,305,305,0
289,303,306,304,0
288,299,306,304,0
287,297,308,305,0
289,299,310,306,0
291,304,313,307,0
293,308,315,307,0
294,308,316,307,0
294,305,316,307,0
292,298,314,307,0
290,288,312,307,0
288,281,311,307,0
288,277,309,306,0
286,275,306,305,0
285,280,304,304,0
287,298,304,305,0
292,323,304,306,0
297,348,305,307,0
301,366,306,307,0
301,367,305,305,0
299,348,304,303,0
295,321,302,301,0
292,300,302,301,0
291,292,303,301,0
292,296,304,302,0
294,308,305,303,0
297,318,305,304,0
298,322,305,304,0
298,321,305,305,0
298,319,307,306,0
298,318,310,306,0
298,320,313,307,0
300,324,316,308,0
301,328,317,309,0
301,329,316,308,0
300,328,314,307,0
299,325,311,306,0
298,322,307,306,0
297,317,305,307,0
297,310,305,307,0
295,298,305,308,0
293,286,305,308,0
293,276,307,309,0
294,273,309,309,0
294,278,310,308,0
295,289,310,307,0
296,303,309,306,0
296,314,307,305,0
296,320,306,304,0
296,320,305,303,0
297,317,305,302,0
300,317,306,302,0
304,324,310,302,0
309,334,312,302,0
311,342,313,302,0
309,345,312,301,0
307,344,310,301,0
304,336,307,302,0
303,324,305,302,0
302,312,302,302,0
300,303,299,302,0
298,297,297,302,0
296,293,295,302,0
294,294,294,303,0
293,299,294,304,0
292,302,295,306,0
291,302,297,308,0
292,301,300,310,0
293,299,303,312,0
294,298,305,313,0
295,296,307,312,0
297,295,308,310,0
298,295,308,309,0
299,299,309,308,0
300,302,310,308,0
300,305,311,308,0
299,305,311,307,0
296,302,311,307,0
294,296,312,307,0
294,290,312,307,0
294,286,313,309,0
295,287,313,310,0
295,291,314,310,0
294,297,312,309,0
293,301,310,308,0
292,306,309,308,0
293,312,309,308,0
295,318,309,309,0
297,321,311,310,0
298,323,311,310,0
297,321,311,310,0
295,317,310,309,0
295,313,310,309,0
294,309,310,308,0
295,308,309,307,0
295,309,308,306,0
295,309,306,305,0
295,304,303,305,0
295,298,302,305,0
295,292,301,305,0
295,285,299,306,0
293,281,299,305,0
292,282,299,305,0
293,290,299,306,0
296,302,299,307,0
299,313,300,308,0
302,324,300,308,0
303,334,300,306,0
301,338,299,304,0
299,331,299,304,0
298,320,301,306,0
298,307,304,309,0
299,294,307,310,0
299,284,309,310,0
299,278,311,310,0
300,282,311,310,0
300,294,311,310,0
300,305,310,310,0
298,311,309,309,0
297,313,309,309,0
296,311,309,309,0
294,304,311,309,0
294,296,312,310,0
294,290,313,311,0
295,288,315,312,0
296,292,316,312,0
298,301,317,312,0
300,310,317,310,0
301,313,316,308,0
300,311,313,305,0
300,309,310,303,0
300,311,307,302,0
300,314,305,301,0
300,314,303,300,0
300,313,301,300,0
299,311,299,300,0
298,309,298,301,0
297,308,296,302,0
297,312,295,303,0
299,320,295,305,0
300,329,297,306,0
300,333,298,307,0
299,331,300,308,0
297,326,301,310,0
297,319,303,311,0
296,314,306,313,0
296,309,308,313,0
296,304,310,313,0
295,299,312,312,0
294,293,312,311,0
293,292,312,310,0
293,297,313,309,0
294,304,314,309,0
295,308,315,309,0
295,309,315,308,0
297,309,316,307,0
299,310,317,307,0
301,310,318,306,0
302,307,318,306,0
302,305,316,305,0
301,306,314,303,0
300,312,313,303,0
301,321,312,303,0
303,330,311,304,0
304,335,310,303,0
302,335,307,301,0
300,329,304,300,0
297,317,303,300,0
295,301,302,300,0
293,286,300,300,0
292,275,298,301,0
293,270,298,304,0
295,272,299,307,0
299,281,302,310,0
304,292,306,313,0
308,304,309,313,0
306,310,310,312,0
302,308,310,310,0
297,303,309,308,0
293,301,308,308,0
292,301,307,308,0
292,303,306,308,0
292,306,306,308,0
292,311,305,309,0
292,316,304,309,0
292,319,303,309,0
292,322,303,309,0
293,325,303,310,0
294,326,304,311,0
294,325,305,311,0
295,322,306,311,0
294,317,306,309,0
293,310,306,307,0
292,303,304,304,0
290,297,304,303,0
289,294,304,302,0
289,294,304,302,0
290,298,305,303,0
291,304,308,305,0
293,308,309,306,0
294,310,309,308,0
296,310,310,309,0
298,308,311,310,0
299,304,311,311,0
298,298,310,310,0
296,296,309,310,0
295,297,309,310,0
295,297,310,310,0
294,295,311,309,0
294,286,313,308,0
295,274,314,308,0
295,265,314,307,0
296,265,314,308,0
297,278,314,309,0
298,297,311,309,0
297,315,307,308,0
297,329,301,307,0
297,334,297,306,0
297,332,292,305,0
297,324,289,304,0
297,314,287,304,0
297,304,287,305,0
296,297,289,307,0
296,292,292,309,0
296,291,296,309,0
294,292,299,309,0
294,298,301,309,0
294,306,302,308,0
294,315,304,308,0
295,324,305,307,0
295,327,306,307,0
296,325,306,308,0
297,320,306,308,0
298,317,307,309,0
300,319,308,310,0
301,324,310,310,0
301,326,311,309,0
300,325,311,308,0
298,323,311,307,0
297,319,310,306,0
296,315,310,305,0
294,313,309,304,0
293,312,309,304,0
293,315,309,304,0
293,320,309,305,0
293,322,310,306,0
293,319,311,307,0
294,313,311,308,0
296,308,310,309,0
298,307,309,310,0
302,313,308,310,0
304,319,308,310,0
305,320,308,310,0
304,320,306,309,0
302,317,304,308,0
298,313,302,307,0
294,305,299,306,0
291,298,296,306,0
290,291,295,306,0
290,283,295,307,0
292,277,297,309,0
295,277,300,311,0
297,281,303,312,0
296,284,305,313,0
294,285,308,313,0
293,289,309,314,0
293,294,310,313,0
294,299,310,312,0
297,305,309,309,0
300,310,307,306,0
302,313,306,305,0
303,315,304,304,0
301,315,303,304,0
299,314,302,305,0
298,314,300,305,0
297,315,299,305,0
298,316,298,305,0
298,318,297,305,0
299,319,298,305,0
301,321,300,306,0
302,323,302,308,0
304,324,305,310,0
306,324,307,311,0
306,320,307,312,0
305,313,307,311,0
303,304,308,310,0
301,292,309,310,0
300,277,310,310,0
298,264,310,310,0
298,255,311,310,0
299,258,312,312,0
302,275,313,313,0
304,292,314,313,0
303,300,312,311,0
301,303,310,309,0
299,306,306,307,0
297,311,302,305,0
297,317,299,304,0
298,323,297,303,0
300,326,296,303,0
299,325,294,302,0
297,321,295,301,0
294,316,296,300,0
291,317,298,300,0
289,322,299,300,0
289,327,300,301,0
289,326,302,302,0
290,320,304,303,0
292,315,307,304,0
295,313,311,305,0
298,314,315,306,0
299,316,318,306,0
299,316,319,306,0
297,312,319,305,0
296,303,318,305,0
293,290,315,305,0
290,277,313,306,0
289,269,312,308,0
289,270,312,312,0
291,277,312,313,0
293,288,312,315,0
295,300,311,315,0
297,306,311,315,0
298,307,309,314,0
298,306,307,311,0
299,308,306,309,0
299,311,304,308,0
300,313,304,307,0
301,312,305,306,0
300,310,305,305,0
300,309,305,306,0
300,310,305,307,0
302,314,305,308,0
304,321,306,309,0
306,329,307,309,0
306,334,307,309,0
306,334,307,308,0
305,332,306,308,0
306,329,307,307,0
308,327,307,308,0
309,325,306,308,0
309,323,305,307,0
307,319,303,307,0
303,314,301,306,0
300,309,299,306,0
298,305,299,305,0
296,302,300,305,0
294,301,300,304,0
290,298,299,303,0
288,294,297,302,0
287,292,296,302,0
288,291,295,301,0
290,291,294,301,0
292,290,292,300,0
293,288,293,299,0
295,288,295,301,0
297,291,298,303,0
298,300,303,304,0
299,313,306,306,0
300,326,309,306,0
300,339,311,306,0
300,344,312,305,0
300,339,311,304,0
299,329,310,303,0
299,320,308,302,0
297,312,307,300,0
296,305,306,300,0
296,300,305,300,0
297,298,305,301,0
300,299,304,301,0
302,301,304,302,0
304,303,302,304,0
307,302,302,305,0
309,299,302,308,0
311,299,302,310,0
312,301,302,311,0
311,303,302,309,0
308,300,300,306,0
303,294,298,302,0
298,287,298,299,0
293,284,299,298,0
291,286,303,298,0
291,292,308,300,0
292,300,312,302,0
294,307,315,303,0
295,310,317,302,0
296,310,318,301,0
297,310,317,301,0
298,308,315,302,0
297,301,313,304,0
295,292,311,307,0
294,285,311,308,0
293,281,311,310,0
293,281,311,311,0
293,285,310,311,0
292,290,308,311,0
292,293,307,311,0
292,293,306,312,0
293,294,305,312,0
296,296,305,312,0
297,300,304,311,0
299,304,304,311,0
301,313,304,310,0
303,324,305,310,0
302,332,304,308,0
301,333,303,307,0
300,332,301,307,0
298,331,300,306,0
297,329,299,305,0
296,326,299,305,0
295,321,299,304,0
295,319,299,304,0
296,317,300,303,0
297,315,300,302,0
296,313,300,302,0
297,309,302,304,0
298,305,305,307,0
300,299,306,309,0
301,293,306,310,0
303,293,304,312,0
303,299,304,312,0
303,308,304,312,0
300,316,304,312,0
297,321,304,312,0
294,322,305,312,0
292,316,306,311,0
291,310,306,310,0
291,308,306,309,0
292,308,305,307,0
293,309,304,305,0
296,312,303,304,0
300,316,303,303,0
303,323,303,301,0
305,330,303,301,0
304,336,302,299,0
303,337,301,298,0
302,336,301,299,0
302,330,302,300,0
303,323,304,302,0
302,317,307,304,0
299,309,308,304,0
295,296,308,304,0
291,282,307,303,0
288,272,306,304,0
286,269,307,304,0
287,273,309,305,0
289,281,310,306,0
291,288,310,305,0
293,293,310,305,0
295,297,310,305,0
297,303,309,304,0
298,306,307,304,0
298,307,305,303,0
299,303,303,303,0
299,295,302,304,0
299,283,300,305,0
298,270,300,306,0
297,261,302,307,0
297,260,305,308,0
298,263,307,309,0
298,273,309,311,0
300,290,310,311,0
301,308,311,311,0
300,318,311,310,0
299,320,312,308,0
298,324,312,307,0
298,330,313,306,0
300,337,314,307,0
302,342,314,308,0
302,339,314,308,0
302,331,313,309,0
302,322,313,311,0
302,315,314,312,0
304,313,313,313,0
308,319,312,313,0
312,329,310,313,0
315,336,308,312,0
316,337,306,311,0
314,333,305,309,0
311,326,305,307,0
309,319,304,304,0
306,315,304,301,0
303,313,303,297,0
300,311,301,294,0
299,311,300,292,0
300,313,300,292,0
301,314,301,293,0
301,314,302,296,0
299,313,304,299,0
298,312,306,302,0
297,310,307,306,0
296,309,308,309,0
296,310,309,312,0
297,311,310,314,0
297,314,311,315,0
296,315,310,315,0
295,313,308,314,0
292,309,305,312,0
290,304,303,308,0
290,302,303,307,0
292,302,303,308,0
294,302,304,310,0
295,298,304,311,0
294,289,303,311,0
292,280,302,310,0
289,273,301,309,0
289,269,301,309,0
289,267,302,309,0
290,268,302,309,0
292,272,302,310,0
293,277,303,311,0
295,283,305,313,0
297,293,307,314,0
299,304,310,315,0
301,311,314,316,0
302,311,317,317,0
302,306,320,317,0
302,301,322,317,0
303,296,324,318,0
304,294,326,319,0
307,298,328,319,0
309,308,327,318,0
310,324,327,317,0
309,338,325,315,0
306,342,321,312,0
303,338,317,310,0
301,329,313,308,0
298,318,310,306,0
297,305,307,305,0
295,296,305,304,0
293,293,303,303,0
291,294,301,303,0
290,297,301,304,0
291,299,300,305,0
292,299,298,305,0
294,296,297,305,0
295,294,296,306,0
295,294,296,307,0
296,297,297,308,0
296,302,298,309,0
296,309,300,309,0
295,316,301,309,0
295,322,303,308,0
296,328,304,308,0
298,333,306,307,0
299,334,308,308,0
301,332,310,309,0
302,328,312,310,0
303,323,313,311,0
304,316,314,312,0
304,309,315,311,0
303,303,315,309,0
301,298,313,306,0
298,295,312,304,0
297,294,311,304,0
297,294,311,304,0
298,295,311,306,0
301,298,311,307,0
303,302,310,308,0
305,306,309,308,0
304,308,307,308,0
303,309,304,307,0
301,309,302,306,0
301,304,301,306,0
300,294,300,305,0
298,281,297,305,0
295,270,295,305,0
290,263,294,305,0
288,263,294,306,0
288,271,297,308,0
290,283,301,309,0
293,298,305,310,0
297,313,308,309,0
300,326,309,307,0
302,335,308,304,0
302,341,307,302,0
300,342,305,300,0
298,341,304,300,0
298,337,302,300,0
298,332,303,301,0
299,327,305,303,0
302,325,308,305,0
304,322,310,306,0
306,318,311,307,0
305,310,310,306,0
302,301,307,305,0
297,294,303,304,0
291,292,299,303,0
288,294,297,303,0
287,302,297,304,0
289,314,299,306,0
292,326,301,306,0
296,332,303,307,0
301,333,305,307,0
305,330,307,307,0
308,326,308,307,0
307,321,308,307,0
304,315,308,306,0
299,309,308,305,0
295,304,308,306,0
294,303,308,307,0
293,302,310,308,0
294,303,312,309,0
295,304,313,310,0
296,305,314,310,0
297,306,314,309,0
298,307,314,309,0
297,305,315,308,0
298,303,315,308,0
300,300,315,308,0
302,297,315,308,0
303,294,314,307,0
304,294,313,305,0
306,298,312,305,0
308,305,311,305,0
307,310,310,304,0
305,312,309,304,0
304,313,309,304,0
302,312,308,305,0
299,309,306,305,0
297,307,304,305,0
295,307,303,304,0
295,306,302,303,0
295,306,301,302,0
296,307,301,301,0
298,306,302,298,0
299,300,304,297,0
299,293,306,296,0
299,289,309,298,0
300,293,311,300,0
299,301,312,302,0
299,312,310,303,0
300,324,310,303,0
303,335,311,303,0
305,344,312,304,0
307,352,313,305,0
307,353,313,305,0
305,347,312,305,0
304,336,310,305,0
303,327,310,306,0
303,320,310,306,0
301,314,309,307,0
300,306,309,308,0
299,298,308,308,0
298,292,307,307,0
298,290,306,307,0
299,293,304,307,0
301,298,303,306,0
302,303,302,306,0
302,302,300,305,0
301,297,299,304,0
300,290,297,304,0
299,286,298,305,0
301,287,299,306,0
304,291,300,307,0
305,294,302,308,0
307,298,304,308,0
307,302,305,308,0
307,304,306,308,0
305,303,306,307,0
303,301,304,306,0
301,301,304,306,0
302,306,306,306,0
303,311,308,307,0
303,313,310,307,0
302,314,311,307,0
300,313,311,307,0
299,312,311,307,0
299,310,311,308,0
300,308,311,308,0
301,308,310,309,0
303,307,310,310,0
304,305,309,310,0
305,298,309,310,0
304,288,308,310,0
303,277,307,309,0
303,270,307,308,0
304,270,307,308,0
305,275,307,309,0
304,282,308,310,0
303,287,307,310,0
300,289,306,310,0
297,289,306,309,0
296,291,307,309,0
296,293,309,311,0
299,296,311,312,0
302,297,312,313,0
303,292,311,312,0
305,283,309,310,0
307,279,308,309,0
309,285,308,308,0
311,301,308,306,0
311,320,307,304,0
308,335,305,301,0
304,343,302,299,0
299,344,300,300,0
295,342,299,300,0
293,340,300,302,0
293,336,301,303,0
292,330,302,303,0
294,323,303,303,0
295,316,304,303,0
295,311,305,304,0
296,306,305,306,0
298,307,306,309,0
300,312,308,311,0
302,315,310,313,0
304,317,312,314,0
306,319,313,316,0
308,320,312,317,0
309,319,309,317,0
309,318,306,317,0
308,322,304,315,0
307,326,301,313,0
306,327,300,312,0
306,322,300,311,0
306,316,302,311,0
306,312,305,311,0
304,308,307,310,0
301,302,309,309,0
300,295,309,309,0
299,291,310,309,0
299,287,311,309,0
300,281,311,309,0
300,275,310,310,0
299,273,308,310,0
299,277,307,310,0
300,283,306,311,0
300,289,305,310,0
301,297,304,308,0
301,306,302,306,0
301,315,300,304,0
301,321,300,303,0
301,323,300,304,0
302,323,300,304,0
302,320,300,304,0
302,318,300,304,0
301,315,300,303,0
302,314,300,303,0
302,314,299,303,0
301,310,298,302,0
300,299,297,301,0
300,289,296,302,0
301,284,297,302,0
303,287,297,302,0
306,297,300,303,0
308,310,303,304,0
308,320,305,304,0
307,327,306,305,0
305,330,307,306,0
304,328,308,307,0
304,324,309,307,0
306,317,311,307,0
309,309,313,308,0
312,303,316,309,0
313,300,317,310,0
311,300,316,309,0
309,304,314,309,0
306,311,312,309,0
304,318,310,309,0
302,322,308,310,0
301,321,308,311,0
300,315,309,311,0
299,309,310,310,0
298,308,311,310,0
298,313,310,308,0
298,319,309,307,0
297,322,308,306,0
297,319,307,306,0
296,314,306,305,0
296,307,305,305,0
296,303,305,305,0
296,302,305,306,0
296,303,304,306,0
295,305,302,306,0
295,305,300,306,0
295,302,299,307,0
295,294,300,308,0
296,284,299,309,0
295,275,300,309,0
295,269,301,309,0
296,264,303,310,0
299,266,305,311,0
302,275,306,313,0
304,288,306,314,0
307,301,307,314,0
309,310,307,314,0
311,315,307,312,0
312,319,306,310,0
312,322,305,307,0
312,325,306,305,0
313,328,308,304,0
314,331,312,303,0
316,330,315,303,0
317,326,318,303,0
315,319,319,303,0
313,312,318,304,0
312,310,317,306,0
313,309,316,308,0
314,310,314,310,0
313,311,312,310,0
312,313,310,310,0
309,314,309,308,0
303,313,307,306,0
298,312,307,305,0
296,313,308,305,0
296,316,309,304,0
294,319,310,301,0
293,322,311,300,0
294,325,312,299,0
294,326,311,300,0
295,326,309,302,0
296,324,307,303,0
298,320,305,303,0
301,316,306,304,0
304,312,308,305,0
306,308,308,306,0
307,304,307,306,0
306,301,306,305,0
304,300,305,303,0
302,301,303,301,0
300,304,302,300,0
300,308,303,299,0
300,308,304,299,0
301,306,305,299,0
302,303,306,300,0
303,298,308,302,0
303,291,310,304,0
303,280,311,306,0
302,265,312,308,0
300,254,313,309,0
300,254,313,310,0
299,270,313,310,0
299,290,310,309,0
298,309,308,308,0
297,324,306,308,0
297,328,305,308,0
297,324,304,308,0
298,320,302,307,0
297,318,301,305,0
297,318,300,303,0
296,320,300,302,0
297,323,301,303,0
299,327,301,302,0
302,328,301,303,0
305,328,301,304,0
306,324,301,304,0
307,320,302,304,0
306,318,302,303,0
305,317,303,303,0
305,317,304,303,0
306,317,305,303,0
306,314,304,303,0
305,309,302,303,0
304,303,301,303,0
303,297,300,304,0
302,297,301,305,0
303,302,303,307,0
304,312,305,307,0
306,322,307,308,0
307,329,308,309,0
308,328,311,310,0
308,321,312,310,0
306,314,313,310,0
304,308,312,309,0
302,302,310,308,0
299,298,308,307,0
298,294,306,306,0
299,293,306,307,0
300,294,308,308,0
303,297,311,309,0
305,302,312,308,0
305,306,313,308,0
304,306,314,308,0
302,303,314,307,0
301,297,314,308,0
301,290,314,308,0
301,284,314,308,0
301,278,314,309,0
303,274,314,310,0
305,274,315,310,0
308,277,314,310,0
310,284,313,309,0
311,296,311,307,0
309,309,307,303,0
306,320,302,300,0
304,329,297,297,0
302,333,294,297,0
303,333,293,298,0
304,333,294,300,0
306,332,296,302,0
308,335,298,304,0
309,340,300,306,0
309,341,302,307,0
306,328,302,308,0
302,310,302,307,0
297,292,303,307,0
293,278,304,307,0
292,274,306,307,0
292,280,307,306,0
291,289,306,306,0
292,299,305,307,0
294,307,305,307,0
296,310,306,308,0
298,308,307,310,0
300,304,309,310,0
301,305,310,310,0
302,310,309,309,0
302,318,307,308,0
303,327,306,306,0
304,335,304,305,0
303,337,302,304,0
302,334,302,304,0
302,329,303,305,0
302,326,305,306,0
303,322,306,307,0
303,318,306,307,0
305,314,306,308,0
306,311,306,307,0
305,310,307,306,0
304,308,306,306,0
302,306,306,306,0
302,303,307,307,0
302,299,307,308,0
302,294,307,309,0
301,288,306,310,0
302,283,307,311,0
303,280,307,311,0
304,282,307,311,0
305,290,306,309,0
305,300,303,306,0
302,309,299,302,0
299,314,294,298,0
297,316,290,297,0
296,319,290,295,0
295,323,291,295,0
295,327,293,294,0
294,328,293,294,0
293,322,293,293,0
291,314,294,294,0
290,305,295,296,0
289,297,298,299,0
290,288,301,303,0
292,277,305,308,0
294,265,308,311,0
296,257,312,314,0
299,257,315,317,0
303,271,318,319,0
307,291,320,320,0
308,310,321,320,0
309,329,322,319,0
309,345,322,318,0
307,352,321,316,0
304,352,320,314,0
302,350,318,312,0
301,348,316,311,0
301,348,315,310,0
301,347,314,309,0
300,343,314,308,0
299,336,313,308,0
299,324,312,307,0
298,309,311,306,0
298,295,310,306,0
299,286,309,306,0
300,283,309,307,0
301,283,307,307,0
302,286,305,307,0
302,292,303,307,0
301,297,300,305,0
300,301,297,305,0
298,304,296,304,0
297,307,297,304,0
298,310,301,304,0
298,310,305,304,0
299,307,308,305,0
300,305,311,304,0
302,307,313,304,0
304,313,314,304,0
307,322,315,304,0
309,330,315,304,0
310,337,315,305,0
310,340,313,306,0
309,338,312,307,0
307,331,311,308,0
304,320,311,308,0
301,305,310,308,0
297,288,308,307,0
294,271,307,308,0
293,260,307,309,0
295,259,309,310,0
298,266,310,310,0
301,280,311,310,0
303,294,313,309,0
304,305,312,308,0
304,312,311,307,0
303,316,310,305,0
303,316,308,304,0
302,314,304,302,0
301,308,302,300,0
299,304,300,300,0
298,305,299,299,0
296,310,299,299,0
294,319,298,299,0
293,327,300,300,0
293,334,302,302,0
294,332,305,304,0
294,319,306,305,0
292,299,306,307,0
290,279,307,308,0
289,264,308,308,0
289,259,310,310,0
290,266,313,312,0
294,280,316,316,0
298,294,317,318,0
304,303,318,320,0
308,307,317,319,0
310,304,314,317,0
310,301,311,313,0
310,301,307,310,0
310,304,304,308,0
309,309,302,306,0
307,313,300,305,0
305,314,299,304,0
304,312,300,304,0
303,310,302,304,0
303,307,304,305,0
302,308,306,305,0
301,309,307,305,0
299,311,308,305,0
299,313,308,305,0
299,315,307,304,0
300,315,308,303,0
301,314,308,303,0
302,311,309,303,0
302,306,310,303,0
301,302,310,304,0
300,300,310,305,0
301,302,312,308,0
303,306,313,310,0
305,309,314,312,0
306,310,314,312,0
306,310,314,312,0
307,312,313,313,0
308,313,312,313,0
309,310,312,314,0
308,302,311,313,0
305,293,309,312,0
301,285,308,311,0
299,279,307,310,0
298,277,307,310,0
299,279,307,311,0
299,281,307,310,0
299,282,306,310,0
298,284,304,309,0
298,286,303,308,0
297,287,301,308,0
297,289,297,307,0
296,292,293,306,0
295,297,290,306,0
294,304,289,305,0
296,311,290,306,0
297,314,291,306,0
299,316,293,307,0
299,316,294,308,0
297,311,295,308,0
295,301,298,309,0
294,293,301,310,0
295,292,306,311,0
298,297,312,312,0
301,303,315,312,0
302,304,316,311,0
302,302,315,310,0
301,298,315,310,0
302,293,316,311,0
305,289,317,312,0
307,291,317,314,0
308,296,316,314,0
305,299,312,312,0
301,302,309,309,0
298,307,305,306,0
295,314,303,304,0
294,321,301,303,0
294,330,301,303,0
295,338,304,304,0
297,341,307,305,0
298,338,310,307,0
299,332,312,307,0
300,327,313,308,0
301,325,313,308,0
303,322,313,308,0
303,318,311,308,0
302,314,310,308,0
303,315,310,308,0
303,319,309,308,0
302,322,308,307,0
302,323,307,307,0
302,322,306,306,0
302,323,305,305,0
302,325,304,305,0
303,326,303,305,0
304,325,303,306,0
306,321,303,307,0
307,317,302,308,0
306,313,303,309,0
306,309,303,310,0
304,306,303,311,0
302,304,304,311,0
300,301,306,311,0
298,299,307,311,0
298,297,308,311,0
298,295,308,310,0
298,297,308,309,0
300,303,308,309,0
301,308,307,309,0
303,313,307,309,0
303,315,307,309,0
303,311,307,309,0
302,299,307,309,0
301,287,308,308,0
301,279,310,309,0
301,277,311,308,0
300,278,311,307,0
299,281,310,306,0
299,285,309,305,0
299,289,309,306,0
299,292,309,306,0
299,293,309,307,0
298,290,309,307,0
297,286,309,308,0
297,282,310,308,0
298,280,310,309,0
298,278,310,309,0
298,278,309,308,0
298,280,308,308,0
297,288,308,308,0
299,301,309,307,0
302,316,309,307,0
305,330,309,307,0
308,338,309,307,0
309,339,307,307,0
307,334,304,306,0
305,327,301,306,0
303,318,299,305,0
301,311,299,305,0
301,304,300,305,0
301,298,301,305,0
302,295,303,306,0
303,294,304,307,0
303,294,304,307,0
303,297,302,307,0
302,304,301,306,0
303,310,300,305,0
304,314,299,304,0
305,314,299,303,0
305,310,299,302,0
306,307,299,300,0
306,305,301,300,0
308,306,304,300,0
310,309,306,302,0
310,312,308,303,0
308,313,310,305,0
307,318,311,307,0
306,321,312,309,0
305,321,313,310,0
303,322,312,310,0
301,321,312,310,0
300,313,313,309,0
301,308,314,309,0
302,308,313,309,0
303,313,312,309,0
301,319,311,309,0
300,328,309,309,0
301,336,308,308,0
304,341,308,307,0
306,340,306,305,0
306,334,305,303,0
304,324,303,301,0
301,313,301,299,0
297,302,299,299,0
295,294,298,299,0
293,289,297,300,0
292,287,296,301,0
291,288,295,301,0
291,288,295,302,0
290,284,295,303,0
291,278,297,304,0
292,272,300,307,0
294,267,304,310,0
297,266,308,312,0
299,269,311,313,0
302,277,314,313,0
303,289,315,313,0
305,305,316,311,0
307,319,314,309,0
308,326,311,306,0
309,328,308,305,0
309,326,304,304,0
309,326,301,303,0
309,330,300,304,0
310,333,301,305,0
309,330,302,305,0
308,325,302,305,0
307,318,304,304,0
306,313,306,303,0
304,311,309,302,0
304,312,310,301,0
304,314,310,300,0
304,314,310,300,0
303,310,309,301,0
302,304,308,302,0
301,299,307,303,0
301,296,306,304,0
300,297,305,305,0
299,301,304,306,0
298,307,304,306,0
299,316,304,307,0
300,320,305,308,0
300,320,305,308,0
300,319,304,308,0
300,319,304,308,0
300,323,306,308,0
301,329,309,308,0
304,330,311,308,0
306,324,311,309,0
305,313,309,308,0
303,303,307,307,0
301,295,305,306,0
301,289,303,306,0
302,285,304,305,0
303,282,305,304,0
303,284,306,303,0
301,288,306,302,0
301,296,307,303,0
300,303,307,303,0
299,308,307,303,0
298,310,307,303,0
298,309,307,304,0
297,307,307,304,0
297,308,308,303,0
297,310,308,302,0
297,310,309,300,0
295,307,309,300,0
294,302,308,300,0
294,295,308,301,0
294,288,307,303,0
295,284,305,303,0
296,280,304,304,0
297,275,303,305,0
298,274,302,307,0
299,280,302,308,0
301,290,302,309,0
304,303,303,309,0
306,317,304,308,0
307,328,305,306,0
306,337,305,304,0
305,342,305,302,0
304,341,306,301,0
304,335,306,301,0
301,327,305,301,0
299,317,305,302,0
296,305,305,303,0
294,294,305,304,0
293,285,304,305,0
294,277,304,307,0
295,277,304,309,0
297,282,305,311,0
298,291,306,313,0
300,304,306,314,0
302,316,306,314,0
304,322,306,313,0
305,323,307,312,0
305,322,309,310,0
305,317,311,309,0
306,313,313,309,0
307,311,314,309,0
308,311,313,309,0
309,314,312,310,0
309,318,311,310,0
309,323,310,309,0
307,328,307,308,0
306,331,305,306,0
304,333,302,305,0
303,335,300,305,0
302,336,299,304,0
299,333,298,302,0
297,327,298,301,0
294,320,298,301,0
292,313,297,300,0
290,303,297,300,0
290,294,297,301,0
291,286,297,302,0
292,281,298,303,0
294,278,299,304,0
296,280,300,306,0
298,287,302,306,0
300,296,304,307,0
302,305,306,308,0
302,312,308,308,0
302,318,310,308,0
302,323,312,309,0
302,322,312,310,0
302,319,312,309,0
302,314,311,309,0
301,310,309,309,0
298,305,308,308,0
295,300,309,308,0
294,299,310,309,0
294,301,312,309,0
294,302,311,309,0
293,299,310,307,0
293,292,308,304,0
291,284,307,302,0
290,277,308,302,0
290,276,309,302,0
292,279,311,303,0
293,284,313,304,0
295,288,315,306,0
296,293,318,308,0
297,299,320,308,0
299,305,321,309,0
299,309,321,309,0
298,312,320,309,0
298,314,318,308,0
298,315,315,308,0
297,318,311,308,0
297,324,308,307,0
297,329,305,306,0
298,330,303,306,0
300,328,302,305,0
302,327,302,305,0
303,325,303,304,0
302,320,303,303,0
301,313,304,303,0
300,305,304,303,0
299,299,306,304,0
300,296,308,305,0
301,295,309,305,0
301,295,311,306,0
303,298,312,306,0
304,304,313,307,0
303,311,312,307,0
302,318,311,307,0
301,321,310,307,0
299,319,309,307,0
298,314,309,308,0
297,309,308,308,0
297,305,306,307,0
297,301,306,307,0
298,299,305,307,0
299,299,304,308,0
300,299,304,309,0
300,297,304,309,0
299,293,303,310,0
299,286,303,311,0
298,279,302,312,0
299,274,303,314,0
300,274,305,315,0
302,282,308,316,0
306,292,312,317,0
308,299,313,318,0
308,304,313,317,0
306,309,310,315,0
302,310,307,312,0
300,307,305,311,0
300,300,303,311,0
300,293,304,312,0
302,289,305,313,0
303,289,305,313,0
303,295,305,312,0
304,304,305,312,0
305,315,303,310,0
305,321,300,309,0
304,324,298,307,0
303,325,297,307,0
302,325,296,306,0
302,327,297,307,0
302,328,297,307,0
301,327,298,306,0
300,326,298,306,0
300,328,298,306,0
300,329,299,306,0
300,326,300,306,0
300,320,301,306,0
300,314,303,307,0
301,309,305,308,0
304,306,307,309,0
307,308,310,311,0
311,318,312,312,0
314,330,313,313,0
316,335,311,312,0
314,326,308,311,0
312,313,305,310,0
310,300,303,309,0
311,291,304,309,0
312,289,306,309,0
314,292,308,310,0
315,298,310,310,0
314,302,311,309,0
312,303,311,308,0
308,303,311,307,0
306,306,311,306,0
306,311,312,307,0
306,317,314,307,0
306,321,315,307,0
305,321,315,308,0
305,317,315,308,0
304,309,314,308,0
302,301,313,308,0
300,297,312,308,0
299,298,312,309,0
300,301,311,309,0
301,306,309,309,0
302,312,307,309,0
304,319,305,308,0
304,321,303,306,0
304,319,302,304,0
304,315,301,304,0
303,312,300,303,0
303,310,300,303,0
304,307,300,302,0
304,306,301,303,0
304,304,301,303,0
303,301,301,304,0
302,300,301,305,0
303,301,302,306,0
303,301,303,307,0
305,298,303,308,0
307,295,304,309,0
308,293,304,310,0
308,292,304,311,0
308,294,304,311,0
308,294,304,311,0
309,289,304,312,0
308,278,304,312,0
306,265,303,311,0
305,257,301,310,0
304,255,299,309,0
304,262,297,308,0
306,275,296,308,0
308,290,295,307,0
309,304,296,307,0
311,314,296,307,0
312,320,298,308,0
312,323,302,309,0
311,322,304,308,0
309,314,306,308,0
309,308,307,308,0
309,306,308,308,0
310,304,309,309,0
311,301,311,311,0
311,298,312,312,0
309,297,312,311,0
305,298,312,311,0
302,298,311,309,0
298,301,310,307,0
297,306,309,305,0
297,312,307,303,0
298,319,306,302,0
297,322,303,302,0
296,323,299,302,0
296,323,296,304,0
296,320,294,305,0
297,315,291,306,0
297,311,291,306,0
298,311,293,309,0
300,314,296,311,0
301,315,300,312,0
301,316,304,312,0
300,317,308,311,0
300,318,313,311,0
300,317,317,311,0
299,313,319,310,0
299,307,321,309,0
299,300,322,309,0
299,292,323,308,0
300,284,323,308,0
300,275,322,306,0
300,271,322,305,0
301,276,322,304,0
302,288,322,304,0
303,302,319,303,0
302,314,316,303,0
302,324,313,305,0
303,331,311,307,0
304,333,311,310,0
304,333,310,312,0
304,334,309,313,0
303,338,307,314,0
300,337,305,313,0
299,331,305,313,0
300,324,306,313,0
302,317,307,313,0
305,312,308,313,0
306,308,309,313,0
307,305,310,312,0
305,304,310,311,0
303,304,310,310,0
301,304,310,309,0
300,301,309,308,0
299,295,309,308,0
299,289,308,309,0
299,284,306,309,0
300,283,305,310,0
303,285,304,311,0
307,292,304,311,0
310,299,305,311,0
313,306,304,311,0
311,311,304,311,0
310,315,304,311,0
308,315,305,310,0
306,310,307,310,0
304,304,308,308,0
300,302,308,306,0
299,306,308,305,0
298,312,308,304,0
298,316,308,304,0
297,318,308,304,0
297,318,308,304,0
298,316,307,305,0
298,313,308,306,0
298,309,308,308,0
298,306,308,309,0
299,306,308,310,0
300,306,308,310,0
300,308,309,311,0
301,310,310,310,0
303,313,311,310,0
304,318,311,310,0
306,322,310,309,0
307,324,309,308,0
309,323,306,306,0
309,317,302,304,0
308,306,298,302,0
306,296,295,301,0
304,289,296,301,0
302,290,299,303,0
302,298,304,304,0
301,310,307,304,0
299,322,308,303,0
296,331,309,302,0
295,337,308,303,0
295,338,308,303,0
295,331,308,303,0
295,323,308,303,0
295,315,308,303,0
296,307,309,303,0
297,302,312,304,0
300,297,315,305,0
303,293,319,306,0
305,290,321,307,0
305,287,323,307,0
305,286,323,307,0
304,289,322,307,0
303,291,321,306,0
303,295,320,307,0
302,300,320,308,0
303,306,320,309,0
304,312,320,309,0
304,318,319,309,0
305,317,318,308,0
304,307,317,307,0
304,291,315,307,0
305,281,313,308,0
306,279,312,309,0
306,285,312,310,0
306,296,310,309,0
303,306,307,307,0
299,315,304,305,0
295,317,301,302,0
291,313,298,300,0
289,306,296,299,0
290,298,295,301,0
292,291,295,304,0
295,287,298,307,0
297,289,300,309,0
297,294,301,310,0
297,302,301,310,0
298,311,302,310,0
299,319,303,311,0
300,325,305,310,0
300,332,306,309,0
300,341,307,307,0
298,350,307,305,0
298,353,306,304,0
299,354,307,304,0
302,352,308,305,0
305,348,309,305,0
306,338,309,305,0
304,324,307,304,0
300,308,306,304,0
298,295,305,304,0
296,289,303,304,0
297,289,302,305,0
298,293,300,306,0
299,299,297,305,0
299,307,295,303,0
299,313,293,301,0
299,311,293,299,0
301,301,296,299,0
303,296,300,301,0
307,298,305,304,0
309,303,311,307,0
309,306,314,308,0
306,307,314,308,0
301,306,313,306,0
298,305,310,305,0
297,308,309,304,0
296,311,309,303,0
297,313,309,302,0
298,315,309,301,0
298,315,311,301,0
299,315,311,302,0
300,317,312,303,0
302,319,312,304,0
304,323,313,304,0
305,324,313,305,0
306,322,312,305,0
306,318,312,306,0
307,313,310,306,0
306,311,306,306,0
306,312,302,306,0
306,316,299,306,0
306,318,297,306,0
306,315,297,306,0
304,305,299,305,0
303,291,302,306,0
303,276,305,307,0
303,267,309,308,0
305,266,313,310,0
309,271,316,312,0
312,279,318,313,0
313,287,318,313,0
313,296,317,312,0
311,305,315,309,0
308,311,314,307,0
305,314,312,305,0
303,315,311,304,0
301,318,310,303,0
300,322,311,303,0
299,325,311,303,0
299,328,311,303,0
299,332,311,304,0
301,336,310,305,0
302,336,311,305,0
303,329,311,305,0
304,320,311,305,0
306,312,312,305,0
308,308,312,304,0
309,305,312,304,0
309,304,312,302,0
309,303,312,300,0
310,303,312,298,0
310,301,311,296,0
309,297,310,294,0
309,293,308,293,0
307,288,305,293,0
305,279,304,294,0
302,269,304,297,0
299,260,304,300,0
296,257,306,303,0
293,262,307,306,0
293,276,307,308,0
293,295,306,308,0
295,311,304,309,0
297,323,302,308,0
299,328,301,307,0
301,330,299,307,0
301,331,300,307,0
303,332,299,307,0
304,333,299,308,0
304,329,299,309,0
305,322,300,309,0
305,317,300,309,0
306,314,299,309,0
306,314,299,308,0
307,314,299,307,0
306,312,299,306,0
306,308,300,306,0
306,307,302,306,0
305,308,303,307,0
306,311,303,306,0
307,313,304,306,0
307,313,304,307,0
306,312,305,307,0
305,307,306,307,0
304,300,307,309,0
304,291,308,309,0
303,281,308,309,0
300,276,308,308,0
299,280,308,307,0
299,289,310,307,0
299,297,311,306,0
300,306,312,306,0
302,316,311,306,0
303,326,309,305,0
303,334,306,305,0
304,339,304,305,0
304,341,303,306,0
305,339,302,305,0
304,335,301,306,0
304,330,299,306,0
303,324,298,307,0
303,317,297,307,0
303,309,297,308,0
303,300,297,308,0
303,293,298,307,0
301,288,299,306,0
300,286,301,306,0
301,288,302,306,0
301,293,304,306,0
301,300,305,307,0
301,307,306,306,0
302,312,307,306,0
303,314,309,306,0
305,313,310,307,0
306,309,311,308,0
305,307,311,308,0
304,310,312,310,0
304,316,312,311,0
304,323,311,313,0
304,330,309,314,0
304,327,306,314,0
302,317,304,314,0
299,304,302,313,0
298,297,301,312,0
298,295,301,311,0
300,297,301,311,0
302,299,301,310,0
304,303,302,310,0
306,307,303,310,0
307,310,305,311,0
307,309,306,311,0
306,306,307,311,0
305,304,309,311,0
305,305,310,311,0
304,307,311,311,0
302,308,310,309,0
300,308,309,308,0
299,310,307,307,0
298,312,305,307,0
297,315,304,307,0
297,316,304,306,0
297,316,304,307,0
298,314,305,307,0
300,308,306,308,0
301,300,307,309,0
303,296,308,310,0
304,295,309,311,0
306,298,312,313,0
308,304,313,314,0
311,309,315,315,0
313,311,317,316,0
315,308,318,316,0
314,301,317,314,0
312,295,314,312,0
311,292,311,310,0
309,295,307,307,0
309,301,303,305,0
308,310,300,304,0
308,318,297,303,0
308,321,296,303,0
308,320,295,302,0
307,316,296,302,0
307,312,296,301,0
305,308,297,301,0
303,307,298,301,0
300,305,300,302,0
299,303,301,303,0
298,300,301,305,0
299,299,302,306,0
301,299,302,307,0
303,299,304,307,0
304,297,306,308,0
305,295,308,309,0
305,291,311,310,0
305,285,313,311,0
304,277,314,312,0
305,272,315,313,0
304,272,316,312,0
303,276,315,312,0
303,283,314,312,0
304,294,313,312,0
305,309,312,311,0
306,325,310,310,0
305,338,308,307,0
304,346,304,305,0
302,349,299,303,0
299,347,296,301,0
298,342,293,301,0
301,334,292,302,0
305,323,293,305,0
310,311,294,308,0
313,301,296,310,0
313,297,297,311,0
312,298,298,311,0
310,302,298,309,0
307,309,300,307,0
304,316,302,305,0
302,322,304,304,0
301,329,308,304,0
300,335,310,304,0
301,335,312,305,0
301,331,314,306,0
302,328,314,307,0
303,325,315,307,0
304,318,315,307,0
305,311,314,306,0
306,306,314,306,0
309,304,314,307,0
313,306,314,309,0
316,310,316,311,0
319,314,317,314,0
318,314,317,315,0
315,310,315,315,0
310,300,314,314,0
306,289,312,313,0
302,282,312,312,0
300,278,312,311,0
300,277,313,310,0
302,278,314,309,0
303,278,314,308,0
304,279,314,307,0
304,283,312,307,0
304,291,310,306,0
304,299,309,306,0
306,311,310,306,0
309,322,310,305,0
311,326,310,305,0
311,323,309,304,0
310,318,307,304,0
308,317,305,303,0
307,320,304,303,0
307,325,303,304,0
306,329,303,305,0
305,329,302,306,0
303,326,300,306,0
303,322,299,306,0
303,320,297,306,0
304,318,297,305,0
305,317,296,305,0
307,317,295,305,0
307,315,294,305,0
308,312,295,305,0
309,310,296,305,0
308,308,299,307,0
307,306,301,308,0
306,305,302,308,0
305,302,303,308,0
305,298,304,307,0
305,292,305,307,0
307,292,306,308,0
310,297,307,309,0
313,302,309,310,0
313,304,310,309,0
312,302,310,308,0
310,296,310,308,0
307,290,310,308,0
305,289,309,309,0
304,292,309,309,0
304,297,308,310,0
305,304,308,311,0
308,311,308,311,0
312,317,308,312,0
316,326,307,312,0
317,334,306,312,0
317,335,303,310,0
314,330,301,309,0
310,325,299,308,0
307,321,299,308,0
304,319,299,307,0
303,318,299,307,0
302,317,300,306,0
302,316,301,307,0
304,313,301,309,0
306,312,300,310,0
308,314,299,310,0
307,314,297,308,0
305,313,295,307,0
303,310,294,306,0
302,305,296,306,0
302,299,298,307,0
301,290,300,307,0
300,283,301,306,0
300,282,302,305,0
300,288,303,304,0
301,293,305,304,0
300,296,306,304,0
300,297,308,304,0
300,300,309,305,0
301,303,309,305,0
301,306,309,306,0
301,308,307,306,0
300,306,306,306,0
301,306,305,307,0
303,306,305,309,0
304,304,305,310,0
303,299,305,311,0
302,297,306,311,0
302,301,309,313,0
302,305,311,314,0
301,307,312,313,0
299,310,311,312,0
297,316,309,310,0
297,325,307,308,0
299,330,304,306,0
300,332,301,305,0
302,331,299,304,0
302,325,298,303,0
302,316,297,303,0
302,311,297,304,0
301,308,297,305,0
299,306,297,305,0
297,307,298,306,0
296,309,302,307,0
295,309,305,308,0
296,308,309,309,0
298,308,311,310,0
298,308,312,310,0
299,310,313,310,0
300,311,312,310,0
300,310,312,310,0
302,308,313,310,0
305,307,314,311,0
307,307,316,311,0
309,307,317,312,0
308,308,317,311,0
307,309,317,311,0
306,310,316,310,0
304,310,314,309,0
302,309,313,308,0
300,307,312,307,0
298,303,312,308,0
298,300,311,308,0
298,296,311,309,0
299,293,310,309,0
299,288,309,309,0
298,280,307,309,0
298,270,306,308,0
299,263,306,309,0
301,261,307,310,0
305,263,309,311,0
310,271,310,312,0
312,283,310,312,0
311,294,308,309,0
308,304,305,308,0
304,309,302,306,0
300,310,302,306,0
299,309,303,306,0
299,307,305,307,0
300,308,307,308,0
302,312,308,308,0
305,317,309,309,0
306,321,309,310,0
307,321,309,310,0
306,321,309,310,0
305,323,308,309,0
303,323,306,307,0
301,320,304,306,0
300,320,304,305,0
300,315,304,304,0
302,307,303,303,0
304,302,303,302,0
305,302,303,301,0
307,307,302,301,0
307,313,302,302,0
306,312,302,303,0
304,304,303,304,0
303,295,304,306,0
302,288,306,308,0
301,284,309,309,0
302,285,313,310,0
305,290,316,311,0
307,297,318,311,0
309,303,319,311,0
310,308,320,310,0
310,317,320,311,0
311,326,318,311,0
308,333,317,308,0
304,335,316,306,0
299,334,315,305,0
295,329,313,306,0
294,325,312,308,0
295,321,311,310,0
298,318,311,312,0
302,318,312,313,0
304,319,312,313,0
306,318,311,313,0
305,312,309,311,0
304,304,306,309,0
301,295,303,307,0
299,289,301,305,0
298,287,300,303,0
298,288,301,302,0
299,292,303,303,0
301,297,305,304,0
304,302,305,306,0
306,306,306,308,0
308,310,307,310,0
310,312,308,312,0
311,315,309,312,0
312,318,310,312,0
311,321,311,312,0
309,324,311,312,0
306,327,309,312,0
304,329,308,311,0
303,329,307,310,0
302,326,306,308,0
300,320,305,307,0
299,314,304,307,0
299,309,304,308,0
300,305,305,309,0
301,301,307,311,0
301,297,308,312,0
302,293,310,314,0
302,292,312,314,0
303,291,313,314,0
303,291,312,313,0
302,290,311,311,0
302,291,310,310,0
302,293,309,308,0
302,295,307,307,0
301,295,307,307,0
302,295,307,307,0
304,294,306,308,0
307,292,306,310,0
309,290,304,311,0
310,293,304,312,0
310,298,304,313,0
310,301,304,313,0
309,298,305,312,0
307,291,305,311,0
306,284,305,309,0
305,277,305,307,0
306,271,305,308,0
306,269,306,309,0
308,270,306,311,0
309,272,307,312,0
310,274,307,313,0
311,279,305,313,0
309,287,304,312,0
306,293,301,310,0
302,301,298,308,0
298,315,297,307,0
295,330,296,306,0
294,342,296,306,0
293,347,295,305,0
293,347,295,304,0
294,344,295,304,0
296,338,295,305,0
299,330,295,305,0
300,321,295,306,0
300,312,296,307,0
300,305,298,307,0
301,305,300,309,0
303,309,302,310,0
303,314,303,310,0
302,319,303,309,0
300,322,304,308,0
298,323,306,308,0
296,321,307,307,0
295,317,310,306,0
295,314,312,306,0
297,315,314,306,0
300,322,318,307,0
305,336,321,309,0
308,348,323,310,0
307,353,323,309,0
304,347,320,309,0
301,338,318,309,0
300,330,316,309,0
301,321,315,310,0
302,312,313,310,0
302,303,310,309,0
300,294,307,308,0
299,286,305,308,0
298,278,304,309,0
300,273,305,310,0
303,272,308,311,0
307,275,312,313,0
311,279,315,313,0
311,280,316,312,0
309,281,315,311,0
307,284,314,310,0
306,289,313,310,0
306,295,313,310,0
307,302,313,310,0
309,314,313,310,0
311,324,312,311,0
312,328,312,310,0
314,330,312,311,0
315,330,311,311,0
314,329,310,310,0
311,326,308,308,0
306,320,305,305,0
302,311,302,304,0
300,302,301,303,0
300,292,300,303,0
300,282,300,303,0
300,271,301,303,0
300,265,302,304,0
300,266,303,306,0
302,273,304,307,0
303,285,304,307,0
304,300,302,306,0
306,315,300,306,0
308,327,299,306,0
311,334,300,306,0
314,337,300,307,0
314,336,300,307,0
313,335,301,307,0
312,332,301,308,0
310,328,301,308,0
309,325,302,307,0
308,321,302,307,0
307,316,302,307,0
305,313,303,306,0
304,313,303,306,0
303,314,303,307,0
303,313,304,307,0
304,311,303,308,0
305,307,303,309,0
307,305,303,310,0
308,304,302,310,0
310,306,302,310,0
311,310,301,309,0
312,314,301,309,0
312,318,302,309,0
312,323,304,310,0
312,325,305,310,0
311,319,306,310,0
309,307,306,310,0
308,292,306,310,0
308,281,306,311,0
310,278,307,312,0
313,279,308,314,0
315,283,309,314,0
315,285,309,314,0
313,289,308,315,0
311,296,306,313,0
308,303,304,311,0
304,308,301,307,0
300,309,298,304,0
297,307,296,302,0
295,304,295,301,0
295,302,294,300,0
297,304,294,299,0
299,308,296,300,0
303,311,297,301,0
307,311,297,302,0
309,309,297,303,0
310,306,297,304,0
308,305,300,306,0
306,305,303,308,0
304,303,306,309,0
303,301,308,310,0
302,300,308,310,0
300,301,308,309,0
300,301,309,309,0
300,299,309,310,0
301,297,310,311,0
303,296,312,312,0
306,297,314,314,0
307,300,316,315,0
308,302,318,315,0
307,300,318,315,0
307,294,316,314,0
306,288,314,314,0
306,284,313,314,0
307,286,313,315,0
309,293,314,317,0
310,298,315,318,0
311,304,317,318,0
313,312,317,318,0
313,318,315,317,0
312,316,313,316,0
309,309,309,313,0
305,301,305,310,0
301,293,303,308,0
298,288,302,307,0
296,290,300,305,0
294,298,299,303,0
295,309,297,302,0
296,319,297,303,0
299,326,297,304,0
301,331,298,305,0
303,333,300,308,0
305,332,304,310,0
307,329,307,312,0
310,327,311,314,0
311,325,313,315,0
312,324,314,316,0
313,326,314,316,0
312,329,314,316,0
312,328,312,314,0
310,320,310,313,0
309,311,307,313,0
308,302,305,313,0
308,297,304,313,0
307,295,303,313,0
305,295,303,312,0
304,297,304,312,0
302,302,306,311,0
302,306,308,311,0
301,308,309,310,0
300,307,310,309,0
299,305,311,308,0
298,303,311,308,0
297,302,311,308,0
297,301,311,309,0
297,300,311,309,0
297,299,310,309,0
298,299,309,309,0
299,300,308,308,0
299,300,308,308,0
300,301,308,308,0
301,301,308,308,0
302,298,307,308,0
304,294,307,308,0
305,288,306,307,0
306,283,305,307,0
307,280,305,308,0
309,283,306,309,0
312,293,308,311,0
314,310,311,313,0
316,320,313,314,0
316,319,314,314,0
316,310,314,315,0
313,300,313,314,0
310,295,311,312,0
307,297,308,310,0
304,301,303,307,0
302,302,297,303,0
300,302,292,301,0
299,301,289,300,0
297,297,287,299,0
296,293,285,300,0
296,289,285,301,0
298,286,288,304,0
302,281,292,307,0
304,279,297,309,0
302,279,301,308,0
301,282,304,308,0
301,292,307,308,0
301,304,307,307,0
301,310,305,307,0
302,314,304,306,0
303,316,304,306,0
305,320,305,306,0
308,326,307,306,0
308,329,308,305,0
307,330,308,305,0
305,329,307,305,0
305,326,308,306,0
304,323,309,307,0
304,319,311,307,0
303,316,312,308,0
302,313,313,308,0
301,312,314,308,0
301,313,313,307,0
303,314,313,305,0
304,315,311,303,0
305,314,309,300,0
304,311,307,297,0
304,311,306,295,0
304,314,305,294,0
305,321,304,295,0
306,329,304,297,0
305,331,305,300,0
304,322,306,304,0
303,305,307,305,0
301,287,308,307,0
301,274,309,309,0
302,273,310,308,0
302,279,310,306,0
301,288,308,303,0
300,298,307,301,0
301,305,306,302,0
301,308,306,303,0
303,307,306,306,0
307,306,307,309,0
311,305,308,311,0
314,307,310,311,0
314,311,310,311,0
313,315,312,310,0
310,318,312,310,0
306,317,313,310,0
302,313,312,310,0
300,309,311,310,0
298,304,309,309,0
297,299,307,309,0
296,295,306,309,0
296,291,306,309,0
297,288,305,309,0
297,286,306,309,0
299,284,308,309,0
301,284,310,308,0
302,285,311,308,0
303,287,312,307,0
302,291,313,306,0
301,294,314,306,0
300,296,316,305,0
301,300,317,306,0
303,307,319,307,0
306,315,320,307,0
308,323,321,308,0
309,327,321,308,0
308,326,321,308,0
306,322,322,308,0
305,318,322,308,0
304,313,322,308,0
304,309,322,309,0
303,307,320,308,0
303,309,318,307,0
302,311,315,306,0
302,312,312,305,0
302,311,309,305,0
303,308,307,305,0
303,304,306,305,0
303,301,305,306,0
304,300,305,307,0
305,299,306,308,0
306,298,306,309,0
306,299,307,310,0
306,301,306,310,0
307,305,305,310,0
308,311,306,310,0
309,318,308,309,0
310,324,310,308,0
310,330,311,307,0
310,330,308,305,0
310,323,304,304,0
309,313,300,302,0
307,305,296,300,0
305,300,293,299,0
305,299,291,299,0
305,298,291,299,0
305,297,291,300,0
304,294,294,302,0
303,290,297,303,0
301,286,302,306,0
300,283,306,308,0
299,279,311,309,0
299,276,314,310,0
299,276,316,311,0
299,278,318,311,0
301,281,318,311,0
303,281,315,310,0
304,277,311,309,0
305,274,308,307,0
306,276,306,306,0
305,285,305,306,0
304,298,305,305,0
305,311,305,305,0
306,323,307,305,0
307,333,307,304,0
307,341,307,304,0
308,345,307,303,0
309,348,307,303,0
310,347,308,303,0
309,342,307,302,0
306,334,306,300,0
303,325,304,299,0
300,316,302,300,0
299,310,303,302,0
299,308,304,305,0
300,309,305,308,0
302,308,305,309,0
302,307,304,310,0
302,306,302,310,0
301,303,300,309,0
300,300,299,310,0
301,300,298,311,0
303,304,298,312,0
305,308,300,313,0
307,309,302,313,0
309,310,303,313,0
310,313,303,313,0
310,315,305,313,0
310,317,307,312,0
308,318,309,313,0
307,316,313,314,0
305,313,316,315,0
303,311,317,316,0
300,309,317,316,0
297,308,317,315,0
296,306,317,315,0
297,304,317,315,0
299,304,317,316,0
301,306,317,316,0
305,310,317,315,0
308,315,317,315,0
310,317,316,313,0
311,316,314,311,0
312,313,311,310,0
312,306,310,309,0
311,297,308,309,0
309,287,305,309,0
307,281,302,309,0
305,280,299,308,0
302,280,297,308,0
300,279,295,308,0
300,278,295,307,0
299,280,296,308,0
299,288,297,307,0
296,297,297,306,0
294,307,297,305,0
294,317,299,305,0
296,324,301,306,0
300,329,304,307,0
305,329,307,309,0
311,325,309,310,0
314,320,310,310,0
313,313,310,309,0
309,309,311,309,0
306,310,311,310,0
303,317,311,311,0
301,323,312,312,0
300,328,311,313,0
300,331,310,313,0
301,336,309,313,0
303,336,309,313,0
304,329,307,313,0
303,321,305,311,0
302,318,303,310,0
302,320,303,309,0
302,323,304,309,0
304,327,305,310,0
305,330,306,309,0
306,330,307,307,0
304,325,307,304,0
302,316,306,301,0
300,306,304,298,0
299,296,303,297,0
299,288,302,297,0
299,281,300,298,0
300,276,300,301,0
302,273,300,304,0
306,274,300,308,0
310,279,301,309,0
311,286,303,309,0
310,294,303,307,0
307,301,302,306,0
305,306,303,308,0
305,309,306,311,0
305,312,309,313,0
305,313,311,314,0
304,312,311,314,0
304,308,309,313,0
303,303,306,313,0
303,300,304,313,0
304,299,303,314,0
307,300,304,315,0
311,301,307,316,0
314,303,310,317,0
315,306,314,317,0
314,303,315,316,0
310,297,315,315,0
307,290,314,313,0
305,284,312,313,0
304,279,313,313,0
304,275,315,314,0
304,275,316,315,0
304,279,317,316,0
306,290,319,317,0
309,304,320,318,0
312,318,320,319,0
315,329,319,319,0
317,335,318,318,0
319,336,315,317,0
320,335,313,317,0
318,331,311,316,0
313,324,308,314,0
307,316,305,312,0
302,310,301,310,0
299,305,299,308,0
299,303,298,308,0
300,304,298,308,0
303,309,300,309,0
307,316,303,312,0
313,324,307,315,0
318,334,310,317,0
319,338,312,317,0
316,333,310,316,0
309,322,308,314,0
303,307,306,312,0
300,297,306,311,0
298,292,306,310,0
299,289,304,310,0
299,288,303,310,0
301,291,304,310,0
302,298,303,310,0
303,304,301,309,0
304,307,300,309,0
305,307,299,309,0
306,303,299,310,0
308,298,300,312,0
310,293,301,314,0
312,293,303,317,0
313,300,305,319,0
313,311,307,320,0
311,321,308,319,0
309,325,308,318,0
306,323,308,317,0
304,317,306,316,0
303,311,304,314,0
302,306,302,313,0
301,302,299,311,0
301,300,296,311,0
302,301,294,311,0
302,307,294,310,0
302,310,293,310,0
302,309,293,309,0
303,309,294,309,0
305,310,296,309,0
309,307,299,310,0
313,301,303,310,0
315,297,307,309,0
316,299,309,308,0
316,303,309,307,0
314,304,308,306,0
312,303,306,304,0
310,300,304,304,0
309,295,304,304,0
308,291,305,305,0
307,292,307,307,0
307,296,308,309,0
306,304,307,309,0
306,311,306,310,0
307,315,306,311,0
308,320,308,312,0
311,324,310,314,0
313,327,311,313,0
314,327,311,313,0
315,324,309,311,0
314,321,308,310,0
314,319,307,309,0
314,320,308,308,0
312,321,308,307,0
309,320,306,306,0
304,317,306,305,0
302,314,305,305,0
301,310,304,305,0
299,305,302,304,0
298,302,302,303,0
297,303,303,304,0
297,303,304,304,0
297,302,305,304,0
298,299,306,304,0
299,295,306,305,0
301,292,308,305,0
302,293,310,307,0
301,297,310,309,0
299,302,310,311,0
299,307,308,312,0
298,309,307,314,0
299,308,305,314,0
299,307,304,315,0
300,306,304,315,0
301,309,305,315,0
304,314,307,316,0
307,316,308,315,0
308,311,308,314,0
306,305,307,312,0
303,299,306,310,0
301,299,304,309,0
300,301,304,309,0
301,303,303,309,0
303,307,303,310,0
305,309,303,312,0
307,309,303,312,0
309,310,304,312,0
309,309,305,310,0
309,310,306,309,0
308,312,307,307,0
308,314,308,306,0
307,314,308,305,0
306,314,309,304,0
305,313,310,304,0
305,312,311,305,0
306,309,310,307,0
307,304,309,308,0
309,300,310,310,0
311,298,311,311,0
312,298,312,311,0
313,300,313,311,0
314,303,313,311,0
314,305,313,312,0
313,307,314,312,0
311,305,314,312,0
307,301,315,311,0
304,294,315,310,0
300,286,314,309,0
298,279,313,307,0
296,274,311,306,0
296,271,308,305,0
297,272,305,304,0
298,277,302,304,0
299,286,298,304,0
299,296,295,304,0
299,306,292,303,0
299,312,290,303,0
300,314,289,304,0
301,317,290,305,0
303,320,292,306,0
304,323,295,307,0
304,322,298,308,0
304,318,301,309,0
304,313,304,310,0
304,308,306,310,0
305,303,310,310,0
305,299,312,311,0
304,298,313,310,0
302,299,314,309,0
300,299,314,308,0
298,295,313,307,0
296,287,313,307,0
296,277,313,307,0
296,267,314,309,0
299,264,317,311,0
303,272,319,313,0
306,288,321,315,0
307,307,320,314,0
305,322,318,314,0
303,331,316,313,0
303,333,314,314,0
305,330,311,314,0
309,326,307,314,0
313,323,303,313,0
314,321,300,311,0
312,321,298,309,0
308,322,299,308,0
306,323,300,307,0
304,322,301,307,0
303,321,303,306,0
304,322,305,306,0
303,324,308,306,0
302,324,310,306,0
300,321,310,306,0
298,317,309,306,0
297,312,309,306,0
297,304,309,306,0
299,297,309,306,0
302,291,308,306,0
304,286,307,305,0
306,281,305,305,0
306,279,304,307,0
307,280,304,309,0
308,287,305,311,0
310,302,307,314,0
312,318,308,316,0
312,326,309,315,0
311,327,308,314,0
309,322,307,313,0
307,317,307,312,0
307,313,308,312,0
310,315,310,312,0
314,321,313,312,0
315,328,315,311,0
313,330,315,309,0
307,327,313,308,0
303,319,311,307,0
301,309,310,307,0
301,302,310,309,0
302,298,312,310,0
300,295,313,310,0
297,292,313,310,0
294,287,311,309,0
291,282,309,309,0
293,281,308,309,0
295,285,308,309,0
298,292,307,309,0
298,301,306,308,0
298,309,303,306,0
297,314,299,304,0
297,311,296,303,0
297,307,294,303,0
297,306,293,304,0
299,308,293,305,0
302,311,293,306,0
304,310,294,306,0
307,308,296,307,0
310,308,300,308,0
312,304,303,310,0
311,294,304,311,0
310,285,303,311,0
308,281,302,310,0
306,284,301,310,0
304,293,300,309,0
303,302,300,308,0
302,311,301,307,0
302,317,303,307,0
302,322,306,306,0
303,325,309,306,0
305,328,312,306,0
308,329,314,306,0
308,329,315,307,0
306,327,314,307,0
301,325,311,306,0
298,322,309,307,0
296,321,309,308,0
297,321,309,310,0
297,320,310,311,0
297,318,310,311,0
298,315,309,312,0
299,312,309,313,0
302,306,309,314,0
307,299,311,315,0
312,289,313,318,0
313,279,315,320,0
310,270,317,321,0
307,267,320,322,0
304,272,321,322,0
302,281,319,322,0
300,293,316,320,0
298,304,311,318,0
296,313,308,316,0
295,314,307,315,0
295,311,307,315,0
297,310,308,315,0
300,315,310,315,0
302,321,309,314,0
301,320,308,312,0
300,314,307,311,0
300,309,306,310,0
302,307,306,310,0
303,311,304,309,0
304,316,302,307,0
303,322,299,305,0
302,325,298,303,0
301,326,297,302,0
301,326,296,301,0
301,325,296,301,0
302,324,296,302,0
302,322,295,304,0
303,320,295,305,0
303,320,295,307,0
303,324,296,309,0
304,327,299,310,0
306,327,301,311,0
307,324,304,313,0
309,318,306,313,0
310,310,306,312,0
310,306,306,311,0
310,308,305,311,0
309,311,305,310,0
307,310,303,309,0
305,307,301,307,0
303,305,298,306,0
303,305,295,305,0
304,306,293,305,0
305,308,293,305,0
308,313,294,307,0
311,320,296,308,0
312,327,299,308,0
311,329,302,309,0
310,324,304,310,0
308,315,307,311,0
308,306,310,311,0
310,299,313,313,0
312,292,315,314,0
313,284,319,316,0
312,278,320,317,0
309,276,321,317,0
306,276,320,317,0
304,281,319,317,0
304,289,318,317,0
306,301,317,316,0
307,310,317,315,0
306,311,315,313,0
303,308,313,310,0
299,305,311,307,0
297,303,307,305,0
297,301,304,304,0
297,298,300,303,0
299,297,296,303,0
300,297,293,302,0
302,299,291,302,0
303,300,290,302,0
302,299,291,302,0
301,298,295,303,0
299,300,299,304,0
297,303,303,305,0
296,304,306,305,0
295,302,309,306,0
295,298,312,307,0
297,294,314,309,0
300,292,315,310,0
303,290,315,312,0
305,289,312,311,0
308,289,309,311,0
312,295,307,312,0
315,307,307,312,0
317,319,306,311,0
316,326,304,309,0
311,326,300,306,0
306,324,296,303,0
304,323,295,302,0
304,323,295,302,0
306,322,298,303,0
307,318,300,304,0
308,311,301,305,0
305,301,302,306,0
302,290,302,307,0
300,286,302,307,0
301,293,304,308,0
302,302,305,309,0
304,300,306,310,0
304,292,305,309,0
304,286,302,307,0
304,283,298,305,0
306,285,296,303,0
310,291,296,302,0
314,297,297,301,0
318,299,299,301,0
319,297,303,302,0
318,296,305,303,0
314,296,306,304,0
310,296,306,304,0
305,294,304,304,0
301,289,301,304,0
299,283,299,303,0
297,279,298,304,0
297,281,299,306,0
298,288,301,308,0
298,296,302,310,0
299,305,302,312,0
301,316,303,313,0
304,327,302,313,0
308,336,303,313,0
311,344,303,312,0
313,350,304,311,0
314,351,305,309,0
314,345,306,308,0
312,337,307,307,0
308,331,307,305,0
305,326,306,305,0
302,322,305,304,0
300,318,305,303,0
299,314,304,303,0
300,310,304,304,0
302,304,305,305,0
304,301,306,306,0
306,300,308,307,0
308,301,310,308,0
311,305,311,309,0
312,309,311,310,0
313,310,311,312,0
313,307,311,312,0
314,304,311,313,0
315,300,311,314,0
315,297,311,314,0
314,295,310,313,0
314,298,307,312,0
315,309,305,311,0
316,319,304,311,0
315,321,303,310,0
312,318,302,309,0
309,315,300,308,0
308,309,300,307,0
306,303,298,306,0
304,295,297,304,0
302,287,296,303,0
300,281,296,303,0
299,280,298,303,0
300,282,301,305,0
303,290,306,308,0
307,302,311,311,0
312,313,314,314,0
315,316,317,315,0
315,313,318,315,0
315,308,317,315,0
313,306,317,315,0
312,308,318,315,0
311,311,317,315,0
309,313,314,314,0
306,312,309,312,0
305,309,305,310,0
303,305,302,309,0
301,303,299,310,0
300,305,298,310,0
299,309,297,311,0
300,315,295,310,0
302,320,294,309,0
305,324,293,309,0
309,328,293,310,0
312,330,296,310,0
312,326,298,310,0
311,319,300,309,0
309,310,302,308,0
308,304,302,307,0
306,301,301,305,0
302,299,299,304,0
300,299,299,303,0
300,304,299,304,0
300,312,300,306,0
302,319,300,308,0
302,322,300,310,0
302,320,300,311,0
303,317,300,311,0
304,317,302,312,0
306,321,305,312,0
307,327,308,311,0
305,332,310,310,0
304,337,313,310,0
301,337,314,309,0
298,327,314,309,0
295,311,314,308,0
292,298,313,306,0
290,290,311,304,0
289,288,309,301,0
292,291,307,301,0
296,296,305,302,0
300,302,304,305,0
304,304,303,307,0
306,298,303,308,0
306,289,303,309,0
307,285,304,311,0
307,286,306,311,0
306,285,307,311,0
303,281,306,310,0
299,281,306,308,0
296,286,305,305,0
295,296,305,302,0
296,309,305,300,0
298,320,305,298,0
299,324,305,297,0
297,326,305,298,0
294,325,305,298,0
290,322,305,299,0
288,318,305,301,0
287,312,305,301,0
289,306,304,302,0
292,299,303,303,0
294,289,302,303,0
295,278,301,303,0
295,266,301,303,0
296,255,302,304,0
298,252,305,306,0
301,260,308,308,0
302,273,311,310,0
304,286,313,310,0
304,297,313,310,0
306,306,313,311,0
308,317,314,310,0
310,328,315,310,0
311,337,316,309,0
311,344,317,308,0
311,351,318,306,0
312,358,317,305,0
313,365,316,304,0
316,370,316,305,0
317,372,316,305,0
319,370,315,305,0
319,360,315,305,0
320,344,315,305,0
321,329,313,306,0
320,317,312,306,0
318,305,311,306,0
315,295,310,305,0
312,288,308,304,0
308,282,306,303,0
304,279,304,302,0
300,278,302,301,0
297,278,303,301,0
295,284,304,301,0
295,298,307,302,0
297,311,308,302,0
299,317,306,302,0
300,316,303,302,0
302,314,299,302,0
303,311,296,302,0
304,307,294,303,0
303,301,293,303,0
303,297,292,304,0
302,295,291,304,0
301,294,291,304,0
300,294,290,304,0
298,294,290,303,0
298,297,292,303,0
298,301,295,304,0
298,303,298,305,0
299,302,302,306,0
300,302,306,306,0
302,305,308,307,0
305,310,309,308,0
306,317,310,309,0
308,324,310,310,0
308,327,310,311,0
310,329,310,312,0
311,333,312,313,0
314,334,314,314,0
316,331,315,314,0
315,321,314,313,0
312,310,312,311,0
309,298,310,311,0
305,288,309,311,0
302,282,308,312,0
300,280,307,312,0
299,280,306,314,0
299,284,305,315,0
301,293,304,316,0
304,307,304,316,0
307,320,305,316,0
309,328,306,315,0
310,331,305,313,0
309,329,304,311,0
308,327,305,309,0
306,326,307,308,0
304,325,310,307,0
304,323,314,307,0
304,319,317,308,0
304,312,319,310,0
305,303,319,312,0
306,297,319,312,0
308,297,319,312,0
309,300,318,312,0
309,304,316,311,0
307,308,315,308,0
306,311,313,307,0
305,312,313,306,0
306,309,313,307,0
307,304,314,308,0
307,300,313,308,0
305,296,313,308,0
304,293,312,308,0
303,291,310,306,0
300,287,308,303,0
298,281,307,301,0
297,278,309,301,0
297,276,312,303,0
297,277,314,305,0
297,287,315,306,0
299,298,314,307,0
301,312,313,307,0
304,328,312,308,0
307,346,311,308,0
309,360,311,309,0
308,364,310,309,0
306,359,309,309,0
304,348,309,308,0
301,333,310,308,0
300,316,310,309,0
301,303,310,309,0
303,295,310,309,0
305,290,310,310,0
306,290,307,310,0
307,293,306,309,0
306,297,305,309,0
305,298,303,308,0
302,297,302,307,0
300,296,301,306,0
299,294,302,305,0
301,292,304,306,0
303,290,306,307,0
305,292,308,307,0
305,298,308,307,0
305,308,307,306,0
304,316,305,305,0
304,320,303,304,0
303,316,302,304,0
304,307,301,304,0
308,299,301,307,0
312,299,302,310,0
315,307,303,311,0
315,318,304,311,0
312,325,303,310,0
307,328,300,307,0
302,330,299,305,0
299,329,299,304,0
299,326,301,304,0
299,322,302,305,0
300,319,303,305,0
299,317,303,306,0
297,314,302,305,0
296,312,300,306,0
295,312,299,309,0
295,313,299,311,0
296,308,298,312,0
296,298,298,313,0
295,286,298,315,0
296,274,300,316,0
297,268,303,317,0
300,272,306,318,0
303,285,310,319,0
307,300,311,318,0
309,307,311,316,0
311,309,311,314,0
313,309,312,313,0
316,308,313,313,0
318,305,315,313,0
320,302,318,313,0
318,301,320,313,0
315,303,321,312,0
313,308,321,311,0
310,313,320,309,0
310,318,319,309,0
310,324,317,308,0
309,327,313,307,0
305,327,309,305,0
302,318,306,305,0
301,303,304,305,0
301,286,303,305,0
301,271,302,306,0
301,265,302,306,0
299,268,303,307,0
299,275,305,309,0
300,280,308,311,0
302,281,309,313,0
304,280,309,314,0
307,281,310,315,0
311,287,310,316,0
315,296,311,316,0
317,305,310,315,0
317,317,310,315,0
317,331,309,315,0
315,342,309,314,0
312,345,309,312,0
308,341,309,310,0
306,334,308,310,0
304,326,307,310,0
304,318,306,311,0
305,307,305,312,0
306,297,304,312,0
306,289,304,313,0
307,287,303,313,0
308,294,304,312,0
310,308,303,311,0
313,329,302,311,0
314,347,303,310,0
314,357,302,309,0
311,353,300,306,0
307,336,297,302,0
302,313,295,299,0
297,293,294,298,0
295,283,296,300,0
295,290,299,303,0
298,308,303,307,0
303,324,306,310,0
306,334,308,311,0
308,336,309,312,0
309,333,310,311,0
308,327,310,311,0
306,320,311,311,0
302,310,310,310,0
299,302,308,310,0
298,303,308,309,0
299,308,306,309,0
300,312,304,308,0
302,309,300,305,0
303,301,296,303,0
303,293,294,302,0
304,288,293,301,0
306,291,294,302,0
310,299,295,301,0
312,309,295,301,0
312,320,296,300,0
312,331,296,300,0
311,340,296,302,0
311,342,295,303,0
310,339,296,304,0
310,335,297,306,0
311,334,299,308,0
313,334,302,310,0
314,332,303,312,0
314,325,303,313,0
311,314,302,313,0
310,303,301,314,0
310,293,302,314,0
312,289,305,314,0
314,292,308,314,0
315,300,310,313,0
315,311,309,312,0
314,324,310,311,0
312,335,309,310,0
309,341,308,308,0
306,341,305,306,0
303,337,303,305,0
301,332,302,304,0
300,327,301,303,0
298,323,300,302,0
297,320,298,301,0
297,317,298,301,0
298,314,298,301,0
299,312,301,302,0
300,311,304,303,0
302,309,307,305,0
305,303,310,307,0
308,295,312,309,0
311,288,313,310,0
311,284,313,310,0
309,281,312,310,0
306,274,310,309,0
303,264,307,308,0
301,259,305,307,0
301,262,304,307,0
300,272,303,306,0
300,285,302,305,0
301,296,302,306,0
302,306,303,307,0
305,314,304,308,0
308,322,305,309,0
310,327,305,310,0
313,329,305,310,0
314,327,306,311,0
316,324,307,312,0
315,321,309,313,0
315,316,312,313,0
314,308,313,314,0
312,294,314,314,0
311,278,316,313,0
310,266,316,311,0
310,258,315,309,0
309,251,315,308,0
309,247,315,308,0
309,248,316,308,0
307,258,316,308,0
305,282,314,306,0
302,315,312,304,0
299,346,309,302,0
297,365,306,300,0
297,372,304,300,0
297,371,304,301,0
298,364,304,303,0
299,353,305,303,0
299,336,305,302,0
298,319,304,300,0
296,305,304,299,0
295,297,306,299,0
295,296,308,300,0
296,300,310,300,0
299,307,312,302,0
302,315,313,303,0
305,320,313,305,0
307,319,312,307,0
308,312,311,308,0
307,303,309,310,0
307,296,309,311,0
307,294,308,311,0
307,297,307,311,0
306,301,305,309,0
304,302,304,308,0
304,303,303,307,0
304,307,303,308,0
306,311,305,308,0
307,314,306,307,0
307,312,307,307,0
305,309,308,307,0
305,310,309,308,0
306,309,312,310,0
308,308,313,313,0
309,304,315,315,0
310,301,316,317,0
309,299,316,318,0
306,299,315,319,0
305,304,313,318,0
304,310,309,316,0
304,317,305,314,0
305,324,301,312,0
306,327,297,310,0
304,327,293,309,0
302,322,291,308,0
300,314,290,307,0
298,308,291,308,0
298,308,294,309,0
299,311,297,311,0
301,312,300,312,0
302,311,303,313,0
303,306,305,314,0
305,296,307,315,0
307,289,309,315,0
309,291,311,314,0
312,301,312,312,0
315,314,311,310,0
315,326,310,308,0
315,331,310,305,0
313,327,310,304,0
311,314,311,304,0
308,299,312,304,0
306,288,313,304,0
307,284,312,307,0
310,286,310,309,0
313,291,308,309,0
315,297,305,308,0
315,302,302,307,0
313,304,300,305,0
309,305,300,303,0
304,307,299,302,0
302,309,299,301,0
302,310,301,301,0
305,312,303,301,0
307,313,305,300,0
308,316,307,300,0
308,317,307,300,0
308,316,308,301,0
307,308,310,302,0
305,291,311,304,0
301,272,310,305,0
298,257,310,307,0
295,248,310,308,0
294,250,312,308,0
295,266,313,310,0
298,290,316,312,0
303,316,318,314,0
308,338,319,315,0
312,349,318,313,0
312,352,314,308,0
310,349,307,303,0
305,342,302,298,0
301,333,297,296,0
299,324,295,294,0
298,316,294,294,0
297,310,293,295,0
297,306,293,297,0
298,305,295,301,0
300,303,298,304,0
302,300,300,307,0
302,296,303,309,0
302,291,305,310,0
302,285,308,311,0
301,276,310,311,0
300,267,313,311,0
299,259,314,311,0
299,258,316,311,0
301,267,318,312,0
303,286,320,313,0
309,309,323,315,0
312,327,324,315,0
314,332,322,314,0
314,329,319,313,0
314,325,317,312,0
313,326,314,310,0
311,330,312,309,0
307,333,309,306,0
303,331,306,304,0
299,323,303,303,0
298,314,301,304,0
298,306,301,305,0
300,301,301,307,0
301,298,300,308,0
302,295,299,309,0
302,290,299,310,0
303,283,298,310,0
304,279,299,311,0
306,279,300,313,0
308,281,303,315,0
309,284,305,317,0
310,290,306,317,0
310,297,305,315,0
306,300,301,310,0
301,297,297,306,0
295,293,293,301,0
291,289,291,298,0
290,289,291,297,0
291,293,291,297,0
293,300,290,297,0
295,307,289,298,0
298,316,288,299,0
300,324,288,299,0
302,331,290,300,0
302,333,294,300,0
303,331,297,301,0
302,327,300,302,0
301,320,304,303,0
300,314,306,305,0
299,310,307,307,0
300,309,308,308,0
301,309,310,309,0
303,306,313,311,0
304,300,314,311,0
306,291,315,311,0
306,284,315,311,0
306,280,315,310,0
305,278,315,310,0
304,280,314,309,0
303,282,313,309,0
304,283,312,309,0
306,283,312,310,0
306,284,312,310,0
306,283,313,311,0
305,285,314,311,0
304,291,315,310,0
304,299,315,309,0
302,308,313,306,0
302,316,312,305,0
301,321,311,304,0
300,322,310,304,0
300,323,309,306,0
301,323,310,308,0
303,320,310,311,0
305,313,309,312,0
305,304,308,312,0
304,294,307,311,0
302,289,306,309,0
302,291,305,308,0
301,293,304,305,0
300,294,302,303,0
299,294,301,302,0
299,293,301,301,0
300,292,301,302,0
302,294,302,303,0
302,297,302,304,0
303,303,302,305,0
304,313,302,306,0
304,323,302,307,0
304,325,301,307,0
303,323,301,307,0
303,320,302,307,0
304,316,303,307,0
305,311,304,306,0
306,307,306,305,0
308,305,308,303,0
310,309,309,303,0
311,315,310,303,0
312,322,311,305,0
313,326,311,307,0
315,326,311,307,0
317,320,311,307,0
316,312,311,306,0
314,303,310,305,0
310,296,310,305,0
307,294,309,305,0
304,295,307,304,0
302,299,306,305,0
301,301,304,305,0
301,298,302,306,0
301,291,301,307,0
300,284,300,308,0
299,279,299,309,0
298,276,298,309,0
299,277,298,310,0
301,283,297,311,0
303,290,297,312,0
305,299,297,311,0
306,308,296,310,0
306,315,295,309,0
306,320,296,308,0
306,320,299,308,0
307,318,304,309,0
308,314,309,309,0
308,310,312,309,0
307,307,313,308,0
306,306,314,308,0
307,307,314,307,0
308,311,315,307,0
309,315,315,307,0
309,317,316,307,0
309,318,316,308,0
309,315,315,307,0
309,307,314,307,0
308,293,312,307,0
307,282,310,307,0
307,281,309,308,0
308,285,309,310,0
308,293,309,311,0
308,302,308,312,0
308,311,305,312,0
308,315,302,310,0
306,311,296,306,0
303,300,290,303,0
301,290,287,300,0
299,284,285,299,0
298,285,287,298,0
298,290,290,299,0
299,295,293,300,0
300,298,297,301,0
301,299,302,303,0
303,301,307,304,0
306,306,311,305,0
307,310,314,305,0
306,311,316,305,0
305,309,318,305,0
304,307,319,305,0
304,308,320,306,0
306,313,321,306,0
308,317,321,307,0
311,317,320,307,0
311,318,318,307,0
313,320,317,308,0
314,322,316,309,0
316,321,315,310,0
316,319,314,310,0
314,318,312,309,0
310,317,309,307,0
304,315,305,305,0
300,315,302,303,0
298,318,302,302,0
299,320,303,301,0
301,320,305,300,0
302,316,307,299,0
304,310,308,298,0
304,305,308,297,0
302,299,308,297,0
299,295,307,298,0
297,294,306,300,0
297,294,303,302,0
296,293,299,302,0
298,299,297,302,0
300,310,295,303,0
303,321,295,303,0
306,325,296,305,0
306,325,298,306,0
307,325,301,309,0
307,323,302,310,0
307,318,301,309,0
305,310,299,309,0
305,303,300,309,0
306,304,303,309,0
308,310,307,310,0
310,316,311,310,0
312,318,315,310,0
312,315,318,309,0
311,308,320,309,0
309,299,322,308,0
306,292,321,308,0
302,289,319,306,0
300,294,317,306,0
299,304,316,305,0
300,315,316,305,0
302,324,314,305,0
304,329,312,304,0
306,333,310,304,0
310,333,309,304,0
313,331,308,305,0
316,327,307,305,0
316,320,307,306,0
314,310,306,305,0
310,302,304,305,0
306,300,303,305,0
302,303,301,305,0
299,308,299,304,0
297,313,298,303,0
295,312,297,302,0
294,308,298,302,0
294,303,299,303,0
294,297,300,304,0
295,293,301,304,0
297,292,302,306,0
299,296,303,308,0
302,304,305,309,0
304,304,306,311,0
304,299,307,313,0
303,296,310,314,0
304,297,314,314,0
304,304,316,314,0
303,312,317,313,0
302,317,317,312,0
301,320,317,312,0
301,322,316,312,0
303,323,315,312,0
305,323,313,312,0
307,323,311,311,0
309,324,309,310,0
310,324,306,307,0
309,323,304,305,0
308,320,303,305,0
307,318,303,305,0
309,316,304,306,0
311,312,305,305,0
312,309,304,304,0
312,309,302,301,0
311,307,300,298,0
312,301,301,296,0
313,293,304,297,0
312,284,308,297,0
310,274,311,296,0
308,270,313,297,0
308,277,313,298,0
310,288,313,302,0
313,296,313,306,0
315,300,313,309,0
315,306,313,310,0
312,315,313,308,0
307,323,311,306,0
302,327,309,303,0
298,328,307,302,0
297,328,304,301,0
297,330,303,301,0
298,332,303,302,0
299,332,302,302,0
301,332,301,302,0
302,332,301,302,0
301,330,301,303,0
301,327,302,304,0
302,320,304,305,0
303,310,307,306,0
304,301,309,308,0
304,295,310,308,0
303,289,311,308,0
304,286,313,308,0
306,285,316,309,0
308,285,318,310,0
310,286,319,310,0
312,290,320,310,0
314,295,319,308,0
314,298,316,305,0
312,299,313,303,0
310,299,310,302,0
308,300,307,300,0
306,300,305,298,0
305,303,302,297,0
305,307,301,297,0
306,310,301,298,0
306,312,300,300,0
304,313,301,302,0
302,314,301,304,0
299,313,301,306,0
297,307,301,307,0
297,299,302,308,0
298,292,304,309,0
299,289,305,310,0
300,291,306,311,0
302,295,307,311,0
303,299,308,311,0
305,303,308,310,0
308,307,308,311,0
309,314,308,310,0
311,322,308,310,0
312,329,308,311,0
312,333,307,310,0
310,331,307,309,0
308,321,306,310,0
307,305,306,310,0
306,290,306,310,0
305,280,306,310,0
305,280,305,310,0
306,287,304,310,0
306,297,302,309,0
307,306,300,308,0
310,313,301,309,0
313,313,302,310,0
315,307,302,310,0
314,297,302,310,0
313,294,301,309,0
312,298,299,307,0
311,306,297,306,0
311,312,295,305,0
311,316,295,306,0
310,317,297,306,0
309,319,300,307,0
308,323,301,307,0
306,324,301,305,0
304,320,300,302,0
303,312,299,300,0
303,302,299,298,0
305,294,301,297,0
309,291,304,298,0
313,295,309,300,0
317,300,312,303,0
318,303,314,305,0
314,300,313,307,0
308,297,312,309,0
304,297,311,310,0
302,300,312,311,0
302,304,313,313,0
305,308,316,313,0
310,311,318,313,0
314,313,320,311,0
315,313,320,309,0
315,310,319,308,0
316,307,318,311,0
317,306,317,313,0
318,309,316,315,0
318,315,315,316,0
316,320,314,316,0
313,324,313,314,0
311,326,313,314,0
311,328,314,314,0
311,328,314,313,0
312,328,314,313,0
311,326,315,312,0
310,317,315,312,0
308,300,315,312,0
306,285,315,312,0
304,280,314,312,0
303,281,313,312,0
304,282,311,312,0
305,282,310,312,0
306,284,309,312,0
307,289,309,312,0
308,297,308,310,0
307,305,307,308,0
303,309,304,307,0
299,309,302,305,0
296,303,300,305,0
295,299,298,306,0
297,299,297,307,0
300,301,298,308,0
305,305,298,308,0
308,311,298,307,0
311,318,298,307,0
312,325,299,307,0
314,331,302,309,0
314,327,304,309,0
311,315,305,309,0
306,300,307,308,0
303,289,308,308,0
300,280,310,307,0
298,272,310,307,0
297,268,309,307,0
298,270,309,309,0
299,277,310,310,0
300,286,311,312,0
301,295,313,313,0
301,299,312,313,0
301,297,311,311,0
301,291,308,309,0
301,280,304,307,0
300,272,302,305,0
299,272,300,306,0
300,281,299,307,0
300,295,298,307,0
301,310,297,307,0
302,318,296,307,0
302,320,295,305,0
302,321,296,303,0
302,320,297,302,0
302,319,297,302,0
302,320,299,302,0
303,324,300,304,0
307,331,301,306,0
309,335,305,309,0
311,336,309,311,0
313,334,312,314,0
315,330,315,316,0
316,322,316,316,0
314,310,317,316,0
311,295,317,315,0
307,282,317,316,0
305,273,318,316,0
302,268,319,315,0
300,270,319,314,0
300,279,318,311,0
299,290,315,307,0
299,300,310,303,0
299,309,305,301,0
299,317,303,301,0
301,323,301,301,0
305,326,301,302,0
309,327,300,302,0
311,323,298,302,0
311,318,297,303,0
310,314,297,306,0
308,309,299,308,0
307,305,301,311,0
305,303,304,313,0
303,301,306,314,0
302,304,307,315,0
301,309,308,314,0
301,312,308,313,0
302,317,308,310,0
304,321,307,308,0
305,323,307,307,0
307,324,307,306,0
307,320,305,305,0
307,312,305,305,0
307,304,305,306,0
309,298,304,308,0
308,293,304,309,0
306,288,302,309,0
302,287,301,309,0
302,293,303,308,0
303,303,305,308,0
305,312,307,308,0
307,316,309,307,0
307,315,309,307,0
305,306,308,306,0
302,291,305,305,0
299,279,302,304,0
296,276,300,304,0
296,278,297,303,0
298,283,295,304,0
301,289,294,304,0
303,293,292,305,0
305,296,291,306,0
305,297,291,306,0
304,298,293,307,0
304,298,296,307,0
303,299,299,307,0
303,300,301,307,0
304,302,304,306,0
305,305,306,306,0
306,308,307,306,0
307,310,307,306,0
308,312,305,306,0
310,314,302,306,0
310,317,299,307,0
311,321,297,308,0
312,326,296,309,0
311,328,296,310,0
309,326,297,312,0
307,320,300,312,0
307,313,303,312,0
307,307,308,312,0
310,305,313,312,0
312,301,318,312,0
313,296,322,310,0
311,290,323,308,0
308,289,323,306,0
305,290,321,305,0
302,294,319,304,0
301,299,318,304,0
301,302,317,304,0
301,302,316,304,0
300,301,314,304,0
300,298,313,304,0
300,295,312,305,0
301,291,312,306,0
302,288,312,306,0
302,286,312,304,0
304,289,312,303,0
308,295,313,303,0
311,300,313,303,0
314,304,312,304,0
315,307,310,305,0
315,309,309,306,0
315,309,307,306,0
314,308,304,306,0
312,308,302,305,0
309,312,300,304,0
304,314,298,303,0
299,312,296,303,0
296,303,297,304,0
296,293,299,305,0
296,282,300,305,0
296,274,301,305,0
296,272,301,305,0
297,276,302,305,0
299,283,302,304,0
303,292,303,305,0
307,303,304,306,0
309,312,305,307,0
309,319,305,307,0
308,322,305,308,0
308,327,305,308,0
308,331,306,308,0
310,330,306,307,0
310,326,307,307,0
312,322,306,307,0
313,318,305,307,0
313,313,302,306,0
311,311,300,306,0
308,309,299,306,0
306,309,298,307,0
305,311,298,307,0
307,314,301,309,0
310,319,305,312,0
313,323,310,313,0
315,325,314,313,0
314,324,316,311,0
313,321,315,310,0
310,313,314,308,0
307,301,312,307,0
304,287,310,308,0
302,276,308,308,0
301,270,306,308,0
301,269,304,308,0
300,272,301,307,0
301,276,299,307,0
302,281,298,307,0
304,288,297,307,0
305,293,297,308,0
307,292,297,309,0
307,291,297,310,0
309,292,298,311,0
312,292,300,311,0
313,289,302,311,0
313,284,304,310,0
311,280,307,309,0
309,283,309,308,0
307,290,310,307,0
305,302,310,305,0
303,312,307,304,0
302,320,305,303,0
302,328,302,302,0
303,335,300,301,0
304,339,299,299,0
306,341,298,298,0
307,344,300,297,0
308,346,302,296,0
308,344,302,296,0
305,339,301,296,0
302,333,299,298,0
301,328,297,301,0
302,324,297,304,0
302,322,298,306,0
302,325,299,307,0
303,329,301,306,0
303,334,304,306,0
303,332,308,307,0
302,324,311,309,0
302,312,312,310,0
301,300,311,310,0
302,292,309,309,0
305,289,307,308,0
307,289,306,307,0
309,288,306,308,0
312,290,308,311,0
315,296,311,313,0
316,305,312,314,0
313,310,312,314,0
309,312,312,313,0
306,314,311,313,0
303,314,311,312,0
302,306,309,312,0
300,291,308,310,0
300,274,308,309,0
301,261,308,309,0
301,255,308,308,0
302,255,307,308,0
302,263,306,307,0
302,277,305,306,0
303,295,305,306,0
306,312,306,307,0
309,322,306,308,0
311,322,306,309,0
312,318,307,310,0
312,311,309,310,0
312,303,311,310,0
311,296,313,310,0
310,294,313,309,0
308,296,314,307,0
307,300,315,307,0
308,305,316,306,0
309,318,317,306,0
312,337,317,307,0
314,349,316,306,0
311,345,313,305,0
306,335,309,305,0
303,327,307,305,0
302,322,305,306,0
302,321,304,306,0
304,322,304,305,0
307,321,304,305,0
309,320,303,304,0
309,321,302,303,0
309,325,300,302,0
307,327,298,301,0
306,322,300,302,0
306,311,302,304,0
307,297,302,305,0
307,288,302,305,0
306,283,302,306,0
306,282,300,306,0
306,282,299,306,0
305,278,299,306,0
304,276,300,305,0
304,282,304,304,0
306,293,307,303,0
305,299,308,302,0
303,298,309,303,0
304,299,312,306,0
307,304,314,308,0
310,311,315,310,0
311,317,315,309,0
310,321,313,309,0
309,324,312,308,0
307,325,311,308,0
306,327,311,309,0
306,329,310,309,0
308,329,309,310,0
309,327,308,309,0
310,319,308,310,0
310,312,307,311,0
310,310,309,312,0
312,313,311,313,0
315,321,314,313,0
318,334,317,313,0
320,345,319,312,0
320,349,318,310,0
318,344,315,308,0
316,331,310,306,0
315,315,306,305,0
315,300,304,305,0
315,288,303,305,0
315,280,302,304,0
313,280,301,304,0
310,287,301,304,0
307,292,302,304,0
303,293,303,304,0
299,292,303,305,0
295,291,304,305,0
293,292,304,305,0
292,293,305,306,0
290,294,306,306,0
291,296,307,308,0
293,299,308,309,0
295,301,307,309,0
297,300,306,308,0
299,298,306,308,0
303,300,308,307,0
308,306,312,307,0
313,313,316,308,0
316,316,319,308,0
317,314,320,308,0
316,315,320,307,0
314,325,318,306,0
313,340,316,306,0
310,346,313,306,0
306,339,309,304,0
302,325,305,302,0
299,313,302,301,0
298,305,300,301,0
299,301,300,303,0
301,301,301,305,0
303,300,303,306,0
305,299,305,307,0
307,297,307,308,0
309,297,310,309,0
311,298,313,310,0
311,299,315,310,0
309,300,317,309,0
306,300,316,307,0
302,298,314,306,0
300,296,313,305,0
301,298,312,306,0
301,303,311,306,0
300,307,309,305,0
299,310,308,305,0
299,313,309,304,0
299,317,309,304,0
299,319,311,304,0
300,320,311,305,0
301,320,311,306,0
302,317,311,307,0
302,314,312,309,0
304,312,312,310,0
306,311,312,311,0
308,309,313,312,0
312,307,313,312,0
316,302,314,313,0
319,298,314,314,0
322,296,313,315,0
324,297,312,314,0
322,296,311,313,0
317,292,309,310,0
310,285,306,306,0
303,279,303,303,0
299,278,301,302,0
299,287,301,303,0
301,305,301,304,0
303,328,301,304,0
303,343,302,303,0
302,346,303,303,0
299,339,303,303,0
296,326,303,303,0
295,312,305,303,0
295,300,306,304,0
296,292,308,304,0
299,288,308,305,0
302,287,309,306,0
306,283,309,307,0
309,279,309,307,0
313,275,308,306,0
315,275,308,306,0
317,284,307,306,0
316,297,308,305,0
315,309,309,305,0
313,320,311,306,0
310,327,312,305,0
306,331,311,305,0
302,332,309,305,0
299,332,307,306,0
298,329,306,307,0
298,323,304,307,0
299,314,303,306,0
301,304,304,305,0
302,298,305,305,0
302,296,306,303,0
302,296,305,302,0
301,298,303,302,0
299,300,301,302,0
299,300,299,302,0
298,301,298,303,0
299,302,299,304,0
301,307,300,306,0
304,315,302,308,0
307,324,306,309,0
309,332,309,311,0
310,336,311,312,0
309,336,312,313,0
308,332,314,314,0
308,324,316,315,0
308,315,317,316,0
310,306,317,317,0
311,300,317,319,0
314,300,316,320,0
316,303,317,321,0
319,306,319,321,0
321,308,320,321,0
320,310,321,320,0
316,308,319,317,0
311,303,317,315,0
307,295,314,313,0
304,288,310,312,0
301,282,307,310,0
300,278,306,307,0
301,281,307,305,0
302,290,308,304,0
301,299,309,304,0
301,307,308,304,0
301,314,306,304,0
301,318,305,304,0
300,316,304,304,0
301,312,305,304,0
302,310,307,304,0
304,311,309,305,0
306,312,310,305,0
307,310,311,305,0
308,306,311,306,0
308,304,310,306,0
308,303,309,305,0
309,302,307,306,0
310,302,304,305,0
310,302,303,306,0
313,306,304,307,0
316,312,306,308,0
318,315,308,309,0
316,308,306,307,0
312,299,304,305,0
308,295,302,303,0
308,298,302,303,0
308,309,302,303,0
309,323,303,303,0
308,334,301,302,0
306,340,299,300,0
303,342,297,298,0
300,339,296,297,0
299,334,296,296,0
299,330,297,296,0
298,325,297,295,0
297,321,297,295,0
296,317,298,294,0
294,311,298,293,0
292,304,298,293,0
292,299,299,295,0
292,297,301,298,0
294,300,304,300,0
297,304,307,303,0
300,306,310,306,0
303,307,312,308,0
305,305,313,311,0
306,304,313,312,0
309,305,313,312,0
312,307,312,311,0
312,307,311,309,0
311,307,309,307,0
310,308,308,307,0
310,309,307,307,0
311,307,305,308,0
310,303,302,308,0
310,299,301,309,0
309,299,300,309,0
308,302,301,310,0
308,306,304,312,0
308,308,305,313,0
308,310,306,313,0
306,311,306,311,0
303,312,307,309,0
299,311,308,307,0
295,305,309,305,0
292,297,310,306,0
289,290,311,308,0
289,286,311,311,0
292,286,312,312,0
296,291,314,312,0
302,301,316,312,0
309,310,318,312,0
314,312,319,312,0
314,308,317,310,0
312,305,315,308,0
310,301,312,308,0
308,297,309,307,0
307,293,307,307,0
306,288,306,307,0
303,280,306,307,0
301,271,306,306,0
300,265,306,306,0
300,265,307,307,0
300,270,307,307,0
300,278,307,308,0
299,285,305,308,0
299,290,306,308,0
299,291,306,308,0
299,289,306,307,0
300,287,305,306,0
301,291,306,305,0
305,298,307,305,0
310,304,308,305,0
314,312,310,305,0
315,316,310,303,0
313,317,309,301,0
311,316,307,301,0
311,321,306,301,0
313,333,305,301,0
316,346,303,301,0
316,352,300,300,0
312,346,297,300,0
306,332,294,300,0
301,316,292,301,0
299,301,292,302,0
300,291,294,304,0
302,287,295,305,0
305,291,296,306,0
308,301,299,308,0
310,311,302,309,0
309,318,304,309,0
308,320,304,309,0
308,321,304,307,0
308,324,304,307,0
309,328,306,307,0
312,328,309,308,0
314,320,311,309,0
313,309,311,308,0
312,301,311,307,0
312,299,311,305,0
312,303,313,304,0
314,310,314,303,0
314,317,314,302,0
313,319,312,302,0
312,317,309,302,0
309,314,306,303,0
306,314,305,305,0
302,310,306,305,0
299,301,307,304,0
297,294,309,303,0
296,289,310,302,0
294,287,311,303,0
294,290,312,305,0
294,291,314,307,0
297,292,316,310,0
302,294,318,311,0
307,300,319,311,0
310,309,319,310,0
312,317,319,310,0
312,321,319,310,0
309,320,318,309,0
306,317,316,307,0
303,315,314,304,0
301,317,314,303,0
301,325,314,302,0
302,331,314,301,0
302,335,314,301,0
302,334,313,301,0
302,329,310,300,0
303,323,309,299,0
304,317,308,298,0
304,313,308,299,0
304,308,309,301,0
304,303,311,304,0
306,301,314,306,0
308,300,317,308,0
311,299,317,309,0
312,296,316,310,0
314,294,315,310,0
315,294,314,310,0
316,295,313,310,0
317,297,311,310,0
316,301,309,310,0
313,305,307,309,0
309,307,305,308,0
304,310,303,307,0
301,311,302,306,0
300,311,299,306,0
300,310,297,306,0
302,308,297,307,0
305,307,297,307,0
305,307,297,307,0
303,306,296,308,0
299,305,296,307,0
296,303,295,306,0
293,302,296,307,0
293,303,297,307,0
294,301,299,307,0
299,296,301,308,0
305,291,304,310,0
311,287,308,311,0
316,287,311,312,0
318,290,312,312,0
317,295,311,310,0
313,296,309,308,0
307,295,307,307,0
302,298,305,307,0
300,304,303,308,0
300,313,300,309,0
300,321,297,309,0
301,328,293,310,0
302,327,291,309,0
302,319,289,309,0
301,309,287,307,0
301,299,287,306,0
300,291,287,305,0
301,286,289,304,0
301,283,292,304,0
303,281,295,304,0
305,280,299,305,0
305,282,303,306,0
307,290,307,309,0
307,305,311,311,0
308,319,314,313,0
309,329,317,314,0
309,334,319,315,0
309,330,320,315,0
308,318,321,314,0
308,308,320,313,0
308,305,319,312,0
307,304,318,312,0
307,304,317,311,0
308,305,317,311,0
309,307,316,309,0
311,315,314,308,0
312,326,312,308,0
314,338,310,308,0
314,348,310,308,0
313,353,310,308,0
311,350,311,309,0
308,340,311,309,0
306,328,312,309,0
306,319,313,310,0
308,317,314,309,0
308,320,314,307,0
307,323,311,305,0
305,324,308,302,0
303,322,305,300,0
303,318,303,300,0
303,313,303,300,0
303,309,303,300,0
303,304,303,300,0
304,299,304,301,0
304,296,303,303,0
304,293,302,303,0
304,289,300,304,0
303,282,298,303,0
301,275,296,303,0
300,270,294,303,0
301,271,293,304,0
303,278,294,306,0
308,291,296,309,0
312,308,299,310,0
314,318,300,310,0
313,315,299,307,0
312,304,299,304,0
312,293,300,302,0
313,287,301,299,0
315,286,304,298,0
317,288,306,298,0
319,291,307,299,0
318,293,307,300,0
314,295,307,303,0
309,296,307,307,0
305,294,308,310,0
302,293,310,312,0
300,290,311,312,0
298,282,310,313,0
298,274,307,313,0
298,271,305,315,0
299,275,303,316,0
300,283,301,316,0
301,293,300,314,0
302,301,299,313,0
303,311,300,313,0
307,321,300,312,0
311,329,300,311,0
315,338,299,311,0
315,344,298,310,0
314,347,297,310,0
311,347,298,308,0
308,345,301,307,0
305,342,306,306,0
303,338,310,306,0
301,334,313,306,0
299,329,314,307,0
299,327,315,308,0
299,323,316,308,0
299,316,317,309,0
299,306,317,309,0
299,299,316,309,0
300,296,317,310,0
303,297,318,311,0
306,299,319,313,0
307,302,318,313,0
307,303,317,312,0
306,303,315,312,0
306,304,314,312,0
306,306,313,312,0
308,309,312,313,0
310,315,312,312,0
311,317,312,311,0
310,313,311,309,0
306,303,310,307,0
303,289,309,306,0
299,276,309,306,0
297,268,309,305,0
296,265,311,306,0
297,265,312,306,0
297,266,313,306,0
297,271,314,307,0
299,282,314,308,0
302,300,314,309,0
304,315,312,309,0
304,324,310,308,0
304,326,306,307,0
303,324,303,306,0
302,318,301,305,0
302,310,300,305,0
302,305,299,305,0
303,305,300,305,0
304,313,300,305,0
304,321,300,304,0
305,325,300,302,0
306,325,301,300,0
307,322,302,298,0
309,321,303,296,0
311,322,306,296,0
313,322,308,297,0
313,321,309,298,0
312,323,309,300,0
311,327,310,303,0
311,331,310,305,0
310,334,309,305,0
306,334,308,303,0
302,332,305,302,0
300,329,303,301,0
299,326,302,301,0
300,326,303,302,0
303,322,304,304,0
306,310,305,306,0
307,296,306,309,0
308,288,307,310,0
308,286,308,312,0
307,284,309,313,0
306,281,310,314,0
308,280,310,315,0
310,283,311,315,0
312,290,312,315,0
313,299,312,315,0
310,305,312,314,0
307,306,311,312,0
304,306,310,311,0
302,304,309,310,0
299,302,307,308,0
297,301,306,307,0
295,303,306,307,0
295,299,305,309,0
298,294,305,312,0
303,293,306,314,0
309,294,308,315,0
314,294,309,316,0
317,289,309,315,0
317,284,309,313,0
316,281,310,312,0
314,282,310,312,0
311,291,311,311,0
307,302,311,310,0
303,310,310,308,0
299,311,309,307,0
297,309,308,307,0
296,309,307,307,0
299,317,308,308,0
302,323,308,309,0
304,319,308,310,0
304,314,307,309,0
303,312,306,309,0
302,313,305,307,0
301,317,304,307,0
301,322,304,308,0
301,325,304,308,0
302,324,304,307,0
304,322,304,307,0
305,319,304,306,0
305,316,303,305,0
306,313,303,304,0
307,312,302,304,0
309,313,301,304,0
311,315,299,304,0
312,314,297,304,0
311,312,295,304,0
309,308,293,303,0
306,304,293,302,0
304,299,294,302,0
303,294,295,302,0
303,287,297,301,0
303,278,300,302,0
304,270,304,303,0
305,268,306,305,0
306,275,308,307,0
307,286,308,308,0
306,297,308,309,0
305,304,306,310,0
304,307,306,311,0
304,306,306,312,0
305,304,306,313,0
306,302,307,313,0
307,301,308,314,0
306,298,309,314,0
305,293,310,314,0
303,292,311,314,0
301,295,311,314,0
298,303,313,313,0
298,313,314,314,0
300,323,314,313,0
302,329,313,312,0
305,331,311,310,0
308,330,308,309,0
310,327,305,307,0
311,323,303,307,0
311,318,302,306,0
308,313,298,304,0
302,306,295,300,0
298,298,293,298,0
296,294,294,299,0
297,298,297,301,0
299,301,301,304,0
301,299,304,306,0
302,300,306,306,0
303,305,308,306,0
303,311,310,307,0
304,313,311,308,0
306,312,312,309,0
309,313,312,310,0
312,317,312,311,0
316,323,312,311,0
318,326,312,311,0
317,323,311,309,0
314,316,308,306,0
311,306,304,304,0
308,297,301,303,0
308,292,301,306,0
309,295,302,309,0
308,302,302,311,0
306,307,301,312,0
304,309,299,312,0
302,309,299,311,0
301,308,299,310,0
301,305,299,309,0
300,303,299,309,0
300,300,301,310,0
300,295,303,311,0
300,291,306,312,0
302,291,308,312,0
304,296,310,313,0
307,307,312,313,0
309,319,313,313,0
310,326,311,311,0
309,329,308,309,0
308,330,305,306,0
308,335,304,305,0
310,343,303,304,0
312,347,303,305,0
312,344,304,306,0
313,336,306,308,0
314,326,309,310,0
315,314,312,311,0
315,300,314,311,0
315,287,314,311,0
314,278,313,311,0
311,275,313,310,0
307,278,313,310,0
304,284,313,310,0
303,290,314,310,0
303,296,314,310,0
304,301,314,309,0
304,303,312,308,0
303,303,309,307,0
301,301,305,305,0
300,299,302,304,0
299,298,300,303,0
298,299,299,303,0
299,302,299,305,0
299,306,301,306,0
299,308,303,306,0
298,306,304,306,0
298,304,306,306,0
299,300,306,306,0
301,298,307,306,0
304,299,309,307,0
308,303,312,308,0
309,308,315,307,0
307,309,317,306,0
304,306,317,305,0
301,302,317,304,0
299,300,316,304,0
298,299,315,303,0
298,297,314,301,0
299,297,313,301,0
300,301,314,302,0
302,305,314,304,0
303,310,314,305,0
304,315,315,307,0
307,320,316,308,0
311,322,317,309,0
313,319,316,309,0
313,316,314,307,0
311,315,311,305,0
308,314,307,302,0
304,312,304,300,0
300,309,303,299,0
297,306,301,300,0
294,301,300,301,0
293,297,300,304,0
293,294,302,306,0
294,291,303,308,0
298,290,304,311,0
303,292,305,312,0
308,296,305,312,0
313,301,305,312,0
316,305,305,311,0
317,306,304,309,0
316,306,302,306,0
315,310,303,305,0
317,318,304,305,0
319,323,304,306,0
319,327,305,306,0
320,328,308,307,0
321,329,310,309,0
321,328,311,308,0
320,322,311,307,0
317,313,310,304,0
314,301,309,302,0
313,294,308,302,0
314,292,308,303,0
315,297,309,304,0
316,305,311,306,0
315,310,313,308,0
313,308,316,309,0
310,301,317,309,0
306,289,316,309,0
304,281,314,309,0
302,283,315,310,0
302,297,316,310,0
302,320,315,309,0
300,336,314,307,0
298,341,312,305,0
297,337,309,304,0
298,327,307,303,0
299,321,306,302,0
303,320,305,303,0
305,321,305,304,0
306,323,305,304,0
305,325,304,304,0
304,324,304,304,0
303,323,303,305,0
303,321,303,306,0
304,317,304,309,0
305,312,305,312,0
305,308,307,314,0
306,305,308,315,0
307,303,308,314,0
307,302,307,313,0
307,299,307,312,0
308,295,307,311,0
308,293,308,312,0
308,293,308,311,0
307,295,308,310,0
306,298,307,309,0
304,303,304,307,0
303,307,303,306,0
302,310,302,306,0
301,312,302,307,0
302,313,301,308,0
302,313,300,308,0
301,311,299,307,0
300,308,299,306,0
300,304,299,305,0
301,301,300,305,0
303,299,300,305,0
304,297,302,305,0
307,294,304,305,0
309,291,307,305,0
310,287,309,304,0
309,282,308,303,0
307,279,306,302,0
306,281,305,300,0
307,293,305,300,0
310,314,307,301,0
313,334,309,304,0
314,344,310,306,0
313,342,310,308,0
310,331,308,308,0
305,314,305,306,0
302,301,303,304,0
300,294,300,302,0
300,292,298,301,0
300,291,298,302,0
302,290,300,304,0
303,287,303,307,0
303,285,306,308,0
303,283,308,309,0
303,284,309,310,0
304,286,311,310,0
304,291,311,309,0
302,297,310,307,0
301,303,309,306,0
300,308,308,306,0
301,313,307,306,0
303,320,307,307,0
305,330,307,308,0
306,336,305,308,0
307,336,304,309,0
310,333,304,309,0
312,330,308,309,0
314,324,310,309,0
311,318,310,306,0
306,311,309,304,0
302,308,308,302,0
301,309,307,301,0
301,310,308,300,0
302,309,306,298,0
301,307,305,297,0
301,304,304,296,0
301,303,304,296,0
301,302,304,297,0
301,302,304,298,0
300,304,304,300,0
300,305,304,303,0
300,305,304,305,0
300,304,304,307,0
301,304,304,309,0
303,308,306,311,0
303,313,308,313,0
302,316,310,314,0
300,314,312,315,0
299,307,311,314,0
298,296,308,312,0
298,285,306,311,0
299,279,304,311,0
300,275,303,310,0
301,269,302,310,0
301,262,301,309,0
302,260,301,309,0
304,264,301,309,0
307,275,303,310,0
311,294,306,312,0
314,315,308,313,0
316,330,309,312,0
314,334,308,310,0
311,331,307,309,0
309,325,306,309,0
308,322,306,310,0
309,324,308,311,0
309,329,309,310,0
308,332,310,309,0
306,333,311,308,0
304,331,312,308,0
302,327,313,308,0
302,324,316,310,0
304,326,318,311,0
304,330,320,311,0
303,334,318,309,0
299,333,315,308,0
296,329,311,307,0
295,326,307,308,0
295,320,304,308,0
297,312,300,308,0
298,303,295,306,0
299,294,291,306,0
299,288,289,305,0
300,287,288,305,0
300,289,287,304,0
301,293,288,304,0
302,299,289,304,0
303,304,292,305,0
304,306,296,306,0
305,304,300,308,0
305,299,302,310,0
304,294,305,311,0
304,293,307,312,0
306,298,311,313,0
308,311,315,314,0
310,328,318,315,0
311,338,319,315,0
313,343,319,314,0
314,344,318,314,0
315,340,315,312,0
313,332,313,311,0
311,320,312,310,0
311,308,310,309,0
309,295,308,309,0
308,287,308,309,0
308,289,309,311,0
307,296,310,312,0
305,295,311,313,0
302,292,312,313,0
299,291,313,313,0
297,296,312,312,0
295,305,309,309,0
293,314,305,307,0
291,321,302,304,0
291,322,299,302,0
292,323,297,299,0
294,322,295,297,0
298,320,294,295,0
302,317,295,295,0
305,312,295,295,0
305,307,295,296,0
302,301,294,295,0
299,297,294,294,0
297,294,294,293,0
297,295,295,294,0
298,298,296,296,0
298,302,298,299,0
299,306,301,301,0
301,310,304,304,0
302,313,306,306,0
302,314,307,308,0
303,314,307,310,0
305,312,307,311,0
308,313,306,313,0
311,316,307,315,0
314,319,307,316,0
316,322,306,317,0
317,326,305,316,0
316,329,304,315,0
312,328,302,311,0
305,322,300,307,0
300,313,299,305,0
296,305,299,304,0
295,301,302,305,0
295,301,305,307,0
295,303,307,309,0
296,306,308,310,0
297,309,308,311,0
299,308,308,312,0
300,306,307,312,0
302,308,306,313,0
305,315,305,313,0
306,319,303,313,0
306,314,300,311,0
303,300,297,310,0
302,288,295,309,0
303,283,296,310,0
305,285,300,311,0
306,288,303,312,0
307,288,307,312,0
306,285,311,312,0
306,281,314,312,0
307,277,318,310,0
307,276,319,311,0
310,283,321,313,0
315,294,323,316,0
319,305,326,319,0
320,314,325,319,0
316,317,324,318,0
310,313,321,317,0
305,304,320,316,0
302,296,318,315,0
301,292,317,314,0
302,293,315,313,0
304,296,314,312,0
306,300,313,310,0
308,304,311,307,0
307,308,310,305,0
306,315,309,303,0
305,320,308,302,0
303,322,309,301,0
302,320,308,299,0
300,316,307,298,0
298,312,307,297,0
299,309,307,298,0
301,312,307,299,0
305,320,308,301,0
309,331,309,302,0
311,338,308,303,0
310,342,307,303,0
307,338,307,304,0
304,329,306,305,0
303,317,306,307,0
303,308,307,308,0
306,303,309,310,0
309,299,310,310,0
311,296,309,310,0
312,300,307,309,0
312,308,307,308,0
312,312,306,307,0
310,310,306,305,0
306,303,306,305,0
304,297,306,305,0
301,291,306,305,0
301,289,305,305,0
302,291,304,305,0
303,299,303,305,0
304,309,300,306,0
304,318,298,306,0
304,321,297,305,0
303,321,296,304,0
303,320,297,303,0
303,317,298,301,0
302,314,299,300,0
302,312,300,299,0
301,312,301,298,0
300,313,302,297,0
300,315,302,297,0
300,318,302,298,0
302,323,302,299,0
304,331,303,300,0
306,336,304,301,0
309,335,305,303,0
310,326,306,305,0
310,310,306,306,0
311,292,305,307,0
310,277,304,308,0
310,269,304,309,0
308,268,303,309,0
307,272,303,308,0
306,275,303,306,0
305,278,303,305,0
306,280,305,306,0
311,285,306,310,0
316,291,308,314,0
321,302,308,317,0
324,314,304,316,0
324,323,299,315,0
320,328,293,312,0
315,329,289,310,0
311,328,286,309,0
307,327,285,307,0
305,324,285,307,0
303,321,286,306,0
301,318,289,306,0
300,318,293,306,0
299,319,298,306,0
299,323,302,307,0
298,326,306,307,0
298,329,308,307,0
297,329,309,306,0
297,326,310,306,0
