314,235,314,318,2
314,230,316,318,2
316,251,317,317,2
318,284,317,315,2
319,314,314,311,2
318,334,311,307,2
317,341,306,303,2
314,337,301,299,2
312,327,295,295,2
310,317,289,291,2
309,309,286,288,2
310,302,286,288,2
311,299,288,290,2
311,303,290,294,2
311,314,293,296,2
311,328,296,297,2
311,343,299,298,2
311,355,303,299,2
311,358,306,301,2
309,343,309,301,2
306,308,309,303,2
303,267,306,306,2
300,237,303,310,2
300,227,302,315,2
303,240,301,319,2
307,265,303,322,2
312,288,304,323,2
315,303,307,320,2
317,313,308,318,2
318,329,311,315,2
318,345,313,312,2
317,358,314,309,2
315,365,315,307,2
313,366,315,307,2
312,361,316,307,2
312,354,318,308,2
313,350,320,309,2
314,347,322,310,2
315,347,323,311,2
317,345,322,311,2
318,337,320,311,2
316,325,318,309,2
312,308,314,307,2
308,294,311,308,2
306,281,308,310,2
304,269,306,313,2
303,262,301,313,2
301,267,298,311,2
301,282,297,307,2
303,297,298,304,2
304,304,300,300,2
304,306,302,297,2
305,312,305,295,2
306,324,307,292,2
308,338,307,290,2
309,350,305,289,2
311,355,303,289,2
311,356,301,290,2
311,353,300,293,2
310,349,299,296,2
309,347,299,300,2
308,343,299,304,2
308,335,300,308,2
307,324,303,311,2
308,311,307,313,2
308,301,313,314,2
308,296,317,315,2
309,291,319,316,2
309,279,320,319,2
307,259,318,319,2
306,244,317,318,2
305,237,317,317,2
306,242,318,318,2
308,261,317,319,2
308,284,314,319,2
309,304,312,319,2
309,315,311,320,2
310,316,312,324,2
311,310,313,327,2
310,297,313,330,2
308,279,311,331,2
305,261,308,330,2
303,252,306,326,2
302,255,304,321,2
302,271,301,316,2
305,294,301,313,2
308,318,301,311,2
310,340,302,311,2
312,357,303,313,2
312,368,304,316,2
313,373,305,318,2
313,372,307,320,2
313,369,307,319,2
312,363,306,317,2
310,355,304,314,2
308,343,302,311,2
306,329,300,309,2
304,314,299,308,2
302,297,299,309,2
301,282,297,311,2
301,272,295,313,2
302,271,294,315,2
306,276,292,318,2
311,281,291,319,2
316,281,290,319,2
319,276,289,318,2
321,275,292,318,2
323,285,297,317,2
322,297,299,314,2
318,303,297,308,2
312,303,295,302,2
308,301,293,298,2
305,304,293,295,2
304,310,294,295,2
304,316,296,298,2
304,323,298,301,2
305,328,299,305,2
305,331,299,307,2
305,331,298,308,2
305,328,296,307,2
304,324,295,305,2
304,319,295,304,2
304,313,297,303,2
304,309,300,304,2
304,305,303,306,2
302,299,304,309,2
301,291,306,312,2
300,285,305,312,2
300,288,303,310,2
300,299,301,307,2
302,311,300,306,2
304,321,299,304,2
305,329,298,301,2
304,334,295,297,2
303,334,292,292,2
301,327,290,287,2
298,315,289,284,2
297,303,290,286,2
297,295,293,291,2
298,290,296,300,2
298,284,298,310,2
298,275,300,317,2
299,272,302,319,2
300,275,305,316,2
303,285,309,310,2
305,296,311,303,2
306,306,312,297,2
307,314,311,295,2
307,317,311,297,2
308,314,311,303,2
309,305,311,311,2
310,293,312,318,2
311,286,312,324,2
312,284,312,326,2
313,284,313,324,2
313,285,313,319,2
312,287,311,314,2
309,289,308,309,2
307,295,306,307,2
305,308,305,308,2
304,323,305,311,2
304,338,305,314,2
304,348,303,316,2
305,352,302,318,2
307,351,300,318,2
310,344,299,315,2
312,330,297,311,2
312,310,295,307,2
311,289,294,304,2
310,273,294,302,2
309,268,295,300,2
309,276,298,298,2
312,291,302,295,2
314,307,307,291,2
316,321,310,288,2
316,332,312,286,2
315,337,310,286,2
314,336,307,284,2
313,332,305,281,2
311,328,304,277,2
309,324,303,276,2
307,322,304,278,2
305,321,305,283,2
304,324,304,290,2
304,328,304,300,2
305,330,304,313,2
306,327,304,325,2
306,315,304,334,2
304,298,302,339,2
302,280,301,339,2
301,265,300,335,2
301,254,301,327,2
301,251,302,320,2
301,251,303,315,2
302,254,304,315,2
304,261,305,317,2
307,275,304,321,2
310,296,302,325,2
311,317,301,328,2
313,334,301,330,2
313,342,302,332,2
313,338,303,332,2
312,324,302,331,2
309,305,300,328,2
307,293,299,325,2
306,297,300,321,2
306,305,302,316,2
308,311,304,312,2
309,313,307,307,2
309,310,308,304,2
311,310,310,301,2
312,313,310,301,2
313,315,309,302,2
313,313,308,306,2
312,311,308,311,2
311,310,309,313,2
307,307,309,309,2
304,302,309,302,2
301,299,308,292,2
299,297,306,285,2
299,301,303,283,2
302,312,302,289,2
306,326,301,301,2
310,338,300,316,2
314,345,299,329,2
317,348,300,336,2
318,348,301,337,2
317,346,302,334,2
314,340,305,328,2
310,332,306,322,2
307,324,307,316,2
304,315,306,310,2
303,308,305,306,2
303,306,304,305,2
304,303,305,305,2
304,297,307,308,2
304,284,308,313,2
302,266,309,318,2
300,252,312,323,2
299,246,316,327,2
300,249,318,328,2
301,258,320,326,2
304,265,320,321,2
307,271,319,316,2
310,282,317,311,2
312,300,314,304,2
312,319,310,299,2
311,334,306,297,2
310,339,303,295,2
309,337,300,293,2
308,330,298,292,2
306,320,296,294,2
305,310,293,299,2
304,301,291,304,2
303,297,290,308,2
301,297,288,311,2
300,299,289,315,2
300,302,293,317,2
301,304,297,317,2
303,309,303,318,2
304,317,310,317,2
306,323,316,317,2
308,326,320,315,2
309,323,325,314,2
310,316,327,313,2
310,308,327,314,2
308,297,327,316,2
307,291,326,319,2
307,293,324,319,2
309,304,322,318,2
311,324,320,313,2
312,342,316,305,2
311,353,311,297,2
309,357,307,294,2
306,356,305,294,2
305,353,305,298,2
305,350,306,304,2
305,345,308,309,2
306,336,309,313,2
305,320,309,315,2
305,297,308,315,2
303,271,305,314,2
300,252,304,312,2
299,248,303,309,2
300,263,302,307,2
302,292,300,305,2
305,323,299,305,2
308,345,299,305,2
309,355,301,306,2
309,354,303,306,2
309,348,305,307,2
309,338,307,308,2
309,327,308,309,2
308,311,308,310,2
306,292,307,310,2
303,276,307,309,2
301,267,306,307,2
298,265,304,305,2
298,269,304,305,2
300,273,305,305,2
302,275,303,305,2
303,271,301,305,2
304,269,299,306,2
305,277,296,306,2
305,296,293,305,2
308,319,291,305,2
310,336,291,305,2
310,342,294,305,2
309,338,299,305,2
308,330,304,306,2
307,322,308,306,2
306,318,311,304,2
305,318,312,300,2
304,321,311,296,2
303,322,310,294,2
302,317,309,293,2
302,306,308,295,2
302,293,307,297,2
302,284,306,299,2
303,288,304,300,2
304,300,303,301,2
306,310,303,303,2
308,312,304,308,2
309,310,307,315,2
311,309,310,322,2
312,307,313,328,2
313,309,317,333,2
314,316,321,335,2
314,320,323,335,2
312,319,322,333,2
309,311,320,330,2
306,299,318,326,2
304,295,317,322,2
303,298,315,318,2
303,308,313,313,2
302,321,310,309,2
302,333,308,304,2
302,339,306,297,2
302,340,305,291,2
302,335,305,286,2
302,329,305,283,2
302,324,306,285,2
303,325,306,290,2
304,330,307,298,2
306,335,308,305,2
307,337,309,312,2
307,335,308,318,2
307,332,308,321,2
308,327,308,323,2
306,318,308,323,2
304,302,309,321,2
302,282,308,318,2
298,260,307,313,2
295,246,306,309,2
294,247,307,304,2
296,259,309,299,2
298,273,309,295,2
300,285,308,291,2
302,295,307,291,2
305,306,308,292,2
306,321,308,294,2
307,332,307,296,2
304,332,304,298,2
300,319,300,299,2
296,297,296,297,2
294,271,295,296,2
294,246,295,299,2
297,240,296,306,2
303,256,299,317,2
308,284,302,329,2
312,308,306,338,2
314,324,309,343,2
315,330,312,343,2
314,330,315,340,2
314,331,318,336,2
313,335,319,332,2
312,342,317,327,2
310,350,315,321,2
309,354,313,317,2
308,356,311,313,2
308,353,309,311,2
309,349,307,311,2
308,341,305,313,2
308,332,303,314,2
308,324,302,315,2
309,317,300,316,2
310,316,301,316,2
312,319,304,315,2
312,317,307,314,2
311,306,310,313,2
308,283,311,311,2
304,259,312,309,2
301,244,311,307,2
300,242,309,307,2
302,252,306,309,2
304,268,302,310,2
307,282,299,311,2
309,293,297,310,2
310,303,296,307,2
311,320,296,303,2
312,343,299,300,2
313,358,302,299,2
312,360,303,299,2
309,350,302,299,2
306,336,301,298,2
305,323,300,296,2
304,316,300,292,2
303,309,300,287,2
303,299,301,282,2
301,287,301,279,2
300,276,302,276,2
299,273,303,275,2
299,275,304,276,2
299,276,305,277,2
298,273,307,280,2
299,271,310,287,2
300,277,313,296,2
304,290,317,306,2
307,304,319,313,2
308,316,319,316,2
308,328,317,318,2
308,337,315,319,2
309,342,312,319,2
309,343,310,319,2
309,339,308,318,2
308,331,307,317,2
307,318,307,316,2
307,306,309,315,2
307,297,310,314,2
308,293,311,312,2
309,295,310,310,2
309,303,309,308,2
309,313,308,309,2
310,324,307,312,2
310,330,307,315,2
308,332,306,318,2
306,331,304,319,2
304,331,302,318,2
304,333,301,315,2
304,334,300,308,2
304,336,300,301,2
304,337,301,296,2
304,335,304,294,2
303,328,307,297,2
301,320,310,303,2
300,312,313,311,2
300,304,315,318,2
300,297,317,322,2
301,290,318,323,2
305,283,318,323,2
307,275,316,322,2
309,265,313,319,2
308,254,310,314,2
306,247,308,310,2
305,247,306,307,2
303,259,303,306,2
303,283,302,306,2
305,308,302,308,2
307,322,305,310,2
309,322,307,313,2
310,312,307,315,2
310,305,307,316,2
309,310,307,317,2
310,323,307,318,2
311,331,307,319,2
311,330,308,320,2
311,319,309,321,2
311,303,310,321,2
311,288,310,320,2
311,275,310,318,2
311,267,309,316,2
310,263,308,315,2
309,267,308,315,2
308,281,310,315,2
308,302,310,314,2
307,316,309,311,2
306,318,308,309,2
303,309,307,306,2
300,299,306,304,2
299,301,305,302,2
299,314,305,302,2
300,332,307,302,2
302,349,310,301,2
304,361,312,299,2
304,364,312,295,2
304,362,310,290,2
304,357,309,288,2
305,352,306,288,2
305,347,304,292,2
306,343,302,297,2
308,339,302,304,2
310,335,302,309,2
310,331,304,313,2
311,325,306,314,2
312,316,308,314,2
311,304,308,313,2
309,290,308,312,2
306,276,309,312,2
303,262,310,312,2
300,255,312,314,2
299,249,314,316,2
298,242,317,318,2
298,232,320,319,2
299,226,321,320,2
301,231,320,319,2
303,253,318,315,2
305,287,314,308,2
307,320,311,301,2
308,340,310,296,2
308,348,309,294,2
307,347,308,295,2
306,345,307,298,2
306,346,306,301,2
306,350,304,302,2
306,354,302,301,2
306,357,301,301,2
306,359,301,301,2
306,357,302,301,2
305,349,303,301,2
304,337,302,301,2
302,325,302,299,2
300,314,302,297,2
300,301,301,295,2
300,286,300,292,2
300,276,300,289,2
301,274,300,287,2
302,274,299,287,2
303,272,298,291,2
303,266,298,299,2
302,257,298,311,2
302,251,301,322,2
302,250,303,331,2
303,254,305,335,2
303,268,307,335,2
305,291,308,332,2
308,316,309,327,2
310,337,307,321,2
311,351,305,314,2
311,358,302,306,2
310,356,298,299,2
308,352,295,293,2
307,348,295,290,2
308,350,296,291,2
310,354,298,291,2
312,356,299,294,2
312,355,302,299,2
312,353,304,305,2
312,348,308,313,2
311,334,311,319,2
310,315,313,322,2
309,296,314,322,2
308,282,314,320,2
308,282,313,318,2
310,298,311,316,2
311,322,307,315,2
312,337,303,315,2
311,337,298,315,2
309,324,295,312,2
307,307,293,307,2
304,295,292,303,2
303,292,294,301,2
304,291,300,304,2
306,292,305,309,2
307,292,309,313,2
306,288,311,317,2
305,280,313,320,2
305,270,315,322,2
305,268,318,321,2
306,283,320,320,2
307,304,320,318,2
307,320,320,316,2
307,330,318,314,2
306,336,314,310,2
304,340,309,304,2
303,343,304,297,2
303,344,302,292,2
304,341,299,288,2
304,335,297,286,2
306,326,296,285,2
307,315,295,285,2
307,308,296,291,2
308,305,298,300,2
308,306,300,310,2
308,307,300,319,2
307,309,300,324,2
307,310,299,326,2
306,308,299,324,2
305,303,300,321,2
304,291,302,318,2
302,274,304,314,2
301,255,305,310,2
300,239,306,308,2
301,234,306,308,2
301,242,304,307,2
301,261,302,304,2
300,288,302,301,2
302,314,303,298,2
304,333,305,294,2
305,343,307,291,2
305,349,308,292,2
304,351,308,296,2
303,350,307,300,2
302,348,304,304,2
301,344,302,306,2
301,337,301,308,2
301,329,301,308,2
302,321,300,308,2
302,313,300,307,2
302,303,300,306,2
303,287,300,306,2
302,268,299,309,2
301,253,299,313,2
300,245,300,317,2
300,248,302,321,2
301,260,304,324,2
302,274,306,326,2
302,284,307,326,2
302,292,309,323,2
301,298,310,320,2
301,305,311,317,2
301,310,310,316,2
301,309,310,317,2
303,299,309,318,2
305,286,310,321,2
308,281,310,322,2
309,286,309,320,2
308,298,307,316,2
308,311,306,311,2
307,324,304,306,2
306,336,302,299,2
306,344,301,294,2
306,348,300,293,2
306,345,299,295,2
306,335,299,297,2
306,324,297,300,2
306,318,294,302,2
305,314,291,302,2
305,308,289,301,2
304,301,289,301,2
304,291,290,302,2
304,283,292,303,2
305,283,295,306,2
307,294,297,310,2
310,308,298,312,2
311,320,298,314,2
313,332,300,317,2
314,340,302,320,2
315,344,305,322,2
315,343,308,322,2
315,341,312,321,2
316,342,317,319,2
316,344,321,316,2
316,342,322,313,2
315,333,321,310,2
314,311,318,309,2
312,283,314,308,2
309,262,310,309,2
306,256,307,310,2
303,261,305,310,2
301,269,304,307,2
298,273,304,302,2
296,269,304,296,2
295,265,303,289,2
294,267,300,282,2
295,281,298,280,2
298,304,298,281,2
303,331,300,286,2
306,353,302,293,2
309,366,305,301,2
311,372,309,311,2
312,371,312,319,2
312,367,314,325,2
310,360,313,328,2
308,352,312,327,2
306,343,311,324,2
303,332,309,320,2
301,320,307,317,2
301,311,306,315,2
302,304,305,315,2
303,297,305,315,2
304,291,306,316,2
304,285,307,318,2
304,274,308,318,2
304,261,309,316,2
304,254,309,313,2
303,250,306,308,2
301,249,302,303,2
301,255,298,300,2
301,266,296,298,2
301,279,295,296,2
302,297,297,295,2
303,317,300,294,2
305,331,302,291,2
307,337,304,287,2
308,336,303,281,2
308,331,301,274,2
307,327,300,270,2
307,327,299,270,2
307,323,300,276,2
308,316,301,289,2
309,312,304,306,2
311,309,307,324,2
314,311,309,337,2
315,318,310,344,2
316,324,310,344,2
315,329,310,342,2
315,332,310,338,2
314,333,309,331,2
314,331,306,324,2
313,332,305,315,2
312,335,305,309,2
310,338,305,306,2
309,339,306,307,2
308,338,308,310,2
307,336,311,314,2
307,331,313,317,2
306,321,314,318,2
303,305,315,318,2
300,285,313,316,2
297,268,309,314,2
295,257,306,312,2
295,255,303,311,2
298,262,301,309,2
300,274,299,306,2
302,288,297,303,2
303,298,296,301,2
303,302,295,299,2
302,299,293,298,2
302,291,291,297,2
300,276,290,298,2
299,252,290,299,2
297,231,291,302,2
298,225,294,305,2
300,239,299,308,2
304,274,303,309,2
309,312,307,309,2
313,341,309,309,2
315,356,310,310,2
316,360,312,311,2
316,357,312,312,2
314,348,312,312,2
312,334,311,312,2
310,321,311,311,2
310,312,313,311,2
311,311,315,311,2
313,317,318,310,2
314,325,319,308,2
314,332,319,306,2
314,333,316,303,2
313,325,313,301,2
311,309,309,300,2
309,288,307,300,2
307,270,305,302,2
305,259,306,304,2
304,256,307,304,2
304,260,307,304,2
304,274,308,305,2
307,294,308,307,2
310,312,308,310,2
313,321,308,313,2
315,323,308,315,2
315,319,309,316,2
316,313,310,315,2
315,308,311,314,2
315,308,313,314,2
314,317,315,313,2
313,330,317,312,2
312,338,317,310,2
311,333,316,308,2
308,314,314,305,2
306,286,313,303,2
304,263,313,301,2
303,257,312,298,2
303,268,310,294,2
304,287,307,291,2
304,302,305,290,2
305,308,303,291,2
304,306,302,290,2
303,301,302,288,2
302,301,302,284,2
301,306,302,279,2
301,311,302,276,2
301,316,302,277,2
302,321,301,282,2
304,329,300,289,2
305,334,299,294,2
305,334,297,298,2
305,327,295,300,2
305,314,293,297,2
304,300,291,293,2
304,292,290,292,2
304,293,290,294,2
305,298,290,299,2
306,301,292,306,2
307,299,294,313,2
307,293,298,319,2
308,289,302,324,2
308,294,305,327,2
310,307,310,330,2
311,323,313,331,2
312,337,317,331,2
312,349,320,330,2
312,352,322,328,2
311,348,321,324,2
310,340,318,320,2
308,334,313,315,2
306,330,308,310,2
304,326,305,304,2
302,320,302,297,2
300,309,300,292,2
298,290,299,291,2
298,269,299,292,2
297,254,300,296,2
297,255,300,301,2
298,272,302,305,2
300,293,305,310,2
302,306,307,313,2
303,316,309,313,2
303,323,310,313,2
303,328,309,311,2
302,328,308,309,2
302,326,305,306,2
301,322,302,304,2
300,316,299,300,2
299,307,297,296,2
298,293,295,295,2
297,284,296,297,2
299,288,299,301,2
302,305,305,304,2
305,326,310,306,2
308,341,313,308,2
309,346,315,310,2
310,345,315,313,2
311,344,316,316,2
311,342,318,318,2
311,337,318,319,2
311,333,318,318,2
310,329,317,318,2
311,328,317,317,2
312,331,317,317,2
314,335,318,317,2
314,331,318,317,2
313,318,318,317,2
311,298,315,317,2
307,275,313,313,2
302,256,310,306,2
299,247,307,297,2
296,247,306,288,2
296,257,306,281,2
298,274,308,278,2
302,294,309,278,2
304,309,309,280,2
304,318,308,284,2
304,322,307,290,2
304,323,305,296,2
305,325,304,304,2
306,323,303,313,2
308,316,303,320,2
309,301,304,325,2
308,277,304,327,2
305,248,304,326,2
302,225,305,323,2
300,217,306,320,2
301,230,309,320,2
305,255,312,321,2
307,280,312,322,2
306,295,311,321,2
305,297,308,317,2
304,294,305,312,2
302,291,302,304,2
300,290,296,294,2
299,293,291,287,2
297,295,289,284,2
296,292,289,284,2
295,290,291,289,2
296,292,295,297,2
296,296,299,305,2
298,301,303,313,2
300,309,307,320,2
302,320,309,325,2
302,330,309,328,2
301,334,309,328,2
301,336,308,327,2
300,335,307,324,2
300,332,306,321,2
302,328,305,316,2
304,323,304,312,2
304,312,302,309,2
304,295,302,307,2
303,273,301,306,2
302,248,300,307,2
301,229,298,307,2
301,226,296,307,2
303,240,294,306,2
304,265,293,305,2
305,293,292,303,2
304,316,289,300,2
303,333,287,297,2
303,342,285,295,2
304,342,285,295,2
304,335,287,297,2
304,324,291,300,2
304,314,295,303,2
304,308,300,304,2
304,307,305,304,2
305,309,309,304,2
306,308,311,306,2
306,301,312,312,2
307,292,311,319,2
307,288,310,326,2
309,288,308,331,2
309,288,306,332,2
309,288,304,329,2
308,289,303,324,2
306,290,301,317,2
304,289,298,310,2
302,290,295,302,2
300,296,293,292,2
298,307,292,281,2
296,317,293,273,2
295,321,296,270,2
295,321,299,272,2
296,314,302,281,2
297,305,305,289,2
298,302,307,297,2
299,305,309,301,2
300,314,310,304,2
302,323,311,307,2
305,329,312,311,2
308,331,313,316,2
310,331,314,321,2
312,330,318,327,2
313,328,321,332,2
315,326,323,334,2
315,327,324,333,2
316,331,323,331,2
315,337,322,326,2
315,340,320,321,2
314,339,319,318,2
313,333,317,316,2
311,327,315,315,2
310,322,314,316,2
309,317,313,318,2
307,308,313,320,2
305,292,313,320,2
302,274,314,318,2
301,260,315,314,2
301,255,315,309,2
302,260,315,303,2
304,274,313,298,2
306,289,311,292,2
307,300,307,286,2
307,305,303,281,2
305,305,300,281,2
303,303,297,285,2
301,301,295,294,2
299,304,294,305,2
300,309,294,318,2
301,315,294,326,2
303,322,295,330,2
304,327,295,329,2
304,330,297,327,2
304,329,297,323,2
304,327,297,319,2
304,319,297,316,2
304,305,298,312,2
303,287,299,309,2
302,271,300,306,2
300,262,301,303,2
300,261,303,301,2
301,269,303,299,2
301,278,303,297,2
301,284,302,293,2
301,288,301,291,2
301,294,301,291,2
302,302,301,295,2
304,317,301,301,2
306,332,299,308,2
307,340,298,316,2
307,342,298,322,2
308,340,302,323,2
308,338,306,321,2
308,335,309,317,2
307,333,312,314,2
306,331,314,314,2
305,327,315,316,2
304,319,316,319,2
303,304,317,320,2
301,288,315,317,2
299,274,315,311,2
298,270,314,306,2
299,276,314,304,2
300,290,314,305,2
303,304,315,311,2
306,318,315,318,2
309,325,314,325,2
310,324,311,327,2
309,317,308,326,2
307,307,304,321,2
305,299,300,315,2
303,298,299,309,2
302,307,298,304,2
300,319,298,300,2
300,327,299,298,2
298,326,302,298,2
297,317,305,300,2
296,309,307,302,2
296,305,309,305,2
297,304,310,307,2
299,310,309,309,2
302,319,307,310,2
305,330,305,311,2
309,339,304,311,2
310,346,305,308,2
310,347,308,306,2
309,345,311,304,2
308,340,314,302,2
306,334,317,303,2
304,328,318,303,2
302,322,318,303,2
299,313,317,301,2
296,298,316,299,2
294,278,314,298,2
294,260,313,299,2
295,252,314,304,2
298,259,314,309,2
301,273,314,312,2
303,285,313,312,2
305,292,312,310,2
306,296,310,306,2
306,299,308,303,2
306,307,307,300,2
306,316,306,299,2
306,322,305,299,2
305,324,303,300,2
304,317,300,300,2
302,303,296,298,2
301,285,294,298,2
301,269,294,300,2
301,265,296,302,2
300,272,298,305,2
298,283,298,308,2
296,297,299,312,2
295,313,300,316,2
296,325,303,319,2
299,331,305,321,2
303,333,307,321,2
307,334,309,319,2
309,335,310,316,2
310,335,309,314,2
310,332,307,315,2
309,322,306,316,2
308,306,304,318,2
307,289,303,318,2
306,281,304,317,2
305,281,307,313,2
305,288,310,308,2
304,296,312,300,2
303,301,311,294,2
300,303,311,289,2
299,304,311,287,2
299,308,313,285,2
299,314,313,284,2
300,322,311,285,2
300,329,309,289,2
302,329,308,298,2
304,323,307,311,2
307,314,306,323,2
308,303,304,330,2
309,289,304,332,2
309,272,305,329,2
309,258,306,323,2
308,250,306,316,2
307,252,306,309,2
307,266,306,305,2
307,291,305,304,2
308,318,304,307,2
308,342,301,311,2
309,358,300,317,2
309,364,300,323,2
310,364,301,327,2
310,354,303,329,2
310,335,305,328,2
308,309,308,326,2
306,280,311,321,2
304,264,312,317,2
302,265,313,314,2
302,277,313,313,2
302,297,313,315,2
305,321,316,317,2
308,340,318,319,2
310,353,320,320,2
311,358,321,320,2
311,357,322,320,2
310,348,322,319,2
309,334,322,318,2
307,317,321,316,2
306,300,319,315,2
304,284,317,313,2
302,270,314,310,2
301,256,310,306,2
301,249,308,303,2
302,252,306,299,2
305,267,306,298,2
308,291,305,298,2
308,312,304,301,2
309,325,303,305,2
308,334,303,311,2
308,338,303,316,2
308,339,304,319,2
309,337,304,319,2
308,335,304,317,2
306,332,302,314,2
304,324,302,312,2
302,311,302,310,2
300,295,301,310,2
300,284,302,310,2
301,284,304,312,2
303,297,306,312,2
305,315,308,313,2
306,332,309,313,2
306,344,311,312,2
306,346,312,310,2
306,339,312,305,2
305,325,310,301,2
304,313,307,298,2
303,307,304,297,2
304,307,303,297,2
306,309,301,298,2
306,305,301,299,2
304,296,299,301,2
301,286,298,302,2
298,279,297,303,2
296,277,296,304,2
295,279,295,303,2
294,284,293,299,2
294,291,291,292,2
293,300,289,283,2
293,308,287,278,2
293,313,285,278,2
293,317,285,284,2
295,325,287,296,2
298,333,292,309,2
301,339,298,319,2
304,340,305,324,2
305,337,311,325,2
303,329,316,325,2
301,314,319,324,2
299,295,320,324,2
296,275,320,327,2
296,260,319,330,2
297,253,318,332,2
300,253,317,334,2
303,259,315,332,2
305,267,315,330,2
307,277,314,324,2
307,290,314,317,2
306,300,313,309,2
303,306,310,301,2
301,309,306,297,2
301,314,302,295,2
302,321,300,294,2
303,328,299,294,2
304,331,297,294,2
305,329,294,293,2
305,323,293,294,2
305,319,293,299,2
305,318,294,306,2
305,319,295,312,2
305,321,296,315,2
304,323,298,317,2
304,326,300,318,2
305,329,303,320,2
305,330,307,321,2
305,329,311,322,2
304,326,312,322,2
303,323,310,321,2
301,321,307,321,2
301,323,304,321,2
302,324,301,321,2
302,325,298,321,2
302,325,298,320,2
301,321,299,318,2
300,313,301,314,2
299,303,303,311,2
298,294,304,308,2
298,287,305,305,2
297,281,305,300,2
296,283,306,296,2
296,294,306,293,2
298,310,308,295,2
300,325,310,298,2
302,332,312,303,2
302,329,313,309,2
301,314,314,313,2
298,293,314,317,2
294,272,312,318,2
293,258,311,319,2
293,252,310,318,2
294,258,306,317,2
295,276,301,316,2
296,295,295,315,2
297,306,292,315,2
298,308,291,313,2
299,304,292,311,2
300,300,294,305,2
300,297,297,298,2
299,290,300,292,2
297,279,303,290,2
294,263,306,290,2
293,254,309,293,2
294,257,313,295,2
297,272,315,298,2
299,295,316,302,2
302,319,317,306,2
304,338,317,308,2
305,350,317,311,2
305,352,317,314,2
304,348,317,317,2
303,340,316,319,2
303,332,315,321,2
302,326,315,324,2
302,322,316,327,2
302,318,317,329,2
302,311,317,330,2
302,305,317,329,2
302,301,316,326,2
302,300,314,322,2
302,306,311,320,2
301,316,308,318,2
301,323,305,318,2
301,326,304,317,2
301,327,303,316,2
301,324,304,314,2
302,319,306,312,2
303,315,308,310,2
304,316,310,308,2
304,319,310,306,2
305,319,310,305,2
306,315,309,304,2
305,316,308,303,2
306,322,307,304,2
306,329,305,304,2
306,335,304,305,2
306,337,302,305,2
305,336,302,304,2
305,334,303,303,2
304,328,304,303,2
304,319,305,306,2
302,306,307,310,2
301,291,307,312,2
299,281,305,312,2
299,283,304,311,2
300,291,303,308,2
301,300,302,305,2
302,306,301,301,2
302,307,301,298,2
302,305,301,295,2
302,300,301,294,2
302,295,300,294,2
302,294,299,295,2
301,295,298,297,2
300,297,297,300,2
300,299,297,306,2
302,301,297,312,2
303,302,296,318,2
304,303,294,323,2
305,303,293,324,2
305,305,294,323,2
305,305,294,320,2
304,305,297,319,2
304,304,302,320,2
304,303,307,321,2
305,303,311,322,2
304,304,313,321,2
303,308,315,320,2
302,311,316,318,2
302,311,315,316,2
301,309,313,314,2
299,305,312,311,2
299,304,312,310,2
299,307,313,309,2
300,311,314,308,2
301,311,315,307,2
302,306,315,307,2
302,295,313,307,2
302,281,311,306,2
301,271,308,307,2
301,268,306,307,2
301,269,304,305,2
301,274,302,302,2
302,280,301,300,2
304,286,302,300,2
305,293,304,302,2
306,303,306,304,2
305,311,306,305,2
304,315,306,307,2
303,314,306,308,2
302,307,306,310,2
301,300,306,312,2
301,295,305,314,2
301,294,304,315,2
302,296,302,315,2
302,295,299,312,2
300,289,295,309,2
299,282,291,306,2
298,278,288,303,2
299,281,288,302,2
301,290,291,302,2
304,299,296,304,2
305,306,300,304,2
307,308,303,303,2
307,305,304,303,2
307,303,304,302,2
307,303,306,301,2
306,304,307,301,2
305,303,311,301,2
306,303,313,301,2
304,304,313,299,2
303,306,311,296,2
302,307,308,290,2
301,307,306,284,2
301,312,304,281,2
302,318,304,283,2
303,319,304,289,2
304,313,305,298,2
305,307,306,307,2
307,305,307,314,2
309,308,308,319,2
311,312,308,320,2
311,314,308,319,2
308,311,307,317,2
305,305,306,316,2
302,301,307,315,2
299,303,310,313,2
298,310,312,310,2
299,320,312,307,2
299,329,311,307,2
301,335,309,308,2
301,332,308,308,2
302,320,306,308,2
301,305,304,308,2
300,290,303,307,2
300,282,302,304,2
300,281,302,300,2
300,288,303,296,2
301,300,305,293,2
302,309,307,293,2
304,312,309,295,2
304,308,311,299,2
303,302,313,304,2
303,302,313,309,2
304,311,313,313,2
305,324,311,312,2
305,335,309,306,2
304,341,306,299,2
303,342,304,295,2
302,340,301,293,2
301,336,299,294,2
301,332,297,299,2
301,330,297,305,2
301,327,298,310,2
302,326,299,315,2
303,330,302,319,2
304,336,304,321,2
306,342,306,322,2
307,342,308,320,2
306,339,309,315,2
305,333,310,308,2
303,327,310,302,2
301,325,310,297,2
301,324,310,295,2
301,319,311,294,2
302,310,311,296,2
303,299,310,297,2
303,280,309,297,2
303,255,308,299,2
303,230,309,302,2
304,219,311,305,2
305,232,313,306,2
308,260,313,305,2
309,289,313,304,2
310,313,311,304,2
309,329,308,302,2
309,340,306,301,2
308,348,305,300,2
308,349,305,302,2
308,342,307,305,2
307,331,309,308,2
307,322,310,310,2
306,319,311,312,2
306,322,310,313,2
305,324,309,313,2
303,323,308,313,2
302,319,307,315,2
300,314,307,315,2
299,308,306,315,2
298,305,306,314,2
298,305,306,314,2
299,307,304,315,2
299,307,303,315,2
300,305,300,316,2
300,300,298,316,2
300,296,297,314,2
300,294,297,311,2
299,292,298,307,2
299,289,299,304,2
299,287,301,301,2
298,285,303,299,2
299,288,304,299,2
302,295,307,300,2
305,303,309,304,2
308,311,313,308,2
310,315,317,312,2
312,311,320,314,2
311,305,321,313,2
310,299,322,311,2
308,294,322,310,2
306,292,322,307,2
305,295,320,305,2
305,306,318,302,2
305,324,316,298,2
305,343,313,293,2
303,357,310,287,2
302,363,308,283,2
300,362,307,281,2
299,358,305,281,2
298,355,305,285,2
299,353,304,292,2
300,352,305,301,2
302,349,305,310,2
302,342,305,316,2
302,329,304,319,2
301,310,303,319,2
299,285,303,319,2
297,262,304,318,2
296,251,304,316,2
296,259,304,313,2
298,279,304,307,2
299,299,303,302,2
301,312,301,299,2
302,318,299,299,2
302,315,297,301,2
303,304,296,304,2
303,291,295,306,2
303,284,294,305,2
303,284,293,302,2
303,289,291,298,2
302,290,291,292,2
302,285,294,289,2
303,279,298,288,2
305,278,302,293,2
307,282,305,301,2
309,292,306,310,2
311,307,306,316,2
312,324,306,319,2
313,341,305,318,2
313,354,303,315,2
311,364,301,311,2
309,371,299,308,2
307,374,299,306,2
304,368,299,305,2
300,357,300,305,2
298,341,300,305,2
296,325,301,306,2
296,310,303,308,2
297,297,305,309,2
300,285,306,308,2
302,280,308,308,2
305,279,310,308,2
307,282,312,308,2
309,290,312,308,2
311,300,311,308,2
313,309,310,308,2
313,315,308,308,2
311,318,306,307,2
308,319,304,305,2
306,320,304,302,2
303,320,306,299,2
302,318,309,297,2
301,313,312,297,2
300,305,314,298,2
299,294,315,300,2
298,279,314,302,2
297,260,313,305,2
296,239,312,308,2
297,216,312,311,2
297,195,312,311,2
298,185,311,309,2
299,195,312,304,2
302,223,311,299,2
304,258,311,295,2
306,293,312,294,2
309,322,314,295,2
311,338,315,294,2
311,348,317,291,2
312,355,317,288,2
312,360,318,290,2
313,363,318,296,2
313,366,317,305,2
312,367,314,314,2
310,361,310,322,2
307,349,306,327,2
304,335,303,329,2
302,323,301,328,2
300,316,299,325,2
300,317,298,322,2
301,323,299,320,2
302,330,301,319,2
303,333,302,319,2
304,331,304,319,2
304,326,306,320,2
303,318,307,321,2
303,311,308,322,2
303,309,308,322,2
304,313,307,320,2
303,318,305,317,2
303,321,303,313,2
302,318,301,308,2
301,307,300,305,2
299,293,300,304,2
298,278,300,305,2
297,271,301,307,2
297,273,303,311,2
299,283,306,314,2
302,298,309,314,2
305,313,310,311,2
307,322,310,306,2
308,322,309,302,2
309,314,308,301,2
309,304,305,300,2
308,300,302,300,2
307,305,298,301,2
306,314,295,301,2
304,318,292,300,2
301,313,290,298,2
299,306,288,295,2
297,304,288,293,2
297,305,288,293,2
299,308,290,296,2
301,313,293,300,2
303,318,295,306,2
304,321,296,310,2
305,321,298,310,2
306,316,300,309,2
306,307,301,309,2
307,300,302,310,2
306,293,304,312,2
305,287,305,315,2
304,275,309,318,2
302,256,312,319,2
300,231,316,319,2
297,205,320,318,2
297,188,323,315,2
297,186,325,310,2
298,207,326,302,2
300,248,324,291,2
301,293,320,280,2
303,330,317,273,2
304,357,317,275,2
305,374,317,282,2
305,382,316,291,2
303,381,314,297,2
302,371,310,301,2
302,359,305,302,2
304,347,301,303,2
305,338,296,304,2
307,329,292,306,2
307,320,290,308,2
307,312,290,309,2
307,307,292,310,2
307,306,295,313,2
307,307,300,316,2
308,308,304,321,2
309,313,308,326,2
309,322,310,330,2
309,331,311,330,2
309,336,311,329,2
308,335,312,326,2
307,331,312,323,2
306,326,312,320,2
304,321,314,317,2
304,316,316,314,2
304,311,318,311,2
304,306,318,310,2
304,302,316,310,2
303,298,313,313,2
304,296,310,316,2
305,295,308,321,2
307,292,307,322,2
308,291,305,321,2
310,293,303,318,2
311,294,303,315,2
312,296,304,314,2
312,302,306,311,2
311,312,308,309,2
310,321,309,306,2
309,321,310,304,2
306,312,311,304,2
303,300,311,304,2
301,291,310,306,2
300,287,309,309,2
300,287,307,310,2
299,290,304,310,2
300,296,304,311,2
300,302,304,310,2
301,306,304,310,2
301,305,305,310,2
302,301,306,311,2
302,293,307,311,2
302,281,306,309,2
301,268,303,306,2
300,257,300,302,2
298,257,298,299,2
299,270,296,297,2
300,288,297,298,2
301,302,299,301,2
302,309,301,305,2
303,309,304,310,2
303,308,306,313,2
302,305,307,312,2
301,299,306,307,2
299,292,306,300,2
299,286,306,294,2
299,284,305,289,2
300,286,303,287,2
301,291,300,287,2
302,299,298,292,2
304,314,298,300,2
307,329,299,309,2
309,340,300,315,2
308,342,301,318,2
305,339,302,319,2
302,335,303,318,2
300,328,306,313,2
299,324,308,303,2
300,324,309,293,2
301,327,309,286,2
302,331,309,286,2
303,334,309,292,2
304,334,310,302,2
306,330,311,314,2
307,321,312,323,2
308,308,313,331,2
309,294,315,335,2
309,285,316,337,2
310,284,317,335,2
311,289,318,329,2
312,294,317,321,2
311,293,315,313,2
309,286,312,305,2
306,272,310,302,2
305,255,310,302,2
303,246,312,307,2
303,244,316,313,2
303,249,318,316,2
303,258,319,317,2
303,270,318,316,2
302,292,318,312,2
303,324,316,309,2
304,353,313,305,2
304,372,310,301,2
304,380,305,298,2
302,378,302,296,2
300,373,299,293,2
299,365,298,292,2
299,356,297,294,2
299,348,298,298,2
298,340,300,303,2
299,333,302,308,2
300,325,304,311,2
299,317,306,312,2
300,308,308,314,2
299,297,309,314,2
298,287,308,313,2
296,281,305,310,2
294,277,302,306,2
293,276,300,304,2
293,281,299,304,2
293,287,298,307,2
294,290,297,311,2
295,292,297,317,2
296,289,299,322,2
297,286,302,325,2
297,281,305,325,2
298,273,308,324,2
298,263,309,321,2
297,256,309,315,2
297,255,308,309,2
297,262,307,301,2
297,273,306,292,2
297,287,305,282,2
296,300,302,272,2
294,314,299,266,2
295,328,297,265,2
296,342,296,270,2
298,355,296,279,2
299,366,297,289,2
300,371,300,298,2
301,372,303,308,2
303,370,306,317,2
305,366,310,324,2
307,363,311,329,2
309,358,312,331,2
309,352,313,331,2
309,338,313,329,2
308,314,313,326,2
306,285,312,324,2
304,258,312,322,2
301,241,313,321,2
301,239,314,322,2
302,248,314,323,2
304,258,314,324,2
306,267,313,322,2
307,278,312,318,2
309,294,311,313,2
311,314,309,306,2
311,334,308,297,2
311,346,305,288,2
310,347,303,283,2
309,337,301,283,2
308,321,300,288,2
306,306,300,297,2
304,296,303,305,2
302,294,307,312,2
301,297,312,316,2
300,302,316,317,2
301,309,320,318,2
303,315,321,318,2
305,322,320,315,2
306,326,317,311,2
306,329,312,306,2
306,329,309,303,2
306,327,305,301,2
305,324,304,301,2
304,322,303,303,2
304,318,302,303,2
303,311,300,303,2
301,299,297,302,2
298,286,295,300,2
296,277,294,297,2
295,274,295,297,2
296,281,295,298,2
298,292,294,300,2
300,308,293,301,2
302,321,292,304,2
303,328,292,306,2
304,329,293,308,2
304,324,295,310,2
304,316,296,311,2
303,307,297,312,2
303,298,297,313,2
302,288,299,313,2
301,275,302,313,2
301,264,303,313,2
302,261,304,313,2
303,271,305,313,2
304,288,305,312,2
305,304,306,312,2
306,317,307,312,2
306,325,308,312,2
306,330,310,311,2
306,334,311,312,2
306,335,313,312,2
307,333,314,313,2
307,328,315,313,2
308,320,317,312,2
307,307,318,311,2
307,293,318,310,2
306,282,318,308,2
306,274,318,308,2
306,270,316,307,2
307,273,315,306,2
307,283,314,305,2
308,297,314,305,2
308,311,313,304,2
308,325,311,303,2
307,333,309,301,2
306,329,306,300,2
305,315,304,299,2
304,299,304,299,2
303,283,304,300,2
301,271,304,300,2
301,268,306,301,2
302,274,305,303,2
304,289,304,303,2
308,307,305,304,2
311,325,305,303,2
312,344,303,298,2
310,358,299,291,2
308,362,296,287,2
306,355,294,287,2
304,340,293,291,2
301,321,294,295,2
299,304,296,300,2
299,295,297,303,2
299,296,299,305,2
302,307,301,307,2
305,322,303,308,2
307,333,304,309,2
307,342,305,308,2
307,351,306,305,2
307,356,306,300,2
307,356,307,296,2
308,351,309,295,2
308,343,310,297,2
307,334,309,300,2
305,324,308,304,2
303,314,308,307,2
300,303,308,307,2
299,291,309,304,2
298,283,309,300,2
299,287,309,297,2
300,299,310,295,2
300,311,309,293,2
300,317,310,294,2
301,316,309,297,2
301,316,309,301,2
301,319,307,307,2
301,324,306,314,2
301,327,305,320,2
302,325,304,324,2
302,320,302,323,2
301,314,300,317,2
301,311,299,310,2
301,308,298,305,2
301,304,298,304,2
303,298,299,308,2
306,291,299,314,2
309,284,300,320,2
311,281,300,323,2
311,283,299,321,2
309,291,299,317,2
307,301,300,313,2
306,313,302,313,2
306,325,304,315,2
305,334,306,318,2
305,341,307,319,2
303,343,308,319,2
302,340,309,319,2
302,335,310,319,2
301,330,311,319,2
302,325,311,318,2
302,322,311,317,2
302,322,309,313,2
302,325,307,308,2
301,328,305,304,2
301,327,304,299,2
300,324,305,295,2
300,320,306,293,2
300,316,307,293,2
300,311,308,296,2
301,304,308,301,2
300,290,306,306,2
298,269,301,310,2
296,245,296,312,2
294,224,289,313,2
292,215,285,313,2
292,218,283,313,2
294,224,284,312,2
297,235,287,310,2
302,249,290,308,2
304,266,292,305,2
306,289,294,302,2
306,315,296,300,2
306,334,299,297,2
306,343,301,294,2
306,343,302,289,2
307,339,302,285,2
307,339,302,284,2
308,348,304,287,2
310,359,307,296,2
311,366,311,307,2
312,368,314,316,2
313,367,318,320,2
313,367,321,320,2
313,367,323,316,2
312,365,324,312,2
311,359,324,308,2
310,351,323,306,2
309,341,321,306,2
308,330,320,308,2
307,318,319,310,2
307,307,317,312,2
307,300,316,312,2
307,296,313,312,2
307,294,310,311,2
306,290,307,312,2
305,286,307,312,2
304,281,308,312,2
303,276,309,310,2
302,269,310,306,2
300,259,311,301,2
299,249,311,298,2
299,242,310,298,2
299,241,310,298,2
299,245,310,298,2
300,255,310,297,2
301,269,309,298,2
303,289,309,300,2
304,311,308,304,2
305,329,307,309,2
306,337,306,313,2
306,338,306,316,2
305,336,305,316,2
305,334,304,314,2
304,330,303,310,2
303,324,302,307,2
303,315,302,305,2
302,309,300,305,2
301,307,299,305,2
301,311,297,306,2
302,321,297,306,2
302,333,297,307,2
303,343,298,307,2
304,348,298,308,2
305,350,298,309,2
305,347,299,309,2
305,342,300,310,2
304,335,301,311,2
304,327,303,311,2
303,318,305,308,2
303,311,306,304,2
303,305,307,298,2
302,300,307,293,2
301,295,306,290,2
300,290,304,289,2
299,285,302,293,2
299,281,301,299,2
300,281,300,307,2
301,282,300,312,2
303,285,300,314,2
305,291,299,313,2
306,300,297,308,2
306,309,296,304,2
306,315,294,300,2
304,315,291,297,2
301,311,289,298,2
300,306,288,301,2
301,302,290,306,2
302,295,292,310,2
304,285,294,312,2
305,270,295,311,2
306,262,297,309,2
306,263,300,308,2
308,276,302,309,2
308,298,304,310,2
308,317,306,312,2
308,328,308,313,2
307,334,309,315,2
307,339,310,316,2
307,343,310,316,2
307,345,310,315,2
307,344,310,314,2
306,340,310,313,2
306,334,310,313,2
306,327,308,311,2
305,317,306,307,2
305,307,303,302,2
304,299,301,297,2
303,292,299,291,2
302,283,297,288,2
300,273,294,287,2
299,266,291,291,2
297,263,291,297,2
297,262,293,305,2
297,261,297,313,2
298,258,302,319,2
299,253,308,321,2
300,253,312,321,2
301,260,314,317,2
303,273,315,312,2
304,293,314,308,2
305,315,313,306,2
307,334,312,309,2
308,347,312,313,2
308,355,314,318,2
308,357,316,323,2
307,353,318,327,2
305,345,319,329,2
303,333,320,329,2
300,323,321,326,2
297,316,320,324,2
296,312,318,323,2
297,312,317,323,2
300,315,315,324,2
303,319,312,324,2
306,321,311,324,2
307,320,309,323,2
307,314,308,321,2
306,303,307,321,2
306,289,306,320,2
305,275,305,319,2
305,267,305,319,2
305,268,305,318,2
306,277,304,317,2
306,294,304,316,2
306,314,304,314,2
307,330,305,315,2
308,341,306,314,2
308,349,306,314,2
309,353,306,313,2
309,354,306,312,2
310,351,306,310,2
310,347,306,308,2
310,343,306,305,2
310,335,306,303,2
308,321,305,302,2
306,300,304,301,2
304,280,306,299,2
302,266,308,297,2
301,260,310,293,2
300,265,310,292,2
300,273,309,293,2
300,280,308,297,2
301,287,307,303,2
303,299,306,310,2
304,312,304,315,2
305,323,304,318,2
307,328,304,320,2
308,329,302,318,2
307,325,301,314,2
305,315,299,310,2
303,299,298,305,2
300,279,296,300,2
299,255,296,295,2
298,238,298,292,2
298,236,298,291,2
298,250,299,289,2
298,265,298,289,2
299,275,296,289,2
299,280,295,293,2
301,283,295,298,2
302,290,295,304,2
303,303,297,311,2
304,313,298,315,2
304,318,299,317,2
304,324,301,317,2
306,331,303,317,2
307,338,306,316,2
307,344,308,314,2
305,349,311,313,2
303,350,313,313,2
301,343,313,314,2
298,326,312,316,2
296,305,310,318,2
295,285,309,319,2
294,270,310,318,2
295,271,311,316,2
297,288,312,314,2
300,311,313,315,2
303,330,314,316,2
306,341,316,318,2
310,347,318,321,2
312,349,320,323,2
313,347,321,325,2
314,343,321,325,2
312,334,319,322,2
310,320,318,317,2
307,304,316,313,2
306,291,314,310,2
304,282,312,308,2
304,280,311,309,2
305,285,310,311,2
305,293,309,315,2
306,298,308,318,2
306,301,307,320,2
306,301,305,321,2
307,300,304,319,2
307,298,304,316,2
307,297,305,312,2
307,300,305,308,2
307,308,305,306,2
307,317,306,305,2
307,321,305,306,2
306,318,305,308,2
305,310,307,310,2
304,300,309,311,2
304,295,310,309,2
304,294,310,307,2
303,292,308,305,2
303,292,307,304,2
303,292,305,306,2
304,296,304,310,2
304,298,303,314,2
304,299,303,317,2
304,299,302,318,2
304,300,302,317,2
304,306,303,316,2
304,315,304,315,2
305,323,306,314,2
305,325,307,313,2
305,322,307,311,2
305,319,306,309,2
305,314,304,306,2
305,306,301,303,2
304,295,299,302,2
303,286,298,302,2
302,283,297,304,2
302,289,299,307,2
303,300,301,311,2
305,309,303,314,2
306,307,305,316,2
307,297,307,316,2
307,287,310,316,2
308,284,312,317,2
309,291,313,318,2
309,303,314,319,2
310,310,313,320,2
309,312,312,320,2
308,312,310,318,2
308,315,309,315,2
308,319,309,312,2
308,325,308,307,2
306,329,306,303,2
305,330,305,301,2
303,326,304,302,2
302,320,304,304,2
302,315,306,307,2
303,312,306,310,2
303,306,304,310,2
302,296,300,309,2
300,282,296,308,2
300,272,294,308,2
300,269,292,308,2
300,276,293,308,2
301,289,296,309,2
302,303,299,311,2
304,316,304,314,2
307,326,308,316,2
307,331,309,316,2
307,329,308,316,2
306,321,305,315,2
304,311,300,313,2
302,304,295,312,2
301,304,293,311,2
302,314,293,311,2
303,324,295,312,2
303,332,297,313,2
303,334,299,314,2
303,330,301,315,2
302,318,305,314,2
301,303,308,312,2
301,289,309,310,2
301,282,311,309,2
302,279,312,308,2
304,281,313,307,2
305,284,313,306,2
304,287,312,305,2
302,288,312,303,2
300,291,312,300,2
299,296,314,297,2
299,304,316,295,2
299,314,318,294,2
299,321,319,293,2
300,321,319,295,2
300,315,316,298,2
300,307,313,302,2
300,302,310,305,2
300,302,307,309,2
301,303,305,311,2
301,307,305,312,2
302,311,307,313,2
303,314,308,314,2
303,315,308,315,2
303,315,307,315,2
304,310,306,315,2
305,298,307,315,2
306,283,308,316,2
306,270,309,316,2
305,267,309,315,2
304,271,308,310,2
304,279,308,305,2
304,287,308,303,2
305,292,309,305,2
307,294,309,310,2
309,294,309,317,2
311,294,309,321,2
313,295,309,322,2
314,300,308,320,2
313,306,306,318,2
311,313,304,316,2
309,317,303,316,2
307,322,302,318,2
305,327,303,321,2
304,333,304,324,2
303,336,305,325,2
303,335,306,325,2
303,332,308,323,2
303,328,309,321,2
302,324,311,320,2
302,317,315,320,2
301,307,318,320,2
299,296,320,319,2
297,287,321,318,2
297,286,320,318,2
298,287,319,316,2
299,289,315,313,2
301,292,311,310,2
301,296,307,307,2
301,301,304,305,2
302,304,302,304,2
302,300,301,304,2
302,294,302,305,2
303,291,302,306,2
303,295,301,305,2
304,302,300,304,2
305,310,298,301,2
305,316,298,297,2
305,319,299,290,2
304,322,300,282,2
303,329,302,276,2
303,336,303,274,2
304,338,303,279,2
304,333,301,288,2
304,321,298,299,2
303,304,295,310,2
301,283,293,319,2
301,261,294,324,2
300,244,297,324,2
302,243,302,320,2
304,260,306,315,2
305,284,310,310,2
307,307,314,308,2
308,325,316,308,2
308,334,319,309,2
307,337,320,312,2
306,337,321,313,2
303,334,320,314,2
300,324,318,313,2
297,308,316,311,2
294,290,313,311,2
293,274,310,311,2
293,261,309,311,2
296,254,307,309,2
299,255,305,307,2
301,260,304,305,2
303,268,303,304,2
305,278,303,304,2
308,293,304,307,2
310,311,304,308,2
311,329,305,310,2
312,343,305,312,2
311,352,306,313,2
311,356,308,313,2
311,357,309,313,2
311,354,309,311,2
312,350,310,310,2
312,345,311,310,2
312,343,313,309,2
313,345,315,309,2
314,349,315,309,2
315,351,316,308,2
315,350,317,307,2
314,343,317,307,2
311,330,315,307,2
306,313,314,307,2
302,294,312,309,2
299,279,312,311,2
298,271,312,313,2
298,273,312,313,2
299,282,311,313,2
301,293,309,311,2
302,302,306,310,2
303,305,304,310,2
303,304,302,311,2
303,302,300,312,2
303,301,299,313,2
303,301,300,312,2
304,301,300,311,2
305,298,300,308,2
305,292,299,304,2
304,280,297,300,2
301,263,295,298,2
299,245,295,298,2
297,234,297,302,2
298,240,301,306,2
300,262,304,311,2
303,286,306,315,2
306,302,306,317,2
308,311,305,317,2
308,314,304,317,2
308,317,303,316,2
308,320,302,314,2
307,321,302,312,2
308,318,303,312,2
308,312,306,311,2
309,312,308,310,2
309,315,310,309,2
308,318,311,308,2
308,316,313,308,2
307,309,313,307,2
306,299,314,306,2
305,288,313,303,2
305,280,311,299,2
304,275,308,294,2
302,272,304,290,2
301,272,299,289,2
301,281,297,291,2
303,297,295,297,2
305,317,295,303,2
307,333,296,309,2
309,343,298,313,2
310,348,300,315,2
311,349,302,314,2
311,347,303,311,2
310,344,303,307,2
309,342,302,302,2
309,340,301,297,2
307,337,300,294,2
307,332,300,292,2
307,325,300,293,2
306,316,300,294,2
306,304,301,296,2
304,288,302,295,2
303,271,305,294,2
301,255,308,292,2
299,244,310,291,2
297,242,310,289,2
297,250,310,289,2
298,264,310,290,2
299,284,310,294,2
302,307,311,300,2
305,326,313,307,2
306,333,314,314,2
306,332,314,319,2
305,327,315,322,2
304,321,314,322,2
304,316,314,320,2
303,311,314,317,2
303,310,313,314,2
304,312,313,312,2
305,312,313,308,2
305,308,315,305,2
305,302,316,303,2
305,295,317,303,2
304,291,317,305,2
304,291,315,308,2
303,292,312,308,2
302,293,308,307,2
301,291,305,306,2
300,284,303,304,2
300,277,302,304,2
299,273,301,303,2
300,277,302,303,2
300,286,302,304,2
301,297,303,306,2
303,306,303,309,2
304,311,302,311,2
304,312,302,311,2
305,308,302,311,2
305,303,302,309,2
304,298,303,308,2
304,297,305,306,2
304,299,307,305,2
304,306,309,303,2
305,319,310,300,2
305,334,308,296,2
304,346,306,291,2
304,351,304,288,2
303,350,303,288,2
303,344,303,292,2
304,334,304,299,2
305,321,306,307,2
307,308,307,315,2
309,298,308,318,2
311,296,310,318,2
313,297,312,313,2
313,300,313,307,2
313,308,312,301,2
311,318,310,297,2
310,326,306,296,2
308,331,303,298,2
307,333,301,300,2
305,330,300,302,2
303,325,299,302,2
301,318,298,301,2
299,310,298,300,2
298,304,299,302,2
299,298,302,305,2
301,296,306,310,2
304,298,308,315,2
307,301,311,320,2
310,301,314,322,2
311,294,316,321,2
310,285,316,318,2
307,279,316,314,2
303,277,313,310,2
299,274,309,305,2
297,279,306,303,2
296,293,306,302,2
297,313,309,305,2
299,333,312,311,2
301,351,315,318,2
302,364,317,324,2
303,368,317,326,2
303,366,316,327,2
303,358,312,325,2
303,344,308,321,2
303,324,305,318,2
304,303,303,316,2
304,284,302,315,2
303,273,303,315,2
304,266,306,315,2
304,259,307,313,2
303,251,309,310,2
304,253,311,307,2
305,270,313,305,2
307,293,314,302,2
307,310,313,299,2
304,317,310,299,2
302,317,308,300,2
300,313,306,302,2
299,304,305,305,2
298,296,304,309,2
297,294,303,311,2
296,301,302,312,2
296,309,302,311,2
297,315,301,308,2
297,315,301,303,2
297,309,300,298,2
296,302,298,293,2
296,296,297,293,2
297,295,297,297,2
299,299,299,305,2
301,307,302,315,2
304,316,304,324,2
306,321,306,330,2
307,322,308,333,2
308,321,310,333,2
309,321,312,330,2
309,324,314,326,2
309,328,313,322,2
308,331,312,318,2
307,334,311,315,2
307,334,311,313,2
306,331,310,312,2
305,326,309,311,2
304,319,308,310,2
302,310,308,309,2
301,301,308,309,2
300,292,309,308,2
299,281,309,308,2
298,266,308,308,2
297,248,306,306,2
296,235,303,303,2
296,236,302,300,2
298,250,302,298,2
301,268,303,297,2
303,286,304,298,2
305,306,303,300,2
306,323,303,304,2
306,335,303,308,2
307,341,304,310,2
307,344,305,310,2
307,345,307,309,2
307,342,309,308,2
305,331,311,308,2
304,314,313,308,2
302,299,313,308,2
301,293,313,306,2
300,299,312,305,2
301,313,312,305,2
302,328,312,306,2
304,340,313,306,2
306,345,314,304,2
306,343,314,301,2
306,336,314,300,2
305,327,312,300,2
305,318,310,301,2
306,313,307,304,2
307,312,304,308,2
308,311,299,311,2
308,307,296,314,2
308,298,294,317,2
308,288,293,316,2
308,277,293,315,2
307,271,293,313,2
304,272,293,310,2
301,278,295,307,2
299,286,297,305,2
298,293,299,302,2
297,292,303,300,2
297,284,305,299,2
297,274,308,299,2
298,269,311,300,2
300,272,313,302,2
301,281,313,305,2
301,292,311,307,2
301,300,308,309,2
302,302,305,310,2
302,302,302,310,2
302,310,299,309,2
303,323,297,307,2
304,330,296,306,2
304,327,294,302,2
303,315,292,295,2
302,303,292,287,2
299,297,292,281,2
298,301,294,279,2
298,311,300,284,2
300,319,306,293,2
302,322,313,303,2
304,322,316,310,2
305,321,318,313,2
306,322,318,313,2
308,326,318,310,2
308,327,318,308,2
308,319,317,308,2
307,303,315,310,2
306,282,312,312,2
304,268,310,314,2
302,269,310,315,2
301,282,311,314,2
301,302,311,312,2
300,322,310,310,2
299,338,309,310,2
298,348,308,311,2
300,353,306,312,2
303,351,305,314,2
305,343,304,315,2
306,334,304,314,2
307,324,304,313,2
307,317,305,313,2
308,314,307,314,2
309,312,307,315,2
310,315,307,315,2
311,322,307,316,2
311,330,308,315,2
311,333,308,314,2
310,333,309,313,2
309,328,309,313,2
307,321,307,314,2
305,313,304,314,2
304,303,301,313,2
302,296,300,309,2
300,292,300,303,2
299,289,301,297,2
298,288,304,293,2
297,285,306,290,2
297,278,306,287,2
296,270,305,286,2
295,262,303,288,2
296,260,302,294,2
298,267,302,301,2
302,283,302,310,2
305,300,303,316,2
308,314,302,317,2
308,322,300,313,2
308,324,298,308,2
307,322,297,303,2
306,320,298,301,2
306,319,299,303,2
306,320,301,307,2
306,321,303,313,2
306,316,304,317,2
304,303,305,318,2
302,288,305,316,2
300,280,305,312,2
299,282,305,307,2
299,292,307,302,2
300,304,308,299,2
302,313,310,298,2
303,316,311,299,2
303,313,311,300,2
303,309,309,302,2
304,305,309,303,2
304,304,310,304,2
305,305,312,306,2
305,309,314,306,2
304,311,313,305,2
303,309,312,303,2
302,303,310,303,2
301,296,308,304,2
300,290,304,305,2
300,286,302,308,2
301,287,299,310,2
301,287,297,311,2
301,284,295,312,2
302,290,296,312,2
303,307,299,314,2
305,326,302,315,2
307,338,305,316,2
307,344,307,317,2
307,342,310,317,2
306,333,311,315,2
305,321,310,314,2
304,312,310,313,2
304,307,309,313,2
305,306,310,312,2
306,308,310,311,2
307,309,309,308,2
307,308,309,304,2
306,307,309,299,2
304,305,312,296,2
303,305,314,295,2
302,307,316,296,2
301,309,314,298,2
299,312,311,299,2
299,319,307,301,2
298,325,304,304,2
299,328,302,308,2
299,327,301,312,2
300,323,301,315,2
301,317,301,317,2
301,310,301,316,2
301,305,302,313,2
302,304,302,309,2
303,307,302,306,2
303,315,300,304,2
303,324,299,302,2
304,331,298,299,2
304,333,298,296,2
304,330,297,293,2
303,323,296,290,2
301,314,296,289,2
299,304,297,290,2
295,287,298,292,2
292,263,300,296,2
289,237,303,301,2
289,212,305,307,2
292,197,307,312,2
297,197,309,316,2
303,217,311,318,2
307,248,310,316,2
310,279,306,311,2
311,306,302,306,2
310,326,299,301,2
309,338,298,296,2
308,344,298,293,2
307,343,298,291,2
306,336,298,291,2
305,325,297,294,2
305,311,295,298,2
306,300,293,300,2
306,294,292,299,2
306,294,290,297,2
305,299,289,292,2
303,309,290,287,2
301,321,291,285,2
300,330,292,287,2
300,335,295,294,2
301,335,299,304,2
304,333,303,315,2
306,330,308,323,2
308,326,312,329,2
309,324,316,330,2
310,324,318,329,2
310,324,317,327,2
308,324,316,323,2
307,322,315,320,2
305,318,314,318,2
303,308,314,316,2
301,290,314,315,2
299,267,313,314,2
298,246,310,314,2
298,237,307,314,2
300,241,304,315,2
304,258,302,315,2
307,281,300,314,2
308,301,298,313,2
308,315,297,314,2
308,328,299,316,2
307,339,301,318,2
306,348,304,319,2
305,354,307,319,2
304,358,310,318,2
303,360,312,316,2
303,360,315,314,2
303,357,317,312,2
303,350,317,308,2
302,340,317,304,2
301,328,316,300,2
300,314,314,298,2
299,298,314,299,2
299,286,314,302,2
299,279,315,305,2
298,281,314,309,2
298,290,313,312,2
299,302,312,314,2
299,312,311,315,2
301,319,312,316,2
302,322,313,318,2
303,323,314,318,2
305,324,315,319,2
307,324,313,319,2
308,321,310,318,2
307,317,305,317,2
306,314,300,314,2
304,309,296,312,2
303,298,292,310,2
300,278,289,308,2
298,252,288,307,2
296,226,288,306,2
295,211,290,307,2
296,210,292,309,2
298,221,295,311,2
301,237,298,312,2
303,250,301,312,2
304,265,302,311,2
305,287,304,311,2
307,313,306,311,2
308,336,308,311,2
309,349,309,312,2
310,355,309,312,2
311,355,310,313,2
312,351,309,313,2
312,346,309,312,2
312,342,308,310,2
312,338,307,309,2
311,334,307,308,2
310,330,305,306,2
309,328,303,302,2
307,327,302,299,2
306,323,301,295,2
305,316,299,295,2
305,310,298,298,2
305,305,298,304,2
305,302,298,311,2
305,299,299,317,2
304,293,299,318,2
302,284,297,314,2
300,273,293,310,2
297,262,288,303,2
295,251,285,298,2
295,245,284,294,2
296,245,286,293,2
300,256,290,296,2
304,278,294,301,2
308,303,297,307,2
312,322,301,312,2
314,331,303,316,2
315,333,304,317,2
314,330,306,316,2
314,330,309,316,2
314,334,312,317,2
315,340,314,317,2
314,344,315,315,2
314,343,315,313,2
313,339,313,311,2
311,337,313,309,2
311,337,311,310,2
310,337,312,312,2
310,335,313,316,2
309,332,315,318,2
308,325,315,320,2
307,312,313,320,2
305,294,311,318,2
303,275,309,316,2
302,263,305,312,2
301,264,302,307,2
300,275,302,303,2
301,291,301,301,2
301,305,300,301,2
301,313,300,304,2
302,318,302,309,2
302,321,305,314,2
303,322,308,319,2
304,321,312,322,2
305,317,315,323,2
304,310,316,323,2
304,302,316,321,2
303,295,315,319,2
303,292,312,316,2
304,296,310,312,2
305,299,307,309,2
305,301,304,304,2
306,301,301,298,2
307,304,299,293,2
308,311,298,291,2
310,321,299,291,2
312,328,300,295,2
313,335,302,300,2
315,340,304,307,2
316,343,307,312,2
316,341,309,316,2
315,336,311,318,2
313,331,310,317,2
311,328,309,315,2
308,323,308,313,2
306,319,307,312,2
305,317,308,311,2
306,314,309,310,2
306,310,309,308,2
305,305,308,305,2
305,301,306,299,2
304,302,305,294,2
304,307,304,291,2
304,310,304,293,2
304,310,303,298,2
304,306,303,306,2
305,298,304,315,2
306,285,306,320,2
306,269,308,323,2
305,251,310,322,2
304,236,311,320,2
303,237,312,318,2
304,251,311,316,2
306,264,309,314,2
307,272,307,314,2
307,272,304,313,2
307,272,302,312,2
308,278,300,312,2
308,290,298,311,2
309,303,296,308,2
308,317,293,304,2
308,327,292,300,2
307,331,291,295,2
306,330,291,293,2
306,324,291,292,2
305,315,293,294,2
305,306,295,300,2
307,304,300,307,2
309,309,304,313,2
310,317,308,317,2
310,323,310,317,2
309,325,311,315,2
306,326,312,311,2
304,327,313,308,2
303,331,315,306,2
303,335,316,306,2
304,335,316,306,2
304,326,317,308,2
305,314,317,308,2
305,309,318,308,2
306,311,318,308,2
307,315,319,307,2
308,316,318,306,2
307,315,316,304,2
305,313,313,302,2
304,312,311,301,2
303,311,309,300,2
302,310,308,300,2
301,311,306,300,2
300,312,305,299,2
299,311,304,295,2
298,308,304,291,2
297,302,303,289,2
296,293,303,290,2
295,281,304,296,2
295,265,306,306,2
297,250,307,317,2
299,243,308,327,2
301,249,308,333,2
305,264,308,335,2
308,282,307,333,2
310,299,307,329,2
311,312,308,324,2
311,321,310,319,2
310,328,310,313,2
309,332,311,308,2
308,332,311,302,2
306,330,310,298,2
304,327,308,294,2
301,320,307,291,2
298,306,305,287,2
296,286,303,285,2
294,269,303,288,2
296,261,304,294,2
299,267,305,302,2
302,287,305,308,2
306,315,304,312,2
308,340,303,314,2
309,352,302,315,2
309,352,302,314,2
309,343,302,312,2
307,332,302,310,2
306,326,302,307,2
305,327,301,304,2
304,327,302,302,2
304,326,302,300,2
303,321,303,299,2
302,312,303,298,2
302,300,300,299,2
301,288,299,301,2
300,280,298,306,2
300,280,300,311,2
301,284,303,317,2
303,293,307,321,2
306,306,311,323,2
307,319,314,323,2
308,329,315,319,2
307,336,315,312,2
305,337,314,304,2
303,334,313,299,2
303,328,312,299,2
304,321,312,303,2
305,313,312,310,2
306,305,313,317,2
307,298,312,322,2
308,291,310,323,2
308,284,309,323,2
308,281,307,322,2
307,282,305,320,2
305,287,301,317,2
303,292,297,311,2
300,294,293,303,2
296,295,291,292,2
294,296,291,281,2
293,298,292,274,2
294,304,294,272,2
297,313,297,272,2
300,318,301,276,2
302,319,304,281,2
302,311,306,284,2
302,299,308,288,2
302,285,308,293,2
302,275,309,299,2
304,280,309,306,2
306,295,309,313,2
309,307,309,319,2
310,310,309,325,2
310,304,309,328,2
310,289,310,331,2
309,273,311,331,2
308,269,313,332,2
309,281,315,331,2
310,304,317,330,2
311,327,320,327,2
311,342,322,324,2
309,347,323,320,2
307,346,323,317,2
305,338,322,316,2
303,328,320,315,2
303,315,318,316,2
303,304,315,316,2
303,295,314,315,2
303,289,313,312,2
303,285,311,309,2
303,280,310,306,2
304,278,310,305,2
305,283,311,305,2
306,300,312,305,2
307,319,314,307,2
308,335,315,307,2
308,344,313,308,2
307,345,310,308,2
306,339,306,308,2
305,331,302,307,2
304,322,299,308,2
304,317,298,309,2
305,318,300,308,2
306,321,302,307,2
307,326,304,306,2
308,331,307,305,2
308,335,310,306,2
308,338,312,309,2
308,338,314,313,2
307,336,315,316,2
305,330,315,316,2
304,324,315,315,2
303,319,315,311,2
302,311,314,308,2
301,299,312,306,2
300,289,309,306,2
299,283,307,308,2
299,281,304,309,2
298,281,302,310,2
298,285,302,309,2
297,289,303,308,2
297,293,305,306,2
297,295,308,303,2
296,295,310,301,2
296,293,312,300,2
297,291,313,299,2
297,288,313,300,2
298,288,315,302,2
301,296,316,307,2
304,304,317,311,2
307,306,316,314,2
308,295,311,313,2
307,275,305,311,2
305,260,297,308,2
304,261,291,305,2
304,278,287,304,2
305,299,284,305,2
305,321,284,308,2
305,338,286,312,2
306,350,291,317,2
307,360,297,318,2
308,365,304,317,2
309,366,310,312,2
309,360,314,306,2
308,350,315,302,2
307,338,316,301,2
307,322,316,304,2
307,307,316,308,2
308,296,316,312,2
308,290,315,315,2
308,293,314,316,2
308,302,311,315,2
308,310,309,313,2
307,315,306,311,2
306,318,304,308,2
304,318,304,306,2
304,317,305,306,2
303,315,308,306,2
303,311,311,307,2
304,306,314,309,2
304,297,317,309,2
305,289,317,307,2
304,284,315,303,2
303,282,312,300,2
303,280,310,299,2
303,280,307,298,2
302,282,306,298,2
303,286,304,298,2
304,293,303,299,2
305,302,302,302,2
306,310,302,307,2
305,315,303,312,2
304,317,303,317,2
302,316,305,320,2
300,315,306,321,2
299,316,307,319,2
299,319,307,316,2
300,323,305,312,2
303,327,304,309,2
305,328,302,308,2
306,328,300,308,2
306,325,299,308,2
305,322,297,306,2
304,318,296,304,2
302,314,296,301,2
302,310,297,299,2
302,307,299,300,2
303,305,302,303,2
305,306,305,308,2
306,309,308,313,2
307,311,310,317,2
306,309,311,320,2
305,305,311,320,2
304,300,310,320,2
303,295,310,319,2
302,286,309,318,2
300,274,309,316,2
299,265,310,316,2
300,254,311,314,2
300,237,310,313,2
300,215,307,309,2
299,202,304,304,2
297,209,300,300,2
297,240,298,297,2
298,282,296,296,2
300,322,295,297,2
302,351,294,298,2
303,368,293,298,2
304,374,293,300,2
304,373,294,301,2
305,368,296,303,2
306,363,299,304,2
307,358,303,305,2
307,354,305,304,2
307,350,307,304,2
305,345,309,302,2
304,339,309,301,2
302,331,308,300,2
301,324,307,299,2
300,318,305,301,2
299,313,303,303,2
299,307,302,304,2
299,300,302,303,2
300,293,302,299,2
300,285,303,293,2
300,276,304,287,2
300,268,304,284,2
299,262,305,287,2
300,255,307,295,2
301,245,309,305,2
301,235,310,314,2
302,230,312,320,2
304,232,313,323,2
306,247,316,322,2
306,274,319,317,2
306,301,319,310,2
305,320,318,304,2
305,327,316,299,2
304,327,311,296,2
303,329,307,295,2
303,338,305,295,2
304,351,306,296,2
305,363,310,297,2
307,371,314,299,2
308,372,317,301,2
308,367,319,305,2
309,360,319,311,2
309,352,319,316,2
310,344,318,319,2
310,335,317,320,2
310,325,314,318,2
310,317,312,316,2
309,310,309,313,2
308,304,306,311,2
307,296,303,309,2
305,285,301,307,2
304,269,298,307,2
303,251,297,307,2
302,236,299,308,2
302,229,301,309,2
301,226,303,308,2
300,234,305,308,2
300,252,307,306,2
300,273,307,303,2
301,294,307,298,2
302,314,307,292,2
303,332,306,288,2
304,342,305,288,2
304,345,304,289,2
304,343,302,293,2
303,339,301,297,2
302,333,300,300,2
302,327,298,305,2
302,324,298,308,2
303,321,299,312,2
303,315,299,313,2
302,305,300,313,2
301,292,300,313,2
299,284,300,311,2
298,284,301,310,2
299,293,303,311,2
300,303,305,311,2
303,313,306,311,2
304,322,306,310,2
305,329,306,308,2
306,333,305,304,2
306,333,305,301,2
305,329,303,296,2
304,324,301,291,2
303,321,301,287,2
303,321,301,286,2
302,322,301,289,2
302,321,301,294,2
301,316,302,300,2
299,305,302,306,2
297,290,302,310,2
296,276,299,312,2
296,268,296,315,2
297,270,294,317,2
299,277,292,317,2
300,286,290,314,2
301,298,290,309,2
301,309,293,304,2
301,318,298,301,2
301,323,304,299,2
302,324,310,299,2
303,325,315,300,2
304,323,320,302,2
305,321,323,304,2
305,317,325,305,2
305,313,326,308,2
306,313,327,311,2
307,314,327,315,2
306,315,326,317,2
305,313,325,318,2
304,309,324,317,2
302,304,324,313,2
300,295,323,309,2
298,287,322,304,2
298,282,321,301,2
298,280,319,297,2
298,283,317,294,2
298,293,315,293,2
299,304,313,293,2
300,316,313,295,2
301,324,313,301,2
303,330,312,307,2
304,332,312,314,2
305,330,312,317,2
306,324,313,318,2
306,315,313,314,2
306,306,314,308,2
306,303,315,303,2
306,305,315,302,2
306,307,315,303,2
305,304,314,306,2
304,298,313,309,2
302,290,310,312,2
301,279,307,314,2
301,267,304,313,2
300,259,300,311,2
300,258,298,309,2
300,266,298,308,2
301,283,298,307,2
302,301,298,306,2
303,313,298,305,2
304,321,299,306,2
305,326,301,307,2
306,324,303,309,2
307,315,305,311,2
307,299,306,313,2
306,279,306,314,2
305,262,307,314,2
304,254,309,315,2
303,255,310,314,2
303,261,310,311,2
303,277,310,307,2
303,301,309,303,2
304,325,307,297,2
303,345,306,291,2
302,358,304,284,2
301,365,302,280,2
300,364,300,279,2
300,359,298,283,2
301,353,298,291,2
303,350,298,299,2
304,346,298,304,2
305,341,300,307,2
305,334,302,307,2
306,330,304,306,2
307,328,307,307,2
307,324,309,308,2
308,318,309,310,2
308,309,307,311,2
306,301,303,312,2
305,295,299,312,2
304,293,296,313,2
303,298,295,314,2
304,302,294,314,2
304,303,293,313,2
303,299,292,309,2
303,290,291,304,2
302,279,291,299,2
301,270,293,295,2
302,267,297,294,2
304,266,301,295,2
306,263,304,299,2
308,261,307,304,2
308,260,309,306,2
307,261,312,306,2
307,267,314,303,2
307,283,317,302,2
309,307,322,303,2
313,330,328,307,2
315,344,334,313,2
315,348,337,320,2
313,345,337,324,2
311,340,336,327,2
309,335,334,327,2
308,328,330,326,2
307,319,326,327,2
306,309,324,328,2
307,299,323,329,2
307,296,321,328,2
308,296,320,327,2
309,298,319,326,2
310,303,319,325,2
312,316,318,323,2
312,330,317,321,2
312,339,313,317,2
311,344,310,313,2
311,345,306,310,2
310,345,304,309,2
310,343,302,308,2
310,340,301,308,2
310,337,300,308,2
309,332,300,308,2
308,326,299,307,2
308,320,298,307,2
307,313,297,306,2
306,304,297,306,2
306,294,297,306,2
304,283,298,306,2
304,273,298,306,2
304,269,298,305,2
304,272,301,305,2
306,281,303,307,2
307,288,305,308,2
306,296,305,309,2
306,303,304,310,2
306,310,301,309,2
305,315,298,309,2
306,320,296,309,2
307,324,296,310,2
308,324,297,310,2
308,321,299,310,2
307,315,301,310,2
305,307,303,310,2
304,295,304,309,2
301,278,303,308,2
299,260,302,306,2
297,245,303,302,2
298,240,304,298,2
300,248,305,293,2
304,266,306,287,2
307,289,305,281,2
309,314,304,279,2
310,335,304,280,2
312,348,305,286,2
312,351,308,296,2
312,347,310,307,2
312,338,311,318,2
312,328,311,326,2
311,320,310,329,2
309,316,310,329,2
309,317,310,327,2
308,319,311,326,2
308,319,311,323,2
307,317,312,320,2
306,314,311,317,2
305,309,311,315,2
303,301,309,313,2
301,290,307,312,2
299,282,305,312,2
300,281,303,314,2
300,286,300,315,2
301,293,297,316,2
301,298,294,316,2
300,297,291,314,2
299,292,289,311,2
299,285,288,309,2
299,281,288,308,2
299,276,290,307,2
300,273,293,308,2
301,268,298,309,2
303,263,302,309,2
304,266,304,308,2
305,282,305,307,2
306,303,306,305,2
307,321,308,303,2
308,334,310,302,2
308,343,312,303,2
309,350,314,304,2
309,352,316,307,2
310,349,319,311,2
310,342,321,314,2
311,331,324,316,2
310,320,325,315,2
309,316,325,311,2
308,316,324,307,2
307,317,321,305,2
308,316,320,305,2
309,315,318,306,2
309,317,316,309,2
309,321,314,310,2
308,324,312,311,2
307,325,311,310,2
306,322,311,309,2
305,316,311,308,2
304,307,310,306,2
301,298,308,305,2
300,296,306,304,2
299,301,306,304,2
301,309,306,305,2
302,315,306,304,2
302,317,306,304,2
303,317,306,303,2
304,317,305,301,2
304,319,304,300,2
306,321,304,301,2
307,322,304,302,2
307,321,304,304,2
307,321,303,306,2
306,319,304,307,2
307,317,304,308,2
307,315,305,309,2
306,313,306,309,2
306,311,307,308,2
306,308,306,306,2
306,306,305,302,2
306,303,304,299,2
306,299,304,298,2
306,294,304,299,2
306,288,305,303,2
306,280,306,308,2
306,275,307,312,2
307,275,308,315,2
308,278,309,316,2
309,284,310,315,2
309,291,311,314,2
310,296,311,312,2
310,299,311,309,2
309,300,310,306,2
309,298,309,304,2
308,294,309,302,2
307,290,308,300,2
306,285,308,300,2
305,281,308,301,2
304,279,309,303,2
303,279,309,306,2
303,276,309,309,2
303,268,308,312,2
303,257,307,313,2
303,251,307,313,2
304,253,307,312,2
305,256,305,312,2
304,254,304,310,2
303,246,304,309,2
302,237,304,308,2
301,232,304,308,2
300,230,304,309,2
301,231,306,311,2
303,241,307,313,2
305,260,307,313,2
307,287,306,311,2
308,315,304,306,2
308,339,301,301,2
307,358,299,296,2
305,372,297,291,2
305,383,297,287,2
305,389,298,285,2
306,388,300,287,2
307,381,304,294,2
310,366,309,303,2
311,348,313,311,2
312,329,316,317,2
311,312,317,322,2
310,299,316,322,2
308,294,314,319,2
307,296,312,312,2
307,305,310,303,2
306,317,309,297,2
305,325,308,294,2
304,326,308,296,2
303,320,310,301,2
303,311,312,309,2
303,307,314,316,2
303,311,315,319,2
304,315,315,320,2
305,320,314,319,2
306,319,312,317,2
306,309,309,315,2
305,293,305,314,2
305,278,303,314,2
305,265,303,314,2
306,257,302,312,2
307,261,303,308,2
308,274,304,304,2
309,294,305,300,2
309,319,305,298,2
310,343,305,300,2
310,358,305,302,2
309,365,304,303,2
308,366,302,303,2
307,365,301,299,2
306,362,300,297,2
305,358,299,296,2
304,352,300,297,2
303,345,302,299,2
302,338,305,300,2
301,329,307,301,2
301,317,309,300,2
299,302,310,298,2
298,290,310,295,2
298,283,310,292,2
298,284,310,291,2
300,290,310,293,2
302,298,310,298,2
304,304,309,305,2
305,311,307,312,2
306,316,306,319,2
307,316,306,324,2
307,310,307,326,2
307,303,307,327,2
306,296,307,328,2
305,293,307,328,2
305,294,308,329,2
306,293,310,329,2
306,290,313,327,2
306,293,314,325,2
306,302,314,321,2
306,312,313,317,2
306,318,311,312,2
305,319,309,309,2
305,315,309,308,2
305,310,309,308,2
306,306,310,307,2
305,301,310,307,2
305,295,311,306,2
305,291,312,308,2
304,288,313,311,2
304,290,313,315,2
303,300,312,319,2
302,316,311,322,2
301,335,311,322,2
300,347,311,321,2
299,352,311,319,2
300,353,310,317,2
302,351,310,315,2
305,345,310,314,2
308,338,308,314,2
309,331,305,313,2
309,325,301,313,2
309,323,298,313,2
308,323,297,313,2
306,321,296,314,2
305,317,297,315,2
304,309,298,315,2
302,299,299,313,2
300,286,298,309,2
298,275,298,303,2
297,271,295,296,2
295,273,294,290,2
295,281,294,288,2
296,289,294,289,2
297,296,295,294,2
299,302,295,300,2
302,308,296,307,2
304,313,298,312,2
306,314,302,314,2
306,311,306,316,2
305,304,312,317,2
304,299,316,318,2
303,294,320,317,2
302,290,320,315,2
302,284,320,312,2
303,277,320,309,2
303,274,319,306,2
303,274,318,302,2
303,274,316,301,2
303,272,315,302,2
303,269,314,304,2
304,267,312,306,2
305,270,310,307,2
306,279,307,307,2
306,291,304,308,2
307,302,302,310,2
307,305,302,313,2
307,299,303,316,2
307,293,305,319,2
307,298,310,319,2
309,316,315,319,2
311,335,319,318,2
313,352,320,315,2
314,361,319,313,2
314,362,316,312,2
313,355,312,311,2
312,339,308,311,2
311,317,306,310,2
309,294,305,310,2
308,279,306,310,2
308,276,308,310,2
309,284,311,310,2
310,299,312,311,2
310,318,313,312,2
311,337,312,313,2
311,352,311,315,2
310,362,311,316,2
309,364,311,316,2
308,358,311,316,2
306,347,311,315,2
305,335,311,315,2
304,326,310,314,2
304,319,309,313,2
306,315,311,313,2
306,313,312,311,2
307,309,313,309,2
306,302,313,307,2
304,293,313,304,2
303,287,313,300,2
302,289,312,297,2
302,295,311,294,2
303,301,310,291,2
303,307,309,290,2
303,314,308,289,2
303,320,309,290,2
303,322,309,292,2
301,317,308,295,2
299,306,307,297,2
297,292,305,299,2
296,278,303,301,2
296,271,301,302,2
298,275,300,305,2
300,285,300,308,2
303,298,301,310,2
307,311,301,313,2
309,321,302,315,2
310,326,302,317,2
309,324,301,317,2
307,318,300,317,2
304,308,298,315,2
301,297,296,311,2
299,288,295,304,2
298,286,296,297,2
298,288,296,289,2
298,291,298,281,2
298,296,299,277,2
298,304,302,280,2
301,314,307,288,2
303,323,312,299,2
306,330,315,309,2
307,331,317,315,2
306,326,317,318,2
306,322,317,318,2
307,320,316,318,2
307,319,314,317,2
307,317,313,315,2
306,315,311,312,2
305,311,309,309,2
305,307,308,307,2
304,301,307,307,2
303,292,306,308,2
302,283,305,310,2
301,276,304,311,2
301,272,302,311,2
302,271,301,309,2
301,273,301,307,2
300,279,301,304,2
300,289,302,303,2
301,300,305,302,2
303,311,308,301,2
304,319,309,301,2
305,322,310,299,2
305,322,310,299,2
306,318,310,301,2
307,313,310,305,2
308,312,311,311,2
309,316,312,315,2
311,323,314,317,2
313,329,314,317,2
313,330,313,315,2
313,328,311,314,2
312,327,311,313,2
312,329,311,314,2
312,333,312,315,2
310,333,312,315,2
307,330,312,315,2
305,325,312,314,2
304,318,313,313,2
303,311,313,310,2
302,306,313,308,2
302,305,313,305,2
302,307,314,303,2
303,307,315,301,2
303,303,317,300,2
304,299,317,301,2
304,298,319,302,2
304,299,320,304,2
305,300,320,307,2
304,299,320,311,2
304,298,320,314,2
304,295,319,315,2
304,291,317,315,2
304,287,315,313,2
303,285,313,310,2
302,286,309,305,2
301,289,306,300,2
300,293,304,297,2
300,294,304,294,2
300,292,304,292,2
301,286,304,290,2
301,279,304,289,2
301,275,303,290,2
302,276,303,295,2
304,280,303,301,2
304,285,303,308,2
305,293,304,314,2
305,302,305,316,2
305,308,306,316,2
305,307,306,315,2
305,293,304,312,2
304,267,301,308,2
302,237,295,302,2
301,220,290,297,2
301,225,287,290,2
301,246,282,285,2
302,276,281,284,2
303,308,283,288,2
304,334,287,297,2
306,352,292,308,2
308,360,296,320,2
310,361,300,328,2
311,359,304,329,2
311,354,307,327,2
311,351,311,322,2
312,351,314,320,2
314,354,317,319,2
316,356,318,319,2
318,354,318,317,2
318,346,317,315,2
316,336,314,313,2
313,327,311,312,2
312,321,309,312,2
311,316,308,314,2
311,312,309,316,2
311,309,309,316,2
310,307,310,313,2
310,311,310,309,2
309,316,309,307,2
308,322,310,307,2
308,326,311,307,2
307,329,312,308,2
306,330,313,309,2
306,328,314,310,2
305,323,314,311,2
304,315,313,312,2
304,300,313,312,2
302,280,313,312,2
302,266,314,313,2
302,264,316,312,2
303,277,317,312,2
305,302,318,311,2
306,320,319,310,2
306,318,318,309,2
304,305,318,307,2
302,291,316,306,2
302,283,315,306,2
303,283,314,308,2
303,291,312,309,2
304,300,311,310,2
303,306,310,310,2
303,312,308,309,2
303,316,306,307,2
304,317,306,305,2
305,318,306,303,2
306,319,306,300,2
307,321,306,297,2
307,321,306,297,2
307,320,306,299,2
307,315,307,301,2
305,303,308,302,2
303,286,308,300,2
301,269,308,297,2
299,262,308,292,2
299,267,307,289,2
300,280,304,288,2
302,293,301,290,2
303,303,297,295,2
303,309,295,300,2
304,314,295,305,2
305,324,296,309,2
307,336,300,313,2
309,345,303,316,2
309,346,305,318,2
310,340,307,319,2
309,326,307,320,2
309,309,309,321,2
309,296,310,321,2
309,294,311,319,2
309,301,311,318,2
310,312,310,317,2
310,321,309,315,2
310,326,306,312,2
309,330,304,309,2
307,334,303,307,2
306,337,303,306,2
304,328,303,306,2
303,308,303,307,2
302,285,302,306,2
301,270,299,306,2
301,267,295,305,2
302,274,292,305,2
302,285,291,305,2
303,297,290,306,2
304,309,290,307,2
304,316,292,308,2
305,318,296,309,2
306,314,302,311,2
307,306,308,311,2
307,298,313,310,2
308,292,317,309,2
308,289,319,307,2
308,286,320,305,2
309,283,318,302,2
309,281,317,301,2
308,281,316,302,2
307,283,316,303,2
307,289,317,305,2
306,297,317,305,2
305,302,316,306,2
304,302,316,307,2
304,297,314,309,2
305,292,315,312,2
306,294,315,313,2
308,302,316,314,2
309,316,317,313,2
311,328,317,311,2
311,334,317,310,2
310,334,315,309,2
309,331,314,309,2
308,326,313,311,2
307,321,313,312,2
306,317,314,313,2
307,314,314,313,2
307,312,315,312,2
308,311,315,308,2
308,310,313,304,2
308,310,311,300,2
308,311,309,298,2
308,313,309,298,2
308,315,310,300,2
309,314,310,302,2
310,310,312,304,2
310,302,312,307,2
309,290,312,308,2
309,280,312,309,2
310,274,313,309,2
311,275,314,308,2
311,279,312,306,2
311,284,310,304,2
311,294,308,304,2
311,305,307,304,2
311,314,305,303,2
309,316,303,301,2
308,311,301,299,2
306,304,299,295,2
305,294,297,291,2
304,286,295,286,2
304,284,294,281,2
305,289,296,281,2
307,299,298,285,2
309,313,301,292,2
312,324,303,299,2
313,329,304,303,2
313,325,305,306,2
312,314,305,306,2
310,301,305,302,2
308,292,304,294,2
307,289,303,286,2
306,290,301,279,2
305,293,299,275,2
305,299,298,277,2
307,305,297,286,2
308,311,298,297,2
308,316,298,306,2
309,321,298,311,2
308,322,297,314,2
307,317,297,316,2
306,309,296,320,2
305,301,295,325,2
304,297,295,330,2
305,301,296,334,2
307,310,297,334,2
308,321,297,331,2
309,327,296,329,2
310,328,296,327,2
309,323,297,326,2
308,315,298,326,2
308,306,300,326,2
307,294,302,326,2
306,284,305,323,2
306,276,307,319,2
305,270,309,315,2
304,270,310,312,2
305,279,310,311,2
306,291,311,310,2
306,299,311,308,2
305,297,312,306,2
303,286,313,305,2
302,279,315,306,2
303,285,317,308,2
305,304,319,313,2
308,325,321,318,2
310,338,323,321,2
311,343,323,322,2
310,344,322,320,2
310,345,320,316,2
309,347,317,308,2
309,345,314,298,2
308,341,311,288,2
308,335,308,280,2
307,329,305,276,2
307,323,304,278,2
307,319,303,285,2
306,317,302,296,2
306,318,301,308,2
306,317,303,318,2
306,310,304,324,2
306,299,306,326,2
304,286,306,327,2
304,278,307,326,2
305,280,308,325,2
307,290,307,324,2
309,303,305,322,2
311,313,303,321,2
312,318,302,319,2
313,316,301,317,2
312,310,301,315,2
312,305,301,315,2
312,304,302,314,2
312,305,304,314,2
312,308,306,314,2
311,311,308,313,2
309,314,308,312,2
308,316,308,310,2
307,318,308,308,2
307,319,308,306,2
307,316,309,305,2
306,309,309,305,2
304,301,307,305,2
301,296,304,306,2
300,293,301,306,2
299,291,298,306,2
299,286,295,306,2
299,285,292,306,2
300,295,291,304,2
301,309,291,303,2
302,322,292,302,2
302,328,295,301,2
302,324,299,302,2
302,313,301,304,2
300,300,301,306,2
300,290,301,308,2
299,291,300,310,2
300,302,299,309,2
300,314,297,305,2
300,326,296,301,2
299,333,296,298,2
299,337,296,295,2
298,336,299,293,2
298,333,301,291,2
298,329,304,290,2
299,321,306,291,2
299,309,306,293,2
299,289,306,297,2
299,265,305,303,2
300,245,304,309,2
300,235,306,313,2
302,239,307,315,2
304,255,308,313,2
305,278,309,307,2
307,302,308,302,2
307,322,308,298,2
308,336,307,298,2
307,345,307,301,2
307,349,308,305,2
307,349,309,310,2
306,347,309,312,2
307,344,309,313,2
306,341,308,312,2
306,336,308,311,2
305,328,308,310,2
305,318,309,311,2
304,307,310,309,2
304,295,310,306,2
303,286,310,298,2
301,285,311,288,2
301,288,311,284,2
303,293,313,287,2
305,301,314,298,2
308,307,316,313,2
311,312,317,327,2
312,313,317,336,2
312,311,316,338,2
311,302,314,336,2
309,289,313,331,2
309,276,312,327,2
309,270,313,325,2
311,278,313,324,2
313,297,313,323,2
313,316,311,323,2
312,328,309,321,2
310,333,307,320,2
308,333,306,318,2
307,328,306,316,2
307,322,306,315,2
306,319,307,313,2
306,321,307,310,2
306,326,306,306,2
306,330,306,303,2
306,328,306,299,2
304,318,305,296,2
303,307,305,295,2
302,301,305,296,2
302,298,306,299,2
302,298,306,303,2
303,304,305,307,2
303,310,304,311,2
303,314,303,314,2
303,314,302,314,2
303,311,301,312,2
302,307,301,306,2
302,303,301,301,2
302,301,300,296,2
302,301,300,294,2
303,301,299,295,2
303,299,298,297,2
303,294,298,300,2
303,287,298,302,2
302,280,298,303,2
302,277,298,303,2
303,277,297,304,2
305,281,295,306,2
306,285,293,308,2
306,287,290,310,2
306,285,287,312,2
305,282,287,314,2
306,289,289,315,2
306,302,293,313,2
307,312,296,311,2
306,315,299,310,2
306,313,304,310,2
306,311,311,311,2
307,311,317,313,2
307,314,322,314,2
307,316,326,313,2
308,319,327,311,2
308,322,327,307,2
308,325,326,302,2
307,328,323,296,2
307,330,318,291,2
306,330,311,289,2
305,328,305,290,2
304,324,299,293,2
303,319,294,297,2
304,315,291,301,2
305,313,289,302,2
306,313,289,301,2
307,316,289,300,2
307,320,291,303,2
307,324,294,306,2
306,327,298,307,2
306,327,302,304,2
306,326,307,298,2
307,319,310,294,2
308,308,313,294,2
308,295,315,297,2
308,285,317,303,2
306,278,318,309,2
305,275,319,315,2
304,277,320,319,2
304,283,321,321,2
303,292,321,322,2
304,301,321,322,2
305,304,320,319,2
306,295,318,315,2
306,280,315,312,2
306,264,314,311,2
307,258,315,313,2
309,258,315,315,2
310,262,313,315,2
310,269,313,313,2
310,278,313,309,2
310,291,312,305,2
310,308,312,301,2
310,326,311,298,2
310,340,310,296,2
310,351,309,295,2
309,359,307,294,2
309,366,305,295,2
308,370,304,298,2
308,369,304,302,2
307,362,304,305,2
307,353,303,307,2
307,342,303,310,2
307,332,303,311,2
306,325,303,311,2
307,321,302,311,2
309,320,301,310,2
309,320,301,310,2
309,321,300,309,2
309,321,300,310,2
310,321,300,311,2
310,318,302,313,2
311,313,305,314,2
312,309,307,315,2
311,308,308,315,2
311,311,307,315,2
311,314,306,315,2
310,316,305,314,2
309,315,304,314,2
309,310,303,313,2
308,303,301,312,2
306,297,300,312,2
305,291,301,313,2
304,285,303,313,2
303,280,305,313,2
302,277,308,312,2
302,273,310,311,2
300,271,310,310,2
299,269,309,310,2
299,266,309,308,2
300,263,309,306,2
302,259,309,304,2
303,258,307,303,2
303,268,305,301,2
303,284,302,299,2
303,302,298,298,2
303,315,296,298,2
303,319,295,300,2
302,316,295,303,2
301,310,295,304,2
301,305,297,304,2
302,300,299,302,2
303,295,300,300,2
304,296,300,296,2
304,308,299,295,2
305,323,297,296,2
306,334,297,299,2
307,341,298,304,2
307,344,299,309,2
306,341,301,313,2
306,335,302,315,2
306,326,304,316,2
306,316,307,317,2
306,308,310,317,2
307,301,311,317,2
306,297,312,315,2
305,295,312,314,2
304,294,312,312,2
303,294,312,311,2
303,297,312,311,2
304,299,312,311,2
304,299,313,310,2
305,296,313,309,2
305,292,314,306,2
304,292,315,304,2
305,296,315,303,2
306,301,315,303,2
306,303,314,304,2
307,305,312,306,2
307,310,310,307,2
307,315,310,307,2
307,321,311,308,2
307,326,312,309,2
307,331,313,310,2
308,333,313,312,2
309,331,313,314,2
308,325,313,314,2
306,316,312,314,2
303,307,310,313,2
302,302,309,312,2
302,299,308,311,2
301,293,307,310,2
301,284,307,310,2
301,273,307,311,2
303,270,307,311,2
304,280,308,311,2
307,298,308,310,2
309,313,309,310,2
310,319,309,308,2
310,316,310,305,2
308,307,310,302,2
306,298,310,298,2
304,294,309,296,2
304,294,308,296,2
303,299,308,297,2
304,305,308,297,2
305,308,308,296,2
304,305,308,292,2
304,298,307,289,2
303,290,308,288,2
303,288,308,289,2
303,294,308,293,2
304,303,307,298,2
305,311,305,303,2
305,315,304,307,2
305,318,302,308,2
304,323,302,308,2
304,331,302,307,2
304,337,301,306,2
304,342,302,305,2
304,345,302,305,2
305,346,301,306,2
306,344,300,307,2
306,338,301,308,2
306,326,301,308,2
305,311,302,308,2
303,291,301,306,2
301,271,299,305,2
301,255,298,305,2
302,248,298,305,2
303,251,301,306,2
305,264,304,306,2
306,283,306,305,2
307,303,305,301,2
307,322,304,297,2
307,335,302,295,2
306,342,303,296,2
306,343,304,300,2
307,337,306,305,2
307,328,309,311,2
307,321,312,316,2
306,318,315,320,2
307,320,317,323,2
309,323,319,326,2
310,325,320,329,2
312,328,320,331,2
314,328,320,333,2
315,324,319,333,2
315,313,318,331,2
314,300,316,328,2
311,290,315,324,2
309,287,314,320,2
308,292,313,318,2
307,302,311,316,2
306,310,308,315,2
306,314,305,315,2
306,319,303,316,2
306,326,302,316,2
307,331,303,317,2
308,333,303,316,2
309,331,302,315,2
308,324,301,313,2
307,314,299,312,2
306,304,299,310,2
305,294,299,307,2
304,288,300,303,2
304,284,302,299,2
303,283,304,297,2
303,284,305,295,2
302,286,306,295,2
300,288,305,294,2
299,289,304,295,2
297,289,303,297,2
297,290,302,300,2
296,288,300,302,2
295,281,298,304,2
294,268,296,307,2
295,251,294,309,2
296,237,295,312,2
299,237,296,315,2
303,249,300,318,2
307,267,304,320,2
310,284,308,321,2
312,301,311,321,2
314,317,313,318,2
314,330,315,313,2
314,339,317,308,2
314,345,318,304,2
315,350,319,303,2
316,356,319,306,2
317,360,319,310,2
318,363,317,315,2
319,363,316,318,2
320,358,315,318,2
319,347,313,315,2
316,332,309,309,2
313,316,305,302,2
309,305,302,299,2
307,304,300,300,2
306,307,299,304,2
306,307,301,308,2
305,301,301,311,2
303,294,301,312,2
302,286,301,311,2
302,277,302,308,2
302,273,303,304,2
303,280,305,301,2
305,295,305,299,2
306,312,303,298,2
306,322,301,298,2
305,328,298,297,2
304,329,298,296,2
304,329,299,295,2
304,329,301,294,2
304,328,304,294,2
305,325,307,297,2
305,320,310,303,2
305,315,313,310,2
305,307,315,318,2
305,298,317,323,2
305,286,317,324,2
305,274,315,322,2
303,265,314,319,2
302,261,312,316,2
301,264,310,313,2
300,271,308,309,2
301,281,307,309,2
302,293,308,311,2
304,306,308,313,2
307,318,307,314,2
308,326,305,314,2
309,332,303,313,2
308,337,302,313,2
307,339,302,312,2
306,335,302,311,2
305,322,302,309,2
303,302,301,306,2
302,279,300,303,2
301,263,300,300,2
302,260,302,298,2
304,266,303,299,2
304,272,302,300,2
304,274,301,300,2
303,271,300,299,2
302,267,299,300,2
302,265,299,302,2
303,269,300,308,2
305,280,301,315,2
306,293,302,320,2
307,306,302,320,2
308,314,301,317,2
307,318,301,311,2
306,320,303,306,2
306,325,304,303,2
306,334,306,303,2
307,341,306,305,2
307,345,305,308,2
307,347,304,310,2
307,347,303,310,2
306,345,303,309,2
306,340,303,307,2
305,331,303,307,2
306,319,304,307,2
306,309,307,309,2
308,307,309,314,2
310,312,311,319,2
313,320,312,323,2
314,327,313,325,2
315,333,313,326,2
316,335,312,325,2
316,337,312,324,2
316,341,312,322,2
315,344,312,319,2
313,345,311,317,2
311,341,311,315,2
310,336,310,313,2
308,329,308,312,2
306,322,306,311,2
305,314,304,310,2
304,307,302,309,2
304,299,302,309,2
305,293,302,310,2
305,290,304,310,2
305,285,304,310,2
304,278,304,311,2
302,270,303,312,2
301,263,304,313,2
301,258,304,313,2
300,255,303,312,2
301,253,302,309,2
300,252,301,305,2
300,252,300,302,2
300,259,299,303,2
301,269,298,305,2
302,274,297,308,2
303,273,296,310,2
303,265,295,309,2
302,257,293,305,2
301,257,292,300,2
301,269,296,298,2
304,289,302,299,2
308,312,308,301,2
310,330,314,303,2
311,339,317,302,2
311,339,317,301,2
309,333,315,300,2
308,326,313,300,2
306,321,310,301,2
304,314,309,302,2
304,307,308,304,2
303,303,308,303,2
302,305,310,300,2
302,314,312,296,2
302,327,313,291,2
302,341,313,289,2
304,352,313,291,2
306,355,312,294,2
307,352,311,299,2
307,343,309,303,2
306,332,308,304,2
304,319,308,303,2
302,306,309,302,2
301,295,309,304,2
301,284,310,307,2
303,275,310,313,2
304,269,310,318,2
305,264,310,319,2
305,260,308,319,2
304,263,307,315,2
305,272,306,311,2
305,286,305,304,2
305,301,304,297,2
305,312,304,290,2
304,318,305,285,2
302,321,304,281,2
301,321,305,283,2
301,320,307,292,2
302,320,310,305,2
303,319,311,319,2
306,318,312,327,2
307,315,313,329,2
308,312,314,325,2
308,306,315,322,2
308,298,314,319,2
307,287,314,320,2
306,277,314,323,2
305,271,316,328,2
306,271,318,332,2
306,281,319,335,2
308,297,320,335,2
310,311,320,333,2
310,321,319,330,2
309,327,316,326,2
307,331,313,323,2
306,330,310,321,2
305,321,308,319,2
303,305,305,315,2
301,288,303,309,2
299,279,301,305,2
298,281,300,303,2
298,293,299,302,2
298,310,298,302,2
299,323,299,304,2
300,326,300,306,2
300,319,301,308,2
298,300,302,309,2
298,277,304,309,2
298,257,306,308,2
300,248,307,307,2
302,255,309,305,2
305,277,310,302,2
307,305,308,299,2
307,329,306,299,2
307,346,306,301,2
307,356,305,305,2
308,361,306,308,2
308,363,307,312,2
309,363,309,313,2
310,361,312,314,2
310,356,315,313,2
309,347,315,312,2
306,329,314,308,2
304,302,311,303,2
301,270,308,300,2
299,238,306,299,2
297,212,305,299,2
296,202,305,301,2
297,211,306,302,2
298,237,308,303,2
301,271,309,304,2
304,304,311,303,2
307,329,312,302,2
309,344,312,302,2
310,350,312,301,2
310,346,313,304,2
310,339,313,308,2
309,330,312,312,2
308,322,312,315,2
307,314,312,315,2
306,305,312,313,2
304,297,314,311,2
304,293,316,309,2
304,299,318,308,2
305,311,317,306,2
306,323,314,304,2
306,331,311,304,2
306,334,309,304,2
306,331,306,304,2
305,324,304,303,2
304,315,302,302,2
304,309,302,300,2
303,308,301,298,2
302,311,300,296,2
301,309,300,295,2
300,301,301,294,2
300,292,302,294,2
300,287,303,296,2
302,291,304,300,2
304,302,306,305,2
305,309,309,311,2
307,312,311,316,2
308,311,314,318,2
309,308,315,318,2
310,306,316,315,2
310,305,316,312,2
311,305,316,310,2
311,305,317,307,2
311,307,318,302,2
310,307,318,295,2
309,304,317,287,2
307,297,316,281,2
304,286,315,277,2
302,275,315,278,2
301,268,315,284,2
301,271,315,294,2
302,282,315,305,2
304,298,316,314,2
305,313,318,318,2
306,325,319,320,2
306,330,320,320,2
307,329,320,318,2
308,323,320,317,2
310,315,319,316,2
313,306,317,315,2
315,298,315,315,2
317,294,314,315,2
316,293,313,315,2
316,296,314,315,2
314,302,315,313,2
313,309,313,312,2
310,316,309,310,2
306,321,304,308,2
303,324,301,307,2
303,327,299,306,2
303,332,298,305,2
303,335,298,304,2
303,333,296,302,2
302,328,294,298,2
301,319,293,292,2
300,309,292,284,2
300,300,292,280,2
300,293,291,279,2
300,287,292,278,2
301,286,293,280,2
302,290,294,284,2
304,299,295,288,2
305,308,297,293,2
306,313,298,296,2
307,313,301,301,2
307,309,302,306,2
306,301,305,309,2
306,292,308,311,2
306,287,310,310,2
304,288,311,307,2
304,293,311,302,2
303,297,312,297,2
303,297,314,293,2
304,295,316,291,2
304,292,318,293,2
305,289,320,299,2
305,288,322,307,2
306,290,322,315,2
306,295,320,320,2
307,302,318,321,2
308,311,316,319,2
310,318,314,315,2
310,324,312,310,2
310,328,309,305,2
309,329,308,301,2
308,328,307,297,2
306,321,306,294,2
304,308,305,293,2
303,290,304,296,2
301,270,305,301,2
301,254,307,307,2
302,247,311,311,2
303,250,314,313,2
305,262,316,312,2
306,280,316,311,2
308,302,317,312,2
310,324,316,314,2
310,339,315,318,2
311,346,313,323,2
312,347,312,326,2
312,345,311,327,2
313,341,311,326,2
313,336,311,324,2
312,332,310,322,2
310,332,309,320,2
309,334,308,319,2
309,332,306,316,2
308,324,303,314,2
306,313,300,312,2
303,305,300,310,2
301,302,300,308,2
301,304,302,307,2
301,308,304,306,2
303,312,306,306,2
304,315,308,306,2
304,314,308,305,2
304,311,309,305,2
304,307,309,304,2
304,302,310,303,2
302,294,309,302,2
300,282,308,302,2
297,267,307,303,2
295,255,307,307,2
295,250,309,312,2
298,255,312,319,2
303,267,314,322,2
307,283,313,322,2
308,298,310,320,2
308,310,307,315,2
308,320,305,310,2
308,329,304,305,2
307,334,303,301,2
306,335,302,296,2
305,333,301,290,2
305,329,299,286,2
305,325,297,284,2
306,325,297,284,2
307,329,298,287,2
308,332,299,291,2
308,333,300,296,2
308,333,301,301,2
308,330,301,306,2
307,326,300,309,2
308,321,300,310,2
308,316,299,309,2
307,311,299,307,2
307,305,298,306,2
306,300,297,307,2
305,297,296,307,2
304,295,295,306,2
303,289,294,303,2
302,279,293,300,2
300,268,291,298,2
299,263,291,296,2
299,267,291,295,2
300,278,292,294,2
300,289,291,291,2
300,296,290,286,2
301,302,289,280,2
302,305,289,276,2
303,309,291,277,2
305,312,293,282,2
307,312,295,293,2
308,312,298,306,2
309,309,302,320,2
310,303,306,331,2
310,299,309,336,2
309,299,312,337,2
308,303,314,335,2
307,307,317,332,2
306,304,319,328,2
306,295,321,325,2
306,284,322,323,2
306,275,324,321,2
308,274,324,319,2
308,286,324,317,2
309,305,322,314,2
309,324,320,313,2
308,338,317,313,2
305,345,316,312,2
303,346,315,313,2
302,345,315,312,2
303,343,315,312,2
305,340,315,310,2
307,336,314,309,2
307,334,313,306,2
307,333,312,304,2
307,335,311,302,2
307,338,310,299,2
306,338,309,299,2
305,335,308,299,2
304,327,309,300,2
303,316,309,302,2
302,305,311,304,2
302,296,312,305,2
302,292,312,306,2
302,291,312,306,2
303,289,311,306,2
304,289,310,307,2
305,294,311,308,2
308,300,313,309,2
310,305,313,310,2
311,306,313,311,2
311,307,312,310,2
311,310,311,308,2
310,314,309,307,2
309,317,307,307,2
306,319,305,306,2
303,322,303,305,2
301,327,302,305,2
300,333,300,305,2
299,337,300,304,2
299,337,298,303,2
300,335,297,300,2
300,333,297,299,2
301,332,299,299,2
303,331,300,302,2
305,329,302,305,2
307,329,302,308,2
309,331,301,312,2
310,332,302,314,2
310,327,302,316,2
309,316,301,318,2
308,301,301,319,2
308,289,299,319,2
307,285,298,317,2
307,289,297,313,2
306,294,295,307,2
304,297,293,300,2
302,299,293,293,2
301,298,294,289,2
301,294,296,287,2
299,283,296,288,2
297,268,296,289,2
296,253,297,293,2
296,244,300,298,2
296,247,301,300,2
296,259,300,297,2
297,271,299,291,2
298,281,297,286,2
300,295,296,286,2
302,315,297,292,2
306,334,299,303,2
310,346,301,316,2
312,350,304,326,2
314,349,309,332,2
315,345,314,333,2
315,341,319,332,2
315,336,323,331,2
314,330,326,329,2
314,324,327,327,2
314,319,328,325,2
313,317,327,324,2
312,318,327,323,2
310,317,325,321,2
308,311,322,319,2
307,301,320,316,2
306,291,318,313,2
305,287,316,309,2
305,293,316,306,2
307,305,315,302,2
307,316,315,300,2
308,319,313,300,2
307,311,311,302,2
306,300,309,304,2
306,294,308,305,2
307,298,306,306,2
308,312,305,306,2
309,329,305,307,2
310,344,307,308,2
310,352,308,309,2
309,355,309,311,2
308,354,310,312,2
306,351,311,313,2
304,346,311,312,2
303,337,309,311,2
301,329,307,308,2
298,318,305,305,2
297,307,304,303,2
297,298,302,302,2
297,292,301,302,2
299,288,300,304,2
300,281,301,306,2
301,270,302,306,2
301,259,305,303,2
300,256,305,298,2
300,265,305,291,2
301,283,304,286,2
303,304,303,280,2
304,321,301,276,2
303,332,299,277,2
302,338,298,283,2
301,338,298,293,2
301,334,299,304,2
301,325,300,313,2
301,312,299,319,2
301,298,300,323,2
302,285,301,322,2
305,276,304,319,2
308,271,306,316,2
309,268,307,312,2
308,269,308,311,2
308,279,308,311,2
308,295,308,310,2
309,310,307,310,2
309,319,305,311,2
309,322,305,313,2
308,322,306,314,2
308,320,308,317,2
307,322,309,319,2
306,326,311,321,2
306,326,312,323,2
305,320,312,323,2
305,308,309,323,2
304,298,306,323,2
304,295,303,322,2
304,299,300,320,2
304,308,298,318,2
304,320,295,316,2
305,329,293,315,2
305,331,292,313,2
306,329,292,310,2
306,327,293,306,2
306,328,295,302,2
306,328,298,299,2
306,326,301,298,2
306,322,304,299,2
306,317,307,301,2
306,315,310,305,2
306,315,311,309,2
306,313,313,311,2
305,307,314,312,2
305,300,315,313,2
304,292,316,313,2
303,287,316,313,2
303,289,314,312,2
303,295,313,310,2
304,304,311,309,2
306,310,309,307,2
307,315,308,305,2
307,319,308,305,2
308,323,308,306,2
308,326,308,307,2
308,326,308,308,2
309,322,308,307,2
309,314,309,306,2
307,304,309,305,2
306,297,309,305,2
305,299,308,304,2
304,307,307,303,2
304,314,305,302,2
303,320,303,301,2
303,324,302,300,2
303,325,301,300,2
302,323,302,301,2
301,317,303,302,2
301,305,304,303,2
301,290,305,305,2
300,275,306,307,2
301,261,308,310,2
302,250,312,313,2
303,241,316,315,2
303,237,319,316,2
304,246,319,317,2
306,264,318,317,2
308,285,318,318,2
310,305,317,318,2
310,314,315,318,2
310,315,313,317,2
309,311,313,316,2
308,307,313,313,2
308,309,312,307,2
307,316,310,300,2
306,327,309,294,2
306,339,307,288,2
304,349,305,285,2
303,357,303,283,2
301,362,302,282,2
300,365,300,282,2
300,364,300,284,2
300,361,301,290,2
300,356,304,299,2
302,348,305,307,2
304,339,305,314,2
305,328,304,318,2
306,320,303,322,2
308,314,302,325,2
309,309,301,329,2
309,306,298,332,2
308,302,295,334,2
307,299,293,334,2
306,294,292,334,2
305,286,291,333,2
303,276,291,332,2
302,268,292,330,2
301,262,295,328,2
302,262,300,325,2
303,263,304,322,2
304,267,309,319,2
305,277,311,316,2
306,293,312,312,2
307,311,312,309,2
308,327,312,309,2
309,337,311,311,2
309,341,311,314,2
309,338,311,317,2
309,334,310,319,2
308,329,311,321,2
308,324,312,323,2
309,315,313,324,2
309,307,314,324,2
309,303,314,324,2
308,303,313,322,2
308,305,313,321,2
308,309,312,320,2
307,313,311,318,2
307,314,310,317,2
306,310,310,316,2
305,299,310,316,2
305,285,310,316,2
304,274,311,315,2
304,273,312,315,2
306,285,313,315,2
307,298,313,315,2
308,308,312,314,2
308,317,310,313,2
307,323,308,311,2
305,325,305,309,2
304,323,302,307,2
303,317,299,304,2
302,311,297,302,2
302,307,295,301,2
302,306,296,300,2
303,306,297,301,2
303,307,299,302,2
303,308,301,303,2
303,308,301,304,2
303,308,301,305,2
303,308,300,305,2
304,307,298,306,2
304,305,297,306,2
303,304,296,305,2
303,305,295,303,2
302,303,296,301,2
301,293,295,299,2
298,278,295,298,2
297,261,296,298,2
296,250,297,298,2
296,246,298,297,2
297,249,298,294,2
297,255,299,290,2
297,258,300,288,2
298,259,302,289,2
298,257,304,293,2
297,256,308,300,2
299,262,313,308,2
301,270,318,315,2
303,279,319,318,2
304,283,318,318,2
307,287,318,318,2
310,297,318,318,2
312,314,317,317,2
312,332,314,315,2
311,346,310,313,2
308,353,308,311,2
307,355,306,308,2
305,356,304,306,2
304,359,303,306,2
303,361,301,308,2
303,361,298,310,2
303,360,297,313,2
304,358,295,315,2
305,357,295,317,2
305,355,296,318,2
305,351,298,318,2
304,346,300,318,2
302,338,302,317,2
299,326,303,314,2
296,313,305,310,2
295,301,308,307,2
295,293,312,305,2
297,289,314,305,2
300,287,316,307,2
303,284,316,309,2
303,279,315,308,2
303,276,313,304,2
302,281,311,299,2
302,292,309,293,2
303,304,308,288,2
304,310,307,282,2
303,310,305,276,2
300,303,303,273,2
299,290,302,275,2
299,275,303,285,2
299,263,305,300,2
302,257,307,318,2
305,260,306,331,2
309,269,304,336,2
312,287,301,335,2
314,311,298,328,2
315,335,296,318,2
315,352,294,309,2
314,361,295,305,2
313,361,297,305,2
311,355,300,307,2
310,348,304,309,2
310,343,309,310,2
310,336,312,310,2
309,329,314,309,2
309,322,314,307,2
308,315,313,304,2
307,307,312,302,2
306,298,310,300,2
305,289,309,301,2
304,285,309,304,2
304,287,309,308,2
305,295,307,312,2
306,304,306,315,2
307,310,305,317,2
308,312,306,318,2
308,311,306,319,2
308,311,305,318,2
309,313,305,317,2
309,315,305,315,2
309,315,305,314,2
308,314,304,312,2
306,310,303,310,2
304,304,302,307,2
302,294,301,303,2
299,279,300,298,2
296,260,299,293,2
295,242,300,290,2
297,235,304,290,2
300,240,307,293,2
304,258,308,296,2
307,280,308,300,2
309,299,306,304,2
310,313,305,307,2
310,322,306,310,2
310,327,307,313,2
309,329,309,315,2
309,325,312,317,2
309,316,316,318,2
309,305,318,319,2
310,299,320,318,2
309,302,320,317,2
309,313,319,315,2
308,324,317,313,2
308,332,314,311,2
307,333,312,309,2
306,330,312,308,2
306,323,311,306,2
306,318,310,304,2
307,316,309,299,2
307,317,307,292,2
307,321,305,287,2
308,327,302,282,2
308,331,300,281,2
307,331,298,285,2
307,329,298,293,2
307,328,298,303,2
308,329,300,310,2
308,330,300,314,2
308,326,300,315,2
307,319,298,314,2
306,315,297,310,2
305,313,296,308,2
304,312,297,306,2
302,309,299,306,2
302,304,301,308,2
301,302,303,308,2
301,306,304,309,2
301,316,304,308,2
304,321,303,306,2
307,319,303,303,2
309,308,303,301,2
309,292,302,299,2
308,279,302,299,2
308,271,302,303,2
310,261,303,308,2
311,252,305,313,2
312,246,306,317,2
313,242,306,317,2
314,244,306,315,2
314,252,305,313,2
314,260,303,312,2
314,268,303,312,2
314,278,302,313,2
313,289,303,315,2
312,301,304,316,2
312,313,305,317,2
311,324,307,317,2
311,332,308,317,2
310,334,310,316,2
310,332,312,316,2
309,329,314,315,2
309,331,315,314,2
310,337,317,314,2
311,344,317,314,2
311,348,315,313,2
311,349,314,312,2
310,344,313,310,2
309,335,311,308,2
308,325,311,306,2
308,318,312,305,2
308,317,313,303,2
307,321,314,303,2
307,326,315,302,2
307,328,315,302,2
306,327,313,300,2
305,323,311,298,2
304,317,308,295,2
303,308,304,292,2
302,293,302,291,2
301,275,300,293,2
300,257,299,294,2
298,241,298,294,2
297,233,297,293,2
297,239,297,291,2
298,250,298,288,2
299,259,299,284,2
299,261,301,279,2
299,259,304,277,2
299,261,308,278,2
301,274,311,284,2
304,294,313,293,2
306,314,312,303,2
308,332,311,312,2
309,345,309,318,2
309,354,309,321,2
310,358,309,323,2
309,358,308,323,2
309,357,307,321,2
308,353,306,318,2
307,347,304,315,2
306,340,302,314,2
306,332,301,314,2
307,324,301,315,2
307,318,302,316,2
307,310,303,319,2
306,300,304,321,2
305,291,304,321,2
304,281,304,319,2
304,278,304,316,2
303,282,304,313,2
304,290,303,312,2
304,297,302,312,2
304,303,303,312,2
305,307,305,311,2
306,312,307,307,2
307,316,310,302,2
307,320,313,295,2
306,322,315,291,2
304,322,316,290,2
302,318,317,293,2
299,312,316,298,2
297,302,315,304,2
297,286,314,310,2
299,266,313,314,2
301,250,314,316,2
304,244,315,320,2
307,254,318,324,2
310,272,320,328,2
312,289,321,330,2
312,302,321,328,2
312,309,320,326,2
311,313,319,323,2
310,314,315,321,2
309,316,311,318,2
307,314,307,316,2
305,310,302,315,2
304,310,299,313,2
303,312,297,313,2
302,319,297,312,2
302,325,298,311,2
302,331,299,311,2
302,335,302,310,2
302,337,304,309,2
302,339,308,308,2
302,343,310,308,2
302,344,313,307,2
303,343,315,306,2
304,340,315,306,2
304,336,315,306,2
304,331,314,307,2
304,327,312,307,2
304,323,311,308,2
303,321,310,308,2
303,322,309,307,2
303,325,308,305,2
302,327,308,303,2
302,326,309,301,2
303,320,311,299,2
303,310,311,299,2
304,301,309,300,2
304,295,306,303,2
305,291,304,306,2
306,288,304,308,2
307,286,305,308,2
307,283,306,306,2
305,275,305,303,2
303,266,305,300,2
302,263,304,298,2
302,269,302,297,2
303,283,300,296,2
304,301,298,296,2
304,317,296,297,2
305,328,294,299,2
305,333,294,301,2
305,333,295,303,2
305,328,296,305,2
305,322,300,307,2
305,316,301,308,2
305,309,302,309,2
305,303,302,310,2
306,299,302,309,2
307,300,304,309,2
309,303,305,309,2
309,307,306,309,2
310,309,306,309,2
310,309,306,309,2
310,306,307,310,2
311,301,308,309,2
312,295,308,308,2
312,290,309,306,2
312,288,309,304,2
313,288,309,303,2
313,289,309,300,2
312,292,309,298,2
311,295,307,298,2
309,295,306,299,2
308,291,305,301,2
306,286,305,304,2
304,277,306,308,2
304,268,306,312,2
305,264,308,315,2
307,263,308,316,2
308,266,306,316,2
309,274,303,314,2
309,287,299,311,2
309,302,297,309,2
310,317,296,307,2
310,328,297,304,2
310,335,298,302,2
311,338,299,301,2
311,340,301,302,2
311,343,302,304,2
312,346,304,309,2
312,345,306,314,2
313,340,308,317,2
313,336,309,318,2
312,335,309,317,2
312,335,309,316,2
311,334,308,315,2
310,332,307,313,2
309,328,306,311,2
308,323,304,309,2
308,317,303,309,2
306,311,301,308,2
306,304,300,308,2
305,296,299,307,2
305,288,299,306,2
305,287,299,305,2
305,291,300,303,2
305,293,301,304,2
306,292,302,308,2
305,288,303,312,2
304,282,304,317,2
304,277,306,320,2
304,277,308,322,2
304,281,308,322,2
304,286,307,321,2
304,289,306,319,2
304,291,304,317,2
303,293,302,313,2
302,294,299,310,2
301,289,298,307,2
299,279,296,304,2
297,267,294,301,2
296,256,294,299,2
297,253,296,296,2
298,260,298,293,2
299,271,300,292,2
300,282,302,294,2
301,291,304,298,2
302,300,306,303,2
305,308,310,309,2
307,312,312,313,2
307,311,313,314,2
307,305,314,315,2
306,300,314,315,2
306,296,314,314,2
306,297,312,311,2
305,306,309,307,2
305,320,305,302,2
304,336,303,298,2
304,350,300,295,2
305,361,300,294,2
306,366,300,295,2
307,366,301,298,2
308,360,302,303,2
308,349,305,307,2
309,335,308,311,2
309,324,310,312,2
309,317,313,312,2
309,310,312,310,2
307,300,309,308,2
306,288,307,306,2
305,276,305,305,2
305,266,303,303,2
304,257,302,302,2
303,252,301,301,2
302,251,302,300,2
302,255,302,299,2
303,267,302,299,2
304,283,304,297,2
306,298,304,295,2
306,311,306,293,2
306,318,308,291,2
305,320,310,291,2
305,323,312,294,2
306,327,312,297,2
306,331,310,297,2
306,334,307,293,2
306,336,304,287,2
307,338,302,282,2
307,340,300,283,2
307,340,299,290,2
308,339,300,302,2
307,336,300,315,2
307,329,300,325,2
305,320,300,330,2
305,312,300,330,2
306,309,302,327,2
309,314,304,323,2
313,324,306,320,2
315,332,307,316,2
315,338,309,312,2
315,342,309,309,2
314,342,310,306,2
313,335,311,304,2
312,325,311,302,2
312,317,310,301,2
311,314,308,298,2
310,315,306,297,2
310,318,304,298,2
309,319,303,300,2
309,317,303,302,2
308,312,303,303,2
307,302,303,304,2
305,287,303,304,2
303,270,302,303,2
301,248,301,302,2
300,226,302,301,2
299,212,303,300,2
299,208,304,299,2
300,216,305,300,2
302,234,306,301,2
304,256,306,303,2
306,281,306,306,2
309,304,307,310,2
311,321,307,313,2
312,332,306,313,2
311,337,303,311,2
310,338,299,308,2
308,332,295,304,2
306,322,291,302,2
305,310,289,300,2
306,301,290,297,2
305,299,292,295,2
305,300,293,295,2
305,301,294,295,2
304,302,293,296,2
303,306,293,296,2
303,313,294,295,2
304,320,295,295,2
306,327,295,294,2
308,331,294,295,2
309,332,293,297,2
308,332,293,301,2
309,330,294,306,2
309,328,297,312,2
309,326,301,315,2
309,319,304,316,2
309,310,307,316,2
308,301,309,314,2
306,291,310,312,2
304,281,310,309,2
302,274,310,303,2
300,275,310,296,2
300,286,308,290,2
300,301,307,288,2
300,316,306,290,2
301,327,306,297,2
303,333,306,308,2
305,333,307,318,2
307,326,310,326,2
308,311,313,330,2
309,294,315,329,2
309,281,316,327,2
309,278,317,324,2
309,284,318,322,2
310,295,317,320,2
309,305,317,318,2
308,311,315,316,2
308,312,313,314,2
307,312,311,314,2
307,314,310,314,2
307,317,309,315,2
306,321,308,315,2
304,323,306,316,2
301,323,305,315,2
299,317,304,314,2
298,306,304,311,2
298,294,306,308,2
300,286,309,306,2
302,284,312,306,2
303,286,315,308,2
304,289,316,312,2
305,291,318,316,2
306,294,319,318,2
307,301,318,318,2
307,310,317,316,2
306,313,316,312,2
306,307,314,308,2
305,298,312,304,2
304,292,309,300,2
302,291,309,296,2
303,297,311,295,2
304,304,312,294,2
304,306,312,295,2
304,304,309,297,2
303,299,304,300,2
302,296,299,305,2
300,297,296,311,2
300,303,296,314,2
301,316,298,313,2
302,331,301,311,2
304,343,304,309,2
305,349,306,309,2
306,348,308,310,2
306,343,310,312,2
306,337,311,314,2
305,334,312,317,2
306,334,314,319,2
306,337,316,320,2
306,338,317,319,2
306,335,316,318,2
305,329,316,317,2
304,318,315,316,2
303,305,313,314,2
302,294,310,310,2
301,286,308,305,2
301,283,305,298,2
301,287,304,291,2
301,297,302,283,2
301,305,300,277,2
301,307,296,270,2
300,304,294,262,2
300,297,292,258,2
300,296,291,261,2
300,299,293,271,2
301,301,296,289,2
302,303,300,309,2
304,308,305,326,2
305,317,309,335,2
306,326,313,337,2
307,329,315,334,2
308,326,316,328,2
309,319,315,324,2
309,313,313,321,2
309,307,312,319,2
308,305,311,319,2
307,309,311,319,2
307,318,311,317,2
307,328,312,316,2
307,335,314,315,2
309,336,314,316,2
309,333,314,318,2
309,327,312,319,2
308,321,311,319,2
308,317,309,318,2
308,313,309,317,2
307,309,308,315,2
306,301,306,311,2
303,289,304,306,2
301,276,301,303,2
299,265,299,303,2
298,259,297,304,2
299,261,297,307,2
300,267,298,311,2
303,274,299,314,2
305,282,301,313,2
305,289,302,311,2
305,294,304,309,2
305,294,306,307,2
305,293,308,306,2
305,297,311,306,2
307,305,313,307,2
308,313,314,307,2
308,318,315,308,2
308,320,315,308,2
309,321,314,309,2
309,323,314,310,2
310,325,313,312,2
311,324,313,312,2
311,320,312,312,2
310,313,311,312,2
308,302,311,311,2
307,290,310,311,2
305,281,310,313,2
305,278,311,315,2
305,279,311,317,2
306,280,312,319,2
307,282,312,320,2
308,286,312,321,2
308,292,311,319,2
308,303,309,315,2
308,317,308,311,2
308,327,310,305,2
308,332,311,301,2
307,330,312,298,2
305,322,311,297,2
303,310,310,297,2
301,299,307,298,2
300,291,305,301,2
299,287,302,305,2
300,289,300,309,2
301,293,298,312,2
303,297,297,313,2
304,301,296,313,2
305,307,298,310,2
307,320,300,309,2
309,334,302,309,2
310,343,304,312,2
309,344,307,315,2
309,340,308,317,2
309,332,310,319,2
309,321,311,319,2
309,312,311,317,2
309,304,310,315,2
308,294,309,312,2
308,282,308,311,2
308,270,307,311,2
307,265,306,312,2
307,268,307,313,2
307,275,306,314,2
306,280,306,314,2
307,279,306,313,2
306,278,307,310,2
305,284,308,307,2
304,300,309,304,2
304,318,309,298,2
303,333,308,291,2
302,344,305,283,2
300,352,301,276,2
301,357,297,272,2
301,358,293,272,2
302,356,290,276,2
303,352,287,282,2
303,347,288,288,2
304,339,290,296,2
304,330,295,302,2
304,317,299,305,2
302,302,301,305,2
300,288,303,303,2
299,281,305,302,2
298,285,307,305,2
299,298,309,310,2
301,311,309,315,2
301,319,308,319,2
302,322,307,320,2
301,323,306,321,2
300,323,308,321,2
300,320,310,321,2
299,315,312,322,2
298,308,314,323,2
298,302,315,326,2
298,297,317,327,2
300,292,318,327,2
303,288,318,324,2
306,287,317,320,2
308,287,316,316,2
309,288,317,313,2
310,291,317,311,2
310,292,316,308,2
310,292,313,306,2
309,293,311,305,2
308,298,308,307,2
309,308,306,309,2
309,319,304,312,2
309,330,303,315,2
310,337,302,318,2
309,339,303,319,2
310,336,304,320,2
309,330,304,320,2
308,322,304,320,2
306,314,305,319,2
306,305,306,319,2
305,297,306,316,2
305,291,305,313,2
305,286,304,309,2
303,281,304,306,2
302,274,303,303,2
300,266,301,300,2
298,254,299,297,2
298,243,297,294,2
299,239,296,292,2
302,245,296,291,2
304,261,296,291,2
306,279,295,294,2
307,295,296,298,2
307,308,298,302,2
307,322,299,303,2
307,334,301,303,2
308,343,302,303,2
309,347,305,305,2
311,348,307,308,2
311,344,308,314,2
311,337,309,321,2
310,329,310,326,2
310,321,311,330,2
309,317,312,330,2
309,317,312,328,2
310,322,312,324,2
311,327,311,321,2
311,328,309,318,2
311,328,308,316,2
310,328,308,314,2
309,329,309,313,2
308,330,307,311,2
307,330,305,309,2
306,328,302,308,2
305,323,299,307,2
303,315,296,307,2
302,308,296,307,2
301,304,296,308,2
300,302,297,309,2
301,302,297,308,2
302,304,299,304,2
302,306,300,301,2
303,308,301,299,2
303,310,303,299,2
303,309,304,301,2
304,304,305,305,2
304,299,304,307,2
302,294,303,305,2
300,292,300,301,2
300,294,299,298,2
300,295,299,299,2
301,294,300,305,2
303,290,302,314,2
306,287,305,322,2
309,286,308,328,2
312,285,309,329,2
313,283,309,327,2
313,284,309,324,2
314,289,309,320,2
314,300,309,316,2
314,312,308,313,2
313,323,308,310,2
312,327,308,309,2
312,325,308,309,2
311,316,308,310,2
311,305,310,312,2
312,296,312,312,2
312,291,313,311,2
312,293,315,308,2
314,302,317,305,2
315,314,318,302,2
317,327,318,300,2
317,335,318,298,2
315,336,317,298,2
313,331,316,300,2
310,323,314,303,2
308,313,312,307,2
308,304,312,311,2
307,297,311,315,2
306,291,311,317,2
306,286,310,317,2
305,282,310,317,2
305,281,309,317,2
306,280,309,316,2
306,282,308,314,2
306,286,308,313,2
306,293,309,313,2
306,297,309,313,2
306,296,310,314,2
306,287,310,315,2
304,276,308,314,2
303,265,305,313,2
301,257,303,311,2
300,259,303,310,2
302,270,304,309,2
303,288,306,307,2
306,314,309,303,2
308,342,310,298,2
310,364,311,294,2
311,377,310,293,2
312,382,311,296,2
312,380,310,302,2
311,371,309,310,2
310,360,308,316,2
308,347,307,318,2
307,333,306,318,2
306,318,305,315,2
305,303,305,313,2
305,289,306,311,2
304,273,306,308,2
302,259,305,306,2
301,252,305,306,2
302,256,305,307,2
303,272,304,307,2
304,291,301,307,2
305,305,299,307,2
305,313,298,306,2
304,319,296,304,2
303,322,294,301,2
303,326,294,298,2
302,330,295,294,2
301,332,296,290,2
300,331,297,286,2
300,327,300,286,2
300,321,303,289,2
301,316,306,296,2
303,312,306,305,2
306,308,304,314,2
307,303,301,318,2
308,298,299,317,2
308,294,297,312,2
308,290,296,308,2
308,286,296,307,2
308,282,297,311,2
308,276,300,315,2
309,271,304,319,2
310,270,310,320,2
311,276,317,320,2
312,290,321,317,2
312,306,323,315,2
310,313,323,313,2
308,313,322,313,2
306,310,323,313,2
306,310,323,314,2
306,320,323,314,2
307,331,322,314,2
306,337,320,314,2
305,333,318,314,2
304,322,315,312,2
303,308,311,310,2
303,298,307,309,2
304,296,305,309,2
306,301,304,309,2
309,307,304,311,2
311,314,306,313,2
314,320,308,315,2
316,325,308,316,2
316,324,309,315,2
315,318,309,314,2
315,311,310,313,2
315,310,310,311,2
315,314,309,308,2
313,316,306,306,2
312,311,305,304,2
309,295,304,303,2
305,273,305,303,2
303,256,305,303,2
301,252,307,304,2
301,260,309,305,2
302,271,311,305,2
303,282,311,301,2
304,290,309,296,2
305,298,307,292,2
305,303,304,290,2
304,307,299,290,2
303,309,298,295,2
302,312,298,302,2
303,318,300,306,2
304,325,302,308,2
305,332,304,306,2
307,336,306,303,2
307,340,306,299,2
306,338,306,295,2
305,335,305,291,2
303,332,305,286,2
303,330,303,281,2
303,330,304,280,2
305,333,305,282,2
307,337,306,287,2
309,339,303,294,2
310,340,300,301,2
311,337,297,307,2
310,334,294,311,2
309,328,291,313,2
307,320,289,310,2
304,314,288,304,2
301,312,290,297,2
299,312,292,291,2
297,309,297,289,2
298,307,302,292,2
301,305,307,299,2
305,304,313,309,2
309,301,317,319,2
313,297,320,325,2
314,292,320,325,2
314,286,320,323,2
315,278,320,319,2
315,270,318,316,2
314,266,316,314,2
313,267,314,314,2
311,275,311,313,2
309,288,309,312,2
308,299,308,310,2
305,306,305,307,2
302,313,302,304,2
301,321,301,302,2
300,330,300,299,2
300,335,300,295,2
298,335,302,289,2
297,334,303,284,2
297,332,305,281,2
297,331,306,282,2
298,332,307,285,2
301,333,307,292,2
304,334,307,302,2
307,333,306,313,2
310,331,306,323,2
312,327,306,331,2
313,322,305,335,2
313,316,305,334,2
313,311,304,330,2
312,307,305,325,2
312,304,307,321,2
311,300,310,319,2
311,295,311,317,2
310,292,314,316,2
310,293,317,315,2
311,294,317,314,2
311,293,316,311,2
310,286,313,308,2
308,277,310,305,2
306,273,307,304,2
306,276,306,306,2
306,281,306,308,2
306,287,306,310,2
306,293,306,312,2
306,296,306,313,2
306,291,305,314,2
307,278,303,314,2
307,264,300,312,2
306,256,297,310,2
306,257,294,308,2
307,268,295,309,2
309,285,298,312,2
311,304,302,313,2
312,320,306,314,2
312,332,308,313,2
311,341,309,310,2
309,346,308,305,2
308,347,307,300,2
306,343,306,296,2
306,336,306,295,2
305,328,305,298,2
305,320,306,302,2
305,310,307,306,2
305,300,307,308,2
306,292,309,309,2
307,292,311,309,2
309,302,314,309,2
311,314,316,308,2
312,323,316,306,2
312,328,315,304,2
311,328,313,303,2
309,323,311,302,2
306,312,310,303,2
304,300,310,305,2
303,292,311,308,2
303,291,311,311,2
303,297,311,312,2
303,304,308,312,2
303,305,304,312,2
303,298,298,311,2
302,285,293,312,2
301,272,289,312,2
299,265,286,311,2
298,268,285,309,2
299,275,287,306,2
300,283,291,304,2
302,289,298,304,2
304,298,304,303,2
305,308,309,303,2
306,316,313,303,2
305,321,314,304,2
304,323,315,306,2
303,327,315,310,2
304,330,316,314,2
304,332,315,318,2
304,329,314,320,2
304,321,314,320,2
305,313,316,318,2
306,308,317,315,2
306,306,318,310,2
305,306,319,308,2
305,309,318,306,2
305,316,318,309,2
305,322,317,313,2
305,322,315,317,2
305,315,313,318,2
303,303,310,316,2
300,292,307,311,2
299,287,305,306,2
298,291,304,301,2
298,297,303,294,2
297,300,303,287,2
297,299,304,284,2
297,294,306,285,2
298,287,310,291,2
299,288,314,302,2
302,295,317,314,2
306,307,320,323,2
309,319,320,326,2
311,330,317,322,2
312,340,311,314,2
313,347,305,306,2
312,348,299,299,2
311,344,295,295,2
309,336,291,294,2
307,327,287,295,2
307,320,285,299,2
307,317,284,304,2
309,317,286,310,2
310,315,290,317,2
311,310,295,321,2
310,302,299,323,2
310,293,302,323,2
309,285,305,323,2
310,283,308,322,2
310,285,310,320,2
310,288,312,319,2
310,289,313,317,2
311,286,313,315,2
311,280,314,312,2
312,276,314,310,2
312,276,315,309,2
312,279,315,308,2
312,285,315,308,2
312,291,316,308,2
312,294,316,309,2
312,294,316,312,2
311,290,316,314,2
310,285,313,315,2
308,281,310,315,2
307,280,307,314,2
306,283,305,314,2
305,287,303,313,2
304,290,301,311,2
302,290,299,309,2
300,285,298,305,2
300,282,298,299,2
300,285,297,294,2
300,290,297,288,2
301,296,295,286,2
302,304,293,287,2
303,311,292,291,2
303,317,289,298,2
303,323,287,304,2
302,331,286,308,2
301,340,286,309,2
300,344,287,308,2
298,341,288,308,2
298,333,289,310,2
299,325,290,314,2
301,321,290,318,2
304,321,290,320,2
307,321,289,321,2
309,320,289,321,2
309,318,289,320,2
310,318,291,319,2
311,322,294,318,2
312,324,298,318,2
313,324,300,317,2
312,320,302,315,2
310,313,303,312,2
308,306,305,309,2
306,300,306,306,2
305,297,308,303,2
304,297,310,299,2
303,298,310,295,2
301,300,311,291,2
299,301,310,290,2
299,305,310,292,2
300,310,310,298,2
303,314,311,306,2
304,316,313,315,2
306,314,315,321,2
307,311,317,324,2
308,305,318,324,2
309,301,317,322,2
310,299,316,321,2
311,300,314,319,2
311,299,312,317,2
310,296,311,314,2
309,292,310,314,2
308,290,309,313,2
308,288,309,313,2
307,287,310,313,2
308,286,312,313,2
309,287,314,312,2
309,289,314,308,2
309,293,313,304,2
309,299,312,302,2
310,308,311,302,2
311,316,309,304,2
311,323,307,306,2
310,327,305,311,2
309,324,302,315,2
307,311,299,318,2
305,291,296,317,2
303,269,291,316,2
301,252,288,313,2
300,246,288,311,2
301,252,290,310,2
303,268,294,309,2
307,289,299,310,2
310,310,305,311,2
312,328,309,312,2
313,340,312,312,2
313,346,313,313,2
312,348,312,312,2
311,347,311,311,2
310,346,311,310,2
310,343,311,307,2
310,341,311,303,2
309,338,310,300,2
308,334,310,300,2
308,330,309,300,2
307,325,308,302,2
307,319,306,302,2
306,309,304,304,2
305,297,302,306,2
304,284,300,308,2
302,274,298,309,2
301,269,295,310,2
301,270,292,309,2
302,274,290,307,2
303,274,289,306,2
305,272,289,305,2
306,270,288,303,2
307,273,288,300,2
308,280,286,297,2
308,289,285,295,2
307,301,285,295,2
307,313,286,298,2
307,322,290,303,2
307,326,296,308,2
306,324,302,314,2
305,312,308,316,2
304,288,312,317,2
302,259,314,315,2
301,239,315,311,2
301,239,316,307,2
303,260,316,302,2
305,291,316,294,2
306,320,315,287,2
306,341,315,282,2
304,352,315,282,2
304,356,315,286,2
304,359,315,290,2
304,360,314,295,2
304,360,314,298,2
305,357,312,300,2
305,352,310,302,2
306,346,308,306,2
307,340,305,312,2
308,335,303,317,2
309,331,302,320,2
310,327,301,322,2
311,317,302,321,2
310,303,303,319,2
309,287,304,316,2
307,272,303,315,2
304,261,302,315,2
304,260,303,318,2
305,269,306,321,2
307,284,310,323,2
308,300,312,324,2
309,316,312,323,2
309,328,312,321,2
309,334,311,318,2
309,335,310,316,2
308,334,310,313,2
308,334,309,310,2
308,335,309,308,2
308,336,310,307,2
308,336,310,306,2
306,332,309,306,2
305,324,308,307,2
304,311,307,308,2
303,298,306,310,2
303,291,306,312,2
305,289,308,312,2
306,290,310,312,2
308,293,313,312,2
309,294,315,313,2
309,291,316,313,2
309,286,316,314,2
307,281,315,314,2
305,279,314,315,2
305,285,312,316,2
305,294,311,317,2
306,300,309,317,2
306,305,307,316,2
306,313,305,314,2
306,319,304,312,2
305,323,303,311,2
305,321,302,310,2
305,316,302,308,2
305,307,301,305,2
304,298,301,301,2
304,291,303,299,2
305,288,305,300,2
307,289,307,302,2
308,291,308,304,2
307,292,307,305,2
305,293,305,306,2
304,296,302,306,2
303,302,301,306,2
304,315,301,307,2
306,332,301,307,2
307,347,301,308,2
307,352,299,309,2
306,346,297,310,2
305,336,295,310,2
305,327,295,308,2
304,323,295,304,2
304,323,296,300,2
303,324,297,297,2
302,322,299,297,2
302,313,303,301,2
301,299,308,306,2
302,284,314,312,2
303,276,319,316,2
304,278,323,317,2
306,286,327,316,2
307,291,328,312,2
307,292,326,306,2
305,290,322,298,2
303,290,317,289,2
302,293,311,283,2
300,299,305,283,2
300,307,301,288,2
301,315,300,297,2
302,322,299,305,2
304,328,299,308,2
305,330,301,309,2
307,327,304,308,2
308,324,308,308,2
308,323,310,311,2
308,323,311,314,2
308,320,311,318,2
306,315,310,319,2
305,308,309,318,2
304,299,309,316,2
305,293,309,314,2
306,295,310,313,2
308,302,310,312,2
310,310,310,313,2
310,316,311,313,2
311,320,310,313,2
311,321,309,314,2
311,318,307,314,2
309,312,304,313,2
307,303,301,311,2
305,294,298,309,2
302,290,296,309,2
302,285,297,311,2
302,279,298,311,2
302,274,301,309,2
302,272,304,307,2
302,278,305,303,2
301,291,304,297,2
302,307,302,291,2
303,320,301,288,2
305,330,299,289,2
306,337,299,293,2
308,345,299,298,2
309,352,300,302,2
311,357,301,308,2
311,357,302,313,2
310,353,302,316,2
308,344,303,318,2
306,331,305,320,2
304,316,306,320,2
303,299,306,319,2
302,284,305,316,2
300,272,303,310,2
299,271,302,305,2
300,278,303,302,2
302,288,304,303,2
305,298,307,308,2
307,307,309,315,2
308,316,312,320,2
309,323,314,324,2
309,327,316,325,2
309,327,318,324,2
308,325,319,324,2
308,322,321,324,2
309,320,322,326,2
309,314,322,326,2
309,304,321,326,2
308,287,320,325,2
306,265,320,323,2
304,244,320,322,2
303,230,321,320,2
302,231,320,315,2
301,246,317,310,2
300,267,312,306,2
301,289,308,305,2
303,308,305,306,2
306,323,304,309,2
308,333,303,313,2
309,340,302,315,2
309,342,303,317,2
309,339,305,317,2
309,330,308,317,2
308,314,311,317,2
306,295,314,316,2
305,279,315,316,2
304,271,316,315,2
304,272,316,313,2
304,282,316,311,2
305,299,315,307,2
305,319,314,303,2
306,334,313,300,2
306,343,314,299,2
306,347,315,298,2
306,350,315,299,2
305,351,314,301,2
305,350,312,301,2
306,346,311,302,2
305,343,308,300,2
305,339,305,300,2
305,336,301,300,2
305,331,298,301,2
305,324,296,303,2
305,315,295,306,2
305,305,295,308,2
306,296,295,310,2
305,290,295,309,2
304,283,294,305,2
302,274,294,301,2
300,264,295,297,2
299,256,297,294,2
299,250,299,295,2
301,248,302,300,2
303,252,306,306,2
306,260,310,311,2
307,272,312,313,2
307,283,313,314,2
307,294,311,312,2
306,306,309,310,2
307,318,307,308,2
307,324,305,307,2
308,322,304,305,2
307,311,303,303,2
306,292,304,302,2
305,276,305,302,2
304,273,306,302,2
305,284,307,303,2
305,301,306,303,2
306,318,305,304,2
306,329,303,303,2
306,334,302,302,2
306,335,301,301,2
306,334,301,301,2
307,333,301,301,2
308,334,301,303,2
308,334,302,307,2
308,335,303,312,2
309,334,306,318,2
310,331,309,322,2
310,326,312,324,2
311,320,315,324,2
311,315,317,322,2
311,311,317,319,2
310,309,316,315,2
309,309,316,312,2
309,312,317,311,2
308,315,318,312,2
307,318,319,315,2
307,319,319,318,2
308,319,320,320,2
308,318,321,321,2
309,318,321,319,2
309,317,320,316,2
307,314,318,312,2
305,305,314,310,2
303,291,311,308,2
302,276,309,307,2
302,266,309,309,2
303,262,309,311,2
304,264,309,311,2
306,272,308,312,2
308,284,307,312,2
309,294,307,313,2
309,300,307,314,2
308,303,308,315,2
308,311,310,316,2
308,325,312,314,2
308,338,313,312,2
307,343,312,309,2
306,339,311,307,2
306,329,310,304,2
304,320,309,302,2
303,313,308,299,2
303,310,306,298,2
303,310,304,297,2
304,309,302,298,2
305,307,300,300,2
305,307,300,304,2
306,309,300,308,2
308,313,302,312,2
309,317,303,315,2
310,319,305,315,2
309,318,305,314,2
309,312,305,311,2
308,306,304,307,2
307,300,301,301,2
305,294,299,295,2
303,287,296,290,2
302,283,295,290,2
301,286,297,294,2
302,296,301,300,2
303,307,303,307,2
305,316,304,310,2
305,320,304,311,2
304,321,303,307,2
304,319,302,304,2
304,316,302,302,2
304,312,301,303,2
304,308,301,306,2
303,303,300,310,2
303,298,299,313,2
302,290,299,317,2
302,277,300,317,2
301,260,302,316,2
300,242,304,314,2
299,229,306,313,2
299,225,307,311,2
300,233,309,311,2
303,252,313,314,2
307,279,315,316,2
311,307,316,318,2
312,331,315,318,2
313,347,315,317,2
313,355,314,315,2
311,357,312,313,2
310,355,311,312,2
309,352,310,312,2
309,350,308,313,2
310,350,309,315,2
312,350,310,318,2
313,348,311,319,2
313,346,311,320,2
313,346,311,319,2
312,343,310,318,2
311,336,309,317,2
310,328,308,315,2
307,320,308,314,2
305,312,308,313,2
305,308,308,312,2
304,306,307,310,2
303,307,305,308,2
303,311,302,305,2
303,316,300,304,2
304,318,299,304,2
304,316,299,304,2
304,311,298,304,2
304,304,298,304,2
304,294,298,305,2
304,283,300,305,2
305,274,301,305,2
305,270,300,304,2
304,270,298,303,2
303,270,296,303,2
304,269,294,303,2
304,270,294,303,2
305,277,296,303,2
307,292,299,303,2
307,309,301,303,2
307,320,303,302,2
306,322,304,301,2
305,315,306,300,2
302,298,307,298,2
300,271,308,298,2
297,241,310,297,2
295,217,312,298,2
297,211,315,301,2
302,225,321,304,2
308,254,325,307,2
312,288,326,308,2
314,322,322,305,2
315,350,316,302,2
316,374,310,298,2
316,391,306,297,2
316,399,305,296,2
316,396,303,297,2
315,386,302,298,2
313,374,301,298,2
310,363,301,298,2
307,353,300,300,2
305,344,299,302,2
303,337,298,304,2
303,330,299,305,2
303,320,299,306,2
303,310,300,308,2
304,305,301,310,2
306,310,302,313,2
308,320,302,315,2
309,327,302,315,2
309,330,301,314,2
308,330,301,313,2
307,330,301,312,2
306,328,302,311,2
306,323,302,310,2
304,317,302,310,2
303,310,302,311,2
303,300,301,313,2
301,288,300,314,2
299,270,299,314,2
298,250,298,315,2
298,236,298,314,2
299,233,299,312,2
301,248,301,311,2
303,274,303,308,2
305,302,303,306,2
305,325,303,302,2
305,339,304,298,2
305,342,305,295,2
305,336,305,292,2
304,325,305,291,2
303,313,305,294,2
302,304,306,301,2
303,301,305,311,2
304,304,304,321,2
306,312,304,329,2
308,322,305,334,2
310,328,306,336,2
311,329,306,334,2
311,329,306,329,2
310,327,305,325,2
309,324,305,321,2
308,322,305,318,2
307,319,306,315,2
305,315,306,312,2
305,314,307,308,2
305,313,309,307,2
306,314,311,308,2
307,315,313,310,2
308,313,314,311,2
308,309,314,309,2
308,303,312,307,2
307,296,307,306,2
305,289,302,305,2
304,283,298,306,2
304,280,297,309,2
306,283,297,312,2
308,292,299,313,2
310,305,299,312,2
310,316,300,311,2
309,322,301,309,2
308,323,304,308,2
308,319,308,308,2
307,313,311,308,2
306,303,314,307,2
304,292,316,305,2
302,280,317,303,2
301,271,318,301,2
302,269,318,300,2
303,271,317,299,2
304,276,315,299,2
305,286,312,299,2
305,296,310,302,2
306,303,309,304,2
307,309,307,306,2
307,315,307,307,2
306,319,306,307,2
304,323,306,307,2
302,325,305,306,2
300,325,305,304,2
300,323,305,303,2
299,320,304,301,2
299,317,303,299,2
298,313,301,298,2
297,305,301,299,2
297,295,300,302,2
296,289,300,306,2
296,288,300,310,2
297,291,300,314,2
299,292,301,316,2
301,294,302,316,2
302,300,303,314,2
303,307,304,311,2
304,314,304,308,2
305,318,304,305,2
306,321,304,304,2
307,324,305,304,2
308,327,308,306,2
309,329,310,307,2
308,327,311,309,2
307,324,310,310,2
306,321,308,310,2
305,318,306,309,2
303,312,303,307,2
302,306,302,307,2
301,303,302,307,2
301,305,303,308,2
301,308,304,307,2
301,308,306,303,2
300,304,306,298,2
300,297,306,293,2
299,291,306,292,2
300,288,308,296,2
303,291,310,303,2
305,293,312,311,2
307,291,312,316,2
307,289,310,318,2
307,286,306,316,2
307,283,303,312,2
308,281,300,310,2
308,282,299,307,2
308,288,298,305,2
307,296,298,303,2
307,302,299,303,2
307,302,299,304,2
307,296,301,308,2
306,289,303,312,2
307,289,306,315,2
308,295,308,316,2
310,302,308,317,2
311,308,309,318,2
312,312,308,316,2
311,316,306,313,2
310,319,304,310,2
310,319,300,308,2
310,316,297,308,2
311,312,294,310,2
312,309,295,312,2
313,309,298,314,2
314,311,303,316,2
313,311,309,317,2
311,308,312,316,2
309,300,314,314,2
308,289,315,311,2
306,276,316,309,2
305,267,316,306,2
304,268,314,305,2
304,275,311,304,2
304,284,308,303,2
304,290,305,302,2
304,293,303,302,2
304,297,301,304,2
305,305,301,307,2
307,314,300,309,2
307,319,299,311,2
308,323,300,313,2
309,324,301,313,2
308,321,303,310,2
307,313,304,304,2
305,304,305,299,2
305,295,307,297,2
304,288,308,297,2
302,285,308,300,2
302,287,307,305,2
302,295,306,311,2
303,307,307,316,2
306,322,309,319,2
309,335,312,320,2
311,342,314,320,2
312,346,316,319,2
311,346,316,316,2
309,339,314,313,2
306,325,312,309,2
304,308,310,305,2
303,290,308,302,2
302,276,308,299,2
302,269,308,298,2
303,265,308,300,2
305,266,309,303,2
306,277,309,306,2
307,296,309,307,2
308,318,308,307,2
309,338,307,307,2
309,353,307,309,2
310,361,307,311,2
310,361,307,313,2
310,357,305,314,2
309,350,302,315,2
309,342,299,315,2
309,335,297,314,2
309,328,296,312,2
309,320,295,308,2
309,309,295,304,2
308,297,294,302,2
306,284,294,299,2
303,272,295,298,2
302,264,297,298,2
301,260,299,298,2
301,260,301,298,2
303,262,304,299,2
305,266,307,300,2
307,275,309,303,2
309,291,311,306,2
311,309,313,310,2
312,323,314,314,2
311,327,316,318,2
311,321,316,321,2
311,312,315,323,2
311,308,313,324,2
311,310,311,324,2
311,312,307,323,2
311,315,303,321,2
312,319,300,318,2
312,323,298,315,2
311,324,298,312,2
310,324,301,310,2
308,322,303,308,2
306,319,304,305,2
303,314,302,303,2
301,309,298,300,2
300,304,293,297,2
299,299,290,295,2
298,297,288,295,2
299,299,290,298,2
301,304,294,301,2
302,311,300,305,2
305,320,307,310,2
308,330,315,314,2
310,334,321,317,2
311,329,324,317,2
309,318,325,314,2
308,307,324,308,2
305,298,322,302,2
303,293,321,297,2
302,292,320,297,2
303,294,320,302,2
304,296,321,308,2
305,295,322,315,2
307,293,322,320,2
307,290,321,320,2
307,288,318,318,2
306,286,313,316,2
305,282,310,313,2
304,273,307,309,2
302,262,305,306,2
301,255,303,303,2
301,261,302,302,2
303,277,302,303,2
306,294,303,306,2
307,309,303,309,2
309,322,303,312,2
309,331,303,312,2
309,336,302,311,2
308,336,303,308,2
308,332,305,305,2
309,328,307,303,2
310,322,310,301,2
310,317,312,300,2
310,312,312,299,2
309,306,310,299,2
308,299,309,300,2
307,292,308,303,2
308,289,307,305,2
308,288,307,307,2
308,291,307,308,2
309,298,307,309,2
310,304,308,311,2
311,309,306,310,2
311,309,304,310,2
310,305,303,309,2
308,302,302,309,2
306,303,301,309,2
306,307,300,309,2
306,310,299,309,2
306,312,298,308,2
307,314,298,306,2
307,318,300,304,2
308,322,301,302,2
307,325,303,300,2
306,325,304,298,2
305,324,304,297,2
305,321,303,297,2
304,315,302,298,2
304,306,301,300,2
304,296,300,302,2
305,289,301,304,2
305,286,302,304,2
306,283,304,301,2
307,284,306,298,2
307,288,308,296,2
308,292,310,297,2
308,294,313,302,2
309,298,316,308,2
309,303,318,312,2
310,306,318,313,2
311,306,318,312,2
310,303,316,308,2
310,301,314,304,2
309,302,312,300,2
309,308,310,296,2
308,317,307,293,2
307,325,305,291,2
306,331,305,292,2
307,337,305,295,2
307,341,306,299,2
307,344,305,302,2
306,342,304,304,2
306,336,303,303,2
306,328,302,301,2
305,321,301,300,2
304,315,301,302,2
304,310,301,304,2
305,305,302,308,2
305,299,305,311,2
306,291,308,312,2
306,287,310,313,2
306,289,312,313,2
306,296,313,314,2
305,301,314,317,2
305,304,316,319,2
306,303,319,319,2
306,296,320,315,2
306,286,320,310,2
305,278,319,306,2
304,275,317,305,2
303,276,316,305,2
302,279,315,307,2
302,281,314,309,2
302,284,312,311,2
302,289,310,312,2
302,296,308,310,2
303,302,308,309,2
