308,346,297,310,2
308,360,294,307,2
308,369,291,304,2
308,373,290,302,2
308,368,290,302,2
307,355,292,303,2
307,336,295,305,2
306,313,297,307,2
305,293,299,308,2
305,279,300,310,2
305,274,301,311,2
306,277,302,310,2
309,282,303,309,2
310,288,303,307,2
309,301,302,305,2
309,317,301,304,2
309,333,299,303,2
308,346,298,304,2
308,354,298,305,2
308,355,298,306,2
307,352,298,305,2
305,344,298,303,2
304,333,298,302,2
304,321,298,300,2
303,304,299,300,2
301,278,300,301,2
299,249,302,304,2
297,224,306,308,2
298,216,310,309,2
300,231,312,307,2
303,263,312,303,2
306,298,312,298,2
307,326,311,292,2
306,343,310,288,2
305,347,309,289,2
305,340,309,297,2
307,328,309,308,2
308,314,309,320,2
309,300,310,328,2
310,290,311,332,2
310,289,313,333,2
311,297,315,329,2
310,313,315,323,2
309,331,314,316,2
306,343,311,308,2
303,342,308,300,2
298,325,305,291,2
294,293,303,282,2
291,257,302,277,2
291,232,302,277,2
293,223,302,285,2
297,234,304,300,2
301,255,306,317,2
305,275,309,329,2
307,292,312,336,2
309,302,314,339,2
311,305,316,340,2
311,309,315,340,2
311,315,314,337,2
310,320,312,333,2
308,320,310,328,2
305,314,310,324,2
303,303,312,321,2
302,284,313,319,2
302,262,315,318,2
304,252,316,319,2
307,264,317,321,2
311,288,317,323,2
313,316,315,323,2
313,340,311,319,2
312,361,308,314,2
311,378,305,309,2
312,391,305,306,2
314,397,305,306,2
316,394,305,308,2
317,380,305,311,2
317,357,305,316,2
316,328,305,321,2
313,301,305,325,2
310,280,306,326,2
307,271,308,326,2
306,279,308,325,2
306,299,306,321,2
307,318,303,318,2
307,331,300,316,2
307,335,297,314,2
306,331,298,313,2
304,314,299,311,2
301,286,300,309,2
297,253,300,305,2
296,232,300,303,2
297,228,301,301,2
300,241,302,300,2
302,256,302,298,2
303,266,301,294,2
303,276,301,285,2
303,289,301,272,2
302,304,300,259,2
302,318,297,250,2
301,330,295,246,2
302,339,293,250,2
302,344,290,261,2
301,348,287,278,2
299,353,286,295,2
298,354,285,311,2
298,355,287,321,2
300,357,288,328,2
302,355,290,328,2
303,344,293,322,2
303,323,296,314,2
301,291,299,310,2
300,255,303,309,2
299,224,307,310,2
298,209,311,315,2
299,219,314,321,2
302,244,317,329,2
307,268,321,335,2
312,283,322,339,2
315,299,323,339,2
317,322,322,334,2
318,350,321,326,2
319,372,320,317,2
319,384,318,312,2
317,386,315,309,2
315,379,312,309,2
313,373,309,313,2
312,368,307,317,2
310,362,305,321,2
308,353,304,323,2
305,340,303,323,2
303,325,302,320,2
301,308,303,316,2
300,289,304,311,2
300,276,305,307,2
301,275,307,303,2
303,282,306,302,2
303,287,303,302,2
302,286,300,306,2
302,282,299,310,2
302,280,299,316,2
303,285,300,321,2
305,293,304,323,2
307,297,308,323,2
307,289,310,320,2
304,266,309,316,2
301,240,308,312,2
298,218,307,308,2
298,216,308,307,2
302,235,310,310,2
306,262,313,313,2
310,284,313,315,2
312,296,313,316,2
314,300,312,314,2
314,304,310,309,2
313,310,307,301,2
312,317,304,293,2
309,320,302,287,2
306,314,299,284,2
303,302,297,286,2
302,293,296,290,2
302,287,295,296,2
301,284,295,300,2
301,288,296,303,2
302,301,297,304,2
303,319,297,304,2
304,335,298,302,2
304,343,300,300,2
304,346,301,297,2
304,344,302,297,2
304,338,303,300,2
303,330,303,306,2
304,319,304,312,2
305,311,305,317,2
308,316,309,321,2
313,326,312,325,2
315,327,313,327,2
315,312,311,327,2
313,288,309,326,2
312,270,309,325,2
312,262,310,324,2
313,263,310,322,2
312,269,309,320,2
309,275,307,317,2
306,276,306,315,2
303,273,305,314,2
301,278,302,312,2
301,296,299,312,2
304,318,297,312,2
308,338,295,310,2
311,353,295,308,2
313,363,295,305,2
315,369,296,302,2
316,368,297,299,2
315,357,298,298,2
314,342,301,298,2
313,324,303,299,2
312,300,303,301,2
310,283,302,302,2
307,279,301,302,2
304,283,300,301,2
302,286,301,299,2
302,281,303,296,2
300,271,304,294,2
300,268,305,294,2
301,276,307,296,2
303,296,308,299,2
305,321,307,300,2
307,341,306,300,2
310,352,305,300,2
312,351,305,302,2
313,339,305,305,2
313,321,307,308,2
313,307,308,311,2
311,302,310,312,2
308,304,310,311,2
305,305,309,309,2
302,303,307,306,2
299,302,306,303,2
296,302,305,299,2
295,301,303,293,2
293,300,303,286,2
294,299,302,280,2
295,298,301,275,2
299,295,298,275,2
302,284,296,280,2
304,266,295,289,2
305,247,296,300,2
305,231,299,311,2
307,228,303,320,2
311,241,306,325,2
314,268,309,326,2
316,297,309,324,2
317,322,309,318,2
317,340,308,308,2
315,350,309,296,2
314,348,310,287,2
313,329,312,281,2
311,295,315,283,2
310,256,317,292,2
308,226,318,304,2
308,223,318,317,2
310,253,317,329,2
312,296,315,338,2
314,336,312,343,2
315,362,310,344,2
313,373,308,341,2
312,371,308,336,2
310,360,308,331,2
309,346,307,325,2
308,332,307,321,2
308,322,306,319,2
308,313,304,318,2
308,304,304,316,2
310,302,305,315,2
311,306,306,314,2
310,311,307,312,2
308,312,305,310,2
304,306,303,306,2
301,301,302,304,2
299,302,299,300,2
298,314,298,296,2
299,331,297,293,2
301,344,298,293,2
304,350,300,296,2
306,350,304,300,2
307,344,307,306,2
306,335,308,310,2
303,326,311,311,2
303,321,312,308,2
304,318,313,302,2
304,310,312,297,2
305,299,312,296,2
306,295,312,297,2
305,300,310,299,2
305,307,308,304,2
303,305,307,310,2
303,293,308,316,2
302,277,308,320,2
300,266,307,321,2
299,259,305,319,2
298,264,304,316,2
299,281,304,312,2
300,304,304,308,2
301,324,305,306,2
301,338,305,305,2
301,345,305,307,2
299,343,303,309,2
297,324,302,312,2
295,292,302,314,2
293,258,303,316,2
293,238,306,317,2
296,245,311,319,2
300,269,314,318,2
303,299,316,314,2
306,327,316,309,2
308,347,315,303,2
308,357,313,299,2
308,357,311,297,2
307,348,309,295,2
306,336,309,293,2
305,324,309,290,2
305,317,309,289,2
306,321,309,290,2
307,329,308,292,2
307,336,307,295,2
307,338,306,299,2
306,337,306,303,2
306,330,307,309,2
305,319,308,313,2
304,304,307,316,2
304,289,305,318,2
304,275,303,319,2
304,265,302,319,2
305,259,302,318,2
307,259,302,319,2
308,261,302,319,2
308,260,304,318,2
305,253,305,314,2
302,246,306,310,2
300,248,309,307,2
301,261,311,304,2
303,291,311,302,2
306,323,310,298,2
306,344,308,296,2
306,354,305,298,2
306,358,303,305,2
307,357,302,314,2
308,355,302,323,2
309,352,302,330,2
308,348,302,331,2
305,338,302,329,2
303,325,302,323,2
302,313,303,318,2
303,307,303,312,2
305,307,302,305,2
308,306,302,300,2
310,304,302,298,2
311,303,303,301,2
312,307,304,309,2
314,317,307,317,2
315,328,307,323,2
315,330,307,324,2
314,323,307,322,2
312,310,306,318,2
310,297,306,313,2
308,288,307,313,2
307,286,308,315,2
307,289,310,318,2
308,289,311,320,2
307,282,311,319,2
306,272,309,317,2
304,264,306,315,2
303,261,303,316,2
304,263,302,317,2
304,263,301,319,2
304,259,300,319,2
303,257,299,319,2
303,260,300,318,2
303,267,302,317,2
304,286,306,316,2
306,316,310,313,2
306,342,309,307,2
305,360,305,297,2
302,368,301,285,2
299,369,296,276,2
297,366,294,270,2
296,359,292,268,2
296,352,292,271,2
299,346,293,278,2
302,343,295,289,2
306,339,297,303,2
310,334,301,317,2
313,331,305,327,2
316,331,310,333,2
319,333,314,336,2
321,331,317,337,2
321,328,319,338,2
320,322,319,339,2
318,308,318,339,2
316,290,317,339,2
315,273,316,337,2
314,264,314,335,2
316,264,313,332,2
317,273,311,329,2
317,287,308,326,2
316,301,305,322,2
313,315,303,318,2
311,327,301,314,2
309,332,300,310,2
306,328,301,305,2
303,313,303,300,2
299,293,305,294,2
297,278,307,289,2
296,273,309,286,2
298,274,312,287,2
302,285,315,290,2
307,301,317,293,2
311,317,318,296,2
313,331,320,296,2
313,339,321,297,2
312,341,322,298,2
310,338,320,302,2
308,334,317,308,2
306,331,313,314,2
304,329,309,318,2
303,327,304,319,2
302,323,301,319,2
303,317,302,319,2
304,309,304,318,2
305,299,305,317,2
304,284,304,313,2
303,269,304,308,2
303,260,304,303,2
304,262,304,298,2
304,275,306,295,2
304,290,308,294,2
304,303,310,295,2
304,314,311,298,2
303,323,311,302,2
302,328,309,305,2
301,329,307,307,2
301,326,307,308,2
301,319,307,309,2
302,311,307,310,2
302,306,307,312,2
304,303,306,314,2
305,300,305,316,2
306,301,304,319,2
308,306,306,321,2
310,313,308,322,2
311,314,310,321,2
310,306,311,320,2
310,294,310,319,2
309,288,310,317,2
311,300,311,315,2
313,321,313,312,2
315,337,314,308,2
315,348,316,303,2
313,352,317,299,2
312,351,317,298,2
311,345,316,297,2
310,333,314,298,2
306,318,310,298,2
303,309,307,298,2
300,306,304,298,2
299,306,303,300,2
300,307,303,304,2
302,308,304,309,2
303,308,305,314,2
304,303,305,318,2
305,294,307,319,2
305,283,308,318,2
304,276,309,316,2
304,280,312,314,2
306,283,313,314,2
306,282,313,313,2
305,284,311,312,2
305,296,306,310,2
305,315,302,309,2
305,331,297,308,2
304,343,294,308,2
304,349,291,308,2
304,353,290,309,2
305,352,291,309,2
306,344,293,308,2
306,326,295,305,2
306,303,298,301,2
306,279,301,298,2
306,262,304,298,2
307,259,307,299,2
307,261,311,301,2
308,264,315,307,2
310,266,319,312,2
310,270,321,315,2
310,282,322,314,2
310,299,320,309,2
309,316,316,300,2
307,331,312,292,2
305,344,309,288,2
304,348,307,290,2
302,340,305,297,2
300,324,304,304,2
297,305,304,308,2
296,293,304,310,2
296,288,306,310,2
297,283,307,306,2
298,276,309,302,2
301,274,311,299,2
304,280,314,300,2
308,292,316,305,2
312,305,317,310,2
313,320,315,315,2
314,336,311,316,2
315,351,306,313,2
315,363,302,307,2
314,370,297,300,2
312,370,293,295,2
308,364,291,294,2
305,352,291,298,2
303,336,294,306,2
302,317,297,315,2
303,304,300,321,2
305,300,303,325,2
308,306,304,325,2
309,316,305,321,2
310,321,306,318,2
310,322,307,316,2
308,318,307,313,2
306,312,307,310,2
304,308,306,310,2
304,301,305,310,2
304,293,305,309,2
305,289,304,309,2
306,290,305,307,2
307,294,307,305,2
308,293,309,304,2
308,283,309,306,2
308,265,310,308,2
307,246,311,313,2
307,237,311,318,2
307,238,311,322,2
307,243,310,323,2
306,253,311,324,2
307,267,311,322,2
308,285,311,317,2
309,308,310,310,2
310,334,308,303,2
312,356,306,299,2
315,371,304,297,2
317,379,302,296,2
318,379,299,298,2
318,373,298,302,2
317,363,298,306,2
316,351,299,310,2
314,336,301,311,2
311,318,303,310,2
308,301,305,307,2
304,289,306,304,2
301,281,307,301,2
298,272,307,300,2
295,261,306,301,2
294,254,307,305,2
294,261,308,309,2
296,280,309,313,2
298,301,310,315,2
300,318,310,316,2
302,326,310,316,2
303,323,310,313,2
304,307,309,309,2
304,280,308,305,2
303,247,307,305,2
303,223,307,308,2
305,213,308,313,2
308,216,309,317,2
311,236,310,320,2
313,266,311,320,2
316,301,310,319,2
316,332,310,318,2
316,356,309,317,2
315,372,309,316,2
314,379,310,314,2
313,380,310,312,2
311,375,312,311,2
310,368,311,310,2
309,363,310,309,2
307,357,307,308,2
306,350,305,307,2
305,339,304,307,2
305,325,305,308,2
306,307,307,310,2
307,287,310,311,2
307,269,312,311,2
306,264,315,309,2
306,275,317,308,2
308,292,318,305,2
311,307,317,300,2
312,313,315,294,2
314,312,313,290,2
314,304,312,289,2
312,297,311,291,2
311,299,313,296,2
309,308,313,302,2
307,320,314,306,2
305,333,314,307,2
305,345,313,306,2
305,354,312,304,2
305,361,310,303,2
305,365,307,304,2
307,364,305,306,2
307,354,304,307,2
307,336,302,307,2
305,314,301,307,2
303,291,299,306,2
302,271,297,306,2
300,256,296,308,2
300,244,297,309,2
299,231,299,310,2
297,230,301,310,2
297,241,303,309,2
298,259,302,305,2
298,278,299,299,2
298,298,295,291,2
298,316,292,285,2
300,331,291,282,2
301,340,292,283,2
304,343,293,290,2
305,342,296,297,2
306,337,297,303,2
305,333,299,304,2
304,326,300,300,2
304,314,302,296,2
304,295,303,293,2
303,272,306,293,2
303,255,308,295,2
303,250,309,299,2
303,258,310,303,2
303,276,310,307,2
304,299,311,311,2
306,320,312,318,2
308,333,313,325,2
310,340,314,330,2
311,344,314,333,2
311,347,314,334,2
310,351,313,333,2
310,353,312,332,2
308,349,311,332,2
307,335,311,331,2
306,317,311,329,2
304,297,311,326,2
303,282,311,323,2
303,276,310,320,2
303,277,310,317,2
305,278,311,314,2
306,278,311,311,2
306,279,309,307,2
306,289,307,305,2
308,303,305,306,2
310,315,304,308,2
311,318,304,311,2
311,309,306,315,2
311,289,310,319,2
308,263,314,322,2
306,241,314,324,2
305,235,314,324,2
307,249,314,324,2
310,275,313,322,2
313,301,310,319,2
313,321,306,314,2
312,335,303,310,2
310,344,300,308,2
310,348,298,307,2
311,346,299,307,2
312,344,301,307,2
313,342,303,306,2
313,339,304,303,2
311,329,306,299,2
307,314,307,294,2
303,293,307,290,2
300,274,306,287,2
298,266,305,286,2
298,267,305,288,2
300,272,304,291,2
302,289,304,296,2
305,316,303,302,2
308,345,303,311,2
311,365,304,319,2
313,374,305,325,2
314,374,305,327,2
315,365,304,326,2
315,351,302,324,2
315,331,302,323,2
315,309,301,322,2
313,288,300,320,2
312,277,300,318,2
311,277,300,316,2
310,285,300,314,2
310,292,300,312,2
309,293,300,310,2
308,290,301,306,2
307,292,302,300,2
307,304,305,294,2
308,325,309,290,2
308,342,311,289,2
308,347,312,292,2
306,338,311,298,2
303,322,310,304,2
301,313,309,309,2
300,316,308,312,2
300,321,307,312,2
300,323,305,309,2
300,323,303,305,2
302,325,303,301,2
305,327,303,298,2
308,327,305,295,2
309,322,305,294,2
311,313,305,297,2
311,302,304,304,2
312,291,302,313,2
312,283,300,319,2
312,284,299,323,2
311,297,298,322,2
309,315,297,318,2
308,324,296,314,2
307,320,297,307,2
306,305,298,298,2
304,285,299,288,2
303,269,300,280,2
302,263,302,277,2
303,265,305,280,2
304,273,308,288,2
304,280,311,300,2
304,281,313,313,2
304,277,315,322,2
305,270,317,330,2
307,269,319,335,2
309,275,321,336,2
311,287,321,334,2
312,307,321,331,2
312,331,320,328,2
312,352,319,327,2
311,368,318,325,2
311,377,316,324,2
310,378,315,321,2
309,369,314,320,2
308,351,312,318,2
305,327,309,315,2
302,301,307,313,2
299,281,306,310,2
298,277,305,308,2
298,287,306,306,2
301,299,307,305,2
304,308,308,303,2
305,312,308,301,2
306,312,307,299,2
306,308,307,299,2
306,300,306,301,2
305,287,306,305,2
304,270,306,310,2
304,253,306,316,2
304,238,306,319,2
304,232,306,319,2
305,247,306,317,2
307,275,304,314,2
308,305,304,312,2
310,334,304,311,2
312,359,304,310,2
312,377,303,309,2
312,382,302,308,2
312,375,302,307,2
312,361,303,306,2
311,342,304,305,2
310,325,304,303,2
308,314,303,302,2
307,310,302,301,2
307,309,302,301,2
306,311,302,303,2
306,315,303,306,2
306,318,304,310,2
305,315,306,313,2
305,304,307,316,2
305,287,308,316,2
303,270,309,316,2
302,263,310,315,2
301,266,311,313,2
300,278,310,310,2
300,293,307,308,2
301,306,305,306,2
302,316,303,305,2
303,323,301,303,2
305,326,300,301,2
306,327,299,297,2
307,323,297,292,2
308,319,295,287,2
307,316,294,284,2
307,315,293,283,2
307,315,293,285,2
307,315,294,290,2
308,310,297,298,2
308,298,301,304,2
308,282,305,308,2
306,269,308,309,2
306,269,311,310,2
306,276,312,312,2
305,280,310,313,2
302,275,306,314,2
300,264,304,315,2
298,255,302,315,2
297,252,304,316,2
299,252,306,317,2
301,253,307,317,2
304,255,308,315,2
307,260,309,311,2
310,273,308,303,2
312,292,305,293,2
313,312,303,284,2
312,329,301,275,2
310,342,300,270,2
308,351,301,270,2
307,357,304,274,2
306,358,307,280,2
305,355,309,288,2
304,348,310,296,2
301,342,310,301,2
299,341,311,302,2
298,343,312,298,2
298,347,312,295,2
298,352,312,295,2
298,355,312,300,2
300,357,311,307,2
302,357,311,314,2
303,353,312,320,2
305,344,314,324,2
306,331,315,323,2
308,319,315,321,2
308,307,314,319,2
309,296,313,317,2
309,285,312,316,2
309,281,311,315,2
309,287,312,314,2
308,301,312,315,2
308,315,313,315,2
307,325,313,316,2
307,327,313,318,2
306,322,314,320,2
304,314,315,321,2
302,305,315,321,2
301,295,313,321,2
301,283,311,320,2
301,270,308,317,2
301,261,304,313,2
302,261,302,309,2
305,271,300,305,2
307,284,300,300,2
309,290,299,296,2
311,289,300,293,2
313,286,302,293,2
313,288,304,293,2
312,295,307,292,2
310,299,307,290,2
306,300,307,290,2
304,297,306,293,2
302,299,304,298,2
302,311,304,306,2
303,326,303,315,2
305,336,304,322,2
308,339,304,327,2
309,337,305,328,2
310,330,306,326,2
311,321,307,323,2
311,312,308,321,2
312,304,308,319,2
311,297,308,316,2
309,288,306,313,2
307,278,304,311,2
306,263,303,309,2
304,244,302,307,2
302,225,301,304,2
301,216,301,302,2
300,224,302,300,2
303,248,305,301,2
305,276,307,304,2
307,302,308,307,2
309,326,310,310,2
310,346,312,312,2
311,359,313,314,2
312,365,314,313,2
312,364,313,312,2
313,360,312,311,2
312,355,312,310,2
312,349,313,309,2
311,337,313,309,2
310,321,313,309,2
309,303,313,307,2
307,291,311,304,2
306,291,309,301,2
306,301,306,296,2
305,316,303,292,2
304,328,300,287,2
301,332,297,281,2
299,332,294,279,2
297,332,292,280,2
296,331,291,286,2
296,328,292,296,2
297,324,295,308,2
300,316,298,318,2
304,307,301,324,2
306,297,303,327,2
307,291,304,326,2
307,291,305,322,2
306,294,306,316,2
305,293,307,309,2
303,285,306,302,2
303,269,307,295,2
302,249,308,286,2
302,232,309,277,2
301,223,309,270,2
300,228,309,269,2
301,245,311,274,2
302,269,312,285,2
304,291,312,299,2
306,308,312,313,2
310,320,311,324,2
313,329,309,330,2
316,337,308,331,2
318,342,306,330,2
318,343,305,329,2
316,345,304,326,2
313,349,302,321,2
310,351,301,316,2
307,351,299,311,2
305,349,298,306,2
303,344,298,303,2
303,339,299,301,2
303,334,301,301,2
303,331,304,303,2
304,330,308,305,2
306,330,311,309,2
307,324,313,313,2
307,310,313,316,2
305,290,312,318,2
302,269,311,318,2
300,259,309,317,2
299,254,307,316,2
299,255,305,314,2
300,265,304,313,2
302,279,305,312,2
303,290,306,310,2
304,292,306,307,2
304,285,307,306,2
305,276,308,305,2
306,273,310,307,2
308,280,312,308,2
309,293,313,307,2
310,308,312,307,2
311,320,311,306,2
311,326,309,305,2
311,330,307,303,2
310,330,305,300,2
309,326,301,297,2
307,319,297,295,2
305,313,294,294,2
304,312,292,297,2
304,313,292,301,2
304,311,292,307,2
304,308,294,311,2
304,304,297,314,2
305,301,300,315,2
306,299,304,314,2
307,292,307,313,2
308,280,309,314,2
307,268,310,315,2
306,262,310,316,2
306,268,308,316,2
307,279,306,315,2
308,290,305,311,2
307,302,305,307,2
306,312,305,303,2
305,321,305,301,2
304,327,305,300,2
304,329,305,301,2
304,330,305,303,2
307,332,305,306,2
309,336,306,310,2
311,341,307,313,2
311,343,310,315,2
312,342,311,315,2
312,337,314,312,2
311,328,314,309,2
310,315,313,305,2
309,295,311,303,2
308,275,309,303,2
307,262,308,305,2
308,259,307,308,2
308,263,308,311,2
308,272,308,311,2
307,283,307,311,2
307,296,307,311,2
308,308,308,312,2
309,316,309,313,2
309,319,309,313,2
308,318,309,313,2
308,318,310,313,2
308,319,311,314,2
309,325,312,315,2
309,332,313,314,2
309,338,314,313,2
309,344,313,309,2
308,348,312,305,2
308,349,311,302,2
309,343,309,299,2
308,331,307,295,2
307,315,303,294,2
307,298,300,293,2
307,285,298,295,2
307,272,297,296,2
307,260,297,297,2
306,251,298,297,2
304,247,300,297,2
300,248,301,296,2
296,255,300,294,2
293,267,300,292,2
293,281,299,291,2
296,293,299,292,2
299,299,299,296,2
300,298,299,302,2
300,293,299,311,2
300,286,299,319,2
302,284,300,326,2
306,287,303,329,2
308,290,305,328,2
311,296,307,324,2
312,302,308,320,2
314,305,308,316,2
314,304,305,312,2
314,306,302,311,2
314,319,299,311,2
315,337,299,311,2
316,353,298,312,2
315,362,297,311,2
313,367,297,309,2
311,371,296,306,2
310,376,296,303,2
308,376,297,299,2
305,371,299,294,2
302,363,301,290,2
300,354,304,287,2
299,343,307,288,2
300,332,310,293,2
301,318,311,301,2
302,297,313,309,2
301,268,313,317,2
299,236,313,321,2
298,213,313,321,2
298,209,313,316,2
300,227,313,309,2
302,254,311,301,2
303,278,308,294,2
303,294,304,291,2
302,304,302,292,2
302,316,300,296,2
303,333,299,299,2
304,348,299,301,2
304,355,300,303,2
305,357,303,306,2
305,358,308,310,2
306,360,311,315,2
305,361,314,319,2
306,359,315,321,2
307,355,314,319,2
306,347,312,314,2
305,338,310,308,2
303,330,309,302,2
302,324,309,298,2
300,322,310,294,2
301,322,309,294,2
302,316,309,297,2
303,302,308,302,2
304,286,307,310,2
304,271,307,317,2
304,264,308,323,2
306,269,310,325,2
308,274,311,323,2
309,268,311,319,2
308,252,311,313,2
305,234,310,308,2
302,225,311,304,2
302,238,312,304,2
304,262,312,304,2
307,285,311,304,2
308,307,308,303,2
308,327,305,302,2
309,343,304,300,2
309,352,305,299,2
310,355,305,300,2
310,353,305,299,2
309,351,305,297,2
309,351,305,296,2
309,353,306,295,2
309,356,307,292,2
309,361,307,289,2
308,364,308,288,2
307,361,308,291,2
307,352,309,295,2
305,340,309,297,2
304,328,310,299,2
302,316,312,302,2
302,305,314,307,2
301,291,315,315,2
301,272,315,324,2
301,253,314,332,2
302,238,312,338,2
305,229,312,342,2
308,233,313,342,2
311,250,313,338,2
313,274,311,332,2
314,298,307,326,2
312,314,303,321,2
309,318,300,317,2
304,314,297,313,2
299,304,294,309,2
295,293,290,303,2
292,290,289,299,2
292,296,291,297,2
295,305,294,296,2
298,311,296,297,2
302,316,297,298,2
304,317,298,300,2
306,308,299,303,2
307,289,300,309,2
306,266,303,315,2
306,250,308,321,2
307,250,314,325,2
309,264,318,326,2
311,282,320,324,2
311,299,319,320,2
310,310,317,316,2
310,315,315,313,2
309,315,314,310,2
308,317,311,308,2
306,323,311,306,2
306,329,310,304,2
306,332,310,301,2
305,330,307,297,2
304,328,304,293,2
303,329,301,291,2
303,333,300,291,2
305,336,300,292,2
306,338,302,293,2
306,336,304,295,2
306,328,305,298,2
305,317,306,300,2
304,301,307,304,2
304,281,310,309,2
305,259,313,313,2
305,244,315,315,2
305,243,315,315,2
305,259,313,316,2
306,281,311,316,2
309,301,311,318,2
311,313,311,320,2
311,317,311,321,2
309,318,311,323,2
308,313,312,325,2
308,302,313,327,2
307,290,314,327,2
306,285,314,323,2
306,294,312,317,2
305,311,309,310,2
305,328,307,306,2
306,335,307,304,2
306,334,307,302,2
305,329,306,301,2
303,326,305,301,2
302,332,304,302,2
302,344,304,303,2
302,352,304,304,2
303,355,304,305,2
303,352,304,307,2
304,348,304,308,2
305,346,305,310,2
304,343,305,312,2
302,337,305,313,2
301,327,306,313,2
299,314,306,313,2
298,303,306,314,2
299,301,307,314,2
301,303,309,314,2
302,306,310,313,2
303,304,312,313,2
304,297,314,312,2
304,289,315,311,2
304,284,316,310,2
304,289,318,309,2
305,303,321,308,2
306,320,322,305,2
304,333,319,298,2
300,338,314,290,2
296,334,309,283,2
294,322,305,279,2
294,310,302,280,2
295,304,301,287,2
298,306,302,298,2
302,313,305,309,2
306,320,306,315,2
310,326,307,316,2
313,333,307,316,2
315,340,306,315,2
316,347,307,316,2
316,349,308,319,2
316,343,310,322,2
314,331,310,325,2
311,319,312,326,2
309,308,313,326,2
307,298,315,325,2
304,285,315,324,2
300,272,314,321,2
297,264,313,318,2
296,262,313,316,2
297,269,312,315,2
298,282,310,312,2
298,296,308,308,2
299,305,306,303,2
298,313,305,299,2
298,325,306,294,2
300,337,306,292,2
301,346,305,292,2
301,349,304,293,2
300,346,303,295,2
300,339,302,297,2
300,331,301,297,2
299,319,300,298,2
298,304,301,299,2
298,292,302,301,2
299,286,305,304,2
300,289,308,305,2
301,297,308,303,2
300,304,305,296,2
297,306,301,289,2
296,305,298,283,2
295,299,297,281,2
295,291,296,281,2
294,282,297,283,2
294,271,297,289,2
293,263,297,297,2
294,261,299,309,2
297,268,301,324,2
300,278,303,337,2
303,285,305,347,2
306,286,308,350,2
308,284,308,347,2
307,283,308,339,2
305,285,307,329,2
304,292,306,319,2
303,300,304,310,2
302,307,303,302,2
301,313,302,297,2
300,321,301,295,2
300,331,300,297,2
301,342,300,303,2
303,349,301,311,2
305,351,302,318,2
307,350,303,323,2
308,347,305,324,2
310,344,306,323,2
312,340,307,320,2
313,336,307,317,2
313,330,306,315,2
312,317,306,314,2
311,300,306,313,2
309,279,307,314,2
307,258,308,315,2
305,247,311,316,2
305,248,314,318,2
306,257,318,321,2
308,268,322,324,2
311,280,323,323,2
312,295,321,321,2
313,311,317,318,2
312,327,313,314,2
311,339,308,309,2
309,347,305,304,2
308,350,302,300,2
306,352,302,298,2
306,354,302,297,2
306,354,303,296,2
305,349,304,295,2
306,338,305,293,2
306,324,306,291,2
305,309,306,291,2
304,301,305,294,2
304,302,306,300,2
305,307,306,307,2
307,315,308,314,2
309,322,310,318,2
311,328,312,319,2
313,331,312,319,2
313,331,312,316,2
313,328,309,313,2
310,322,307,311,2
307,313,303,310,2
304,305,300,311,2
301,298,298,312,2
299,294,296,312,2
298,291,294,311,2
297,288,293,309,2
297,286,293,307,2
298,285,296,304,2
299,285,299,301,2
301,286,303,299,2
302,282,304,297,2
302,272,305,297,2
302,258,305,297,2
300,244,303,294,2
297,236,300,289,2
293,238,299,279,2
290,248,297,266,2
288,262,297,253,2
287,278,297,246,2
287,292,298,249,2
289,299,299,265,2
293,299,302,291,2
297,293,304,317,2
301,290,307,332,2
304,291,310,333,2
306,293,310,324,2
307,295,310,314,2
306,294,310,313,2
307,294,311,319,2
308,302,313,331,2
312,318,314,342,2
314,335,313,348,2
315,349,312,349,2
315,356,310,346,2
315,359,309,343,2
313,359,309,340,2
311,357,309,338,2
310,351,309,336,2
308,339,309,335,2
307,325,309,333,2
305,312,308,329,2
303,305,307,326,2
301,303,308,322,2
299,304,308,321,2
297,305,308,320,2
296,303,309,321,2
297,297,308,321,2
298,286,306,319,2
299,275,304,315,2
299,263,301,310,2
299,254,299,306,2
299,248,299,305,2
299,246,300,306,2
300,248,301,308,2
300,255,302,311,2
301,268,303,313,2
302,289,305,314,2
305,309,307,314,2
306,323,306,314,2
306,327,305,313,2
304,316,303,311,2
302,295,301,307,2
300,271,300,298,2
298,254,300,289,2
300,254,301,284,2
302,268,303,284,2
304,289,303,288,2
305,305,304,297,2
306,311,305,309,2
308,309,308,322,2
310,303,311,332,2
311,299,312,335,2
311,304,312,334,2
312,317,311,329,2
313,332,309,324,2
314,344,309,319,2
315,354,309,313,2
317,365,310,308,2
318,372,312,304,2
318,374,313,300,2
317,373,315,299,2
317,366,315,298,2
315,351,315,298,2
312,328,313,298,2
307,302,311,296,2
303,284,308,294,2
300,276,306,291,2
299,276,303,288,2
299,277,302,285,2
300,280,301,284,2
301,283,302,288,2
303,287,303,293,2
306,292,304,299,2
310,296,306,303,2
314,300,309,302,2
319,308,310,298,2
321,320,310,293,2
320,330,306,292,2
317,336,301,294,2
313,338,298,300,2
310,335,297,307,2
307,327,298,315,2
304,317,300,321,2
302,307,303,326,2
302,299,305,330,2
302,300,307,331,2
303,307,309,332,2
305,311,310,333,2
308,312,310,332,2
310,312,311,331,2
312,312,312,328,2
313,312,312,324,2
312,312,312,319,2
311,309,311,315,2
309,304,310,311,2
307,300,307,308,2
305,300,306,304,2
305,302,305,303,2
306,301,305,301,2
306,293,306,300,2
306,283,309,298,2
305,277,311,298,2
304,278,311,299,2
302,280,310,302,2
300,276,309,306,2
299,264,309,309,2
298,251,309,312,2
299,248,310,312,2
301,256,311,312,2
302,272,311,312,2
304,289,311,311,2
305,304,311,310,2
307,317,309,309,2
308,328,307,308,2
309,334,304,307,2
309,333,302,306,2
308,327,301,304,2
306,319,302,303,2
305,315,303,302,2
303,317,304,299,2
302,325,304,297,2
302,334,303,297,2
304,341,302,301,2
307,344,302,306,2
311,344,300,310,2
311,340,299,310,2
310,332,297,307,2
307,320,295,301,2
304,309,293,296,2
303,303,293,295,2
304,301,295,299,2
306,301,298,307,2
308,303,300,316,2
309,307,302,322,2
310,311,303,326,2
311,311,305,327,2
310,304,306,325,2
309,289,308,321,2
306,265,308,315,2
302,242,308,310,2
299,225,307,305,2
297,215,307,303,2
296,217,308,302,2
296,230,308,301,2
296,245,309,299,2
296,259,308,296,2
296,280,309,292,2
297,308,310,286,2
299,333,309,280,2
299,354,307,275,2
300,370,305,272,2
302,380,304,275,2
304,382,303,284,2
307,376,302,296,2
309,362,301,311,2
311,346,299,325,2
313,330,298,336,2
314,314,299,342,2
316,299,302,344,2
318,294,305,343,2
318,301,307,338,2
317,312,307,331,2
314,323,305,325,2
310,331,304,319,2
307,331,303,315,2
304,326,304,313,2
302,316,305,312,2
301,308,306,312,2
301,308,307,311,2
303,313,308,311,2
307,314,309,310,2
311,305,309,310,2
313,290,309,311,2
314,273,308,312,2
314,259,308,312,2
312,248,308,311,2
311,244,308,310,2
310,254,309,309,2
309,273,310,305,2
308,293,308,299,2
306,309,307,290,2
305,322,306,281,2
303,332,305,273,2
302,337,305,267,2
301,337,305,266,2
300,333,307,269,2
299,327,309,274,2
300,321,311,279,2
300,319,313,284,2
300,320,312,288,2
300,321,310,293,2
301,322,305,297,2
302,315,303,299,2
301,301,301,301,2
299,287,300,300,2
297,281,300,301,2
296,291,302,303,2
299,311,304,305,2
301,328,306,307,2
302,338,307,308,2
301,341,308,310,2
301,341,308,314,2
301,342,308,320,2
302,347,307,326,2
304,354,307,332,2
306,360,307,336,2
307,360,308,338,2
308,357,309,337,2
308,349,310,336,2
308,336,311,334,2
307,318,311,332,2
305,297,309,327,2
303,276,307,319,2
301,259,304,310,2
300,246,302,301,2
298,234,300,295,2
297,222,299,294,2
296,215,299,297,2
296,221,298,302,2
296,234,298,308,2
296,249,300,315,2
299,260,305,321,2
301,266,309,324,2
301,270,310,324,2
300,273,309,321,2
299,280,307,317,2
300,290,307,315,2
301,304,308,313,2
304,318,311,312,2
306,329,312,311,2
308,335,312,310,2
309,337,310,308,2
309,337,308,306,2
309,337,305,305,2
309,337,304,304,2
307,331,303,303,2
305,316,303,302,2
301,294,304,301,2
298,271,305,300,2
297,260,307,300,2
297,269,310,298,2
298,289,312,294,2
298,314,312,288,2
299,340,312,284,2
301,362,311,284,2
304,377,310,289,2
307,383,308,298,2
309,378,305,308,2
309,365,303,317,2
308,352,302,321,2
307,340,303,321,2
306,333,304,319,2
306,332,306,315,2
307,331,308,314,2
307,327,310,313,2
308,319,312,313,2
307,307,313,313,2
306,295,313,312,2
304,285,312,311,2
303,280,311,310,2
302,278,310,309,2
301,277,310,309,2
302,279,309,310,2
304,286,308,312,2
305,295,307,311,2
306,302,306,310,2
305,307,304,307,2
303,308,302,304,2
301,311,301,300,2
300,313,300,298,2
300,313,300,297,2
300,310,299,295,2
301,304,297,293,2
302,298,295,291,2
304,297,293,288,2
306,302,291,285,2
307,308,289,280,2
307,313,288,275,2
308,314,288,271,2
310,313,290,272,2
312,310,293,277,2
315,308,297,286,2
316,309,300,297,2
316,310,303,306,2
313,306,304,313,2
308,300,303,317,2
304,292,304,320,2
300,286,305,324,2
298,286,306,327,2
296,287,306,326,2
296,288,305,323,2
296,291,304,319,2
298,299,304,314,2
300,308,306,311,2
301,316,308,308,2
301,319,308,306,2
300,319,309,305,2
298,320,309,306,2
297,321,308,305,2
296,319,307,303,2
296,313,306,299,2
296,303,305,295,2
296,288,304,293,2
298,274,304,292,2
300,266,303,293,2
302,269,302,296,2
303,281,303,300,2
305,299,304,305,2
308,316,306,311,2
311,330,309,315,2
313,333,310,317,2
311,324,308,315,2
307,309,306,309,2
303,292,304,301,2
302,279,302,292,2
302,276,301,286,2
304,281,299,285,2
305,287,298,289,2
307,291,298,297,2
308,293,296,307,2
310,295,294,316,2
312,305,294,324,2
316,321,295,331,2
319,337,297,335,2
320,350,299,335,2
320,356,301,334,2
319,357,304,331,2
318,351,305,327,2
317,343,305,324,2
315,332,305,321,2
312,318,305,318,2
308,299,305,314,2
305,277,304,312,2
303,258,305,310,2
302,246,308,309,2
303,242,311,307,2
304,248,314,306,2
306,264,315,304,2
309,282,314,303,2
310,298,313,302,2
310,312,310,302,2
309,324,308,301,2
308,332,306,299,2
306,333,303,298,2
305,328,300,297,2
304,318,298,298,2
303,308,295,299,2
303,301,294,300,2
304,301,294,298,2
306,306,294,296,2
307,310,294,293,2
308,313,294,288,2
308,314,295,284,2
308,319,297,284,2
308,327,300,288,2
310,333,303,298,2
310,337,305,307,2
311,339,306,316,2
310,339,306,320,2
308,337,306,322,2
307,332,306,321,2
305,318,307,319,2
305,295,308,318,2
305,270,308,317,2
305,254,309,316,2
305,253,311,316,2
306,266,311,317,2
305,284,311,317,2
303,296,309,317,2
302,301,306,318,2
302,299,305,318,2
302,295,305,316,2
303,291,305,314,2
306,288,306,313,2
310,288,307,311,2
314,293,308,309,2
316,308,310,309,2
319,326,310,309,2
320,337,310,310,2
317,339,308,309,2
313,336,306,308,2
310,334,303,306,2
307,335,301,302,2
305,336,301,296,2
305,338,301,288,2
305,340,303,281,2
306,340,305,277,2
307,340,306,279,2
307,338,306,286,2
309,336,307,298,2
310,335,308,310,2
311,335,310,318,2
312,339,312,320,2
314,342,315,320,2
315,342,317,318,2
314,336,316,315,2
313,326,314,312,2
312,315,311,309,2
312,307,310,308,2
312,304,308,305,2
312,303,306,302,2
311,301,304,300,2
311,298,302,299,2
313,294,301,299,2
314,287,300,302,2
313,279,300,306,2
312,274,300,309,2
311,277,300,312,2
308,282,299,311,2
305,284,299,308,2
303,286,299,304,2
302,288,298,298,2
300,290,299,292,2
300,294,299,288,2
300,297,299,287,2
301,299,299,291,2
301,300,298,297,2
300,298,296,302,2
299,292,294,303,2
296,283,294,302,2
294,275,294,299,2
292,271,295,296,2
292,277,295,293,2
294,288,295,292,2
296,297,294,296,2
298,298,294,302,2
300,294,295,311,2
303,293,299,319,2
306,294,303,323,2
309,297,306,322,2
310,301,308,318,2
311,303,310,315,2
313,306,311,316,2
315,313,312,320,2
317,323,312,323,2
318,334,311,325,2
319,344,310,324,2
319,349,311,323,2
319,347,313,322,2
317,338,314,322,2
314,327,314,324,2
313,318,314,326,2
311,310,314,327,2
310,304,313,327,2
310,301,311,324,2
310,298,308,321,2
309,297,304,317,2
308,298,300,312,2
307,302,298,308,2
306,311,297,305,2
306,326,297,304,2
307,341,298,305,2
308,352,300,306,2
309,359,302,307,2
310,363,304,309,2
311,361,307,310,2
311,355,310,311,2
311,346,311,310,2
310,335,311,309,2
309,324,307,308,2
307,314,304,307,2
306,306,302,305,2
303,296,299,303,2
301,284,298,300,2
299,272,298,300,2
300,263,298,301,2
300,261,299,303,2
301,265,300,305,2
302,270,301,308,2
303,269,303,311,2
303,263,306,313,2
304,255,310,312,2
303,244,312,308,2
300,240,311,301,2
298,244,310,292,2
296,252,308,282,2
296,261,309,275,2
296,273,310,269,2
296,290,309,265,2
296,310,309,267,2
299,328,308,275,2
303,339,308,286,2
306,344,308,297,2
309,345,306,305,2
311,344,305,309,2
312,345,305,310,2
311,346,305,305,2
309,342,304,299,2
306,338,303,292,2
304,335,303,288,2
304,331,303,289,2
306,328,305,296,2
309,326,307,309,2
312,327,309,324,2
315,329,310,337,2
315,330,311,343,2
314,330,311,343,2
312,330,311,337,2
310,329,311,330,2
309,328,310,324,2
308,326,311,320,2
307,323,311,319,2
306,316,311,321,2
306,306,311,323,2
305,299,311,324,2
305,294,311,324,2
304,292,311,323,2
305,289,312,323,2
306,290,313,322,2
308,294,314,321,2
309,303,316,318,2
312,314,317,316,2
313,324,318,313,2
313,331,317,311,2
312,335,315,308,2
310,333,313,306,2
308,323,311,306,2
306,305,310,306,2
304,286,310,306,2
305,274,309,306,2
306,276,308,305,2
307,288,307,304,2
308,300,305,302,2
307,309,304,301,2
304,313,303,301,2
301,312,303,303,2
299,311,304,306,2
298,309,304,309,2
299,308,305,312,2
300,308,306,312,2
302,309,305,310,2
303,310,303,307,2
304,312,301,305,2
304,314,301,305,2
304,313,301,305,2
303,307,303,307,2
303,294,305,310,2
302,279,306,312,2
299,264,306,314,2
295,249,307,315,2
291,241,308,316,2
290,243,310,317,2
292,256,313,317,2
296,274,315,316,2
299,294,314,312,2
301,314,311,305,2
302,332,307,300,2
302,348,305,296,2
303,356,305,294,2
304,357,305,291,2
304,351,305,287,2
304,340,306,283,2
304,330,307,283,2
305,323,307,287,2
306,318,308,295,2
307,315,308,305,2
307,313,308,312,2
307,310,308,315,2
308,305,308,314,2
309,301,309,313,2
310,302,310,312,2
311,306,310,312,2
310,314,311,312,2
310,321,311,312,2
308,327,311,311,2
307,328,311,310,2
304,327,309,309,2
302,323,308,308,2
300,316,307,307,2
299,307,306,305,2
300,299,305,304,2
300,293,305,303,2
301,286,304,301,2
301,278,303,298,2
301,274,300,294,2
300,279,298,287,2
299,293,298,279,2
300,312,298,268,2
300,325,299,259,2
300,332,300,254,2
301,332,302,255,2
303,324,304,262,2
304,310,306,275,2
305,293,307,293,2
307,282,307,310,2
308,284,308,324,2
309,296,308,333,2
309,311,309,335,2
308,325,310,333,2
307,336,310,327,2
307,345,309,320,2
308,354,308,313,2
310,358,307,309,2
312,353,306,308,2
313,342,307,310,2
313,326,309,315,2
313,313,311,321,2
313,306,313,325,2
313,302,315,327,2
312,301,315,326,2
311,302,316,325,2
310,307,316,324,2
308,314,315,322,2
305,320,313,321,2
304,322,311,319,2
303,319,310,317,2
303,310,309,314,2
303,297,309,311,2
303,278,308,308,2
303,261,307,306,2
304,250,307,307,2
304,248,306,306,2
305,257,304,307,2
307,276,303,307,2
309,296,303,306,2
311,315,304,304,2
313,330,304,301,2
315,339,303,300,2
314,339,301,299,2
311,334,298,298,2
307,322,297,299,2
303,308,298,300,2
301,293,301,304,2
300,285,304,308,2
303,288,308,314,2
307,301,310,319,2
310,319,310,320,2
311,334,310,319,2
310,341,308,316,2
307,342,307,313,2
305,341,306,313,2
305,338,305,314,2
307,337,305,316,2
309,336,306,317,2
309,334,306,315,2
309,332,307,310,2
309,326,307,305,2
309,322,306,301,2
308,318,305,296,2
306,311,303,291,2
303,302,301,287,2
301,286,300,287,2
298,271,299,290,2
297,255,299,298,2
295,240,301,308,2
296,231,301,319,2
297,233,302,326,2
298,245,303,327,2
300,265,305,325,2
303,291,307,321,2
306,315,309,318,2
309,335,309,315,2
311,347,309,312,2
312,353,308,309,2
313,352,308,307,2
313,347,307,306,2
313,340,306,305,2
312,331,306,304,2
311,322,306,304,2
311,318,306,304,2
309,319,306,303,2
308,322,305,304,2
307,324,305,304,2
307,325,305,304,2
307,326,305,304,2
308,329,304,303,2
308,332,305,303,2
309,332,306,302,2
309,326,306,299,2
308,314,306,294,2
305,295,305,288,2
302,274,303,281,2
299,253,302,276,2
297,237,303,276,2
297,228,306,279,2
298,231,309,282,2
300,245,310,282,2
303,262,311,279,2
304,278,312,278,2
306,290,311,280,2
307,304,310,287,2
308,319,309,296,2
309,328,309,308,2
310,328,310,321,2
311,320,309,333,2
311,306,308,341,2
310,295,307,346,2
309,291,306,348,2
309,297,306,346,2
311,313,306,342,2
312,330,305,336,2
314,339,303,331,2
314,345,301,326,2
314,347,301,322,2
315,348,301,320,2
315,349,303,318,2
314,350,306,316,2
314,348,309,315,2
313,342,311,314,2
311,334,313,314,2
310,324,314,313,2
308,318,315,313,2
308,315,315,311,2
307,316,315,310,2
306,317,315,309,2
306,317,315,310,2
306,317,314,311,2
306,317,313,312,2
307,318,312,311,2
306,320,311,310,2
305,317,310,309,2
304,309,309,307,2
302,298,307,305,2
300,289,305,302,2
299,283,303,300,2
298,280,301,297,2
297,279,300,293,2
297,278,300,286,2
298,277,300,280,2
300,275,302,277,2
303,272,304,282,2
306,270,305,293,2
309,270,307,306,2
313,268,309,319,2
316,264,312,329,2
319,263,315,333,2
319,269,315,332,2
317,282,313,327,2
313,299,310,321,2
307,318,306,314,2
302,335,302,308,2
299,347,300,304,2
299,354,299,303,2
301,357,298,302,2
303,358,298,298,2
304,359,298,295,2
306,358,297,293,2
306,352,297,292,2
306,341,297,293,2
306,327,297,297,2
305,316,297,301,2
303,314,297,304,2
303,318,296,306,2
302,324,296,308,2
303,329,296,309,2
304,331,297,309,2
304,330,297,310,2
304,325,298,310,2
304,318,299,311,2
304,310,301,311,2
304,302,303,311,2
305,298,304,310,2
305,295,306,309,2
305,290,307,309,2
305,284,306,307,2
304,281,305,306,2
304,279,303,305,2
302,278,302,304,2
303,277,302,304,2
305,274,303,303,2
308,274,305,301,2
309,280,304,297,2
309,292,302,291,2
306,303,301,287,2
303,309,300,286,2
300,310,300,288,2
298,306,299,291,2
296,299,299,292,2
293,290,299,292,2
292,280,299,290,2
290,270,299,287,2
289,263,300,283,2
289,260,302,280,2
291,265,304,279,2
293,272,304,278,2
297,283,303,281,2
300,296,303,286,2
303,308,303,290,2
304,312,303,291,2
303,303,302,290,2
302,290,301,290,2
302,285,301,294,2
304,289,303,302,2
306,301,306,313,2
309,312,311,321,2
312,320,316,326,2
314,328,318,327,2
314,333,318,324,2
313,335,317,319,2
312,334,316,316,2
309,327,315,315,2
307,313,314,316,2
304,294,314,317,2
302,274,314,316,2
302,263,315,314,2
306,267,317,311,2
311,286,319,306,2
315,311,320,302,2
317,333,320,303,2
317,349,320,308,2
318,361,320,317,2
317,369,320,326,2
316,371,318,331,2
314,367,316,332,2
311,356,312,329,2
308,342,309,326,2
306,327,306,322,2
305,312,305,319,2
305,295,304,317,2
304,278,302,315,2
304,261,301,312,2
305,251,302,311,2
307,248,305,310,2
308,251,306,309,2
309,256,308,308,2
310,262,309,307,2
311,272,309,306,2
311,286,307,304,2
311,301,305,303,2
311,316,303,299,2
310,329,302,295,2
309,338,303,292,2
308,343,304,290,2
307,343,306,290,2
305,337,307,292,2
304,329,307,295,2
304,322,308,298,2
306,321,309,304,2
310,327,309,309,2
312,334,310,314,2
314,333,310,318,2
313,321,310,318,2
311,301,310,315,2
307,282,309,312,2
305,274,309,309,2
304,278,308,307,2
304,286,308,307,2
305,295,307,308,2
306,303,307,307,2
306,305,306,307,2
305,299,306,307,2
302,286,305,306,2
299,273,304,304,2
297,268,303,301,2
295,270,305,298,2
295,276,309,293,2
294,284,310,286,2
293,294,310,277,2
292,309,310,267,2
292,326,310,260,2
293,339,309,258,2
293,347,307,262,2
294,349,305,271,2
295,346,303,284,2
298,339,302,296,2
300,331,302,305,2
302,324,302,312,2
303,322,302,318,2
303,323,302,323,2
305,327,304,327,2
308,329,307,329,2
311,329,310,329,2
313,326,312,327,2
313,325,312,322,2
312,324,312,317,2
310,324,311,312,2
308,326,309,310,2
306,326,309,311,2
306,324,309,316,2
306,321,310,322,2
307,317,311,328,2
308,310,311,330,2
307,299,311,331,2
307,287,311,330,2
307,278,312,330,2
307,274,313,329,2
308,275,312,327,2
309,280,310,324,2
310,290,308,321,2
311,305,308,318,2
313,320,308,316,2
313,328,309,314,2
312,333,309,310,2
310,335,309,306,2
308,333,308,303,2
305,325,306,298,2
301,308,303,291,2
299,288,301,287,2
297,269,301,287,2
296,255,299,291,2
296,246,298,296,2
296,247,297,302,2
299,262,300,308,2
304,285,304,313,2
308,309,306,315,2
310,329,308,316,2
312,344,308,315,2
312,352,308,314,2
311,353,307,312,2
309,346,306,309,2
306,335,304,306,2
302,323,302,303,2
301,316,302,302,2
301,314,302,303,2
301,316,303,306,2
299,317,304,307,2
298,315,304,306,2
296,312,304,300,2
295,306,304,290,2
295,292,305,278,2
296,269,306,270,2
297,241,308,269,2
299,214,309,274,2
300,197,310,286,2
303,196,310,300,2
306,213,310,314,2
310,244,310,326,2
315,279,310,335,2
318,313,310,341,2
319,341,309,344,2
318,359,308,344,2
317,368,307,341,2
315,372,306,336,2
313,375,306,330,2
311,377,305,324,2
308,379,304,319,2
306,380,303,315,2
305,377,304,312,2
304,368,305,311,2
304,358,306,310,2
304,347,308,309,2
304,337,309,308,2
304,329,310,308,2
304,323,309,307,2
303,318,308,306,2
303,314,306,305,2
302,310,304,302,2
302,307,304,300,2
302,305,303,298,2
303,305,302,298,2
303,304,301,296,2
302,300,300,296,2
302,293,300,296,2
300,285,300,297,2
298,275,300,297,2
296,261,301,297,2
295,248,302,300,2
297,241,306,304,2
299,246,310,308,2
303,263,312,310,2
306,287,313,309,2
307,308,311,306,2
306,321,310,301,2
306,326,308,298,2
306,327,308,297,2
306,327,308,297,2
306,328,307,300,2
306,328,306,305,2
306,325,305,310,2
305,321,304,313,2
305,314,303,313,2
305,305,304,312,2
305,295,305,311,2
305,289,305,309,2
305,290,304,308,2
306,296,303,308,2
306,301,302,308,2
307,304,303,308,2
308,305,305,309,2
309,306,306,309,2
310,311,307,308,2
310,313,308,307,2
310,307,311,308,2
310,293,312,310,2
308,275,312,311,2
306,260,311,311,2
304,253,309,308,2
303,255,308,304,2
304,270,308,298,2
306,289,309,290,2
309,309,311,283,2
310,325,312,277,2
310,336,311,273,2
310,341,309,274,2
311,341,307,279,2
313,339,306,286,2
314,334,304,292,2
313,327,302,299,2
311,318,300,307,2
308,309,301,317,2
305,299,304,327,2
303,285,308,335,2
303,268,311,340,2
304,252,312,340,2
305,241,311,335,2
305,238,309,328,2
304,245,308,321,2
304,265,309,314,2
304,289,309,307,2
305,314,309,302,2
307,333,309,300,2
307,345,309,300,2
307,349,309,302,2
305,347,308,305,2
303,340,307,307,2
301,331,307,308,2
299,323,308,308,2
298,323,308,308,2
297,327,308,307,2
296,332,306,304,2
295,334,306,301,2
295,335,306,299,2
297,334,306,297,2
299,331,306,296,2
302,325,305,294,2
306,317,304,294,2
309,307,304,296,2
312,300,305,299,2
312,295,306,301,2
312,290,307,304,2
312,283,310,306,2
311,275,312,308,2
310,266,315,311,2
309,253,317,312,2
307,236,319,309,2
304,224,319,301,2
301,223,316,290,2
298,241,312,279,2
297,272,308,272,2
298,306,307,272,2
299,333,307,279,2
300,350,306,291,2
301,358,306,304,2
300,359,305,314,2
298,354,304,322,2
296,349,302,325,2
294,348,302,325,2
293,350,302,322,2
293,352,301,318,2
295,350,300,312,2
297,343,298,305,2
298,332,297,301,2
299,318,297,300,2
299,302,299,303,2
300,288,301,308,2
302,282,304,314,2
304,281,306,319,2
306,283,306,322,2
306,288,305,323,2
306,292,303,320,2
306,296,302,316,2
305,297,301,312,2
305,295,299,308,2
305,294,299,306,2
304,300,298,304,2
304,309,299,303,2
303,314,300,303,2
302,311,301,303,2
301,298,303,304,2
302,283,306,308,2
303,275,308,312,2
304,279,309,314,2
305,292,308,315,2
307,307,308,315,2
308,320,307,314,2
308,330,307,314,2
309,338,306,315,2
309,343,307,317,2
310,343,307,320,2
311,337,308,320,2
312,328,310,318,2
312,312,310,314,2
311,293,311,310,2
310,277,311,306,2
309,274,310,304,2
309,283,310,302,2
310,302,309,302,2
311,322,308,304,2
313,335,308,307,2
315,342,307,311,2
314,342,305,312,2
313,335,303,312,2
311,324,300,312,2
308,311,298,310,2
305,303,296,309,2
303,302,296,308,2
302,307,297,308,2
302,314,298,308,2
302,319,298,309,2
304,319,298,309,2
305,314,298,308,2
306,305,298,307,2
305,295,298,304,2
305,289,297,301,2
306,288,297,298,2
306,292,299,297,2
306,298,302,298,2
306,303,304,303,2
307,305,306,308,2
306,305,307,313,2
306,303,308,315,2
306,302,309,317,2
306,305,309,317,2
306,314,309,315,2
305,327,308,313,2
304,338,307,309,2
303,343,306,307,2
303,340,306,305,2
302,334,306,304,2
301,325,306,304,2
300,315,306,306,2
300,301,306,309,2
302,283,307,312,2
304,264,307,312,2
305,247,307,310,2
305,233,306,309,2
305,223,306,308,2
305,215,307,308,2
306,216,308,306,2
307,226,308,302,2
306,246,308,296,2
306,270,306,291,2
307,294,304,287,2
308,312,302,285,2
307,329,299,284,2
306,342,299,285,2
307,349,299,288,2
307,349,299,294,2
307,343,302,303,2
309,337,305,313,2
311,335,307,320,2
312,337,308,324,2
312,339,307,325,2
312,340,305,325,2
312,339,302,325,2
311,337,300,324,2
310,329,299,324,2
310,317,301,323,2
309,306,304,320,2
308,296,307,318,2
306,285,310,315,2
303,275,310,310,2
301,268,308,305,2
299,267,305,300,2
299,270,302,299,2
300,271,300,303,2
303,273,300,310,2
306,279,302,316,2
309,291,305,321,2
311,308,306,322,2
312,324,307,321,2
312,334,307,319,2
311,337,308,317,2
310,329,309,316,2
309,316,311,315,2
309,307,312,316,2
310,305,313,316,2
310,308,313,316,2
311,318,311,315,2
311,329,307,313,2
310,337,303,310,2
309,342,300,307,2
308,343,297,304,2
306,344,295,302,2
304,345,295,301,2
303,345,296,299,2
302,341,298,298,2
303,335,301,297,2
303,326,303,296,2
303,313,304,296,2
304,293,305,296,2
305,268,305,296,2
305,246,305,296,2
306,234,307,297,2
308,238,310,300,2
310,258,313,301,2
312,286,313,303,2
312,308,310,303,2
310,319,306,302,2
306,318,304,301,2
302,304,302,299,2
297,283,301,297,2
294,260,301,295,2
292,248,299,291,2
291,251,300,285,2
293,266,301,277,2
296,285,303,270,2
300,306,303,266,2
301,329,304,267,2
302,349,306,275,2
302,358,307,288,2
302,356,308,303,2
302,347,308,319,2
305,338,308,332,2
308,334,307,340,2
312,337,307,342,2
314,344,308,341,2
316,350,309,339,2
317,352,309,337,2
317,352,309,335,2
316,351,309,331,2
314,351,309,328,2
312,350,309,325,2
310,344,310,324,2
308,329,310,324,2
307,311,309,323,2
307,294,308,323,2
307,286,307,323,2
307,289,307,322,2
307,301,306,321,2
308,316,305,320,2
308,328,305,318,2
308,335,305,316,2
308,336,303,314,2
307,333,301,313,2
306,329,298,311,2
304,326,296,309,2
302,323,296,308,2
301,320,297,307,2
301,318,299,307,2
301,319,300,308,2
302,321,301,309,2
303,324,301,310,2
304,323,300,309,2
306,320,299,309,2
308,316,298,309,2
308,309,298,308,2
307,298,298,308,2
305,286,299,309,2
301,276,298,309,2
298,268,298,308,2
295,257,298,307,2
294,245,299,304,2
295,234,302,300,2
298,229,305,297,2
301,239,308,296,2
305,262,309,296,2
309,289,309,297,2
312,310,308,297,2
312,323,307,298,2
310,329,307,300,2
308,332,307,301,2
305,332,307,302,2
303,330,307,303,2
301,326,307,304,2
300,321,306,304,2
300,317,306,303,2
300,313,306,301,2
301,307,307,299,2
301,302,308,299,2
300,299,308,300,2
299,296,307,303,2
298,286,308,310,2
298,273,309,316,2
299,261,311,321,2
302,256,311,323,2
305,261,313,324,2
309,276,316,324,2
312,290,318,321,2
313,303,318,317,2
312,313,317,312,2
310,324,315,307,2
307,330,313,302,2
306,333,310,298,2
304,333,308,292,2
304,331,305,287,2
303,327,302,281,2
303,322,300,280,2
303,321,297,281,2
303,326,298,287,2
305,336,302,295,2
308,347,306,304,2
311,354,309,311,2
313,354,311,316,2
314,350,311,319,2
314,346,309,320,2
314,344,308,320,2
314,341,307,319,2
313,336,307,319,2
312,327,307,318,2
311,315,308,318,2
310,306,309,318,2
309,301,310,317,2
307,297,310,317,2
306,295,310,317,2
306,293,310,317,2
306,295,310,317,2
307,298,310,317,2
306,303,309,315,2
306,308,309,314,2
305,311,309,312,2
304,307,310,312,2
303,297,310,311,2
302,283,311,311,2
302,269,312,311,2
303,260,314,310,2
304,256,316,309,2
305,258,316,308,2
305,264,315,306,2
304,268,312,304,2
303,270,307,304,2
303,272,303,304,2
303,278,300,303,2
305,287,298,302,2
306,298,296,302,2
309,311,295,303,2
310,323,291,304,2
309,334,288,304,2
306,341,286,303,2
304,349,285,302,2
302,355,285,301,2
302,358,288,300,2
302,355,291,300,2
303,348,296,301,2
303,339,300,300,2
304,331,303,299,2
304,325,305,294,2
303,318,307,287,2
303,314,307,280,2
302,313,307,277,2
303,316,306,279,2
303,319,304,288,2
304,317,303,301,2
305,311,303,313,2
305,301,304,323,2
305,292,306,329,2
303,285,308,332,2
301,278,309,333,2
298,270,311,333,2
298,266,312,331,2
299,268,313,326,2
302,273,314,319,2
306,282,314,312,2
308,294,313,304,2
308,309,311,297,2
307,326,308,291,2
307,341,304,286,2
306,350,301,285,2
307,352,299,286,2
307,346,297,291,2
307,331,298,298,2
307,314,300,307,2
306,302,302,315,2
307,298,304,322,2
307,296,306,326,2
306,294,308,329,2
306,291,309,330,2
306,290,310,329,2
307,295,311,327,2
308,308,313,323,2
310,321,314,321,2
312,332,314,318,2
314,341,315,314,2
315,347,316,310,2
316,347,316,307,2
316,338,316,305,2
314,321,316,304,2
311,307,315,304,2
310,301,313,303,2
308,300,312,301,2
307,300,309,299,2
306,298,307,296,2
306,296,305,292,2
306,298,303,291,2
306,302,302,291,2
306,302,301,293,2
306,300,301,297,2
306,297,300,301,2
306,294,300,305,2
307,296,301,309,2
308,297,304,314,2
311,296,307,317,2
313,293,308,318,2
314,292,308,318,2
314,297,305,316,2
315,305,302,314,2
316,311,301,312,2
316,312,301,310,2
316,309,301,307,2
315,308,302,304,2
314,315,303,300,2
313,324,304,297,2
311,331,305,296,2
310,332,307,298,2
309,325,309,304,2
309,310,310,312,2
310,293,312,319,2
311,276,313,324,2
312,265,314,327,2
315,262,315,327,2
317,265,316,326,2
319,271,315,323,2
318,284,314,317,2
315,298,311,311,2
311,309,308,304,2
307,316,304,298,2
303,316,302,295,2
300,315,300,296,2
299,320,300,299,2
299,328,301,303,2
300,335,301,305,2
299,338,300,305,2
298,339,299,302,2
298,338,299,298,2
299,337,299,295,2
301,337,300,295,2
303,335,301,297,2
304,328,303,301,2
304,319,304,306,2
304,312,306,311,2
305,311,308,315,2
305,309,309,317,2
305,301,308,317,2
305,288,307,315,2
304,272,305,312,2
303,260,304,308,2
301,256,304,304,2
300,258,305,304,2
300,265,307,308,2
302,275,310,313,2
304,290,312,317,2
305,309,313,317,2
307,326,312,315,2
309,338,311,312,2
311,342,308,307,2
311,342,305,303,2
308,338,302,298,2
305,331,301,294,2
301,323,299,290,2
298,320,299,289,2
299,323,298,293,2
301,330,299,300,2
304,337,300,309,2
307,340,300,317,2
309,336,301,324,2
310,329,303,327,2
311,319,304,327,2
310,309,306,323,2
309,299,308,316,2
307,289,308,310,2
305,282,308,307,2
303,278,308,308,2
303,276,307,313,2
302,276,308,318,2
303,277,311,322,2
304,276,312,323,2
304,274,313,323,2
304,272,313,322,2
304,270,312,320,2
305,272,312,319,2
306,278,312,317,2
307,287,311,315,2
309,298,310,311,2
310,309,309,305,2
310,317,306,299,2
309,324,303,293,2
307,327,301,290,2
306,329,300,292,2
306,329,302,298,2
305,330,305,304,2
305,330,308,307,2
305,331,310,308,2
306,333,311,307,2
307,333,311,306,2
308,334,309,306,2
309,333,308,308,2
309,327,306,312,2
308,313,306,315,2
307,293,306,317,2
307,268,306,317,2
306,246,306,316,2
304,232,305,313,2
301,234,304,309,2
300,251,303,305,2
301,277,303,301,2
302,299,302,297,2
304,311,302,293,2
305,316,302,291,2
306,318,304,292,2
306,322,305,295,2
306,326,306,298,2
305,330,306,301,2
305,330,306,304,2
306,328,306,307,2
307,320,307,307,2
308,311,307,307,2
309,306,308,306,2
310,306,309,306,2
311,310,309,308,2
312,312,310,310,2
313,311,309,313,2
313,306,307,314,2
313,304,306,314,2
312,309,304,311,2
310,316,303,308,2
309,323,303,306,2
308,326,304,305,2
308,326,305,306,2
310,325,307,307,2
311,321,307,310,2
311,315,307,311,2
309,306,306,311,2
304,293,305,310,2
300,280,304,310,2
297,274,305,311,2
295,271,305,312,2
294,269,306,313,2
295,266,307,315,2
296,260,309,315,2
297,255,310,314,2
299,255,311,313,2
300,267,310,310,2
300,290,308,305,2
302,313,307,300,2
304,326,305,297,2
305,330,304,294,2
306,333,304,292,2
307,343,304,291,2
309,353,304,292,2
311,361,306,295,2
313,368,306,300,2
314,370,306,305,2
313,370,306,308,2
310,367,305,310,2
307,361,303,310,2
303,352,300,310,2
300,340,297,309,2
297,326,294,307,2
296,312,291,307,2
295,301,292,307,2
296,298,293,308,2
298,301,297,308,2
300,303,300,305,2
302,306,303,301,2
304,308,307,298,2
305,306,309,296,2
305,298,311,297,2
303,284,312,301,2
301,266,313,306,2
300,255,313,310,2
300,262,314,313,2
301,283,314,312,2
302,308,312,309,2
303,328,311,304,2
303,340,310,302,2
304,347,309,301,2
304,350,309,300,2
305,349,309,301,2
306,347,310,304,2
308,341,312,308,2
310,334,312,312,2
311,328,313,314,2
311,324,313,316,2
310,321,312,316,2
309,319,313,315,2
309,316,313,315,2
308,312,313,313,2
306,303,313,310,2
304,290,312,306,2
303,277,311,301,2
305,267,310,298,2
306,264,308,299,2
307,271,307,302,2
308,284,306,305,2
309,296,304,310,2
309,299,303,313,2
309,293,302,314,2
308,282,303,314,2
306,273,305,313,2
305,266,307,312,2
305,259,311,312,2
306,253,314,314,2
310,253,316,316,2
313,263,317,316,2
315,283,316,313,2
318,305,314,308,2
319,324,312,303,2
319,336,311,299,2
318,342,312,298,2
317,345,312,301,2
314,346,312,305,2
312,348,310,310,2
310,349,309,316,2
308,349,308,319,2
307,347,307,321,2
305,340,307,321,2
304,329,308,321,2
303,314,308,320,2
302,299,310,319,2
302,289,311,319,2
303,283,312,318,2
305,280,313,317,2
308,284,313,315,2
312,291,312,312,2
315,299,311,310,2
318,313,309,308,2
319,327,307,308,2
316,336,306,307,2
313,343,304,309,2
310,347,304,310,2
308,347,303,311,2
307,344,303,310,2
306,336,303,309,2
305,328,302,308,2
303,321,302,306,2
303,316,304,304,2
303,313,305,303,2
302,308,305,304,2
301,301,305,305,2
300,291,304,307,2
299,281,303,309,2
299,272,303,310,2
299,265,304,311,2
299,258,304,311,2
301,252,305,313,2
301,248,305,314,2
301,245,305,314,2
300,244,304,314,2
300,245,305,313,2
302,249,306,311,2
304,254,308,308,2
304,259,310,302,2
304,268,310,295,2
304,279,308,288,2
303,291,307,286,2
303,304,305,286,2
304,312,304,289,2
304,316,303,294,2
303,320,303,302,2
303,325,302,311,2
304,329,303,318,2
304,329,302,323,2
306,322,302,324,2
310,310,300,323,2
313,300,300,320,2
315,303,301,315,2
316,316,302,311,2
315,333,303,306,2
314,343,304,303,2
312,346,305,300,2
311,345,306,299,2
311,343,307,300,2
310,339,308,302,2
308,333,307,305,2
306,324,306,307,2
303,316,305,308,2
302,309,305,307,2
302,304,308,306,2
302,303,310,304,2
303,301,311,302,2
303,298,312,302,2
303,294,313,303,2
303,285,313,305,2
303,273,313,307,2
303,263,311,308,2
302,259,309,306,2
302,263,306,305,2
303,276,304,306,2
307,294,304,310,2
313,309,306,315,2
317,319,307,320,2
320,322,307,322,2
320,316,307,319,2
317,300,306,315,2
312,281,304,310,2
306,265,305,306,2
303,257,308,307,2
302,257,311,311,2
301,263,313,316,2
301,270,313,319,2
301,275,312,319,2
301,278,309,316,2
301,285,307,313,2
302,301,304,310,2
304,319,301,306,2
305,332,298,302,2
307,334,296,301,2
307,325,294,303,2
307,314,294,306,2
307,308,296,311,2
307,313,299,317,2
308,326,303,321,2
310,337,307,323,2
311,343,310,324,2
312,345,311,324,2
313,347,312,323,2
313,347,311,322,2
312,345,310,320,2
310,337,309,318,2
308,331,308,314,2
305,328,307,312,2
305,328,306,310,2
305,327,305,308,2
306,326,305,306,2
307,325,305,304,2
309,323,304,303,2
310,319,303,303,2
308,312,302,304,2
306,305,301,305,2
303,299,300,305,2
301,293,300,303,2
301,286,300,301,2
302,281,299,299,2
302,279,299,301,2
304,284,299,306,2
305,293,300,313,2
307,304,301,319,2
309,312,302,321,2
310,316,303,318,2
311,316,304,314,2
310,313,305,310,2
310,306,307,308,2
309,297,310,309,2
309,284,312,311,2
309,267,313,314,2
310,254,314,316,2
310,249,313,315,2
310,253,312,312,2
310,260,310,311,2
311,269,309,311,2
312,278,309,312,2
313,287,309,312,2
313,295,309,311,2
312,304,308,307,2
310,311,306,300,2
307,313,303,292,2
305,309,301,287,2
303,303,300,285,2
302,301,301,288,2
302,306,301,296,2
303,312,302,306,2
304,316,302,314,2
305,318,303,318,2
306,322,303,318,2
306,323,302,314,2
306,322,300,309,2
306,320,298,302,2
305,319,295,297,2
304,321,292,294,2
303,323,289,292,2
303,327,286,291,2
303,331,283,290,2
302,334,282,290,2
301,336,280,291,2
301,336,281,293,2
302,334,284,298,2
305,334,288,304,2
309,334,291,311,2
312,327,294,317,2
314,319,297,321,2
316,313,300,323,2
316,307,302,323,2
314,299,303,321,2
312,286,303,318,2
309,268,304,314,2
305,249,304,309,2
301,233,305,305,2
300,224,306,303,2
300,222,308,302,2
301,227,311,300,2
305,243,312,297,2
308,272,311,293,2
311,305,309,292,2
312,334,306,293,2
313,349,304,297,2
313,354,303,301,2
312,352,304,305,2
310,345,305,310,2
309,337,307,313,2
308,330,309,315,2
307,324,309,314,2
306,314,308,311,2
304,299,308,306,2
303,280,307,303,2
301,263,308,302,2
300,254,309,305,2
302,258,310,310,2
305,272,309,314,2
308,290,309,318,2
311,307,311,320,2
313,321,311,319,2
314,331,309,318,2
313,335,306,315,2
312,335,304,314,2
312,334,302,314,2
312,333,301,313,2
313,333,301,312,2
314,332,302,313,2
315,326,303,313,2
314,314,305,312,2
312,297,306,312,2
310,278,307,311,2
310,262,308,311,2
310,254,311,312,2
310,257,314,311,2
309,271,315,310,2
308,288,313,307,2
306,304,310,304,2
305,317,308,302,2
304,328,306,299,2
304,333,306,297,2
304,333,306,297,2
305,330,308,298,2
306,327,310,300,2
307,318,313,303,2
306,303,314,306,2
305,286,315,309,2
302,272,313,309,2
299,264,312,306,2
297,267,311,301,2
295,281,311,295,2
294,300,310,288,2
293,319,308,282,2
292,333,308,278,2
293,341,307,278,2
294,343,307,281,2
299,342,308,288,2
306,336,308,296,2
311,327,308,305,2
315,319,308,313,2
316,315,307,319,2
314,317,305,323,2
311,325,304,325,2
308,331,305,323,2
306,337,305,319,2
307,343,304,315,2
307,347,303,310,2
308,346,302,308,2
309,339,303,308,2
309,326,304,310,2
307,310,305,312,2
305,293,305,313,2
303,280,304,312,2
302,271,302,311,2
303,266,301,310,2
304,266,300,310,2
305,269,300,310,2
305,270,300,310,2
304,268,299,310,2
304,261,300,310,2
304,254,303,310,2
304,253,306,308,2
303,257,308,303,2
301,266,310,298,2
299,280,310,294,2
298,297,309,291,2
298,312,308,287,2
298,322,309,285,2
298,327,309,284,2
299,328,310,286,2
301,328,311,293,2
303,328,312,302,2
306,326,311,311,2
308,322,310,319,2
311,318,309,323,2
314,318,308,322,2
316,322,307,318,2
315,328,305,311,2
312,327,303,305,2
306,317,300,302,2
302,301,298,301,2
298,286,297,300,2
295,275,297,299,2
294,270,298,298,2
294,268,300,298,2
296,268,300,298,2
297,267,300,299,2
299,263,300,301,2
302,261,301,304,2
304,263,302,307,2
307,270,304,312,2
311,280,305,318,2
314,287,306,323,2
314,293,306,325,2
314,302,307,325,2
313,316,309,322,2
313,331,311,319,2
313,343,314,316,2
313,348,316,314,2
312,342,316,312,2
310,329,316,311,2
308,316,316,308,2
306,309,314,305,2
305,314,313,303,2
304,327,312,303,2
304,338,311,305,2
305,346,311,309,2
305,348,311,314,2
305,343,311,317,2
304,334,311,317,2
303,321,311,315,2
302,306,312,312,2
300,296,312,308,2
299,294,313,306,2
300,303,313,304,2
301,317,314,303,2
303,330,313,304,2
304,339,313,306,2
305,344,312,308,2
304,347,309,309,2
304,346,306,311,2
303,343,303,312,2
303,338,300,313,2
303,327,299,312,2
304,315,297,310,2
304,307,298,305,2
304,301,300,302,2
305,298,303,301,2
304,297,307,300,2
304,296,310,301,2
303,295,311,302,2
300,291,311,305,2
296,283,309,307,2
294,273,308,309,2
294,264,308,308,2
296,258,310,306,2
299,263,311,302,2
301,275,309,296,2
301,290,305,293,2
302,302,303,293,2
302,308,302,297,2
304,310,302,304,2
305,311,302,310,2
305,315,303,314,2
305,322,304,316,2
305,329,306,317,2
306,337,308,318,2
308,345,311,319,2
310,352,314,321,2
312,354,316,322,2
312,349,316,322,2
310,337,316,321,2
310,323,315,319,2
309,311,315,316,2
308,301,314,312,2
308,292,312,309,2
306,284,310,306,2
304,279,308,305,2
303,281,305,303,2
301,289,304,301,2
300,298,304,301,2
300,303,302,300,2
299,302,300,299,2
297,297,298,298,2
296,293,298,298,2
297,296,297,298,2
297,304,296,298,2
299,311,294,298,2
300,314,292,297,2
299,313,292,297,2
298,309,293,296,2
297,300,296,295,2
297,287,300,292,2
296,274,302,290,2
297,264,304,290,2
300,265,305,292,2
302,277,306,296,2
304,296,305,301,2
307,313,307,305,2
309,327,309,306,2
310,336,311,305,2
309,336,312,305,2
307,329,313,307,2
306,316,313,311,2
305,302,312,317,2
304,290,311,323,2
303,287,311,327,2
303,295,311,328,2
304,309,313,328,2
306,327,315,326,2
307,341,316,323,2
307,348,315,319,2
306,346,313,314,2
305,339,311,311,2
305,329,310,310,2
305,321,309,310,2
306,315,310,311,2
306,310,310,311,2
307,304,309,309,2
306,295,308,307,2
306,286,307,306,2
305,278,306,306,2
305,274,308,307,2
305,275,309,310,2
304,283,310,312,2
304,296,311,314,2
305,310,312,317,2
305,323,313,318,2
304,334,312,318,2
303,340,311,317,2
301,343,309,314,2
298,340,307,312,2
296,329,305,308,2
295,314,303,304,2
295,296,302,301,2
296,282,302,299,2
297,271,302,297,2
300,265,302,296,2
302,263,302,294,2
305,262,301,294,2
305,258,301,295,2
305,252,302,298,2
304,245,303,303,2
305,245,304,308,2
308,254,306,314,2
312,269,307,315,2
315,289,307,310,2
316,309,305,304,2
314,324,303,299,2
312,331,302,298,2
309,334,302,302,2
308,336,303,308,2
308,337,304,314,2
309,341,305,318,2
311,345,305,318,2
314,344,304,317,2
315,335,303,313,2
314,317,303,310,2
312,295,302,307,2
307,273,302,305,2
303,258,302,304,2
300,258,303,306,2
300,272,305,310,2
301,291,305,314,2
302,309,306,318,2
303,324,306,320,2
304,341,307,322,2
305,355,308,322,2
307,367,309,321,2
308,373,309,321,2
309,375,309,320,2
309,371,309,318,2
309,365,309,316,2
308,355,309,314,2
306,342,309,312,2
305,330,309,309,2
303,315,310,307,2
301,298,311,304,2
299,279,313,302,2
296,264,314,301,2
295,261,316,300,2
294,266,314,298,2
293,276,311,294,2
291,284,305,293,2
291,286,301,294,2
294,286,299,298,2
297,286,300,304,2
301,287,302,310,2
304,287,305,314,2
306,288,309,315,2
307,290,311,313,2
306,295,311,308,2
306,301,308,303,2
305,309,306,300,2
305,316,303,300,2
306,320,302,302,2
308,321,302,306,2
310,318,302,310,2
312,311,303,314,2
312,304,303,317,2
311,297,304,320,2
308,292,304,322,2
306,290,305,323,2
304,292,305,323,2
304,298,306,321,2
305,306,306,319,2
307,315,305,317,2
309,323,304,315,2
310,329,303,314,2
310,332,302,314,2
310,334,302,314,2
310,333,303,314,2
309,328,305,314,2
309,316,307,314,2
308,301,309,314,2
307,285,312,313,2
306,273,313,312,2
305,268,313,311,2
304,263,312,310,2
305,255,312,309,2
306,249,312,306,2
307,255,311,302,2
308,277,309,297,2
308,307,306,293,2
307,329,303,290,2
306,338,300,287,2
305,338,298,285,2
304,332,296,286,2
303,323,297,291,2
305,314,299,299,2
307,308,303,310,2
311,310,309,319,2
314,317,312,325,2
315,324,314,328,2
314,328,313,328,2
312,329,312,325,2
310,329,310,320,2
309,325,309,315,2
309,317,307,311,2
309,308,307,308,2
310,302,306,307,2
310,300,305,307,2
310,304,305,309,2
310,306,305,311,2
309,302,305,312,2
308,295,304,314,2
306,288,303,316,2
304,283,303,318,2
304,281,303,320,2
304,281,304,320,2
306,277,304,318,2
307,269,303,312,2
307,262,301,304,2
307,263,298,294,2
307,274,296,285,2
307,293,294,279,2
308,316,294,278,2
309,334,296,282,2
311,344,298,288,2
312,345,302,293,2
312,339,306,297,2
312,329,309,300,2
311,318,310,303,2
310,306,310,307,2
309,296,309,310,2
308,288,308,314,2
307,288,308,317,2
308,292,309,319,2
308,300,309,319,2
309,310,309,318,2
310,320,308,318,2
312,327,308,317,2
313,332,309,317,2
315,333,311,318,2
316,333,313,318,2
317,334,314,320,2
317,333,315,321,2
316,333,314,321,2
316,331,313,319,2
314,328,312,317,2
314,325,310,315,2
313,324,308,313,2
312,322,306,312,2
311,320,303,311,2
311,317,302,311,2
312,314,300,310,2
311,312,299,309,2
309,310,298,308,2
307,308,298,308,2
306,302,300,308,2
304,292,302,309,2
303,278,303,309,2
302,265,304,310,2
302,252,304,309,2
301,239,304,309,2
301,226,305,310,2
304,212,309,311,2
308,202,315,311,2
312,202,321,309,2
316,218,327,304,2
317,242,329,294,2
314,262,327,281,2
310,277,320,265,2
305,292,314,253,2
302,307,309,250,2
302,317,306,260,2
303,321,306,281,2
306,326,309,308,2
309,332,313,334,2
312,340,316,352,2
315,349,318,359,2
316,360,318,357,2
316,369,317,350,2
315,373,315,342,2
313,372,312,334,2
311,369,309,328,2
310,366,307,324,2
309,366,306,320,2
309,364,305,317,2
308,360,305,314,2
307,351,305,312,2
306,340,306,311,2
305,331,307,311,2
305,323,308,312,2
305,319,308,313,2
304,315,307,314,2
304,310,307,315,2
304,304,307,316,2
304,296,308,317,2
303,287,309,319,2
303,279,311,321,2
303,272,312,323,2
305,268,313,325,2
308,270,315,327,2
311,281,315,326,2
314,297,312,323,2
313,311,309,318,2
312,322,305,314,2
311,326,303,310,2
309,316,302,308,2
308,298,302,308,2
307,280,304,309,2
307,270,307,310,2
309,272,311,312,2
310,286,314,312,2
309,304,314,311,2
307,323,312,309,2
305,338,309,307,2
303,347,307,305,2
303,349,306,304,2
303,348,305,303,2
303,341,304,301,2
302,331,302,298,2
303,324,302,294,2
304,318,303,291,2
305,313,305,289,2
306,308,306,287,2
306,304,307,285,2
307,306,308,283,2
308,313,309,282,2
310,315,310,281,2
310,310,310,282,2
309,299,309,287,2
309,286,308,295,2
309,274,308,305,2
307,262,305,316,2
305,252,304,325,2
303,251,303,331,2
303,263,302,334,2
303,283,301,333,2
303,305,301,330,2
305,323,301,326,2
307,331,301,321,2
310,332,302,317,2
311,326,302,314,2
312,319,302,312,2
311,312,300,310,2
309,306,299,309,2
308,299,300,309,2
306,293,301,308,2
305,286,302,308,2
304,278,305,309,2
304,271,306,310,2
303,266,307,312,2
303,264,307,312,2
304,267,307,313,2
306,275,307,314,2
307,283,307,313,2
308,291,308,313,2
311,304,310,313,2
314,324,312,310,2
317,342,313,304,2
318,347,313,298,2
317,341,311,292,2
315,331,309,288,2
313,324,307,289,2
312,321,306,292,2
310,323,307,297,2
309,327,308,300,2
306,329,310,302,2
303,329,310,301,2
301,329,309,299,2
299,329,308,295,2
299,330,307,291,2
299,332,306,286,2
299,333,305,284,2
298,332,304,286,2
297,330,304,292,2
297,325,305,300,2
298,320,307,308,2
300,315,309,314,2
302,311,311,318,2
303,306,312,320,2
303,299,311,320,2
302,295,307,318,2
301,292,304,314,2
301,292,302,310,2
302,293,302,306,2
304,294,303,304,2
306,294,303,304,2
307,293,303,306,2
308,293,303,310,2
308,294,304,315,2
307,297,307,318,2
307,301,309,320,2
306,308,312,319,2
305,313,315,318,2
305,313,317,316,2
304,307,319,316,2
304,297,321,317,2
306,286,322,318,2
308,274,323,317,2
309,263,321,314,2
309,262,319,309,2
308,273,315,302,2
307,293,311,296,2
306,313,307,292,2
305,328,305,291,2
305,337,303,290,2
304,342,301,289,2
303,343,300,288,2
301,338,301,289,2
300,327,302,295,2
299,312,303,303,2
299,302,304,314,2
301,302,306,325,2
304,306,307,333,2
306,308,307,337,2
309,309,307,335,2
310,310,306,332,2
311,309,306,329,2
311,307,305,325,2
311,306,303,321,2
311,307,302,316,2
310,307,301,313,2
310,304,301,311,2
310,298,300,309,2
310,291,300,308,2
310,284,300,307,2
310,281,301,306,2
310,283,303,306,2
310,286,304,306,2
307,286,306,306,2
305,282,305,306,2
302,276,305,306,2
302,273,306,307,2
303,281,308,308,2
305,297,309,310,2
307,315,310,312,2
309,330,310,313,2
309,340,309,312,2
308,343,307,308,2
308,336,305,303,2
307,319,304,299,2
306,299,304,297,2
305,284,303,298,2
306,278,304,302,2
307,282,305,307,2
309,290,306,313,2
312,301,308,316,2
315,315,309,317,2
317,329,308,317,2
317,340,305,317,2
314,343,301,317,2
308,340,297,316,2
302,336,295,315,2
297,335,295,315,2
295,335,297,316,2
294,329,301,315,2
295,316,303,313,2
297,302,305,311,2
299,295,307,308,2
301,299,307,305,2
303,306,305,305,2
306,314,302,306,2
308,319,302,308,2
309,323,303,311,2
310,327,305,314,2
310,330,307,316,2
309,332,308,316,2
309,330,307,316,2
309,325,305,316,2
308,317,303,316,2
307,308,302,315,2
306,299,303,315,2
305,290,305,315,2
305,285,307,315,2
304,286,309,315,2
304,288,311,316,2
304,280,313,317,2
303,265,315,317,2
302,248,316,317,2
301,241,316,317,2
303,251,316,317,2
306,274,315,317,2
309,301,314,315,2
311,323,312,314,2
312,338,312,314,2
313,347,311,313,2
311,350,310,313,2
310,348,308,312,2
307,342,306,312,2
305,335,305,313,2
304,329,304,313,2
303,325,303,313,2
303,322,302,312,2
303,320,302,310,2
304,317,302,308,2
303,312,302,305,2
302,305,302,301,2
299,298,303,295,2
297,295,307,290,2
297,295,310,285,2
298,294,312,282,2
299,286,312,283,2
300,276,312,287,2
301,269,312,296,2
302,265,312,307,2
304,264,312,318,2
306,266,312,326,2
308,270,310,330,2
310,275,308,329,2
310,282,304,326,2
308,288,301,321,2
307,296,300,316,2
305,307,301,312,2
306,323,304,309,2
309,340,307,308,2
311,353,309,310,2
313,358,310,312,2
314,355,310,311,2
313,346,309,309,2
312,333,308,308,2
311,323,308,309,2
312,321,309,313,2
313,323,310,315,2
314,326,309,313,2
313,328,306,308,2
312,327,302,304,2
311,327,300,301,2
313,328,299,300,2
316,333,299,301,2
318,341,300,302,2
320,351,302,304,2
320,359,305,306,2
321,358,308,308,2
319,350,309,310,2
316,335,308,312,2
311,317,306,314,2
305,300,304,316,2
300,284,301,317,2
297,271,300,317,2
295,265,300,315,2
296,266,302,311,2
299,272,304,307,2
303,280,305,304,2
305,288,305,304,2
307,295,306,305,2
308,299,305,307,2
309,301,305,309,2
309,299,304,310,2
308,294,304,309,2
306,287,304,307,2
303,279,305,304,2
301,274,307,303,2
301,274,309,301,2
301,277,310,298,2
301,281,309,292,2
300,288,307,285,2
299,296,306,281,2
298,301,304,281,2
298,299,304,286,2
299,291,303,294,2
299,282,303,302,2
299,276,303,307,2
299,274,304,310,2
300,277,304,310,2
302,284,306,310,2
305,288,308,312,2
308,289,311,317,2
309,291,314,322,2
310,295,314,326,2
309,302,313,328,2
308,309,311,327,2
306,317,306,323,2
305,325,302,318,2
304,329,300,314,2
304,332,300,312,2
305,334,301,311,2
307,333,303,310,2
308,329,305,309,2
309,325,307,310,2
310,319,308,312,2
310,312,309,314,2
311,306,310,315,2
313,301,310,313,2
314,299,311,311,2
315,302,312,310,2
316,307,314,310,2
316,311,314,312,2
315,312,313,314,2
314,312,311,316,2
313,314,308,317,2
313,319,305,317,2
314,325,304,316,2
315,331,303,315,2
314,333,302,314,2
311,328,303,312,2
306,314,306,312,2
302,298,308,312,2
299,288,309,313,2
298,284,310,315,2
299,284,309,315,2
300,288,308,314,2
300,294,306,311,2
300,297,304,307,2
299,295,302,304,2
297,287,302,303,2
296,277,302,303,2
295,267,304,304,2
296,263,306,305,2
297,266,306,306,2
299,276,306,304,2
302,292,306,300,2
303,313,306,295,2
305,336,306,292,2
305,353,307,293,2
304,362,306,293,2
301,362,305,291,2
296,355,305,287,2
292,347,305,284,2
291,337,305,284,2
291,329,305,286,2
293,321,304,290,2
296,313,303,295,2
299,301,301,299,2
300,285,301,303,2
301,269,300,307,2
301,262,301,313,2
302,266,302,320,2
304,280,303,326,2
306,299,304,330,2
309,317,304,330,2
311,330,304,329,2
312,336,304,328,2
312,339,304,326,2
312,339,305,325,2
312,336,307,323,2
310,331,308,320,2
309,325,309,317,2
307,318,310,314,2
305,308,312,312,2
305,298,312,309,2
304,290,313,307,2
304,290,312,306,2
305,297,311,307,2
307,307,310,309,2
310,314,308,314,2
313,320,305,318,2
315,326,303,322,2
315,330,301,322,2
314,332,299,321,2
312,331,299,319,2
310,329,300,318,2
307,326,301,318,2
305,323,303,317,2
303,318,304,317,2
302,310,305,318,2
301,298,306,318,2
300,284,307,319,2
300,273,307,319,2
300,272,308,319,2
302,278,309,319,2
303,286,309,317,2
305,296,308,316,2
307,307,308,313,2
307,316,307,310,2
308,323,306,308,2
308,327,306,307,2
309,331,305,307,2
311,334,304,307,2
312,337,305,308,2
312,337,306,308,2
312,331,308,309,2
311,323,308,308,2
309,312,307,308,2
306,302,307,308,2
304,297,307,309,2
304,297,308,310,2
304,304,309,311,2
304,308,311,309,2
304,306,312,308,2
304,300,312,306,2
305,290,311,304,2
305,280,311,303,2
304,273,311,305,2
305,270,313,309,2
307,269,314,313,2
307,270,314,313,2
306,274,313,310,2
304,279,310,302,2
300,281,308,292,2
297,281,305,286,2
295,279,303,282,2
294,276,303,280,2
295,278,305,278,2
298,290,306,277,2
301,307,305,276,2
303,325,302,280,2
305,341,298,289,2
305,352,294,300,2
305,356,292,311,2
306,354,292,318,2
309,345,294,321,2
311,330,297,321,2
314,316,300,320,2
316,306,304,319,2
316,304,308,320,2
317,312,311,321,2
315,325,311,322,2
312,333,311,320,2
309,331,311,317,2
306,322,310,314,2
303,318,310,312,2
302,322,312,310,2
301,329,314,308,2
300,333,316,304,2
300,335,315,300,2
301,334,313,297,2
301,333,312,297,2
301,331,309,298,2
300,328,308,301,2
299,321,309,306,2
299,313,311,311,2
300,304,311,313,2
300,296,311,312,2
302,289,310,309,2
304,282,308,307,2
304,274,306,305,2
305,271,305,304,2
305,281,304,305,2
306,299,303,309,2
307,316,303,312,2
308,325,302,313,2
308,329,301,311,2
307,329,299,308,2
305,327,298,305,2
305,325,297,304,2
304,324,298,306,2
304,322,300,310,2
305,316,302,315,2
306,307,305,317,2
305,299,308,318,2
305,292,311,317,2
306,289,315,315,2
307,291,317,313,2
308,297,317,313,2
308,302,316,312,2
309,302,314,312,2
308,302,313,312,2
307,304,313,309,2
306,308,311,306,2
304,313,309,302,2
303,318,308,298,2
301,322,307,294,2
300,326,306,293,2
300,328,306,294,2
300,323,308,297,2
300,313,309,302,2
300,297,310,307,2
302,279,312,313,2
306,266,314,320,2
312,259,316,324,2
316,261,318,324,2
318,269,317,321,2
318,282,315,316,2
315,293,312,312,2
311,298,309,310,2
307,297,306,310,2
303,292,305,314,2
301,288,306,320,2
301,284,309,326,2
302,281,311,330,2
303,280,312,331,2
304,280,311,330,2
305,280,310,327,2
307,284,309,323,2
308,291,308,318,2
309,300,307,313,2
309,310,307,310,2
309,317,306,309,2
309,321,307,309,2
309,325,309,310,2
310,328,311,310,2
311,332,313,309,2
312,336,315,308,2
312,340,315,307,2
311,341,314,306,2
309,338,312,307,2
308,330,310,308,2
307,318,308,311,2
306,308,307,313,2
305,304,307,315,2
305,308,307,316,2
304,315,307,315,2
303,321,308,314,2
302,326,309,313,2
302,330,311,311,2
302,331,313,310,2
303,329,315,310,2
303,328,315,309,2
304,328,315,308,2
307,327,314,309,2
309,322,312,311,2
312,315,310,313,2
313,309,308,314,2
314,304,305,315,2
314,301,302,314,2
311,297,300,311,2
307,290,297,309,2
305,283,296,307,2
304,280,297,307,2
304,285,300,308,2
305,293,301,309,2
305,300,302,310,2
305,303,302,310,2
304,302,301,308,2
303,294,301,305,2
301,281,299,302,2
301,270,299,301,2
301,267,300,302,2
303,274,303,306,2
306,288,304,310,2
309,301,307,316,2
312,312,311,320,2
313,316,314,322,2
313,316,316,320,2
311,313,315,316,2
308,309,312,311,2
305,305,309,304,2
302,306,307,297,2
301,306,305,289,2
302,306,302,281,2
303,305,299,272,2
303,305,294,266,2
300,307,290,264,2
298,309,287,270,2
296,308,286,282,2
297,305,288,301,2
300,301,293,321,2
305,303,300,338,2
311,311,306,347,2
316,322,311,349,2
319,332,313,344,2
319,340,315,336,2
319,344,316,329,2
318,346,316,323,2
317,345,318,319,2
316,343,319,316,2
314,338,320,314,2
313,332,319,314,2
311,322,318,312,2
309,308,317,312,2
308,295,316,312,2
306,282,315,311,2
304,271,314,309,2
302,264,313,306,2
302,261,312,303,2
302,262,312,300,2
303,266,311,299,2
304,273,310,300,2
305,283,309,304,2
306,292,307,309,2
306,298,307,313,2
307,297,307,315,2
307,296,307,315,2
307,297,308,312,2
306,302,307,306,2
305,308,307,300,2
306,315,306,296,2
307,322,307,293,2
308,327,308,292,2
310,330,308,293,2
310,331,308,296,2
311,330,307,301,2
311,330,308,308,2
311,329,309,315,2
313,330,311,320,2
315,332,312,324,2
316,335,313,326,2
318,338,313,328,2
319,341,313,328,2
318,341,311,327,2
315,338,310,324,2
312,332,309,322,2
310,326,308,320,2
308,321,308,319,2
307,317,307,317,2
306,314,307,315,2
307,312,307,314,2
307,309,307,314,2
307,304,306,313,2
307,296,304,313,2
306,283,302,312,2
304,270,301,312,2
302,260,302,311,2
301,258,304,312,2
301,259,309,314,2
303,252,314,316,2
304,239,320,319,2
305,224,324,319,2
305,212,326,317,2
306,215,328,314,2
309,239,329,309,2
312,272,326,302,2
312,306,320,289,2
310,332,311,276,2
306,347,304,265,2
302,352,301,259,2
301,353,299,261,2
302,351,298,270,2
304,351,295,282,2
304,349,293,293,2
304,347,291,302,2
303,346,290,307,2
303,344,289,310,2
303,343,289,312,2
305,342,291,316,2
306,340,295,320,2
308,336,299,325,2
310,332,304,329,2
312,327,309,331,2
313,321,313,331,2
314,316,316,330,2
314,308,318,329,2
313,299,318,326,2
311,289,317,323,2
309,282,317,320,2
309,282,317,317,2
308,287,318,313,2
308,297,318,310,2
307,309,318,307,2
307,321,316,306,2
307,332,315,305,2
307,338,314,305,2
306,341,313,305,2
305,339,312,305,2
304,334,311,305,2
303,325,310,305,2
303,313,308,305,2
301,300,306,305,2
300,285,306,305,2
300,272,306,305,2
299,262,307,304,2
299,257,309,304,2
299,257,310,303,2
300,261,311,299,2
300,267,312,296,2
301,277,312,294,2
303,290,312,295,2
305,301,310,296,2
306,310,307,299,2
308,315,305,303,2
310,319,304,308,2
313,323,304,311,2
316,324,304,312,2
316,322,303,312,2
314,318,303,312,2
311,313,304,311,2
308,309,304,309,2
304,309,305,306,2
302,311,306,304,2
301,314,306,302,2
301,318,306,301,2
302,321,306,300,2
303,322,306,299,2
304,323,306,299,2
305,324,307,301,2
307,324,308,303,2
309,323,308,306,2
308,317,308,309,2
307,310,307,312,2
305,306,307,313,2
305,304,308,313,2
304,302,309,311,2
303,298,310,310,2
302,292,310,308,2
301,286,310,307,2
299,281,308,307,2
299,279,307,308,2
301,279,307,309,2
303,278,308,310,2
305,274,307,308,2
305,273,307,303,2
304,276,308,296,2
302,280,307,289,2
299,282,306,284,2
297,284,305,284,2
297,289,303,288,2
299,301,303,293,2
303,316,304,300,2
306,328,306,305,2
308,331,307,308,2
310,328,308,311,2
310,323,309,311,2
310,324,308,307,2
308,330,305,304,2
306,336,302,302,2
305,338,300,304,2
304,339,298,308,2
303,336,299,314,2
304,333,300,320,2
305,329,303,323,2
305,322,304,324,2
305,313,306,324,2
304,301,307,322,2
303,292,307,320,2
302,287,307,318,2
302,286,308,317,2
303,284,310,317,2
304,282,311,316,2
305,281,312,316,2
306,282,312,315,2
307,288,313,312,2
307,298,314,306,2
307,310,314,299,2
307,319,315,294,2
307,323,317,290,2
305,322,318,289,2
303,315,317,290,2
302,307,316,292,2
302,306,314,296,2
302,307,312,298,2
303,306,309,300,2
304,298,305,302,2
303,289,303,304,2
302,282,302,304,2
300,282,299,303,2
298,285,298,301,2
297,287,297,300,2
297,289,295,301,2
297,294,294,302,2
299,301,292,307,2
301,311,291,312,2
303,322,289,316,2
304,330,288,317,2
305,333,287,317,2
305,333,286,315,2
304,333,286,313,2
303,330,289,311,2
303,323,293,312,2
304,315,297,313,2
305,306,302,315,2
306,301,307,316,2
307,302,310,317,2
308,304,312,317,2
308,301,314,318,2
309,297,314,319,2
310,293,314,319,2
311,285,313,319,2
311,275,311,319,2
309,262,310,318,2
307,249,311,318,2
306,249,314,317,2
306,265,316,314,2
307,288,316,310,2
308,310,313,304,2
308,328,311,298,2
310,342,310,292,2
312,353,311,286,2
314,358,311,280,2
316,357,312,276,2
315,351,312,277,2
314,344,313,285,2
311,336,313,296,2
308,329,313,306,2
305,322,312,313,2
302,314,311,316,2
300,305,309,315,2
299,298,307,313,2
300,296,305,312,2
302,303,304,313,2
305,311,304,314,2
306,317,304,316,2
306,318,304,317,2
305,317,304,318,2
305,315,306,318,2
305,315,306,317,2
305,314,307,316,2
304,313,307,313,2
303,312,307,312,2
302,310,306,312,2
302,306,305,312,2
303,302,304,312,2
305,296,303,312,2
306,291,302,313,2
307,285,302,313,2
307,281,303,313,2
307,279,304,314,2
307,279,306,315,2
307,281,308,316,2
307,282,310,317,2
307,277,312,318,2
306,267,313,318,2
303,255,313,317,2
301,243,314,315,2
298,235,315,310,2
297,236,315,302,2
296,242,314,295,2
296,255,312,287,2
297,276,308,280,2
300,303,305,275,2
303,326,303,273,2
306,342,303,276,2
308,351,305,281,2
310,355,307,286,2
311,354,308,288,2
311,350,309,289,2
310,344,311,290,2
309,340,314,292,2
309,339,316,298,2
308,340,318,307,2
309,341,317,317,2
310,339,313,324,2
311,337,307,325,2
311,335,302,323,2
309,335,296,319,2
309,335,293,316,2
310,333,290,314,2
309,329,288,313,2
306,324,288,311,2
303,321,289,310,2
301,320,290,310,2
300,321,292,310,2
300,322,294,311,2
300,324,296,313,2
300,325,297,312,2
300,323,298,310,2
300,320,299,309,2
300,315,300,309,2
301,311,302,310,2
302,307,303,310,2
302,303,304,311,2
302,298,305,311,2
302,291,307,312,2
301,282,309,312,2
301,269,310,313,2
302,255,313,314,2
302,243,315,315,2
303,233,319,315,2
305,229,322,315,2
308,230,325,314,2
310,235,327,311,2
311,244,327,308,2
310,253,325,305,2
308,260,321,304,2
307,269,318,305,2
306,284,315,304,2
307,300,312,302,2
306,314,308,297,2
304,324,303,289,2
303,334,300,284,2
303,343,299,284,2
303,353,298,287,2
304,362,298,290,2
304,369,299,293,2
305,374,300,296,2
305,378,302,297,2
306,378,304,298,2
308,376,307,300,2
311,374,311,304,2
313,370,313,308,2
314,365,315,313,2
315,355,315,317,2
314,340,315,319,2
313,323,315,320,2
312,307,315,319,2
310,293,315,317,2
309,282,314,315,2
308,273,312,314,2
307,270,311,311,2
306,272,310,310,2
306,277,309,308,2
306,282,309,306,2
306,285,309,304,2
306,288,307,302,2
305,292,306,299,2
306,301,305,296,2
306,308,305,292,2
305,308,304,288,2
303,303,302,286,2
301,295,301,286,2
300,288,300,290,2
301,282,302,298,2
303,279,304,307,2
305,282,307,314,2
306,286,308,316,2
306,289,307,314,2
304,291,306,310,2
303,293,306,306,2
303,298,306,302,2
304,304,305,300,2
305,308,304,299,2
306,310,304,301,2
308,313,304,302,2
309,317,305,304,2
311,323,305,305,2
313,329,305,305,2
313,333,304,305,2
313,331,303,305,2
313,324,301,305,2
312,314,302,305,2
311,304,303,305,2
309,300,305,304,2
306,299,306,302,2
303,298,307,300,2
300,297,309,298,2
298,294,310,297,2
296,292,309,296,2
297,289,308,294,2
298,288,307,293,2
302,290,307,295,2
305,295,307,299,2
307,296,308,303,2
308,292,309,308,2
307,284,309,312,2
305,275,308,315,2
305,271,308,316,2
304,274,309,316,2
304,282,309,314,2
304,298,307,312,2
304,318,306,310,2
305,335,303,308,2
306,345,302,308,2
307,349,300,307,2
308,348,299,306,2
309,344,299,306,2
309,338,298,305,2
309,332,297,305,2
308,326,297,303,2
307,324,297,302,2
306,326,297,300,2
307,328,298,300,2
307,329,299,301,2
307,330,299,303,2
307,334,300,305,2
307,339,302,308,2
307,341,303,311,2
306,336,302,312,2
304,326,302,312,2
303,312,302,310,2
302,297,302,305,2
301,283,302,299,2
299,271,302,293,2
298,265,303,287,2
299,266,305,284,2
302,271,307,286,2
305,278,309,292,2
307,284,310,302,2
308,288,310,312,2
308,292,309,318,2
309,299,308,321,2
309,307,307,320,2
309,312,305,319,2
308,313,303,317,2
306,307,301,317,2
304,296,301,317,2
302,283,300,316,2
300,272,299,313,2
301,270,300,311,2
303,277,301,311,2
306,287,302,310,2
308,301,302,311,2
309,315,302,311,2
310,326,303,311,2
310,332,303,310,2
311,335,303,309,2
311,334,304,307,2
311,331,304,307,2
310,328,304,306,2
311,325,304,305,2
311,323,304,304,2
310,321,302,302,2
308,319,300,300,2
307,316,298,299,2
306,310,298,301,2
307,300,300,303,2
308,288,304,306,2
307,273,308,307,2
307,263,311,307,2
307,262,314,306,2
307,273,315,305,2
309,291,314,304,2
310,303,312,301,2
311,299,310,299,2
311,282,307,298,2
310,260,306,299,2
310,242,307,302,2
310,237,310,305,2
311,246,312,307,2
311,265,313,304,2
310,293,312,301,2
310,327,312,298,2
309,359,313,298,2
309,383,313,301,2
308,392,314,305,2
308,387,316,309,2
308,373,319,313,2
308,356,321,316,2
308,340,321,317,2
308,331,318,317,2
307,326,315,316,2
307,321,313,312,2
307,314,313,304,2
307,305,313,296,2
309,298,312,290,2
310,293,311,285,2
311,291,310,284,2
311,293,308,288,2
311,299,308,298,2
310,307,308,309,2
309,313,307,318,2
308,315,306,322,2
307,314,305,323,2
307,315,304,321,2
306,321,304,318,2
305,327,305,315,2
304,328,306,313,2
301,321,307,310,2
298,310,307,305,2
294,296,306,297,2
290,280,304,288,2
288,266,303,282,2
287,258,303,282,2
290,258,303,291,2
294,266,304,304,2
300,282,305,318,2
305,299,305,327,2
308,312,306,329,2
309,319,305,326,2
309,319,304,322,2
308,317,304,318,2
309,317,302,315,2
311,322,301,314,2
313,329,301,313,2
313,332,301,312,2
312,327,301,310,2
310,318,301,306,2
308,307,303,303,2
306,298,304,301,2
306,296,306,301,2
307,301,307,302,2
308,308,307,304,2
310,317,309,307,2
312,324,311,312,2
314,327,312,317,2
315,326,313,319,2
314,323,313,318,2
313,319,311,315,2
310,313,310,311,2
308,307,308,308,2
306,301,307,307,2
304,296,307,307,2
303,291,308,307,2
302,290,309,308,2
301,288,308,307,2
300,287,306,306,2
301,290,305,304,2
302,298,304,301,2
303,306,302,299,2
304,312,300,297,2
305,317,299,297,2
307,321,300,299,2
309,322,301,303,2
311,318,303,306,2
311,311,304,308,2
311,303,303,308,2
311,297,302,307,2
311,288,300,306,2
312,282,300,304,2
312,278,300,302,2
311,274,301,299,2
308,271,302,293,2
303,271,302,287,2
300,277,301,283,2
298,290,300,282,2
298,304,300,287,2
301,315,302,296,2
304,321,305,307,2
307,325,307,316,2
308,329,309,321,2
309,333,310,323,2
309,334,310,323,2
310,332,310,321,2
310,327,309,318,2
309,321,307,314,2
309,315,306,310,2
308,307,306,305,2
307,300,306,300,2
307,295,307,296,2
307,291,308,294,2
308,290,309,294,2
310,292,309,297,2
313,297,309,300,2
315,305,310,304,2
316,313,312,308,2
315,322,313,311,2
312,328,314,315,2
310,329,314,320,2
308,324,314,324,2
308,317,314,329,2
308,311,313,330,2
307,309,312,329,2
305,308,310,326,2
304,307,308,321,2
302,303,306,317,2
300,296,304,313,2
300,286,304,310,2
300,275,305,308,2
301,267,307,306,2
303,265,307,305,2
304,268,307,304,2
305,273,305,305,2
305,278,303,305,2
304,284,300,306,2
304,291,299,305,2
304,302,298,304,2
304,314,299,303,2
304,324,299,302,2
304,331,300,302,2
303,334,299,303,2
304,335,300,304,2
305,333,300,305,2
306,328,300,306,2
307,318,301,306,2
309,305,303,305,2
310,295,306,302,2
311,287,310,299,2
311,279,312,294,2
310,271,314,292,2
310,267,315,293,2
311,271,316,296,2
313,282,316,301,2
314,296,314,306,2
315,310,313,312,2
316,325,312,315,2
317,337,311,315,2
317,345,310,313,2
316,347,311,310,2
314,344,311,310,2
311,337,311,312,2
308,331,310,314,2
306,329,309,315,2
305,327,308,315,2
305,326,306,314,2
305,325,305,311,2
306,324,303,307,2
307,322,300,304,2
306,318,298,301,2
306,312,296,300,2
306,306,295,300,2
306,301,294,303,2
306,298,296,307,2
306,292,300,313,2
306,283,304,317,2
305,272,308,318,2
305,260,311,316,2
305,255,314,315,2
307,256,316,314,2
307,264,315,312,2
308,276,312,312,2
309,288,309,312,2
311,300,305,312,2
312,311,303,308,2
313,320,302,300,2
313,329,303,291,2
313,339,304,283,2
312,348,305,279,2
312,354,306,282,2
312,356,307,291,2
313,355,309,302,2
313,352,311,311,2
313,345,312,317,2
313,335,312,321,2
311,323,311,322,2
309,309,310,323,2
308,297,310,324,2
308,288,310,325,2
308,282,311,325,2
309,285,312,323,2
312,292,315,321,2
314,300,317,317,2
314,305,319,314,2
314,307,319,311,2
314,312,318,308,2
315,318,317,306,2
316,322,316,305,2
316,324,313,304,2
315,325,312,304,2
313,323,311,304,2
312,319,311,305,2
310,312,311,304,2
309,304,312,303,2
308,298,313,303,2
308,295,313,303,2
308,300,312,305,2
309,309,311,307,2
310,317,311,309,2
310,321,310,309,2
309,322,310,308,2
308,323,309,306,2
307,324,308,303,2
306,326,306,302,2
306,330,306,302,2
306,334,306,304,2
308,334,308,306,2
309,328,308,307,2
309,319,307,309,2
309,308,305,309,2
308,296,304,308,2
307,286,304,307,2
307,278,303,307,2
306,275,303,309,2
305,275,303,312,2
305,276,304,315,2
304,276,305,317,2
304,271,306,319,2
303,261,307,320,2
302,250,307,321,2
303,241,308,323,2
305,243,309,324,2
307,257,309,323,2
310,278,310,322,2
312,299,310,319,2
311,317,310,317,2
310,328,309,312,2
308,336,309,309,2
307,342,308,308,2
307,349,308,308,2
310,353,310,309,2
313,354,312,310,2
317,353,313,310,2
319,352,313,308,2
320,346,311,307,2
318,334,310,307,2
316,322,311,309,2
314,313,311,312,2
311,311,312,315,2
310,313,311,317,2
308,318,309,317,2
306,322,307,314,2
304,322,305,312,2
302,317,304,308,2
300,308,302,304,2
298,300,301,301,2
297,296,299,298,2
297,295,297,297,2
297,297,296,297,2
299,297,295,299,2
300,297,293,303,2
300,294,292,306,2
300,290,292,310,2
300,285,294,311,2
299,279,297,312,2
300,271,300,312,2
302,261,305,312,2
304,256,310,310,2
306,260,313,306,2
308,273,315,302,2
310,289,315,299,2
312,302,312,298,2
313,310,309,299,2
312,312,305,302,2
311,307,302,306,2
310,300,301,313,2
310,296,302,318,2
309,298,302,321,2
309,309,303,322,2
311,325,306,320,2
314,339,307,319,2
317,348,308,316,2
318,353,307,313,2
319,354,307,311,2
319,352,307,310,2
318,347,307,309,2
314,340,308,309,2
311,334,310,309,2
306,328,311,309,2
303,320,312,307,2
300,312,311,303,2
299,303,311,299,2
299,293,310,296,2
300,286,310,295,2
300,284,311,296,2
300,290,310,298,2
300,300,310,300,2
299,305,308,301,2
298,303,307,299,2
298,302,307,298,2
301,301,307,299,2
305,299,307,300,2
308,294,306,303,2
309,290,304,308,2
309,288,303,313,2
307,288,302,317,2
307,288,303,321,2
307,291,304,323,2
308,296,305,324,2
309,303,304,321,2
309,309,303,318,2
310,312,301,314,2
310,313,300,310,2
310,310,299,306,2
310,308,299,303,2
311,309,300,302,2
311,315,301,302,2
310,320,301,304,2
309,324,302,306,2
307,327,304,307,2
306,330,307,309,2
306,331,309,309,2
306,330,309,308,2
307,327,308,305,2
307,321,305,301,2
306,315,302,296,2
304,312,300,290,2
301,311,298,286,2
297,310,298,284,2
293,307,299,284,2
290,304,301,286,2
290,301,302,290,2
292,299,303,296,2
296,299,303,304,2
300,297,302,311,2
302,288,302,317,2
302,271,302,320,2
302,250,302,319,2
301,235,303,317,2
301,236,304,315,2
304,252,305,311,2
307,272,305,305,2
308,288,303,298,2
308,300,302,293,2
308,312,301,289,2
308,327,302,290,2
308,342,303,295,2
308,351,304,303,2
308,353,305,312,2
308,348,306,321,2
307,337,307,327,2
306,322,309,330,2
306,309,313,331,2
307,305,316,329,2
308,309,318,325,2
309,316,318,322,2
309,321,317,320,2
309,324,316,319,2
309,327,315,318,2
310,331,314,318,2
310,334,312,316,2
309,336,309,314,2
308,338,308,313,2
307,337,306,311,2
306,338,305,310,2
306,339,306,309,2
308,342,307,310,2
311,345,307,310,2
313,347,307,310,2
315,346,307,310,2
316,343,306,310,2
314,338,305,310,2
311,329,305,309,2
308,315,306,309,2
306,298,308,310,2
307,280,310,310,2
308,265,310,310,2
309,255,310,309,2
309,252,308,309,2
310,259,306,308,2
308,271,303,306,2
306,279,300,305,2
302,284,298,304,2
300,289,297,303,2
298,295,297,303,2
297,296,298,302,2
296,291,299,302,2
295,278,300,302,2
293,261,303,304,2
292,245,305,308,2
291,237,308,312,2
292,239,310,314,2
293,249,312,315,2
295,261,313,315,2
298,270,313,313,2
301,279,311,309,2
302,293,308,305,2
304,314,307,303,2
307,337,306,302,2
308,355,306,299,2
308,363,304,293,2
308,363,301,286,2
309,356,300,279,2
309,344,299,273,2
310,329,300,267,2
307,311,300,264,2
302,295,299,266,2
298,289,297,271,2
294,296,296,279,2
292,309,296,289,2
293,320,298,302,2
295,326,301,314,2
298,329,302,324,2
302,331,304,330,2
304,331,305,332,2
306,328,307,331,2
307,322,308,329,2
309,316,310,326,2
311,310,312,325,2
313,306,314,326,2
314,303,316,328,2
315,302,315,330,2
316,302,314,330,2
314,301,312,328,2
313,298,310,325,2
312,291,308,323,2
311,279,306,320,2
308,265,305,317,2
305,258,305,316,2
303,263,305,314,2
302,272,307,312,2
301,280,308,310,2
300,285,309,308,2
299,290,310,305,2
299,300,309,301,2
301,311,308,299,2
303,322,306,298,2
306,332,305,298,2
308,335,304,298,2
310,333,304,299,2
311,326,304,302,2
310,312,304,303,2
309,296,304,305,2
310,285,306,309,2
312,287,308,313,2
312,298,309,318,2
311,313,309,320,2
309,329,308,321,2
307,342,307,319,2
305,348,306,318,2
304,350,306,316,2
302,349,307,314,2
301,347,308,313,2
301,340,308,311,2
300,328,307,309,2
300,314,305,307,2
299,300,305,306,2
298,285,306,307,2
298,270,309,308,2
299,260,310,308,2
302,259,311,309,2
307,270,310,309,2
310,288,308,309,2
312,310,306,310,2
313,331,305,310,2
312,347,304,309,2
309,355,303,307,2
304,353,301,303,2
298,345,299,296,2
294,334,297,291,2
291,326,297,289,2
291,325,298,292,2
293,330,299,298,2
296,333,300,305,2
299,332,301,310,2
301,326,302,311,2
302,316,302,309,2
302,306,301,306,2
302,297,299,304,2
301,292,297,303,2
301,287,295,304,2
301,281,294,306,2
301,275,294,309,2
302,272,296,311,2
303,276,297,312,2
303,289,299,312,2
302,308,303,313,2
303,323,306,313,2
303,332,308,314,2
303,335,309,314,2
302,331,309,314,2
302,322,309,314,2
302,311,310,315,2
303,301,312,316,2
304,296,313,316,2
305,294,313,314,2
305,291,312,312,2
306,291,310,310,2
306,289,309,308,2
308,287,308,308,2
310,287,307,307,2
310,293,306,305,2
309,297,305,302,2
305,295,302,299,2
300,285,299,296,2
295,275,298,295,2
293,268,299,297,2
293,266,302,302,2
295,271,305,308,2
297,278,308,314,2
300,283,312,318,2
305,288,316,321,2
308,293,318,321,2
311,299,317,318,2
312,307,314,314,2
313,313,311,312,2
314,317,310,311,2
316,316,309,311,2
317,311,309,311,2
319,306,309,311,2
319,304,308,309,2
320,307,307,306,2
321,315,306,305,2
321,323,305,304,2
320,329,304,305,2
317,332,303,306,2
313,330,303,307,2
310,328,304,309,2
306,329,305,309,2
304,331,307,309,2
302,335,307,307,2
300,334,306,305,2
299,328,305,301,2
298,318,305,296,2
299,309,306,290,2
299,303,307,287,2
299,299,308,286,2
297,295,308,289,2
296,287,307,297,2
296,276,306,307,2
297,264,305,317,2
297,251,303,324,2
298,243,302,328,2
299,246,303,328,2
301,263,304,326,2
302,287,304,321,2
304,309,302,317,2
303,326,300,312,2
303,337,298,309,2
303,345,298,308,2
304,349,298,308,2
305,349,300,309,2
307,342,303,310,2
308,329,304,310,2
308,312,305,308,2
307,293,306,305,2
307,277,306,301,2
306,270,307,295,2
307,275,308,293,2
307,289,309,294,2
308,304,310,300,2
308,312,311,308,2
309,315,310,315,2
309,315,310,319,2
308,317,308,319,2
307,321,306,318,2
307,326,306,317,2
307,330,306,316,2
308,334,306,313,2
308,335,304,309,2
306,333,302,303,2
304,329,298,298,2
301,324,296,293,2
300,320,295,292,2
299,320,295,294,2
299,320,297,298,2
299,320,300,301,2
299,318,303,304,2
299,316,304,305,2
300,314,306,305,2
303,314,307,305,2
306,316,309,305,2
310,317,310,306,2
311,313,310,305,2
311,305,310,306,2
310,295,311,306,2
309,282,313,307,2
308,270,316,308,2
308,262,320,311,2
310,262,323,315,2
311,270,323,316,2
310,282,319,315,2
309,295,313,313,2
308,304,307,310,2
308,310,302,305,2
307,314,301,300,2
308,316,301,298,2
308,319,304,301,2
309,323,305,305,2
309,330,306,310,2
310,334,306,313,2
311,336,305,315,2
311,336,305,315,2
311,337,306,314,2
311,337,307,313,2
311,336,309,312,2
311,331,311,311,2
310,320,312,310,2
308,304,313,306,2
304,288,313,303,2
301,276,313,299,2
299,270,312,296,2
298,268,312,294,2
298,269,313,295,2
299,275,314,297,2
302,286,315,303,2
306,298,317,312,2
309,310,316,318,2
310,315,312,321,2
310,309,308,321,2
310,292,304,320,2
310,269,301,317,2
310,251,301,312,2
311,245,302,307,2
310,248,302,300,2
307,256,301,293,2
303,272,300,289,2
300,292,299,290,2
299,309,298,295,2
298,318,297,303,2
298,317,296,311,2
298,310,296,315,2
297,299,298,319,2
298,291,300,321,2
299,291,304,321,2
301,298,308,321,2
302,307,311,321,2
302,312,313,320,2
303,309,313,320,2
304,304,314,320,2
305,299,315,321,2
306,301,316,320,2
307,311,316,318,2
308,328,315,315,2
309,342,314,313,2
309,351,312,313,2
309,357,311,313,2
308,361,309,314,2
308,361,309,316,2
307,357,310,318,2
308,349,310,318,2
307,338,309,318,2
306,323,309,316,2
306,303,309,315,2
306,285,309,315,2
306,275,309,314,2
306,277,310,313,2
307,288,311,312,2
308,304,312,310,2
307,317,311,307,2
304,325,309,302,2
302,327,307,298,2
299,324,305,294,2
299,320,305,291,2
299,317,305,291,2
299,320,305,290,2
298,325,305,290,2
297,328,305,291,2
296,326,305,295,2
296,321,306,302,2
297,318,308,311,2
298,315,310,317,2
297,314,310,320,2
296,314,310,320,2
296,315,310,317,2
296,317,308,314,2
297,318,306,310,2
298,317,303,308,2
301,314,301,307,2
302,311,299,306,2
304,307,299,305,2
304,304,301,304,2
303,300,302,302,2
302,293,303,299,2
301,284,303,298,2
302,274,305,301,2
303,265,305,305,2
304,257,307,312,2
305,256,309,318,2
307,264,310,323,2
309,277,310,324,2
310,291,309,323,2
310,302,307,320,2
309,310,306,318,2
309,316,307,316,2
309,319,309,315,2
310,317,313,315,2
312,314,316,315,2
312,308,316,316,2
311,296,314,315,2
310,280,309,314,2
308,265,304,312,2
306,262,302,312,2
306,272,302,313,2
308,290,303,314,2
310,306,302,314,2
311,318,300,312,2
311,325,298,310,2
311,329,298,307,2
310,332,300,306,2
306,336,303,303,2
302,341,305,301,2
300,344,307,299,2
298,342,310,299,2
299,336,311,300,2
301,330,311,302,2
303,327,311,305,2
304,327,311,306,2
304,328,311,306,2
304,329,310,304,2
304,329,309,302,2
305,330,307,299,2
305,329,307,298,2
306,325,305,299,2
305,318,303,302,2
304,308,301,306,2
304,301,300,311,2
304,299,302,314,2
306,303,304,315,2
307,310,307,314,2
307,315,309,313,2
306,316,309,313,2
305,313,310,313,2
304,305,310,312,2
304,297,310,311,2
304,291,310,310,2
305,285,310,308,2
307,279,310,305,2
307,274,310,303,2
307,273,311,304,2
309,278,312,307,2
310,285,311,311,2
311,293,310,313,2
310,302,307,314,2
309,310,306,314,2
307,315,308,314,2
305,315,309,314,2
304,315,310,313,2
303,316,310,313,2
302,318,310,312,2
302,318,310,311,2
301,314,310,310,2
302,310,312,309,2
303,305,314,309,2
305,299,315,308,2
305,293,315,307,2
306,292,314,306,2
307,297,312,306,2
309,306,312,308,2
312,314,312,310,2
314,317,313,311,2
314,316,312,311,2
313,311,312,308,2
310,306,309,303,2
306,302,306,297,2
302,301,303,292,2
300,307,301,287,2
301,319,299,282,2
302,330,297,277,2
302,337,293,276,2
302,341,291,280,2
302,344,291,286,2
304,346,293,297,2
306,344,297,306,2
308,333,300,313,2
309,313,303,317,2
309,296,304,319,2
308,288,306,318,2
309,286,308,318,2
309,286,311,316,2
309,285,313,312,2
309,284,314,306,2
308,286,314,298,2
307,292,314,292,2
306,297,315,288,2
305,300,315,287,2
305,301,316,292,2
306,300,317,301,2
308,300,318,312,2
309,303,317,320,2
309,309,317,324,2
310,319,316,325,2
311,330,314,322,2
312,338,311,319,2
313,341,309,317,2
313,339,308,316,2
313,332,308,316,2
311,320,307,316,2
308,310,306,315,2
305,305,306,313,2
304,305,306,311,2
304,304,305,308,2
304,303,304,304,2
304,304,303,300,2
303,307,302,297,2
302,310,301,294,2
302,313,302,293,2
302,315,303,294,2
302,313,303,296,2
301,306,304,299,2
301,294,305,301,2
301,282,305,304,2
302,275,307,307,2
305,274,310,312,2
309,279,311,316,2
313,286,313,319,2
316,292,313,322,2
319,300,313,323,2
321,311,311,323,2
321,324,308,321,2
320,339,305,317,2
319,353,302,313,2
316,362,299,310,2
313,366,298,305,2
310,363,298,300,2
306,358,299,292,2
300,351,299,282,2
295,341,299,274,2
291,327,299,272,2
290,312,299,278,2
291,297,299,289,2
294,284,301,302,2
297,277,303,315,2
300,277,305,323,2
303,281,309,329,2
306,283,313,332,2
309,282,316,335,2
311,278,319,336,2
312,272,321,336,2
313,267,322,336,2
313,266,324,334,2
313,268,324,331,2
312,271,322,328,2
311,277,319,323,2
309,288,317,320,2
309,306,313,316,2
308,323,311,313,2
307,333,308,309,2
306,340,305,306,2
305,343,303,303,2
304,341,300,300,2
303,335,297,296,2
302,324,295,294,2
301,309,293,295,2
301,291,294,299,2
303,274,297,305,2
305,260,299,310,2
308,252,303,315,2
311,255,306,318,2
313,268,310,319,2
313,285,311,319,2
313,303,311,317,2
312,314,308,315,2
311,317,306,313,2
310,313,304,312,2
309,306,303,313,2
309,301,302,313,2
309,303,302,313,2
309,311,302,312,2
308,321,303,311,2
307,330,303,309,2
305,336,304,308,2
304,339,303,306,2
303,338,303,305,2
302,334,303,305,2
303,327,301,305,2
305,315,300,305,2
308,303,300,306,2
310,291,301,308,2
310,282,302,309,2
310,278,303,311,2
312,282,304,313,2
314,292,307,314,2
317,304,309,315,2
319,312,310,315,2
319,314,311,314,2
317,313,312,313,2
316,314,312,312,2
315,320,312,311,2
315,327,313,310,2
315,334,313,309,2
314,339,312,306,2
312,343,311,302,2
309,342,309,298,2
305,335,306,291,2
301,321,304,286,2
298,306,303,283,2
298,297,302,282,2
298,295,303,281,2
300,300,302,282,2
302,307,301,285,2
303,312,299,288,2
303,314,297,294,2
304,311,296,301,2
304,306,294,308,2
305,301,294,312,2
306,298,295,314,2
306,303,296,314,2
308,310,298,313,2
309,316,301,315,2
310,319,303,319,2
310,318,304,325,2
310,316,304,329,2
310,312,303,331,2
309,309,301,330,2
308,307,299,328,2
307,305,296,324,2
307,300,294,318,2
306,295,294,313,2
306,289,293,307,2
305,285,295,302,2
305,286,300,298,2
304,290,304,295,2
304,295,307,293,2
305,299,308,296,2
305,301,309,303,2
307,300,311,313,2
309,297,311,323,2
311,292,313,330,2
311,287,314,333,2
311,284,316,332,2
311,284,318,330,2
311,286,320,327,2
310,290,321,324,2
310,295,321,321,2
310,300,318,318,2
310,305,315,316,2
310,308,312,315,2
311,312,309,315,2
311,316,307,316,2
311,317,305,315,2
310,315,303,314,2
309,312,302,313,2
308,311,302,310,2
308,310,303,309,2
308,304,305,310,2
308,291,306,311,2
308,272,306,312,2
307,254,306,313,2
306,246,309,315,2
309,249,316,319,2
315,264,324,323,2
321,294,327,321,2
322,326,323,316,2
319,349,314,309,2
313,359,305,303,2
308,360,299,297,2
304,352,296,289,2
301,343,294,283,2
299,336,295,280,2
299,331,295,281,2
299,328,297,284,2
299,324,299,291,2
298,318,302,298,2
298,311,306,305,2
299,309,307,308,2
302,314,308,309,2
305,325,306,308,2
306,335,305,309,2
307,338,303,313,2
306,335,302,317,2
306,330,302,321,2
307,329,304,324,2
308,333,306,325,2
309,338,309,323,2
310,340,310,322,2
310,339,311,320,2
310,334,312,320,2
309,327,312,320,2
309,319,313,319,2
308,311,313,317,2
307,300,312,316,2
306,287,312,315,2
305,272,311,314,2
303,259,310,313,2
301,253,309,312,2
301,255,307,311,2
302,267,307,312,2
305,283,307,312,2
308,300,307,312,2
310,314,306,311,2
311,326,304,308,2
310,333,302,306,2
309,337,300,303,2
307,335,300,302,2
306,329,301,301,2
305,323,304,301,2
307,320,306,301,2
308,323,308,299,2
309,330,307,298,2
311,340,306,296,2
312,345,306,295,2
313,343,305,294,2
312,335,303,295,2
311,327,300,297,2
311,323,298,301,2
310,321,297,307,2
309,320,298,313,2
308,316,299,316,2
305,313,299,316,2
303,310,298,314,2
302,307,296,309,2
302,301,296,305,2
302,293,296,303,2
303,281,297,301,2
303,268,299,302,2
302,256,301,303,2
301,243,303,304,2
301,235,304,306,2
300,234,305,306,2
300,242,305,305,2
301,261,305,304,2
303,286,305,305,2
305,308,305,306,2
307,325,304,307,2
309,336,305,308,2
309,343,304,308,2
309,346,304,308,2
309,348,303,307,2
309,350,303,307,2
311,352,302,305,2
313,354,302,304,2
313,355,304,303,2
314,352,306,303,2
313,343,309,302,2
312,329,312,302,2
311,310,313,301,2
309,289,313,300,2
307,269,313,298,2
305,256,312,296,2
302,250,311,293,2
301,252,310,292,2
302,262,309,293,2
305,278,309,296,2
309,297,309,300,2
313,314,308,303,2
316,324,307,305,2
319,329,308,307,2
321,335,307,309,2
321,339,307,312,2
319,343,306,313,2
316,342,306,315,2
313,339,305,315,2
310,334,304,315,2
308,330,303,314,2
307,326,303,313,2
307,315,303,312,2
307,298,303,311,2
305,278,303,308,2
304,260,304,306,2
302,252,304,303,2
301,252,304,301,2
301,261,304,301,2
303,274,306,304,2
304,288,307,308,2
305,300,308,311,2
306,306,308,315,2
306,306,309,317,2
307,305,311,319,2
307,305,313,319,2
307,307,312,318,2
307,314,311,317,2
307,321,309,316,2
307,326,306,314,2
307,329,305,311,2
308,330,304,309,2
309,329,304,309,2
310,327,305,309,2
310,324,306,310,2
310,323,307,312,2
311,322,308,314,2
311,315,307,315,2
311,301,304,315,2
310,282,300,313,2
308,262,297,311,2
306,248,295,310,2
305,248,296,308,2
305,260,297,304,2
304,274,298,298,2
300,283,300,290,2
297,289,304,284,2
295,296,306,280,2
295,301,308,279,2
296,303,308,282,2
298,304,308,287,2
300,306,307,294,2
304,313,307,304,2
308,322,308,313,2
311,329,309,320,2
312,332,308,325,2
312,334,307,325,2
311,337,304,323,2
310,340,303,320,2
308,337,302,317,2
306,326,302,313,2
304,311,301,309,2
303,296,301,305,2
303,290,302,302,2
304,293,302,298,2
304,302,300,294,2
303,310,298,292,2
301,311,296,294,2
300,309,297,299,2
302,307,301,307,2
305,306,306,316,2
310,311,312,322,2
313,318,316,324,2
315,323,317,323,2
316,326,317,320,2
314,326,317,317,2
311,329,317,315,2
309,334,316,314,2
307,338,317,314,2
307,337,317,314,2
306,334,317,314,2
306,331,317,313,2
306,329,317,311,2
307,323,317,310,2
307,314,317,310,2
306,300,317,310,2
305,289,317,310,2
304,284,317,310,2
306,291,316,311,2
308,306,317,312,2
311,321,317,312,2
312,332,317,311,2
311,338,315,308,2
308,339,314,306,2
306,337,313,304,2
305,335,311,302,2
304,329,309,299,2
302,319,305,296,2
300,309,303,294,2
297,298,300,293,2
294,293,299,294,2
293,294,300,297,2
294,301,302,303,2
296,308,304,309,2
299,316,306,314,2
302,325,307,317,2
303,332,306,317,2
304,336,305,313,2
305,337,303,308,2
305,339,302,303,2
306,340,302,302,2
308,340,303,304,2
309,336,306,309,2
310,329,309,315,2
309,320,312,319,2
308,315,315,321,2
307,311,316,320,2
306,309,317,318,2
306,307,318,315,2
306,304,317,313,2
306,297,315,311,2
305,287,312,310,2
305,278,312,310,2
305,273,312,310,2
305,274,310,309,2
305,280,308,308,2
304,289,306,306,2
304,301,305,304,2
304,311,304,303,2
303,317,302,301,2
301,316,301,299,2
300,308,300,297,2
299,297,297,296,2
297,287,295,295,2
298,276,294,296,2
299,267,292,297,2
299,265,292,297,2
300,277,292,299,2
303,297,292,301,2
304,316,293,301,2
305,327,294,300,2
305,329,297,299,2
305,327,298,297,2
305,323,301,296,2
305,318,305,296,2
306,316,309,296,2
306,315,313,296,2
306,313,315,298,2
306,311,315,301,2
306,310,313,304,2
307,310,311,306,2
307,310,309,307,2
309,311,308,307,2
310,310,309,305,2
310,301,310,304,2
309,287,310,303,2
306,276,309,302,2
305,273,309,302,2
304,282,309,302,2
305,296,308,303,2
306,309,306,303,2
306,318,304,304,2
306,321,301,303,2
304,322,297,302,2
303,324,295,302,2
303,328,294,302,2
304,331,295,303,2
305,332,297,305,2
305,330,299,308,2
305,321,301,311,2
304,310,304,315,2
304,296,306,319,2
305,286,310,323,2
307,280,314,325,2
310,275,318,325,2
311,272,322,324,2
311,272,323,321,2
310,277,323,318,2
308,285,322,316,2
306,292,321,314,2
305,296,319,313,2
304,294,318,313,2
304,284,316,313,2
303,270,313,311,2
302,260,310,307,2
302,260,307,303,2
303,267,306,302,2
304,273,306,302,2
304,274,307,304,2
305,274,309,307,2
307,277,311,310,2
309,287,313,310,2
310,303,314,308,2
311,318,315,305,2
311,329,316,303,2
311,335,316,301,2
311,337,314,300,2
310,337,311,301,2
310,336,309,306,2
310,334,307,312,2
311,330,306,318,2
310,327,306,322,2
309,325,306,324,2
308,328,306,323,2
306,332,304,320,2
304,333,301,315,2
302,329,298,311,2
302,324,294,306,2
301,318,294,302,2
301,315,294,299,2
301,313,297,298,2
301,314,301,300,2
302,317,305,303,2
304,323,309,306,2
305,328,309,307,2
306,330,309,307,2
307,327,309,307,2
307,318,309,306,2
305,304,310,306,2
303,291,310,306,2
301,285,311,307,2
300,282,311,307,2
299,285,310,305,2
298,289,309,302,2
298,295,308,301,2
299,301,309,300,2
301,306,310,302,2
302,308,310,305,2
304,305,310,310,2
306,297,311,315,2
309,286,310,318,2
311,279,310,319,2
312,279,310,318,2
313,283,308,315,2
312,291,307,313,2
311,304,306,313,2
309,320,306,312,2
306,332,304,311,2
302,336,302,308,2
300,334,301,304,2
298,329,303,300,2
299,323,307,298,2
300,316,311,298,2
302,304,312,300,2
304,291,312,304,2
306,285,311,309,2
308,285,310,313,2
309,291,307,315,2
309,303,304,313,2
308,315,300,309,2
307,322,298,305,2
304,327,297,302,2
303,329,299,299,2
302,328,302,297,2
302,325,304,297,2
302,319,305,298,2
302,312,306,299,2
302,310,304,298,2
303,311,303,296,2
303,310,301,293,2
304,308,300,293,2
304,304,300,295,2
305,301,301,299,2
304,300,300,304,2
304,297,299,309,2
303,293,297,314,2
303,296,296,318,2
304,307,296,320,2
305,319,297,320,2
307,329,299,319,2
309,334,303,317,2
311,336,305,314,2
311,333,307,310,2
310,327,309,306,2
308,318,311,303,2
306,310,311,301,2
305,303,312,300,2
305,302,313,300,2
305,306,313,301,2
306,313,312,302,2
306,318,310,303,2
306,319,308,304,2
305,319,306,305,2
305,316,305,304,2
304,312,304,304,2
302,303,304,304,2
301,288,306,305,2
300,269,309,308,2
299,254,311,310,2
299,247,312,311,2
300,251,311,311,2
302,262,310,309,2
304,276,308,307,2
307,292,307,305,2
309,302,306,304,2
310,307,305,303,2
310,313,304,304,2
310,320,304,305,2
309,324,306,307,2
308,326,309,308,2
307,324,311,307,2
305,317,313,304,2
303,306,313,302,2
300,294,311,298,2
298,283,308,293,2
297,278,307,291,2
297,281,308,291,2
300,291,309,296,2
304,304,309,304,2
309,312,309,313,2
312,317,309,321,2
313,321,310,326,2
313,324,310,327,2
313,326,310,324,2
313,327,310,321,2
313,328,310,318,2
313,327,310,315,2
313,327,309,314,2
312,325,307,311,2
311,323,305,310,2
309,320,303,309,2
307,313,302,310,2
304,302,302,311,2
302,291,304,311,2
301,282,307,312,2
301,280,310,313,2
302,285,313,313,2
303,292,314,313,2
304,299,314,312,2
304,305,313,311,2
304,312,313,309,2
304,317,313,305,2
305,316,313,300,2
304,312,311,295,2
304,303,311,290,2
304,294,311,288,2
304,288,312,286,2
303,287,312,288,2
302,286,311,293,2
301,285,311,300,2
301,287,312,308,2
302,291,312,315,2
302,293,312,320,2
302,290,311,322,2
302,283,310,321,2
301,272,309,319,2
301,265,307,315,2
302,266,305,311,2
303,275,303,307,2
303,282,301,304,2
303,283,298,301,2
301,273,297,300,2
299,258,298,300,2
299,247,300,301,2
300,247,303,302,2
303,264,306,303,2
306,297,309,302,2
308,329,310,299,2
310,352,309,294,2
310,364,308,289,2
309,367,306,285,2
308,367,304,283,2
305,366,302,284,2
303,364,301,288,2
301,362,300,295,2
300,359,300,302,2
298,355,300,307,2
299,348,299,310,2
301,341,298,310,2
304,332,296,309,2
308,323,294,308,2
309,315,294,307,2
310,306,294,307,2
310,298,297,309,2
308,294,299,311,2
307,294,302,312,2
306,299,304,312,2
306,301,306,313,2
305,293,307,311,2
303,276,308,307,2
301,257,309,304,2
299,246,312,301,2
300,249,316,297,2
301,267,319,292,2
303,289,320,285,2
304,309,319,281,2
305,321,318,281,2
306,328,317,285,2
309,334,316,294,2
310,336,317,304,2
313,335,317,314,2
313,331,317,321,2
314,324,317,323,2
314,315,316,323,2
314,303,315,322,2
313,288,314,320,2
310,277,313,318,2
309,275,312,317,2
308,284,310,315,2
308,298,307,313,2
308,311,304,312,2
307,321,303,311,2
305,325,303,310,2
304,324,302,309,2
303,319,303,306,2
302,314,303,302,2
302,310,303,299,2
302,306,303,299,2
302,301,303,301,2
303,297,302,304,2
303,292,302,306,2
304,287,302,308,2
305,284,302,310,2
305,283,302,312,2
306,282,301,314,2
306,281,301,315,2
306,282,301,315,2
305,281,303,314,2
305,281,305,312,2
306,284,306,311,2
305,290,306,309,2
304,299,307,306,2
304,308,308,304,2
305,315,309,302,2
306,324,309,300,2
308,335,309,300,2
309,344,309,302,2
309,349,309,305,2
309,348,308,309,2
308,341,307,312,2
309,330,307,315,2
310,316,309,317,2
311,302,312,318,2
310,291,313,318,2
309,283,314,317,2
308,279,313,316,2
308,282,311,315,2
309,291,309,313,2
312,302,308,312,2
314,312,307,310,2
316,317,307,307,2
315,316,307,307,2
313,309,306,308,2
311,300,305,309,2
309,291,304,311,2
308,280,304,314,2
308,273,305,317,2
308,274,309,318,2
309,279,312,319,2
309,285,314,319,2
308,294,314,317,2
307,304,313,316,2
308,312,313,315,2
310,317,314,314,2
311,322,313,312,2
312,329,312,309,2
311,334,310,306,2
309,339,307,303,2
306,340,305,300,2
304,338,303,298,2
301,333,301,297,2
300,327,299,296,2
299,321,298,294,2
298,317,298,293,2
299,317,298,292,2
301,321,300,292,2
303,326,302,292,2
304,330,304,293,2
304,332,307,296,2
305,334,309,301,2
306,333,312,305,2
306,330,315,308,2
306,325,318,309,2
306,321,318,309,2
307,317,318,307,2
307,310,317,307,2
308,299,315,307,2
309,287,312,307,2
309,276,310,308,2
310,274,310,308,2
310,276,309,309,2
309,276,308,309,2
307,271,305,308,2
305,268,304,306,2
304,277,303,305,2
304,299,304,302,2
305,321,305,298,2
306,337,305,296,2
306,344,305,296,2
306,345,306,298,2
306,345,307,302,2
308,344,308,307,2
309,340,309,311,2
310,335,309,313,2
312,329,310,314,2
312,323,311,315,2
312,317,311,314,2
311,310,309,313,2
309,303,307,311,2
307,296,305,308,2
304,288,302,305,2
302,282,300,301,2
301,281,299,297,2
299,285,299,293,2
298,294,298,290,2
296,308,297,289,2
295,319,296,292,2
293,322,297,298,2
293,315,298,306,2
295,306,300,312,2
299,299,302,317,2
303,297,304,319,2
307,298,305,317,2
309,301,306,313,2
310,305,306,309,2
310,305,307,305,2
312,301,309,304,2
314,297,311,303,2
315,295,312,301,2
315,291,311,298,2
312,282,309,295,2
308,271,307,293,2
304,264,306,294,2
302,264,305,297,2
301,270,304,304,2
303,278,304,312,2
306,286,305,320,2
308,291,305,324,2
309,292,305,323,2
309,292,303,320,2
307,289,302,315,2
305,286,301,309,2
304,283,302,305,2
305,279,304,302,2
305,275,305,298,2
305,276,305,295,2
306,285,304,295,2
307,297,304,297,2
308,306,303,302,2
309,309,302,307,2
308,303,301,312,2
306,293,300,316,2
303,282,299,318,2
302,277,299,318,2
301,280,300,317,2
302,290,303,317,2
304,300,304,319,2
306,300,306,320,2
306,291,308,320,2
306,283,309,319,2
307,288,310,317,2
310,306,310,312,2
312,327,309,304,2
312,342,305,295,2
311,347,301,287,2
310,343,297,283,2
310,333,293,284,2
311,321,290,291,2
311,311,288,299,2
311,305,287,307,2
310,297,286,315,2
309,287,287,321,2
308,274,292,327,2
308,266,298,330,2
309,272,304,330,2
309,290,308,327,2
309,314,309,324,2
309,334,311,321,2
310,348,314,320,2
312,357,316,319,2
314,363,318,319,2
316,365,320,319,2
317,364,321,318,2
317,360,321,317,2
315,354,319,314,2
313,348,318,313,2
311,344,317,312,2
310,339,315,311,2
309,335,313,311,2
307,329,310,311,2
304,322,306,310,2
301,314,303,310,2
299,305,301,308,2
298,299,299,307,2
298,292,298,306,2
300,282,297,306,2
302,271,297,307,2
303,262,297,308,2
304,260,299,309,2
305,267,302,310,2
306,278,305,308,2
307,290,306,305,2
307,302,306,300,2
307,314,306,295,2
308,322,305,292,2
309,325,306,293,2
310,323,306,295,2
309,316,306,299,2
309,306,306,303,2
310,296,307,307,2
310,287,308,310,2
310,281,308,312,2
307,277,306,312,2
305,278,306,312,2
303,285,306,311,2
303,290,306,308,2
302,292,306,304,2
300,293,305,301,2
300,300,304,300,2
300,309,304,300,2
301,317,303,301,2
301,317,303,302,2
300,306,302,302,2
299,288,302,300,2
298,267,302,300,2
298,249,302,304,2
299,243,304,309,2
303,254,306,316,2
306,279,308,321,2
308,306,309,324,2
309,332,308,324,2
310,351,307,324,2
311,362,305,322,2
310,362,304,320,2
308,349,303,318,2
306,324,304,316,2
303,290,306,314,2
300,260,307,312,2
297,239,309,311,2
296,233,310,311,2
297,246,312,312,2
300,272,313,313,2
304,297,313,315,2
307,316,312,316,2
309,324,309,315,2
309,327,306,313,2
309,326,301,309,2
308,320,297,306,2
307,314,296,303,2
307,318,298,301,2
307,328,301,299,2
307,337,303,298,2
306,343,306,300,2
306,346,308,303,2
307,350,311,308,2
308,352,313,314,2
310,351,316,319,2
312,346,316,321,2
312,336,317,319,2
312,324,317,314,2
312,314,316,309,2
311,309,315,304,2
310,308,313,301,2
309,310,309,302,2
308,313,303,304,2
307,318,299,308,2
308,323,294,311,2
311,330,293,312,2
312,333,293,311,2
313,328,295,310,2
312,317,298,309,2
310,305,302,307,2
309,296,305,305,2
307,292,308,302,2
306,291,310,299,2
304,296,310,296,2
303,307,309,294,2
302,319,309,293,2
301,329,311,294,2
301,337,312,296,2
303,342,314,299,2
306,343,315,304,2
309,342,314,308,2
310,342,311,308,2
309,342,308,306,2
308,340,305,304,2
306,335,305,304,2
307,329,306,304,2
306,320,308,302,2
305,308,309,300,2
304,297,309,297,2
303,290,309,294,2
302,285,308,294,2
301,281,306,295,2
300,282,305,298,2
301,291,304,303,2
303,305,305,309,2
306,316,307,314,2
308,322,309,318,2
309,325,310,320,2
310,328,311,321,2
311,329,312,321,2
313,328,312,320,2
315,325,314,320,2
318,322,317,320,2
320,320,319,319,2
320,318,320,316,2
317,318,318,311,2
312,317,316,307,2
307,309,313,304,2
302,297,309,302,2
297,280,306,302,2
295,263,305,303,2
294,256,304,305,2
295,261,305,307,2
297,271,306,309,2
300,282,307,310,2
302,296,308,311,2
305,312,308,311,2
306,326,309,310,2
308,337,308,309,2
310,345,307,309,2
311,348,307,309,2
312,347,306,309,2
312,341,304,308,2
310,334,302,306,2
307,327,299,303,2
305,323,296,300,2
302,322,295,295,2
301,323,295,291,2
301,325,297,287,2
302,327,302,286,2
303,324,305,286,2
304,315,308,290,2
304,304,310,298,2
305,294,312,308,2
306,289,313,317,2
308,288,313,323,2
309,284,312,327,2
310,275,310,327,2
311,270,309,326,2
312,273,308,323,2
312,280,307,319,2
310,287,306,316,2
307,295,306,312,2
304,302,306,310,2
302,308,308,308,2
301,314,309,306,2
301,317,311,305,2
302,316,311,304,2
302,307,309,303,2
301,291,307,303,2
300,273,306,303,2
298,259,306,304,2
297,256,305,305,2
299,265,305,307,2
303,282,306,309,2
308,303,307,311,2
310,321,307,312,2
312,332,305,312,2
312,338,305,310,2
312,340,305,308,2
312,334,305,306,2
310,324,305,302,2
308,315,303,300,2
306,311,302,298,2
307,313,303,296,2
307,316,303,295,2
306,316,302,295,2
304,316,301,298,2
303,317,300,302,2
303,317,301,307,2
302,315,301,312,2
302,311,302,315,2
302,305,302,316,2
301,298,302,314,2
300,291,301,310,2
299,285,300,306,2
298,285,299,303,2
297,291,298,302,2
297,300,300,301,2
298,310,303,303,2
300,322,307,305,2
303,333,310,306,2
307,340,312,307,2
309,344,311,309,2
310,344,309,311,2
311,344,308,314,2
312,341,308,316,2
312,337,309,318,2
312,330,310,319,2
311,322,311,319,2
310,315,311,318,2
308,309,311,318,2
307,305,311,319,2
306,301,311,318,2
306,295,310,317,2
305,291,308,314,2
303,290,306,309,2
302,290,305,304,2
301,287,304,300,2
300,278,305,298,2
298,263,304,297,2
296,248,304,299,2
295,243,306,303,2
297,254,308,306,2
299,276,310,307,2
301,299,310,308,2
303,315,307,307,2
303,321,305,306,2
304,322,303,306,2
305,324,302,309,2
307,328,302,313,2
307,333,302,315,2
307,338,302,316,2
305,339,302,315,2
303,332,302,314,2
301,322,304,314,2
300,313,306,315,2
300,314,308,315,2
299,321,309,314,2
299,329,310,312,2
301,334,310,310,2
305,333,309,309,2
308,323,310,307,2
310,306,310,305,2
310,287,309,302,2
307,271,308,299,2
304,263,307,295,2
302,264,308,294,2
301,272,308,294,2
302,288,308,297,2
303,307,309,300,2
305,324,308,302,2
305,334,306,302,2
305,339,304,302,2
304,340,302,303,2
304,338,301,305,2
304,332,300,309,2
304,323,299,314,2
304,312,299,318,2
303,302,301,321,2
302,296,302,322,2
302,295,305,321,2
302,300,307,318,2
302,305,309,315,2
304,310,310,314,2
305,315,309,315,2
307,323,308,317,2
309,332,305,318,2
309,338,303,320,2
309,339,301,321,2
309,335,301,321,2
308,329,300,319,2
306,322,300,317,2
306,318,300,316,2
305,314,301,315,2
305,307,302,314,2
305,300,303,313,2
305,297,305,313,2
305,299,305,312,2
305,300,306,312,2
305,300,306,312,2
305,297,306,312,2
305,290,305,311,2
304,281,304,311,2
304,273,303,311,2
304,270,302,312,2
304,273,302,311,2
304,282,303,310,2
304,290,303,308,2
304,297,304,308,2
304,302,305,308,2
304,305,304,309,2
305,308,303,312,2
306,310,302,314,2
307,312,301,315,2
307,313,299,315,2
307,309,297,314,2
306,302,295,314,2
306,291,295,313,2
305,275,296,313,2
305,258,298,312,2
305,244,301,313,2
306,243,304,313,2
307,253,307,314,2
309,269,308,314,2
310,287,307,313,2
310,302,305,312,2
309,313,305,311,2
308,321,304,309,2
306,325,303,307,2
304,327,302,304,2
303,329,301,302,2
302,332,301,299,2
300,335,301,296,2
299,335,300,293,2
298,333,300,291,2
297,331,300,291,2
297,329,300,291,2
298,329,300,294,2
300,327,301,298,2
302,324,303,304,2
303,320,306,309,2
305,313,308,312,2
307,303,310,314,2
308,291,312,313,2
309,283,312,311,2
308,277,311,307,2
307,276,309,303,2
306,280,307,298,2
306,292,306,296,2
307,304,306,295,2
308,310,305,294,2
307,304,304,295,2
306,290,302,297,2
304,278,300,299,2
302,273,299,301,2
301,278,298,302,2
300,289,300,302,2
300,302,302,301,2
303,314,306,302,2
305,323,309,304,2
307,324,312,308,2
308,316,313,314,2
307,303,315,319,2
306,290,315,323,2
306,282,316,325,2
306,286,315,323,2
306,299,315,319,2
307,310,315,314,2
307,318,314,310,2
307,325,314,305,2
306,332,313,302,2
306,339,312,300,2
306,344,311,301,2
306,346,309,305,2
307,343,308,312,2
307,336,307,317,2
307,326,307,320,2
307,316,307,321,2
307,306,307,319,2
307,301,305,315,2
307,297,303,310,2
307,290,302,307,2
306,283,301,306,2
306,276,302,307,2
306,270,303,308,2
306,266,305,307,2
307,263,306,304,2
308,261,306,300,2
307,259,305,295,2
306,261,302,292,2
304,268,301,291,2
302,281,300,294,2
300,293,302,299,2
300,305,304,305,2
300,316,308,310,2
301,325,310,315,2
303,332,311,318,2
305,337,310,319,2
306,340,308,319,2
307,345,306,317,2
308,350,303,315,2
309,351,301,312,2
309,347,301,310,2
309,338,303,309,2
309,325,306,308,2
310,310,308,307,2
311,296,310,305,2
311,289,310,303,2
311,290,310,301,2
310,294,308,299,2
308,299,308,298,2
307,307,310,298,2
306,315,311,298,2
304,318,311,298,2
302,317,310,297,2
301,312,309,296,2
300,306,307,296,2
299,301,307,296,2
300,297,308,298,2
301,292,311,298,2
302,284,314,294,2
303,276,315,290,2
304,271,316,288,2
307,273,316,290,2
309,280,315,297,2
311,290,313,307,2
312,300,312,317,2
313,305,311,325,2
313,304,310,328,2
312,304,311,327,2
311,312,312,326,2
311,326,313,325,2
311,336,314,324,2
310,338,314,322,2
308,330,313,320,2
305,315,311,318,2
303,298,308,315,2
301,290,305,313,2
301,289,303,312,2
302,293,301,312,2
303,296,301,312,2
303,295,301,313,2
304,289,302,314,2
304,280,303,314,2
305,273,304,314,2
307,268,306,314,2
308,263,308,315,2
310,261,309,315,2
311,270,309,314,2
312,291,309,313,2
312,316,306,312,2
312,336,305,312,2
311,347,304,311,2
309,349,304,311,2
308,346,304,311,2
308,340,305,312,2
309,332,307,312,2
310,321,307,311,2
309,313,306,310,2
308,310,305,308,2
308,315,305,307,2
309,322,307,308,2
311,331,307,308,2
311,339,308,308,2
311,345,308,308,2
310,345,307,308,2
308,337,306,307,2
306,326,306,306,2
304,318,306,305,2
302,315,306,304,2
301,316,306,302,2
300,317,304,300,2
299,313,303,298,2
298,306,302,297,2
299,296,303,297,2
300,281,303,299,2
302,267,305,302,2
305,262,306,306,2
308,265,306,308,2
310,270,306,308,2
310,280,305,304,2
310,294,304,300,2
310,305,303,296,2
309,308,301,294,2
308,301,301,295,2
308,291,303,300,2
308,289,306,307,2
309,294,309,314,2
309,303,312,318,2
310,308,313,319,2
309,314,313,318,2
308,326,311,316,2
307,341,310,314,2
306,354,308,312,2
305,361,305,311,2
303,362,304,309,2
301,359,304,307,2
301,354,304,303,2
301,344,304,298,2
300,328,306,292,2
301,310,307,289,2
300,295,308,289,2
300,286,309,293,2
301,283,307,301,2
301,284,305,307,2
302,288,302,311,2
303,294,300,312,2
303,302,299,311,2
303,313,300,309,2
302,321,302,308,2
301,327,303,305,2
300,330,304,305,2
299,327,305,306,2
300,321,306,308,2
300,312,307,310,2
302,304,308,311,2
304,301,310,311,2
306,300,313,310,2
307,301,314,310,2
306,301,314,311,2
304,302,313,314,2
302,303,312,316,2
301,304,312,318,2
301,305,312,319,2
302,303,312,318,2
302,297,312,315,2
302,287,311,312,2
302,269,310,309,2
302,244,309,307,2
301,224,308,306,2
301,218,308,304,2
301,229,307,303,2
302,255,306,301,2
304,286,304,299,2
307,317,304,299,2
308,340,303,302,2
308,349,302,306,2
309,343,302,310,2
309,326,301,313,2
309,308,300,313,2
307,299,299,311,2
307,303,299,309,2
306,315,299,308,2
307,331,299,308,2
309,345,301,308,2
310,354,303,307,2
310,357,305,305,2
309,352,308,301,2
308,344,310,296,2
306,335,309,293,2
305,329,308,292,2
305,328,308,295,2
306,329,307,301,2
307,330,307,308,2
308,330,307,314,2
309,328,307,318,2
310,325,306,319,2
310,320,306,318,2
311,311,307,316,2
311,298,308,315,2
311,278,309,314,2
310,253,309,313,2
307,227,309,311,2
304,208,308,310,2
301,207,307,306,2
301,220,307,302,2
302,240,308,297,2
302,264,310,292,2
303,289,312,289,2
302,311,311,290,2
302,326,310,293,2
303,339,310,297,2
303,348,310,299,2
304,351,308,299,2
304,348,307,299,2
304,340,307,300,2
304,332,307,305,2
305,324,308,311,2
307,318,309,317,2
309,316,309,322,2
310,319,309,323,2
310,325,308,321,2
310,325,309,320,2
311,322,312,318,2
312,322,315,316,2
313,324,317,313,2
313,327,316,310,2
312,328,315,308,2
310,328,313,305,2
308,325,311,304,2
306,318,310,304,2
