306,287,307,308,0
303,278,305,308,0
302,270,303,308,0
303,265,303,309,0
304,261,304,310,0
306,261,305,311,0
307,264,306,312,0
307,272,305,312,0
308,281,303,312,0
309,290,302,311,0
311,300,302,309,0
312,306,302,306,0
313,309,301,303,0
313,310,302,301,0
314,310,303,300,0
316,312,305,301,0
318,314,306,304,0
320,318,309,306,0
321,323,310,309,0
323,329,311,312,0
324,334,311,313,0
324,335,311,313,0
323,336,310,313,0
321,341,309,313,0
320,345,306,312,0
319,346,302,310,0
318,344,298,308,0
317,336,294,306,0
315,324,292,305,0
313,311,293,304,0
313,300,294,305,0
313,293,296,304,0
313,289,299,304,0
314,287,303,304,0
316,287,307,304,0
317,288,310,305,0
317,286,312,305,0
313,276,312,306,0
308,265,312,307,0
304,256,311,308,0
303,248,311,310,0
303,242,313,313,0
306,243,316,317,0
309,251,318,319,0
311,262,319,320,0
312,271,320,321,0
313,280,321,320,0
315,291,322,319,0
316,300,322,317,0
316,302,319,314,0
313,295,315,310,0
310,284,311,307,0
308,278,309,305,0
309,280,307,304,0
312,289,307,304,0
316,302,308,305,0
319,314,308,305,0
319,320,308,304,0
318,318,306,303,0
316,312,305,303,0
315,303,306,305,0
316,301,308,309,0
318,306,311,312,0
320,314,313,314,0
319,320,312,314,0
314,321,311,314,0
309,322,310,314,0
307,322,310,315,0
306,322,309,314,0
305,323,308,312,0
306,328,307,311,0
307,335,307,309,0
310,341,307,308,0
310,342,307,306,0
311,340,308,305,0
311,334,309,306,0
311,326,309,307,0
311,318,309,308,0
311,310,309,309,0
310,296,309,309,0
308,280,308,309,0
308,263,308,310,0
309,250,308,310,0
310,244,307,309,0
311,246,306,308,0
311,255,305,307,0
311,266,304,306,0
310,274,303,305,0
310,280,303,305,0
310,285,304,305,0
309,286,304,305,0
309,283,304,305,0
309,278,304,305,0
312,276,305,305,0
316,281,306,305,0
319,292,307,304,0
321,303,306,302,0
320,309,305,301,0
319,313,304,301,0
317,318,304,302,0
317,324,304,303,0
318,326,305,304,0
317,321,305,303,0
314,312,305,302,0
311,300,304,300,0
308,289,302,299,0
307,282,300,298,0
309,283,299,298,0
311,289,296,296,0
311,299,292,294,0
310,309,288,292,0
309,314,287,290,0
307,313,287,289,0
305,303,289,291,0
305,293,293,296,0
306,287,299,301,0
307,289,305,306,0
308,297,308,309,0
308,305,309,310,0
307,309,307,311,0
307,311,305,311,0
308,307,305,313,0
310,304,305,315,0
313,302,305,317,0
316,300,305,319,0
318,295,306,321,0
317,289,306,321,0
316,284,307,321,0
315,279,308,320,0
314,273,309,318,0
314,272,312,317,0
315,280,315,316,0
317,295,317,315,0
317,309,317,312,0
316,319,314,308,0
313,325,311,305,0
310,327,310,304,0
310,329,309,306,0
310,332,309,307,0
311,335,309,308,0
313,338,309,309,0
314,336,309,309,0
314,327,308,308,0
311,315,305,306,0
308,303,304,305,0
306,295,304,305,0
306,292,305,307,0
306,290,306,309,0
304,286,307,311,0
303,281,308,313,0
303,278,309,314,0
304,277,309,314,0
305,277,309,314,0
307,282,309,314,0
308,293,308,315,0
309,303,308,315,0
309,304,309,316,0
306,296,310,316,0
305,288,312,316,0
305,282,314,316,0
306,281,316,315,0
307,284,315,314,0
309,291,314,312,0
311,300,312,311,0
312,309,310,309,0
311,316,308,307,0
310,323,306,306,0
311,331,306,307,0
312,336,306,308,0
313,335,306,309,0
312,329,307,309,0
311,323,308,309,0
310,316,308,309,0
309,311,308,308,0
310,308,308,308,0
312,304,308,309,0
313,298,308,308,0
312,287,308,307,0
313,275,308,307,0
314,266,309,308,0
317,263,309,309,0
320,265,309,309,0
320,271,307,308,0
317,281,306,306,0
314,294,304,305,0
313,308,303,304,0
312,317,303,304,0
311,322,303,304,0
309,324,303,304,0
307,323,302,303,0
303,316,301,304,0
300,307,301,305,0
299,303,302,307,0
301,307,304,309,0
305,313,305,310,0
307,314,304,309,0
310,311,303,308,0
312,308,304,306,0
314,306,305,305,0
315,305,306,304,0
314,304,307,303,0
313,305,308,303,0
313,305,308,303,0
312,303,309,304,0
311,301,308,304,0
310,300,308,306,0
310,304,308,308,0
312,315,310,310,0
314,331,312,311,0
316,339,313,311,0
315,337,312,310,0
312,328,310,308,0
308,316,308,306,0
306,305,307,305,0
305,296,306,304,0
305,286,305,304,0
305,276,304,306,0
307,267,302,309,0
310,260,302,312,0
313,254,303,314,0
315,247,304,316,0
316,239,307,317,0
316,229,311,318,0
314,219,314,318,0
311,215,315,318,0
306,222,312,315,0
302,236,307,311,0
300,254,303,309,0
301,273,301,308,0
303,289,300,307,0
305,302,298,305,0
306,311,297,303,0
304,317,296,302,0
303,321,298,300,0
303,324,302,300,0
305,323,306,301,0
307,316,308,302,0
309,309,311,303,0
313,307,313,305,0
316,309,315,307,0
317,313,315,308,0
317,316,314,308,0
317,319,312,309,0
318,324,310,310,0
320,329,310,312,0
322,334,310,313,0
323,337,310,313,0
322,339,308,312,0
319,334,306,310,0
316,325,303,310,0
314,318,300,309,0
315,313,299,309,0
315,314,299,308,0
315,314,298,307,0
315,311,298,306,0
316,307,298,305,0
316,303,298,305,0
315,298,299,305,0
313,291,300,306,0
311,285,301,307,0
311,283,303,307,0
312,286,304,307,0
313,295,305,307,0
313,305,306,307,0
313,312,307,307,0
311,316,306,308,0
309,316,306,308,0
306,311,307,307,0
303,301,308,306,0
301,285,310,305,0
300,266,311,304,0
301,250,310,304,0
303,241,307,304,0
305,240,305,306,0
306,240,303,309,0
308,241,304,311,0
309,249,306,312,0
310,259,308,312,0
311,269,309,311,0
312,279,311,311,0
316,288,313,313,0
321,296,315,315,0
326,306,317,317,0
328,321,318,318,0
327,337,318,317,0
324,355,318,315,0
321,371,318,314,0
319,380,317,314,0
318,373,315,313,0
314,356,314,312,0
312,338,314,311,0
311,325,315,311,0
310,315,315,310,0
310,305,314,309,0
309,297,313,308,0
310,291,311,307,0
310,286,310,307,0
310,282,309,306,0
310,279,308,306,0
312,278,307,304,0
312,280,306,301,0
312,283,305,298,0
311,287,304,296,0
311,289,304,296,0
311,289,303,297,0
311,291,302,300,0
311,295,301,304,0
313,300,301,309,0
315,303,302,313,0
318,305,303,315,0
317,306,304,316,0
317,305,304,316,0
316,303,304,316,0
315,296,305,316,0
314,288,307,317,0
314,280,309,317,0
314,273,312,317,0
315,270,314,317,0
315,272,316,316,0
314,277,316,314,0
314,289,314,313,0
315,301,311,312,0
315,309,307,312,0
315,310,304,311,0
314,303,303,311,0
311,292,301,311,0
307,283,301,311,0
303,277,300,310,0
300,275,300,310,0
299,280,300,309,0
298,288,299,308,0
299,298,300,307,0
300,309,301,307,0
303,318,302,306,0
306,316,303,305,0
308,308,303,305,0
310,302,304,305,0
313,302,305,304,0
315,306,306,304,0
316,311,305,303,0
315,317,304,302,0
315,320,303,301,0
315,323,303,301,0
314,323,303,300,0
312,321,301,300,0
311,319,301,300,0
311,317,299,300,0
311,313,297,299,0
310,308,296,299,0
311,303,296,300,0
312,297,298,302,0
314,290,300,304,0
317,289,305,308,0
318,294,308,310,0
317,303,310,310,0
316,310,310,308,0
316,312,310,306,0
315,310,310,303,0
314,306,309,299,0
314,303,309,298,0
314,303,309,298,0
313,302,309,300,0
311,298,309,303,0
309,295,308,307,0
308,292,308,310,0
308,293,308,312,0
309,296,309,313,0
309,296,309,314,0
309,292,309,314,0
309,288,309,313,0
308,281,307,312,0
307,271,305,310,0
305,258,305,308,0
305,247,306,307,0
305,238,306,305,0
306,238,307,305,0
310,244,308,306,0
313,252,308,306,0
315,259,308,307,0
315,266,308,308,0
316,277,309,309,0
317,293,310,310,0
319,307,311,311,0
318,315,309,310,0
314,311,305,309,0
309,303,302,309,0
305,297,300,310,0
304,297,301,311,0
306,305,302,312,0
308,317,302,313,0
310,326,302,313,0
311,331,303,314,0
312,331,304,314,0
315,326,306,314,0
319,317,308,315,0
321,305,308,314,0
321,290,307,313,0
318,274,307,312,0
315,269,306,311,0
312,276,305,310,0
310,289,302,307,0
307,302,300,305,0
305,310,299,305,0
304,317,301,306,0
305,316,304,308,0
305,309,306,311,0
304,300,308,313,0
303,293,309,314,0
303,290,310,315,0
304,294,310,315,0
307,305,309,313,0
309,317,307,310,0
312,326,306,308,0
313,326,305,306,0
312,315,304,305,0
310,301,303,304,0
309,290,302,304,0
310,286,302,305,0
310,287,302,306,0
311,289,302,307,0
312,293,303,309,0
312,296,304,310,0
313,295,305,311,0
314,288,305,310,0
315,280,306,310,0
318,282,306,311,0
322,297,309,311,0
325,313,310,312,0
325,321,311,310,0
322,323,310,308,0
319,319,308,306,0
315,311,306,305,0
312,301,305,305,0
311,294,303,306,0
310,286,302,306,0
309,280,302,306,0
309,276,301,305,0
310,279,302,305,0
313,288,303,304,0
315,300,304,302,0
316,312,303,301,0
316,320,302,298,0
314,323,301,298,0
313,322,301,299,0
313,321,303,302,0
313,319,305,304,0
311,314,306,305,0
307,306,305,305,0
304,298,304,305,0
302,296,302,305,0
302,296,301,305,0
304,297,300,305,0
306,300,299,304,0
309,306,299,303,0
313,314,300,302,0
318,319,302,303,0
320,320,304,304,0
320,320,307,306,0
319,322,308,308,0
315,318,309,310,0
310,312,309,311,0
305,308,308,312,0
303,301,307,312,0
302,292,305,312,0
302,281,304,311,0
302,273,304,311,0
304,271,304,311,0
306,271,304,311,0
307,270,304,311,0
309,267,302,312,0
311,264,302,313,0
312,266,303,314,0
314,273,304,315,0
316,282,305,316,0
316,289,305,316,0
316,293,304,315,0
314,292,301,313,0
310,291,297,311,0
307,291,295,309,0
304,287,292,308,0
302,280,291,308,0
301,272,291,309,0
301,266,292,310,0
303,267,296,310,0
306,274,299,310,0
308,286,301,310,0
311,296,302,310,0
312,302,301,309,0
313,302,301,308,0
314,300,301,309,0
314,300,304,310,0
315,307,306,310,0
313,322,307,308,0
313,339,308,307,0
312,350,310,306,0
313,350,311,306,0
314,344,313,307,0
315,334,314,307,0
313,321,315,307,0
313,304,315,308,0
312,285,312,307,0
312,268,309,306,0
311,262,306,305,0
311,271,305,304,0
312,292,305,304,0
313,310,306,304,0
314,319,307,305,0
315,323,307,305,0
314,324,307,305,0
313,321,306,304,0
311,317,305,304,0
310,313,304,303,0
311,309,304,305,0
314,307,307,307,0
316,303,310,310,0
314,299,310,309,0
310,296,308,307,0
305,294,304,302,0
301,294,300,297,0
299,295,298,292,0
299,300,296,288,0
300,305,297,288,0
302,310,298,290,0
304,313,299,293,0
307,314,300,296,0
310,314,301,297,0
311,309,302,297,0
309,299,301,296,0
306,285,299,297,0
303,272,298,298,0
300,261,298,300,0
299,257,300,305,0
299,259,302,309,0
301,265,303,311,0
304,269,303,313,0
306,271,303,313,0
310,272,303,314,0
314,272,303,315,0
318,276,305,316,0
322,285,308,317,0
323,301,310,317,0
323,315,312,317,0
321,322,311,316,0
319,324,311,314,0
318,326,310,313,0
318,333,310,313,0
319,341,309,312,0
317,342,307,312,0
316,335,306,313,0
315,328,307,314,0
315,319,308,315,0
315,313,309,316,0
314,307,310,317,0
312,295,310,317,0
309,278,310,316,0
305,266,308,314,0
303,262,306,311,0
302,265,305,308,0
302,267,304,306,0
304,271,305,305,0
307,278,306,304,0
310,284,307,303,0
310,291,306,304,0
310,300,307,304,0
309,307,307,306,0
308,312,307,307,0
308,317,307,308,0
306,323,306,308,0
305,326,305,308,0
304,325,302,308,0
303,318,301,309,0
304,311,300,309,0
305,310,300,308,0
305,310,300,307,0
304,308,299,305,0
302,304,298,303,0
302,298,298,302,0
303,293,299,303,0
305,288,300,304,0
307,284,301,306,0
308,277,302,307,0
308,269,303,308,0
308,263,304,309,0
309,267,306,310,0
310,280,308,309,0
312,297,308,308,0
313,309,307,306,0
314,314,306,304,0
314,311,305,303,0
313,302,304,302,0
313,293,304,303,0
312,287,305,306,0
312,285,308,309,0
313,289,311,311,0
314,298,313,313,0
315,308,315,314,0
316,316,315,314,0
315,319,314,313,0
313,318,311,310,0
311,314,309,308,0
310,308,307,307,0
309,298,305,305,0
309,290,304,304,0
307,289,302,301,0
305,294,300,297,0
304,302,299,293,0
303,313,298,289,0
304,325,300,287,0
305,333,303,289,0
306,329,306,295,0
305,319,309,301,0
304,307,312,307,0
302,297,314,312,0
301,291,315,316,0
303,290,316,317,0
305,288,316,318,0
308,283,315,317,0
311,281,315,315,0
312,280,313,313,0
313,279,310,310,0
312,282,306,306,0
311,288,302,304,0
312,300,298,303,0
312,313,297,304,0
313,319,298,306,0
311,317,299,308,0
308,309,301,309,0
304,301,303,309,0
302,298,304,309,0
303,300,307,310,0
304,305,310,311,0
305,306,311,311,0
306,302,310,310,0
306,297,310,311,0
307,295,309,311,0
309,296,310,311,0
311,299,312,311,0
310,303,312,311,0
308,303,312,310,0
307,297,310,310,0
306,289,309,310,0
306,283,308,310,0
307,283,308,310,0
309,288,308,309,0
311,299,308,309,0
313,311,309,309,0
314,315,311,310,0
315,315,312,310,0
313,313,312,310,0
311,310,311,310,0
308,306,309,309,0
307,308,310,309,0
307,308,310,310,0
308,306,309,309,0
308,301,308,308,0
308,292,307,307,0
306,283,307,306,0
305,275,308,306,0
304,272,309,306,0
305,276,311,306,0
306,284,311,306,0
308,294,311,305,0
308,303,310,305,0
309,310,309,305,0
310,314,308,305,0
311,317,308,307,0
312,318,307,309,0
314,316,308,310,0
314,309,308,310,0
311,296,308,309,0
307,282,308,307,0
304,270,307,305,0
302,259,307,303,0
301,256,306,301,0
301,258,305,300,0
302,261,304,300,0
301,263,301,300,0
300,260,300,300,0
300,253,301,302,0
301,251,304,306,0
303,256,307,309,0
304,264,309,310,0
305,273,309,309,0
305,284,308,307,0
306,296,306,307,0
309,309,305,308,0
311,320,305,309,0
312,328,304,310,0
312,332,304,310,0
313,335,304,310,0
314,337,306,310,0
314,334,308,310,0
313,325,310,308,0
313,314,310,307,0
313,305,308,304,0
314,304,305,300,0
314,311,303,298,0
314,322,301,296,0
312,332,300,296,0
310,337,299,296,0
308,334,298,298,0
306,326,298,301,0
304,318,299,305,0
304,315,299,310,0
304,315,301,313,0
304,314,303,314,0
304,313,306,315,0
304,310,307,315,0
304,302,306,313,0
305,294,305,311,0
305,288,303,309,0
307,281,303,309,0
309,271,303,309,0
310,259,304,308,0
310,251,306,307,0
310,253,307,306,0
310,263,308,305,0
311,277,310,305,0
313,293,312,305,0
316,309,314,307,0
318,320,316,308,0
319,328,316,309,0
318,333,314,309,0
317,336,312,309,0
316,340,310,308,0
314,344,308,308,0
313,344,307,308,0
310,337,305,307,0
308,327,305,307,0
309,319,306,308,0
312,314,310,311,0
315,315,313,313,0
315,317,315,312,0
313,317,315,311,0
311,317,316,310,0
309,320,317,309,0
310,324,316,307,0
310,329,316,305,0
310,332,315,304,0
310,332,314,303,0
309,326,312,302,0
307,319,311,303,0
306,315,309,304,0
304,313,308,304,0
301,307,309,305,0
301,299,310,307,0
301,291,309,307,0
300,285,307,305,0
302,285,305,303,0
304,292,303,302,0
307,301,303,302,0
308,309,303,302,0
309,313,303,303,0
309,313,304,305,0
311,311,306,307,0
312,308,308,309,0
313,305,309,309,0
313,301,309,309,0
313,295,308,309,0
313,290,306,309,0
311,288,304,307,0
311,287,303,306,0
309,283,301,303,0
307,273,299,300,0
305,262,299,298,0
304,255,299,298,0
303,257,301,298,0
301,269,302,299,0
299,287,302,299,0
297,302,300,297,0
296,313,299,296,0
296,321,298,296,0
298,327,298,296,0
302,330,301,297,0
308,331,304,299,0
312,329,306,301,0
315,324,308,304,0
315,317,308,306,0
314,311,308,308,0
314,311,307,309,0
313,318,305,308,0
313,329,304,307,0
311,335,302,306,0
309,330,302,305,0
306,319,301,305,0
303,308,301,305,0
302,300,303,306,0
303,296,304,307,0
305,297,305,306,0
309,297,305,304,0
310,295,305,302,0
309,293,305,301,0
308,290,307,302,0
310,289,310,304,0
314,288,312,307,0
316,290,313,308,0
316,297,313,308,0
315,304,313,308,0
312,310,312,306,0
308,314,311,305,0
305,315,309,305,0
304,314,309,304,0
305,314,310,304,0
306,315,311,304,0
306,314,312,305,0
307,316,313,306,0
308,319,315,308,0
308,320,316,310,0
307,320,315,311,0
307,318,314,312,0
308,312,314,314,0
310,302,315,315,0
312,292,316,315,0
313,282,316,315,0
311,273,315,314,0
309,265,313,313,0
308,256,313,314,0
309,251,314,315,0
311,254,317,318,0
313,264,319,319,0
314,274,319,318,0
312,282,316,315,0
309,289,312,311,0
306,300,308,307,0
304,319,305,306,0
303,339,303,305,0
303,350,302,305,0
302,352,302,305,0
302,349,302,305,0
302,342,303,306,0
302,333,305,308,0
303,322,307,309,0
305,315,308,311,0
308,313,310,311,0
311,316,311,311,0
314,319,310,310,0
316,319,309,310,0
315,313,308,310,0
315,301,309,311,0
316,289,311,312,0
317,280,314,312,0
318,276,315,312,0
317,276,313,310,0
315,282,310,306,0
312,294,307,303,0
310,309,304,298,0
309,320,302,294,0
308,327,301,290,0
309,328,303,288,0
310,326,304,289,0
311,323,305,291,0
310,320,306,296,0
308,320,309,302,0
307,321,310,308,0
307,319,310,311,0
306,306,309,314,0
303,282,305,315,0
299,253,302,315,0
296,231,301,316,0
296,227,301,316,0
299,242,303,315,0
302,267,303,313,0
303,294,305,312,0
302,316,307,310,0
301,331,308,310,0
301,338,308,310,0
301,340,308,310,0
303,339,308,311,0
304,333,308,311,0
305,325,308,310,0
305,320,310,309,0
305,315,311,309,0
305,315,313,309,0
306,321,315,309,0
307,329,316,308,0
308,334,316,307,0
307,330,314,307,0
305,321,313,306,0
303,310,311,306,0
302,302,311,308,0
303,299,313,310,0
305,300,313,311,0
306,305,312,311,0
306,310,310,310,0
306,313,307,310,0
307,317,305,310,0
307,319,303,310,0
307,318,303,310,0
306,312,301,309,0
306,304,301,309,0
306,295,301,308,0
304,286,301,307,0
302,280,302,308,0
302,277,304,310,0
303,278,307,313,0
305,279,311,316,0
307,281,313,318,0
309,286,314,319,0
310,292,314,317,0
309,295,313,314,0
308,294,311,311,0
307,289,309,310,0
305,281,308,309,0
305,274,306,310,0
305,272,306,311,0
306,274,306,312,0
308,280,308,312,0
308,289,309,313,0
306,296,309,313,0
303,300,309,315,0
301,301,310,317,0
301,300,312,319,0
303,296,314,320,0
306,290,314,322,0
309,284,315,321,0
313,283,315,320,0
316,293,314,318,0
318,306,312,316,0
319,320,310,313,0
319,329,308,311,0
318,334,305,308,0
315,333,303,306,0
313,331,300,305,0
312,330,299,304,0
312,332,299,304,0
313,333,300,304,0
312,326,301,304,0
308,315,301,303,0
302,303,301,302,0
298,292,302,303,0
296,284,303,304,0
294,279,306,306,0
295,277,308,307,0
297,278,310,309,0
301,280,312,311,0
307,284,313,313,0
313,292,313,313,0
317,303,312,313,0
318,316,310,310,0
317,322,308,307,0
314,321,308,304,0
311,315,309,301,0
308,310,309,298,0
304,305,307,295,0
302,298,305,294,0
302,293,302,295,0
303,290,302,296,0
304,291,302,298,0
304,297,302,300,0
302,303,303,302,0
301,307,304,305,0
301,309,305,306,0
302,308,306,308,0
303,306,306,309,0
304,302,306,309,0
305,300,306,310,0
307,304,307,311,0
310,314,309,312,0
311,320,311,312,0
311,316,312,311,0
310,308,312,311,0
309,306,314,312,0
310,315,317,312,0
310,329,319,312,0
310,336,318,311,0
309,335,316,308,0
309,331,314,306,0
309,326,311,304,0
307,317,309,301,0
306,310,307,300,0
305,306,305,299,0
305,302,304,299,0
304,297,304,300,0
303,290,303,301,0
301,284,303,302,0
301,281,304,303,0
302,279,306,303,0
303,275,306,303,0
303,268,305,304,0
303,261,305,306,0
303,256,306,308,0
304,257,308,311,0
306,265,309,312,0
306,278,308,311,0
306,291,306,309,0
306,303,305,307,0
306,309,304,307,0
306,312,304,307,0
306,312,305,308,0
306,309,306,310,0
306,307,308,311,0
307,304,309,312,0
307,300,309,312,0
308,296,310,312,0
310,294,310,311,0
310,294,309,310,0
311,294,308,309,0
313,297,309,308,0
314,303,310,308,0
313,306,310,309,0
312,306,309,309,0
311,301,308,310,0
310,292,307,311,0
309,284,306,312,0
307,281,306,313,0
306,284,306,313,0
307,287,304,311,0
306,285,302,309,0
306,281,301,308,0
305,279,301,306,0
303,281,302,305,0
302,292,304,304,0
301,304,306,303,0
300,307,307,303,0
299,308,308,303,0
299,311,310,303,0
299,316,310,302,0
299,320,311,302,0
300,324,311,302,0
300,324,311,302,0
302,320,311,303,0
303,314,312,303,0
303,309,312,304,0
302,306,311,305,0
300,303,311,306,0
300,300,310,307,0
299,297,309,307,0
300,296,308,308,0
301,295,307,309,0
302,292,307,310,0
304,291,306,311,0
305,292,307,311,0
305,289,307,311,0
305,285,306,311,0
304,283,306,310,0
303,279,305,308,0
303,275,305,307,0
304,278,306,308,0
307,285,309,309,0
309,291,311,311,0
312,296,314,313,0
313,300,316,314,0
311,303,315,313,0
308,308,312,310,0
304,311,307,307,0
301,311,304,304,0
300,311,301,303,0
302,316,301,301,0
305,319,300,300,0
308,320,299,299,0
309,317,299,298,0
310,317,299,297,0
311,319,300,297,0
310,320,299,297,0
309,319,298,297,0
307,317,297,296,0
305,318,298,297,0
305,319,298,298,0
306,319,300,300,0
307,316,301,301,0
308,310,302,303,0
310,303,302,305,0
311,297,303,305,0
311,289,303,305,0
311,284,304,304,0
312,285,304,303,0
314,292,305,303,0
316,304,306,304,0
314,310,305,306,0
309,303,303,306,0
305,286,302,307,0
303,269,302,309,0
305,262,304,312,0
306,264,306,313,0
307,273,306,314,0
307,285,305,313,0
307,295,303,313,0
308,304,302,312,0
308,309,301,310,0
308,306,301,309,0
308,298,301,307,0
306,291,300,306,0
306,289,300,307,0
305,292,299,308,0
305,295,298,309,0
304,297,297,310,0
304,298,297,311,0
303,300,297,312,0
303,303,297,313,0
302,306,297,313,0
301,310,297,313,0
300,311,299,314,0
301,309,302,315,0
302,305,306,316,0
303,300,310,317,0
304,294,313,316,0
307,289,315,317,0
312,290,317,317,0
318,299,318,318,0
322,311,317,317,0
323,319,314,316,0
320,319,311,315,0
317,314,309,314,0
313,308,308,314,0
311,305,307,314,0
311,302,305,313,0
309,299,303,312,0
307,295,301,311,0
306,287,300,310,0
306,274,302,310,0
307,269,306,311,0
310,279,310,311,0
312,293,313,312,0
312,301,315,311,0
309,304,314,309,0
305,302,311,308,0
304,301,309,306,0
306,303,308,306,0
308,306,308,305,0
310,312,309,305,0
310,318,308,305,0
308,319,308,304,0
304,317,307,302,0
299,311,306,301,0
294,303,305,301,0
290,297,303,302,0
287,295,304,303,0
286,293,305,307,0
287,291,308,310,0
288,290,310,312,0
289,294,310,313,0
292,302,311,313,0
295,312,312,312,0
298,319,313,311,0
301,319,312,309,0
303,310,310,307,0
304,294,306,304,0
305,280,304,301,0
306,273,301,299,0
307,274,300,298,0
308,283,300,298,0
308,298,299,298,0
308,312,299,299,0
308,323,299,302,0
307,323,301,305,0
306,317,304,310,0
304,311,306,313,0
303,306,308,315,0
301,299,308,316,0
299,290,307,316,0
299,284,307,317,0
301,283,308,316,0
302,287,309,315,0
303,296,310,313,0
303,308,310,311,0
303,317,311,310,0
303,317,311,309,0
304,312,312,308,0
305,308,312,308,0
306,308,311,308,0
307,311,309,308,0
307,313,307,307,0
307,310,305,307,0
308,303,305,309,0
306,291,305,310,0
303,275,305,311,0
300,263,303,312,0
298,256,302,313,0
298,257,301,315,0
300,259,301,316,0
301,262,302,315,0
300,267,301,312,0
299,277,300,309,0
298,288,300,307,0
299,297,300,306,0
302,304,301,304,0
305,304,302,303,0
308,299,304,302,0
309,292,305,301,0
309,283,307,300,0
309,273,308,298,0
307,267,309,298,0
305,267,310,298,0
305,273,311,299,0
305,279,311,300,0
305,286,310,300,0
304,294,308,299,0
303,303,307,299,0
301,309,306,299,0
300,311,306,300,0
299,311,307,302,0
301,310,310,305,0
304,304,313,308,0
308,288,314,311,0
311,271,315,312,0
314,262,316,314,0
317,266,316,315,0
319,278,316,316,0
320,294,317,315,0
320,309,315,313,0
318,319,312,310,0
314,321,308,306,0
310,312,304,301,0
305,297,301,299,0
302,282,301,297,0
300,273,302,298,0
301,273,304,301,0
302,282,305,304,0
305,295,306,306,0
308,305,307,307,0
311,315,309,309,0
314,324,312,311,0
316,334,314,311,0
317,341,315,312,0
317,343,314,310,0
317,336,313,308,0
317,325,311,306,0
316,314,309,304,0
314,309,307,304,0
313,307,306,303,0
311,306,304,304,0
308,304,303,305,0
307,300,303,306,0
305,294,303,308,0
304,289,303,309,0
304,286,303,311,0
305,286,303,312,0
306,289,304,313,0
307,292,305,314,0
309,296,307,314,0
309,299,308,313,0
308,298,310,312,0
308,293,310,310,0
308,282,310,309,0
310,268,308,309,0
312,256,307,309,0
315,251,305,310,0
316,250,303,309,0
315,252,301,308,0
314,256,299,307,0
313,258,298,306,0
312,261,296,306,0
313,266,296,307,0
312,270,297,307,0
311,270,300,308,0
308,260,303,309,0
304,245,304,310,0
300,235,306,312,0
299,241,309,315,0
300,261,310,315,0
302,289,309,313,0
305,313,308,311,0
306,321,306,309,0
308,315,305,307,0
310,304,304,306,0
311,295,306,306,0
313,291,309,307,0
315,288,312,308,0
315,282,313,309,0
313,275,313,308,0
312,273,314,307,0
311,274,312,305,0
309,275,310,304,0
306,275,308,305,0
304,278,306,306,0
302,282,304,308,0
299,285,304,309,0
298,289,304,311,0
298,296,305,312,0
300,306,306,313,0
304,316,307,314,0
308,322,308,314,0
311,318,307,312,0
312,307,305,310,0
313,300,304,310,0
313,302,305,310,0
313,310,305,310,0
313,315,304,311,0
311,315,302,310,0
310,315,301,310,0
311,319,301,310,0
311,323,302,310,0
312,327,303,311,0
312,326,304,311,0
310,320,305,311,0
307,312,306,311,0
304,305,306,311,0
301,298,306,310,0
300,290,306,310,0
299,277,306,310,0
298,260,306,310,0
299,243,305,310,0
301,232,307,311,0
305,236,309,312,0
309,248,311,313,0
312,260,312,313,0
314,269,311,314,0
314,277,309,312,0
313,281,307,312,0
312,284,306,311,0
310,286,304,309,0
310,289,303,308,0
308,291,302,308,0
308,295,302,307,0
307,299,303,307,0
307,303,302,307,0
306,306,301,307,0
305,307,301,307,0
305,304,301,308,0
304,297,302,309,0
304,287,303,310,0
303,279,304,311,0
302,276,305,311,0
301,275,305,310,0
302,279,306,311,0
305,289,308,311,0
307,299,308,310,0
309,303,307,308,0
310,304,306,306,0
312,305,304,305,0
314,307,303,304,0
316,308,302,303,0
318,306,300,301,0
318,300,299,300,0
314,290,298,300,0
309,279,298,301,0
304,265,297,303,0
299,253,295,305,0
295,249,292,306,0
295,256,291,307,0
297,274,290,306,0
300,297,291,306,0
302,317,292,305,0
304,325,293,303,0
305,324,295,300,0
305,314,296,299,0
305,300,298,299,0
306,288,300,300,0
309,276,304,302,0
311,264,309,305,0
312,252,311,307,0
311,243,311,308,0
310,239,311,309,0
308,241,309,309,0
307,250,310,311,0
308,263,311,314,0
311,281,314,315,0
313,302,318,316,0
315,320,320,315,0
314,331,319,313,0
311,331,317,312,0
308,322,314,311,0
305,310,313,311,0
304,302,314,311,0
306,300,314,312,0
307,300,313,311,0
306,298,312,311,0
305,296,310,310,0
304,294,310,310,0
304,293,311,309,0
301,291,311,307,0
297,287,309,305,0
295,283,308,304,0
296,280,308,304,0
298,276,308,303,0
301,271,308,303,0
303,269,308,303,0
306,271,310,304,0
308,282,311,305,0
311,297,313,307,0
311,302,313,307,0
311,297,312,308,0
309,289,310,307,0
308,284,309,307,0
308,280,306,305,0
307,277,305,304,0
306,274,303,303,0
305,274,303,303,0
305,280,303,304,0
306,294,304,304,0
309,308,306,305,0
310,316,306,305,0
309,317,305,304,0
306,314,305,303,0
304,310,304,303,0
302,305,303,304,0
301,300,301,305,0
302,293,301,306,0
304,284,301,307,0
304,273,302,309,0
303,262,303,309,0
302,255,304,308,0
303,254,305,307,0
304,254,304,306,0
304,252,305,305,0
304,246,305,303,0
305,239,306,302,0
306,237,307,301,0
307,246,306,298,0
308,264,305,295,0
308,284,304,294,0
309,298,302,294,0
310,309,303,296,0
312,320,304,299,0
312,329,303,301,0
311,335,300,303,0
310,340,299,303,0
308,338,300,304,0
305,328,300,305,0
301,315,303,307,0
298,301,305,309,0
297,287,309,310,0
298,282,313,312,0
301,286,314,311,0
301,294,312,308,0
302,298,310,306,0
303,299,307,304,0
306,298,307,303,0
310,297,309,304,0
315,297,310,304,0
317,295,310,305,0
315,295,310,306,0
312,300,309,307,0
309,305,309,307,0
307,305,309,308,0
304,299,309,308,0
301,289,308,309,0
299,279,308,309,0
299,271,307,310,0
300,265,307,311,0
301,259,307,312,0
301,248,308,313,0
301,232,309,314,0
299,217,310,315,0
299,211,311,316,0
302,218,314,318,0
307,232,317,320,0
314,252,319,321,0
318,270,318,319,0
319,283,315,316,0
319,294,311,313,0
318,304,307,311,0
317,313,305,309,0
315,321,304,308,0
312,328,304,307,0
309,333,305,306,0
308,334,306,306,0
307,334,306,307,0
307,330,306,308,0
308,322,305,308,0
308,315,304,308,0
308,310,303,308,0
307,307,302,307,0
306,304,301,306,0
306,303,301,306,0
306,304,301,305,0
307,305,301,305,0
308,308,301,305,0
310,308,301,306,0
311,309,303,307,0
313,308,306,310,0
315,302,308,311,0
316,295,310,312,0
315,291,312,311,0
314,294,312,308,0
311,299,310,306,0
307,299,306,303,0
304,293,303,302,0
302,279,302,302,0
300,263,303,305,0
298,248,305,306,0
296,237,309,309,0
296,233,311,310,0
297,236,312,310,0
300,244,311,309,0
303,251,309,308,0
307,259,307,308,0
312,271,307,308,0
316,284,307,308,0
318,295,307,306,0
317,304,307,304,0
317,314,306,303,0
315,320,304,302,0
311,322,302,302,0
307,320,300,304,0
304,315,297,306,0
302,310,295,308,0
300,305,294,309,0
299,301,295,310,0
300,297,297,311,0
302,295,299,310,0
304,292,301,309,0
307,289,302,309,0
310,290,305,310,0
313,295,307,312,0
314,298,310,312,0
312,300,311,312,0
309,298,311,311,0
308,297,312,311,0
310,306,313,312,0
313,319,315,313,0
316,325,315,314,0
314,320,312,313,0
309,307,308,312,0
303,294,305,311,0
298,285,305,311,0
296,279,306,311,0
294,272,305,311,0
292,260,304,310,0
290,249,304,310,0
289,246,304,310,0
291,254,306,311,0
295,270,308,312,0
298,287,308,312,0
301,297,306,311,0
304,304,304,309,0
306,310,302,308,0
309,313,302,308,0
312,316,303,307,0
313,315,304,306,0
313,317,304,305,0
313,319,303,304,0
311,317,302,303,0
309,313,302,304,0
307,310,302,305,0
306,305,303,307,0
306,301,303,308,0
306,297,305,311,0
307,296,306,312,0
307,295,306,313,0
307,296,305,312,0
306,298,305,311,0
304,297,304,311,0
304,293,304,311,0
304,289,305,312,0
307,286,306,312,0
309,288,307,311,0
311,292,308,311,0
313,296,308,310,0
313,298,307,309,0
313,299,307,309,0
314,299,306,309,0
316,300,307,309,0
316,299,306,309,0
313,293,305,308,0
310,286,305,308,0
307,284,305,308,0
305,288,304,308,0
303,289,303,307,0
302,286,302,307,0
300,279,301,307,0
299,269,301,307,0
299,260,302,307,0
299,252,301,307,0
301,248,301,304,0
303,252,300,302,0
305,260,298,299,0
307,268,297,297,0
310,277,299,298,0
315,288,303,300,0
319,301,306,303,0
320,311,306,305,0
319,318,305,306,0
317,322,302,306,0
315,324,299,307,0
313,325,297,308,0
311,330,296,308,0
311,340,297,310,0
312,349,297,311,0
311,349,298,312,0
309,343,298,311,0
306,332,298,310,0
304,320,297,307,0
301,308,298,304,0
299,298,301,302,0
297,291,303,302,0
296,284,306,303,0
296,279,308,305,0
297,276,310,307,0
298,277,313,310,0
301,283,314,312,0
304,288,315,314,0
306,284,316,314,0
306,272,315,314,0
304,264,314,314,0
303,267,312,312,0
303,279,310,310,0
303,298,307,308,0
303,316,304,305,0
304,328,299,303,0
305,327,297,302,0
306,318,296,304,0
308,310,298,306,0
310,309,301,310,0
311,314,304,313,0
311,318,307,314,0
310,321,308,314,0
309,323,307,313,0
307,322,305,312,0
305,320,303,310,0
304,317,302,310,0
304,314,303,310,0
305,314,305,310,0
306,314,305,309,0
305,313,305,309,0
304,311,305,309,0
302,309,304,310,0
301,308,304,311,0
300,305,304,312,0
299,300,304,312,0
297,296,304,312,0
297,293,305,314,0
298,290,306,315,0
299,284,306,315,0
300,275,305,315,0
301,265,304,314,0
304,263,304,314,0
308,267,305,314,0
310,273,305,313,0
310,277,304,312,0
309,278,303,311,0
308,280,303,310,0
309,289,303,309,0
310,306,304,308,0
310,321,304,305,0
308,331,303,302,0
306,335,302,300,0
304,338,300,298,0
303,341,300,297,0
303,347,299,298,0
303,355,299,299,0
305,358,299,300,0
306,350,300,302,0
308,337,301,304,0
310,322,303,306,0
311,311,306,307,0
311,300,308,307,0
311,293,309,308,0
310,291,309,309,0
309,293,308,309,0
308,290,306,308,0
306,285,303,307,0
304,278,302,306,0
302,273,303,305,0
301,272,304,304,0
301,271,304,300,0
301,269,302,296,0
304,268,299,293,0
308,270,295,290,0
311,276,291,290,0
314,285,290,293,0
314,294,291,298,0
312,298,293,303,0
309,297,295,305,0
307,294,298,307,0
305,291,301,308,0
304,289,305,309,0
304,286,308,310,0
304,284,311,312,0
304,284,312,314,0
305,286,312,315,0
306,291,312,316,0
308,297,312,317,0
311,301,314,318,0
313,302,317,319,0
313,302,319,320,0
312,302,320,319,0
309,300,319,317,0
306,297,316,315,0
304,297,312,313,0
302,299,309,313,0
301,302,307,312,0
301,307,305,312,0
302,315,305,312,0
303,326,306,313,0
307,336,306,312,0
309,344,307,311,0
311,348,307,310,0
310,345,307,308,0
308,333,305,307,0
307,318,305,307,0
307,304,305,308,0
306,297,305,309,0
305,295,306,310,0
304,292,307,311,0
303,287,307,311,0
302,281,306,312,0
302,275,306,313,0
303,276,305,315,0
302,282,305,316,0
301,287,305,318,0
300,293,307,319,0
300,302,308,318,0
300,308,308,316,0
301,310,306,312,0
301,310,304,309,0
302,309,301,305,0
303,304,300,303,0
303,296,300,302,0
304,285,301,302,0
305,276,302,302,0
306,273,303,303,0
307,277,305,305,0
307,285,305,307,0
307,295,305,307,0
306,301,304,308,0
303,300,302,307,0
301,297,301,307,0
299,297,300,308,0
299,301,301,309,0
301,308,303,310,0
303,318,304,311,0
305,324,303,310,0
306,325,302,309,0
306,323,301,307,0
307,323,301,306,0
308,325,301,306,0
308,322,302,305,0
307,316,303,306,0
307,307,304,307,0
306,300,305,308,0
305,298,306,307,0
305,298,306,307,0
305,300,306,305,0
304,299,305,304,0
305,295,305,303,0
306,291,305,302,0
306,290,307,303,0
306,292,307,305,0
305,296,308,306,0
305,301,308,308,0
305,308,307,308,0
303,314,307,306,0
302,317,306,305,0
301,318,305,305,0
301,316,305,305,0
301,314,304,305,0
302,312,304,306,0
302,306,304,307,0
301,299,304,308,0
302,294,305,310,0
303,293,305,311,0
303,294,305,311,0
304,297,304,310,0
305,303,304,310,0
305,308,303,310,0
304,312,303,309,0
303,314,303,308,0
303,313,303,308,0
303,309,303,308,0
303,306,303,307,0
304,308,303,308,0
306,313,303,308,0
308,321,303,309,0
310,325,304,311,0
312,321,305,312,0
311,312,305,311,0
310,303,304,309,0
309,297,304,308,0
310,298,305,308,0
312,302,306,308,0
312,306,306,308,0
311,307,306,307,0
310,304,305,306,0
307,296,303,307,0
304,288,302,307,0
302,280,301,307,0
301,272,300,307,0
301,263,300,307,0
303,258,301,307,0
305,259,302,307,0
305,268,303,306,0
305,277,303,304,0
303,280,302,302,0
301,281,300,301,0
299,282,299,302,0
300,290,299,304,0
302,302,300,305,0
302,310,299,306,0
302,312,298,305,0
302,311,298,304,0
303,309,296,304,0
304,308,294,303,0
305,309,293,302,0
306,312,292,303,0
307,318,295,305,0
308,325,299,306,0
309,330,304,308,0
309,331,307,310,0
309,329,309,311,0
308,324,310,312,0
309,321,310,313,0
311,318,310,315,0
314,314,311,316,0
314,310,312,317,0
312,306,312,317,0
308,304,311,316,0
304,300,310,314,0
299,291,308,312,0
296,281,305,310,0
294,271,302,307,0
293,264,299,305,0
293,265,297,304,0
296,270,295,304,0
299,277,294,305,0
302,285,295,307,0
306,292,297,310,0
307,299,299,311,0
308,308,300,312,0
309,317,300,312,0
309,326,300,312,0
309,329,299,312,0
309,320,298,312,0
308,300,298,312,0
309,277,299,312,0
310,263,302,312,0
312,264,305,313,0
312,273,306,313,0
309,281,305,312,0
305,284,304,310,0
301,288,304,309,0
298,294,308,307,0
297,301,313,307,0
296,309,317,307,0
296,315,320,307,0
296,319,321,307,0
296,320,321,308,0
296,320,321,308,0
297,318,320,309,0
298,319,319,309,0
299,326,318,309,0
300,336,317,306,0
301,348,316,303,0
301,355,314,298,0
301,354,312,294,0
300,347,310,291,0
299,335,309,290,0
299,323,308,291,0
299,314,308,294,0
301,310,309,298,0
303,308,310,303,0
306,307,312,306,0
307,307,312,308,0
306,304,312,308,0
303,296,310,308,0
300,288,309,309,0
298,281,308,310,0
297,277,307,311,0
297,277,306,311,0
299,282,306,311,0
303,291,305,310,0
306,300,304,308,0
309,307,304,308,0
314,313,307,309,0
320,319,312,311,0
325,324,316,312,0
326,329,319,312,0
325,332,319,311,0
323,331,317,311,0
319,323,314,310,0
314,310,310,308,0
309,297,306,307,0
306,288,304,306,0
303,286,302,304,0
301,287,301,303,0
299,290,301,302,0
296,293,301,302,0
294,295,301,304,0
292,300,300,304,0
291,306,300,306,0
291,312,299,307,0
293,315,298,309,0
294,311,299,310,0
296,304,301,311,0
298,297,304,311,0
300,295,306,312,0
304,301,308,313,0
307,309,310,314,0
308,315,310,314,0
307,316,308,314,0
304,314,306,314,0
301,308,305,313,0
299,299,304,312,0
297,290,304,312,0
296,284,304,311,0
296,282,305,311,0
297,288,306,308,0
297,298,306,306,0
297,309,305,305,0
298,320,306,305,0
300,325,308,308,0
303,326,310,310,0
307,325,311,313,0
309,320,311,314,0
310,312,309,313,0
310,302,307,311,0
311,295,303,309,0
312,293,300,306,0
313,293,298,305,0
313,290,299,305,0
312,287,299,305,0
312,290,300,305,0
311,296,302,305,0
309,300,302,304,0
306,300,302,302,0
304,297,302,302,0
304,292,303,302,0
303,287,304,303,0
302,283,305,303,0
300,282,306,302,0
300,284,309,301,0
301,289,310,300,0
302,295,312,300,0
305,302,311,301,0
308,309,310,302,0
309,309,309,304,0
309,306,307,306,0
308,305,308,309,0
306,307,309,310,0
304,307,309,311,0
302,303,308,313,0
302,300,308,313,0
301,300,306,312,0
301,300,306,311,0
300,300,307,312,0
301,300,310,313,0
302,305,312,313,0
303,312,312,311,0
304,318,310,309,0
304,323,308,306,0
305,329,307,305,0
307,337,307,304,0
308,339,306,302,0
307,336,302,300,0
306,331,299,299,0
304,326,297,298,0
303,322,298,298,0
303,321,298,299,0
303,321,300,300,0
303,321,303,301,0
302,320,304,302,0
301,316,305,302,0
301,312,305,302,0
302,309,306,302,0
304,309,306,302,0
305,312,306,302,0
306,313,307,303,0
306,309,307,304,0
306,304,306,305,0
304,302,303,305,0
303,304,302,307,0
304,306,304,309,0
304,305,305,311,0
304,304,306,313,0
304,307,306,314,0
303,311,305,313,0
302,317,305,312,0
303,322,306,312,0
304,324,308,312,0
305,321,310,311,0
306,315,311,311,0
306,309,311,310,0
306,304,311,309,0
305,301,311,309,0
305,299,310,308,0
303,298,308,308,0
303,298,308,309,0
303,299,308,310,0
304,300,309,311,0
305,301,308,311,0
306,300,308,311,0
306,299,309,312,0
306,295,311,313,0
306,286,311,315,0
306,273,310,317,0
306,265,308,318,0
307,261,306,318,0
308,260,305,317,0
309,265,304,316,0
312,277,306,314,0
314,295,309,311,0
316,315,312,309,0
316,328,314,307,0
314,328,314,306,0
309,321,313,304,0
305,310,310,301,0
300,301,306,298,0
298,297,305,299,0
297,300,305,301,0
298,308,307,303,0
299,315,309,306,0
300,319,309,307,0
301,320,311,308,0
302,319,312,309,0
303,317,313,310,0
305,315,314,312,0
306,314,315,312,0
308,312,315,312,0
307,308,315,311,0
305,302,314,310,0
304,300,313,309,0
303,301,313,308,0
303,302,314,308,0
302,298,314,308,0
301,293,315,308,0
300,288,314,310,0
300,285,314,311,0
301,284,311,311,0
302,288,308,312,0
303,295,305,312,0
303,303,302,311,0
304,313,301,310,0
304,323,300,309,0
305,329,302,308,0
307,328,303,308,0
308,319,305,306,0
309,306,307,305,0
310,293,308,304,0
309,285,309,304,0
307,284,309,305,0
307,289,310,305,0
307,299,310,305,0
309,309,310,305,0
310,315,310,305,0
311,316,310,306,0
311,314,310,306,0
311,312,310,308,0
310,313,311,309,0
309,313,311,309,0
307,311,311,310,0
307,307,312,310,0
308,306,312,311,0
309,309,312,310,0
308,310,311,310,0
306,311,309,310,0
305,308,307,310,0
304,301,306,309,0
305,292,306,308,0
306,284,305,308,0
307,279,306,307,0
308,281,307,307,0
309,287,308,305,0
308,295,309,303,0
306,301,308,302,0
305,307,308,302,0
304,313,306,302,0
304,318,305,302,0
303,319,303,302,0
302,320,300,302,0
299,318,298,302,0
297,313,298,302,0
295,305,301,304,0
293,295,303,306,0
293,284,306,307,0
293,272,309,308,0
294,261,310,308,0
296,253,311,307,0
298,251,311,306,0
301,254,310,305,0
304,259,308,303,0
307,269,304,301,0
310,285,300,300,0
311,302,297,298,0
310,314,295,298,0
308,319,294,299,0
307,320,295,301,0
307,321,298,305,0
308,324,303,309,0
309,328,307,311,0
310,336,310,312,0
310,344,310,312,0
309,346,310,311,0
308,344,311,310,0
308,339,311,309,0
309,332,312,309,0
310,328,313,308,0
311,326,313,308,0
313,325,313,309,0
313,328,313,308,0
312,329,310,307,0
310,327,307,306,0
309,323,306,306,0
309,318,305,307,0
311,314,306,309,0
313,310,307,311,0
314,304,309,313,0
313,293,311,314,0
309,276,313,315,0
306,259,313,315,0
303,246,312,314,0
301,242,311,313,0
300,251,312,313,0
300,266,311,311,0
298,276,309,309,0
295,280,307,307,0
293,285,306,305,0
293,292,306,304,0
294,300,306,302,0
296,309,306,301,0
297,317,304,300,0
299,319,302,298,0
300,318,300,296,0
301,317,298,295,0
302,316,297,295,0
302,312,298,296,0
301,302,299,299,0
301,286,301,302,0
301,267,303,305,0
302,252,305,307,0
304,245,307,309,0
304,251,310,310,0
305,269,313,311,0
307,294,316,313,0
311,321,318,315,0
316,345,321,316,0
322,360,322,317,0
324,366,320,315,0
322,360,316,312,0
319,351,311,308,0
316,344,307,306,0
314,339,306,305,0
312,335,304,305,0
310,331,303,304,0
307,326,302,302,0
304,319,301,302,0
302,311,299,301,0
300,305,299,302,0
300,299,299,305,0
302,297,300,308,0
305,298,301,310,0
308,300,301,311,0
311,302,301,311,0
313,302,300,310,0
314,303,299,309,0
313,307,300,306,0
312,312,299,304,0
311,316,298,301,0
309,316,296,300,0
307,311,294,299,0
304,303,293,300,0
304,295,293,302,0
304,288,294,303,0
305,285,294,303,0
306,286,295,302,0
308,291,295,302,0
309,295,296,301,0
310,294,296,301,0
309,285,296,301,0
307,272,297,303,0
308,268,300,307,0
310,278,304,310,0
312,299,306,313,0
312,318,308,312,0
311,329,307,310,0
310,331,307,308,0
310,327,307,306,0
309,320,305,304,0
308,315,304,302,0
307,315,303,300,0
309,322,304,300,0
312,334,308,302,0
316,341,310,304,0
316,347,312,304,0
314,352,311,304,0
311,358,311,304,0
308,362,311,305,0
304,364,311,307,0
301,360,311,309,0
300,348,311,310,0
299,329,310,311,0
297,310,308,312,0
296,291,308,313,0
296,277,308,314,0
299,273,310,315,0
305,281,313,316,0
311,297,313,314,0
315,314,311,311,0
317,324,306,307,0
315,327,302,303,0
311,325,300,301,0
308,322,300,300,0
305,318,300,300,0
303,314,300,299,0
300,305,300,299,0
299,292,300,300,0
299,279,300,300,0
299,267,300,300,0
298,260,302,301,0
298,263,304,303,0
299,278,306,304,0
301,301,309,306,0
302,318,312,309,0
304,326,315,310,0
307,332,317,312,0
310,337,319,314,0
313,340,320,314,0
314,337,320,314,0
315,330,318,313,0
314,322,316,311,0
313,316,314,309,0
313,315,312,308,0
312,314,310,306,0
309,307,307,303,0
304,296,304,300,0
301,289,302,299,0
299,287,300,299,0
297,289,299,299,0
296,296,298,300,0
297,304,297,301,0
299,309,296,301,0
300,310,295,301,0
300,311,296,300,0
301,308,297,300,0
302,300,299,301,0
303,291,302,302,0
305,281,305,305,0
308,270,309,307,0
310,263,310,309,0
313,263,310,310,0
317,273,308,310,0
320,290,308,309,0
323,305,307,307,0
322,317,306,303,0
319,325,303,300,0
314,332,301,298,0
310,336,300,298,0
306,337,300,299,0
304,334,302,302,0
304,331,305,307,0
304,329,307,311,0
305,324,307,313,0
304,317,306,314,0
301,308,304,313,0
299,303,303,313,0
298,302,302,313,0
299,304,302,313,0
302,310,304,313,0
305,316,307,313,0
308,313,309,314,0
311,304,312,315,0
313,297,314,317,0
316,298,316,317,0
316,307,317,316,0
315,319,317,315,0
313,327,315,314,0
310,329,312,313,0
307,329,309,312,0
306,329,306,312,0
306,325,305,312,0
305,317,304,312,0
303,305,302,311,0
302,293,301,311,0
302,285,300,313,0
304,279,302,315,0
307,273,305,317,0
309,266,308,319,0
311,257,312,319,0
311,254,315,318,0
309,262,318,316,0
309,278,319,314,0
308,297,316,311,0
306,314,313,308,0
304,327,309,305,0
302,335,305,303,0
300,339,302,302,0
299,338,300,302,0
298,331,298,301,0
297,323,297,302,0
296,316,297,303,0
295,313,299,305,0
296,315,301,306,0
299,321,303,307,0
301,328,305,307,0
303,325,307,307,0
303,319,309,307,0
303,314,311,308,0
304,313,313,309,0
306,312,314,310,0
309,310,313,310,0
310,308,312,310,0
312,303,310,311,0
313,297,308,311,0
312,288,306,311,0
312,278,304,310,0
312,271,302,308,0
313,268,301,307,0
313,275,300,306,0
313,287,300,306,0
311,297,300,307,0
310,305,301,308,0
309,308,303,309,0
308,309,304,310,0
307,311,304,310,0
305,314,302,309,0
304,317,299,307,0
303,319,295,305,0
302,320,293,303,0
302,320,293,302,0
303,323,296,303,0
306,327,299,304,0
310,331,303,305,0
311,333,305,305,0
310,332,305,305,0
309,329,304,304,0
308,328,304,304,0
307,326,304,303,0
305,319,305,302,0
304,311,306,302,0
304,305,307,302,0
305,301,310,303,0
308,300,312,306,0
311,300,314,307,0
313,299,314,307,0
312,296,312,306,0
310,290,309,304,0
309,286,306,302,0
308,284,304,301,0
309,283,305,301,0
309,283,307,303,0
309,287,308,305,0
310,293,310,307,0
311,296,309,308,0
313,295,308,309,0
314,293,307,308,0
316,297,306,308,0
315,302,305,307,0
311,301,304,306,0
306,295,303,305,0
302,292,304,306,0
301,296,305,308,0
300,304,307,309,0
299,309,308,310,0
297,311,307,311,0
295,308,305,311,0
296,308,303,311,0
298,309,303,311,0
300,311,304,311,0
303,313,306,310,0
304,315,308,310,0
306,314,310,309,0
307,313,312,309,0
310,313,314,309,0
312,313,315,308,0
312,313,313,308,0
310,312,311,308,0
306,309,307,308,0
301,304,306,308,0
300,298,306,310,0
300,293,306,311,0
300,288,307,312,0
300,286,308,312,0
299,286,310,312,0
299,286,313,312,0
299,288,315,313,0
300,291,316,314,0
301,291,316,315,0
304,292,316,316,0
305,294,315,316,0
306,295,311,315,0
305,296,307,313,0
303,297,304,312,0
303,300,303,311,0
303,303,302,311,0
304,310,302,310,0
307,324,302,311,0
310,344,302,311,0
313,364,302,311,0
314,370,302,310,0
313,361,301,310,0
310,343,300,308,0
307,319,300,308,0
305,294,300,308,0
303,265,300,309,0
302,241,301,311,0
302,229,304,313,0
304,232,306,316,0
307,246,307,318,0
309,262,307,318,0
310,274,306,317,0
309,282,306,316,0
307,288,305,314,0
304,296,303,313,0
303,306,302,312,0
302,315,302,312,0
303,325,302,312,0
303,334,300,312,0
301,341,299,311,0
299,344,298,311,0
298,346,298,310,0
298,346,300,311,0
300,346,302,311,0
301,346,304,311,0
301,343,305,310,0
302,337,306,309,0
303,331,307,310,0
305,327,309,311,0
308,329,310,312,0
311,336,310,312,0
312,338,310,313,0
311,335,309,313,0
308,330,308,313,0
304,326,307,314,0
301,324,307,315,0
298,320,307,316,0
297,315,308,316,0
295,308,309,316,0
296,302,309,316,0
298,301,309,316,0
301,301,309,317,0
305,302,310,318,0
307,303,309,318,0
309,306,308,317,0
308,310,307,315,0
307,312,306,312,0
304,312,304,310,0
303,310,303,308,0
303,308,302,309,0
304,306,302,310,0
305,301,301,310,0
306,295,300,309,0
307,288,299,309,0
309,278,299,308,0
311,266,299,308,0
312,256,300,307,0
312,253,301,306,0
312,264,302,306,0
310,281,305,307,0
309,295,308,310,0
308,309,311,312,0
308,323,314,314,0
309,335,315,315,0
308,342,316,316,0
307,344,317,315,0
305,343,315,313,0
303,340,312,309,0
302,335,309,305,0
301,325,307,303,0
300,314,306,302,0
300,304,305,302,0
301,298,304,304,0
303,298,303,306,0
307,302,303,308,0
310,305,303,310,0
313,303,302,312,0
314,302,300,313,0
312,300,298,312,0
310,294,297,313,0
309,293,298,315,0
310,303,301,317,0
311,316,305,319,0
309,323,307,318,0
306,325,306,316,0
303,325,306,315,0
302,323,306,314,0
302,321,306,313,0
303,320,308,312,0
305,318,309,311,0
308,313,310,311,0
310,306,310,311,0
309,296,307,309,0
306,285,303,308,0
304,275,300,307,0
302,269,298,307,0
301,268,297,307,0
301,273,297,308,0
302,279,296,308,0
302,283,294,307,0
303,290,294,307,0
305,297,295,306,0
308,305,296,307,0
312,313,299,308,0
315,319,301,309,0
317,324,305,310,0
317,329,308,311,0
317,332,311,312,0
316,335,313,313,0
314,336,314,314,0
312,329,313,313,0
309,322,311,312,0
308,319,309,310,0
308,320,308,308,0
307,322,306,304,0
306,325,304,300,0
305,326,301,297,0
303,324,299,294,0
300,317,299,293,0
298,307,300,294,0
297,299,302,295,0
298,295,304,297,0
303,297,307,299,0
308,301,309,301,0
312,306,309,303,0
315,311,309,305,0
316,317,309,307,0
316,324,309,309,0
316,327,309,310,0
313,323,309,310,0
307,312,308,308,0
302,299,307,306,0
298,291,305,305,0
297,287,304,306,0
297,285,303,309,0
298,284,303,313,0
300,284,304,316,0
301,282,307,319,0
303,276,309,321,0
303,268,312,322,0
303,259,313,322,0
302,253,313,321,0
301,253,312,319,0
302,257,311,318,0
303,266,311,317,0
305,279,311,316,0
308,297,310,316,0
311,315,311,315,0
313,325,310,314,0
312,327,311,313,0
312,328,312,313,0
312,321,311,311,0
310,307,310,309,0
309,295,310,309,0
311,291,310,310,0
313,296,310,311,0
314,303,310,312,0
313,308,310,312,0
310,312,309,311,0
306,317,307,309,0
303,325,305,308,0
302,336,303,308,0
301,348,302,307,0
302,356,302,308,0
303,357,302,308,0
304,350,303,309,0
305,339,304,310,0
306,326,305,310,0
307,315,305,311,0
308,310,305,310,0
311,310,305,310,0
313,316,305,308,0
315,320,304,307,0
314,318,302,305,0
311,312,300,305,0
309,304,299,305,0
307,296,298,305,0
306,292,297,305,0
305,291,295,305,0
304,294,292,305,0
303,298,291,307,0
302,303,291,308,0
302,304,293,309,0
302,301,295,310,0
302,295,299,311,0
304,288,303,312,0
305,283,306,313,0
308,285,310,314,0
310,290,311,315,0
310,294,311,313,0
310,294,310,312,0
310,293,309,311,0
310,294,309,310,0
310,297,309,309,0
310,301,311,310,0
311,305,312,311,0
313,310,314,312,0
313,315,314,312,0
312,315,313,311,0
310,315,311,311,0
308,316,309,310,0
307,317,307,309,0
307,321,307,309,0
305,323,307,308,0
303,322,307,307,0
302,320,307,306,0
302,318,307,305,0
300,313,308,302,0
299,302,307,300,0
297,288,305,298,0
296,274,303,298,0
295,262,301,299,0
297,257,301,301,0
299,259,302,304,0
302,266,305,307,0
306,277,307,309,0
309,288,309,310,0
311,299,310,309,0
311,315,310,309,0
312,333,309,309,0
312,347,307,309,0
313,354,306,310,0
313,357,306,311,0
313,356,306,312,0
312,352,305,312,0
312,345,306,312,0
313,340,306,313,0
315,337,307,314,0
319,333,308,314,0
320,328,309,314,0
320,321,308,313,0
316,316,308,312,0
312,311,308,310,0
308,306,307,308,0
305,299,306,307,0
303,295,306,306,0
303,297,305,306,0
302,301,304,305,0
301,299,303,304,0
299,295,301,304,0
298,290,301,304,0
298,289,301,305,0
298,292,302,305,0
300,300,303,305,0
301,308,303,305,0
302,314,303,304,0
304,318,305,305,0
306,318,306,305,0
307,314,308,306,0
306,306,309,307,0
305,298,310,308,0
306,293,312,309,0
307,293,314,310,0
307,295,314,310,0
307,297,313,309,0
306,296,311,309,0
305,295,308,309,0
304,293,305,309,0
303,291,304,310,0
304,289,304,312,0
305,285,305,313,0
305,276,306,314,0
304,267,306,314,0
302,259,307,315,0
300,258,308,315,0
299,261,309,315,0
296,262,309,313,0
295,266,308,310,0
295,272,307,307,0
297,277,306,306,0
299,278,305,305,0
302,281,305,305,0
306,289,305,305,0
310,300,306,306,0
312,310,305,306,0
312,318,303,305,0
310,320,302,304,0
308,323,300,303,0
306,330,299,302,0
303,329,299,302,0
302,319,301,303,0
303,312,303,304,0
304,308,305,306,0
304,306,305,307,0
304,307,304,307,0
304,306,303,306,0
304,304,302,305,0
306,305,302,305,0
309,309,302,306,0
310,317,304,306,0
310,318,307,305,0
308,313,308,304,0
305,306,306,302,0
302,299,304,300,0
299,298,304,298,0
299,302,303,298,0
299,308,303,297,0
300,311,303,298,0
301,311,302,300,0
303,310,303,302,0
306,309,305,306,0
308,312,308,308,0
309,320,309,309,0
310,331,309,310,0
311,341,310,311,0
315,351,311,311,0
319,355,312,312,0
320,349,313,311,0
317,328,312,307,0
312,303,308,304,0
308,282,306,303,0
305,272,305,304,0
304,270,304,306,0
301,274,302,307,0
297,280,300,307,0
294,286,298,308,0
293,292,297,310,0
294,297,296,310,0
295,295,296,311,0
297,286,295,311,0
298,273,296,311,0
298,265,296,311,0
298,267,297,311,0
299,277,298,311,0
302,291,300,313,0
306,303,302,314,0
309,309,305,315,0
311,312,307,315,0
312,315,309,315,0
313,320,310,314,0
313,325,311,312,0
311,328,310,311,0
308,328,309,310,0
305,326,308,309,0
303,325,306,307,0
301,325,306,306,0
300,327,305,305,0
300,327,305,305,0
300,322,304,306,0
301,316,304,306,0
302,311,304,307,0
305,309,306,307,0
308,311,308,308,0
310,312,309,308,0
311,314,310,308,0
311,319,310,308,0
310,327,310,307,0
308,326,310,307,0
305,318,308,306,0
303,307,307,305,0
302,296,307,304,0
302,289,306,302,0
302,287,306,301,0
304,287,307,301,0
306,291,307,301,0
308,296,306,300,0
309,300,303,298,0
309,300,300,297,0
307,298,297,296,0
305,294,296,296,0
303,293,297,296,0
302,297,298,297,0
299,304,301,297,0
298,310,303,297,0
296,316,305,295,0
296,320,305,294,0
296,321,303,293,0
297,320,301,293,0
299,318,299,295,0
302,318,300,298,0
305,315,303,301,0
309,309,307,303,0
313,297,310,305,0
314,282,312,306,0
314,270,314,308,0
312,265,316,311,0
311,275,318,314,0
312,296,320,317,0
310,315,320,317,0
308,327,318,316,0
305,331,316,314,0
303,326,315,312,0
300,317,313,311,0
299,308,312,310,0
297,303,311,309,0
298,304,310,309,0
300,310,311,309,0
303,314,312,308,0
307,315,313,308,0
309,308,313,307,0
313,297,314,307,0
316,291,315,308,0
320,292,316,310,0
322,295,316,313,0
322,300,315,313,0
321,305,313,313,0
322,312,312,312,0
321,318,311,311,0
318,320,309,310,0
313,315,307,309,0
308,305,305,308,0
303,296,303,306,0
299,286,303,304,0
297,280,303,304,0
296,279,304,304,0
297,280,304,304,0
297,277,304,304,0
297,273,303,305,0
297,272,304,305,0
299,278,306,305,0
301,285,307,304,0
302,290,307,303,0
303,293,305,302,0
303,294,305,301,0
304,296,306,302,0
305,305,308,303,0
307,320,309,305,0
307,336,310,307,0
306,345,310,307,0
304,345,310,307,0
300,339,309,307,0
298,331,309,308,0
297,325,310,308,0
298,320,310,308,0
300,314,309,308,0
300,306,307,307,0
301,297,303,306,0
302,291,300,306,0
305,294,298,307,0
309,304,299,307,0
314,317,300,307,0
317,325,302,307,0
317,325,304,306,0
316,321,305,304,0
314,317,306,303,0
313,315,307,302,0
312,314,307,301,0
311,317,307,300,0
310,321,306,300,0
308,324,304,299,0
306,324,304,300,0
304,322,304,300,0
303,321,305,302,0
302,320,306,303,0
301,314,307,304,0
299,304,306,303,0
297,293,305,303,0
295,284,306,303,0
295,277,307,303,0
296,273,310,305,0
298,273,313,306,0
300,276,315,308,0
303,279,317,309,0
306,282,319,311,0
308,283,319,311,0
310,287,318,310,0
311,295,316,306,0
310,302,310,301,0
307,305,304,296,0
306,309,297,293,0
306,316,293,291,0
307,323,292,291,0
309,330,294,294,0
311,334,297,299,0
310,332,299,302,0
307,327,301,306,0
306,324,302,310,0
305,324,304,313,0
305,326,307,314,0
305,329,310,313,0
304,328,311,312,0
302,323,311,310,0
301,317,309,309,0
301,310,309,309,0
302,307,308,309,0
303,307,308,311,0
304,305,309,313,0
304,299,310,314,0
303,293,310,314,0
304,292,309,314,0
306,296,309,313,0
309,301,309,314,0
313,307,310,316,0
314,310,310,317,0
312,308,308,317,0
308,303,307,316,0
304,299,306,315,0
303,297,306,314,0
303,297,305,311,0
304,297,303,308,0
304,296,302,306,0
304,294,300,304,0
305,292,299,304,0
306,292,300,305,0
308,297,301,306,0
310,307,304,308,0
311,317,306,309,0
311,320,307,311,0
310,315,308,312,0
309,307,309,314,0
308,296,310,315,0
306,287,309,317,0
305,282,310,317,0
306,286,310,318,0
308,302,311,318,0
310,322,312,318,0
311,333,312,317,0
308,331,312,316,0
306,322,312,314,0
306,313,312,313,0
306,308,313,312,0
308,312,312,312,0
311,325,312,312,0
312,335,311,311,0
311,335,310,310,0
309,331,309,310,0
308,329,308,308,0
306,323,306,307,0
304,311,303,307,0
301,299,301,306,0
298,290,301,307,0
296,284,301,308,0
295,284,301,308,0
296,290,301,308,0
297,297,301,308,0
299,306,301,307,0
300,315,300,306,0
303,323,301,306,0
307,329,302,306,0
312,334,302,306,0
316,335,303,306,0
319,332,304,306,0
320,323,306,306,0
319,312,307,307,0
318,300,309,307,0
316,292,310,308,0
314,287,309,309,0
313,288,308,310,0
311,291,306,310,0
309,294,305,309,0
308,298,305,308,0
307,299,305,308,0
305,295,306,307,0
304,287,306,308,0
302,278,307,308,0
303,273,307,309,0
305,274,308,309,0
307,281,310,309,0
308,290,310,309,0
310,301,310,309,0
311,310,311,309,0
310,315,310,308,0
308,317,307,306,0
306,321,304,303,0
304,325,303,301,0
304,324,302,299,0
303,320,302,299,0
303,313,303,300,0
303,303,303,302,0
303,295,304,305,0
304,290,304,308,0
305,286,305,310,0
306,282,305,310,0
307,277,306,309,0
308,276,307,309,0
309,280,308,310,0
310,288,309,312,0
310,297,309,314,0
312,309,311,316,0
314,324,312,317,0
315,335,314,318,0
314,340,315,318,0
312,338,314,316,0
309,334,313,314,0
307,330,313,313,0
308,330,313,312,0
309,331,313,312,0
310,330,312,311,0
310,328,311,312,0
308,323,308,312,0
305,319,306,311,0
302,317,305,311,0
300,319,304,310,0
300,325,305,310,0
301,329,307,310,0
303,328,309,310,0
303,320,310,310,0
302,306,310,311,0
300,288,309,310,0
299,271,307,310,0
299,261,306,310,0
300,262,305,310,0
303,276,306,310,0
304,296,306,310,0
304,312,306,309,0
304,319,306,308,0
303,320,305,306,0
302,313,304,304,0
302,303,300,302,0
301,294,297,299,0
303,291,295,299,0
306,299,295,300,0
309,310,297,303,0
310,316,299,306,0
309,318,301,310,0
307,320,304,313,0
306,324,307,314,0
306,324,309,315,0
306,325,310,315,0
307,327,310,315,0
307,330,309,314,0
306,330,307,312,0
305,326,305,311,0
304,319,304,310,0
304,313,302,308,0
303,307,300,306,0
302,302,297,305,0
301,298,294,303,0
299,294,292,302,0
298,289,291,301,0
297,284,291,302,0
297,281,293,303,0
301,286,296,306,0
305,298,300,307,0
309,308,303,308,0
311,311,305,308,0
310,309,305,306,0
311,305,305,305,0
312,302,305,304,0
311,301,305,303,0
308,296,304,302,0
306,289,304,302,0
305,287,304,302,0
305,289,305,303,0
306,291,307,304,0
307,294,308,304,0
306,299,308,305,0
305,305,308,305,0
303,311,308,306,0
301,315,309,306,0
298,313,309,307,0
296,304,309,307,0
295,291,311,307,0
297,285,314,308,0
302,289,317,309,0
307,307,320,311,0
313,333,322,313,0
317,352,321,314,0
316,357,318,313,0
314,353,313,311,0
310,345,309,309,0
307,335,306,308,0
306,322,304,308,0
305,307,303,308,0
305,294,303,309,0
305,284,304,310,0
306,278,305,311,0
308,278,307,311,0
308,285,307,310,0
309,299,309,310,0
309,317,310,309,0
308,331,309,307,0
305,336,307,305,0
302,335,305,303,0
300,331,303,304,0
301,328,303,304,0
303,325,303,306,0
306,318,303,307,0
308,307,304,309,0
309,301,304,309,0
309,301,305,308,0
308,302,305,307,0
305,301,304,304,0
303,304,302,302,0
303,309,302,300,0
305,313,302,300,0
310,315,303,301,0
312,316,302,302,0
310,315,302,302,0
306,311,301,302,0
303,305,299,302,0
300,299,297,302,0
299,297,296,303,0
299,299,295,305,0
300,303,296,307,0
302,306,298,309,0
303,309,301,311,0
305,312,304,312,0
307,312,308,313,0
307,307,310,312,0
308,301,312,311,0
308,299,313,309,0
307,301,311,308,0
306,305,309,306,0
304,310,305,305,0
304,316,303,304,0
305,321,300,304,0
307,324,298,304,0
308,323,296,304,0
308,320,296,304,0
309,319,297,305,0
310,320,300,308,0
309,320,303,310,0
306,318,306,311,0
304,313,309,312,0
302,309,310,312,0
301,307,310,311,0
303,309,312,311,0
306,315,313,311,0
309,322,313,310,0
311,326,314,309,0
310,326,313,308,0
308,321,311,307,0
304,311,310,305,0
300,298,308,304,0
296,280,307,303,0
295,264,306,303,0
296,252,305,303,0
296,243,303,302,0
296,234,302,302,0
297,232,302,303,0
298,246,305,306,0
301,274,308,308,0
304,305,309,309,0
304,327,308,308,0
304,339,304,306,0
303,345,301,303,0
303,349,300,301,0
304,352,299,301,0
306,357,298,302,0
308,363,300,305,0
310,366,302,307,0
312,365,304,308,0
313,363,306,310,0
315,362,308,311,0
317,363,310,312,0
317,363,311,313,0
316,363,313,314,0
315,361,313,315,0
313,355,312,315,0
310,347,309,315,0
306,337,307,314,0
302,329,306,313,0
299,321,305,312,0
298,314,305,312,0
298,307,306,312,0
298,302,307,312,0
299,299,308,311,0
301,299,309,310,0
302,300,309,310,0
302,300,308,309,0
303,301,308,308,0
303,300,309,308,0
304,297,309,309,0
305,295,309,310,0
308,292,310,311,0
313,291,310,312,0
317,289,311,314,0
320,285,312,315,0
322,279,311,315,0
322,273,309,314,0
322,267,307,312,0
321,258,303,308,0
317,248,299,303,0
311,238,296,299,0
304,232,295,298,0
298,239,299,300,0
295,258,305,305,0
294,283,310,309,0
294,309,314,312,0
298,338,315,314,0
303,360,315,313,0
305,365,313,310,0
305,357,309,307,0
303,348,304,304,0
302,343,302,303,0
302,341,301,304,0
302,339,300,304,0
301,336,300,305,0
299,330,300,306,0
298,325,301,307,0
297,321,301,307,0
296,315,302,307,0
297,310,304,308,0
300,311,305,309,0
304,315,307,309,0
308,322,308,309,0
310,330,308,308,0
312,335,308,306,0
311,332,307,305,0
310,326,304,303,0
309,320,302,302,0
309,315,301,302,0
308,311,299,302,0
308,309,299,302,0
308,309,299,303,0
308,310,301,303,0
308,310,301,304,0
307,310,301,304,0
305,308,301,303,0
304,306,300,302,0
303,304,300,302,0
303,304,301,302,0
305,305,301,303,0
306,307,301,304,0
307,309,301,306,0
308,309,300,307,0
309,311,301,308,0
312,315,301,308,0
316,320,303,308,0
320,325,305,308,0
322,326,305,307,0
323,322,304,305,0
321,311,301,303,0
318,289,300,301,0
312,255,300,300,0
304,215,302,301,0
298,182,304,304,0
295,167,307,308,0
297,173,311,312,0
303,197,314,315,0
308,227,316,318,0
310,259,319,319,0
309,292,321,320,0
306,323,325,320,0
305,346,327,320,0
304,355,327,319,0
303,353,324,315,0
302,346,320,311,0
302,340,316,308,0
302,341,313,304,0
302,348,310,302,0
302,356,307,299,0
301,361,304,298,0
301,362,302,298,0
302,362,301,299,0
302,360,300,299,0
304,357,300,299,0
304,355,299,299,0
305,356,299,299,0
305,358,299,299,0
304,358,298,300,0
302,354,297,300,0
300,347,297,300,0
299,339,297,301,0
298,331,297,303,0
298,324,298,304,0
300,320,299,304,0
301,317,300,304,0
303,315,301,304,0
304,314,302,304,0
305,313,304,304,0
306,313,305,302,0
306,311,306,300,0
306,310,305,298,0
306,308,304,297,0
306,305,303,295,0
307,301,301,294,0
307,295,300,294,0
308,288,298,295,0
310,285,298,298,0
312,287,301,301,0
313,288,303,304,0
312,287,303,306,0
311,284,301,307,0
311,279,299,307,0
314,280,302,309,0
319,289,307,312,0
320,302,312,312,0
317,314,315,310,0
312,325,316,308,0
306,332,315,307,0
303,334,313,305,0
301,331,311,304,0
299,325,307,302,0
298,322,305,299,0
298,324,303,296,0
298,330,302,295,0
298,335,301,296,0
297,334,299,297,0
296,326,297,299,0
295,313,294,302,0
294,299,293,305,0
293,285,293,308,0
294,271,295,311,0
295,261,297,313,0
298,258,298,315,0
301,263,300,315,0
304,277,301,315,0
306,292,302,314,0
307,303,302,312,0
307,308,302,310,0
308,310,302,308,0
308,311,302,306,0
309,313,301,305,0
310,315,301,305,0
310,317,302,306,0
311,320,302,306,0
310,321,303,306,0
308,320,304,306,0
308,317,305,306,0
308,312,307,307,0
309,306,308,309,0
312,301,309,312,0
315,301,311,314,0
317,305,313,317,0
318,311,316,319,0
319,314,320,321,0
318,309,320,320,0
313,299,318,317,0
307,290,316,312,0
303,288,313,309,0
302,292,312,305,0
302,298,310,303,0
303,307,310,302,0
304,314,310,301,0
305,320,310,301,0
306,326,309,301,0
305,330,308,299,0
303,332,305,297,0
301,333,303,297,0
300,333,302,297,0
300,332,302,297,0
301,331,301,298,0
302,329,300,298,0
303,326,299,300,0
303,323,298,302,0
303,318,298,303,0
304,312,297,304,0
304,306,298,304,0
305,301,299,305,0
305,296,301,305,0
305,290,303,306,0
304,285,304,308,0
305,285,306,309,0
307,290,308,311,0
310,296,308,311,0
311,298,306,311,0
311,298,303,310,0
310,297,301,309,0
310,296,300,308,0
310,297,301,307,0
311,303,302,307,0
312,309,303,306,0
312,312,304,306,0
311,313,306,307,0
310,314,309,308,0
310,314,313,310,0
310,312,316,311,0
311,308,318,312,0
314,305,319,313,0
317,304,320,313,0
319,305,319,313,0
319,308,318,311,0
316,311,315,309,0
312,312,312,308,0
308,311,309,306,0
303,307,307,304,0
299,302,306,304,0
295,298,306,305,0
293,292,306,305,0
292,279,305,304,0
292,264,305,304,0
293,251,306,305,0
294,247,309,307,0
296,250,311,308,0
296,258,310,308,0
295,273,310,308,0
296,293,310,308,0
298,311,311,309,0
300,322,313,310,0
301,325,313,309,0
301,322,311,307,0
299,321,308,303,0
299,326,304,298,0
300,325,302,292,0
302,319,300,289,0
303,313,300,289,0
305,313,303,293,0
306,320,305,299,0
306,328,307,305,0
304,332,306,310,0
302,331,305,314,0
303,332,305,317,0
306,339,308,319,0
312,351,312,321,0
316,362,316,321,0
317,367,318,319,0
315,363,317,317,0
312,356,315,315,0
310,350,314,314,0
309,340,313,314,0
309,327,313,313,0
307,314,312,313,0
306,304,311,313,0
303,296,308,312,0
301,292,306,311,0
299,291,305,310,0
298,290,304,310,0
296,286,304,310,0
293,276,302,309,0
291,262,301,309,0
290,249,300,310,0
290,242,300,310,0
292,243,302,311,0
295,253,305,313,0
300,266,309,315,0
303,279,311,316,0
305,289,314,316,0
307,301,315,316,0
309,315,318,317,0
309,328,318,315,0
307,335,317,313,0
305,335,314,310,0
303,332,311,308,0
303,327,309,306,0
304,326,307,305,0
305,326,306,305,0
306,327,304,305,0
306,330,303,304,0
306,332,302,304,0
305,333,300,303,0
305,333,299,303,0
306,334,299,303,0
306,334,298,303,0
306,334,297,303,0
305,334,297,303,0
305,331,298,303,0
305,326,299,303,0
305,320,301,304,0
306,315,302,305,0
308,311,304,307,0
310,309,305,310,0
311,306,308,314,0
312,297,309,316,0
311,284,310,318,0
310,275,309,318,0
310,273,309,318,0
309,276,308,318,0
306,279,306,316,0
300,281,305,314,0
296,282,305,312,0
294,285,306,312,0
295,292,309,312,0
299,304,311,313,0
306,320,312,315,0
313,337,311,315,0
317,349,309,314,0
316,351,306,311,0
313,347,303,308,0
309,336,302,306,0
306,322,302,305,0
304,306,303,305,0
304,291,306,306,0
305,278,308,309,0
306,271,310,309,0
307,268,311,309,0
305,267,311,309,0
302,267,311,310,0
299,271,309,311,0
298,281,309,312,0
300,296,308,314,0
301,312,308,314,0
301,325,308,313,0
301,333,308,311,0
300,334,308,310,0
299,330,308,309,0
299,321,309,309,0
300,311,309,309,0
302,304,309,309,0
304,301,309,309,0
306,302,309,309,0
307,305,308,308,0
307,307,307,307,0
306,306,307,307,0
306,304,309,308,0
308,309,311,309,0
310,315,311,310,0
308,320,309,309,0
306,324,307,308,0
303,328,305,308,0
301,332,304,308,0
299,333,303,308,0
298,328,304,309,0
298,320,304,311,0
298,314,306,312,0
299,311,308,314,0
301,312,310,315,0
304,314,312,317,0
307,319,315,319,0
309,322,318,319,0
309,316,319,319,0
308,303,320,318,0
306,289,320,317,0
304,278,319,315,0
302,276,317,313,0
299,284,314,309,0
298,295,310,307,0
298,308,307,305,0
299,319,307,306,0
301,327,307,306,0
302,330,307,307,0
303,329,305,307,0
301,325,304,306,0
301,320,303,306,0
300,316,304,307,0
300,312,306,308,0
301,307,308,310,0
301,302,310,310,0
303,298,310,310,0
305,296,310,310,0
306,295,310,311,0
307,295,309,311,0
306,297,306,310,0
305,298,305,311,0
306,299,304,312,0
307,298,304,313,0
306,298,303,313,0
304,301,303,311,0
302,306,302,310,0
300,313,302,308,0
299,318,301,307,0
299,320,300,306,0
299,319,300,306,0
298,317,300,306,0
298,316,300,306,0
299,319,303,308,0
302,326,307,310,0
303,326,310,311,0
304,321,311,311,0
305,317,312,310,0
306,316,312,308,0
306,317,312,307,0
307,321,313,306,0
308,324,312,306,0
308,324,311,307,0
308,320,308,307,0
308,313,306,308,0
307,305,305,309,0
305,294,305,310,0
303,282,304,310,0
302,272,303,311,0
302,267,305,312,0
305,265,308,314,0
308,264,311,315,0
310,268,312,314,0
310,272,310,312,0
309,276,309,309,0
309,281,308,307,0
312,287,307,305,0
313,292,307,302,0
314,295,304,299,0
312,300,301,296,0
311,307,299,296,0
310,313,297,295,0
308,317,296,296,0
307,320,295,297,0
307,319,296,300,0
309,317,298,303,0
310,315,300,306,0
310,311,302,310,0
307,308,304,312,0
304,309,304,313,0
301,313,304,314,0
301,321,305,315,0
301,327,305,315,0
302,329,306,313,0
302,329,306,311,0
303,329,306,310,0
304,329,306,308,0
305,327,306,307,0
307,324,305,306,0
308,320,304,306,0
308,314,305,307,0
308,309,305,307,0
307,304,306,307,0
307,301,307,307,0
308,301,309,308,0
310,301,310,309,0
311,300,311,310,0
313,297,312,310,0
315,293,312,311,0
318,290,312,310,0
321,289,311,310,0
322,293,311,308,0
321,295,312,307,0
315,290,312,304,0
309,289,311,301,0
302,292,309,298,0
296,297,305,295,0
293,304,302,294,0
291,310,300,294,0
293,315,300,296,0
297,318,301,298,0
300,322,301,301,0
303,324,301,302,0
305,325,301,303,0
307,325,300,304,0
307,324,300,304,0
307,323,300,305,0
305,323,302,306,0
303,322,304,306,0
302,322,306,307,0
303,325,307,307,0
304,329,308,306,0
306,330,308,306,0
307,327,308,306,0
309,322,307,306,0
310,319,307,305,0
311,317,305,305,0
311,315,304,304,0
312,313,303,305,0
312,311,303,306,0
312,310,304,306,0
314,311,306,307,0
315,314,307,308,0
314,315,306,308,0
312,313,305,307,0
309,302,302,305,0
306,283,299,305,0
304,264,298,305,0
304,252,299,307,0
307,251,302,310,0
309,258,304,310,0
308,274,305,309,0
306,294,306,307,0
304,310,307,306,0
304,322,309,304,0
305,331,312,304,0
307,335,315,304,0
309,335,317,305,0
311,330,318,305,0
313,324,316,304,0
311,318,314,304,0
310,312,312,304,0
309,309,312,306,0
307,306,312,307,0
306,305,312,308,0
305,306,312,308,0
304,310,312,308,0
305,318,311,308,0
306,324,309,308,0
305,328,307,307,0
304,329,306,306,0
303,327,305,306,0
302,323,304,306,0
302,321,304,306,0
301,322,303,305,0
300,323,303,304,0
299,320,302,303,0
297,313,302,302,0
297,305,302,301,0
297,299,303,300,0
298,295,303,299,0
299,291,301,298,0
300,286,300,297,0
300,282,298,297,0
300,282,296,298,0
301,281,295,300,0
302,280,297,304,0
303,284,301,308,0
305,295,303,311,0
307,307,304,313,0
308,316,305,312,0
308,323,307,312,0
309,334,310,312,0
311,344,314,312,0
312,351,317,310,0
312,353,317,309,0
310,350,316,307,0
307,339,313,306,0
305,326,309,305,0
303,313,305,305,0
301,305,301,305,0
300,300,299,305,0
299,297,297,305,0
299,296,296,304,0
299,295,296,304,0
301,294,296,305,0
303,292,297,307,0
304,288,299,308,0
304,284,302,309,0
303,281,305,310,0
303,282,308,310,0
302,287,309,309,0
300,295,308,307,0
299,302,308,307,0
299,304,308,310,0
300,301,311,314,0
303,296,314,318,0
303,289,316,320,0
301,280,316,320,0
298,269,316,319,0
297,262,316,319,0
299,259,317,319,0
303,266,317,319,0
308,287,318,318,0
313,315,316,317,0
316,338,314,314,0
316,347,310,311,0
312,342,306,308,0
308,330,302,306,0
304,317,300,304,0
302,306,298,304,0
300,297,298,304,0
300,293,299,305,0
303,294,301,306,0
306,300,303,307,0
308,312,304,308,0
311,325,305,308,0
313,333,306,308,0
313,334,305,307,0
313,333,305,307,0
313,331,305,307,0
314,329,305,308,0
316,327,305,308,0
319,326,305,308,0
320,322,306,308,0
319,316,307,308,0
316,311,309,308,0
313,308,310,308,0
310,306,309,309,0
308,307,307,309,0
306,312,305,310,0
305,318,303,309,0
303,322,301,309,0
301,322,300,308,0
299,319,300,308,0
299,313,301,310,0
300,306,303,311,0
302,301,305,313,0
304,299,306,312,0
305,301,307,311,0
305,309,306,310,0
305,318,305,309,0
304,325,302,306,0
303,326,300,306,0
304,326,299,306,0
306,326,299,308,0
310,323,299,310,0
315,321,299,312,0
318,326,300,312,0
319,334,301,312,0
318,340,303,311,0
314,340,303,310,0
309,333,305,309,0
305,319,306,309,0
302,303,305,308,0
301,289,305,308,0
301,282,306,308,0
303,279,308,309,0
304,275,309,308,0
303,272,309,307,0
303,273,308,305,0
303,282,308,304,0
304,298,306,304,0
306,316,305,303,0
307,332,303,303,0
307,342,302,304,0
307,346,301,305,0
306,346,301,305,0
307,345,303,307,0
307,343,304,308,0
306,338,304,308,0
304,331,304,307,0
302,320,303,307,0
300,309,303,307,0
300,300,303,307,0
302,294,302,308,0
303,295,300,308,0
303,299,297,307,0
303,302,295,305,0
302,303,294,304,0
301,299,294,302,0
301,293,296,301,0
303,292,299,300,0
306,294,303,299,0
309,300,305,299,0
310,308,306,299,0
310,313,307,299,0
308,314,308,301,0
306,312,307,303,0
305,310,307,305,0
305,312,308,307,0
308,315,311,310,0
310,318,312,310,0
308,315,312,309,0
305,309,312,308,0
301,300,311,307,0
299,292,311,307,0
300,287,310,306,0
303,284,311,306,0
306,287,311,306,0
308,294,312,304,0
308,298,312,303,0
308,298,310,303,0
307,301,308,302,0
308,312,306,301,0
309,324,305,301,0
311,332,305,303,0
312,335,307,305,0
312,329,309,307,0
312,316,310,309,0
310,302,310,311,0
306,289,309,311,0
302,281,309,312,0
300,281,309,312,0
298,286,308,311,0
299,295,307,310,0
300,303,306,309,0
303,311,304,308,0
304,314,303,306,0
306,315,302,304,0
307,314,302,303,0
308,314,302,303,0
310,316,303,303,0
310,320,305,304,0
310,321,306,305,0
307,317,306,305,0
304,309,306,304,0
301,299,306,304,0
299,292,306,303,0
298,289,307,302,0
299,291,308,303,0
301,296,309,306,0
304,301,310,308,0
308,307,312,311,0
312,311,314,314,0
315,313,316,316,0
317,315,317,318,0
318,314,317,318,0
317,316,314,316,0
315,324,310,314,0
313,333,307,311,0
312,342,306,310,0
313,352,307,309,0
313,352,308,308,0
311,342,309,305,0
307,331,309,302,0
304,323,309,301,0
302,318,310,301,0
300,312,312,303,0
299,303,313,305,0
298,294,314,306,0
297,288,315,307,0
298,289,315,307,0
299,297,313,307,0
299,305,310,305,0
300,312,307,305,0
302,317,304,305,0
304,318,303,305,0
307,318,303,306,0
309,320,302,305,0
310,322,302,303,0
309,323,300,301,0
306,322,300,300,0
304,321,300,299,0
302,321,301,299,0
301,321,302,300,0
299,319,302,300,0
297,315,302,301,0
295,306,302,301,0
294,297,301,301,0
295,288,300,301,0
297,284,300,302,0
300,285,303,304,0
304,292,307,306,0
308,301,311,307,0
309,307,313,307,0
310,312,312,307,0
310,320,311,307,0
308,326,309,307,0
306,331,306,306,0
304,331,305,305,0
302,326,304,304,0
301,317,304,303,0
300,308,305,303,0
300,301,307,303,0
300,298,309,304,0
300,299,310,305,0
300,303,312,306,0
300,307,312,307,0
300,313,313,306,0
301,319,315,306,0
303,322,316,306,0
304,319,317,307,0
305,311,317,307,0
304,301,315,307,0
304,294,313,308,0
302,292,311,308,0
302,292,310,309,0
302,293,310,310,0
303,288,309,310,0
302,279,309,310,0
301,270,307,310,0
300,266,307,310,0
300,266,309,310,0
301,270,311,310,0
302,276,312,309,0
302,280,310,305,0
300,284,307,301,0
298,289,306,298,0
297,293,306,297,0
297,299,307,298,0
298,305,308,299,0
299,310,308,301,0
300,311,307,302,0
302,310,306,304,0
302,306,306,305,0
303,299,306,306,0
304,291,305,308,0
306,284,305,310,0
309,283,307,312,0
312,292,308,312,0
313,304,308,312,0
310,314,305,310,0
305,320,300,308,0
300,317,297,306,0
295,308,296,306,0
292,298,298,306,0
290,293,301,306,0
290,294,304,306,0
292,301,304,306,0
294,311,305,306,0
297,319,305,307,0
301,328,306,309,0
306,337,306,312,0
309,337,308,314,0
311,330,309,315,0
312,319,309,316,0
313,311,310,316,0
315,311,311,316,0
317,316,312,315,0
318,320,312,315,0
316,322,312,314,0
314,323,312,313,0
313,327,312,313,0
314,332,311,313,0
314,334,309,313,0
312,330,306,313,0
309,319,303,313,0
305,311,300,311,0
302,309,299,311,0
301,313,300,310,0
301,319,302,310,0
302,322,303,310,0
302,321,304,311,0
303,316,306,311,0
305,309,307,312,0
306,302,309,313,0
307,295,312,315,0
308,289,314,316,0
309,286,317,316,0
310,288,317,314,0
309,295,317,311,0
308,304,316,307,0
307,311,316,304,0
305,315,314,303,0
303,318,313,303,0
302,322,311,304,0
301,325,309,305,0
301,328,307,307,0
302,328,307,308,0
304,322,308,309,0
306,316,309,310,0
306,313,310,312,0
306,314,311,314,0
304,316,312,315,0
302,316,311,315,0
301,313,310,315,0
300,308,309,315,0
302,304,307,315,0
304,302,306,315,0
306,301,307,315,0
307,300,308,316,0
308,298,311,317,0
308,296,313,317,0
308,295,314,316,0
308,294,314,315,0
309,296,314,315,0
310,301,315,315,0
310,306,315,315,0
309,310,314,315,0
306,313,313,313,0
304,317,313,313,0
304,319,313,313,0
304,316,312,313,0
303,312,312,313,0
303,307,312,313,0
304,304,312,313,0
303,301,311,312,0
302,298,310,310,0
301,293,308,309,0
300,285,305,307,0
298,272,302,306,0
297,259,299,304,0
298,251,298,303,0
299,248,297,302,0
301,251,297,302,0
303,261,298,303,0
305,273,300,303,0
306,287,301,304,0
304,295,303,305,0
303,295,304,306,0
301,292,305,308,0
301,290,306,310,0
301,290,305,311,0
301,291,304,311,0
302,293,302,311,0
303,295,301,309,0
305,299,301,308,0
307,307,301,307,0
310,316,302,308,0
312,323,303,311,0
312,329,304,313,0
312,332,305,315,0
309,329,306,316,0
308,324,308,316,0
309,320,310,316,0
310,314,312,316,0
310,306,313,314,0
309,302,314,313,0
308,300,313,313,0
306,299,312,312,0
305,297,310,312,0
307,298,310,313,0
309,303,310,313,0
310,309,310,313,0
311,316,310,312,0
309,323,308,310,0
307,328,305,307,0
305,331,301,304,0
304,330,297,302,0
304,324,296,301,0
304,315,295,301,0
306,304,297,304,0
308,296,299,306,0
308,292,300,308,0
308,289,301,309,0
307,288,301,310,0
307,293,302,312,0
307,299,302,312,0
307,302,301,311,0
305,303,300,309,0
304,303,300,307,0
303,302,301,307,0
303,302,304,307,0
304,303,307,309,0
306,305,311,310,0
308,311,315,310,0
310,316,318,310,0
311,320,318,309,0
312,322,316,307,0
313,321,315,306,0
313,318,314,305,0
313,315,313,305,0
313,314,312,304,0
313,311,311,304,0
311,303,308,303,0
309,292,306,303,0
308,285,305,305,0
308,289,306,308,0
310,303,309,312,0
311,321,311,313,0
310,335,311,313,0
308,339,311,312,0
306,337,311,311,0
305,332,310,310,0
304,325,308,308,0
305,316,307,307,0
306,308,307,305,0
307,300,306,303,0
308,294,305,301,0
310,290,304,300,0
313,290,303,301,0
316,294,301,304,0
319,297,301,307,0
321,300,303,310,0
323,309,305,311,0
322,319,307,311,0
316,321,307,309,0
309,314,306,307,0
302,303,305,306,0
297,292,303,305,0
294,283,301,306,0
293,278,301,308,0
294,280,302,311,0
297,282,304,314,0
297,281,304,314,0
296,276,304,314,0
295,273,304,313,0
296,277,306,313,0
299,288,308,313,0
303,298,309,313,0
307,304,310,312,0
312,310,310,312,0
316,317,310,311,0
318,322,311,310,0
317,320,310,310,0
313,314,308,309,0
308,307,305,308,0
303,302,303,309,0
301,303,301,309,0
303,312,300,309,0
306,324,298,308,0
308,326,295,307,0
308,317,293,304,0
306,305,293,303,0
305,294,293,302,0
305,289,296,302,0
306,292,298,303,0
307,300,301,303,0
309,309,304,304,0
313,318,308,306,0
317,327,310,306,0
320,333,311,307,0
321,333,312,306,0
322,329,313,306,0
322,326,313,307,0
320,326,313,308,0
318,329,312,310,0
316,332,311,311,0
314,333,309,312,0
310,327,307,310,0
304,313,304,309,0
300,299,304,308,0
300,291,305,308,0
302,293,308,308,0
307,304,311,308,0
313,322,314,308,0
318,338,314,307,0
317,345,313,304,0
315,344,310,302,0
311,338,308,301,0
308,332,306,300,0
306,327,306,300,0
305,323,307,301,0
304,320,307,301,0
303,316,307,301,0
302,309,308,302,0
301,302,308,303,0
300,296,308,304,0
299,292,308,305,0
300,291,307,305,0
301,292,307,306,0
303,297,307,308,0
305,301,307,309,0
307,303,308,309,0
308,302,307,309,0
309,296,307,308,0
311,286,306,307,0
312,280,305,307,0
315,282,306,307,0
317,287,307,308,0
318,295,308,309,0
316,304,308,308,0
312,309,306,306,0
307,311,305,305,0
306,307,305,307,0
307,297,306,309,0
310,286,307,313,0
312,279,308,316,0
312,276,309,318,0
310,279,308,318,0
309,288,306,317,0
308,300,305,316,0
308,311,304,313,0
307,318,303,311,0
307,323,303,309,0
308,331,302,307,0
310,341,300,306,0
313,351,300,305,0
316,355,301,306,0
318,349,302,308,0
319,332,303,309,0
319,309,304,310,0
319,288,306,311,0
319,279,308,312,0
320,283,310,312,0
318,298,310,311,0
313,313,308,309,0
308,325,306,307,0
304,333,302,305,0
302,336,299,304,0
302,337,297,303,0
303,334,296,303,0
304,330,297,303,0
306,326,299,303,0
307,321,302,305,0
307,316,305,307,0
308,312,308,308,0
308,307,309,309,0
309,304,310,309,0
310,303,311,310,0
312,301,311,311,0
312,299,311,311,0
311,296,310,312,0
310,295,309,311,0
307,296,306,310,0
304,295,303,308,0
302,293,301,306,0
300,291,299,305,0
299,291,298,306,0
301,295,300,308,0
303,301,302,308,0
305,304,301,307,0
305,303,301,306,0
305,296,301,306,0
305,282,303,305,0
305,265,305,304,0
305,257,306,305,0
306,260,307,306,0
307,267,308,307,0
308,279,307,309,0
309,292,307,309,0
309,302,306,308,0
307,312,305,306,0
307,325,304,306,0
307,336,302,306,0
306,343,299,307,0
302,341,297,307,0
299,331,296,307,0
297,317,295,307,0
295,302,295,307,0
296,290,296,308,0
297,281,298,311,0
299,275,301,313,0
301,276,304,315,0
303,287,307,316,0
304,303,309,316,0
305,320,311,315,0
305,331,312,314,0
305,333,313,313,0
304,330,314,313,0
303,325,313,312,0
303,321,313,312,0
305,320,313,314,0
308,320,314,315,0
311,318,314,315,0
311,315,312,314,0
310,312,310,313,0
309,308,308,312,0
308,308,307,311,0
308,311,306,310,0
308,315,303,309,0
307,321,302,309,0
308,326,301,309,0
309,330,302,310,0
311,332,304,311,0
311,332,305,310,0
309,326,304,309,0
305,314,304,308,0
303,299,304,308,0
302,287,305,310,0
303,280,306,311,0
303,280,307,311,0
303,286,307,311,0
301,296,306,309,0
300,306,306,308,0
300,313,306,308,0
300,313,306,308,0
300,305,304,308,0
299,295,302,308,0
299,289,302,309,0
299,292,303,309,0
301,298,304,309,0
302,304,304,309,0
304,306,306,309,0
305,305,308,309,0
307,300,309,309,0
308,297,310,310,0
310,302,311,310,0
311,312,310,311,0
312,324,308,310,0
311,333,305,310,0
309,336,302,308,0
305,329,300,305,0
302,316,298,304,0
301,306,297,302,0
302,304,297,301,0
305,310,298,300,0
307,318,298,300,0
306,318,297,300,0
303,317,297,300,0
301,319,298,301,0
299,319,299,302,0
295,312,300,302,0
293,304,301,302,0
293,299,301,303,0
294,298,302,304,0
296,301,303,305,0
299,308,305,306,0
301,314,307,307,0
301,319,309,308,0
302,319,310,307,0
301,318,310,305,0
300,313,309,303,0
301,306,308,301,0
301,300,307,300,0
300,296,307,299,0
299,291,307,300,0
297,289,308,303,0
296,289,310,308,0
298,294,312,314,0
301,304,313,318,0
306,314,314,321,0
308,319,313,323,0
308,319,312,323,0
307,316,312,322,0
306,305,312,322,0
306,292,312,321,0
306,283,312,320,0
308,280,311,319,0
310,279,310,319,0
311,278,309,318,0
311,279,309,318,0
310,284,308,318,0
307,285,306,315,0
302,283,305,312,0
298,280,304,310,0
295,277,304,308,0
294,280,305,309,0
294,290,306,309,0
295,297,306,309,0
296,297,304,310,0
297,294,303,310,0
299,294,304,312,0
302,297,306,313,0
304,301,307,312,0
305,306,308,311,0
306,313,309,309,0
307,318,309,307,0
308,322,309,304,0
308,322,309,302,0
307,322,309,300,0
307,323,310,301,0
307,329,311,302,0
307,334,311,302,0
306,332,310,302,0
305,325,309,303,0
303,318,308,304,0
302,312,306,305,0
301,307,304,305,0
302,302,303,305,0
303,297,302,306,0
304,295,301,305,0
305,296,301,305,0
306,302,302,305,0
307,310,304,306,0
311,320,306,308,0
315,330,308,308,0
319,337,309,306,0
319,340,308,303,0
319,340,307,300,0
316,337,305,297,0
315,334,303,296,0
313,330,301,296,0
310,328,298,296,0
307,326,294,297,0
304,323,292,299,0
301,322,291,302,0
300,322,293,305,0
300,322,296,308,0
300,317,299,311,0
301,307,302,312,0
302,292,304,313,0
304,281,306,314,0
307,279,309,314,0
311,278,311,314,0
312,273,314,315,0
309,263,317,314,0
306,253,320,314,0
304,250,322,313,0
303,256,321,310,0
304,269,318,307,0
305,288,314,303,0
306,307,311,301,0
306,323,307,300,0
305,333,305,300,0
303,337,304,301,0
302,336,304,301,0
301,332,303,301,0
301,326,303,300,0
302,321,304,301,0
303,319,306,303,0
305,323,308,305,0
307,331,311,308,0
308,334,314,311,0
309,331,316,313,0
309,325,318,314,0
308,319,319,314,0
307,313,320,314,0
307,306,320,314,0
306,300,319,314,0
304,293,316,312,0
301,285,314,311,0
299,276,312,310,0
299,273,310,310,0
300,277,310,311,0
303,289,310,312,0
308,305,309,312,0
313,319,307,312,0
317,326,305,311,0
315,327,300,308,0
311,319,295,305,0
305,303,292,303,0
299,288,292,302,0
294,277,294,302,0
291,268,297,304,0
290,258,300,306,0
290,248,304,308,0
292,243,309,310,0
296,248,314,312,0
302,262,316,312,0
306,284,316,310,0
308,304,314,307,0
308,317,311,304,0
307,322,309,302,0
306,323,307,300,0
306,322,307,300,0
306,320,307,301,0
306,314,307,304,0
306,306,307,306,0
306,300,307,307,0
306,296,306,308,0
305,295,304,307,0
304,294,301,305,0
303,293,299,304,0
303,290,297,304,0
304,287,297,304,0
305,286,297,305,0
308,286,296,307,0
311,287,297,308,0
315,288,299,309,0
318,288,302,309,0
319,286,306,309,0
318,279,308,308,0
315,273,309,306,0
312,275,310,307,0
311,288,312,308,0
312,310,314,308,0
312,333,314,309,0
311,351,313,309,0
310,361,312,307,0
308,364,311,306,0
305,360,309,304,0
303,349,309,304,0
302,335,309,304,0
301,321,311,304,0
302,307,314,305,0
302,298,316,306,0
303,297,318,307,0
306,302,319,308,0
308,305,318,309,0
308,304,318,308,0
308,302,315,306,0
306,301,313,303,0
305,300,310,300,0
304,300,308,299,0
304,299,308,298,0
305,301,310,299,0
306,303,311,301,0
304,301,310,302,0
302,294,308,302,0
299,285,306,303,0
298,276,306,304,0
298,271,309,306,0
301,273,312,307,0
304,281,314,307,0
306,289,314,304,0
307,296,311,301,0
307,300,307,299,0
308,303,304,298,0
310,304,302,301,0
312,306,302,305,0
315,310,304,309,0
316,313,308,313,0
316,315,311,314,0
313,317,312,314,0
310,321,312,314,0
306,325,312,313,0
304,328,311,313,0
303,328,310,312,0
302,325,310,312,0
302,321,309,311,0
301,318,308,311,0
301,314,307,311,0
301,310,306,311,0
300,306,305,311,0
299,304,304,310,0
298,301,303,309,0
299,301,302,308,0
300,302,302,307,0
301,305,301,306,0
302,308,302,306,0
303,312,303,307,0
304,313,304,307,0
303,307,305,307,0
301,299,306,306,0
299,295,307,307,0
298,295,308,308,0
297,295,309,309,0
298,296,310,311,0
298,294,308,312,0
300,291,307,312,0
302,284,305,313,0
305,274,305,313,0
308,264,305,313,0
311,264,306,313,0
316,280,308,313,0
322,309,311,313,0
327,341,315,312,0
328,361,316,309,0
323,363,315,307,0
316,352,313,305,0
310,338,310,304,0
305,325,309,304,0
302,318,308,304,0
301,315,308,305,0
300,314,307,305,0
300,314,308,306,0
301,313,308,306,0
300,310,308,306,0
299,306,308,306,0
298,302,306,306,0
298,297,305,306,0
299,290,304,307,0
300,281,304,309,0
301,271,304,309,0
302,263,305,309,0
302,260,306,309,0
303,266,307,308,0
304,276,308,307,0
306,287,308,307,0
308,295,308,308,0
310,303,309,310,0
311,309,310,311,0
310,314,310,311,0
309,317,310,310,0
309,316,309,308,0
309,313,308,306,0
307,310,306,303,0
304,307,304,302,0
301,299,304,302,0
300,291,305,305,0
301,287,305,308,0
303,291,306,311,0
306,299,306,313,0
309,302,305,314,0
309,298,304,314,0
310,282,305,314,0
312,266,307,313,0
314,260,309,311,0
318,269,312,308,0
322,288,314,305,0
323,308,313,303,0
321,324,310,300,0
315,332,306,298,0
309,337,302,297,0
304,340,299,298,0
301,341,298,300,0
299,340,299,301,0
299,340,300,304,0
301,345,303,307,0
303,349,305,308,0
304,349,307,309,0
304,343,308,309,0
303,336,309,309,0
303,328,309,309,0
303,320,308,309,0
305,314,307,309,0
307,309,306,309,0
309,304,306,311,0
309,301,306,312,0
310,300,306,313,0
310,301,305,313,0
308,303,303,312,0
307,308,302,311,0
305,312,300,310,0
304,313,299,308,0
303,312,300,307,0
301,309,302,307,0
299,306,302,307,0
297,303,302,307,0
296,298,302,307,0
296,290,301,308,0
295,281,302,309,0
295,275,304,310,0
296,274,306,312,0
299,278,310,313,0
301,283,313,314,0
303,284,315,314,0
305,277,315,314,0
307,266,313,314,0
310,257,311,313,0
313,252,309,313,0
314,251,307,313,0
315,254,307,314,0
316,265,309,315,0
318,283,312,316,0
317,300,313,315,0
313,312,309,312,0
308,318,303,308,0
303,320,298,304,0
302,321,296,303,0
302,323,296,303,0
303,327,298,303,0
304,330,299,302,0
305,332,302,303,0
307,330,304,304,0
307,325,307,304,0
307,323,309,304,0
306,324,311,304,0
306,330,312,305,0
306,337,312,305,0
305,342,310,304,0
303,344,309,303,0
301,340,308,302,0
299,335,307,301,0
297,329,307,300,0
296,325,307,300,0
296,322,306,300,0
297,319,306,301,0
298,317,306,302,0
300,314,307,304,0
302,312,308,306,0
303,307,308,307,0
304,303,309,308,0
305,299,311,309,0
307,297,314,309,0
310,297,316,309,0
310,294,317,309,0
310,289,317,309,0
308,285,316,309,0
305,284,314,309,0
301,281,313,309,0
299,279,311,308,0
298,282,311,309,0
298,288,312,310,0
300,293,313,311,0
301,294,313,312,0
302,292,313,311,0
304,290,313,310,0
307,289,313,308,0
309,294,313,304,0
309,301,310,299,0
308,308,307,296,0
307,310,305,294,0
306,308,302,294,0
308,305,302,297,0
311,304,303,300,0
314,306,304,304,0
315,309,305,306,0
314,311,306,308,0
312,312,308,308,0
311,312,308,308,0
309,316,307,307,0
305,322,304,305,0
302,326,302,303,0
299,328,300,302,0
297,328,298,302,0
297,327,298,301,0
296,325,298,300,0
296,323,298,299,0
296,316,299,299,0
297,307,301,300,0
298,296,303,303,0
299,289,306,307,0
301,289,308,311,0
304,295,311,314,0
308,304,313,315,0
310,310,314,315,0
311,313,314,314,0
310,314,312,313,0
309,314,310,312,0
308,315,308,311,0
307,317,306,310,0
306,316,304,309,0
305,313,303,308,0
305,310,303,307,0
307,309,302,307,0
308,310,302,307,0
309,310,301,306,0
308,310,301,307,0
307,307,301,307,0
306,302,303,308,0
306,297,304,309,0
306,292,305,309,0
306,289,306,310,0
306,288,308,309,0
306,289,309,309,0
307,289,310,310,0
307,286,310,309,0
307,281,310,309,0
308,276,309,309,0
309,273,308,310,0
313,274,309,311,0
317,278,310,312,0
322,285,312,312,0
324,288,314,310,0
322,285,313,308,0
319,281,311,305,0
313,281,308,303,0
308,288,305,303,0
304,299,304,304,0
303,312,305,306,0
302,319,305,308,0
301,320,305,308,0
301,316,305,308,0
302,312,305,308,0
305,306,307,308,0
308,299,309,308,0
310,296,311,308,0
311,299,312,308,0
312,305,314,309,0
312,313,315,309,0
312,318,316,309,0
312,321,314,309,0
312,324,313,310,0
312,327,311,310,0
311,328,310,310,0
309,329,307,309,0
306,328,305,308,0
303,322,303,306,0
300,314,300,305,0
298,306,298,305,0
296,300,297,304,0
296,296,296,303,0
296,293,297,302,0
297,293,299,302,0
299,295,301,302,0
301,299,300,301,0
302,300,299,299,0
304,297,298,298,0
307,293,297,297,0
309,291,298,296,0
312,295,300,297,0
315,305,304,299,0
316,316,307,301,0
316,323,310,302,0
315,324,313,304,0
315,323,314,305,0
314,325,316,307,0
315,329,318,309,0
313,333,317,310,0
309,334,315,309,0
305,334,313,308,0
302,331,310,307,0
300,325,309,304,0
297,315,308,303,0
296,304,307,302,0
295,292,306,300,0
295,279,307,301,0
297,264,310,302,0
300,248,311,304,0
303,233,312,306,0
305,223,311,308,0
310,226,310,311,0
315,248,309,314,0
319,280,307,315,0
319,310,306,315,0
316,330,304,313,0
312,341,303,311,0
309,346,303,310,0
307,351,305,309,0
307,352,306,309,0
306,349,307,308,0
305,345,307,307,0
305,342,308,306,0
306,335,308,306,0
306,321,309,306,0
306,305,309,305,0
307,292,309,305,0
308,285,309,305,0
310,285,310,305,0
312,286,309,305,0
312,284,308,305,0
312,277,309,306,0
311,270,309,308,0
309,264,309,309,0
307,267,310,310,0
305,283,310,311,0
304,304,310,310,0
304,323,308,309,0
305,337,308,308,0
307,347,308,307,0
310,352,309,307,0
313,352,310,308,0
317,351,312,308,0
318,348,312,309,0
316,337,311,309,0
312,319,308,308,0
308,296,306,308,0
307,277,306,308,0
309,269,309,310,0
312,278,311,312,0
313,297,311,312,0
310,313,310,310,0
306,320,307,308,0
302,318,303,306,0
299,316,301,304,0
300,317,301,305,0
301,318,301,305,0
303,319,301,307,0
304,321,299,307,0
303,323,297,306,0
301,325,296,304,0
299,326,295,302,0
297,327,295,301,0
297,327,296,301,0
296,323,297,300,0
295,313,300,300,0
295,296,303,300,0
296,277,305,302,0
299,264,308,304,0
304,264,311,308,0
311,273,313,311,0
315,286,313,312,0
317,299,312,311,0
316,309,310,309,0
313,315,308,305,0
310,317,305,302,0
307,319,303,299,0
305,324,303,297,0
306,335,305,298,0
308,345,308,299,0
309,348,312,300,0
309,344,314,301,0
309,339,314,301,0
309,337,313,303,0
309,332,312,305,0
309,322,309,306,0
307,304,305,307,0
305,281,301,306,0
302,258,298,306,0
300,239,297,306,0
299,232,298,308,0
300,240,299,311,0
303,259,302,313,0
306,282,303,315,0
308,304,304,315,0
309,324,304,313,0
309,336,303,310,0
307,341,302,306,0
306,340,301,303,0
305,335,300,301,0
304,326,300,299,0
304,317,302,299,0
303,312,305,298,0
304,307,308,299,0
305,304,310,301,0
307,303,312,303,0
309,303,313,306,0
311,301,313,309,0
312,296,312,311,0
311,292,311,313,0
308,289,311,314,0
305,287,311,314,0
303,289,311,314,0
301,295,312,313,0
300,302,311,311,0
301,307,309,308,0
302,307,307,306,0
303,309,304,305,0
305,313,301,305,0
306,319,299,304,0
306,323,298,304,0
306,325,298,304,0
305,326,298,303,0
304,326,298,302,0
304,325,298,302,0
305,326,298,302,0
306,326,299,303,0
307,325,302,305,0
309,323,305,307,0
311,322,309,309,0
313,318,311,310,0
314,314,311,310,0
313,308,309,310,0
313,302,309,311,0
313,297,309,313,0
313,292,312,315,0
313,288,313,316,0
312,289,315,318,0
311,292,317,320,0
309,295,317,320,0
306,294,315,319,0
303,289,312,317,0
303,287,308,315,0
303,288,305,313,0
305,293,304,312,0
307,300,305,311,0
307,304,306,310,0
306,303,306,309,0
305,298,307,309,0
305,293,308,309,0
305,288,307,308,0
304,284,304,305,0
302,279,300,303,0
301,277,297,302,0
302,282,297,303,0
304,295,299,304,0
307,306,302,306,0
308,309,303,305,0
306,304,304,304,0
305,300,304,302,0
305,303,305,301,0
307,316,308,301,0
309,325,311,302,0
310,328,312,304,0
310,329,311,305,0
310,332,310,306,0
309,334,308,306,0
307,333,306,307,0
305,325,304,307,0
304,311,303,307,0
304,297,302,308,0
306,286,301,310,0
307,283,302,311,0
308,288,303,311,0
308,299,303,310,0
307,310,303,309,0
305,317,302,307,0
305,321,302,306,0
306,322,303,305,0
307,320,305,305,0
307,315,307,304,0
305,307,308,305,0
303,298,307,307,0
301,290,306,310,0
300,282,305,312,0
299,277,304,314,0
299,280,302,314,0
299,291,301,313,0
300,310,300,312,0
302,330,301,310,0
305,348,301,309,0
307,359,301,306,0
307,359,300,304,0
306,348,299,302,0
306,335,298,301,0
306,324,298,299,0
306,313,299,298,0
306,304,299,298,0
305,294,298,299,0
302,283,299,302,0
301,277,301,306,0
302,277,305,310,0
304,286,309,314,0
305,299,311,317,0
306,310,311,317,0
305,317,311,316,0
304,320,311,316,0
303,316,310,315,0
302,310,308,314,0
302,307,307,313,0
304,308,306,312,0
305,312,306,312,0
306,314,305,311,0
305,316,304,311,0
306,319,303,311,0
307,323,302,312,0
308,326,301,312,0
309,326,300,312,0
309,322,301,312,0
308,315,302,313,0
306,307,304,312,0
305,300,305,312,0
303,293,306,310,0
301,285,306,308,0
299,274,306,306,0
298,262,308,305,0
300,252,310,305,0
303,251,314,308,0
307,259,317,310,0
310,272,318,312,0
312,285,318,313,0
313,294,317,314,0
311,300,316,314,0
309,303,315,313,0
307,306,314,313,0
305,310,313,312,0
306,315,312,311,0
306,318,312,310,0
307,320,312,309,0
306,317,312,308,0
305,314,313,308,0
305,311,315,310,0
306,311,317,312,0
307,314,318,313,0
306,315,317,314,0
306,315,313,313,0
307,314,309,312,0
310,308,306,312,0
313,303,304,312,0
315,300,304,312,0
315,297,304,312,0
315,297,304,312,0
314,302,305,314,0
314,309,307,315,0
312,310,307,316,0
311,306,306,316,0
308,302,306,316,0
305,302,305,314,0
303,307,304,313,0
300,316,304,312,0
299,328,304,310,0
299,337,305,309,0
300,340,304,307,0
300,334,304,305,0
302,320,303,305,0
303,305,303,305,0
305,297,305,307,0
307,298,306,309,0
308,305,307,309,0
309,314,307,309,0
308,321,306,308,0
306,323,304,307,0
305,323,302,306,0
303,322,300,306,0
301,321,298,306,0
299,319,296,306,0
298,316,294,306,0
297,311,294,307,0
298,306,296,309,0
300,305,298,312,0
304,305,301,314,0
309,306,303,315,0
313,309,305,316,0
315,311,307,315,0
314,311,307,314,0
313,311,309,313,0
310,311,309,312,0
306,309,308,310,0
303,303,308,309,0
302,294,307,308,0
300,283,307,307,0
299,274,306,306,0
299,269,305,306,0
299,269,305,305,0
300,275,305,305,0
300,283,305,304,0
300,292,305,304,0
300,304,304,305,0
300,318,303,306,0
302,327,302,307,0
304,327,301,309,0
306,319,301,310,0
307,308,302,311,0
309,300,306,313,0
310,298,309,313,0
310,297,311,312,0
307,296,312,310,0
305,296,311,308,0
302,294,310,306,0
301,291,308,305,0
302,291,307,304,0
304,295,305,304,0
306,300,303,305,0
308,305,302,305,0
310,310,301,305,0
311,315,301,304,0
311,322,301,303,0
311,329,301,303,0
310,334,302,304,0
310,337,304,304,0
307,336,306,305,0
304,331,307,306,0
302,322,308,306,0
301,312,309,307,0
301,304,309,307,0
302,299,309,306,0
304,296,310,306,0
306,297,310,305,0
307,298,311,305,0
307,299,311,304,0
306,299,311,304,0
304,298,311,303,0
302,295,310,301,0
301,292,308,299,0
299,290,308,299,0
299,292,307,301,0
300,294,308,304,0
300,295,310,308,0
301,297,312,311,0
302,296,314,313,0
301,292,315,315,0
299,289,315,315,0
298,289,317,316,0
299,297,318,317,0
302,311,320,317,0
306,324,320,316,0
310,334,319,314,0
312,336,316,311,0
312,330,313,309,0
311,317,310,307,0
308,301,308,305,0
305,285,306,305,0
303,274,305,306,0
303,274,305,307,0
304,284,306,308,0
305,297,305,309,0
306,310,304,309,0
307,322,303,309,0
308,336,304,309,0
310,346,305,308,0
310,351,305,307,0
308,343,304,306,0
306,325,304,305,0
305,306,306,305,0
306,294,308,306,0
307,292,307,304,0
307,297,305,301,0
306,303,301,299,0
303,308,299,296,0
302,309,299,295,0
301,308,300,295,0
301,309,302,297,0
303,308,305,299,0
304,307,307,301,0
304,307,308,303,0
304,310,309,304,0
303,313,309,306,0
301,316,309,307,0
299,319,310,308,0
299,323,310,309,0
299,321,309,309,0
300,313,308,309,0
302,303,308,309,0
303,295,309,309,0
305,291,309,308,0
307,291,308,306,0
308,292,307,304,0
309,294,306,303,0
310,294,305,302,0
310,294,306,302,0
311,295,307,302,0
311,297,309,304,0
312,299,310,305,0
313,304,311,305,0
313,311,312,306,0
313,320,312,305,0
312,326,312,305,0
311,328,311,305,0
309,323,311,305,0
308,317,311,307,0
310,314,314,309,0
311,313,317,311,0
313,309,318,312,0
313,307,318,311,0
314,306,318,309,0
313,308,317,306,0
313,310,315,304,0
312,309,314,303,0
311,303,312,304,0
310,294,311,306,0
309,289,311,307,0
310,294,312,310,0
311,303,312,311,0
309,305,311,310,0
305,301,308,308,0
302,295,305,305,0
300,292,302,305,0
299,294,302,305,0
298,301,303,306,0
298,306,303,306,0
297,308,303,305,0
299,311,304,305,0
302,317,303,305,0
304,318,303,303,0
305,312,302,303,0
306,301,301,303,0
307,291,302,305,0
309,289,303,307,0
311,298,306,308,0
310,307,306,308,0
307,313,305,307,0
304,317,304,306,0
302,321,302,305,0
301,324,302,306,0
301,328,302,307,0
301,329,302,308,0
300,327,304,309,0
299,321,307,310,0
298,312,309,311,0
298,302,310,311,0
298,291,309,309,0
298,281,308,307,0
301,276,307,306,0
306,279,310,306,0
313,288,315,308,0
320,301,319,309,0
324,314,322,310,0
325,324,323,311,0
324,327,323,310,0
322,325,320,309,0
318,322,316,307,0
313,318,312,307,0
310,314,310,307,0
308,312,309,308,0
306,310,307,308,0
303,305,306,308,0
301,302,305,309,0
300,301,304,309,0
299,300,303,310,0
299,298,305,311,0
301,290,305,312,0
300,279,304,311,0
300,272,303,310,0
302,273,302,309,0
307,288,302,310,0
313,310,303,309,0
316,328,304,308,0
317,338,303,306,0
315,343,303,303,0
312,343,302,300,0
309,343,302,298,0
306,341,303,297,0
304,336,303,297,0
303,329,303,299,0
301,322,304,301,0
301,316,306,304,0
302,312,308,306,0
302,311,310,309,0
304,306,311,310,0
305,302,312,311,0
306,301,312,312,0
305,301,310,312,0
304,300,309,312,0
304,299,308,312,0
303,295,305,310,0
303,288,304,309,0
304,282,305,307,0
306,284,306,307,0
307,292,306,305,0
308,302,306,304,0
309,311,305,304,0
309,314,305,304,0
309,312,304,304,0
307,306,303,304,0
306,297,301,304,0
306,286,300,305,0
306,279,300,307,0
307,279,301,309,0
308,284,302,311,0
308,290,302,311,0
308,296,302,311,0
306,299,302,310,0
306,304,304,310,0
308,316,306,310,0
310,327,308,309,0
312,331,309,308,0
314,332,308,306,0
316,334,307,303,0
318,334,305,299,0
318,332,304,296,0
316,325,302,293,0
311,316,302,292,0
306,306,302,293,0
302,299,302,296,0
300,299,304,301,0
300,309,305,305,0
301,321,305,307,0
301,328,303,307,0
300,329,299,306,0
301,330,297,306,0
302,331,296,305,0
303,327,294,304,0
304,321,293,304,0
304,317,293,304,0
303,318,294,304,0
303,318,294,304,0
303,317,295,304,0
303,314,297,305,0
304,308,299,306,0
304,303,300,306,0
305,301,302,306,0
305,303,302,306,0
307,309,304,305,0
309,317,305,306,0
311,320,307,306,0
312,321,309,307,0
313,318,311,308,0
314,312,312,309,0
312,304,313,311,0
308,299,314,312,0
305,298,314,313,0
305,300,313,315,0
304,301,313,315,0
304,302,313,316,0
304,304,311,316,0
304,304,309,314,0
302,305,307,312,0
299,307,305,310,0
298,309,304,309,0
297,309,304,309,0
298,308,304,309,0
299,308,303,310,0
300,307,302,312,0
300,305,302,313,0
300,302,302,313,0
300,299,304,314,0
300,296,306,314,0
299,295,309,315,0
300,296,312,315,0
301,298,315,315,0
303,300,318,315,0
306,304,319,315,0
309,306,319,313,0
313,308,318,312,0
317,310,317,311,0
320,308,315,310,0
321,303,314,307,0
320,295,312,304,0
318,285,311,303,0
315,275,310,302,0
314,266,310,301,0
314,263,310,302,0
315,272,310,304,0
316,287,310,307,0
315,302,308,308,0
314,316,305,309,0
314,332,304,310,0
313,347,303,311,0
311,352,304,311,0
310,353,306,311,0
309,352,308,312,0
308,352,309,311,0
306,347,309,309,0
304,341,308,307,0
302,334,305,304,0
300,330,301,302,0
299,326,299,301,0
299,320,298,301,0
300,314,298,301,0
301,309,298,301,0
302,304,299,302,0
304,303,300,303,0
307,308,301,305,0
309,313,303,305,0
311,317,304,306,0
312,322,304,306,0
311,328,305,305,0
310,333,304,305,0
308,334,304,304,0
307,331,303,305,0
306,324,302,305,0
304,311,302,305,0
303,297,301,305,0
303,286,302,306,0
306,281,303,307,0
308,283,305,308,0
309,285,307,309,0
311,283,310,312,0
311,279,311,313,0
311,274,313,314,0
310,272,313,314,0
310,282,312,314,0
310,302,311,313,0
309,323,309,310,0
306,338,307,307,0
305,346,305,304,0
303,344,303,301,0
302,336,302,298,0
301,327,302,296,0
301,316,302,296,0
301,305,302,297,0
301,295,302,299,0
302,289,301,301,0
302,283,301,305,0
303,278,301,308,0
304,276,301,309,0
305,278,301,310,0
306,282,300,308,0
307,288,299,306,0
308,296,299,305,0
311,301,299,305,0
313,301,300,306,0
315,297,302,307,0
315,298,303,308,0
316,305,304,307,0
317,313,305,307,0
318,318,305,307,0
317,320,305,308,0
315,319,306,309,0
311,315,306,310,0
306,307,304,311,0
301,296,303,311,0
298,289,303,311,0
299,290,304,312,0
302,294,305,312,0
306,298,306,311,0
309,303,306,310,0
310,311,305,308,0
312,318,304,307,0
312,325,304,306,0
313,330,304,307,0
313,331,304,307,0
313,329,305,307,0
312,329,305,307,0
311,329,305,308,0
310,328,305,308,0
310,323,305,308,0
310,316,307,308,0
312,312,310,309,0
313,313,313,309,0
312,316,314,308,0
309,316,313,307,0
306,315,312,307,0
303,313,310,307,0
301,310,308,308,0
300,307,306,309,0
300,304,305,311,0
302,301,305,312,0
303,298,304,312,0
303,292,303,312,0
304,287,302,311,0
304,284,300,309,0
303,283,297,306,0
301,284,294,304,0
300,290,293,302,0
300,296,292,301,0
302,300,292,303,0
304,304,295,306,0
307,305,300,309,0
308,306,305,311,0
307,311,308,313,0
308,322,312,315,0
309,335,316,317,0
309,347,318,317,0
309,354,318,317,0
308,351,317,315,0
305,340,316,313,0
302,324,314,310,0
299,305,312,307,0
299,289,311,305,0
299,280,310,304,0
299,279,310,304,0
299,282,309,304,0
298,289,306,303,0
296,296,303,303,0
294,296,300,304,0
293,288,298,305,0
292,278,297,307,0
291,271,297,309,0
291,270,299,311,0
293,277,301,314,0
297,289,303,315,0
299,300,305,315,0
302,309,307,315,0
304,317,308,314,0
304,320,308,312,0
304,317,308,310,0
303,312,308,309,0
303,310,309,309,0
304,314,311,309,0
305,320,312,309,0
305,322,311,308,0
304,319,311,307,0
304,316,312,307,0
305,315,312,308,0
307,317,312,309,0
309,320,312,310,0
310,320,310,310,0
309,318,308,309,0
306,313,305,308,0
303,307,302,305,0
302,299,300,303,0
301,292,300,302,0
300,284,301,300,0
301,276,303,300,0
303,271,305,300,0
306,270,307,301,0
309,270,309,302,0
312,274,310,304,0
313,285,311,307,0
312,297,311,308,0
310,307,310,309,0
307,314,309,309,0
305,314,309,310,0
305,305,310,311,0
305,296,310,313,0
305,290,310,313,0
305,288,310,313,0
305,294,310,312,0
304,303,309,312,0
303,312,307,310,0
302,320,305,309,0
303,326,304,308,0
305,330,304,308,0
306,330,305,307,0
307,327,306,306,0
307,322,306,305,0
306,316,307,305,0
307,312,307,305,0
308,311,307,305,0
309,312,308,307,0
310,312,307,308,0
308,312,305,309,0
307,312,303,309,0
306,312,302,310,0
307,312,301,311,0
309,310,301,311,0
310,306,302,312,0
311,302,302,312,0
311,297,303,312,0
309,291,304,312,0
306,283,306,311,0
303,273,309,311,0
299,266,310,311,0
298,264,310,310,0
297,266,307,307,0
298,270,304,304,0
299,277,301,302,0
301,288,300,300,0
302,299,299,299,0
303,309,300,298,0
304,315,301,299,0
304,317,301,299,0
304,317,300,301,0
304,319,301,303,0
303,323,302,305,0
302,326,303,307,0
300,325,305,308,0
298,323,307,309,0
296,324,307,308,0
296,327,308,308,0
297,333,308,308,0
298,339,309,307,0
299,341,309,307,0
300,341,310,307,0
300,338,310,307,0
300,335,310,307,0
301,334,312,308,0
304,336,313,308,0
307,338,313,309,0
308,338,312,308,0
306,334,308,305,0
303,327,305,302,0
299,317,303,300,0
296,305,303,299,0
294,292,305,300,0
292,280,305,301,0
291,270,306,303,0
292,265,307,306,0
293,266,309,309,0
295,272,311,311,0
298,279,312,311,0
301,283,313,312,0
304,286,315,314,0
308,290,316,315,0
310,291,317,316,0
310,291,317,317,0
309,292,316,316,0
307,295,315,313,0
306,297,312,308,0
304,299,309,302,0
303,304,306,297,0
303,311,303,292,0
303,320,302,291,0
304,327,303,294,0
305,329,304,300,0
304,326,304,305,0
303,316,303,309,0
301,302,302,311,0
300,289,301,313,0
301,285,304,315,0
302,285,308,318,0
304,282,311,319,0
304,276,313,321,0
305,275,314,322,0
305,281,313,322,0
307,294,311,322,0
309,304,310,321,0
311,310,309,320,0
312,314,308,319,0
312,313,307,316,0
311,307,305,315,0
311,299,305,313,0
311,295,307,312,0
313,297,310,312,0
315,305,313,312,0
316,318,315,312,0
315,327,315,311,0
312,330,313,310,0
308,326,312,310,0
305,318,309,310,0
302,310,307,311,0
299,302,307,311,0
298,293,306,311,0
295,283,306,310,0
293,273,306,309,0
293,267,305,309,0
294,268,305,308,0
297,273,304,308,0
301,283,303,307,0
304,296,302,306,0
306,309,301,304,0
306,317,299,303,0
305,320,298,301,0
305,319,298,301,0
304,314,299,302,0
303,312,301,304,0
302,317,304,306,0
301,324,306,308,0
300,328,308,310,0
299,325,310,311,0
297,318,311,312,0
294,309,311,311,0
293,304,310,312,0
295,306,310,312,0
298,311,309,312,0
301,314,306,310,0
304,315,304,310,0
306,313,303,309,0
306,308,303,308,0
307,303,303,308,0
310,301,305,310,0
314,304,307,310,0
317,312,308,310,0
318,323,308,309,0
316,329,307,308,0
311,328,304,305,0
306,324,302,304,0
304,322,301,304,0
304,322,301,304,0
304,319,302,304,0
306,315,303,305,0
309,315,305,306,0
310,319,307,306,0
309,320,308,306,0
308,318,310,304,0
307,317,311,301,0
307,317,311,299,0
307,317,311,296,0
309,318,310,294,0
309,319,309,293,0
310,320,308,293,0
309,323,308,293,0
309,326,306,293,0
307,328,305,294,0
306,328,304,297,0
305,325,303,301,0
304,322,304,305,0
303,317,304,309,0
303,312,304,312,0
303,305,304,314,0
303,299,303,316,0
303,294,303,318,0
305,295,306,321,0
307,298,309,323,0
308,303,311,323,0
310,304,313,321,0
311,302,311,318,0
310,294,308,315,0
308,287,305,313,0
307,284,305,313,0
306,285,307,312,0
306,286,309,313,0
306,288,310,314,0
307,295,312,317,0
309,302,313,319,0
309,308,313,319,0
310,316,312,318,0
309,322,311,316,0
309,324,308,314,0
307,320,305,312,0
306,312,303,310,0
305,306,301,309,0
306,305,301,309,0
308,307,302,309,0
308,307,302,308,0
308,305,302,308,0
308,305,302,307,0
310,307,303,308,0
311,307,304,308,0
313,300,305,308,0
313,285,306,309,0
313,267,305,310,0
313,253,306,311,0
313,249,307,312,0
311,253,307,312,0
308,261,305,311,0
307,270,305,310,0
307,278,306,310,0
308,281,306,311,0
308,281,305,312,0
308,282,305,312,0
308,289,306,312,0
307,300,309,312,0
308,314,311,311,0
310,325,311,309,0
311,330,310,306,0
312,330,307,303,0
312,326,305,302,0
312,324,305,302,0
313,325,307,304,0
312,327,308,305,0
311,327,308,306,0
312,326,307,306,0
312,326,307,307,0
312,328,308,307,0
313,333,308,307,0
311,334,307,308,0
309,332,306,308,0
308,329,306,310,0
310,327,306,312,0
311,325,308,314,0
312,320,307,314,0
311,314,305,312,0
308,308,304,311,0
305,305,303,310,0
304,303,303,309,0
304,301,303,308,0
303,299,302,307,0
303,298,301,306,0
303,297,300,306,0
303,296,299,305,0
304,295,299,305,0
305,293,298,305,0
307,294,298,306,0
308,300,299,305,0
309,308,299,304,0
309,311,300,302,0
306,310,299,300,0
304,308,298,297,0
302,306,298,295,0
301,307,299,295,0
301,309,301,295,0
301,311,304,298,0
301,310,308,301,0
302,307,311,304,0
303,304,314,306,0
304,302,314,306,0
307,300,314,306,0
309,301,313,304,0
313,305,314,303,0
316,310,315,303,0
318,310,315,302,0
315,304,314,301,0
311,297,311,301,0
305,291,309,301,0
301,286,308,302,0
299,285,308,303,0
296,286,307,304,0
294,287,306,305,0
295,293,305,306,0
297,303,302,306,0
300,315,300,306,0
304,325,299,306,0
307,331,298,305,0
308,330,298,304,0
307,324,300,303,0
307,318,303,303,0
308,317,305,302,0
308,320,306,301,0
310,324,308,301,0
311,331,309,301,0
312,336,311,301,0
312,336,311,301,0
310,325,310,302,0
308,312,311,304,0
307,303,311,306,0
306,295,311,307,0
305,286,310,308,0
303,279,308,308,0
301,272,305,308,0
301,265,304,309,0
302,258,304,311,0
302,253,305,313,0
303,252,309,315,0
305,257,313,318,0
310,271,318,321,0
315,289,320,321,0
316,306,318,317,0
315,319,314,312,0
312,326,308,307,0
309,327,304,304,0
307,327,303,303,0
307,332,305,304,0
308,342,307,306,0
309,349,309,306,0
309,350,308,307,0
307,346,308,307,0
305,335,307,307,0
302,322,305,307,0
300,314,303,307,0
299,311,302,307,0
298,306,301,308,0
298,301,300,307,0
298,297,299,307,0
299,295,298,305,0
300,296,298,305,0
302,298,298,305,0
302,298,298,304,0
304,295,299,304,0
306,289,302,306,0
309,280,306,309,0
311,271,309,313,0
311,263,312,316,0
311,261,314,318,0
311,268,316,320,0
312,282,318,321,0
313,297,318,322,0
316,314,319,322,0
319,328,319,322,0
319,336,318,320,0
316,336,315,317,0
310,332,312,313,0
304,324,308,310,0
300,319,306,308,0
299,318,305,307,0
300,319,305,307,0
303,322,305,306,0
307,326,306,306,0
310,328,306,306,0
310,325,306,305,0
308,318,303,303,0
305,308,300,302,0
303,300,297,301,0
302,295,295,300,0
300,291,294,300,0
298,293,293,299,0
296,298,293,298,0
295,306,294,299,0
295,319,297,300,0
296,329,300,301,0
298,334,303,303,0
299,334,306,304,0
301,332,308,305,0
303,328,310,306,0
305,323,310,306,0
307,317,310,306,0
307,312,311,305,0
307,308,311,305,0
308,306,313,304,0
308,304,313,303,0
309,302,312,301,0
309,302,311,300,0
309,301,311,300,0
310,301,310,301,0
311,300,310,302,0
312,297,309,303,0
313,293,310,305,0
314,287,310,305,0
314,277,309,306,0
315,266,310,305,0
317,258,312,306,0
316,251,313,306,0
312,237,313,306,0
307,226,314,305,0
307,228,316,305,0
311,242,318,303,0
313,261,316,300,0
313,280,314,299,0
311,297,311,301,0
309,311,310,304,0
308,326,308,306,0
307,344,307,308,0
307,358,305,308,0
306,362,302,308,0
304,359,299,306,0
301,351,297,305,0
299,339,294,304,0
298,326,294,305,0
299,315,295,305,0
301,309,295,305,0
302,309,297,304,0
304,314,298,302,0
306,318,300,301,0
307,321,302,300,0
308,324,304,299,0
308,324,306,298,0
309,323,308,298,0
311,323,311,299,0
312,322,312,301,0
312,323,313,303,0
311,324,313,304,0
311,325,311,304,0
312,327,309,304,0
312,330,307,304,0
312,332,306,305,0
312,330,304,305,0
311,322,303,306,0
310,308,303,308,0
308,291,303,309,0
305,277,304,311,0
303,272,305,313,0
304,275,308,315,0
307,289,310,316,0
311,307,311,316,0
312,316,311,315,0
313,315,311,314,0
313,310,311,314,0
312,303,311,313,0
311,297,310,312,0
310,293,310,311,0
307,292,309,309,0
305,291,308,306,0
303,288,307,305,0
302,282,308,305,0
299,276,308,304,0
296,271,308,303,0
295,273,308,304,0
296,282,308,304,0
297,292,309,305,0
300,302,309,306,0
303,310,309,308,0
306,312,309,311,0
309,311,311,312,0
309,308,312,313,0
310,303,312,312,0
310,297,311,311,0
309,291,311,310,0
310,288,310,309,0
311,291,309,309,0
312,300,309,310,0
312,308,307,310,0
311,314,306,309,0
310,313,304,309,0
307,307,303,308,0
305,303,303,307,0
305,305,304,308,0
305,311,306,309,0
305,318,307,310,0
305,321,307,310,0
305,323,307,311,0
305,320,307,311,0
306,316,308,312,0
308,311,308,312,0
309,305,309,313,0
310,301,308,312,0
311,301,308,312,0
312,304,308,311,0
313,307,309,309,0
313,310,310,307,0
311,311,309,304,0
308,311,308,302,0
305,308,308,302,0
303,302,307,303,0
300,294,306,304,0
298,278,305,305,0
296,261,303,304,0
296,254,302,304,0
298,255,302,304,0
301,258,300,305,0
304,262,300,306,0
307,268,300,307,0
310,283,301,308,0
313,303,301,308,0
313,322,301,307,0
312,335,301,305,0
311,345,302,305,0
310,351,303,304,0
308,353,303,303,0
308,353,303,303,0
307,350,302,303,0
306,346,300,302,0
304,341,299,303,0
302,337,299,304,0
301,332,300,306,0
301,328,303,308,0
301,324,304,310,0
301,318,305,311,0
301,310,304,309,0
300,296,303,308,0
300,277,302,308,0
300,257,300,308,0
300,241,301,310,0
303,241,304,314,0
308,260,309,319,0
315,289,314,322,0
319,312,316,323,0
321,326,316,322,0
320,336,315,320,0
318,343,314,319,0
315,345,311,316,0
311,347,310,315,0
309,349,307,312,0
306,348,305,309,0
302,343,301,307,0
301,338,297,305,0
301,334,295,306,0
302,329,294,306,0
304,322,296,307,0
307,316,298,310,0
310,314,301,312,0
314,312,302,313,0
314,306,303,313,0
313,295,304,312,0
309,283,304,311,0
306,271,304,309,0
304,263,303,308,0
303,261,303,307,0
304,267,303,306,0
305,277,304,306,0
305,286,303,306,0
305,293,302,306,0
304,296,301,306,0
303,294,299,305,0
303,290,299,306,0
303,288,299,308,0
305,289,303,310,0
309,297,306,312,0
312,308,310,313,0
313,317,312,314,0
313,322,313,313,0
314,326,313,314,0
313,328,313,314,0
311,326,312,313,0
309,322,310,311,0
307,319,308,309,0
306,319,308,307,0
305,318,309,304,0
305,318,311,304,0
306,319,313,304,0
306,322,314,304,0
306,322,312,304,0
305,319,311,304,0
305,316,310,304,0
307,315,309,306,0
309,318,310,308,0
312,325,312,309,0
313,334,313,310,0
312,341,314,309,0
309,341,314,307,0
307,337,313,307,0
306,336,313,306,0
307,336,312,306,0
307,331,309,305,0
307,321,305,304,0
306,306,301,304,0
306,289,296,304,0
305,275,294,304,0
304,271,295,305,0
304,272,296,305,0
303,275,296,305,0
302,278,297,305,0
302,280,300,307,0
304,283,305,311,0
309,288,311,314,0
313,294,314,316,0
316,300,315,316,0
316,304,313,314,0
313,304,310,311,0
309,300,307,309,0
307,297,304,307,0
307,296,304,307,0
308,297,305,308,0
310,297,306,309,0
310,295,307,309,0
312,291,307,309,0
313,287,307,308,0
315,286,307,307,0
315,286,306,305,0
314,289,304,305,0
314,295,302,306,0
315,304,302,308,0
317,317,303,310,0
320,335,304,313,0
321,348,304,313,0
318,352,303,311,0
311,348,301,308,0
306,338,300,305,0
302,327,300,304,0
302,319,301,304,0
302,318,304,304,0
302,318,305,305,0
302,318,306,306,0
302,318,308,306,0
301,318,309,306,0
301,319,310,305,0
302,320,310,304,0
303,320,310,303,0
304,318,311,302,0
306,316,312,303,0
307,313,313,303,0
307,310,313,304,0
306,306,313,306,0
305,304,312,308,0
304,302,312,310,0
304,299,312,312,0
305,295,313,314,0
307,288,313,315,0
309,280,313,315,0
308,272,313,316,0
305,268,314,315,0
302,268,314,315,0
301,276,313,314,0
303,290,312,313,0
306,303,310,311,0
308,312,306,308,0
310,313,302,305,0
310,309,298,303,0
309,306,295,302,0
308,305,293,302,0
308,309,294,301,0
309,315,296,302,0
310,324,298,301,0
310,329,300,301,0
309,328,301,301,0
307,323,302,301,0
306,315,303,302,0
305,305,303,303,0
304,296,303,305,0
303,291,303,307,0
304,292,303,309,0
305,295,303,309,0
305,297,305,310,0
306,298,307,310,0
307,296,310,310,0
307,289,311,309,0
307,287,313,308,0
307,291,313,307,0
308,297,312,305,0
308,298,312,304,0
308,302,312,303,0
309,314,312,301,0
309,332,312,300,0
308,349,311,299,0
305,357,310,300,0
303,356,309,303,0
301,349,309,304,0
298,337,308,306,0
297,326,308,306,0
297,319,309,307,0
299,315,309,307,0
301,313,309,308,0
303,311,310,308,0
304,303,310,309,0
306,294,309,310,0
309,287,308,310,0
313,286,308,310,0
317,289,308,309,0
319,293,308,306,0
319,299,306,304,0
318,310,304,302,0
316,317,302,302,0
313,323,300,301,0
311,325,298,300,0
307,317,295,298,0
303,305,292,296,0
300,293,292,294,0
301,288,294,294,0
302,289,297,296,0
305,296,303,298,0
307,303,308,300,0
308,308,311,302,0
308,312,313,304,0
306,316,316,307,0
305,320,318,309,0
305,323,319,311,0
305,327,318,312,0
305,335,317,312,0
305,341,315,312,0
305,342,313,312,0
306,339,312,313,0
306,335,311,313,0
306,330,310,314,0
307,325,311,316,0
309,316,312,318,0
312,303,314,320,0
314,296,317,321,0
317,299,320,321,0
318,307,320,320,0
316,311,319,318,0
311,311,316,315,0
306,308,313,312,0
302,306,311,310,0
301,305,310,309,0
302,306,310,309,0
303,307,310,308,0
302,307,309,307,0
301,308,308,306,0
299,309,307,305,0
298,307,307,305,0
298,301,306,306,0
299,291,305,307,0
299,280,305,307,0
301,271,305,308,0
303,267,306,310,0
305,269,306,311,0
305,272,304,311,0
304,277,304,310,0
303,285,304,309,0
303,292,304,309,0
302,297,304,308,0
302,300,302,306,0
301,303,300,305,0
302,310,300,304,0
302,316,299,304,0
302,321,299,303,0
301,324,298,301,0
301,325,298,300,0
302,326,298,300,0
303,326,297,299,0
304,326,298,299,0
305,325,299,299,0
304,319,300,299,0
303,310,300,299,0
303,297,301,300,0
302,284,302,301,0
302,271,303,303,0
303,267,305,306,0
305,274,305,308,0
307,290,305,309,0
310,313,304,310,0
314,335,304,310,0
316,348,305,311,0
316,353,304,311,0
316,353,304,312,0
316,352,304,313,0
316,351,306,313,0
315,345,307,312,0
311,334,307,310,0
306,319,306,309,0
303,307,306,308,0
302,302,306,308,0
302,304,307,309,0
303,307,307,309,0
303,311,308,309,0
303,314,309,308,0
302,315,311,308,0
303,315,312,307,0
303,314,313,306,0
304,309,313,306,0
304,302,315,307,0
304,296,317,308,0
305,292,317,309,0
305,289,316,308,0
305,288,313,307,0
305,286,311,306,0
306,283,309,305,0
307,281,308,305,0
310,280,308,307,0
311,277,309,309,0
311,269,310,310,0
311,260,312,311,0
311,258,313,311,0
311,265,313,310,0
313,279,315,310,0
315,297,316,311,0
317,313,316,314,0
317,322,316,316,0
315,322,314,316,0
311,316,313,316,0
307,312,312,316,0
306,310,312,316,0
306,310,312,316,0
307,312,312,316,0
308,317,311,315,0
308,323,310,313,0
309,323,310,311,0
309,320,307,308,0
309,316,305,306,0
309,315,304,304,0
308,314,302,303,0
305,316,300,301,0
303,321,298,300,0
303,327,296,300,0
304,332,295,300,0
305,335,293,301,0
305,335,292,302,0
304,334,293,303,0
304,332,295,303,0
304,329,297,304,0
304,327,300,305,0
304,323,303,306,0
304,320,306,308,0
305,316,308,310,0
306,313,309,311,0
308,310,310,312,0
309,307,310,313,0
310,305,310,313,0
311,303,310,312,0
311,302,309,312,0
312,303,309,311,0
313,305,309,310,0
312,307,307,309,0
310,309,305,306,0
309,312,304,305,0
308,315,303,304,0
307,316,302,304,0
308,316,301,304,0
308,312,300,304,0
308,307,301,305,0
308,300,301,305,0
309,290,303,306,0
311,280,305,307,0
312,268,307,308,0
312,257,308,309,0
312,246,310,309,0
311,237,311,310,0
310,232,310,310,0
309,236,308,310,0
309,248,305,310,0
309,269,302,309,0
310,294,301,308,0
312,314,300,307,0
312,323,300,304,0
310,325,299,302,0
309,327,301,302,0
309,329,303,303,0
310,332,306,303,0
308,332,308,304,0
306,330,310,305,0
303,329,311,305,0
302,330,313,307,0
302,332,316,308,0
304,334,318,310,0
306,336,319,310,0
307,337,318,310,0
307,341,317,309,0
306,343,316,308,0
305,342,315,306,0
305,338,314,305,0
305,335,313,304,0
304,330,311,302,0
302,322,309,300,0
300,312,307,299,0
298,305,305,300,0
298,302,304,300,0
299,300,305,301,0
302,298,306,303,0
305,298,308,304,0
307,297,310,305,0
307,293,312,305,0
306,290,312,305,0
304,288,310,305,0
303,286,309,304,0
304,287,307,304,0
306,292,306,304,0
308,300,305,304,0
309,308,305,304,0
309,314,304,304,0
308,318,304,305,0
307,317,303,307,0
307,313,303,309,0
309,309,305,312,0
311,307,307,315,0
314,304,312,317,0
315,305,315,319,0
315,311,315,317,0
313,316,313,314,0
309,316,309,310,0
304,315,305,305,0
301,315,301,302,0
299,315,299,300,0
300,315,298,299,0
301,317,298,300,0
304,319,300,302,0
309,320,302,305,0
312,321,304,307,0
312,318,304,308,0
310,313,302,306,0
307,305,299,306,0
305,293,296,306,0
304,284,297,308,0
304,282,300,311,0
304,284,302,312,0
303,287,303,311,0
301,289,304,310,0
300,296,304,309,0
301,308,304,307,0
303,322,305,305,0
304,330,306,305,0
305,333,306,305,0
306,330,307,307,0
307,326,307,309,0
309,322,306,310,0
311,319,305,311,0
313,317,305,312,0
313,313,305,312,0
311,306,304,310,0
308,298,303,309,0
304,291,301,308,0
302,285,299,308,0
302,282,296,308,0
301,282,294,309,0
303,286,293,310,0
304,292,294,312,0
305,298,295,313,0
305,300,297,314,0
304,294,299,314,0
303,282,301,313,0
302,271,303,313,0
301,266,305,312,0
300,272,306,312,0
299,285,307,311,0
300,301,309,311,0
302,316,310,311,0
304,327,309,310,0
306,330,307,309,0
306,332,305,307,0
306,331,304,306,0
307,330,303,307,0
307,330,303,308,0
308,329,304,309,0
309,326,306,310,0
310,323,308,311,0
311,323,310,312,0
311,323,313,313,0
310,320,314,313,0
307,314,314,314,0
305,303,314,315,0
303,287,313,315,0
302,269,311,315,0
301,254,309,315,0
303,250,307,315,0
305,260,306,314,0
307,281,305,313,0
309,301,304,311,0
308,314,301,309,0
308,320,298,308,0
307,322,297,307,0
308,320,296,307,0
309,317,297,307,0
311,309,297,306,0
311,297,297,306,0
311,288,298,307,0
312,289,300,307,0
313,297,302,308,0
313,308,303,308,0
312,319,303,308,0
311,326,303,308,0
308,324,303,308,0
305,318,303,308,0
304,310,304,309,0
304,303,305,310,0
303,302,306,309,0
302,306,306,309,0
302,310,306,308,0
301,311,305,307,0
301,310,304,307,0
301,308,302,306,0
300,308,300,307,0
301,313,299,307,0
303,319,299,308,0
303,325,300,308,0
304,329,301,307,0
304,328,302,307,0
304,320,304,307,0
304,309,305,308,0
305,302,306,309,0
307,305,308,311,0
311,315,310,313,0
314,322,310,314,0
314,319,309,314,0
311,308,307,313,0
307,297,306,312,0
305,294,305,311,0
305,303,304,309,0
309,321,303,307,0
312,339,299,304,0
313,350,296,303,0
312,353,292,300,0
310,348,290,299,0
310,341,290,298,0
309,335,291,299,0
307,329,293,300,0
306,325,296,301,0
305,320,297,302,0
306,312,297,303,0
306,304,298,304,0
307,298,298,306,0
308,295,300,310,0
310,295,303,314,0
309,297,306,316,0
306,301,309,318,0
303,311,312,319,0
302,327,316,320,0
302,342,318,318,0
302,342,317,315,0
302,326,314,312,0
302,307,312,308,0
303,294,311,305,0
305,288,311,303,0
307,293,310,301,0
309,305,310,302,0
312,314,311,305,0
313,319,310,309,0
314,322,310,312,0
312,325,310,313,0
310,327,309,315,0
307,328,308,316,0
307,328,309,318,0
307,326,310,320,0
307,320,310,321,0
305,311,310,322,0
303,303,311,323,0
302,301,312,323,0
304,304,312,323,0
306,308,312,323,0
309,313,312,322,0
312,323,311,321,0
314,329,310,319,0
315,329,309,318,0
313,323,308,316,0
310,315,307,314,0
306,308,307,313,0
303,303,307,313,0
302,300,307,313,0
301,300,308,313,0
301,299,309,314,0
301,296,308,314,0
300,287,308,314,0
299,275,308,314,0
298,263,308,315,0
299,253,309,315,0
300,253,310,316,0
304,268,313,317,0
307,292,314,316,0
311,310,314,316,0
312,318,313,315,0
313,317,313,315,0
312,310,311,314,0
309,302,309,312,0
307,302,307,311,0
305,311,306,309,0
305,323,305,309,0
305,334,305,308,0
305,340,306,308,0
308,343,308,308,0
310,340,308,308,0
310,335,308,307,0
309,329,307,306,0
309,324,305,306,0
308,319,304,306,0
307,313,302,306,0
307,311,300,306,0
309,318,299,306,0
312,329,297,306,0
313,335,296,305,0
314,336,296,305,0
313,333,297,304,0
312,325,297,305,0
312,317,300,306,0
312,309,303,307,0
310,302,305,307,0
307,292,306,306,0
303,284,307,306,0
299,282,307,307,0
296,286,306,307,0
295,296,305,308,0
295,307,304,307,0
295,313,304,307,0
295,312,302,306,0
296,305,301,305,0
298,297,300,304,0
300,288,300,304,0
302,278,301,304,0
304,269,302,303,0
305,264,302,302,0
306,266,303,302,0
307,270,305,305,0
308,273,308,308,0
309,279,311,311,0
311,289,315,313,0
313,299,319,316,0
315,304,322,318,0
315,308,322,318,0
314,312,321,318,0
312,315,320,317,0
309,317,318,316,0
307,317,317,316,0
306,315,317,317,0
306,312,316,317,0
307,311,314,317,0
307,315,312,317,0
309,323,310,316,0
308,329,308,314,0
307,333,306,311,0
306,336,305,309,0
305,335,305,309,0
305,333,306,309,0
305,331,307,310,0
305,326,309,310,0
305,320,311,310,0
306,313,312,310,0
308,309,314,310,0
309,307,314,310,0
308,306,313,309,0
306,307,311,308,0
304,308,309,307,0
302,309,308,307,0
301,313,307,307,0
301,317,307,308,0
304,321,308,309,0
307,321,308,310,0
309,312,309,310,0
310,298,309,310,0
310,283,308,311,0
309,272,308,311,0
310,271,309,311,0
313,281,309,311,0
314,294,307,308,0
312,301,303,304,0
308,300,299,301,0
305,301,296,299,0
303,304,294,299,0
300,306,293,299,0
298,310,292,299,0
297,316,292,301,0
296,322,294,302,0
297,327,297,304,0
298,328,302,307,0
299,324,306,310,0
300,314,309,311,0
301,303,311,312,0
303,294,313,311,0
304,290,314,310,0
305,291,314,309,0
306,294,314,308,0
307,292,312,308,0
306,285,309,307,0
304,277,305,305,0
304,272,304,305,0
304,269,303,306,0
304,267,303,306,0
304,266,304,306,0
304,266,304,305,0
303,273,305,306,0
303,291,307,307,0
304,316,310,308,0
304,338,312,308,0
302,349,312,307,0
298,349,312,304,0
296,343,313,302,0
296,334,313,301,0
298,326,313,301,0
302,322,314,302,0
306,323,315,304,0
312,328,316,307,0
317,331,317,309,0
320,329,316,310,0
320,325,314,310,0
317,318,312,309,0
314,312,310,309,0
311,310,309,310,0
308,311,310,312,0
308,313,309,313,0
306,306,308,313,0
305,294,309,314,0
307,289,311,316,0
309,291,313,317,0
311,299,314,317,0
312,315,313,314,0
310,327,310,312,0
307,331,306,309,0
305,328,304,306,0
302,318,302,304,0
300,304,302,304,0
300,288,301,304,0
300,277,301,305,0
301,272,300,306,0
303,271,300,306,0
305,271,300,307,0
307,276,301,307,0
308,288,302,306,0
308,302,303,305,0
308,315,302,304,0
306,325,301,303,0
306,333,300,305,0
305,339,301,306,0
306,345,302,309,0
306,350,302,310,0
307,353,303,311,0
307,354,304,312,0
308,346,306,313,0
309,333,307,313,0
310,319,309,314,0
313,309,311,314,0
315,304,312,312,0
315,297,312,310,0
314,289,309,306,0
312,281,305,303,0
309,273,302,302,0
308,271,300,302,0
307,276,298,302,0
307,286,297,302,0
307,300,296,303,0
305,313,296,305,0
304,321,297,308,0
302,321,298,311,0
301,309,298,313,0
299,294,299,315,0
298,283,302,315,0
298,277,305,315,0
299,278,307,315,0
302,282,308,314,0
305,283,307,314,0
307,282,306,314,0
310,286,305,312,0
312,295,304,311,0
313,305,303,309,0
312,314,302,307,0
308,319,300,304,0
304,323,299,303,0
301,329,298,303,0
