301,312,302,294,2
303,300,301,300,2
307,291,302,307,2
313,284,303,314,2
318,280,305,316,2
323,276,306,315,2
326,274,307,313,2
327,275,307,309,2
326,278,304,304,2
323,280,300,298,2
318,275,297,291,2
313,264,297,283,2
310,253,299,277,2
308,247,301,274,2
307,247,302,273,2
306,256,303,275,2
305,271,303,279,2
303,289,302,286,2
303,308,304,294,2
302,325,307,298,2
300,336,310,301,2
297,341,310,305,2
295,339,308,308,2
293,336,305,310,2
292,332,300,311,2
291,325,294,311,2
290,314,289,308,2
290,307,288,304,2
291,309,290,304,2
291,323,295,305,2
292,340,299,305,2
293,355,301,304,2
294,360,303,306,2
296,354,303,310,2
297,341,303,314,2
298,329,303,319,2
300,320,305,323,2
302,313,307,326,2
303,305,311,329,2
304,293,316,331,2
303,280,321,333,2
304,273,325,332,2
305,278,327,327,2
305,292,327,320,2
305,308,327,310,2
303,320,324,301,2
301,326,319,293,2
300,325,315,288,2
300,320,313,286,2
299,311,311,288,2
298,294,310,293,2
296,273,309,298,2
295,254,307,298,2
293,241,304,293,2
291,239,302,284,2
291,245,300,274,2
289,255,299,266,2
288,269,298,263,2
287,286,299,270,2
287,299,301,288,2
289,311,304,309,2
291,317,308,327,2
294,321,313,336,2
296,321,318,338,2
297,313,322,337,2
297,295,325,336,2
296,274,325,332,2
295,261,323,327,2
297,263,321,322,2
304,276,319,318,2
313,292,319,316,2
319,301,319,317,2
321,306,319,318,2
319,310,318,312,2
315,313,315,301,2
308,316,312,293,2
302,320,309,290,2
297,327,305,290,2
294,332,302,293,2
295,339,301,300,2
298,346,301,308,2
301,346,304,319,2
304,335,309,330,2
307,315,315,340,2
311,299,321,348,2
317,297,325,351,2
322,308,327,350,2
324,319,325,346,2
322,323,320,340,2
320,321,313,334,2
319,316,307,329,2
318,313,302,325,2
317,311,297,320,2
315,308,295,316,2
313,308,295,313,2
311,313,297,309,2
311,320,300,305,2
310,327,303,302,2
310,328,305,299,2
310,318,308,298,2
312,302,310,299,2
315,287,313,299,2
319,278,316,298,2
321,277,319,295,2
320,279,320,290,2
315,279,320,282,2
307,279,319,276,2
299,285,315,277,2
293,296,310,283,2
291,306,306,290,2
291,314,302,294,2
292,317,300,291,2
293,314,299,284,2
293,307,298,274,2
292,300,297,267,2
291,293,295,265,2
291,290,296,269,2
294,289,299,278,2
297,288,303,288,2
299,285,306,298,2
297,287,307,305,2
293,291,308,308,2
289,298,308,308,2
287,308,309,306,2
288,322,309,302,2
291,335,308,297,2
295,344,309,291,2
298,347,311,287,2
301,342,314,286,2
303,333,317,289,2
305,326,319,292,2
305,326,318,293,2
303,328,316,291,2
301,325,314,290,2
299,318,312,292,2
299,307,311,297,2
299,296,313,304,2
301,285,315,310,2
303,280,316,316,2
304,282,317,321,2
303,285,319,324,2
301,288,319,328,2
299,292,318,332,2
300,299,318,337,2
304,306,319,342,2
311,312,319,346,2
316,317,319,345,2
319,322,317,338,2
318,332,315,331,2
315,343,313,325,2
310,348,312,322,2
305,344,312,318,2
300,326,310,313,2
295,297,308,306,2
292,263,307,298,2
293,243,307,289,2
299,245,309,280,2
306,265,311,275,2
310,293,311,279,2
312,314,311,287,2
311,324,308,294,2
309,324,306,299,2
310,319,304,302,2
312,314,301,305,2
317,311,297,308,2
320,311,295,312,2
323,312,293,317,2
326,318,294,322,2
329,330,299,329,2
331,340,305,334,2
330,342,312,336,2
325,335,316,334,2
316,325,318,330,2
308,321,316,324,2
303,324,313,320,2
300,328,311,316,2
298,326,309,315,2
296,319,307,313,2
293,309,306,313,2
291,297,306,313,2
289,284,307,313,2
286,273,307,311,2
283,270,305,307,2
282,278,303,304,2
284,292,301,305,2
287,301,300,309,2
291,300,300,314,2
294,291,301,319,2
297,279,304,323,2
300,274,308,325,2
303,277,310,326,2
305,280,310,326,2
305,279,309,324,2
305,279,307,320,2
304,284,306,316,2
303,295,306,312,2
302,308,308,310,2
301,317,311,305,2
300,319,315,297,2
300,320,317,283,2
302,324,318,267,2
304,329,319,254,2
305,331,317,247,2
306,326,314,247,2
303,314,311,255,2
300,297,306,269,2
297,278,303,285,2
295,264,301,298,2
294,262,302,307,2
296,270,304,313,2
297,281,307,319,2
300,294,310,324,2
303,303,312,329,2
306,305,313,332,2
306,299,310,331,2
306,287,306,326,2
306,272,302,318,2
309,265,302,310,2
313,270,304,303,2
318,284,306,297,2
321,302,308,296,2
322,321,308,298,2
321,338,310,303,2
320,351,313,307,2
319,365,314,309,2
319,378,314,308,2
318,385,311,304,2
315,381,306,295,2
310,372,302,285,2
306,365,299,276,2
304,359,299,268,2
303,348,300,264,2
300,331,301,264,2
297,312,303,271,2
293,296,303,281,2
291,294,303,292,2
293,302,304,305,2
299,312,304,316,2
306,322,304,323,2
312,331,303,324,2
316,338,300,318,2
319,340,296,309,2
319,340,291,303,2
320,339,287,302,2
321,335,286,304,2
321,326,289,310,2
319,311,294,316,2
315,291,301,320,2
312,277,308,319,2
313,275,316,310,2
316,280,323,297,2
321,285,326,282,2
326,281,328,267,2
329,269,329,255,2
331,264,329,254,2
332,268,326,260,2
330,278,322,271,2
326,288,317,283,2
320,295,312,297,2
311,295,309,311,2
302,289,307,322,2
293,289,306,329,2
287,299,305,333,2
282,312,304,336,2
281,326,302,341,2
284,337,301,345,2
289,345,300,348,2
294,349,300,350,2
299,350,301,350,2
304,343,301,348,2
304,332,300,342,2
301,318,297,334,2
295,300,294,323,2
289,283,292,314,2
285,270,293,307,2
283,265,295,303,2
283,267,299,303,2
285,281,303,305,2
288,299,306,309,2
292,312,310,312,2
295,315,314,314,2
298,307,318,316,2
298,294,323,318,2
297,284,327,320,2
297,284,328,322,2
296,294,327,325,2
297,309,325,326,2
301,319,323,327,2
304,318,319,327,2
305,308,314,323,2
304,296,307,317,2
302,285,301,309,2
301,279,296,300,2
303,279,294,293,2
307,283,294,288,2
310,288,295,287,2
314,293,296,289,2
318,297,297,297,2
322,297,298,307,2
325,294,299,318,2
326,295,301,326,2
323,294,301,328,2
316,286,301,324,2
310,277,304,315,2
305,270,307,302,2
303,270,309,285,2
302,284,311,271,2
303,303,311,263,2
305,318,311,260,2
306,329,311,260,2
307,334,311,266,2
306,333,311,274,2
306,331,312,282,2
305,332,311,287,2
304,332,309,290,2
303,330,305,293,2
303,326,303,296,2
303,322,302,299,2
303,325,303,304,2
305,331,304,307,2
308,335,306,309,2
312,335,306,306,2
316,332,307,301,2
320,330,307,293,2
320,332,307,283,2
320,335,308,276,2
320,341,311,272,2
319,344,313,271,2
318,340,315,274,2
317,333,315,278,2
316,324,314,284,2
314,318,313,293,2
312,315,312,304,2
309,310,310,314,2
304,305,309,321,2
298,298,308,322,2
294,291,306,317,2
291,287,305,306,2
291,284,305,293,2
293,281,305,282,2
296,275,305,276,2
298,269,304,281,2
301,270,303,294,2
303,276,303,310,2
304,280,303,326,2
304,281,305,339,2
304,278,308,349,2
304,274,310,355,2
304,272,311,358,2
305,276,311,357,2
306,285,307,353,2
305,294,301,345,2
301,300,295,336,2
297,305,291,328,2
295,314,291,323,2
297,324,297,320,2
302,333,305,320,2
306,342,313,321,2
309,350,318,323,2
309,355,320,325,2
307,354,319,326,2
303,346,317,327,2
300,332,314,327,2
297,318,311,324,2
294,304,309,322,2
293,290,309,320,2
292,273,309,319,2
293,255,309,318,2
295,235,308,316,2
299,219,306,314,2
304,204,304,313,2
310,194,302,312,2
315,194,299,309,2
321,213,298,308,2
329,249,298,302,2
334,287,298,288,2
332,319,298,270,2
327,341,296,257,2
320,359,294,249,2
313,371,293,245,2
306,376,293,249,2
300,374,296,261,2
298,368,301,274,2
296,356,306,284,2
294,336,309,290,2
292,311,312,295,2
290,282,314,301,2
289,258,316,308,2
290,255,317,316,2
292,272,319,324,2
297,293,319,330,2
300,307,318,334,2
304,314,317,335,2
305,321,318,335,2
308,332,318,332,2
309,347,317,327,2
308,363,315,323,2
306,369,314,320,2
304,363,312,315,2
301,347,311,309,2
299,326,310,300,2
300,309,310,290,2
303,301,307,279,2
306,302,306,271,2
308,308,304,269,2
308,317,301,271,2
308,324,298,276,2
308,327,297,280,2
310,332,297,286,2
313,340,299,293,2
316,347,301,303,2
318,350,302,311,2
317,343,303,316,2
312,328,303,316,2
305,308,304,315,2
299,290,305,314,2
295,283,307,313,2
293,286,308,312,2
292,292,308,310,2
291,297,306,307,2
290,301,304,306,2
290,303,303,302,2
292,303,303,297,2
294,304,303,291,2
297,308,303,281,2
300,310,302,268,2
302,305,300,257,2
302,292,299,253,2
301,278,300,252,2
300,267,303,250,2
297,256,306,250,2
293,244,308,254,2
291,238,309,262,2
289,254,309,274,2
289,288,309,285,2
290,321,309,294,2
293,343,309,303,2
296,352,309,314,2
298,350,310,330,2
304,343,311,349,2
313,337,313,367,2
320,336,316,379,2
324,343,317,384,2
326,354,317,382,2
325,364,316,376,2
323,369,316,369,2
320,367,316,360,2
315,358,316,351,2
310,347,315,340,2
305,336,314,329,2
300,324,312,319,2
296,314,312,310,2
294,305,312,305,2
292,295,312,306,2
292,285,313,312,2
294,274,311,320,2
297,267,309,328,2
301,262,306,333,2
304,257,302,336,2
305,254,298,336,2
306,251,294,334,2
307,254,290,331,2
307,260,287,325,2
306,267,285,319,2
304,272,286,315,2
301,276,293,316,2
300,278,303,319,2
300,274,312,325,2
302,268,318,329,2
303,266,321,329,2
305,271,321,326,2
308,281,319,320,2
310,296,317,313,2
312,315,315,306,2
315,335,314,300,2
316,347,311,295,2
315,347,308,293,2
313,339,306,295,2
311,334,305,299,2
309,339,304,303,2
308,348,305,307,2
307,351,306,309,2
304,342,306,307,2
301,329,304,302,2
298,318,300,295,2
295,310,294,284,2
292,295,287,267,2
288,271,279,250,2
284,244,274,243,2
282,225,275,247,2
282,223,281,257,2
285,239,291,269,2
292,267,303,279,2
298,300,312,285,2
304,329,318,289,2
309,351,322,296,2
313,366,325,303,2
316,374,327,307,2
316,373,327,306,2
315,365,325,299,2
311,349,322,289,2
306,327,318,279,2
300,308,315,275,2
297,296,313,279,2
295,289,311,288,2
292,285,311,299,2
291,279,311,309,2
292,269,311,318,2
296,258,311,326,2
303,253,311,334,2
310,256,312,341,2
316,268,313,348,2
322,287,313,353,2
328,307,314,355,2
332,326,313,353,2
335,346,312,347,2
334,367,311,340,2
329,382,309,332,2
319,388,308,324,2
310,386,306,316,2
302,376,305,309,2
297,364,303,300,2
293,350,300,288,2
290,339,298,277,2
290,330,297,268,2
292,318,297,265,2
295,307,297,269,2
300,302,297,280,2
306,297,297,292,2
310,291,297,302,2
313,281,299,313,2
315,270,303,324,2
316,265,308,334,2
316,270,315,343,2
316,283,320,347,2
316,298,323,346,2
317,309,321,339,2
316,313,317,332,2
313,313,311,326,2
310,311,307,324,2
306,309,305,325,2
301,303,305,327,2
297,289,305,328,2
293,268,304,327,2
289,252,303,323,2
288,251,303,317,2
287,261,304,308,2
288,271,307,299,2
290,274,311,289,2
292,270,314,283,2
292,262,316,282,2
292,254,317,288,2
292,247,315,298,2
292,242,313,306,2
293,237,310,313,2
294,243,309,318,2
298,262,309,322,2
303,290,309,326,2
308,319,308,328,2
311,343,306,328,2
313,357,303,326,2
314,361,301,323,2
314,355,298,320,2
313,348,294,317,2
310,343,291,315,2
306,341,287,311,2
300,337,283,306,2
294,329,281,302,2
292,317,281,298,2
294,307,286,294,2
299,303,290,290,2
304,306,295,288,2
308,313,300,289,2
311,323,305,291,2
313,333,310,289,2
314,342,314,286,2
314,350,314,282,2
313,352,314,282,2
311,348,312,285,2
310,336,310,292,2
309,315,310,300,2
309,288,312,308,2
311,262,315,314,2
314,247,318,316,2
318,246,319,314,2
319,259,316,305,2
318,277,313,291,2
318,293,310,275,2
318,310,310,262,2
318,332,309,254,2
316,362,307,251,2
314,392,305,254,2
312,412,304,262,2
311,418,304,272,2
308,405,304,282,2
302,374,302,290,2
294,340,298,298,2
288,315,296,306,2
286,296,296,316,2
287,283,297,325,2
290,273,300,331,2
291,269,303,332,2
292,272,306,330,2
291,283,308,324,2
290,299,310,313,2
290,315,313,297,2
290,327,314,280,2
289,332,314,263,2
289,331,311,252,2
288,323,304,248,2
289,303,296,254,2
288,274,288,264,2
287,246,284,277,2
288,230,285,294,2
293,232,289,309,2
300,244,291,320,2
305,258,293,327,2
307,268,294,332,2
306,275,295,336,2
304,277,296,337,2
302,279,298,338,2
302,284,302,338,2
305,294,306,334,2
309,310,309,325,2
311,333,312,312,2
313,353,313,294,2
313,365,314,279,2
313,372,313,272,2
314,371,313,278,2
313,360,312,292,2
310,339,312,308,2
305,313,312,319,2
300,288,312,326,2
297,276,312,327,2
297,278,314,322,2
300,287,313,313,2
304,301,311,304,2
306,315,305,300,2
305,324,296,299,2
304,329,288,303,2
303,331,281,310,2
303,328,277,320,2
303,314,276,329,2
305,290,277,337,2
308,263,283,342,2
312,244,290,344,2
317,240,299,343,2
323,249,308,343,2
329,265,312,342,2
333,283,313,341,2
334,297,312,339,2
329,308,311,335,2
321,315,310,330,2
310,314,308,322,2
300,307,306,314,2
293,298,305,308,2
290,295,303,305,2
290,301,302,304,2
291,312,299,307,2
291,325,297,311,2
291,333,295,313,2
289,337,295,311,2
287,338,295,306,2
286,337,297,302,2
285,331,300,301,2
286,319,304,303,2
288,301,309,309,2
290,285,315,317,2
293,281,320,324,2
297,286,323,327,2
299,296,323,323,2
300,300,322,317,2
301,297,320,312,2
301,295,319,309,2
301,300,320,309,2
301,311,319,310,2
301,320,318,313,2
302,323,317,314,2
304,321,316,314,2
307,313,313,313,2
310,305,312,312,2
313,306,311,309,2
316,321,313,302,2
319,348,313,294,2
321,377,314,281,2
320,399,313,268,2
318,411,312,262,2
316,413,310,266,2
313,404,309,275,2
312,389,307,285,2
312,372,307,295,2
314,356,309,302,2
317,342,312,304,2
318,332,313,302,2
316,322,313,299,2
313,312,310,292,2
309,304,306,285,2
305,296,302,281,2
300,287,298,282,2
295,278,297,289,2
291,268,297,298,2
288,260,298,306,2
287,254,299,312,2
287,246,299,317,2
286,241,297,322,2
285,243,296,327,2
285,248,294,331,2
285,243,295,335,2
286,228,297,337,2
287,213,300,335,2
288,209,301,330,2
291,223,304,323,2
295,246,306,315,2
300,274,309,303,2
305,303,311,291,2
311,329,312,277,2
317,350,313,265,2
321,363,312,257,2
321,369,310,257,2
320,366,309,267,2
317,354,308,285,2
313,333,307,304,2
310,312,308,322,2
309,299,312,333,2
311,294,318,340,2
315,298,324,343,2
319,311,329,341,2
319,330,329,336,2
317,345,326,329,2
313,354,322,321,2
310,352,321,315,2
307,341,319,308,2
304,321,318,301,2
300,301,315,294,2
297,291,313,286,2
296,294,309,277,2
295,302,307,275,2
296,307,305,282,2
296,309,303,296,2
297,308,301,310,2
297,303,298,321,2
297,293,295,330,2
296,276,293,335,2
296,257,293,338,2
294,242,293,337,2
293,240,294,335,2
293,252,297,333,2
297,276,301,332,2
300,301,305,331,2
302,321,307,330,2
305,335,306,329,2
308,340,304,327,2
310,335,303,327,2
312,324,303,327,2
313,313,304,328,2
314,306,307,329,2
314,301,309,330,2
315,299,308,328,2
315,299,306,324,2
314,298,304,319,2
312,294,303,312,2
308,288,304,305,2
304,282,305,297,2
301,283,307,288,2
300,289,308,278,2
301,295,309,268,2
304,302,312,261,2
310,314,313,259,2
315,330,313,259,2
319,342,312,262,2
322,349,311,273,2
323,353,312,288,2
323,356,314,303,2
322,359,317,316,2
321,358,318,325,2
319,352,318,329,2
317,341,318,332,2
315,330,317,331,2
314,321,317,328,2
312,310,316,318,2
309,299,313,301,2
305,289,310,280,2
302,288,307,262,2
300,298,305,250,2
300,313,303,244,2
302,328,300,244,2
306,336,297,250,2
310,339,295,264,2
315,337,295,282,2
318,333,297,303,2
318,327,300,322,2
318,318,303,336,2
317,310,307,344,2
316,308,311,347,2
312,310,311,345,2
307,316,309,341,2
302,324,308,335,2
298,330,306,329,2
294,331,304,323,2
290,327,301,317,2
287,317,299,313,2
285,305,298,312,2
285,294,299,312,2
285,285,301,313,2
286,277,303,311,2
288,270,305,306,2
292,265,306,299,2
297,260,307,292,2
302,257,309,288,2
308,257,311,288,2
312,261,312,290,2
313,268,311,291,2
312,271,309,294,2
307,266,306,299,2
303,258,304,306,2
299,257,303,313,2
297,268,303,319,2
297,289,304,323,2
298,312,303,324,2
299,331,302,323,2
301,345,303,324,2
303,351,305,324,2
305,350,306,326,2
308,342,308,326,2
310,330,309,327,2
312,314,309,326,2
311,294,308,325,2
309,277,306,323,2
308,268,303,323,2
308,271,301,324,2
311,288,299,324,2
314,315,297,322,2
317,340,294,318,2
319,356,290,314,2
319,359,286,309,2
318,354,284,305,2
314,344,286,301,2
308,335,292,300,2
305,328,300,299,2
303,321,307,296,2
301,305,311,294,2
298,277,312,290,2
295,246,312,286,2
294,221,312,284,2
295,208,310,285,2
298,205,308,289,2
303,206,306,297,2
306,215,304,306,2
308,236,301,315,2
309,267,300,320,2
312,301,300,324,2
314,332,301,324,2
315,355,302,323,2
314,369,302,321,2
312,374,302,318,2
309,373,301,313,2
307,371,301,306,2
306,373,300,296,2
307,377,301,285,2
309,381,302,275,2
313,386,304,268,2
316,387,305,261,2
318,378,304,254,2
318,359,304,250,2
315,336,304,250,2
311,322,305,253,2
307,318,306,259,2
303,324,310,267,2
300,339,316,273,2
299,356,320,278,2
298,366,322,287,2
297,366,321,298,2
297,354,320,307,2
295,332,318,312,2
294,301,314,313,2
293,268,311,313,2
294,249,309,316,2
297,250,307,320,2
302,266,305,324,2
307,285,303,327,2
310,297,302,331,2
313,303,301,334,2
315,304,302,336,2
317,302,303,336,2
318,296,304,333,2
319,293,303,327,2
322,295,302,318,2
325,300,302,308,2
326,308,302,301,2
323,315,302,296,2
317,320,301,290,2
307,323,299,285,2
299,324,299,279,2
292,323,300,272,2
289,318,301,263,2
288,307,303,257,2
288,295,303,256,2
288,286,303,259,2
288,284,304,270,2
291,286,307,287,2
296,292,310,305,2
303,302,312,322,2
310,313,314,336,2
315,321,315,349,2
317,328,315,356,2
317,331,314,357,2
314,329,312,349,2
312,326,310,333,2
310,321,308,310,2
307,312,306,286,2
305,301,304,268,2
302,292,303,262,2
301,288,304,266,2
301,289,305,277,2
303,295,307,291,2
305,301,308,304,2
307,301,310,316,2
308,295,311,325,2
308,284,310,328,2
308,270,308,328,2
309,258,305,327,2
311,253,301,326,2
312,260,297,324,2
312,274,293,324,2
311,289,292,326,2
309,299,291,328,2
305,303,292,330,2
303,298,293,333,2
301,287,297,336,2
301,275,301,337,2
301,269,304,338,2
301,272,307,338,2
301,285,310,338,2
300,301,313,337,2
297,315,314,335,2
294,326,315,333,2
290,332,315,330,2
286,332,314,328,2
283,327,314,327,2
282,314,312,326,2
283,297,312,326,2
287,276,310,325,2
290,261,305,322,2
293,255,300,318,2
296,254,297,314,2
299,255,295,310,2
300,261,295,306,2
303,273,297,303,2
305,290,300,300,2
307,305,302,298,2
309,317,304,296,2
310,326,305,295,2
310,330,306,297,2
311,335,306,301,2
312,341,307,306,2
314,345,307,310,2
315,339,308,313,2
315,319,308,315,2
315,289,307,315,2
314,263,304,314,2
314,252,304,313,2
314,261,304,312,2
312,282,306,308,2
309,303,308,302,2
307,317,312,295,2
305,324,315,287,2
304,329,319,282,2
304,338,323,281,2
305,350,323,285,2
307,358,322,292,2
309,361,320,301,2
311,360,318,308,2
313,358,316,313,2
314,351,316,316,2
315,333,315,316,2
315,307,315,313,2
315,282,313,308,2
315,266,309,299,2
315,257,304,288,2
318,258,300,275,2
321,272,297,258,2
322,294,294,239,2
322,315,292,221,2
322,330,294,208,2
324,338,297,199,2
324,339,300,201,2
320,334,302,214,2
315,330,304,234,2
309,331,305,256,2
304,336,306,275,2
300,341,306,291,2
299,344,305,303,2
297,345,304,315,2
295,343,303,326,2
291,338,300,335,2
287,330,297,339,2
283,319,295,337,2
280,306,293,328,2
280,292,295,315,2
282,281,299,302,2
286,276,303,291,2
290,276,306,288,2
293,276,305,292,2
293,273,304,302,2
292,263,303,314,2
292,243,303,324,2
292,226,304,331,2
293,224,306,333,2
297,241,308,331,2
302,275,309,327,2
308,315,311,323,2
312,346,312,319,2
312,364,313,318,2
310,371,313,319,2
306,369,312,323,2
303,362,311,328,2
301,349,310,333,2
299,331,306,337,2
300,314,302,339,2
302,301,298,340,2
305,290,294,340,2
308,279,292,339,2
308,273,292,337,2
309,277,294,336,2
309,285,293,333,2
309,288,291,331,2
308,286,289,330,2
308,279,288,329,2
310,273,292,327,2
313,277,296,324,2
316,291,302,321,2
318,307,307,319,2
320,319,311,318,2
321,322,313,319,2
321,319,313,320,2
320,315,310,320,2
319,315,306,320,2
319,323,304,319,2
320,337,304,319,2
321,351,304,318,2
320,356,303,315,2
317,351,303,314,2
314,340,304,313,2
312,327,306,313,2
311,314,308,312,2
310,304,311,312,2
309,299,313,312,2
309,297,313,312,2
310,298,310,311,2
310,299,306,309,2
308,300,302,306,2
305,299,298,304,2
301,292,295,302,2
296,279,293,300,2
292,264,294,301,2
289,253,297,303,2
289,248,303,305,2
291,254,309,307,2
294,276,313,307,2
296,305,314,305,2
297,331,315,303,2
299,349,317,302,2
299,357,319,302,2
299,356,318,302,2
299,350,315,301,2
300,340,313,299,2
302,332,311,294,2
306,330,309,288,2
311,331,310,281,2
317,333,310,274,2
321,332,310,267,2
324,331,310,262,2
325,329,309,258,2
325,328,308,258,2
324,327,307,263,2
324,324,308,276,2
327,320,309,292,2
331,315,311,305,2
335,310,314,311,2
336,306,315,312,2
334,308,316,311,2
329,313,314,307,2
321,317,311,303,2
312,319,308,300,2
305,319,308,299,2
300,320,308,296,2
297,318,307,291,2
296,314,306,283,2
296,309,304,276,2
298,304,302,271,2
299,301,300,273,2
300,299,300,285,2
301,295,302,302,2
303,284,306,319,2
303,269,308,330,2
302,256,310,334,2
301,251,310,331,2
298,253,307,324,2
295,257,304,314,2
292,260,301,306,2
290,265,299,300,2
290,272,300,299,2
292,279,301,301,2
297,282,304,307,2
304,284,307,313,2
311,288,309,315,2
316,294,311,315,2
319,301,311,316,2
318,304,310,314,2
314,301,308,312,2
308,285,306,308,2
301,259,303,304,2
293,233,301,300,2
288,218,299,298,2
289,225,298,299,2
295,258,299,305,2
303,301,300,314,2
311,342,301,323,2
314,369,301,330,2
314,383,301,336,2
311,388,301,339,2
309,384,301,341,2
307,374,300,342,2
305,364,297,342,2
304,353,294,340,2
304,341,290,334,2
306,331,287,325,2
309,324,286,314,2
313,323,287,303,2
317,321,289,292,2
320,317,291,287,2
319,305,295,290,2
315,285,298,298,2
310,265,302,306,2
305,250,306,313,2
298,244,308,318,2
292,250,308,318,2
286,264,306,314,2
282,282,304,307,2
279,295,303,301,2
277,298,304,298,2
276,288,307,299,2
278,267,312,303,2
281,244,319,308,2
285,225,325,314,2
290,219,329,318,2
295,228,330,318,2
298,248,329,313,2
298,274,327,306,2
299,305,322,298,2
299,335,318,289,2
300,358,315,280,2
301,373,312,273,2
301,384,311,273,2
302,391,310,280,2
303,389,309,293,2
304,379,309,307,2
304,367,309,321,2
305,359,309,332,2
307,350,309,338,2
310,336,311,340,2
313,319,313,338,2
318,304,314,336,2
323,298,314,334,2
327,298,313,333,2
330,305,313,334,2
333,317,314,336,2
335,328,315,333,2
335,336,317,329,2
333,340,316,320,2
328,340,314,310,2
319,336,312,300,2
309,327,308,294,2
298,312,305,294,2
290,294,304,296,2
287,281,306,299,2
289,276,309,299,2
294,278,313,297,2
299,286,314,293,2
303,299,312,289,2
304,311,310,287,2
303,319,308,286,2
301,321,307,280,2
297,320,306,264,2
292,318,305,247,2
287,319,303,232,2
284,318,303,226,2
284,313,303,232,2
287,302,304,250,2
294,287,305,272,2
302,273,305,292,2
309,266,303,305,2
312,269,302,312,2
309,281,301,314,2
304,298,300,314,2
299,315,300,314,2
296,327,301,313,2
294,329,299,313,2
294,320,297,313,2
295,309,295,313,2
298,308,294,314,2
300,315,293,315,2
302,324,292,317,2
302,331,291,318,2
300,327,291,320,2
298,313,293,319,2
297,290,296,315,2
295,265,299,312,2
297,251,302,312,2
301,253,307,316,2
310,270,313,325,2
321,296,318,333,2
331,320,321,339,2
340,338,324,341,2
346,346,325,342,2
348,342,324,341,2
347,328,322,338,2
342,307,320,336,2
334,286,317,336,2
324,268,313,335,2
311,260,306,332,2
298,262,298,326,2
290,267,291,318,2
285,273,287,310,2
283,282,286,305,2
283,291,290,305,2
286,300,297,310,2
290,307,304,317,2
295,311,311,325,2
299,315,316,332,2
303,316,316,335,2
304,314,314,334,2
306,306,312,333,2
308,297,310,331,2
306,292,309,328,2
304,297,309,325,2
302,306,311,323,2
303,311,313,321,2
305,312,314,320,2
308,311,314,320,2
312,311,314,322,2
314,315,314,322,2
316,322,313,322,2
316,330,312,318,2
315,333,312,313,2
313,327,311,308,2
309,310,310,303,2
304,285,311,301,2
299,259,313,304,2
295,244,317,311,2
292,246,318,316,2
289,265,316,318,2
288,289,313,318,2
289,312,311,314,2
294,330,310,308,2
299,344,310,299,2
304,354,309,289,2
307,365,310,278,2
310,374,310,267,2
311,376,310,261,2
312,369,310,263,2
312,356,309,273,2
312,343,308,287,2
312,335,309,300,2
313,336,311,307,2
313,339,312,307,2
310,339,311,301,2
304,337,311,294,2
299,331,310,291,2
294,320,310,292,2
289,305,309,296,2
287,289,309,302,2
285,275,309,308,2
284,265,310,307,2
285,259,311,298,2
285,254,310,286,2
286,253,307,277,2
287,257,301,273,2
289,269,296,274,2
293,284,290,276,2
295,294,286,281,2
297,298,285,290,2
297,300,286,302,2
297,305,290,315,2
297,310,296,325,2
298,312,300,332,2
300,312,304,335,2
305,313,308,339,2
311,318,311,340,2
319,327,312,341,2
327,336,312,340,2
333,341,311,338,2
336,344,309,333,2
335,344,308,326,2
332,342,306,319,2
327,338,306,315,2
322,329,307,315,2
318,315,308,317,2
316,291,309,319,2
315,258,310,320,2
314,220,309,318,2
311,188,307,311,2
306,179,305,299,2
301,195,304,286,2
296,231,302,278,2
292,267,299,276,2
287,294,295,279,2
285,312,292,285,2
284,322,290,288,2
284,326,288,291,2
284,326,287,294,2
285,326,288,299,2
287,328,290,307,2
290,331,292,316,2
294,332,294,324,2
299,331,297,329,2
303,330,299,331,2
308,334,303,331,2
313,343,307,331,2
317,356,313,332,2
320,367,316,332,2
320,365,318,332,2
316,353,318,332,2
310,337,317,332,2
305,325,317,331,2
300,314,317,327,2
297,305,316,320,2
294,296,315,311,2
293,282,315,302,2
294,267,314,296,2
296,253,314,296,2
301,249,315,301,2
308,256,314,309,2
314,267,311,316,2
318,274,307,319,2
318,276,304,320,2
316,278,302,321,2
313,285,302,321,2
308,295,304,321,2
302,307,306,321,2
296,319,310,320,2
292,324,312,319,2
287,320,312,316,2
285,309,311,312,2
284,298,310,309,2
285,293,311,308,2
287,296,313,307,2
289,300,315,307,2
294,307,318,306,2
299,314,319,304,2
304,319,318,302,2
307,322,315,300,2
310,323,313,299,2
312,323,311,296,2
313,324,310,291,2
314,330,310,282,2
315,338,309,273,2
315,345,307,266,2
314,350,304,265,2
312,351,302,272,2
310,350,301,283,2
308,347,302,296,2
307,346,303,305,2
304,344,304,312,2
302,342,305,314,2
300,336,304,311,2
299,325,302,304,2
298,312,300,296,2
297,303,299,290,2
297,298,299,286,2
296,290,299,284,2
294,274,299,281,2
290,253,299,277,2
287,236,299,272,2
284,230,299,271,2
285,240,302,273,2
290,262,306,278,2
296,288,309,286,2
301,312,311,296,2
303,331,310,308,2
304,342,309,319,2
305,345,306,328,2
305,340,303,333,2
305,329,301,332,2
306,315,300,327,2
307,301,302,317,2
307,292,305,305,2
307,288,307,295,2
306,293,309,289,2
306,305,311,292,2
308,314,312,300,2
309,317,312,306,2
310,317,310,308,2
311,313,307,306,2
311,307,304,303,2
311,298,302,300,2
309,288,300,300,2
307,277,299,302,2
306,269,300,305,2
305,262,302,308,2
305,265,305,311,2
308,274,309,313,2
310,283,312,313,2
313,285,315,313,2
317,290,316,312,2
322,306,316,313,2
325,322,315,317,2
324,329,312,323,2
321,328,310,328,2
317,324,309,332,2
313,321,307,335,2
309,326,306,336,2
305,340,305,336,2
303,356,305,336,2
299,368,304,335,2
296,371,303,333,2
294,368,301,329,2
297,362,300,326,2
304,355,299,324,2
310,346,300,323,2
313,338,300,322,2
314,329,301,321,2
309,321,300,318,2
303,313,299,312,2
298,307,300,302,2
296,304,301,293,2
295,299,303,288,2
296,288,306,286,2
296,268,308,287,2
297,246,311,292,2
299,230,313,300,2
303,226,314,309,2
307,233,313,315,2
308,248,309,317,2
306,268,303,315,2
301,289,297,311,2
295,301,291,308,2
292,302,287,309,2
292,297,286,312,2
294,292,288,317,2
296,289,294,321,2
299,288,301,325,2
300,284,308,329,2
301,278,313,331,2
301,276,316,331,2
300,278,317,330,2
300,280,315,327,2
299,289,312,323,2
299,306,309,319,2
300,325,308,317,2
302,343,309,315,2
304,359,311,314,2
306,370,314,314,2
307,370,316,313,2
306,359,318,312,2
305,344,319,311,2
303,327,320,308,2
302,312,321,304,2
303,304,323,298,2
304,303,325,290,2
305,308,325,280,2
305,313,322,274,2
303,314,319,273,2
300,311,316,278,2
298,310,313,285,2
297,310,311,291,2
298,315,310,296,2
300,322,309,298,2
300,327,308,297,2
299,329,307,297,2
298,329,305,296,2
297,327,304,293,2
297,319,303,292,2
297,308,303,290,2
297,293,302,290,2
297,274,302,292,2
299,258,300,297,2
302,247,297,301,2
307,242,296,307,2
313,248,296,313,2
319,265,298,318,2
327,286,300,322,2
331,302,303,324,2
332,309,305,324,2
329,314,305,322,2
323,323,305,318,2
320,335,307,314,2
319,347,311,311,2
319,359,315,308,2
320,368,318,306,2
319,372,320,302,2
317,370,320,298,2
312,361,317,294,2
307,349,312,289,2
302,336,306,285,2
300,323,302,283,2
299,313,299,285,2
300,307,299,290,2
301,303,299,297,2
302,297,301,305,2
301,291,301,313,2
300,286,302,319,2
298,285,301,322,2
298,287,300,319,2
298,291,301,311,2
300,294,302,300,2
302,297,303,289,2
303,297,304,282,2
305,295,304,283,2
307,292,303,292,2
308,284,303,306,2
309,269,303,317,2
307,246,303,324,2
301,216,301,326,2
296,187,299,321,2
292,168,299,314,2
294,168,302,306,2
300,189,303,295,2
307,223,302,274,2
313,259,299,249,2
319,291,297,227,2
323,316,297,216,2
326,334,300,218,2
326,346,304,232,2
324,351,309,253,2
320,350,312,274,2
317,348,312,292,2
314,351,310,304,2
311,357,306,313,2
308,363,303,320,2
307,367,301,324,2
306,367,299,330,2
306,366,299,336,2
306,363,301,344,2
307,358,305,352,2
308,348,309,358,2
308,335,313,361,2
308,324,315,359,2
309,323,316,357,2
311,331,315,353,2
314,343,315,349,2
317,344,316,345,2
318,331,315,340,2
316,306,313,334,2
310,278,311,328,2
305,257,310,324,2
303,241,308,324,2
304,226,305,324,2
306,211,300,325,2
311,200,297,327,2
317,196,294,329,2
325,195,294,331,2
333,202,299,334,2
339,219,306,336,2
340,244,309,332,2
333,270,307,326,2
322,296,304,318,2
310,321,301,311,2
300,346,302,307,2
293,366,305,306,2
289,381,309,308,2
287,389,313,309,2
286,391,315,310,2
287,389,317,310,2
288,381,317,309,2
290,365,317,309,2
292,338,317,310,2
295,304,317,313,2
300,276,317,315,2
307,266,319,318,2
316,276,319,317,2
322,293,318,315,2
323,306,316,311,2
317,312,314,307,2
308,310,312,305,2
299,302,312,306,2
293,295,313,309,2
291,294,313,309,2
291,300,313,306,2
294,313,312,299,2
298,327,311,292,2
303,336,311,285,2
306,337,311,281,2
307,333,309,283,2
305,328,307,289,2
305,325,305,296,2
307,322,304,298,2
310,322,302,294,2
311,321,299,288,2
311,320,295,282,2
312,317,292,276,2
314,314,292,273,2
316,315,293,275,2
318,322,295,285,2
318,329,299,296,2
314,331,302,306,2
309,329,304,314,2
303,325,306,320,2
300,322,306,323,2
298,319,306,322,2
297,317,306,315,2
296,317,305,301,2
295,322,304,281,2
294,328,304,261,2
296,332,306,249,2
298,334,309,251,2
301,332,311,264,2
301,328,312,283,2
302,323,312,303,2
302,319,313,318,2
304,316,314,326,2
305,315,314,329,2
307,312,315,329,2
307,307,314,327,2
305,301,314,324,2
301,288,313,321,2
297,268,313,320,2
292,246,315,319,2
289,229,317,320,2
291,229,320,322,2
295,250,322,323,2
300,275,320,325,2
305,295,317,327,2
311,304,313,329,2
317,302,312,332,2
322,291,312,334,2
326,279,314,335,2
331,271,314,334,2
334,268,313,331,2
335,273,310,327,2
332,287,306,320,2
326,304,300,314,2
319,319,294,308,2
313,330,289,305,2
308,339,288,303,2
306,345,291,305,2
305,351,296,306,2
305,356,301,307,2
304,360,304,308,2
302,361,306,307,2
299,358,305,306,2
295,351,302,304,2
291,342,299,304,2
289,331,296,304,2
290,320,294,306,2
293,310,293,307,2
298,300,292,307,2
306,292,292,306,2
314,287,294,305,2
321,283,298,300,2
323,281,302,293,2
321,282,308,286,2
315,286,313,279,2
307,292,315,274,2
301,297,315,272,2
297,295,314,277,2
295,283,311,286,2
294,272,308,296,2
295,266,305,301,2
297,264,304,302,2
299,266,303,301,2
302,274,302,301,2
303,285,301,299,2
303,296,302,300,2
301,304,303,304,2
300,309,305,312,2
300,313,308,320,2
301,310,310,327,2
304,300,313,333,2
308,281,318,338,2
310,265,322,340,2
310,261,323,338,2
309,269,322,334,2
306,283,320,330,2
304,296,318,326,2
300,296,315,322,2
296,281,314,320,2
292,253,314,315,2
290,227,315,309,2
290,218,316,298,2
293,232,314,286,2
297,263,311,275,2
302,297,308,269,2
306,324,305,271,2
308,337,304,278,2
310,341,303,284,2
312,349,303,287,2
315,364,303,286,2
319,380,303,281,2
324,390,303,275,2
327,391,302,275,2
330,386,302,282,2
331,380,303,293,2
332,375,304,304,2
329,369,305,311,2
322,355,307,315,2
313,334,309,317,2
303,311,311,319,2
296,292,315,321,2
292,287,317,322,2
292,291,318,321,2
294,294,318,320,2
296,296,319,320,2
300,299,319,322,2
303,309,318,325,2
306,323,315,327,2
307,334,310,327,2
305,339,304,323,2
302,341,298,317,2
298,340,293,311,2
295,339,292,307,2
294,335,295,306,2
294,330,299,306,2
296,325,304,305,2
298,319,311,304,2
300,308,317,304,2
301,291,320,306,2
301,275,319,307,2
300,270,315,310,2
300,282,310,311,2
301,302,305,311,2
300,320,300,309,2
298,332,295,303,2
295,334,292,296,2
292,326,290,289,2
291,315,289,287,2
292,303,290,286,2
295,295,294,287,2
297,287,298,287,2
298,284,301,282,2
297,287,304,276,2
298,292,307,274,2
302,297,312,279,2
305,300,315,285,2
306,304,315,293,2
305,306,313,302,2
304,306,311,311,2
302,306,310,316,2
300,306,308,317,2
298,306,306,313,2
298,304,305,306,2
297,302,303,299,2
295,297,301,294,2
294,283,299,295,2
293,263,298,300,2
294,246,298,306,2
297,239,297,308,2
299,248,296,305,2
302,270,296,298,2
307,297,296,289,2
312,320,297,281,2
315,336,298,279,2
319,349,300,287,2
321,355,301,299,2
323,355,302,313,2
323,353,305,325,2
323,351,307,335,2
321,351,309,340,2
316,351,310,341,2
309,346,310,337,2
301,336,308,330,2
294,322,306,322,2
290,305,304,314,2
289,284,304,308,2
289,261,303,307,2
290,242,303,310,2
290,238,300,315,2
291,251,295,317,2
295,273,291,319,2
301,296,287,319,2
306,312,284,318,2
310,323,284,317,2
313,330,288,317,2
315,335,295,318,2
314,337,303,319,2
311,336,311,321,2
306,330,318,322,2
301,316,322,322,2
296,298,324,321,2
294,282,324,320,2
294,280,323,319,2
297,286,322,318,2
299,294,320,316,2
300,303,318,314,2
301,311,316,313,2
300,319,315,312,2
300,328,315,312,2
300,335,316,313,2
301,338,317,313,2
300,338,318,314,2
300,335,317,313,2
299,330,316,312,2
298,318,314,311,2
298,300,313,310,2
298,280,312,309,2
299,263,311,307,2
302,256,311,305,2
306,261,311,302,2
309,274,310,296,2
310,288,309,289,2
309,302,308,281,2
306,312,308,277,2
304,317,308,277,2
302,315,307,280,2
301,309,304,283,2
302,300,301,284,2
305,294,300,284,2
310,292,300,284,2
313,292,301,282,2
313,288,301,281,2
313,285,303,284,2
314,287,305,286,2
315,290,305,287,2
315,290,304,286,2
315,290,303,285,2
313,299,302,283,2
311,314,302,281,2
307,330,301,279,2
303,342,299,278,2
299,350,298,281,2
297,354,298,289,2
297,357,300,296,2
299,356,301,303,2
302,354,302,311,2
306,352,304,319,2
313,349,307,322,2
320,340,308,321,2
326,323,309,318,2
332,302,308,316,2
335,284,305,316,2
336,276,303,316,2
333,276,300,319,2
326,282,297,322,2
315,288,294,324,2
304,290,290,326,2
293,286,287,328,2
286,281,288,330,2
283,281,294,331,2
284,286,301,332,2
288,292,306,332,2
291,298,309,332,2
294,302,311,332,2
295,299,312,330,2
296,294,312,325,2
296,294,313,318,2
296,302,311,310,2
295,317,306,299,2
293,329,300,288,2
291,335,296,278,2
291,337,295,270,2
292,335,296,264,2
295,329,298,265,2
298,322,301,273,2
300,312,302,284,2
301,304,302,294,2
301,302,301,302,2
303,304,301,308,2
305,305,300,311,2
308,304,299,313,2
311,305,299,314,2
313,306,300,317,2
313,301,301,321,2
310,289,302,323,2
305,275,303,322,2
300,266,303,319,2
295,265,303,315,2
293,268,303,313,2
294,275,305,313,2
296,282,307,313,2
297,288,307,313,2
297,295,307,311,2
298,304,307,307,2
298,314,309,302,2
299,320,311,299,2
298,319,312,297,2
296,312,313,298,2
295,304,314,300,2
296,297,316,305,2
299,295,316,309,2
306,297,315,313,2
313,299,313,316,2
319,303,311,319,2
322,312,310,323,2
323,321,312,326,2
324,324,316,329,2
325,322,320,328,2
325,321,321,321,2
323,321,318,311,2
322,322,314,301,2
321,321,308,292,2
319,314,305,286,2
318,300,305,282,2
315,283,306,279,2
311,271,307,276,2
309,270,306,274,2
309,282,305,278,2
313,300,303,286,2
319,318,300,298,2
325,333,298,310,2
327,343,296,320,2
325,349,294,326,2
321,356,295,329,2
316,363,296,330,2
311,366,298,329,2
308,365,301,328,2
306,362,304,327,2
306,356,307,328,2
307,345,308,328,2
308,329,309,328,2
307,311,309,328,2
304,295,307,326,2
301,284,305,321,2
299,281,304,316,2
299,284,303,311,2
302,288,304,309,2
306,291,306,309,2
313,290,310,312,2
316,288,313,316,2
317,289,314,319,2
314,289,313,319,2
311,286,312,316,2
308,277,311,309,2
306,269,310,298,2
305,267,308,282,2
306,274,305,265,2
308,287,301,252,2
311,293,296,249,2
313,289,293,254,2
315,280,292,264,2
316,276,292,274,2
316,280,295,280,2
317,291,299,287,2
317,302,302,293,2
315,306,303,299,2
310,295,302,307,2
304,270,302,315,2
299,246,300,323,2
294,235,299,329,2
290,244,297,330,2
288,268,296,327,2
289,294,296,322,2
290,315,297,316,2
294,328,298,312,2
298,333,300,311,2
301,331,301,314,2
302,326,301,320,2
303,317,300,327,2
303,306,299,332,2
305,300,300,334,2
308,302,301,333,2
311,308,303,327,2
312,309,304,319,2
311,305,304,313,2
310,299,305,309,2
309,299,306,305,2
308,302,305,303,2
307,304,302,301,2
306,304,298,300,2
305,302,295,301,2
305,299,294,304,2
307,295,294,306,2
308,294,296,309,2
309,298,299,311,2
311,304,303,316,2
313,313,308,322,2
316,327,313,328,2
318,340,317,333,2
319,348,320,336,2
321,351,323,336,2
323,352,324,332,2
325,352,324,326,2
327,352,322,318,2
328,350,320,309,2
327,344,317,301,2
324,334,314,294,2
320,319,310,292,2
316,302,308,293,2
314,289,306,296,2
315,284,306,297,2
318,282,307,298,2
320,278,309,297,2
319,270,312,294,2
315,259,314,290,2
309,251,315,287,2
305,251,315,285,2
302,257,313,286,2
298,268,307,291,2
294,285,303,300,2
292,303,299,309,2
291,315,297,318,2
292,321,299,324,2
293,324,305,327,2
294,320,312,328,2
295,303,318,326,2
296,278,320,322,2
296,259,320,314,2
297,259,318,303,2
298,277,315,292,2
299,303,312,281,2
299,325,309,273,2
300,341,307,271,2
302,352,306,274,2
302,357,306,280,2
303,359,306,288,2
302,358,305,296,2
302,352,302,300,2
302,344,299,303,2
303,335,296,306,2
305,327,294,311,2
307,320,294,317,2
309,316,296,324,2
311,313,300,331,2
313,312,305,336,2
313,309,311,338,2
311,305,315,336,2
308,297,318,330,2
307,287,320,324,2
307,275,321,316,2
307,262,320,307,2
306,250,321,299,2
305,242,321,295,2
304,242,323,295,2
304,253,323,298,2
303,267,321,305,2
304,269,317,313,2
306,259,315,318,2
309,250,312,320,2
312,258,310,320,2
314,286,308,319,2
315,321,307,319,2
313,350,304,320,2
311,366,302,322,2
310,373,301,323,2
310,375,302,324,2
311,374,302,324,2
312,370,302,324,2
312,364,303,326,2
313,354,304,326,2
311,339,304,325,2
308,319,305,322,2
304,297,307,318,2
300,279,310,313,2
297,270,313,308,2
295,269,315,305,2
293,266,315,303,2
295,257,315,304,2
299,247,315,307,2
304,244,316,311,2
309,256,314,315,2
314,281,312,317,2
319,310,310,319,2
322,337,307,318,2
323,355,302,317,2
324,364,297,315,2
324,366,293,312,2
323,367,290,308,2
322,368,290,302,2
321,366,289,296,2
319,361,288,292,2
318,354,289,292,2
318,342,290,294,2
316,325,291,297,2
313,302,292,301,2
308,279,292,306,2
305,265,293,313,2
303,262,295,319,2
303,266,299,324,2
304,274,304,325,2
305,283,309,324,2
305,289,314,321,2
303,292,317,318,2
300,296,318,315,2
298,303,317,314,2
296,312,316,316,2
297,318,315,320,2
299,316,313,323,2
300,303,311,326,2
302,282,311,328,2
304,259,311,330,2
304,240,312,330,2
303,228,313,329,2
302,223,314,326,2
301,226,315,321,2
301,242,313,313,2
300,272,308,301,2
301,307,305,291,2
303,336,304,283,2
306,357,304,275,2
307,368,304,269,2
309,373,305,266,2
310,374,307,263,2
312,372,310,261,2
313,368,312,259,2
312,363,312,259,2
309,357,313,264,2
305,348,312,271,2
302,337,311,281,2
300,326,311,291,2
298,317,311,302,2
296,315,311,313,2
296,317,312,321,2
295,320,311,327,2
294,327,309,329,2
294,333,308,328,2
295,335,307,323,2
295,331,307,318,2
296,325,307,311,2
296,319,307,304,2
297,315,306,298,2
298,311,305,295,2
299,310,303,292,2
298,310,302,287,2
298,310,302,279,2
297,309,302,266,2
296,309,303,249,2
293,311,303,235,2
290,313,303,228,2
289,315,303,232,2
292,315,303,248,2
298,314,305,270,2
307,314,308,295,2
321,318,312,318,2
336,323,315,337,2
351,327,316,349,2
362,327,316,353,2
363,323,316,353,2
355,317,315,350,2
340,310,313,347,2
322,303,311,344,2
304,298,308,341,2
292,293,306,338,2
285,285,304,335,2
281,272,302,331,2
279,258,300,328,2
277,253,298,327,2
277,254,297,327,2
278,256,296,329,2
280,259,297,333,2
283,264,297,335,2
286,271,298,334,2
288,279,300,331,2
290,286,303,327,2
293,287,306,323,2
294,283,308,320,2
297,275,309,319,2
300,268,309,319,2
303,265,308,320,2
306,266,306,320,2
308,269,305,320,2
310,277,305,318,2
311,292,304,316,2
311,310,302,313,2
310,324,299,310,2
308,334,295,309,2
306,343,294,308,2
305,349,295,309,2
304,352,298,308,2
305,352,301,304,2
306,352,303,298,2
309,354,304,290,2
311,354,306,282,2
313,352,306,277,2
312,347,307,277,2
310,332,308,279,2
308,312,308,283,2
305,290,306,285,2
300,269,301,284,2
294,254,296,283,2
291,247,294,286,2
289,246,293,291,2
290,251,294,297,2
293,257,296,301,2
299,264,299,301,2
305,274,304,301,2
313,286,311,303,2
320,298,317,309,2
325,311,322,317,2
330,327,324,324,2
332,344,326,330,2
332,357,326,333,2
329,366,324,333,2
323,370,321,329,2
315,369,317,325,2
307,360,315,321,2
301,342,315,319,2
297,322,315,317,2
295,307,316,316,2
295,304,316,313,2
296,312,316,309,2
298,323,315,302,2
299,331,314,296,2
299,333,311,288,2
298,328,306,275,2
296,318,302,261,2
295,308,298,252,2
296,305,296,248,2
298,308,296,247,2
302,315,299,252,2
307,323,301,260,2
314,330,305,271,2
320,334,308,283,2
321,333,310,297,2
321,327,312,312,2
319,319,315,327,2
317,313,317,341,2
316,311,319,347,2
316,311,319,346,2
314,310,318,341,2
310,306,315,333,2
305,299,312,325,2
300,291,311,319,2
298,281,310,314,2
301,270,310,311,2
306,261,311,310,2
311,257,312,309,2
314,257,311,309,2
315,265,310,308,2
316,277,308,309,2
315,294,305,312,2
310,309,304,316,2
303,318,304,317,2
295,322,305,315,2
289,320,309,315,2
286,315,312,316,2
285,311,315,316,2
287,311,317,313,2
290,317,317,309,2
293,323,315,305,2
295,327,311,302,2
297,324,307,304,2
297,314,303,307,2
297,298,299,309,2
295,280,294,306,2
294,269,291,303,2
294,266,290,301,2
296,269,292,302,2
297,273,296,305,2
298,280,300,309,2
300,292,305,315,2
305,306,310,322,2
311,318,313,327,2
315,322,311,327,2
317,321,305,324,2
317,319,298,318,2
315,316,291,311,2
314,316,290,301,2
315,316,293,292,2
317,315,298,284,2
320,314,302,281,2
322,315,306,281,2
324,318,309,284,2
323,321,310,287,2
318,322,311,291,2
310,320,312,298,2
304,317,314,307,2
301,313,316,317,2
301,311,320,327,2
305,311,322,334,2
310,312,323,337,2
315,311,321,338,2
317,308,315,335,2
318,302,309,332,2
315,293,304,327,2
310,284,301,320,2
304,271,299,313,2
299,260,300,307,2
297,258,304,303,2
298,264,309,303,2
300,274,313,307,2
301,285,315,312,2
301,296,315,318,2
299,305,313,322,2
297,308,310,324,2
294,310,307,323,2
292,308,306,321,2
293,314,308,320,2
295,329,311,319,2
297,346,314,318,2
298,357,316,313,2
298,361,316,306,2
298,358,315,299,2
298,349,315,295,2
298,334,315,296,2
300,320,316,302,2
303,307,317,310,2
307,296,318,316,2
311,286,318,317,2
316,280,319,313,2
321,279,318,307,2
323,287,316,300,2
321,301,314,296,2
319,319,313,292,2
315,335,311,285,2
311,344,309,278,2
305,344,304,272,2
299,342,298,270,2
295,340,295,272,2
293,338,294,277,2
294,333,295,284,2
296,326,299,289,2
299,320,303,291,2
304,315,307,291,2
308,312,310,291,2
312,308,312,295,2
316,305,312,302,2
319,301,310,309,2
321,298,306,316,2
320,296,301,321,2
320,294,299,326,2
320,292,300,330,2
322,291,302,333,2
323,292,304,332,2
322,293,304,328,2
318,295,304,323,2
316,299,304,319,2
316,302,304,318,2
318,309,304,318,2
320,316,303,319,2
320,321,301,321,2
318,320,300,324,2
316,315,300,327,2
315,309,300,328,2
314,304,299,327,2
313,300,297,323,2
311,294,296,315,2
308,284,294,306,2
304,275,294,298,2
299,270,294,294,2
295,269,295,292,2
290,267,297,292,2
286,262,297,293,2
284,257,297,295,2
285,255,296,295,2
289,259,296,294,2
293,266,295,294,2
297,277,296,296,2
301,288,298,301,2
303,292,300,307,2
303,285,301,312,2
302,275,302,317,2
302,270,304,321,2
302,275,306,325,2
304,288,309,328,2
306,304,310,328,2
308,319,309,328,2
311,332,307,326,2
313,341,305,324,2
314,347,304,322,2
315,346,303,321,2
315,339,303,319,2
315,327,303,316,2
314,315,301,312,2
313,305,299,306,2
312,301,296,301,2
312,300,294,297,2
311,298,292,294,2
309,291,292,291,2
307,281,295,290,2
304,272,301,289,2
303,271,308,286,2
303,286,313,282,2
302,315,317,277,2
302,348,321,274,2
302,372,324,277,2
302,381,326,287,2
303,377,326,300,2
306,367,326,314,2
310,355,325,323,2
314,347,325,326,2
318,342,324,323,2
318,332,322,318,2
318,315,320,315,2
315,292,318,314,2
312,269,315,316,2
311,256,314,321,2
311,258,313,325,2
312,270,313,328,2
313,283,313,327,2
314,296,314,323,2
314,310,317,317,2
314,325,318,310,2
313,342,318,303,2
313,358,317,300,2
312,368,316,299,2
311,371,315,299,2
311,368,314,299,2
311,361,313,297,2
311,352,313,293,2
312,342,313,288,2
313,334,313,285,2
313,324,311,284,2
314,314,308,283,2
314,305,305,280,2
314,298,302,279,2
312,290,299,278,2
310,281,298,278,2
308,272,297,280,2
309,263,298,287,2
312,257,301,299,2
314,258,303,311,2
313,266,304,319,2
310,279,305,324,2
308,292,305,327,2
308,304,307,327,2
308,314,308,324,2
308,317,309,319,2
307,313,308,313,2
306,304,307,309,2
304,296,306,309,2
303,292,304,311,2
303,289,302,316,2
304,289,300,322,2
306,290,300,326,2
308,291,301,328,2
309,293,301,327,2
311,296,301,326,2
314,296,301,323,2
316,293,303,318,2
315,291,305,308,2
311,290,306,293,2
305,292,305,277,2
299,291,305,266,2
294,291,307,265,2
293,299,308,273,2
295,308,310,284,2
298,314,309,293,2
302,317,309,297,2
305,316,308,297,2
307,314,308,294,2
307,310,308,293,2
306,304,307,298,2
304,296,305,307,2
302,285,304,315,2
303,274,304,320,2
304,266,305,322,2
308,265,306,321,2
312,272,307,319,2
315,285,308,317,2
315,299,308,314,2
313,311,306,313,2
309,322,302,313,2
305,329,298,314,2
303,330,294,315,2
301,325,289,316,2
300,319,284,316,2
300,313,281,317,2
300,308,280,318,2
302,305,282,319,2
304,303,287,320,2
305,304,294,320,2
306,308,303,319,2
307,315,313,317,2
309,323,320,314,2
310,330,324,311,2
312,336,324,309,2
312,340,320,308,2
310,341,316,309,2
307,339,312,309,2
305,333,309,310,2
302,325,308,310,2
301,314,308,310,2
299,298,308,308,2
298,284,308,306,2
298,274,309,306,2
301,276,312,307,2
305,288,316,309,2
309,302,316,310,2
311,311,316,311,2
312,314,315,311,2
313,311,315,309,2
312,304,314,305,2
311,294,312,301,2
309,282,311,294,2
308,269,310,289,2
307,257,308,286,2
306,251,306,287,2
306,255,306,292,2
306,269,306,297,2
306,290,305,301,2
307,314,304,303,2
309,336,304,304,2
310,349,306,303,2
312,353,306,300,2
311,353,307,293,2
310,351,306,285,2
310,349,307,278,2
310,347,308,275,2
311,343,309,279,2
312,338,311,290,2
312,333,313,303,2
312,329,313,314,2
312,327,310,323,2
311,323,306,328,2
309,321,302,329,2
307,322,298,327,2
306,326,297,320,2
306,329,300,311,2
307,327,303,303,2
308,320,306,295,2
310,309,309,292,2
315,294,310,296,2
319,280,309,305,2
325,275,305,315,2
331,279,301,323,2
336,286,298,328,2
341,290,295,331,2
343,285,294,330,2
342,272,295,327,2
340,252,297,325,2
336,236,302,325,2
331,231,308,326,2
325,239,313,326,2
317,260,316,324,2
310,289,317,320,2
302,313,315,317,2
296,327,311,315,2
292,334,308,313,2
289,335,304,312,2
286,336,300,310,2
285,337,295,307,2
286,334,293,303,2
288,331,292,300,2
291,333,293,299,2
295,336,294,300,2
297,339,296,305,2
296,337,297,310,2
294,334,299,311,2
291,329,300,306,2
289,324,302,302,2
288,317,304,299,2
288,307,305,298,2
289,301,305,300,2
292,300,304,303,2
295,305,303,305,2
298,313,301,308,2
300,320,299,309,2
300,324,300,311,2
300,326,301,314,2
299,324,302,316,2
299,321,304,316,2
298,320,305,314,2
298,320,306,309,2
297,318,306,304,2
295,312,304,299,2
296,303,304,294,2
299,292,304,291,2
302,280,305,291,2
307,266,307,294,2
313,253,309,298,2
317,249,311,301,2
319,254,311,301,2
318,263,309,301,2
316,271,307,300,2
313,275,306,299,2
309,276,306,295,2
305,275,307,289,2
301,274,306,280,2
298,268,306,270,2
297,258,306,265,2
300,247,309,267,2
305,247,312,277,2
311,260,312,290,2
316,284,308,299,2
320,310,302,304,2
320,333,295,306,2
317,351,288,308,2
312,364,283,310,2
306,371,282,314,2
302,371,285,321,2
301,365,292,328,2
302,356,299,332,2
304,351,307,335,2
307,352,314,337,2
309,353,319,339,2
311,352,320,340,2
313,346,322,343,2
314,341,322,346,2
316,337,321,347,2
316,336,319,346,2
314,333,317,344,2
311,329,314,341,2
309,326,312,338,2
308,327,309,334,2
308,329,308,330,2
308,329,306,326,2
309,328,305,323,2
310,324,305,320,2
309,317,304,318,2
306,310,303,315,2
305,306,303,311,2
304,303,304,308,2
302,297,304,306,2
300,285,305,307,2
296,270,306,309,2
293,256,307,312,2
292,248,309,315,2
290,246,311,314,2
290,249,311,309,2
292,259,311,303,2
294,270,310,300,2
297,283,309,297,2
299,295,309,295,2
302,307,310,293,2
305,317,311,290,2
307,319,311,288,2
309,312,311,288,2
311,301,311,291,2
312,290,309,295,2
311,277,306,299,2
308,264,303,302,2
306,251,301,304,2
306,245,302,305,2
307,249,303,305,2
307,257,303,304,2
305,263,301,302,2
303,265,299,301,2
304,263,297,304,2
306,264,296,307,2
310,271,294,303,2
314,285,291,291,2
316,302,289,274,2
318,319,290,261,2
322,334,295,257,2
326,349,300,264,2
330,363,305,277,2
330,370,309,294,2
327,372,312,312,2
320,368,312,324,2
310,362,311,331,2
302,354,308,331,2
296,343,305,326,2
292,326,302,320,2
289,304,300,315,2
288,284,299,317,2
288,278,300,322,2
290,288,304,328,2
294,305,308,332,2
297,321,312,335,2
299,332,313,335,2
298,337,313,334,2
296,336,311,332,2
294,330,309,329,2
291,321,306,325,2
290,311,303,321,2
292,302,300,317,2
296,289,299,313,2
302,271,298,308,2
307,252,296,305,2
314,240,295,302,2
321,240,297,300,2
327,252,302,299,2
332,274,308,298,2
337,294,312,298,2
338,306,311,298,2
334,314,308,296,2
327,323,304,295,2
318,334,300,294,2
309,344,299,296,2
303,354,302,300,2
301,363,305,305,2
302,367,311,310,2
303,368,314,314,2
303,364,316,316,2
302,358,316,317,2
299,351,315,318,2
297,345,313,319,2
296,336,311,319,2
296,326,310,319,2
296,315,311,318,2
298,302,311,317,2
298,290,311,315,2
298,281,312,314,2
298,273,311,314,2
297,264,311,314,2
295,255,312,314,2
295,253,312,315,2
296,255,312,317,2
297,255,313,318,2
300,254,312,318,2
301,258,311,317,2
304,271,309,314,2
306,293,309,312,2
310,318,310,307,2
313,339,311,301,2
316,354,314,295,2
318,363,317,290,2
321,367,318,286,2
323,367,316,285,2
325,365,312,285,2
327,359,307,286,2
328,355,303,287,2
327,352,300,289,2
325,349,300,290,2
324,343,301,291,2
323,333,302,290,2
324,320,302,289,2
326,308,302,287,2
329,300,303,285,2
334,297,305,285,2
337,297,308,286,2
338,297,309,288,2
335,301,309,291,2
326,306,309,295,2
314,313,308,301,2
302,319,307,307,2
292,323,306,311,2
285,323,305,314,2
279,320,304,315,2
275,314,304,316,2
274,306,303,316,2
274,298,303,316,2
276,290,302,316,2
278,284,302,316,2
280,282,302,316,2
282,285,303,313,2
286,291,303,308,2
290,295,303,301,2
293,296,302,292,2
295,296,301,284,2
297,294,299,279,2
297,286,298,279,2
298,271,298,282,2
299,251,300,286,2
299,232,303,290,2
300,220,307,292,2
301,223,310,292,2
302,243,312,290,2
303,269,312,285,2
303,294,312,281,2
302,314,312,279,2
302,331,312,284,2
302,343,312,294,2
304,348,311,305,2
305,348,310,316,2
306,344,308,324,2
305,339,305,331,2
304,335,303,336,2
302,333,301,338,2
301,331,298,338,2
300,327,295,336,2
299,321,292,331,2
297,315,288,323,2
296,310,285,317,2
296,306,284,314,2
297,305,285,313,2
299,305,287,314,2
300,307,292,314,2
301,308,299,317,2
301,306,305,320,2
300,300,311,324,2
299,290,314,327,2
299,280,315,326,2
301,273,317,323,2
304,269,319,320,2
308,267,322,317,2
312,264,326,313,2
315,259,329,308,2
316,256,329,301,2
315,260,327,292,2
314,270,322,283,2
311,282,315,275,2
307,296,309,274,2
304,314,305,278,2
303,326,304,285,2
302,329,305,295,2
302,324,307,306,2
304,319,309,317,2
307,320,311,323,2
311,325,312,324,2
314,330,312,321,2
317,334,312,315,2
319,340,312,308,2
319,348,310,303,2
318,354,307,300,2
314,353,304,298,2
310,348,301,297,2
307,341,299,300,2
306,337,299,305,2
308,339,302,313,2
312,344,307,321,2
316,348,312,326,2
319,351,315,329,2
321,350,317,330,2
324,344,319,330,2
325,336,320,331,2
326,326,320,330,2
326,316,317,327,2
328,308,314,324,2
329,300,309,320,2
328,289,302,314,2
323,269,296,308,2
314,240,290,301,2
303,207,287,291,2
295,184,287,285,2
294,182,290,286,2
300,205,296,295,2
310,242,301,307,2
320,282,306,317,2
326,315,309,322,2
328,334,310,321,2
324,340,308,316,2
316,339,307,308,2
309,336,305,300,2
305,342,307,296,2
303,353,309,292,2
303,362,311,287,2
304,370,313,281,2
304,377,313,276,2
304,381,313,276,2
304,384,314,283,2
305,383,315,294,2
307,379,317,308,2
310,370,318,321,2
311,356,317,331,2
309,342,315,336,2
306,328,313,337,2
304,314,311,337,2
301,301,308,335,2
299,288,305,332,2
297,275,301,329,2
296,263,294,324,2
294,254,289,316,2
292,248,284,306,2
291,250,281,295,2
290,259,282,281,2
291,271,286,267,2
292,286,293,260,2
294,298,301,265,2
297,306,308,281,2
300,311,313,297,2
303,313,315,312,2
305,313,315,322,2
308,312,313,328,2
309,311,311,331,2
309,309,308,331,2
307,307,304,330,2
304,302,302,329,2
301,293,302,329,2
298,280,304,331,2
295,267,309,335,2
293,255,312,338,2
291,243,315,340,2
290,232,317,341,2
290,225,318,341,2
291,225,321,341,2
294,233,324,339,2
299,250,325,335,2
304,274,324,328,2
307,302,320,320,2
309,326,316,313,2
312,344,313,310,2
313,355,312,310,2
315,362,311,312,2
315,364,309,315,2
316,364,307,317,2
317,361,304,319,2
318,355,301,319,2
321,345,298,320,2
326,334,296,320,2
331,326,295,320,2
335,325,295,320,2
336,332,298,320,2
334,342,302,319,2
328,346,307,319,2
320,343,311,318,2
312,337,314,316,2
306,332,315,315,2
301,328,314,312,2
298,323,312,308,2
296,316,310,303,2
294,306,308,297,2
294,296,305,288,2
295,288,302,282,2
296,283,299,281,2
299,282,297,283,2
302,285,296,284,2
305,291,293,282,2
306,296,290,277,2
304,296,285,274,2
299,289,282,274,2
294,269,281,274,2
287,235,281,274,2
282,196,282,273,2
278,164,287,270,2
280,152,296,266,2
286,162,306,265,2
295,184,314,267,2
304,209,320,269,2
313,237,323,269,2
320,266,323,272,2
324,298,319,280,2
325,329,312,290,2
323,351,304,301,2
322,363,300,310,2
322,369,300,318,2
323,377,304,325,2
325,386,308,332,2
328,392,311,338,2
329,392,313,342,2
327,389,312,345,2
322,383,309,346,2
315,376,305,345,2
309,368,302,340,2
305,360,301,334,2
305,353,302,327,2
308,346,305,320,2
311,337,308,312,2
311,322,311,304,2
308,300,313,298,2
304,276,314,297,2
301,256,315,301,2
301,247,315,310,2
303,247,316,321,2
304,247,316,330,2
304,246,318,337,2
304,248,320,341,2
304,261,321,342,2
304,279,322,341,2
303,296,320,337,2
301,312,318,332,2
300,328,314,327,2
299,341,311,323,2
297,350,308,321,2
296,356,306,319,2
297,360,306,317,2
301,360,306,315,2
306,359,307,313,2
313,358,309,309,2
318,356,309,302,2
322,355,310,295,2
325,353,310,291,2
324,350,309,292,2
320,346,308,295,2
315,341,307,300,2
309,335,307,304,2
304,329,306,307,2
299,325,306,310,2
298,322,307,312,2
298,322,307,313,2
299,322,307,312,2
299,321,307,310,2
299,317,306,309,2
298,312,305,307,2
297,303,304,305,2
295,294,302,302,2
292,283,301,297,2
291,271,300,292,2
291,259,300,287,2
291,249,301,285,2
293,249,303,289,2
295,256,306,297,2
296,264,308,305,2
297,268,310,312,2
297,272,309,315,2
297,279,305,315,2
296,293,301,313,2
297,310,298,309,2
297,321,296,305,2
298,326,296,302,2
299,325,295,299,2
300,320,296,299,2
301,313,297,301,2
303,306,298,303,2
305,304,299,304,2
306,305,299,305,2
307,309,299,304,2
307,308,298,304,2
307,302,298,304,2
307,292,301,307,2
309,284,304,311,2
309,277,307,315,2
309,265,308,318,2
306,253,306,320,2
302,247,304,319,2
299,254,302,318,2
299,278,301,317,2
300,310,301,315,2
304,337,302,314,2
308,357,301,313,2
311,369,299,312,2
313,371,296,312,2
313,366,294,310,2
313,350,292,307,2
313,329,291,300,2
315,312,291,287,2
318,308,293,271,2
323,314,296,253,2
328,322,300,237,2
332,330,303,231,2
335,337,306,237,2
335,340,307,252,2
331,339,309,274,2
325,336,311,298,2
318,336,312,319,2
313,336,314,334,2
308,335,315,343,2
304,328,316,346,2
299,320,315,344,2
294,317,314,340,2
290,318,313,333,2
288,316,310,328,2
287,313,306,323,2
287,309,304,319,2
288,308,304,315,2
291,309,304,313,2
294,309,303,313,2
297,304,301,312,2
299,291,298,311,2
298,276,295,309,2
295,264,293,306,2
294,261,294,303,2
294,268,297,302,2
298,282,301,301,2
304,295,305,298,2
311,307,307,293,2
317,319,308,292,2
321,332,307,295,2
325,342,306,300,2
328,349,305,306,2
330,352,305,313,2
331,351,307,319,2
329,348,308,323,2
322,344,308,324,2
313,338,308,323,2
305,332,306,320,2
297,324,304,317,2
291,318,302,313,2
288,314,301,311,2
288,312,299,310,2
289,311,299,310,2
292,309,299,312,2
294,306,300,314,2
296,304,301,317,2
296,301,304,319,2
296,293,307,320,2
294,279,309,320,2
293,265,310,319,2
294,256,311,317,2
296,248,309,316,2
298,241,307,316,2
300,238,305,316,2
303,238,305,315,2
305,235,304,313,2
305,232,303,308,2
305,236,300,302,2
304,245,297,294,2
304,254,294,285,2
306,261,292,275,2
309,266,290,265,2
313,269,291,256,2
314,275,293,249,2
314,287,298,248,2
314,304,303,252,2
311,320,308,258,2
307,326,311,261,2
303,328,312,262,2
300,329,311,261,2
297,333,312,262,2
297,341,311,267,2
295,347,312,274,2
292,350,311,283,2
290,349,311,293,2
290,349,313,305,2
293,351,317,317,2
298,354,320,327,2
303,350,322,334,2
307,339,321,338,2
309,323,321,340,2
311,308,320,343,2
311,301,321,346,2
313,303,321,348,2
314,312,321,347,2
315,323,320,345,2
318,332,319,343,2
320,338,318,341,2
324,343,316,339,2
328,347,314,336,2
330,350,313,334,2
330,352,312,331,2
327,355,311,329,2
322,355,312,326,2
315,354,314,324,2
309,349,316,323,2
304,342,317,322,2
300,331,318,321,2
296,317,316,320,2
292,305,311,317,2
292,299,306,313,2
293,298,302,304,2
295,301,300,296,2
296,308,301,289,2
298,315,302,287,2
299,320,304,287,2
300,321,306,290,2
299,318,307,292,2
298,316,307,293,2
297,315,308,291,2
298,315,310,287,2
300,314,311,283,2
302,314,310,284,2
302,315,308,288,2
303,316,306,297,2
303,314,304,307,2
303,301,303,316,2
302,278,301,322,2
301,253,300,325,2
302,231,300,327,2
306,218,300,328,2
310,216,304,328,2
316,223,308,329,2
319,231,313,328,2
319,240,316,326,2
315,255,319,322,2
312,275,320,316,2
309,296,320,311,2
308,313,321,306,2
308,325,320,303,2
309,333,318,300,2
309,341,313,298,2
307,347,308,296,2
305,349,303,292,2
303,346,299,288,2
303,338,297,282,2
303,329,296,276,2
304,321,298,270,2
306,313,301,268,2
307,305,303,270,2
308,301,304,278,2
308,302,304,288,2
309,300,302,299,2
310,294,299,306,2
312,285,295,312,2
315,278,293,316,2
321,277,294,321,2
326,279,296,325,2
328,278,297,327,2
328,281,300,329,2
328,294,302,330,2
328,320,304,329,2
328,348,306,328,2
325,363,308,326,2
318,364,308,324,2
310,356,309,323,2
302,341,311,324,2
297,324,314,325,2
293,310,315,324,2
290,301,315,319,2
287,293,312,314,2
286,286,310,309,2
287,283,308,304,2
291,282,307,296,2
295,283,306,287,2
300,285,305,283,2
303,290,306,286,2
306,306,306,292,2
307,329,305,299,2
307,348,304,304,2
306,357,302,308,2
305,354,300,310,2
303,346,299,307,2
301,337,299,303,2
300,333,300,297,2
299,333,302,292,2
301,333,304,290,2
302,333,307,290,2
304,331,309,291,2
306,327,309,291,2
310,324,308,287,2
316,323,307,279,2
322,322,305,268,2
326,319,304,256,2
328,311,303,250,2
327,304,303,254,2
322,298,305,269,2
318,297,306,287,2
314,299,307,304,2
313,302,306,318,2
312,304,304,329,2
309,304,302,335,2
306,303,299,337,2
302,300,297,336,2
299,297,296,336,2
298,294,296,334,2
298,288,296,331,2
300,277,295,326,2
301,262,294,317,2
302,247,293,307,2
302,237,294,301,2
302,230,295,299,2
300,225,298,299,2
300,228,302,302,2
303,239,307,307,2
306,259,311,311,2
309,283,314,316,2
311,300,314,320,2
311,309,313,321,2
309,308,311,320,2
308,301,309,318,2
307,299,307,316,2
309,307,308,315,2
312,320,308,311,2
315,334,307,305,2
316,342,306,298,2
317,343,306,289,2
315,341,307,282,2
312,337,309,280,2
310,332,310,283,2
308,328,311,289,2
306,325,309,294,2
303,320,305,297,2
300,314,300,298,2
298,304,293,298,2
296,295,288,298,2
296,295,285,298,2
298,303,284,298,2
300,314,284,297,2
302,327,287,294,2
303,336,291,293,2
303,343,297,294,2
304,346,303,297,2
306,346,308,302,2
311,344,313,306,2
318,339,315,309,2
327,331,316,312,2
339,317,318,315,2
350,299,319,320,2
356,280,320,326,2
357,268,322,333,2
352,269,324,339,2
344,277,325,341,2
333,284,324,338,2
321,289,319,329,2
309,294,314,318,2
299,301,310,307,2
293,307,308,299,2
290,309,308,293,2
287,309,307,289,2
283,306,306,289,2
278,300,304,293,2
275,294,303,301,2
273,288,302,311,2
275,283,304,321,2
279,283,307,329,2
285,287,309,334,2
290,294,309,333,2
293,301,306,328,2
294,305,302,321,2
294,306,298,315,2
295,306,295,309,2
297,305,292,303,2
300,306,289,298,2
303,308,288,294,2
305,310,287,292,2
306,313,287,292,2
306,316,290,290,2
305,320,294,289,2
305,325,299,290,2
305,332,303,292,2
306,340,306,297,2
306,346,308,303,2
307,350,310,310,2
308,351,312,315,2
309,348,314,320,2
311,344,315,323,2
312,338,315,325,2
313,330,315,325,2
314,321,316,325,2
315,310,314,324,2
315,297,312,322,2
314,286,310,320,2
312,281,308,319,2
310,279,307,318,2
309,277,307,318,2
310,269,308,317,2
310,257,309,316,2
312,249,309,313,2
314,250,308,308,2
315,260,308,303,2
315,276,307,298,2
314,293,307,294,2
311,307,307,293,2
307,318,307,295,2
303,323,305,298,2
299,321,303,300,2
296,310,300,301,2
293,296,298,299,2
292,286,296,297,2
292,280,293,293,2
293,279,291,286,2
294,281,290,276,2
295,285,288,264,2
297,294,289,253,2
299,308,292,242,2
301,320,297,233,2
303,329,304,231,2
306,331,311,239,2
308,324,316,255,2
310,310,318,275,2
311,296,318,297,2
313,294,317,315,2
315,304,314,327,2
316,318,311,333,2
316,327,309,335,2
316,333,307,334,2
316,336,305,331,2
318,338,304,328,2
321,338,305,324,2
324,337,306,319,2
325,338,308,315,2
323,339,310,313,2
318,335,312,314,2
312,326,313,316,2
304,312,313,319,2
298,294,315,322,2
293,279,315,325,2
289,267,316,328,2
288,256,316,330,2
290,248,316,333,2
293,241,316,333,2
297,238,316,333,2
301,243,315,330,2
305,255,314,325,2
307,274,311,317,2
308,296,308,308,2
309,312,305,301,2
311,321,302,294,2
312,330,300,287,2
312,337,297,282,2
311,339,296,282,2
310,336,295,285,2
308,327,295,289,2
306,319,297,294,2
305,317,299,300,2
306,321,303,307,2
308,330,305,313,2
309,336,306,316,2
309,336,305,315,2
308,329,303,314,2
307,323,301,314,2
307,323,298,316,2
307,324,296,317,2
307,324,294,319,2
308,323,293,320,2
308,319,294,323,2
310,311,297,325,2
310,295,301,326,2
311,276,305,327,2
311,260,307,327,2
311,252,307,326,2
309,258,306,323,2
309,273,306,320,2
310,295,308,316,2
314,316,312,315,2
317,334,316,313,2
319,345,318,312,2
319,351,319,309,2
318,352,320,307,2
316,352,318,306,2
314,350,315,304,2
313,343,311,302,2
312,333,306,299,2
310,319,304,294,2
308,303,302,290,2
306,291,303,289,2
307,287,306,294,2
309,290,311,303,2
312,295,313,313,2
314,295,313,320,2
315,290,312,322,2
317,283,310,320,2
320,275,309,315,2
324,272,307,306,2
328,274,305,296,2
333,282,303,286,2
339,295,302,278,2
344,310,300,272,2
347,322,296,266,2
346,329,293,258,2
340,332,291,251,2
330,330,290,248,2
319,327,291,248,2
307,320,294,250,2
297,310,296,258,2
288,296,299,272,2
282,282,300,289,2
281,270,301,303,2
284,259,301,315,2
292,252,302,324,2
302,248,304,331,2
312,248,308,337,2
320,259,311,341,2
323,282,311,341,2
323,309,308,339,2
320,332,305,335,2
315,345,303,329,2
309,349,301,320,2
302,348,299,308,2
294,340,298,297,2
287,328,299,290,2
282,314,300,288,2
278,297,302,293,2
276,283,302,304,2
277,278,304,316,2
281,284,308,327,2
286,293,310,333,2
290,304,312,334,2
293,317,312,332,2
296,330,312,329,2
299,340,312,327,2
302,346,312,326,2
304,349,312,326,2
306,347,312,326,2
307,341,312,326,2
308,330,311,324,2
307,314,310,322,2
304,299,308,318,2
301,288,307,314,2
299,288,307,312,2
298,297,309,311,2
298,310,309,312,2
298,320,309,313,2
299,323,309,315,2
302,320,310,317,2
304,313,311,318,2
306,308,313,318,2
307,306,316,317,2
308,308,319,317,2
309,311,321,317,2
311,312,320,317,2
312,314,316,317,2
313,317,312,317,2
316,321,310,317,2
320,323,308,317,2
325,323,308,317,2
329,320,307,317,2
332,315,303,316,2
332,306,299,315,2
330,298,295,315,2
327,290,292,314,2
322,282,292,313,2
315,274,294,311,2
308,268,296,306,2
300,263,296,300,2
295,260,298,295,2
293,259,299,293,2
295,255,301,296,2
298,250,301,302,2
301,249,301,310,2
305,257,303,317,2
309,274,305,319,2
312,295,307,315,2
313,315,307,306,2
312,326,305,296,2
310,323,304,285,2
306,307,302,275,2
302,287,301,270,2
300,271,300,268,2
301,266,299,265,2
304,268,298,260,2
307,273,297,255,2
310,287,296,251,2
312,307,294,247,2
312,326,293,245,2
311,339,291,246,2
310,345,291,254,2
307,348,291,270,2
304,351,294,288,2
303,351,296,303,2
301,348,298,314,2
301,343,299,321,2
302,336,302,327,2
303,328,306,332,2
303,320,313,337,2
304,312,318,340,2
303,306,320,339,2
302,307,321,335,2
301,316,321,328,2
302,326,320,321,2
304,332,319,318,2
304,334,318,318,2
304,333,321,322,2
306,327,324,327,2
306,316,327,330,2
305,302,327,331,2
302,284,327,330,2
300,264,326,329,2
299,250,324,328,2
301,243,323,328,2
305,249,323,329,2
309,267,322,328,2
311,291,320,326,2
311,314,317,322,2
310,331,313,318,2
309,343,312,316,2
309,351,310,316,2
309,353,308,316,2
310,349,306,317,2
308,336,303,318,2
306,318,301,317,2
304,301,301,317,2
304,295,304,317,2
307,302,308,318,2
310,315,313,317,2
311,325,316,316,2
311,327,319,315,2
309,323,320,312,2
307,314,321,306,2
306,300,321,301,2
306,281,320,295,2
305,257,318,291,2
306,233,316,293,2
309,215,316,299,2
312,217,316,305,2
313,237,313,307,2
312,267,308,304,2
310,298,302,299,2
307,321,296,294,2
304,334,291,291,2
301,341,287,291,2
297,343,285,293,2
295,345,285,293,2
294,349,288,291,2
294,354,294,288,2
297,359,301,284,2
301,363,307,282,2
307,363,312,278,2
313,359,313,270,2
319,350,311,260,2
322,336,307,250,2
321,314,302,244,2
317,288,298,241,2
310,267,295,243,2
304,259,296,253,2
301,265,300,272,2
301,279,308,295,2
302,292,315,313,2
303,300,321,324,2
302,301,323,326,2
301,295,322,324,2
300,288,321,321,2
301,284,319,319,2
301,283,316,319,2
304,285,313,319,2
306,294,310,322,2
308,303,308,325,2
309,308,306,326,2
309,304,304,327,2
310,298,302,327,2
311,294,302,328,2
313,297,302,329,2
314,304,304,329,2
315,314,307,329,2
315,323,310,327,2
314,328,312,328,2
313,331,314,329,2
312,333,316,331,2
311,336,316,332,2
310,339,316,332,2
311,343,315,332,2
311,347,314,330,2
311,350,312,328,2
308,349,309,325,2
305,345,307,322,2
301,338,305,320,2
299,325,304,318,2
298,311,305,315,2
297,298,306,313,2
298,292,307,311,2
299,290,309,309,2
302,293,311,308,2
304,298,312,306,2
305,300,312,303,2
303,300,309,298,2
301,295,307,295,2
300,285,305,295,2
298,274,304,298,2
297,265,304,303,2
297,258,304,309,2
297,254,305,313,2
298,253,307,317,2
300,256,307,320,2
304,264,307,322,2
309,273,305,323,2
314,281,302,323,2
319,289,300,323,2
322,303,299,322,2
322,320,300,322,2
320,332,300,321,2
316,335,300,320,2
315,330,301,320,2
315,323,302,320,2
318,318,304,319,2
321,317,306,318,2
326,322,306,317,2
330,333,306,316,2
332,344,303,314,2
330,353,300,313,2
325,356,296,312,2
318,353,292,311,2
311,351,291,311,2
306,350,292,310,2
304,352,295,310,2
303,354,297,310,2
303,352,298,309,2
303,346,299,307,2
302,335,300,303,2
300,321,302,297,2
297,308,305,290,2
295,298,308,281,2
294,294,311,273,2
293,296,310,263,2
290,300,308,250,2
285,300,306,238,2
282,296,305,232,2
280,288,305,235,2
279,278,306,247,2
280,267,307,264,2
282,255,307,283,2
285,247,308,300,2
290,248,309,313,2
294,259,310,325,2
298,273,311,335,2
301,289,313,342,2
304,307,314,346,2
307,319,316,346,2
309,327,317,343,2
310,333,318,338,2
311,338,317,332,2
310,343,315,327,2
309,345,312,325,2
307,339,309,325,2
304,326,306,326,2
300,312,304,327,2
297,302,306,327,2
294,301,308,324,2
293,302,310,319,2
294,298,311,311,2
296,288,310,303,2
298,277,310,296,2
300,276,309,291,2
300,286,308,287,2
299,299,306,282,2
299,308,305,281,2
299,313,304,287,2
301,317,304,295,2
305,325,304,303,2
311,337,305,311,2
316,346,306,317,2
318,347,307,320,2
317,337,307,322,2
312,322,307,323,2
305,305,307,323,2
300,290,307,324,2
296,285,306,324,2
294,289,305,322,2
294,297,304,320,2
296,304,304,318,2
299,307,305,315,2
302,307,306,313,2
305,304,307,313,2
309,298,308,315,2
314,288,308,318,2
318,281,307,322,2
321,285,307,325,2
323,296,307,327,2
323,303,306,328,2
322,302,304,329,2
321,294,305,329,2
324,288,307,329,2
329,288,310,328,2
332,290,312,325,2
331,293,311,320,2
326,295,310,315,2
321,302,310,313,2
317,313,309,312,2
314,328,306,311,2
312,341,302,309,2
307,347,297,306,2
300,345,291,302,2
293,334,285,299,2
288,318,282,297,2
287,304,281,296,2
288,298,285,295,2
293,299,292,295,2
298,306,299,295,2
303,317,306,297,2
308,330,311,301,2
312,344,314,306,2
314,354,315,312,2
312,356,313,317,2
307,350,310,319,2
301,338,307,317,2
297,324,306,310,2
295,314,306,301,2
295,311,308,291,2
295,314,310,285,2
295,317,311,285,2
294,314,310,290,2
291,304,309,298,2
288,288,308,308,2
285,272,307,317,2
284,262,308,323,2
286,262,311,325,2
290,273,315,325,2
295,289,317,321,2
300,303,319,313,2
304,316,319,303,2
307,329,318,292,2
310,340,315,280,2
310,346,312,268,2
309,345,308,265,2
309,335,306,270,2
309,317,306,281,2
308,296,307,292,2
308,280,307,301,2
307,275,308,308,2
307,280,308,315,2
306,289,307,320,2
304,298,305,323,2
303,304,303,324,2
303,310,301,322,2
303,315,300,316,2
303,318,299,309,2
303,317,299,303,2
303,311,299,297,2
303,304,299,291,2
302,295,299,290,2
301,286,300,293,2
300,283,300,300,2
300,286,300,307,2
301,293,302,314,2
301,298,303,318,2
301,301,305,320,2
302,302,305,322,2
303,303,306,325,2
304,303,306,327,2
305,297,305,327,2
305,290,304,326,2
306,286,304,323,2
308,290,306,322,2
311,298,308,322,2
313,304,308,323,2
314,307,307,323,2
314,306,305,323,2
315,303,303,321,2
315,296,300,318,2
315,282,295,312,2
316,262,291,306,2
317,244,288,299,2
318,234,287,292,2
319,238,289,289,2
322,254,294,289,2
324,275,300,293,2
327,297,304,299,2
329,313,309,307,2
330,324,312,314,2
330,330,314,320,2
330,334,318,321,2
329,338,322,319,2
327,341,325,313,2
325,343,326,305,2
324,342,325,302,2
322,338,323,304,2
320,331,319,309,2
316,323,316,312,2
309,314,313,312,2
303,301,310,309,2
298,288,307,304,2
295,279,305,300,2
294,281,305,299,2
295,291,306,302,2
298,303,307,308,2
298,315,309,314,2
298,329,311,320,2
297,339,313,324,2
295,344,315,326,2
293,343,316,326,2
293,340,316,324,2
293,337,316,322,2
293,335,316,317,2
294,331,317,311,2
295,323,318,308,2
294,307,318,308,2
294,285,317,310,2
294,266,317,314,2
297,259,318,319,2
303,265,319,321,2
309,281,318,320,2
313,299,316,317,2
315,317,313,312,2
316,331,311,307,2
316,340,308,302,2
315,339,306,299,2
313,332,305,296,2
310,323,304,293,2
309,318,301,289,2
308,317,299,287,2
309,317,298,288,2
312,318,298,292,2
315,319,300,298,2
318,322,302,305,2
322,329,303,311,2
323,337,304,315,2
324,344,304,316,2
323,343,306,316,2
322,334,309,316,2
320,320,313,315,2
318,304,314,315,2
314,293,315,314,2
309,285,314,311,2
302,282,313,304,2
295,286,313,294,2
290,290,311,284,2
289,290,309,278,2
289,286,308,278,2
291,281,309,284,2
294,280,310,294,2
297,283,312,305,2
300,288,313,313,2
301,293,312,318,2
302,297,310,322,2
302,301,309,323,2
304,307,309,324,2
307,315,309,324,2
311,321,309,320,2
316,325,309,315,2
320,323,309,310,2
324,318,307,304,2
326,310,305,298,2
327,297,303,292,2
324,286,303,286,2
320,279,302,276,2
313,278,299,267,2
305,282,296,263,2
299,288,295,265,2
296,293,296,272,2
294,298,296,284,2
293,300,294,296,2
290,298,292,308,2
288,288,289,319,2
287,273,286,325,2
286,260,283,328,2
285,249,281,327,2
286,243,279,327,2
289,246,280,327,2
294,258,284,329,2
301,276,289,331,2
309,295,297,332,2
316,310,306,333,2
321,318,314,333,2
324,320,320,334,2
324,319,325,333,2
321,316,327,330,2
318,312,328,327,2
316,315,328,324,2
315,326,327,321,2
314,340,324,317,2
313,353,320,310,2
311,364,318,302,2
309,371,316,297,2
307,375,316,295,2
306,371,315,298,2
305,358,316,302,2
304,337,316,306,2
303,313,316,309,2
302,291,316,311,2
302,274,317,312,2
303,261,317,311,2
305,258,317,307,2
308,268,316,301,2
311,283,314,293,2
311,293,310,283,2
309,298,304,276,2
307,297,296,278,2
302,296,288,286,2
297,296,281,296,2
292,298,277,306,2
289,302,278,314,2
291,308,282,321,2
295,317,289,325,2
300,325,296,327,2
302,330,303,325,2
304,331,307,322,2
304,331,310,318,2
304,328,313,314,2
304,322,315,310,2
306,313,316,305,2
309,301,316,299,2
309,291,315,291,2
310,287,313,285,2
312,291,313,282,2
313,299,312,286,2
313,307,312,294,2
311,310,314,303,2
310,313,316,310,2
309,317,319,313,2
310,321,322,314,2
311,325,323,316,2
311,328,322,318,2
310,329,319,316,2
310,330,314,312,2
310,333,309,305,2
313,339,305,296,2
318,344,303,288,2
323,343,300,284,2
326,335,297,286,2
327,325,294,290,2
326,314,292,296,2
322,303,291,302,2
318,295,292,308,2
313,289,295,311,2
310,288,298,312,2
306,289,298,310,2
302,291,298,307,2
298,291,298,303,2
295,292,300,299,2
293,293,302,294,2
291,295,303,288,2
290,298,303,283,2
290,299,305,282,2
289,297,308,287,2
290,289,313,296,2
291,278,316,304,2
292,268,317,310,2
294,260,317,313,2
298,259,315,315,2
303,263,314,317,2
308,267,313,319,2
312,269,314,322,2
315,269,315,326,2
317,271,317,329,2
315,277,319,328,2
311,283,318,324,2
306,285,315,319,2
301,286,313,314,2
299,291,311,312,2
299,299,310,314,2
299,309,309,317,2
300,317,309,319,2
301,322,309,322,2
301,325,309,323,2
301,329,308,323,2
299,331,308,323,2
299,330,310,323,2
299,325,313,323,2
300,316,315,323,2
302,310,315,321,2
304,303,314,319,2
305,297,312,316,2
306,296,309,315,2
308,298,307,315,2
311,297,303,315,2
312,293,298,315,2
313,290,292,314,2
315,289,287,312,2
316,291,282,310,2
316,296,278,307,2
315,304,278,308,2
313,310,282,310,2
311,307,290,313,2
309,296,299,315,2
307,286,307,316,2
305,280,312,314,2
304,281,315,312,2
304,284,318,313,2
306,287,320,316,2
308,294,322,319,2
311,305,323,321,2
313,317,322,318,2
314,327,320,314,2
314,335,318,309,2
316,341,316,304,2
317,343,314,300,2
319,340,313,297,2
319,337,312,294,2
319,338,312,292,2
319,340,312,290,2
320,342,311,293,2
320,341,310,300,2
319,336,309,306,2
318,331,308,308,2
318,326,308,302,2
320,322,308,291,2
323,322,309,282,2
326,326,311,280,2
327,331,313,284,2
327,331,314,288,2
324,325,314,294,2
317,310,313,301,2
309,290,311,309,2
301,268,309,315,2
295,250,307,319,2
293,241,306,323,2
294,244,307,327,2
297,261,309,328,2
300,287,310,326,2
302,314,310,321,2
303,339,312,316,2
305,357,315,315,2
306,367,318,316,2
306,368,319,320,2
303,360,319,323,2
300,348,318,326,2
298,338,317,327,2
299,331,316,326,2
301,328,313,321,2
303,325,308,313,2
306,320,301,305,2
309,314,295,299,2
313,310,288,297,2
315,307,283,297,2
318,299,280,299,2
319,283,279,303,2
319,267,282,309,2
317,258,289,316,2
314,262,298,323,2
312,269,307,329,2
309,271,314,334,2
306,268,317,335,2
303,265,318,333,2
301,269,317,330,2
301,283,317,327,2
304,302,316,323,2
306,316,313,315,2
307,326,309,306,2
309,331,305,298,2
310,332,302,291,2
310,328,302,285,2
310,318,302,280,2
309,306,302,280,2
306,295,301,284,2
302,289,300,290,2
297,288,299,298,2
291,283,297,303,2
285,274,294,304,2
281,262,292,304,2
280,258,294,305,2
284,266,298,306,2
289,282,302,304,2
292,296,304,299,2
293,305,304,288,2
291,308,303,269,2
289,309,302,250,2
288,308,303,236,2
291,311,306,232,2
294,318,308,236,2
297,322,307,252,2
298,319,306,275,2
299,310,306,299,2
300,299,307,319,2
303,290,308,335,2
305,284,309,345,2
306,280,309,351,2
308,276,310,353,2
311,277,310,353,2
314,286,311,351,2
317,299,312,350,2
319,312,313,348,2
319,324,313,346,2
317,334,312,343,2
315,339,311,340,2
314,341,312,338,2
313,340,313,335,2
313,336,314,332,2
314,331,316,329,2
314,328,317,326,2
314,326,318,324,2
313,325,319,322,2
312,328,319,320,2
312,329,318,319,2
311,326,317,318,2
311,317,314,317,2
311,305,311,318,2
312,295,310,318,2
315,292,311,319,2
317,298,313,320,2
319,309,313,318,2
320,322,313,315,2
320,329,312,309,2
318,330,311,302,2
316,326,309,295,2
313,322,308,288,2
310,321,309,285,2
310,323,312,287,2
311,326,314,294,2
313,324,315,303,2
313,313,313,311,2
313,299,309,317,2
314,284,306,322,2
318,271,304,326,2
322,263,304,329,2
325,258,304,329,2
327,262,305,326,2
325,280,305,320,2
321,302,305,314,2
316,320,305,307,2
310,332,304,301,2
305,339,303,295,2
301,342,302,291,2
299,342,301,289,2
298,338,299,289,2
298,330,297,291,2
297,321,297,293,2
296,313,298,294,2
295,305,301,297,2
294,296,304,301,2
293,283,306,307,2
293,269,308,313,2
294,256,308,317,2
294,246,307,318,2
292,243,306,317,2
292,252,303,314,2
292,267,299,311,2
293,285,296,310,2
294,300,294,308,2
295,310,294,308,2
297,316,297,309,2
299,320,301,310,2
302,321,305,311,2
303,319,307,310,2
304,311,305,307,2
304,298,302,302,2
305,282,298,297,2
307,268,297,290,2
311,261,298,277,2
315,263,301,261,2
318,269,304,245,2
320,275,306,233,2
321,276,307,232,2
320,280,307,242,2
317,292,308,263,2
312,307,310,286,2
308,318,314,309,2
306,321,319,327,2
306,318,323,340,2
308,316,323,342,2
307,316,317,336,2
304,319,309,326,2
300,324,302,319,2
296,334,298,317,2
293,342,300,320,2
292,349,304,324,2
293,353,308,330,2
294,355,312,334,2
297,354,314,336,2
300,352,316,336,2
301,348,317,336,2
303,344,319,335,2
304,341,320,334,2
306,341,321,333,2
307,341,320,331,2
306,340,318,328,2
306,336,316,325,2
305,329,314,321,2
304,320,313,317,2
303,308,313,312,2
303,298,312,307,2
302,287,311,302,2
303,276,307,300,2
303,264,304,300,2
304,253,301,302,2
305,244,299,304,2
306,245,299,305,2
308,258,302,305,2
311,277,307,304,2
312,294,310,299,2
312,299,311,296,2
311,290,313,298,2
310,271,316,303,2
307,252,316,310,2
303,242,314,315,2
300,245,311,319,2
300,260,309,319,2
301,282,308,313,2
302,309,307,302,2
305,334,306,295,2
309,354,305,293,2
314,363,305,297,2
321,365,305,304,2
327,361,306,311,2
333,356,307,319,2
338,353,309,326,2
341,352,311,331,2
343,353,313,333,2
342,352,314,333,2
338,348,315,330,2
333,343,314,325,2
327,339,314,320,2
320,336,313,314,2
313,334,312,309,2
306,332,310,307,2
300,329,308,308,2
297,325,306,310,2
295,322,304,312,2
294,319,302,314,2
293,315,301,315,2
293,313,300,316,2
292,312,300,316,2
291,312,300,314,2
291,311,301,312,2
292,309,300,309,2
293,305,299,307,2
295,298,297,306,2
296,288,296,304,2
298,272,295,301,2
298,254,295,298,2
299,235,297,296,2
298,218,300,294,2
298,206,304,296,2
302,206,310,299,2
308,215,316,303,2
315,235,321,304,2
322,262,323,303,2
325,286,322,297,2
323,297,318,289,2
318,295,313,282,2
311,290,308,276,2
304,293,302,272,2
300,308,296,271,2
298,325,290,273,2
298,334,286,279,2
298,337,284,286,2
300,340,286,292,2
302,344,290,297,2
304,349,295,304,2
307,353,300,311,2
310,356,304,315,2
312,357,307,314,2
313,354,309,309,2
312,350,310,303,2
311,345,311,298,2
310,342,312,293,2
309,339,312,292,2
308,337,312,295,2
306,334,310,302,2
305,332,308,309,2
304,330,304,314,2
304,328,301,315,2
304,326,297,313,2
304,324,295,310,2
304,320,294,306,2
304,314,296,304,2
303,303,299,302,2
302,289,302,301,2
303,276,305,301,2
305,266,307,302,2
310,262,308,304,2
316,264,307,305,2
322,269,306,306,2
327,278,306,307,2
329,288,308,308,2
330,298,312,311,2
328,307,317,311,2
325,311,320,309,2
322,311,321,305,2
318,303,320,302,2
315,288,317,300,2
315,272,314,299,2
320,259,314,299,2
328,250,316,299,2
335,248,317,300,2
337,252,316,301,2
334,262,316,303,2
328,277,315,303,2
319,291,313,301,2
310,305,311,298,2
304,324,310,299,2
302,347,308,303,2
300,365,306,309,2
297,376,304,317,2
294,380,302,323,2
290,376,300,327,2
287,367,296,328,2
283,357,292,328,2
281,348,289,325,2
280,342,288,321,2
281,337,290,317,2
282,334,293,313,2
284,330,296,311,2
287,327,300,310,2
291,323,304,312,2
295,319,307,316,2
298,313,309,320,2
300,305,311,323,2
301,293,312,326,2
302,282,312,328,2
303,275,312,328,2
304,272,311,328,2
305,275,307,325,2
305,280,302,323,2
303,285,297,320,2
302,287,293,318,2
300,288,292,316,2
300,290,294,316,2
301,296,298,316,2
304,303,304,316,2
306,309,309,316,2
308,311,313,317,2
308,307,314,317,2
308,300,314,318,2
307,288,313,317,2
306,277,312,317,2
306,271,312,317,2
306,271,314,316,2
308,278,317,316,2
310,291,320,314,2
312,306,322,313,2
315,319,322,311,2
318,328,321,310,2
320,330,317,309,2
322,327,314,308,2
324,319,311,307,2
326,310,310,305,2
328,301,310,306,2
331,298,311,306,2
331,300,310,306,2
330,305,308,304,2
328,313,306,301,2
323,322,304,296,2
316,327,302,289,2
309,325,301,280,2
302,317,301,270,2
297,302,303,262,2
294,284,304,259,2
292,266,305,260,2
293,254,307,264,2
296,249,308,270,2
298,254,306,275,2
299,266,302,278,2
300,285,299,278,2
302,306,300,279,2
303,324,304,281,2
305,331,307,287,2
304,330,308,293,2
301,323,306,300,2
299,318,302,305,2
299,317,299,309,2
301,321,297,311,2
304,328,295,310,2
306,336,294,307,2
306,344,293,302,2
306,351,294,297,2
305,352,296,296,2
303,351,299,297,2
302,346,304,302,2
304,334,308,309,2
307,319,310,316,2
312,304,310,323,2
318,291,309,329,2
324,275,307,333,2
327,256,304,336,2
325,237,303,336,2
321,226,303,335,2
314,224,305,331,2
307,234,309,328,2
303,251,313,325,2
301,272,316,322,2
301,295,316,321,2
303,312,314,321,2
304,319,310,322,2
306,319,308,324,2
309,318,308,326,2
314,319,308,329,2
321,320,309,330,2
326,322,309,329,2
330,323,309,328,2
332,322,308,326,2
330,317,306,324,2
325,308,302,322,2
318,301,298,320,2
314,298,297,318,2
312,303,298,316,2
309,315,299,314,2
306,329,300,310,2
303,340,301,307,2
300,348,301,304,2
299,350,303,304,2
300,349,308,305,2
300,345,314,308,2
300,337,320,310,2
300,330,326,312,2
301,331,329,313,2
302,340,329,314,2
303,349,328,315,2
303,348,326,316,2
303,335,324,316,2
301,316,322,315,2
300,302,321,312,2
300,297,320,309,2
302,300,317,305,2
304,308,315,303,2
308,316,313,303,2
311,317,312,306,2
313,313,311,311,2
312,309,309,315,2
311,310,308,318,2
310,314,306,319,2
311,315,306,319,2
313,310,308,318,2
315,304,307,313,2
317,298,306,304,2
318,296,304,292,2
318,298,304,281,2
316,306,305,274,2
313,317,306,270,2
308,326,306,270,2
304,329,305,273,2
300,329,303,278,2
297,326,302,280,2
295,321,301,282,2
295,314,302,281,2
297,310,303,282,2
300,311,303,286,2
304,314,302,293,2
306,315,300,300,2
306,314,299,305,2
306,313,299,310,2
306,313,300,312,2
305,308,301,313,2
303,297,303,312,2
299,278,304,309,2
294,257,305,306,2
291,243,307,303,2
291,240,309,299,2
292,250,310,294,2
296,270,310,287,2
299,293,309,279,2
302,313,307,270,2
304,327,306,263,2
306,335,305,264,2
309,339,305,274,2
314,339,304,289,2
319,337,303,304,2
323,334,302,314,2
324,325,302,319,2
321,309,301,319,2
315,287,302,317,2
305,262,302,315,2
296,244,303,314,2
290,235,304,316,2
287,238,304,319,2
287,249,302,323,2
288,263,300,326,2
290,278,300,327,2
291,295,299,325,2
293,312,299,322,2
296,327,302,318,2
299,339,304,316,2
302,345,308,315,2
303,341,311,317,2
303,329,313,319,2
303,315,314,322,2
303,307,316,325,2
305,307,318,328,2
307,311,320,330,2
309,317,322,331,2
310,331,323,331,2
309,349,323,329,2
307,364,320,326,2
305,369,316,321,2
303,366,313,316,2
302,357,309,312,2
303,346,307,307,2
307,335,306,303,2
312,328,307,301,2
318,323,307,299,2
323,317,306,298,2
328,311,305,300,2
331,305,303,303,2
332,297,303,308,2
330,290,304,309,2
323,284,304,307,2
314,275,303,304,2
306,267,302,303,2
299,263,300,304,2
295,263,300,307,2
296,270,302,312,2
300,286,307,316,2
305,308,311,316,2
311,332,316,314,2
317,351,319,311,2
321,361,320,305,2
323,362,319,300,2
323,355,316,297,2
323,343,313,296,2
321,332,309,293,2
317,322,306,288,2
312,315,304,283,2
308,310,303,280,2
302,308,300,278,2
297,304,296,278,2
291,296,292,283,2
288,283,289,292,2
287,269,289,302,2
290,263,293,311,2
295,268,298,319,2
302,279,304,324,2
308,291,308,325,2
313,299,311,323,2
315,301,310,319,2
314,297,308,314,2
312,289,305,308,2
309,284,301,303,2
304,283,297,300,2
300,290,296,300,2
299,300,298,300,2
300,310,300,297,2
303,315,303,289,2
306,315,304,279,2
308,313,304,268,2
309,311,305,261,2
309,314,306,256,2
308,322,308,252,2
306,331,308,254,2
303,337,309,264,2
301,339,310,281,2
300,339,311,297,2
300,337,312,312,2
301,335,312,322,2
302,332,312,329,2
303,325,310,332,2
302,317,308,331,2
301,307,305,327,2
300,296,304,323,2
301,286,305,319,2
303,283,308,315,2
307,287,310,311,2
312,297,313,308,2
317,306,316,304,2
321,315,318,297,2
323,324,320,287,2
320,332,320,277,2
314,337,320,272,2
306,337,320,275,2
299,335,321,284,2
295,331,323,290,2
293,327,323,291,2
293,325,322,288,2
293,326,320,284,2
295,324,318,281,2
298,317,314,279,2
303,304,310,280,2
307,293,306,283,2
310,284,302,283,2
309,273,297,276,2
304,259,293,266,2
298,243,289,262,2
292,229,287,268,2
287,225,288,280,2
286,233,291,294,2
288,251,295,308,2
290,265,298,321,2
291,269,299,331,2
292,267,300,336,2
293,267,301,340,2
296,275,301,340,2
298,294,302,337,2
301,317,302,334,2
304,336,303,330,2
307,351,303,328,2
308,358,303,326,2
306,358,303,322,2
303,350,303,318,2
300,337,303,313,2
300,326,305,309,2
302,318,306,308,2
304,313,307,310,2
306,312,308,315,2
308,313,309,319,2
308,315,310,320,2
309,316,311,320,2
310,313,314,317,2
311,307,317,314,2
312,303,321,310,2
312,300,323,307,2
311,302,324,305,2
311,307,323,307,2
310,315,321,311,2
310,323,318,316,2
310,329,315,318,2
310,331,312,318,2
310,324,309,316,2
309,303,304,314,2
307,270,299,313,2
304,234,294,314,2
302,209,291,317,2
303,213,290,321,2
305,244,291,323,2
307,281,291,323,2
310,313,292,322,2
314,336,295,322,2
318,350,300,323,2
321,360,304,325,2
324,365,307,326,2
325,367,311,326,2
325,368,315,324,2
325,370,320,322,2
324,374,324,318,2
323,380,328,313,2
321,386,331,305,2
317,390,330,294,2
313,387,329,285,2
311,381,325,279,2
310,370,322,280,2
311,358,318,287,2
309,345,314,298,2
306,334,308,310,2
303,325,303,319,2
301,318,298,326,2
299,312,295,331,2
298,304,292,335,2
299,298,292,336,2
302,292,293,336,2
305,289,297,335,2
310,289,303,334,2
316,289,310,332,2
322,290,316,331,2
326,286,322,330,2
326,275,326,326,2
321,264,329,322,2
314,256,328,316,2
308,253,326,308,2
302,256,323,299,2
298,264,321,290,2
297,278,318,280,2
298,298,315,269,2
301,320,312,262,2
303,336,309,259,2
305,345,306,261,2
306,349,305,265,2
308,349,305,267,2
309,347,305,268,2
310,344,307,271,2
310,337,308,281,2
309,327,309,292,2
307,316,308,303,2
303,309,305,311,2
300,307,304,315,2
297,309,306,318,2
295,316,309,318,2
293,325,312,315,2
289,330,312,312,2
285,324,312,308,2
282,312,310,305,2
282,296,309,301,2
285,287,306,295,2
289,288,303,289,2
293,298,300,285,2
296,315,298,285,2
298,332,297,288,2
298,341,296,296,2
298,343,296,307,2
297,338,296,318,2
296,330,295,326,2
294,321,295,333,2
295,315,296,338,2
296,310,296,341,2
298,303,296,341,2
299,293,296,339,2
299,285,297,337,2
298,276,299,336,2
297,267,304,335,2
298,257,309,335,2
300,243,314,333,2
304,227,319,332,2
308,215,321,328,2
311,214,321,324,2
312,230,318,318,2
311,259,315,311,2
310,292,312,304,2
307,320,308,297,2
303,340,306,291,2
299,351,303,286,2
295,350,300,284,2
291,339,298,284,2
288,320,297,287,2
288,297,299,293,2
289,283,303,299,2
291,282,305,304,2
293,289,306,307,2
296,298,305,311,2
300,308,303,313,2
305,318,302,315,2
312,327,301,315,2
319,330,301,315,2
328,331,301,312,2
336,331,302,310,2
339,334,303,306,2
337,336,304,306,2
330,338,305,306,2
319,342,309,309,2
309,344,313,312,2
302,345,316,314,2
297,342,318,315,2
295,336,320,316,2
295,327,321,319,2
296,315,322,322,2
298,300,321,325,2
299,288,319,327,2
300,283,317,328,2
301,285,314,327,2
301,292,313,326,2
301,299,311,325,2
300,306,310,322,2
299,312,310,318,2
300,317,310,312,2
302,317,309,302,2
306,313,307,289,2
308,301,306,276,2
307,284,305,268,2
306,271,305,265,2
304,260,304,265,2
304,256,305,265,2
305,261,305,265,2
307,270,304,265,2
309,281,303,266,2
311,293,302,269,2
313,308,300,273,2
314,323,298,281,2
315,338,297,288,2
317,353,298,294,2
321,364,300,300,2
325,370,304,309,2
327,369,306,319,2
327,361,308,330,2
323,351,307,336,2
317,341,306,340,2
310,330,303,340,2
303,320,300,338,2
299,313,300,335,2
298,309,301,332,2
298,306,304,329,2
300,304,307,325,2
302,303,309,321,2
302,304,310,316,2
303,307,312,312,2
303,310,313,310,2
302,312,313,309,2
300,312,312,307,2
298,309,310,305,2
298,302,308,305,2
298,293,304,306,2
299,283,299,309,2
301,276,296,314,2
304,274,293,320,2
308,278,294,323,2
313,287,298,322,2
319,291,301,317,2
324,287,304,312,2
329,275,305,309,2
333,264,307,307,2
336,258,311,305,2
336,258,315,303,2
331,262,317,298,2
324,271,316,290,2
316,282,310,285,2
309,293,303,284,2
302,307,298,285,2
297,321,295,291,2
294,330,296,300,2
293,332,298,312,2
291,328,301,321,2
291,319,304,328,2
293,308,306,332,2
295,298,307,333,2
299,290,307,333,2
303,286,305,332,2
305,286,302,332,2
306,288,300,331,2
304,294,299,330,2
301,298,298,329,2
298,296,299,324,2
296,289,300,315,2
295,277,304,305,2
297,266,309,293,2
300,265,314,283,2
304,272,314,278,2
305,282,312,283,2
305,288,307,295,2
303,286,303,307,2
303,273,301,316,2
305,265,302,322,2
312,268,307,325,2
321,285,312,328,2
332,311,316,331,2
341,337,318,333,2
345,355,320,335,2
344,365,321,336,2
338,368,320,335,2
328,365,317,332,2
316,359,315,329,2
305,355,313,326,2
298,354,311,324,2
295,358,312,322,2
295,361,312,320,2
295,354,312,317,2
296,337,312,313,2
296,317,312,307,2
296,302,312,300,2
297,299,312,294,2
298,307,311,292,2
299,315,310,294,2
299,320,309,297,2
299,320,308,297,2
298,316,306,294,2
297,304,302,290,2
297,285,297,287,2
295,264,289,287,2
293,245,282,292,2
292,233,278,300,2
292,227,279,308,2
293,226,284,315,2
295,232,291,321,2
298,248,302,324,2
302,274,311,324,2
307,305,317,321,2
312,334,320,315,2
317,354,320,311,2
322,367,319,308,2
327,374,318,305,2
330,376,317,301,2
330,374,316,295,2
327,370,314,285,2
319,362,311,272,2
309,352,310,264,2
299,341,309,264,2
292,330,307,271,2
289,321,307,281,2
291,315,306,287,2
296,312,306,289,2
300,313,306,290,2
304,315,305,291,2
306,317,304,297,2
306,316,303,305,2
306,314,303,313,2
306,311,303,317,2
307,308,303,315,2
308,304,304,307,2
309,296,303,294,2
310,288,303,281,2
311,276,302,273,2
312,263,302,271,2
311,253,303,275,2
310,246,303,280,2
306,245,303,288,2
301,250,303,295,2
297,260,303,300,2
295,273,305,306,2
296,288,306,310,2
297,301,306,313,2
297,313,303,313,2
297,320,300,311,2
297,329,298,308,2
298,340,297,308,2
299,345,298,311,2
300,341,300,317,2
301,328,304,326,2
304,306,307,334,2
307,281,307,339,2
310,256,308,341,2
311,240,308,342,2
310,236,307,342,2
308,243,305,342,2
303,252,303,341,2
298,258,302,340,2
295,262,301,339,2
294,266,300,337,2
294,273,298,334,2
294,282,297,332,2
293,292,294,328,2
293,302,290,324,2
293,308,286,319,2
294,308,281,314,2
295,307,279,306,2
296,309,280,298,2
299,316,285,292,2
302,327,291,291,2
304,335,299,295,2
306,338,307,302,2
308,337,316,309,2
311,335,323,313,2
313,331,328,313,2
313,323,330,313,2
313,312,331,314,2
311,300,332,317,2
309,286,330,320,2
308,268,328,322,2
309,252,325,321,2
311,244,323,314,2
313,252,322,303,2
316,275,321,290,2
317,309,322,277,2
316,343,321,267,2
313,369,319,263,2
309,385,315,265,2
305,390,312,271,2
303,386,311,277,2
303,379,311,286,2
302,370,311,298,2
302,364,312,310,2
304,360,314,321,2
306,358,315,329,2
308,354,317,335,2
311,352,319,337,2
313,350,321,336,2
316,348,321,334,2
317,343,320,332,2
317,336,317,329,2
317,328,313,326,2
316,321,310,323,2
314,316,307,320,2
311,312,305,317,2
307,306,304,312,2
304,297,303,308,2
301,285,302,303,2
300,272,302,299,2
301,261,303,297,2
304,253,304,296,2
306,251,304,294,2
307,253,304,292,2
309,257,303,291,2
310,261,304,291,2
311,263,306,295,2
312,268,309,300,2
312,279,311,306,2
311,294,312,311,2
308,304,310,313,2
305,309,306,313,2
303,309,302,311,2
301,304,297,308,2
300,298,293,303,2
299,293,288,295,2
299,292,285,286,2
299,291,284,277,2
300,294,286,270,2
301,302,290,264,2
303,317,295,261,2
304,333,299,262,2
305,347,303,269,2
307,357,308,283,2
309,366,313,299,2
313,372,316,314,2
317,372,320,325,2
320,364,322,330,2
320,349,322,330,2
318,332,321,327,2
314,319,319,324,2
312,309,317,319,2
311,305,316,318,2
311,303,316,318,2
310,301,315,318,2
309,298,314,317,2
308,293,311,314,2
307,288,308,312,2
307,283,304,311,2
307,282,303,311,2
308,283,302,312,2
309,281,303,316,2
310,275,304,320,2
312,270,305,324,2
314,267,306,323,2
317,262,303,319,2
318,256,299,314,2
318,253,295,310,2
318,253,290,304,2
317,256,285,300,2
314,264,281,299,2
310,277,278,302,2
305,293,277,307,2
301,308,281,312,2
299,319,288,319,2
299,326,297,324,2
300,329,305,329,2
304,332,314,332,2
309,340,321,334,2
316,352,328,336,2
323,360,330,336,2
329,361,331,335,2
332,356,330,334,2
333,346,328,333,2
330,333,326,330,2
325,318,323,329,2
317,306,321,327,2
307,299,319,324,2
299,297,317,321,2
292,296,314,317,2
287,296,312,313,2
284,295,310,308,2
283,291,308,304,2
285,285,309,299,2
289,280,310,292,2
295,276,310,284,2
299,277,311,274,2
301,282,308,265,2
300,291,302,257,2
297,302,297,258,2
295,315,295,268,2
294,328,296,284,2
296,339,299,300,2
300,346,305,313,2
306,347,312,320,2
311,343,319,325,2
316,336,325,327,2
319,330,327,328,2
320,324,326,328,2
319,318,322,325,2
317,313,318,318,2
314,308,312,308,2
310,304,308,295,2
306,300,306,282,2
304,300,305,269,2
305,303,306,262,2
308,308,306,260,2
310,313,307,263,2
314,317,306,270,2
317,318,306,280,2
321,316,306,291,2
323,309,307,304,2
324,297,309,317,2
325,285,312,330,2
323,274,317,339,2
319,268,320,342,2
314,271,322,340,2
310,281,321,333,2
305,294,319,323,2
301,308,315,313,2
298,321,312,304,2
297,331,310,297,2
297,341,309,293,2
298,350,310,294,2
299,352,310,298,2
300,345,309,301,2
300,327,307,303,2
298,298,303,302,2
295,263,299,300,2
292,231,296,298,2
292,217,295,295,2
293,229,294,289,2
295,258,293,280,2
296,286,291,268,2
296,303,290,257,2
297,311,291,251,2
300,316,294,252,2
306,324,299,259,2
313,333,304,268,2
321,344,308,279,2
327,351,310,292,2
331,355,310,305,2
334,355,310,317,2
334,353,310,324,2
333,345,310,330,2
329,336,311,335,2
322,326,313,339,2
313,320,313,341,2
304,318,311,342,2
297,317,309,341,2
294,315,308,342,2
294,313,307,342,2
295,309,307,339,2
296,304,305,333,2
294,297,303,327,2
291,287,300,322,2
290,281,300,318,2
290,277,301,316,2
290,276,303,316,2
291,276,306,316,2
292,272,309,318,2
294,261,310,321,2
297,245,310,324,2
299,228,307,327,2
300,211,303,329,2
302,196,298,329,2
304,189,294,329,2
306,197,291,328,2
309,225,289,326,2
311,265,288,323,2
312,304,289,320,2
312,333,293,317,2
312,355,298,314,2
313,370,304,311,2
316,378,309,308,2
318,378,314,305,2
318,373,317,304,2
316,365,318,305,2
313,356,317,307,2
310,347,316,311,2
308,339,315,314,2
307,334,315,315,2
307,334,316,315,2
309,337,319,315,2
311,339,322,316,2
314,339,324,317,2
316,339,324,319,2
318,338,324,321,2
318,336,322,322,2
317,330,320,322,2
315,320,319,322,2
312,310,319,321,2
309,299,319,321,2
306,289,318,319,2
303,284,317,318,2
302,280,318,317,2
302,274,319,316,2
303,269,321,315,2
303,269,322,313,2
303,276,322,309,2
303,287,321,305,2
305,299,318,303,2
307,310,313,300,2
309,317,306,299,2
312,321,302,298,2
314,323,299,298,2
316,326,299,299,2
316,332,301,298,2
315,336,304,296,2
311,333,306,291,2
307,321,307,284,2
302,304,307,274,2
299,291,307,261,2
298,287,307,251,2
300,294,306,244,2
303,307,305,243,2
305,317,303,249,2
305,319,301,256,2
304,314,300,265,2
303,306,300,272,2
302,300,301,277,2
302,296,303,276,2
302,296,304,271,2
301,301,305,267,2
300,306,305,262,2
299,309,305,258,2
298,308,303,259,2
297,308,302,267,2
297,312,303,278,2
300,320,304,292,2
304,330,306,306,2
309,335,307,320,2
312,337,307,331,2
313,335,308,337,2
313,330,308,340,2
312,325,309,340,2
313,321,310,338,2
314,319,311,335,2
315,318,311,334,2
315,315,310,334,2
312,310,307,334,2
308,303,302,331,2
303,295,297,329,2
299,285,291,328,2
296,272,287,328,2
294,263,287,330,2
295,262,290,332,2
296,270,294,332,2
297,283,299,327,2
298,298,303,318,2
298,311,306,307,2
298,319,306,297,2
299,316,304,292,2
299,303,299,294,2
298,282,293,302,2
298,265,287,313,2
298,259,283,322,2
300,262,281,328,2
302,270,281,332,2
306,285,285,334,2
311,300,292,334,2
317,311,299,333,2
322,318,306,333,2
328,323,313,333,2
330,327,319,333,2
328,327,322,333,2
321,319,323,331,2
311,306,320,329,2
301,291,316,326,2
294,274,314,325,2
290,258,312,324,2
289,244,312,322,2
288,237,312,318,2
289,244,313,311,2
290,263,313,302,2
291,284,312,293,2
294,295,309,287,2
296,295,306,284,2
299,290,303,286,2
302,287,301,293,2
306,289,301,302,2
312,299,302,312,2
318,315,304,320,2
322,335,306,324,2
325,351,307,325,2
325,358,309,325,2
323,356,310,323,2
321,348,310,322,2
318,335,309,320,2
316,323,308,319,2
313,315,307,318,2
310,310,304,316,2
305,304,300,314,2
300,296,296,312,2
297,290,293,308,2
296,290,294,305,2
299,297,298,303,2
304,306,304,303,2
310,312,311,304,2
316,317,319,306,2
320,321,326,308,2
323,329,331,311,2
323,339,333,312,2
322,351,333,311,2
320,360,331,308,2
317,367,328,303,2
313,370,325,294,2
310,371,322,279,2
305,368,318,259,2
300,363,313,235,2
297,358,308,210,2
296,353,305,190,2
296,345,303,181,2
298,334,302,188,2
299,321,302,209,2
300,305,302,237,2
300,290,302,266,2
300,280,304,294,2
301,274,306,318,2
303,273,308,335,2
304,273,310,346,2
305,270,312,349,2
304,267,315,346,2
304,267,317,341,2
306,272,321,333,2
311,283,322,326,2
315,298,319,319,2
319,310,313,312,2
321,318,308,307,2
321,320,305,305,2
321,322,303,308,2
322,322,302,314,2
324,322,304,319,2
327,321,307,323,2
329,317,309,326,2
330,313,311,329,2
330,310,311,332,2
327,308,310,335,2
323,308,308,336,2
317,309,305,335,2
311,310,303,332,2
306,311,302,329,2
304,312,302,327,2
303,310,304,325,2
302,307,306,324,2
300,305,307,321,2
298,304,306,315,2
296,302,304,307,2
293,298,301,298,2
289,289,296,291,2
285,272,293,284,2
281,248,290,278,2
279,222,287,273,2
276,201,283,273,2
276,194,281,278,2
280,205,281,289,2
287,229,283,302,2
294,258,284,314,2
300,286,283,324,2
305,310,284,331,2
308,329,284,335,2
309,340,286,337,2
310,346,290,337,2
311,348,294,336,2
311,347,298,334,2
310,342,302,333,2
308,335,305,331,2
306,331,310,331,2
306,331,316,332,2
306,333,322,334,2
307,336,325,334,2
307,338,326,334,2
308,337,326,332,2
308,332,326,331,2
308,328,325,330,2
307,327,323,328,2
307,332,321,326,2
308,341,319,324,2
310,346,320,322,2
312,344,321,321,2
313,336,321,320,2
312,323,322,319,2
312,308,323,317,2
311,295,324,314,2
309,285,324,309,2
307,281,324,302,2
306,282,325,295,2
305,286,325,290,2
305,291,322,289,2
305,293,318,293,2
306,292,314,298,2
308,287,310,304,2
310,280,307,309,2
312,275,306,313,2
315,276,306,315,2
318,284,307,314,2
321,298,308,311,2
323,317,308,305,2
323,337,308,300,2
323,353,308,297,2
322,361,308,296,2
320,361,308,296,2
318,354,306,293,2
316,345,304,286,2
314,339,302,280,2
314,337,300,274,2
315,337,300,274,2
316,338,300,281,2
318,339,301,294,2
318,339,302,307,2
316,338,302,317,2
313,335,302,322,2
309,330,301,323,2
306,324,301,320,2
303,319,302,317,2
302,316,304,312,2
301,314,305,306,2
301,314,306,300,2
303,314,309,295,2
306,314,311,294,2
308,312,314,297,2
310,308,315,305,2
312,305,315,313,2
311,301,313,319,2
309,294,308,321,2
305,286,302,321,2
301,276,297,320,2
300,271,295,321,2
301,272,295,323,2
303,276,295,324,2
305,279,295,326,2
306,279,293,325,2
308,274,291,322,2
310,263,289,318,2
313,247,288,313,2
317,235,288,304,2
320,232,290,290,2
323,235,292,271,2
324,242,294,251,2
325,248,298,238,2
324,249,301,239,2
322,249,303,252,2
318,251,302,273,2
313,258,300,294,2
308,276,300,313,2
306,302,301,326,2
307,331,303,333,2
308,355,305,336,2
308,367,307,336,2
307,369,309,334,2
305,363,309,331,2
303,356,308,331,2
301,355,308,332,2
300,359,309,334,2
298,361,308,336,2
295,361,307,334,2
290,358,307,329,2
286,353,309,321,2
284,348,311,310,2
284,341,312,300,2
286,335,310,295,2
288,326,307,294,2
291,315,304,297,2
294,305,304,302,2
296,301,306,310,2
297,299,309,317,2
296,293,311,321,2
295,284,312,324,2
295,275,312,326,2
296,273,309,328,2
297,277,305,330,2
299,284,303,331,2
301,292,304,333,2
304,298,307,333,2
305,303,309,330,2
307,310,310,326,2
309,316,311,322,2
311,318,312,318,2
311,315,311,314,2
311,309,311,313,2
311,300,311,314,2
310,292,312,315,2
311,290,313,315,2
311,292,312,314,2
309,292,310,314,2
306,288,308,314,2
303,280,305,314,2
302,275,304,314,2
301,281,303,315,2
301,296,303,316,2
302,312,303,314,2
303,324,301,311,2
303,328,297,306,2
302,322,293,302,2
301,310,289,299,2
300,295,284,299,2
300,283,282,303,2
303,282,284,308,2
308,289,289,314,2
313,302,297,316,2
317,314,303,312,2
318,322,307,300,2
318,327,311,288,2
316,331,313,280,2
313,332,313,278,2
311,331,312,280,2
309,327,309,285,2
306,322,306,292,2
304,319,305,299,2
304,317,305,305,2
305,313,308,311,2
306,305,312,316,2
308,294,314,320,2
308,290,315,324,2
308,296,314,328,2
307,306,312,329,2
306,315,310,328,2
307,319,309,325,2
307,316,308,323,2
308,307,307,320,2
307,293,306,319,2
307,282,305,317,2
308,279,305,314,2
309,285,304,309,2
311,297,304,304,2
312,308,306,300,2
312,318,307,299,2
309,326,307,299,2
305,333,307,297,2
301,338,307,291,2
297,340,307,282,2
293,338,307,271,2
289,331,306,265,2
287,321,305,268,2
287,311,305,280,2
289,304,305,292,2
293,300,305,300,2
297,302,306,303,2
302,310,309,302,2
307,317,311,302,2
310,317,313,303,2
312,308,313,308,2
313,294,311,314,2
313,278,309,318,2
311,260,307,320,2
308,243,305,321,2
304,235,305,321,2
301,240,306,321,2
301,258,308,323,2
304,281,311,325,2
306,301,311,326,2
305,315,310,324,2
305,326,308,323,2
305,335,307,321,2
307,342,305,320,2
310,343,305,320,2
315,339,306,319,2
320,330,308,317,2
324,319,308,313,2
324,309,308,307,2
323,301,306,299,2
320,295,302,291,2
316,289,296,287,2
310,285,289,286,2
304,284,284,290,2
300,286,283,297,2
297,286,286,302,2
295,281,290,306,2
294,277,295,307,2
296,276,302,302,2
300,285,308,295,2
305,302,310,290,2
309,320,311,288,2
312,335,309,290,2
313,341,306,295,2
312,336,301,302,2
312,326,297,311,2
314,317,295,319,2
317,311,293,327,2
319,308,293,332,2
320,308,294,337,2
321,310,298,340,2
320,314,304,341,2
321,319,310,341,2
322,326,317,340,2
322,334,322,339,2
321,346,324,335,2
318,358,324,330,2
315,369,322,326,2
313,375,319,321,2
313,375,318,317,2
313,368,317,312,2
313,351,317,305,2
311,332,316,297,2
305,314,315,292,2
297,301,313,291,2
290,292,311,291,2
284,282,311,292,2
281,271,311,289,2
281,261,311,284,2
282,258,311,277,2
285,268,312,272,2
288,284,311,271,2
290,297,311,277,2
291,305,311,287,2
292,311,311,300,2
294,313,310,309,2
296,308,310,315,2
298,298,310,317,2
301,289,311,317,2
304,288,312,315,2
306,297,311,313,2
306,306,310,311,2
304,314,308,310,2
302,320,308,313,2
302,328,307,316,2
301,334,308,318,2
301,339,308,317,2
303,340,309,314,2
303,337,311,312,2
304,332,312,314,2
303,327,312,316,2
302,321,310,316,2
301,314,306,312,2
301,307,301,306,2
301,300,298,300,2
301,295,296,295,2
302,295,296,293,2
304,301,297,297,2
305,310,300,304,2
305,319,304,313,2
304,324,306,321,2
302,325,309,325,2
300,324,310,328,2
299,322,312,329,2
299,320,314,329,2
301,321,315,327,2
303,320,315,323,2
305,309,315,320,2
306,288,312,314,2
306,266,309,308,2
305,248,307,303,2
304,235,305,300,2
304,222,306,296,2
303,207,305,286,2
303,198,304,271,2
303,203,302,255,2
304,220,298,243,2
305,241,290,242,2
307,264,281,252,2
307,283,274,272,2
307,298,271,295,2
308,309,272,316,2
311,320,279,332,2
314,331,288,342,2
318,338,298,348,2
321,337,306,351,2
325,330,312,350,2
329,322,317,347,2
329,321,319,343,2
326,329,319,338,2
320,343,319,333,2
314,356,319,328,2
309,364,319,323,2
304,365,318,318,2
299,362,316,313,2
296,357,314,310,2
294,351,313,309,2
293,345,312,310,2
292,339,311,313,2
291,327,311,316,2
290,308,311,318,2
288,283,312,320,2
288,258,315,321,2
289,240,318,322,2
292,233,321,322,2
297,239,324,320,2
302,258,325,315,2
307,285,322,309,2
310,314,318,304,2
314,339,314,299,2
317,357,311,296,2
320,365,309,293,2
321,367,307,290,2
322,364,307,287,2
322,357,306,285,2
319,346,306,283,2
313,333,305,281,2
307,322,305,283,2
301,317,305,287,2
299,318,306,292,2
298,322,307,296,2
297,325,306,297,2
296,327,304,295,2
295,325,302,293,2
295,319,298,292,2
296,310,296,293,2
298,299,294,296,2
302,288,293,301,2
306,283,295,306,2
310,282,300,311,2
314,284,307,314,2
316,287,313,314,2
317,290,315,313,2
315,291,313,312,2
311,290,308,309,2
305,287,303,305,2
300,281,297,301,2
296,270,294,296,2
294,260,294,292,2
294,255,294,290,2
296,256,295,292,2
297,263,294,297,2
297,272,293,302,2
297,284,292,308,2
298,300,293,313,2
302,316,296,318,2
306,326,300,322,2
309,328,304,324,2
310,320,307,324,2
309,306,307,323,2
307,294,306,321,2
306,292,304,318,2
305,298,302,315,2
305,304,301,313,2
306,308,302,311,2
306,308,305,308,2
307,308,309,308,2
309,314,314,311,2
312,323,319,314,2
313,330,323,317,2
314,336,325,318,2
314,339,324,316,2
312,339,321,313,2
310,336,317,309,2
309,332,311,305,2
309,324,304,300,2
309,312,298,293,2
308,300,293,282,2
306,288,292,268,2
304,279,294,260,2
302,276,300,259,2
302,280,307,264,2
302,292,313,274,2
303,307,318,287,2
305,322,321,300,2
308,336,323,310,2
311,344,323,316,2
312,344,322,317,2
313,340,321,314,2
314,336,320,311,2
314,333,319,312,2
314,330,318,318,2
311,324,317,324,2
306,315,317,329,2
301,309,316,332,2
295,306,315,333,2
293,307,313,334,2
294,308,312,333,2
297,306,312,331,2
302,302,312,328,2
306,296,311,325,2
309,287,311,323,2
311,277,311,322,2
311,264,310,322,2
309,248,308,322,2
307,234,307,321,2
304,224,304,319,2
302,220,301,316,2
300,220,297,314,2
298,220,291,313,2
296,219,284,312,2
295,220,278,310,2
296,225,275,308,2
299,240,275,305,2
301,264,278,302,2
303,291,284,300,2
306,319,293,301,2
311,343,304,301,2
316,364,313,299,2
321,377,319,295,2
324,385,322,292,2
327,389,323,291,2
327,387,322,291,2
326,381,319,294,2
322,370,317,300,2
317,359,315,308,2
312,350,314,315,2
308,343,314,320,2
304,335,313,323,2
300,325,311,325,2
298,315,310,324,2
295,307,311,322,2
293,307,311,319,2
292,315,310,314,2
292,326,309,309,2
292,334,309,303,2
293,339,310,297,2
294,342,310,293,2
296,340,310,291,2
297,333,310,286,2
300,318,309,284,2
303,299,308,284,2
307,281,308,286,2
309,265,306,289,2
309,255,303,291,2
307,246,300,296,2
305,241,299,303,2
304,245,299,307,2
303,258,300,307,2
302,280,300,305,2
302,306,300,300,2
303,330,301,298,2
307,346,304,299,2
312,356,308,300,2
320,360,311,301,2
329,359,314,297,2
337,356,317,288,2
341,352,319,280,2
341,348,319,276,2
338,345,317,278,2
331,341,313,286,2
323,335,309,297,2
316,328,307,308,2
312,321,305,319,2
310,317,304,328,2
309,316,305,333,2
307,318,306,334,2
305,323,308,332,2
300,326,309,327,2
295,326,307,320,2
289,323,306,314,2
287,319,305,308,2
287,314,304,305,2
289,307,303,304,2
291,297,302,305,2
292,285,301,310,2
294,273,302,314,2
295,263,304,314,2
296,258,306,312,2
296,256,308,312,2
297,258,309,315,2
298,264,309,320,2
299,273,308,324,2
301,279,307,328,2
302,284,307,331,2
303,290,308,331,2
304,298,308,329,2
303,310,308,325,2
302,321,308,322,2
301,328,308,319,2
301,327,307,317,2
301,320,307,316,2
301,310,306,316,2
302,301,302,315,2
302,297,298,315,2
303,297,296,316,2
304,294,294,319,2
305,286,292,321,2
304,275,288,323,2
302,264,282,322,2
299,255,278,320,2
297,250,275,318,2
296,242,275,316,2
297,236,277,315,2
300,238,282,314,2
304,253,289,312,2
309,277,298,311,2
314,304,310,311,2
318,326,322,312,2
319,338,330,311,2
318,346,334,308,2
315,354,337,307,2
314,361,336,308,2
312,364,333,310,2
310,364,330,311,2
309,361,326,311,2
308,359,323,310,2
308,357,320,309,2
307,357,318,308,2
307,357,316,307,2
307,353,315,304,2
307,347,314,300,2
308,341,314,295,2
310,335,313,289,2
312,331,312,286,2
314,330,310,286,2
315,331,309,289,2
316,331,308,294,2
316,330,306,298,2
314,327,304,298,2
312,322,302,296,2
309,314,301,290,2
307,304,302,283,2
305,292,303,279,2
304,279,305,275,2
303,271,307,270,2
304,268,310,262,2
306,269,313,252,2
308,273,314,243,2
309,280,312,242,2
308,288,309,251,2
307,297,306,269,2
306,307,306,289,2
308,314,307,308,2
311,317,309,322,2
314,315,309,331,2
316,309,307,334,2
318,303,305,333,2
319,299,303,331,2
320,296,303,328,2
320,293,302,326,2
321,292,302,325,2
320,298,302,323,2
321,312,304,320,2
321,327,305,317,2
321,337,306,315,2
319,338,306,312,2
317,331,306,309,2
314,315,306,306,2
308,296,307,304,2
302,280,306,304,2
297,269,306,308,2
293,263,306,313,2
291,260,306,321,2
290,259,306,327,2
289,261,305,332,2
290,266,305,335,2
291,273,306,336,2
293,279,308,336,2
297,286,311,333,2
300,297,313,326,2
303,313,314,316,2
303,327,314,304,2
303,337,312,291,2
301,340,309,280,2
300,336,305,272,2
298,325,301,266,2
296,309,297,261,2
295,295,292,257,2
295,287,288,257,2
296,287,284,262,2
298,293,281,272,2
302,298,280,286,2
306,301,281,301,2
310,301,284,314,2
313,301,288,324,2
317,306,292,332,2
321,314,296,337,2
326,320,300,341,2
331,322,304,344,2
333,324,308,347,2
332,327,310,348,2
328,327,311,347,2
321,323,312,345,2
314,318,314,344,2
308,310,318,342,2
304,301,322,341,2
301,293,324,339,2
300,286,326,336,2
299,278,324,332,2
298,264,319,328,2
299,247,312,324,2
300,234,304,320,2
299,228,295,315,2
297,232,290,311,2
297,243,288,310,2
299,262,291,310,2
303,287,299,311,2
307,309,306,310,2
310,329,311,308,2
313,348,312,303,2
315,364,312,295,2
316,376,312,285,2
316,381,312,277,2
317,381,313,273,2
318,378,314,274,2
318,371,316,281,2
318,365,317,290,2
319,359,318,298,2
320,352,320,304,2
321,345,320,307,2
323,340,318,306,2
324,337,317,302,2
325,334,315,298,2
324,332,313,296,2
322,328,312,295,2
318,323,312,295,2
314,319,312,297,2
310,317,312,301,2
306,317,313,306,2
304,318,314,311,2
302,319,314,316,2
300,318,312,317,2
297,318,308,315,2
296,315,305,311,2
296,311,303,307,2
295,303,301,305,2
295,292,300,308,2
295,280,301,314,2
299,268,303,321,2
305,260,306,326,2
311,254,309,326,2
317,252,311,322,2
320,256,310,313,2
321,266,307,301,2
320,282,304,289,2
318,299,301,282,2
315,313,299,282,2
310,325,297,285,2
304,330,297,288,2
298,326,299,289,2
295,313,303,287,2
292,297,307,283,2
291,286,312,279,2
293,285,315,278,2
295,293,316,284,2
297,305,315,295,2
298,315,314,309,2
298,321,312,322,2
299,324,311,331,2
299,324,309,337,2
299,321,306,339,2
300,316,305,339,2
302,309,303,338,2
304,304,302,337,2
306,301,301,336,2
306,299,300,335,2
306,302,300,333,2
306,305,299,331,2
305,308,298,328,2
304,307,297,325,2
304,299,296,323,2
304,285,295,320,2
304,266,296,317,2
305,248,298,314,2
307,237,303,311,2
311,236,309,309,2
315,242,314,306,2
317,254,316,302,2
317,264,317,300,2
315,266,315,301,2
314,268,314,305,2
313,271,312,308,2
310,279,309,310,2
308,289,306,310,2
307,302,304,310,2
308,312,304,312,2
310,319,303,310,2
309,322,303,304,2
306,322,302,296,2
303,321,300,290,2
301,322,298,287,2
300,325,297,288,2
302,331,296,292,2
303,340,296,299,2
307,350,296,306,2
312,359,297,312,2
317,363,297,317,2
321,362,295,320,2
324,354,294,322,2
324,342,294,324,2
323,331,296,325,2
321,324,299,325,2
318,323,302,324,2
315,326,304,321,2
312,329,306,317,2
311,329,308,313,2
310,328,308,312,2
309,327,309,313,2
308,324,310,315,2
306,320,311,316,2
303,313,312,316,2
302,308,315,313,2
301,303,317,310,2
301,296,320,310,2
304,289,322,312,2
308,281,322,316,2
312,273,321,318,2
316,267,319,317,2
320,264,319,313,2
324,267,319,305,2
328,275,319,292,2
330,287,318,276,2
328,298,316,264,2
323,306,313,261,2
316,309,309,266,2
310,308,304,278,2
304,305,301,292,2
301,306,300,307,2
298,306,301,318,2
294,306,303,323,2
290,308,305,322,2
288,312,306,316,2
289,319,307,311,2
293,327,306,307,2
297,334,304,305,2
301,337,302,304,2
304,337,301,306,2
305,331,301,311,2
305,321,302,318,2
303,309,303,323,2
300,298,303,327,2
297,296,304,329,2
296,301,306,330,2
296,308,308,331,2
297,311,310,332,2
299,310,310,332,2
300,310,310,332,2
301,311,310,331,2
301,315,311,330,2
302,319,311,329,2
303,324,312,329,2
304,326,312,328,2
304,326,311,327,2
304,324,309,326,2
302,321,307,324,2
300,317,305,321,2
298,312,302,318,2
297,307,300,315,2
296,303,299,313,2
296,302,301,311,2
297,303,303,309,2
299,305,306,307,2
301,303,309,306,2
303,298,311,308,2
304,290,312,309,2
305,280,311,309,2
307,273,309,307,2
308,271,307,304,2
310,272,307,299,2
311,271,307,290,2
310,266,306,280,2
307,252,305,271,2
304,231,303,267,2
304,211,303,269,2
307,204,304,276,2
311,210,306,287,2
316,229,306,296,2
318,255,306,303,2
320,280,306,307,2
319,300,306,311,2
317,310,306,314,2
315,313,306,313,2
311,315,305,306,2
306,321,305,296,2
302,329,304,287,2
299,341,302,282,2
297,350,301,282,2
295,353,302,285,2
294,351,302,292,2
293,346,303,300,2
292,343,304,307,2
292,344,306,312,2
293,347,307,315,2
293,351,309,316,2
293,355,310,317,2
293,355,311,320,2
295,354,313,322,2
297,350,315,325,2
299,347,316,327,2
302,344,316,327,2
304,340,315,325,2
305,337,314,323,2
305,333,313,321,2
305,329,311,319,2
306,326,310,318,2
306,324,310,317,2
307,321,309,316,2
308,318,309,315,2
309,315,309,314,2
310,313,309,314,2
311,313,308,313,2
312,313,307,312,2
311,313,306,311,2
312,312,305,310,2
312,309,304,308,2
312,304,302,307,2
312,299,300,306,2
313,296,298,305,2
313,296,297,304,2
313,297,297,302,2
312,301,297,297,2
310,302,297,291,2
308,297,298,284,2
306,288,300,279,2
307,280,302,278,2
311,276,305,282,2
315,277,307,291,2
320,283,309,301,2
324,289,310,310,2
330,296,312,314,2
334,303,316,314,2
337,310,317,310,2
336,315,318,304,2
332,319,317,294,2
326,321,316,282,2
319,315,317,271,2
314,298,318,261,2
308,272,320,254,2
303,244,321,257,2
300,216,321,270,2
298,190,319,285,2
297,174,315,296,2
299,176,311,301,2
303,198,308,304,2
310,230,307,305,2
316,266,307,306,2
320,300,305,310,2
319,326,303,315,2
314,343,301,320,2
305,354,300,324,2
298,362,300,325,2
293,368,298,323,2
289,370,296,318,2
287,368,293,312,2
287,362,292,306,2
288,354,293,303,2
290,343,296,303,2
291,330,300,306,2
293,318,303,310,2
293,309,305,317,2
293,304,305,324,2
293,304,303,330,2
294,306,301,334,2
296,312,300,335,2
297,320,299,333,2
298,328,298,330,2
300,330,298,327,2
302,329,298,326,2
303,328,298,326,2
306,327,298,327,2
308,327,300,328,2
309,323,301,329,2
308,316,303,329,2
306,307,304,328,2
304,302,304,327,2
303,300,304,326,2
302,301,303,324,2
302,302,301,321,2
301,299,298,318,2
299,294,297,316,2
297,289,297,314,2
297,285,301,314,2
298,289,305,315,2
300,299,309,316,2
302,308,313,317,2
305,314,315,318,2
307,316,316,319,2
308,319,316,318,2
309,322,316,317,2
308,322,315,314,2
306,318,314,308,2
304,306,312,301,2
303,291,309,292,2
302,278,307,285,2
303,269,307,282,2
305,266,307,285,2
308,264,307,293,2
310,264,306,302,2
312,265,303,311,2
313,269,302,318,2
314,275,303,324,2
314,286,307,328,2
315,302,312,330,2
314,320,314,328,2
312,333,314,324,2
311,343,312,319,2
310,351,308,315,2
309,358,305,312,2
309,362,301,311,2
310,363,299,312,2
311,359,297,314,2
312,352,296,315,2
311,342,295,316,2
308,328,295,316,2
306,310,296,316,2
304,295,300,313,2
303,287,304,310,2
303,284,307,307,2
303,287,308,304,2
305,291,307,301,2
307,295,306,300,2
310,299,304,299,2
312,308,303,297,2
312,319,301,290,2
311,328,301,279,2
310,333,302,271,2
310,336,303,269,2
311,340,305,275,2
312,343,306,284,2
311,343,308,296,2
311,340,309,307,2
312,333,309,317,2
312,320,309,326,2
313,307,309,331,2
315,297,309,334,2
317,288,310,334,2
321,284,313,333,2
325,285,315,332,2
327,290,317,331,2
327,294,316,328,2
325,295,315,325,2
321,292,313,319,2
317,287,311,311,2
313,285,309,300,2
309,289,307,287,2
307,296,306,272,2
305,303,305,261,2
304,310,303,256,2
304,317,301,258,2
304,325,299,262,2
304,332,297,267,2
304,337,297,276,2
304,340,297,285,2
305,342,299,295,2
309,345,302,304,2
314,347,306,312,2
317,343,309,319,2
319,330,311,326,2
319,310,312,330,2
317,292,313,332,2
316,282,313,334,2
316,283,313,334,2
316,291,312,335,2
316,303,309,333,2
314,315,305,331,2
313,326,301,328,2
313,333,298,326,2
313,340,297,325,2
314,344,296,325,2
316,343,296,325,2
317,338,296,326,2
316,331,295,326,2
311,323,295,325,2
303,311,292,322,2
294,296,288,318,2
285,281,287,314,2
282,270,288,313,2
282,263,292,314,2
286,260,298,316,2
292,261,301,319,2
298,265,303,320,2
302,271,303,320,2
304,280,303,320,2
305,288,304,319,2
303,295,305,317,2
299,301,307,316,2
296,306,309,314,2
293,311,313,312,2
292,313,316,308,2
291,314,319,305,2
293,314,321,303,2
295,313,320,303,2
296,308,317,305,2
297,304,315,308,2
298,306,312,311,2
300,309,309,313,2
301,310,306,313,2
300,309,300,309,2
297,305,293,305,2
295,302,287,301,2
293,303,283,299,2
293,305,282,299,2
293,308,284,299,2
294,312,289,300,2
295,318,295,302,2
296,325,303,304,2
298,331,311,307,2
300,334,317,310,2
301,332,321,313,2
302,323,324,315,2
302,310,325,316,2
301,295,326,316,2
300,283,327,315,2
300,276,329,314,2
302,272,331,314,2
305,266,333,313,2
307,252,332,312,2
307,234,328,310,2
306,218,323,311,2
305,214,318,313,2
306,225,316,316,2
310,249,315,320,2
315,280,315,322,2
319,314,314,322,2
320,342,310,319,2
318,362,305,315,2
317,376,301,313,2
316,385,299,313,2
315,392,299,312,2
314,395,300,311,2
312,393,300,309,2
310,384,299,306,2
308,371,297,303,2
306,356,295,300,2
305,342,294,297,2
306,329,295,296,2
307,319,299,296,2
310,311,303,296,2
312,308,309,298,2
315,308,313,301,2
320,311,317,305,2
324,315,321,307,2
326,315,323,306,2
324,311,321,303,2
318,306,319,299,2
311,301,317,291,2
304,301,315,277,2
299,308,315,261,2
297,320,315,244,2
298,331,315,233,2
299,339,314,231,2
299,344,312,242,2
299,345,310,262,2
298,344,308,285,2
299,341,307,305,2
301,337,306,318,2
307,333,306,322,2
313,329,304,323,2
316,324,301,322,2
317,317,298,321,2
316,309,295,319,2
314,302,293,318,2
313,298,292,317,2
312,298,291,315,2
310,304,291,314,2
308,311,291,313,2
304,315,291,315,2
300,315,292,318,2
297,313,294,321,2
296,310,297,324,2
295,308,301,327,2
296,305,303,329,2
296,301,303,329,2
297,296,304,329,2
299,293,304,327,2
301,290,303,325,2
303,285,303,322,2
305,276,302,315,2
304,263,299,305,2
301,246,297,297,2
297,235,294,293,2
295,236,291,292,2
294,250,289,291,2
294,270,289,290,2
295,288,289,287,2
295,298,289,283,2
294,302,291,283,2
293,301,294,290,2
293,300,297,300,2
294,302,302,310,2
295,302,304,315,2
296,298,306,317,2
299,296,307,319,2
303,301,310,323,2
308,311,311,325,2
312,322,312,321,2
313,330,312,315,2
312,332,311,309,2
311,330,310,305,2
311,326,308,304,2
311,322,305,309,2
310,317,301,316,2
308,306,297,324,2
306,291,295,331,2
306,276,297,337,2
307,265,303,342,2
308,262,308,345,2
309,262,312,346,2
310,265,315,347,2
310,267,315,345,2
309,270,314,343,2
307,275,312,338,2
305,283,310,332,2
303,294,308,326,2
302,307,307,321,2
302,322,308,320,2
304,336,309,320,2
306,347,310,321,2
307,356,312,321,2
307,361,312,320,2
307,363,312,318,2
307,361,313,317,2
308,354,313,316,2
309,348,314,315,2
309,344,316,313,2
308,343,317,312,2
306,341,317,311,2
304,337,316,310,2
303,333,314,311,2
302,332,312,311,2
302,331,310,312,2
304,331,310,311,2
306,329,312,309,2
307,326,314,307,2
309,321,315,305,2
308,316,315,305,2
307,308,312,305,2
305,298,308,304,2
303,284,301,301,2
301,265,293,294,2
298,241,285,287,2
294,214,280,282,2
292,195,282,281,2
295,192,291,285,2
300,206,301,292,2
306,233,309,298,2
310,266,313,301,2
313,297,314,298,2
316,322,313,291,2
317,340,311,284,2
318,352,310,277,2
320,358,310,271,2
323,359,309,264,2
327,353,308,260,2
330,342,309,260,2
330,329,310,262,2
326,317,312,264,2
320,315,313,268,2
315,320,313,276,2
312,327,312,290,2
310,332,310,307,2
309,336,309,323,2
309,341,308,335,2
309,347,308,342,2
308,350,309,344,2
306,351,310,343,2
304,347,310,341,2
302,342,309,338,2
300,335,308,334,2
298,328,305,326,2
296,323,303,315,2
294,318,301,302,2
294,314,301,288,2
295,309,302,279,2
298,302,303,277,2
302,294,305,282,2
306,285,307,293,2
310,274,307,306,2
311,265,306,316,2
311,257,303,323,2
308,253,302,326,2
306,251,301,328,2
304,248,302,328,2
304,243,304,327,2
303,238,306,324,2
303,237,309,320,2
303,243,313,318,2
304,258,316,317,2
305,282,318,317,2
307,310,319,318,2
311,332,318,317,2
311,347,315,315,2
310,358,311,311,2
307,367,307,307,2
304,371,304,304,2
304,370,303,305,2
305,363,304,309,2
308,352,306,313,2
311,338,308,313,2
311,325,308,310,2
311,317,306,304,2
310,313,304,296,2
308,313,303,290,2
305,316,301,290,2
302,320,299,294,2
299,322,297,299,2
296,319,295,304,2
295,312,293,308,2
296,304,295,313,2
297,301,298,318,2
299,304,300,320,2
300,312,303,320,2
301,322,305,316,2
301,332,307,311,2
301,338,309,307,2
302,337,308,307,2
302,331,306,308,2
302,324,304,310,2
303,319,301,313,2
305,315,299,315,2
306,312,298,316,2
306,307,297,316,2
305,299,297,315,2
303,290,297,311,2
299,280,299,308,2
297,272,302,305,2
296,269,308,304,2
298,267,315,306,2
301,266,321,311,2
306,266,328,317,2
312,264,332,322,2
317,256,333,326,2
321,243,331,326,2
324,235,329,323,2
325,236,327,317,2
323,250,325,308,2
320,271,323,296,2
316,297,320,283,2
311,318,317,275,2
309,335,313,275,2
309,345,310,281,2
311,348,306,290,2
313,349,303,299,2
316,350,301,309,2
319,352,300,316,2
320,350,300,318,2
318,341,299,317,2
315,329,298,313,2
310,321,296,309,2
306,321,295,306,2
303,325,295,306,2
302,331,294,305,2
300,337,294,307,2
299,339,295,309,2
298,339,297,311,2
298,335,300,312,2
299,328,303,313,2
300,320,307,314,2
302,315,310,315,2
303,313,312,316,2
303,316,312,316,2
304,319,311,316,2
304,321,308,315,2
306,322,304,314,2
309,319,302,314,2
313,314,300,313,2
315,308,299,313,2
316,303,300,313,2
315,302,303,312,2
313,303,307,310,2
310,303,310,306,2
306,302,313,302,2
303,302,313,299,2
300,303,314,298,2
299,303,314,297,2
297,299,313,296,2
296,294,313,295,2
295,290,312,295,2
296,288,311,296,2
299,287,308,299,2
302,286,304,303,2
304,280,301,307,2
304,267,296,309,2
303,247,291,309,2
300,227,286,304,2
298,213,282,296,2
294,210,280,286,2
292,216,281,281,2
290,226,285,280,2
289,238,290,281,2
289,252,295,284,2
290,270,299,288,2
293,290,303,294,2
297,310,307,300,2
300,325,310,305,2
303,333,313,308,2
305,335,313,309,2
305,333,313,307,2
304,331,311,306,2
304,332,310,306,2
304,333,309,307,2
306,334,310,307,2
306,337,312,306,2
305,343,312,304,2
304,348,310,301,2
304,350,306,296,2
304,350,302,294,2
304,349,299,295,2
304,345,295,300,2
303,342,293,305,2
301,340,293,309,2
298,340,294,312,2
295,339,297,315,2
294,337,299,317,2
294,334,303,319,2
297,329,308,322,2
300,323,314,324,2
304,314,319,323,2
308,304,322,318,2
311,296,325,308,2
314,294,326,297,2
317,300,326,287,2
318,312,325,281,2
317,325,324,282,2
314,336,321,290,2
311,346,319,299,2
309,352,316,305,2
307,353,313,311,2
306,350,311,315,2
307,345,311,319,2
308,337,311,321,2
309,327,312,322,2
311,317,313,321,2
312,305,314,319,2
314,288,315,319,2
316,265,318,321,2
317,243,320,324,2
318,232,322,327,2
319,243,325,329,2
320,267,327,329,2
319,292,328,327,2
316,311,328,322,2
310,319,328,319,2
305,319,327,317,2
302,312,325,316,2
302,299,321,316,2
304,288,317,317,2
305,280,312,317,2
305,275,308,315,2
304,273,304,311,2
303,273,302,308,2
302,280,300,301,2
301,293,299,292,2
300,301,298,284,2
299,305,298,283,2
302,310,299,288,2
305,316,301,295,2
310,323,303,301,2
315,328,305,304,2
319,330,307,306,2
322,333,309,307,2
325,336,308,306,2
326,338,305,302,2
325,337,300,295,2
322,329,296,288,2
318,320,293,284,2
313,311,291,279,2
309,304,292,274,2
307,299,296,269,2
306,294,299,262,2
304,286,302,259,2
300,281,302,260,2
297,286,301,267,2
295,298,301,278,2
295,310,301,291,2
297,316,302,305,2
301,317,303,317,2
303,312,304,326,2
303,304,304,330,2
302,296,303,332,2
300,290,301,332,2
300,290,299,331,2
300,295,297,329,2
302,307,294,326,2
305,321,291,325,2
307,330,289,326,2
309,332,288,328,2
309,328,289,330,2
308,323,292,331,2
306,322,297,332,2
305,323,304,332,2
305,323,309,330,2
304,322,313,326,2
303,320,315,322,2
303,315,316,317,2
303,308,315,313,2
304,300,312,312,2
303,293,308,312,2
