333,311,320,319,0
330,309,320,317,0
330,309,321,316,0
332,312,321,314,0
335,312,320,311,0
337,311,318,310,0
337,313,316,309,0
336,317,313,308,0
334,323,309,306,0
332,325,305,303,0
330,324,303,299,0
329,321,301,295,0
326,318,300,289,0
324,316,301,287,0
322,315,302,289,0
322,316,305,294,0
324,316,307,299,0
325,309,308,303,0
327,298,310,306,0
330,290,311,307,0
333,289,311,307,0
336,294,309,307,0
339,303,308,307,0
343,315,308,307,0
345,325,310,307,0
344,326,310,308,0
340,317,308,309,0
334,301,307,310,0
328,282,307,313,0
324,265,307,316,0
322,253,307,318,0
323,248,307,319,0
327,253,307,320,0
332,262,306,319,0
337,273,306,317,0
339,286,304,314,0
339,300,300,311,0
337,308,296,308,0
334,310,292,308,0
331,313,290,309,0
329,316,290,309,0
329,318,291,308,0
328,315,294,308,0
329,309,297,308,0
330,303,300,308,0
331,299,304,308,0
331,296,306,308,0
331,297,309,309,0
333,301,313,311,0
333,306,316,313,0
333,308,318,314,0
333,310,318,315,0
331,312,317,314,0
330,318,316,312,0
330,325,315,312,0
332,327,315,312,0
333,323,316,311,0
333,315,316,310,0
332,306,317,309,0
331,298,317,307,0
329,291,316,305,0
328,288,315,303,0
330,291,314,303,0
335,305,315,304,0
340,321,314,304,0
341,324,311,303,0
339,318,308,303,0
337,309,305,303,0
335,303,304,303,0
334,298,303,303,0
336,295,303,303,0
338,297,304,304,0
339,306,306,304,0
338,309,306,304,0
335,299,305,304,0
333,282,304,304,0
334,269,304,304,0
336,269,304,303,0
338,276,304,300,0
338,285,304,297,0
339,296,304,295,0
340,306,305,294,0
339,313,307,297,0
335,317,308,302,0
331,315,309,307,0
327,308,311,312,0
324,298,312,315,0
325,289,315,318,0
327,284,317,319,0
327,285,316,317,0
326,287,315,316,0
324,287,315,313,0
324,285,313,311,0
323,284,311,308,0
324,286,310,306,0
326,294,310,305,0
329,305,311,305,0
334,319,312,307,0
339,330,312,308,0
341,334,312,309,0
339,331,310,309,0
335,323,308,308,0
330,315,306,305,0
327,311,304,303,0
326,314,305,301,0
328,320,309,300,0
329,324,311,298,0
329,319,312,297,0
328,312,311,298,0
330,310,311,300,0
332,313,311,304,0
333,312,309,305,0
331,305,306,305,0
329,298,305,304,0
327,291,306,303,0
326,285,307,304,0
327,284,309,305,0
331,290,310,306,0
336,297,311,307,0
341,306,313,308,0
344,311,315,311,0
344,306,315,312,0
342,297,314,313,0
340,290,313,314,0
340,291,314,314,0
341,296,313,312,0
340,302,310,308,0
338,308,305,304,0
336,308,302,302,0
335,302,300,302,0
333,295,300,302,0
332,294,303,304,0
333,302,306,307,0
334,312,310,308,0
335,318,313,309,0
335,320,315,308,0
333,316,315,307,0
329,310,314,305,0
325,305,313,303,0
324,303,312,302,0
325,305,311,302,0
326,310,313,303,0
327,313,315,304,0
328,312,317,305,0
328,307,316,307,0
327,302,313,308,0
325,298,310,307,0
324,298,307,307,0
325,301,305,307,0
326,304,305,306,0
328,305,306,306,0
330,305,308,307,0
330,302,310,307,0
328,294,311,307,0
327,285,310,308,0
326,278,310,308,0
326,272,309,309,0
324,267,309,309,0
321,260,310,310,0
320,251,312,312,0
322,246,315,314,0
327,249,318,313,0
330,258,317,309,0
332,271,313,302,0
333,288,309,295,0
334,306,307,291,0
336,322,306,290,0
337,333,305,292,0
337,343,306,296,0
336,352,308,299,0
334,359,308,302,0
333,361,306,303,0
331,361,305,304,0
329,349,304,306,0
327,328,304,307,0
324,304,305,308,0
323,284,306,308,0
323,273,309,308,0
325,269,311,309,0
328,270,313,309,0
329,271,316,309,0
328,271,317,308,0
328,275,318,309,0
330,282,320,313,0
331,285,320,314,0
330,281,318,315,0
328,272,315,315,0
327,265,314,315,0
327,268,315,316,0
329,281,316,316,0
332,298,317,315,0
337,316,317,313,0
341,333,317,311,0
340,341,316,309,0
336,339,314,308,0
329,328,311,307,0
323,314,310,308,0
320,304,310,309,0
319,295,309,310,0
317,284,308,311,0
316,274,308,312,0
317,272,309,312,0
320,284,311,312,0
323,310,312,312,0
325,342,312,311,0
326,367,312,309,0
325,379,310,307,0
324,377,310,305,0
323,361,310,304,0
323,340,310,304,0
324,321,309,305,0
325,309,308,306,0
326,301,305,307,0
324,292,304,309,0
323,283,303,311,0
322,276,302,313,0
321,274,302,313,0
322,274,301,313,0
324,278,299,312,0
324,283,298,310,0
324,286,298,309,0
325,288,299,309,0
325,286,302,310,0
326,284,307,311,0
330,285,312,313,0
335,287,315,315,0
342,290,317,316,0
346,289,318,317,0
347,284,319,317,0
343,277,318,315,0
335,272,314,313,0
326,272,310,309,0
319,280,305,306,0
315,290,301,304,0
313,298,298,303,0
313,302,295,303,0
313,302,293,304,0
315,299,293,305,0
317,297,294,307,0
319,298,296,308,0
321,299,297,307,0
323,299,297,306,0
323,299,298,305,0
323,300,299,306,0
324,301,300,308,0
324,305,304,310,0
325,311,307,310,0
324,317,309,310,0
323,326,310,308,0
322,335,310,306,0
321,342,309,303,0
320,345,308,303,0
320,345,307,303,0
320,342,307,304,0
320,338,307,306,0
321,337,307,308,0
323,339,308,309,0
325,341,309,309,0
325,335,309,308,0
323,323,308,305,0
321,311,307,302,0
322,305,306,301,0
324,307,307,303,0
327,308,307,307,0
330,303,308,311,0
333,297,311,314,0
336,294,313,314,0
338,294,314,312,0
337,296,313,308,0
333,298,312,305,0
329,300,311,304,0
324,297,311,304,0
319,289,311,305,0
314,279,311,305,0
310,268,310,306,0
308,262,308,305,0
308,260,307,305,0
309,263,307,303,0
312,272,309,304,0
315,281,312,307,0
319,282,314,311,0
320,274,316,315,0
319,258,315,318,0
319,246,315,321,0
319,244,315,324,0
321,249,315,325,0
322,258,315,326,0
323,269,315,326,0
322,277,313,325,0
320,284,311,322,0
320,290,309,318,0
320,296,307,315,0
321,303,304,312,0
321,317,303,309,0
321,329,302,307,0
319,336,300,304,0
318,337,297,303,0
316,335,295,301,0
317,329,294,302,0
319,322,294,304,0
322,320,296,307,0
325,317,299,309,0
327,314,303,311,0
328,314,307,312,0
327,314,310,313,0
325,312,312,313,0
323,311,312,312,0
323,316,312,312,0
325,325,313,311,0
326,331,311,310,0
326,332,309,309,0
327,328,308,310,0
328,323,308,310,0
329,318,307,310,0
330,315,305,310,0
330,312,303,308,0
328,308,301,306,0
323,301,298,305,0
318,292,295,304,0
314,282,294,304,0
312,277,294,306,0
313,277,296,308,0
313,283,299,309,0
313,290,300,309,0
311,295,301,308,0
310,290,302,307,0
308,269,303,306,0
308,241,304,306,0
309,219,305,305,0
312,217,308,306,0
319,235,310,309,0
326,268,311,311,0
333,302,311,312,0
335,324,311,312,0
336,336,311,312,0
336,345,310,311,0
334,353,310,309,0
330,357,307,307,0
326,357,302,305,0
322,352,299,303,0
322,343,299,304,0
323,336,302,306,0
326,335,305,306,0
329,337,307,306,0
329,339,309,305,0
329,335,310,303,0
326,325,311,303,0
323,312,312,304,0
322,301,314,306,0
323,295,315,308,0
325,297,314,310,0
327,303,315,311,0
329,311,314,311,0
328,313,310,308,0
323,308,305,303,0
320,299,301,299,0
320,296,299,299,0
322,295,298,301,0
322,291,296,302,0
320,285,296,304,0
319,279,297,306,0
318,274,300,308,0
317,270,304,308,0
316,269,308,307,0
316,270,310,305,0
315,277,310,303,0
316,286,309,302,0
319,295,309,303,0
324,308,310,305,0
328,326,311,307,0
331,344,312,309,0
332,359,314,311,0
331,366,315,312,0
327,360,316,313,0
323,340,316,314,0
319,317,316,316,0
318,302,317,317,0
320,298,319,318,0
323,299,320,318,0
323,302,321,318,0
321,305,320,317,0
321,303,317,316,0
319,289,315,315,0
318,266,312,314,0
316,242,309,311,0
315,226,308,307,0
314,225,307,304,0
315,238,306,301,0
318,259,304,299,0
324,282,301,298,0
328,303,297,300,0
329,316,294,302,0
328,322,292,304,0
325,324,291,307,0
324,326,291,310,0
323,328,292,312,0
322,329,294,312,0
319,330,297,313,0
316,333,301,314,0
315,339,307,317,0
318,347,312,319,0
322,352,316,321,0
326,350,316,320,0
326,342,314,318,0
323,332,311,314,0
320,321,308,310,0
316,312,305,307,0
312,308,303,305,0
309,306,302,305,0
305,302,301,305,0
304,294,302,307,0
306,285,304,310,0
311,278,305,311,0
314,277,304,310,0
314,281,304,308,0
314,286,303,306,0
312,288,304,304,0
310,286,306,304,0
309,279,309,305,0
308,273,311,305,0
310,275,313,306,0
313,288,314,307,0
318,303,315,309,0
320,314,315,308,0
321,320,313,304,0
320,318,310,299,0
317,308,307,297,0
315,292,305,297,0
314,276,305,298,0
313,266,306,299,0
312,267,309,301,0
311,276,311,303,0
312,285,312,305,0
313,292,312,307,0
315,296,311,309,0
317,295,310,311,0
318,290,310,312,0
318,280,311,314,0
317,267,311,314,0
316,257,311,313,0
315,257,310,312,0
315,266,309,309,0
314,275,307,306,0
314,282,305,305,0
314,290,303,306,0
316,301,302,308,0
320,316,302,310,0
324,331,302,311,0
326,342,303,311,0
324,341,302,309,0
320,335,299,307,0
317,329,298,304,0
314,322,297,302,0
312,314,301,302,0
310,302,305,304,0
309,292,311,306,0
309,289,316,308,0
313,293,320,311,0
317,300,323,314,0
320,304,322,314,0
321,303,320,313,0
319,294,317,311,0
317,284,313,310,0
317,281,310,307,0
318,285,308,305,0
319,292,305,303,0
318,297,303,302,0
317,299,301,302,0
315,300,300,302,0
314,306,302,304,0
314,315,305,307,0
315,325,306,309,0
316,330,306,310,0
315,324,306,309,0
312,308,307,309,0
310,286,308,308,0
309,266,308,307,0
311,250,310,308,0
315,241,314,310,0
321,243,318,311,0
324,251,320,310,0
322,254,319,307,0
318,253,316,304,0
314,255,313,302,0
311,265,310,300,0
309,281,306,299,0
308,300,302,297,0
306,318,301,296,0
305,333,301,296,0
306,345,301,297,0
306,348,302,298,0
306,341,302,300,0
307,333,301,303,0
309,327,300,306,0
310,322,297,305,0
311,319,294,303,0
312,321,290,300,0
313,332,290,298,0
312,342,291,298,0
311,343,292,300,0
309,335,293,302,0
308,326,295,305,0
308,316,299,307,0
310,304,303,309,0
312,293,308,311,0
315,284,315,312,0
318,280,322,314,0
321,280,326,317,0
325,282,327,319,0
328,283,328,322,0
331,284,328,325,0
332,287,328,326,0
332,297,329,327,0
332,309,328,326,0
329,313,324,322,0
322,306,319,318,0
315,296,314,315,0
310,290,309,313,0
307,291,305,311,0
304,298,302,311,0
303,301,301,309,0
304,298,299,307,0
306,295,298,307,0
310,295,298,306,0
314,298,300,306,0
317,304,301,305,0
320,308,303,305,0
322,314,304,306,0
323,319,304,306,0
324,317,303,306,0
323,314,302,307,0
323,316,301,307,0
323,322,301,308,0
322,328,300,308,0
321,331,302,309,0
321,331,305,310,0
321,324,309,310,0
320,314,312,310,0
320,304,314,310,0
322,298,315,311,0
323,292,314,311,0
320,281,310,310,0
315,265,306,310,0
311,252,305,311,0
310,246,306,312,0
310,252,308,312,0
311,263,311,313,0
311,274,313,312,0
310,284,315,311,0
309,293,316,310,0
308,299,315,309,0
306,298,314,308,0
304,294,313,308,0
304,290,312,309,0
303,289,311,309,0
303,291,309,308,0
304,296,309,307,0
306,302,308,306,0
307,304,308,306,0
308,305,309,305,0
309,303,311,305,0
311,303,312,307,0
314,308,314,308,0
319,317,314,309,0
323,326,315,310,0
325,331,315,309,0
324,329,313,308,0
321,320,311,305,0
318,307,310,303,0
314,298,310,301,0
313,293,311,301,0
312,294,310,301,0
313,300,307,303,0
313,309,304,303,0
314,317,301,303,0
313,318,299,303,0
310,309,298,301,0
308,297,297,300,0
304,284,297,297,0
302,274,295,295,0
301,268,293,294,0
303,265,290,294,0
306,268,290,295,0
309,276,290,298,0
312,285,290,299,0
312,293,291,300,0
312,297,293,302,0
312,296,295,304,0
311,290,298,306,0
312,284,300,308,0
313,281,303,309,0
312,281,305,310,0
310,285,307,311,0
308,290,309,310,0
306,294,311,310,0
306,297,314,312,0
308,298,317,314,0
309,298,318,314,0
312,299,317,314,0
314,303,315,313,0
316,313,314,312,0
318,322,315,311,0
318,325,315,310,0
317,322,315,310,0
317,316,315,310,0
316,312,314,311,0
316,312,313,312,0
316,315,314,314,0
316,323,316,316,0
315,332,318,317,0
314,336,316,316,0
311,335,313,314,0
308,333,309,312,0
306,329,305,309,0
304,320,303,307,0
303,308,302,308,0
302,296,301,309,0
301,290,301,309,0
302,291,300,311,0
306,301,301,313,0
312,311,302,314,0
315,314,301,313,0
315,306,299,312,0
315,290,297,311,0
316,277,298,311,0
316,275,299,311,0
317,280,300,311,0
316,290,300,312,0
314,298,301,312,0
313,303,301,312,0
313,300,300,313,0
315,292,299,314,0
318,282,299,314,0
322,271,300,314,0
324,261,301,312,0
324,252,303,310,0
321,250,303,307,0
317,259,303,304,0
314,274,304,304,0
312,288,306,305,0
311,298,308,307,0
310,304,308,309,0
309,305,307,309,0
310,305,307,308,0
310,307,306,307,0
309,313,305,306,0
307,319,304,304,0
306,322,304,303,0
306,323,305,303,0
308,326,307,303,0
309,330,307,302,0
311,336,307,302,0
313,344,307,303,0
315,348,308,304,0
315,340,309,305,0
313,326,308,305,0
311,314,306,303,0
309,305,306,303,0
309,302,307,303,0
312,300,309,304,0
316,296,310,304,0
318,289,310,302,0
316,283,308,299,0
313,280,306,294,0
311,283,303,291,0
311,291,303,291,0
311,296,304,292,0
310,293,305,293,0
310,285,306,295,0
312,276,307,297,0
313,271,307,298,0
315,271,307,300,0
317,277,307,303,0
318,283,308,305,0
318,288,307,308,0
317,291,305,307,0
313,291,304,305,0
311,292,302,302,0
309,294,301,299,0
309,297,301,297,0
310,300,303,296,0
312,300,305,298,0
313,295,307,301,0
313,289,310,306,0
311,283,312,310,0
309,277,313,312,0
306,272,315,312,0
306,265,317,312,0
307,256,319,311,0
311,253,319,311,0
315,259,318,310,0
321,283,319,311,0
328,324,320,311,0
331,360,319,310,0
328,382,315,308,0
324,391,311,307,0
318,386,307,305,0
312,369,303,304,0
305,348,300,303,0
302,328,300,304,0
301,315,300,305,0
301,306,302,306,0
302,297,304,307,0
303,290,305,307,0
304,284,305,308,0
306,280,306,308,0
309,278,305,309,0
312,280,304,309,0
314,286,304,309,0
317,293,305,310,0
318,296,306,311,0
319,295,308,313,0
317,289,310,314,0
314,285,311,315,0
311,288,312,315,0
310,294,312,313,0
309,303,311,311,0
309,310,310,309,0
308,311,308,307,0
307,309,306,307,0
307,307,306,306,0
307,301,306,306,0
308,293,305,305,0
308,286,304,305,0
310,281,303,307,0
313,275,303,309,0
315,264,302,309,0
313,252,301,309,0
311,244,300,309,0
308,241,298,306,0
305,244,297,301,0
302,249,296,296,0
301,264,296,293,0
303,287,297,293,0
307,312,298,294,0
312,335,299,296,0
317,355,301,297,0
320,365,302,299,0
320,365,302,298,0
317,360,303,299,0
315,355,305,302,0
315,353,309,306,0
316,346,313,310,0
314,334,314,313,0
313,322,313,314,0
312,313,313,313,0
311,306,313,312,0
313,302,313,311,0
315,303,314,309,0
318,309,314,307,0
319,315,313,303,0
316,318,310,298,0
312,319,307,295,0
308,322,305,292,0
307,323,304,291,0
309,322,303,290,0
311,319,302,291,0
313,315,301,293,0
313,311,301,295,0
311,307,302,298,0
309,303,303,302,0
306,297,304,305,0
304,289,305,307,0
303,280,306,308,0
303,271,307,311,0
304,266,307,314,0
306,265,307,317,0
308,266,305,318,0
310,271,304,319,0
312,279,301,317,0
312,285,300,314,0
310,284,300,311,0
308,282,301,310,0
307,281,304,310,0
306,279,307,312,0
308,281,313,315,0
311,287,319,318,0
314,296,323,321,0
317,306,325,322,0
318,315,325,323,0
319,320,323,322,0
319,320,319,322,0
321,320,317,321,0
323,326,316,321,0
323,334,316,319,0
320,333,315,318,0
316,319,313,315,0
311,303,311,312,0
307,290,307,308,0
303,282,304,305,0
302,279,301,303,0
303,280,299,302,0
304,282,298,302,0
304,287,298,303,0
306,293,299,304,0
307,300,302,306,0
309,308,305,307,0
311,313,308,307,0
313,319,309,308,0
314,321,309,309,0
313,317,310,308,0
311,306,308,307,0
307,293,306,306,0
304,285,305,305,0
304,283,306,305,0
307,287,307,305,0
309,288,306,305,0
309,284,303,304,0
307,275,301,303,0
305,268,301,303,0
305,268,302,303,0
306,275,303,304,0
305,285,305,305,0
306,294,305,306,0
307,302,307,308,0
309,307,308,311,0
312,309,310,313,0
315,310,310,314,0
316,309,309,314,0
315,305,305,313,0
312,301,303,311,0
311,299,301,310,0
311,297,300,310,0
309,291,299,310,0
306,281,298,311,0
304,276,299,311,0
304,281,301,313,0
305,294,305,314,0
306,310,309,314,0
306,322,312,314,0
307,325,315,313,0
309,322,317,311,0
310,314,316,308,0
311,306,314,305,0
312,298,310,304,0
311,289,307,304,0
309,277,305,304,0
306,261,306,304,0
304,251,308,304,0
305,256,311,305,0
307,280,314,307,0
309,307,314,308,0
311,327,313,309,0
311,336,314,311,0
312,340,316,313,0
313,345,318,315,0
313,348,318,316,0
311,347,314,314,0
309,341,310,312,0
309,335,308,310,0
310,328,306,309,0
310,317,307,308,0
309,302,307,308,0
307,287,307,308,0
306,276,308,310,0
307,274,311,313,0
308,275,313,314,0
308,274,313,315,0
307,270,313,315,0
307,266,313,316,0
307,267,312,317,0
307,270,312,318,0
307,272,311,318,0
307,276,310,318,0
306,282,309,317,0
306,291,307,316,0
306,300,306,315,0
305,307,306,314,0
305,309,306,312,0
304,311,307,311,0
303,312,309,311,0
302,312,311,311,0
302,310,312,312,0
302,308,311,312,0
303,307,311,311,0
303,306,310,311,0
304,309,310,310,0
305,318,312,310,0
307,332,312,309,0
308,344,313,309,0
309,354,313,309,0
313,361,313,309,0
317,359,313,310,0
319,350,314,310,0
317,339,314,309,0
313,330,314,309,0
309,321,311,308,0
303,312,307,306,0
299,303,303,304,0
295,297,299,301,0
293,292,296,299,0
292,289,295,298,0
293,287,296,298,0
295,288,298,301,0
298,290,301,304,0
301,294,303,306,0
304,300,304,309,0
309,310,306,310,0
314,316,307,310,0
314,313,307,308,0
308,304,303,303,0
301,295,300,300,0
298,288,299,299,0
299,285,299,299,0
303,281,298,301,0
307,277,297,302,0
308,276,295,302,0
306,275,294,302,0
304,277,294,303,0
301,281,296,305,0
298,284,298,308,0
298,286,302,311,0
300,289,306,313,0
303,292,310,315,0
304,293,312,315,0
305,291,311,315,0
303,285,310,315,0
303,281,308,314,0
303,281,308,315,0
304,292,308,315,0
305,307,309,316,0
305,315,310,316,0
304,311,311,317,0
303,303,313,318,0
303,302,315,318,0
302,306,316,318,0
302,312,317,317,0
302,315,317,316,0
303,318,316,315,0
305,322,316,314,0
308,329,316,313,0
310,339,317,312,0
312,345,316,311,0
311,340,314,309,0
309,324,312,310,0
307,304,308,312,0
305,287,307,315,0
306,282,307,318,0
308,287,309,320,0
309,296,311,320,0
308,298,311,320,0
306,293,309,318,0
301,282,305,314,0
297,274,301,311,0
295,274,298,308,0
295,280,298,305,0
296,288,298,303,0
298,300,301,302,0
302,312,304,301,0
305,318,305,301,0
308,317,304,302,0
310,310,303,301,0
312,303,302,301,0
312,300,301,300,0
311,301,303,301,0
309,302,306,303,0
305,302,309,306,0
301,300,310,308,0
297,299,311,312,0
295,298,313,315,0
296,293,313,318,0
297,283,312,319,0
299,270,310,318,0
302,258,307,317,0
309,257,307,316,0
319,269,311,317,0
332,291,317,319,0
340,314,320,319,0
340,330,317,316,0
332,337,311,312,0
323,336,305,308,0
315,337,300,305,0
309,341,296,302,0
304,345,291,298,0
299,344,288,296,0
296,337,287,296,0
293,328,288,296,0
293,322,289,298,0
294,322,290,299,0
295,328,291,299,0
296,334,292,300,0
297,335,293,301,0
298,329,294,302,0
298,319,296,302,0
298,307,299,304,0
300,298,302,305,0
303,293,304,306,0
304,290,305,307,0
304,285,306,307,0
302,278,305,305,0
298,273,305,304,0
296,272,305,302,0
296,280,305,301,0
297,294,306,302,0
299,311,306,303,0
301,322,305,305,0
302,324,303,305,0
302,321,302,305,0
305,316,303,306,0
308,312,305,307,0
311,308,307,307,0
312,305,308,307,0
312,299,309,306,0
311,293,309,306,0
311,290,310,307,0
311,292,311,309,0
310,296,310,311,0
306,300,307,311,0
304,303,304,311,0
303,308,303,310,0
302,311,303,310,0
302,307,304,309,0
302,302,306,310,0
302,300,307,311,0
303,302,308,312,0
303,301,309,313,0
302,303,308,313,0
302,304,308,313,0
301,304,308,312,0
300,302,307,312,0
301,303,308,312,0
301,304,308,312,0
303,307,308,312,0
304,310,306,310,0
305,309,303,309,0
308,307,300,308,0
312,307,300,308,0
314,308,300,305,0
314,307,300,303,0
311,302,299,301,0
310,300,299,302,0
310,299,300,304,0
311,299,300,307,0
311,301,300,309,0
312,311,301,310,0
312,326,301,310,0
311,333,299,308,0
309,334,298,306,0
306,329,298,305,0
303,321,300,305,0
302,311,302,305,0
301,299,305,307,0
301,289,310,309,0
301,280,313,311,0
302,274,316,313,0
304,275,317,314,0
304,283,319,314,0
303,292,320,314,0
300,299,321,313,0
296,300,319,312,0
294,296,319,312,0
295,290,320,313,0
298,284,322,314,0
298,281,323,314,0
298,281,322,312,0
299,283,320,312,0
299,288,317,313,0
300,292,314,313,0
302,295,311,314,0
305,296,308,314,0
308,294,305,314,0
310,294,304,314,0
309,293,304,314,0
306,285,303,313,0
302,270,302,310,0
298,256,300,308,0
295,248,300,307,0
294,252,302,307,0
295,266,304,308,0
296,289,304,308,0
297,312,302,307,0
298,326,301,307,0
301,334,301,307,0
304,343,304,309,0
308,355,307,311,0
310,363,308,312,0
308,365,306,313,0
306,361,304,313,0
306,355,302,312,0
306,346,301,310,0
305,336,301,308,0
304,324,301,307,0
304,314,303,308,0
304,306,307,310,0
305,298,310,311,0
303,289,312,312,0
300,277,314,311,0
297,269,316,311,0
296,266,317,311,0
296,267,317,312,0
297,267,316,312,0
298,265,315,312,0
298,266,315,313,0
300,269,316,314,0
303,275,316,314,0
304,283,315,313,0
306,293,313,311,0
307,307,311,308,0
306,324,309,305,0
304,339,306,303,0
303,346,305,302,0
303,345,305,302,0
303,339,304,302,0
301,330,303,303,0
300,320,303,305,0
300,313,303,306,0
301,309,304,305,0
300,304,302,302,0
299,296,300,300,0
300,288,300,300,0
302,283,302,302,0
305,283,305,304,0
308,287,306,305,0
311,292,308,306,0
314,295,309,307,0
316,298,308,307,0
315,301,305,308,0
310,300,301,308,0
303,297,296,309,0
298,293,294,310,0
296,281,294,311,0
296,268,296,312,0
299,264,296,312,0
301,269,296,311,0
302,282,298,308,0
301,296,299,307,0
299,307,302,305,0
298,316,305,305,0
296,321,308,305,0
297,326,313,306,0
300,330,315,308,0
303,326,317,309,0
305,316,318,312,0
309,306,319,314,0
312,302,319,315,0
315,305,316,314,0
315,312,312,313,0
313,319,306,310,0
310,329,303,308,0
308,343,300,305,0
307,347,299,303,0
305,340,298,303,0
303,328,297,302,0
301,315,297,303,0
300,306,297,304,0
301,303,297,303,0
301,306,296,302,0
301,308,295,303,0
302,307,294,303,0
301,305,293,304,0
300,302,293,304,0
299,302,295,304,0
299,309,297,304,0
299,319,300,304,0
299,328,301,304,0
301,332,304,305,0
302,332,307,306,0
301,327,310,306,0
299,319,311,304,0
297,312,311,302,0
297,306,311,301,0
298,302,310,301,0
300,299,309,301,0
301,295,307,300,0
302,290,306,300,0
302,283,305,302,0
302,278,305,304,0
302,281,305,307,0
302,290,306,309,0
303,297,306,310,0
304,303,305,310,0
305,307,304,310,0
305,304,303,309,0
304,298,303,309,0
303,295,305,310,0
304,290,308,311,0
303,280,310,312,0
301,271,312,313,0
299,268,313,314,0
301,271,316,315,0
304,279,318,317,0
308,289,319,317,0
309,294,316,314,0
307,293,311,311,0
306,295,308,308,0
307,298,307,305,0
308,302,307,304,0
310,309,307,304,0
313,321,306,304,0
315,336,305,304,0
315,345,302,303,0
313,342,300,301,0
313,332,300,301,0
313,327,301,301,0
312,326,302,300,0
308,325,303,297,0
302,322,305,295,0
296,322,306,295,0
291,324,306,295,0
287,319,306,296,0
285,299,306,297,0
283,273,305,297,0
283,250,304,299,0
285,239,306,302,0
291,245,307,304,0
296,263,309,306,0
300,283,310,308,0
303,295,309,309,0
304,300,308,309,0
305,304,307,308,0
305,312,305,307,0
306,325,303,306,0
305,340,300,306,0
302,353,298,305,0
298,358,296,303,0
295,356,294,303,0
294,350,295,304,0
294,338,297,306,0
294,326,301,309,0
295,319,305,311,0
298,314,309,313,0
300,306,312,313,0
300,296,314,314,0
300,288,315,315,0
301,287,317,315,0
302,292,317,316,0
305,302,316,317,0
307,313,315,317,0
308,322,314,316,0
306,323,311,314,0
302,319,308,311,0
297,311,306,308,0
294,301,305,307,0
292,293,305,309,0
291,286,305,310,0
291,281,306,311,0
291,276,308,312,0
292,273,310,313,0
295,274,313,313,0
299,279,315,313,0
303,289,316,313,0
306,296,316,312,0
307,297,313,311,0
305,291,309,310,0
304,281,306,309,0
303,273,303,307,0
303,275,302,307,0
304,289,300,306,0
305,306,300,305,0
306,321,301,303,0
306,329,301,302,0
305,329,301,302,0
304,322,303,302,0
305,315,305,303,0
309,311,307,305,0
313,312,309,307,0
315,317,310,309,0
317,324,312,311,0
316,325,313,312,0
314,320,313,311,0
311,314,313,309,0
307,308,311,307,0
303,309,309,305,0
301,314,308,304,0
299,321,306,303,0
296,326,305,303,0
296,334,303,304,0
298,342,302,305,0
302,347,301,305,0
307,347,300,306,0
312,343,301,307,0
315,342,303,307,0
318,345,304,308,0
319,345,306,309,0
317,336,307,310,0
314,318,307,310,0
311,297,307,309,0
308,277,307,307,0
305,260,306,304,0
301,246,306,301,0
299,239,306,298,0
297,240,307,294,0
296,247,308,292,0
295,260,308,293,0
296,276,309,295,0
297,286,307,297,0
297,290,306,300,0
299,292,305,304,0
301,292,304,308,0
301,290,304,310,0
301,286,303,311,0
302,282,302,312,0
303,278,302,312,0
304,274,305,313,0
304,275,308,314,0
306,284,311,316,0
310,301,314,316,0
313,320,315,313,0
313,335,313,308,0
310,344,310,304,0
306,348,306,300,0
305,349,303,301,0
305,349,301,303,0
305,346,300,306,0
306,340,299,308,0
306,332,299,310,0
306,321,300,310,0
307,312,300,310,0
306,306,300,309,0
304,302,301,309,0
302,298,303,310,0
299,295,304,311,0
297,292,305,311,0
296,295,305,312,0
296,304,307,313,0
299,316,309,314,0
302,323,310,314,0
305,322,310,314,0
307,313,310,313,0
311,299,311,312,0
316,291,313,313,0
320,291,314,313,0
320,292,314,312,0
317,293,313,311,0
313,300,312,310,0
309,310,311,308,0
305,319,309,306,0
301,320,305,303,0
297,314,301,300,0
294,303,298,298,0
293,292,298,299,0
292,286,299,301,0
293,286,302,304,0
298,291,305,308,0
303,299,309,309,0
306,306,311,309,0
307,312,311,309,0
305,317,311,309,0
304,319,310,309,0
304,317,311,310,0
306,315,311,312,0
307,312,311,312,0
305,308,310,312,0
302,304,307,310,0
298,297,305,308,0
295,288,304,306,0
293,282,303,305,0
292,282,303,304,0
293,289,304,304,0
295,299,305,303,0
295,309,307,303,0
297,315,309,304,0
300,313,311,305,0
302,304,309,306,0
305,295,307,307,0
308,290,307,309,0
312,292,308,312,0
315,298,311,315,0
316,302,312,314,0
313,305,313,311,0
309,310,312,307,0
305,312,310,304,0
302,315,310,303,0
301,316,311,302,0
300,315,311,300,0
297,311,310,298,0
295,307,310,297,0
294,306,309,299,0
295,306,308,304,0
298,306,306,309,0
302,308,306,312,0
305,306,304,313,0
306,298,302,312,0
304,286,300,310,0
303,273,298,307,0
303,266,298,304,0
304,265,298,300,0
307,271,298,297,0
310,283,297,293,0
310,295,295,290,0
308,302,295,289,0
306,305,298,292,0
303,307,300,297,0
301,313,303,301,0
301,322,303,304,0
300,332,303,304,0
299,337,301,304,0
297,338,301,303,0
297,336,302,304,0
298,332,303,305,0
298,328,304,306,0
298,320,304,307,0
297,309,304,308,0
295,295,304,308,0
293,281,304,308,0
294,277,305,309,0
297,282,306,308,0
301,295,305,307,0
305,307,304,306,0
310,318,303,306,0
313,326,303,308,0
315,333,304,311,0
317,338,307,313,0
319,341,311,316,0
319,337,313,317,0
317,326,313,318,0
314,315,313,317,0
311,307,312,316,0
307,303,311,315,0
303,300,309,313,0
300,296,308,312,0
298,290,308,311,0
298,287,309,312,0
299,288,309,313,0
301,292,310,313,0
302,295,310,312,0
302,296,308,311,0
301,294,307,310,0
300,286,305,310,0
298,275,305,311,0
299,270,305,312,0
302,275,306,313,0
306,285,306,312,0
310,292,305,311,0
313,296,304,310,0
314,296,302,307,0
312,295,300,306,0
309,297,298,304,0
306,301,298,304,0
303,307,299,303,0
300,315,300,304,0
298,319,303,304,0
298,315,307,306,0
298,303,310,308,0
301,288,311,309,0
303,277,310,310,0
304,273,308,308,0
306,279,304,307,0
308,289,299,306,0
309,297,294,305,0
310,301,292,304,0
311,303,293,305,0
311,307,295,305,0
310,312,300,305,0
306,318,304,306,0
303,321,307,307,0
300,323,311,308,0
300,329,315,309,0
301,337,317,309,0
301,342,315,306,0
302,343,314,303,0
304,341,313,302,0
306,338,313,301,0
307,332,312,302,0
305,322,311,303,0
303,313,310,304,0
301,304,309,306,0
301,296,308,306,0
300,286,306,304,0
299,281,306,303,0
300,283,306,302,0
301,292,309,304,0
303,304,312,308,0
306,316,313,311,0
307,322,313,313,0
307,324,313,313,0
306,325,314,314,0
305,324,314,314,0
302,326,314,315,0
301,334,313,316,0
300,344,312,314,0
299,347,311,312,0
297,346,309,309,0
296,343,309,307,0
297,339,309,306,0
299,337,309,306,0
301,333,310,307,0
302,327,311,309,0
304,320,312,311,0
305,312,314,311,0
306,302,314,311,0
306,293,314,310,0
305,285,313,309,0
305,279,312,308,0
305,275,310,308,0
305,272,310,309,0
304,273,311,311,0
303,280,311,313,0
303,289,313,315,0
304,297,315,317,0
306,295,316,318,0
306,284,315,319,0
304,266,314,319,0
302,251,312,318,0
301,245,311,317,0
303,252,309,315,0
306,268,306,312,0
308,283,305,308,0
309,293,303,305,0
309,297,303,302,0
309,296,305,300,0
310,300,308,300,0
312,310,312,301,0
313,323,314,303,0
312,332,313,304,0
309,337,312,307,0
307,342,311,308,0
306,343,310,308,0
305,344,308,307,0
303,343,305,305,0
302,342,303,303,0
300,341,301,301,0
299,339,299,299,0
299,334,298,298,0
300,328,296,298,0
301,322,295,298,0
303,315,295,299,0
302,308,295,301,0
301,301,296,302,0
300,297,298,306,0
300,291,301,310,0
301,287,303,313,0
303,287,305,315,0
305,293,306,316,0
308,299,307,316,0
309,299,309,315,0
309,294,310,315,0
307,283,309,312,0
302,268,308,309,0
297,257,308,306,0
294,257,308,305,0
293,266,309,303,0
296,282,310,303,0
299,300,310,302,0
301,312,310,302,0
302,314,310,303,0
302,308,309,303,0
302,299,307,303,0
302,291,305,303,0
302,291,302,302,0
303,300,300,302,0
305,315,299,304,0
306,325,299,305,0
306,326,299,307,0
304,320,299,309,0
302,312,301,309,0
301,306,304,309,0
300,303,307,308,0
301,302,308,308,0
301,303,309,308,0
300,305,309,309,0
299,306,309,309,0
300,307,310,309,0
301,312,311,310,0
302,317,313,311,0
303,318,313,311,0
302,315,311,310,0
301,308,311,309,0
302,304,311,309,0
305,309,313,311,0
309,321,316,313,0
313,330,318,312,0
315,334,318,308,0
314,333,316,304,0
311,330,314,301,0
307,327,311,301,0
303,320,310,303,0
301,309,310,304,0
300,298,309,306,0
300,291,307,306,0
301,287,305,307,0
302,285,304,309,0
301,283,303,311,0
301,279,302,313,0
300,270,303,314,0
300,262,304,315,0
301,256,304,313,0
301,254,305,313,0
303,262,308,312,0
304,277,310,312,0
305,296,310,312,0
307,313,311,312,0
310,327,311,312,0
311,335,310,312,0
313,336,308,312,0
313,326,306,312,0
311,304,305,313,0
308,285,306,315,0
307,276,308,317,0
306,276,310,319,0
308,288,311,322,0
310,306,313,323,0
314,323,313,323,0
315,330,311,321,0
312,324,306,318,0
308,314,300,314,0
304,309,296,310,0
302,309,295,306,0
300,313,296,304,0
299,320,298,301,0
299,329,300,301,0
301,338,303,302,0
302,344,304,305,0
304,346,305,308,0
306,342,306,311,0
308,333,306,313,0
308,318,306,315,0
307,302,307,315,0
305,290,308,315,0
303,283,307,314,0
301,279,304,311,0
300,278,303,310,0
301,279,302,309,0
302,282,303,309,0
303,286,304,309,0
304,290,304,308,0
302,294,304,307,0
300,296,304,307,0
299,297,304,307,0
298,294,305,308,0
300,290,306,309,0
301,285,309,308,0
301,280,310,306,0
300,277,310,303,0
299,278,310,302,0
298,282,309,301,0
298,288,309,304,0
298,295,310,307,0
300,300,311,310,0
301,304,313,312,0
303,306,317,315,0
306,312,319,317,0
308,322,320,318,0
307,326,318,317,0
304,327,315,315,0
301,327,312,313,0
300,326,309,312,0
299,324,306,311,0
299,320,304,310,0
299,313,301,309,0
297,306,298,310,0
295,301,296,310,0
293,301,293,310,0
292,302,291,310,0
292,302,290,310,0
293,301,291,310,0
295,298,293,310,0
293,291,295,311,0
290,281,298,311,0
288,272,301,313,0
289,271,306,315,0
293,278,311,318,0
300,296,315,319,0
305,315,316,318,0
308,325,314,314,0
307,329,310,309,0
305,329,306,303,0
302,326,302,298,0
300,321,299,294,0
298,315,297,292,0
296,308,296,293,0
295,301,296,296,0
294,296,296,299,0
295,289,296,303,0
297,285,297,305,0
300,283,299,308,0
305,286,303,311,0
308,292,307,314,0
310,296,310,316,0
310,295,311,318,0
308,290,311,318,0
304,287,311,318,0
302,292,310,319,0
303,302,310,320,0
303,312,310,320,0
304,320,309,319,0
304,328,310,317,0
305,336,310,316,0
306,341,310,315,0
306,343,310,313,0
304,341,308,311,0
301,333,307,308,0
299,324,307,307,0
299,320,309,307,0
299,318,308,307,0
299,315,306,306,0
299,308,305,307,0
299,301,304,308,0
300,295,304,308,0
301,290,303,309,0
302,283,303,310,0
302,277,303,310,0
302,277,304,309,0
302,281,305,309,0
302,288,308,310,0
304,295,310,310,0
305,301,311,309,0
304,301,311,307,0
302,297,310,305,0
299,293,309,303,0
297,291,308,301,0
296,291,308,302,0
297,295,310,303,0
298,301,310,303,0
299,305,311,303,0
301,308,311,303,0
302,308,311,303,0
304,307,312,305,0
306,302,314,308,0
307,295,315,311,0
309,286,315,314,0
309,280,314,316,0
309,278,314,316,0
308,280,313,315,0
305,281,310,314,0
302,283,307,313,0
301,290,304,313,0
303,302,305,314,0
306,316,308,315,0
309,332,311,316,0
309,349,312,315,0
306,353,309,312,0
300,340,306,310,0
296,325,304,310,0
295,316,305,309,0
295,312,305,309,0
296,310,303,307,0
298,309,302,306,0
301,304,302,305,0
304,300,301,305,0
306,298,301,305,0
306,301,302,306,0
306,306,301,307,0
304,310,300,308,0
303,313,299,308,0
302,313,298,309,0
302,314,298,309,0
302,314,299,309,0
304,313,300,310,0
307,310,302,310,0
309,305,303,311,0
310,295,303,311,0
309,283,302,311,0
306,274,301,313,0
302,265,299,313,0
297,257,297,311,0
293,253,295,309,0
290,255,292,306,0
288,260,290,302,0
287,272,290,299,0
290,289,292,298,0
295,307,296,299,0
301,322,300,300,0
307,329,304,301,0
310,332,306,302,0
309,331,307,302,0
306,326,306,303,0
302,317,306,303,0
298,308,305,304,0
296,304,306,305,0
297,306,307,306,0
300,314,310,309,0
305,325,312,311,0
310,329,314,313,0
315,331,317,316,0
321,337,320,318,0
326,346,319,318,0
327,352,314,314,0
324,352,307,309,0
319,346,302,305,0
313,336,297,301,0
306,324,294,299,0
301,312,294,299,0
297,298,295,302,0
296,284,299,306,0
296,270,302,309,0
296,259,305,312,0
297,252,306,313,0
297,253,306,313,0
299,262,305,313,0
301,279,304,313,0
303,298,305,314,0
305,313,307,315,0
308,323,309,315,0
310,331,310,314,0
311,335,310,312,0
311,336,311,311,0
311,335,311,310,0
310,328,311,310,0
309,322,312,311,0
308,320,312,311,0
307,325,311,310,0
304,329,310,309,0
301,326,308,309,0
298,318,307,308,0
296,306,307,308,0
295,294,308,309,0
295,287,309,310,0
297,285,311,312,0
298,286,313,313,0
301,286,314,314,0
303,287,315,315,0
304,285,314,316,0
304,283,312,315,0
302,281,309,314,0
300,279,305,313,0
297,279,303,312,0
296,281,303,312,0
295,282,303,312,0
294,279,303,312,0
293,273,303,311,0
292,268,304,310,0
293,266,305,310,0
296,271,307,310,0
299,288,308,310,0
302,310,307,309,0
302,330,304,307,0
301,345,303,305,0
300,353,302,304,0
300,355,302,302,0
302,352,303,301,0
303,345,304,300,0
305,333,304,300,0
307,321,304,301,0
308,313,306,304,0
308,311,308,306,0
307,311,311,308,0
305,303,311,308,0
302,291,309,307,0
300,283,308,305,0
300,282,307,304,0
302,289,307,303,0
306,304,307,303,0
310,316,307,304,0
312,319,305,305,0
312,316,302,305,0
310,309,299,305,0
306,301,297,305,0
302,290,297,305,0
300,281,297,305,0
299,279,297,304,0
299,277,297,302,0
298,271,296,301,0
298,264,296,300,0
298,261,297,301,0
298,264,298,302,0
298,275,299,303,0
298,291,300,304,0
299,307,301,304,0
300,323,300,303,0
301,335,298,303,0
302,341,298,303,0
303,340,299,304,0
304,341,300,305,0
305,343,302,306,0
305,344,302,306,0
304,340,300,306,0
303,326,299,305,0
303,305,299,305,0
302,285,300,307,0
303,270,302,309,0
305,263,306,311,0
306,265,309,311,0
306,274,310,309,0
304,286,309,307,0
302,303,308,305,0
303,321,307,304,0
304,339,305,303,0
306,346,304,302,0
305,343,302,300,0
303,338,301,300,0
302,335,302,301,0
300,332,302,300,0
298,330,302,301,0
297,325,302,302,0
297,319,302,303,0
299,315,303,304,0
301,313,305,306,0
302,311,305,308,0
302,305,304,309,0
303,294,303,310,0
303,284,302,311,0
302,275,302,310,0
299,268,303,309,0
297,261,303,308,0
295,254,303,308,0
295,255,303,310,0
296,263,303,311,0
297,276,303,313,0
298,290,304,314,0
299,300,306,314,0
299,304,308,313,0
300,304,309,312,0
303,304,310,312,0
308,307,312,313,0
312,312,315,315,0
315,317,317,317,0
313,318,317,317,0
309,317,318,316,0
306,314,317,315,0
303,312,316,311,0
302,308,315,308,0
301,304,313,306,0
300,296,311,306,0
299,288,310,307,0
297,283,309,309,0
296,282,309,310,0
297,288,310,313,0
301,304,311,314,0
305,323,313,315,0
308,339,313,316,0
310,351,312,316,0
310,355,310,314,0
307,352,306,311,0
302,347,303,309,0
298,340,301,307,0
296,332,301,306,0
297,325,301,306,0
297,319,301,306,0
298,313,301,307,0
300,312,302,307,0
302,314,303,307,0
304,318,304,308,0
306,322,304,309,0
306,322,303,309,0
304,319,303,309,0
302,313,303,309,0
299,305,304,309,0
296,294,305,309,0
293,281,305,310,0
292,270,305,311,0
292,265,305,312,0
294,268,307,313,0
298,274,307,313,0
301,278,305,312,0
301,276,300,307,0
302,274,296,303,0
303,277,295,300,0
304,282,295,299,0
307,283,299,299,0
309,285,302,301,0
311,294,305,302,0
309,307,305,302,0
303,318,304,301,0
298,328,303,300,0
295,336,303,301,0
295,341,305,303,0
297,341,307,304,0
298,338,308,305,0
299,335,308,305,0
299,331,307,304,0
300,327,306,304,0
303,321,306,304,0
306,316,306,304,0
308,313,306,303,0
306,308,305,303,0
302,304,305,303,0
301,306,305,304,0
301,309,306,306,0
303,310,307,307,0
304,304,308,307,0
304,296,307,306,0
302,292,305,304,0
300,294,303,301,0
300,299,301,300,0
301,305,301,298,0
302,312,301,297,0
303,317,301,297,0
304,319,301,297,0
305,316,302,299,0
306,312,303,301,0
306,311,305,304,0
306,309,307,306,0
304,307,308,307,0
301,305,307,308,0
299,303,307,308,0
299,300,308,308,0
301,295,309,309,0
305,290,312,310,0
310,289,315,313,0
315,294,316,314,0
317,300,318,314,0
315,305,319,313,0
310,308,319,312,0
304,308,317,310,0
300,303,315,308,0
297,295,311,307,0
295,289,306,306,0
293,285,302,305,0
292,284,300,305,0
294,285,298,305,0
295,289,297,305,0
297,299,297,305,0
300,313,297,305,0
304,327,297,306,0
306,335,297,306,0
306,338,296,306,0
306,337,296,306,0
305,336,297,308,0
305,334,299,310,0
303,330,301,311,0
301,325,303,311,0
298,320,305,312,0
297,311,308,314,0
297,300,310,315,0
297,293,312,316,0
297,289,313,316,0
298,293,313,315,0
300,302,313,315,0
303,314,313,314,0
305,323,313,314,0
306,328,312,314,0
307,326,312,314,0
309,320,311,314,0
310,311,310,314,0
308,305,309,313,0
306,300,308,311,0
304,294,307,309,0
302,285,305,308,0
300,272,303,307,0
300,257,300,305,0
299,244,299,304,0
300,239,300,305,0
301,245,301,306,0
301,260,303,307,0
301,280,305,308,0
303,303,306,310,0
304,325,307,310,0
306,341,308,310,0
307,350,308,309,0
307,352,306,308,0
307,351,305,305,0
306,346,303,304,0
306,337,301,303,0
305,327,299,303,0
303,316,298,303,0
300,308,297,303,0
299,301,296,304,0
298,295,295,304,0
298,290,296,305,0
300,290,297,307,0
303,291,300,308,0
304,289,302,308,0
307,288,303,307,0
308,286,305,308,0
310,284,308,309,0
312,284,311,311,0
313,287,314,313,0
314,296,317,314,0
315,307,319,315,0
315,317,322,315,0
315,330,324,314,0
313,342,323,312,0
309,347,318,308,0
304,348,313,305,0
299,345,310,303,0
294,339,307,302,0
291,332,307,301,0
289,326,308,302,0
290,320,308,303,0
290,314,309,303,0
291,307,309,304,0
294,303,309,304,0
297,301,308,303,0
298,299,305,303,0
297,293,303,302,0
295,282,302,301,0
292,270,302,302,0
290,264,304,303,0
291,266,307,305,0
293,274,309,306,0
294,283,309,306,0
295,290,307,306,0
296,298,303,305,0
296,306,300,303,0
296,312,298,303,0
297,312,298,303,0
298,309,299,304,0
300,307,299,305,0
303,311,299,306,0
306,316,299,307,0
310,320,300,308,0
313,323,302,309,0
313,323,303,308,0
311,316,304,308,0
306,306,304,307,0
302,296,305,306,0
300,290,307,307,0
300,290,309,309,0
300,293,310,310,0
300,298,310,311,0
299,301,308,311,0
299,299,307,311,0
298,290,305,310,0
296,278,303,309,0
296,274,302,309,0
300,288,305,311,0
305,310,309,313,0
308,328,311,313,0
308,335,310,311,0
304,335,308,307,0
300,330,306,304,0
297,323,304,303,0
297,317,304,303,0
299,312,307,304,0
303,310,310,305,0
306,310,312,307,0
309,310,312,309,0
309,307,311,311,0
308,304,309,312,0
310,307,308,313,0
312,312,309,313,0
314,322,311,313,0
314,334,314,312,0
311,341,314,312,0
307,339,314,311,0
303,332,314,310,0
302,327,315,310,0
304,327,318,310,0
305,328,318,310,0
303,327,316,309,0
299,324,311,307,0
294,317,307,304,0
290,304,304,302,0
287,290,302,301,0
286,281,301,300,0
288,279,301,300,0
292,286,301,300,0
297,297,303,301,0
302,308,305,302,0
305,315,307,303,0
308,318,309,303,0
309,322,311,303,0
311,329,312,303,0
313,337,313,302,0
312,339,311,300,0
306,329,308,299,0
299,310,305,300,0
294,290,305,303,0
293,274,305,307,0
293,263,306,310,0
294,262,306,312,0
295,269,306,313,0
296,278,307,313,0
298,284,308,313,0
303,293,311,314,0
308,306,314,315,0
313,319,316,316,0
315,326,317,315,0
312,322,314,313,0
304,310,309,308,0
296,294,304,304,0
290,281,301,302,0
288,270,302,302,0
287,264,305,303,0
288,265,307,304,0
289,273,307,304,0
292,284,305,305,0
296,298,303,305,0
298,308,300,304,0
298,313,294,303,0
298,314,290,303,0
298,312,287,302,0
299,307,287,303,0
299,303,287,303,0
299,301,287,302,0
298,300,288,301,0
298,301,291,300,0
299,305,296,300,0
301,310,301,301,0
305,315,306,303,0
308,318,312,306,0
309,320,316,308,0
309,320,318,309,0
307,315,318,309,0
306,306,317,310,0
306,297,317,310,0
306,293,317,310,0
307,296,317,311,0
307,304,317,311,0
306,314,317,310,0
307,323,317,308,0
308,327,317,307,0
309,328,317,306,0
309,329,316,306,0
306,333,314,307,0
303,337,313,309,0
300,337,312,311,0
297,336,312,313,0
296,333,311,314,0
295,327,309,315,0
297,322,308,315,0
302,324,309,315,0
308,331,310,315,0
310,328,311,313,0
310,314,310,310,0
306,293,309,308,0
302,276,309,308,0
301,271,311,310,0
304,281,314,312,0
306,299,314,311,0
307,317,312,308,0
306,327,310,304,0
303,328,308,301,0
300,325,307,298,0
297,322,306,297,0
294,319,306,297,0
293,317,307,298,0
295,315,307,300,0
296,310,308,302,0
297,303,307,305,0
298,295,306,307,0
297,286,306,309,0
297,279,305,310,0
297,276,306,311,0
297,279,307,311,0
298,289,310,310,0
300,301,311,309,0
301,305,310,307,0
301,301,308,306,0
301,291,306,305,0
303,283,305,304,0
304,280,305,305,0
304,282,305,305,0
305,288,306,306,0
308,303,307,307,0
312,320,307,308,0
316,332,308,308,0
318,338,307,308,0
316,336,306,307,0
312,330,305,306,0
306,323,305,304,0
301,317,305,303,0
298,313,304,301,0
296,311,302,300,0
297,311,300,300,0
299,312,299,301,0
302,318,299,302,0
306,322,301,303,0
307,319,302,304,0
305,310,303,303,0
302,296,303,303,0
299,281,304,305,0
299,273,306,307,0
299,268,307,309,0
299,265,308,310,0
299,266,309,311,0
301,272,311,312,0
302,286,311,312,0
303,303,310,312,0
304,321,308,311,0
304,336,304,309,0
303,343,300,307,0
302,341,295,305,0
301,335,293,305,0
301,321,291,306,0
301,296,291,308,0
303,271,292,311,0
305,256,295,312,0
309,253,298,313,0
312,262,300,312,0
313,278,302,311,0
314,294,302,310,0
313,308,302,309,0
314,317,301,309,0
313,320,301,309,0
312,318,303,311,0
313,315,305,313,0
312,312,307,314,0
311,307,310,315,0
309,305,312,315,0
308,308,314,317,0
306,313,315,317,0
303,318,316,317,0
299,320,316,317,0
297,317,316,316,0
296,313,316,316,0
298,308,315,316,0
300,307,314,317,0
301,308,312,316,0
301,308,310,315,0
300,304,309,315,0
299,297,309,314,0
298,289,309,314,0
298,285,311,314,0
300,285,312,315,0
301,286,311,314,0
303,287,311,314,0
304,293,309,311,0
303,306,306,307,0
302,323,303,303,0
301,335,300,300,0
301,341,298,300,0
302,343,299,300,0
303,337,300,299,0
302,322,300,299,0
301,301,302,301,0
302,281,304,305,0
306,270,307,310,0
311,271,309,313,0
315,281,310,315,0
318,298,310,314,0
319,318,310,313,0
318,335,308,311,0
317,342,307,310,0
314,343,304,309,0
309,342,299,308,0
304,338,295,306,0
299,332,293,306,0
297,327,293,307,0
297,323,294,308,0
297,318,294,309,0
298,311,293,310,0
300,306,293,310,0
303,307,294,310,0
305,312,296,310,0
305,313,297,309,0
304,311,298,308,0
301,306,299,307,0
298,299,300,306,0
297,290,300,305,0
295,279,300,305,0
295,266,299,305,0
297,257,300,306,0
301,260,301,306,0
304,274,302,306,0
306,294,303,306,0
306,311,303,305,0
305,322,302,304,0
304,326,301,304,0
304,324,300,305,0
303,319,300,307,0
303,313,300,309,0
303,308,302,310,0
303,307,303,311,0
301,304,304,312,0
299,297,304,312,0
297,287,304,313,0
296,283,305,313,0
296,289,306,312,0
297,302,308,311,0
300,316,310,311,0
303,326,311,311,0
305,329,309,311,0
306,326,307,311,0
305,320,305,311,0
305,314,304,311,0
304,311,305,312,0
305,309,305,313,0
306,305,307,314,0
306,303,307,314,0
307,306,308,314,0
308,312,307,314,0
308,314,307,313,0
308,307,307,312,0
305,298,306,311,0
302,289,306,310,0
300,283,307,310,0
300,277,307,311,0
302,276,311,312,0
309,287,315,314,0
316,308,316,315,0
320,329,316,315,0
318,342,312,312,0
313,341,307,310,0
306,331,302,307,0
300,318,299,306,0
296,302,298,306,0
292,290,299,306,0
289,287,301,307,0
289,291,303,308,0
292,298,304,308,0
295,305,305,307,0
299,311,304,307,0
302,314,304,307,0
304,315,304,307,0
307,314,304,308,0
311,313,304,308,0
314,315,306,309,0
317,320,307,310,0
320,326,308,311,0
321,330,309,311,0
320,326,309,309,0
316,316,308,308,0
312,303,307,307,0
308,293,306,307,0
304,287,306,307,0
299,284,303,304,0
294,288,301,300,0
290,294,299,298,0
289,300,298,296,0
290,304,297,295,0
292,304,297,294,0
294,303,298,294,0
297,306,301,297,0
302,313,305,300,0
306,322,309,303,0
310,331,312,305,0
311,332,312,304,0
310,321,308,304,0
309,304,304,302,0
308,292,301,302,0
309,289,301,303,0
310,294,300,304,0
310,304,301,304,0
309,311,301,304,0
308,315,300,303,0
305,317,299,304,0
303,317,299,305,0
301,317,300,307,0
301,316,302,309,0
300,314,304,310,0
299,313,305,312,0
299,311,305,313,0
299,309,307,314,0
300,308,308,315,0
303,307,310,315,0
307,308,312,316,0
310,310,312,315,0
311,310,309,314,0
310,309,306,314,0
308,310,305,313,0
307,310,304,313,0
304,311,303,312,0
301,314,303,312,0
301,318,303,312,0
302,321,303,313,0
305,318,303,313,0
308,312,302,312,0
307,304,301,311,0
308,300,300,310,0
309,301,301,309,0
311,308,303,308,0
313,317,305,307,0
314,325,308,306,0
313,325,309,305,0
309,317,310,304,0
305,308,310,304,0
301,302,308,304,0
300,301,306,304,0
301,301,304,305,0
302,300,303,306,0
304,298,304,308,0
304,293,305,310,0
305,286,306,312,0
305,284,307,314,0
306,289,308,315,0
306,297,308,315,0
305,304,308,315,0
302,309,307,314,0
297,309,306,312,0
295,306,304,310,0
295,304,302,309,0
295,301,300,308,0
295,295,299,307,0
297,287,299,307,0
298,281,299,307,0
299,282,300,306,0
299,288,301,305,0
298,297,304,304,0
296,303,305,303,0
294,303,307,304,0
294,303,309,304,0
295,306,309,305,0
297,311,309,305,0
300,315,310,306,0
304,318,311,307,0
307,321,312,309,0
310,324,313,309,0
311,326,312,309,0
311,328,310,309,0
311,329,308,309,0
310,327,307,309,0
307,324,305,309,0
304,319,304,308,0
302,311,303,307,0
301,303,302,307,0
300,296,301,305,0
300,286,301,304,0
300,273,299,303,0
297,257,299,303,0
295,244,299,303,0
295,239,301,304,0
296,243,302,304,0
298,250,304,304,0
301,260,305,303,0
303,274,306,300,0
303,289,306,298,0
301,301,306,297,0
299,311,306,298,0
297,318,304,299,0
294,321,302,300,0
292,324,300,300,0
290,328,299,300,0
291,336,299,302,0
292,343,300,303,0
294,340,302,305,0
298,332,305,306,0
301,326,307,307,0
304,325,309,308,0
306,328,310,309,0
307,333,311,310,0
308,338,312,310,0
309,338,312,310,0
308,336,311,308,0
306,331,310,307,0
305,326,308,305,0
303,320,306,304,0
302,311,305,304,0
301,301,303,304,0
302,295,302,305,0
303,293,301,305,0
305,298,300,305,0
306,307,301,306,0
307,316,302,308,0
308,318,305,310,0
309,318,308,314,0
309,317,310,315,0
307,311,309,314,0
305,304,308,312,0
303,298,305,309,0
301,294,303,307,0
302,291,301,306,0
303,289,301,306,0
304,287,302,307,0
306,286,304,310,0
307,286,305,312,0
308,288,306,315,0
309,291,306,316,0
310,292,306,316,0
308,292,304,315,0
307,289,304,314,0
306,284,304,313,0
306,282,304,313,0
305,288,305,312,0
304,300,304,311,0
302,312,304,309,0
301,321,303,307,0
298,325,302,305,0
295,321,302,306,0
292,311,303,306,0
290,296,304,307,0
290,280,304,309,0
292,271,304,310,0
298,272,306,311,0
305,286,310,312,0
313,306,314,312,0
316,324,316,311,0
314,332,317,309,0
310,328,317,309,0
305,322,315,310,0
301,320,314,310,0
299,322,312,310,0
299,328,311,309,0
298,336,310,308,0
298,344,308,306,0
298,349,305,305,0
299,352,304,303,0
302,350,304,304,0
305,343,305,305,0
307,334,306,307,0
307,323,307,309,0
305,312,307,308,0
302,304,306,307,0
300,301,306,306,0
298,300,305,304,0
296,297,304,302,0
295,296,304,300,0
295,300,305,300,0
296,309,308,302,0
297,318,310,306,0
298,322,311,310,0
296,318,310,311,0
294,308,308,311,0
292,302,305,310,0
293,300,304,308,0
295,299,304,308,0
296,297,304,307,0
295,294,304,308,0
295,291,305,308,0
295,289,305,309,0
295,291,305,309,0
296,297,306,310,0
297,307,306,310,0
298,313,308,311,0
298,312,310,312,0
298,307,311,313,0
297,302,312,313,0
297,300,313,314,0
296,302,314,314,0
295,303,313,313,0
293,302,311,311,0
293,301,310,311,0
295,304,310,311,0
297,307,311,311,0
298,303,311,311,0
299,294,311,309,0
300,287,312,309,0
301,286,311,309,0
302,290,309,308,0
304,297,307,308,0
307,307,306,308,0
311,320,305,308,0
315,337,306,308,0
319,352,307,308,0
320,362,308,308,0
317,362,307,308,0
311,357,306,308,0
304,350,306,307,0
298,344,307,305,0
293,338,308,304,0
291,333,309,304,0
291,327,310,304,0
292,316,310,304,0
294,301,309,303,0
296,287,307,302,0
301,278,308,301,0
306,280,309,303,0
311,288,311,304,0
312,291,313,305,0
309,290,313,306,0
303,289,313,307,0
298,289,313,310,0
296,291,314,313,0
295,290,315,316,0
296,284,314,317,0
297,278,313,317,0
299,277,310,317,0
303,279,309,317,0
304,281,309,317,0
304,278,308,317,0
302,271,307,317,0
298,266,305,316,0
296,264,305,315,0
295,270,305,313,0
297,286,305,311,0
300,310,302,309,0
304,333,299,307,0
308,350,297,305,0
311,362,296,303,0
314,366,297,303,0
316,361,300,305,0
316,348,303,307,0
312,332,305,310,0
306,318,306,312,0
301,306,307,313,0
297,300,308,313,0
295,299,309,314,0
295,301,308,314,0
296,301,309,313,0
299,297,310,313,0
302,295,312,313,0
305,297,313,313,0
308,302,315,313,0
309,306,316,313,0
306,305,314,311,0
302,296,311,309,0
298,289,307,306,0
297,293,301,304,0
297,303,297,301,0
298,309,294,300,0
300,308,293,300,0
301,302,292,300,0
300,296,293,300,0
299,293,294,302,0
298,295,296,304,0
299,301,300,308,0
300,303,305,311,0
302,303,309,312,0
302,305,312,312,0
302,312,312,310,0
299,319,310,309,0
297,326,309,308,0
295,328,308,308,0
294,324,308,309,0
295,317,309,310,0
298,311,311,312,0
302,309,314,313,0
306,310,317,316,0
311,314,318,318,0
314,318,318,319,0
314,317,316,318,0
312,311,312,317,0
309,302,309,315,0
307,294,307,314,0
305,295,307,312,0
304,301,306,311,0
303,307,304,309,0
301,311,303,307,0
301,313,301,307,0
300,314,300,306,0
299,315,299,304,0
298,316,297,303,0
297,316,296,301,0
297,317,294,300,0
297,316,292,299,0
297,311,292,300,0
298,305,293,301,0
299,300,296,304,0
301,295,300,308,0
304,293,304,312,0
308,292,307,313,0
311,294,309,314,0
312,301,310,315,0
314,312,312,316,0
315,323,315,318,0
317,326,319,320,0
319,320,322,321,0
318,307,322,321,0
316,294,321,320,0
311,285,319,317,0
306,282,315,314,0
302,285,312,312,0
300,292,311,311,0
300,297,310,311,0
299,297,308,310,0
300,297,306,310,0
302,299,305,309,0
304,306,305,308,0
305,314,307,308,0
307,324,308,307,0
309,334,309,307,0
311,338,309,306,0
311,340,308,306,0
310,340,304,305,0
308,339,299,303,0
304,337,294,302,0
302,334,292,302,0
301,331,292,303,0
300,327,294,305,0
298,321,296,307,0
295,312,296,309,0
293,300,297,311,0
292,288,297,314,0
292,281,298,316,0
294,281,300,318,0
299,286,303,320,0
303,291,305,321,0
306,291,306,321,0
305,287,306,319,0
304,281,307,318,0
302,276,309,316,0
300,268,311,316,0
300,258,314,317,0
301,255,317,318,0
302,263,317,318,0
301,276,315,316,0
299,287,311,313,0
297,295,308,310,0
298,299,304,309,0
300,301,303,310,0
303,304,302,311,0
306,308,302,312,0
306,311,302,312,0
306,310,302,312,0
304,307,303,311,0
302,307,304,310,0
299,312,306,308,0
299,322,308,309,0
301,333,311,311,0
305,338,314,314,0
308,334,315,316,0
311,324,317,318,0
313,315,319,318,0
316,314,320,318,0
320,319,321,317,0
321,321,320,315,0
318,313,317,313,0
311,296,313,311,0
305,278,310,308,0
301,268,307,307,0
300,267,305,306,0
300,276,303,305,0
301,289,302,306,0
302,300,301,306,0
300,307,300,305,0
297,307,298,304,0
295,305,297,303,0
295,306,296,304,0
297,312,297,306,0
300,318,300,308,0
303,323,304,310,0
305,327,309,311,0
306,328,312,310,0
307,328,314,308,0
308,328,315,306,0
308,326,314,304,0
309,328,315,304,0
312,335,317,305,0
316,342,319,307,0
319,346,320,309,0
320,350,319,311,0
318,352,318,312,0
314,353,318,313,0
308,347,316,314,0
302,332,314,313,0
296,313,310,311,0
293,291,307,311,0
292,270,305,312,0
292,256,305,313,0
293,249,306,315,0
295,249,307,317,0
298,254,310,317,0
301,260,311,318,0
304,271,311,316,0
304,283,309,314,0
301,291,307,311,0
298,294,303,309,0
297,296,300,307,0
296,296,299,306,0
295,298,300,306,0
297,300,302,307,0
299,298,305,307,0
300,295,305,309,0
301,295,304,309,0
301,301,303,308,0
302,314,302,307,0
304,331,303,306,0
306,348,303,305,0
307,362,304,303,0
307,369,304,301,0
306,368,303,300,0
306,361,301,300,0
307,352,301,301,0
307,343,301,302,0
306,335,301,302,0
303,328,302,302,0
300,324,303,302,0
299,324,305,302,0
299,325,308,302,0
300,326,310,303,0
300,322,310,303,0
300,315,308,302,0
301,311,305,302,0
303,312,304,302,0
304,313,302,301,0
302,308,301,299,0
299,300,300,298,0
297,296,301,299,0
295,298,303,301,0
297,303,305,304,0
299,308,307,306,0
301,307,308,308,0
302,300,307,308,0
302,292,306,307,0
302,287,304,306,0
301,286,303,305,0
301,291,303,304,0
302,302,303,305,0
303,315,303,306,0
304,327,303,307,0
304,330,303,306,0
304,324,302,304,0
303,317,301,302,0
304,313,301,301,0
304,314,300,302,0
304,314,300,305,0
304,309,302,309,0
302,299,304,311,0
299,288,306,311,0
297,279,307,312,0
295,272,310,312,0
295,265,312,312,0
298,261,313,311,0
300,262,311,308,0
300,265,309,305,0
299,264,308,303,0
298,261,308,304,0
299,257,311,307,0
299,251,314,312,0
299,251,317,316,0
300,261,318,319,0
300,279,317,320,0
301,301,315,319,0
301,321,311,317,0
303,337,307,314,0
304,351,304,311,0
306,359,303,309,0
305,362,302,307,0
305,360,302,306,0
305,355,302,306,0
307,348,304,307,0
307,341,306,307,0
307,331,309,308,0
307,320,312,309,0
306,312,314,309,0
305,308,314,308,0
304,308,312,307,0
303,310,310,306,0
303,312,307,304,0
303,314,304,303,0
304,316,303,304,0
305,316,304,306,0
306,311,306,309,0
306,307,306,310,0
304,309,306,310,0
301,313,305,309,0
298,314,304,308,0
296,314,304,307,0
295,312,304,306,0
294,305,306,305,0
295,299,306,304,0
297,298,307,303,0
300,299,308,303,0
302,299,309,303,0
303,298,309,304,0
304,297,307,303,0
303,295,306,301,0
304,287,304,300,0
304,273,302,301,0
305,255,302,302,0
305,239,304,305,0
304,230,307,309,0
303,234,310,312,0
302,252,311,313,0
302,280,313,313,0
305,314,314,312,0
309,341,314,310,0
312,356,312,307,0
314,361,311,305,0
316,359,310,304,0
315,352,309,303,0
311,344,306,301,0
305,336,304,299,0
301,331,302,299,0
299,328,302,298,0
299,325,302,298,0
300,326,303,298,0
303,328,304,300,0
306,335,307,302,0
310,344,311,304,0
312,351,313,305,0
311,354,313,305,0
309,350,311,305,0
305,342,309,306,0
302,329,307,308,0
300,317,306,309,0
299,308,305,310,0
298,301,304,310,0
297,296,303,308,0
295,292,303,306,0
294,291,304,305,0
294,291,305,303,0
293,292,307,302,0
295,290,309,302,0
299,287,311,302,0
302,285,312,301,0
305,285,312,300,0
307,290,310,299,0
307,293,306,297,0
307,290,302,295,0
306,282,300,294,0
308,277,300,294,0
311,274,301,295,0
314,274,303,294,0
315,281,303,294,0
311,296,302,291,0
304,309,299,289,0
297,321,297,288,0
292,332,298,288,0
292,342,302,291,0
293,350,306,294,0
295,355,308,296,0
296,355,309,299,0
297,350,310,302,0
297,342,311,305,0
298,335,311,308,0
300,326,312,310,0
301,314,312,312,0
302,303,310,313,0
301,293,309,314,0
300,287,309,314,0
300,286,309,315,0
300,290,310,314,0
300,293,310,314,0
299,288,310,313,0
297,279,310,311,0
295,272,309,310,0
295,270,310,308,0
296,273,310,308,0
298,282,310,309,0
301,293,309,309,0
304,303,308,310,0
307,309,308,310,0
310,313,308,310,0
312,315,309,310,0
311,312,310,309,0
308,305,309,308,0
305,298,309,308,0
303,294,310,309,0
304,293,311,310,0
309,298,313,313,0
314,306,314,315,0
317,313,313,315,0
316,319,311,314,0
312,326,308,313,0
307,335,306,313,0
302,343,305,312,0
301,346,304,312,0
302,341,305,312,0
304,331,307,312,0
304,320,308,311,0
304,309,308,310,0
301,301,307,308,0
299,293,306,306,0
299,286,306,305,0
299,280,307,304,0
300,278,308,304,0
300,278,308,304,0
299,281,306,303,0
297,288,307,302,0
295,298,308,303,0
294,308,309,304,0
293,315,310,305,0
293,317,311,305,0
294,315,312,306,0
296,314,312,307,0
300,314,314,308,0
304,312,317,309,0
308,310,319,308,0
311,312,322,307,0
313,318,322,307,0
314,324,321,306,0
312,323,317,305,0
310,318,312,304,0
308,311,309,304,0
307,303,308,302,0
306,298,307,300,0
304,298,305,299,0
302,302,304,299,0
301,305,302,299,0
299,307,302,301,0
299,306,303,303,0
299,303,305,305,0
299,298,306,306,0
300,290,307,307,0
302,279,308,308,0
303,272,308,306,0
304,275,307,304,0
306,288,305,300,0
308,309,304,297,0
310,327,304,295,0
309,334,303,293,0
307,332,303,291,0
306,329,303,290,0
307,331,302,289,0
309,338,301,289,0
310,346,300,290,0
310,348,300,292,0
307,344,299,294,0
305,338,300,295,0
303,334,302,296,0
302,332,304,299,0
302,332,306,303,0
304,329,306,307,0
302,321,306,309,0
301,317,306,311,0
299,316,305,313,0
299,318,305,314,0
299,319,306,314,0
301,318,306,314,0
304,316,307,313,0
305,314,307,312,0
306,310,307,311,0
305,306,307,311,0
304,303,307,310,0
306,302,307,311,0
308,306,306,311,0
308,310,304,311,0
306,309,300,311,0
304,306,296,311,0
304,302,293,312,0
304,297,289,312,0
305,294,287,312,0
305,290,287,312,0
304,288,287,312,0
304,287,289,312,0
305,286,292,312,0
306,283,294,312,0
306,281,297,312,0
306,275,301,313,0
304,268,305,313,0
303,262,309,313,0
303,259,311,314,0
304,258,313,313,0
305,261,314,312,0
305,263,313,311,0
305,265,313,309,0
305,273,311,307,0
309,289,311,307,0
313,306,311,307,0
315,317,310,306,0
313,320,309,304,0
311,321,306,302,0
308,323,303,300,0
305,328,301,298,0
304,334,300,297,0
303,339,298,296,0
303,340,297,298,0
303,339,296,300,0
304,338,297,304,0
306,339,300,308,0
308,337,304,312,0
310,333,306,314,0
310,328,308,315,0
308,324,308,315,0
307,319,307,315,0
307,313,308,314,0
309,310,310,313,0
311,310,311,311,0
312,310,313,310,0
313,305,313,309,0
311,293,312,308,0
306,275,309,307,0
300,261,308,306,0
297,256,307,305,0
296,262,307,306,0
296,274,307,306,0
297,288,306,305,0
297,301,305,304,0
297,312,304,302,0
296,319,303,299,0
296,323,301,297,0
297,324,300,295,0
299,321,300,296,0
300,315,300,298,0
300,308,300,298,0
299,302,300,299,0
299,297,302,301,0
300,296,303,303,0
300,295,306,305,0
300,295,308,308,0
301,298,311,311,0
304,301,313,314,0
305,300,314,315,0
303,288,313,315,0
300,275,311,314,0
296,267,309,312,0
294,264,307,311,0
293,264,304,310,0
294,264,302,310,0
296,262,301,311,0
298,264,302,312,0
300,269,304,313,0
301,274,304,313,0
303,285,303,311,0
306,307,302,311,0
309,333,302,310,0
310,355,301,308,0
310,366,300,305,0
308,363,298,303,0
307,354,297,302,0
305,341,298,301,0
304,329,300,303,0
303,318,302,306,0
303,308,305,308,0
305,302,306,309,0
307,303,307,310,0
310,310,307,312,0
314,320,306,313,0
315,326,305,314,0
315,328,304,315,0
311,325,304,317,0
306,317,303,317,0
302,308,303,317,0
298,301,304,316,0
297,298,304,315,0
297,296,305,313,0
296,294,306,311,0
294,292,307,309,0
292,288,306,308,0
292,285,307,307,0
295,288,307,307,0
298,300,308,307,0
300,316,309,306,0
300,327,309,306,0
298,329,309,306,0
296,326,309,307,0
295,319,310,309,0
295,309,310,311,0
296,300,310,311,0
296,296,308,311,0
296,294,307,310,0
297,293,305,309,0
298,294,305,309,0
299,298,304,308,0
300,303,302,306,0
301,307,300,304,0
300,310,297,302,0
299,312,295,301,0
298,314,295,303,0
296,313,297,304,0
295,306,299,304,0
293,294,300,304,0
294,285,301,305,0
297,285,302,306,0
303,290,303,306,0
308,290,303,305,0
311,289,303,303,0
312,286,305,301,0
312,287,307,301,0
311,294,308,301,0
308,304,306,301,0
304,311,305,304,0
301,316,305,308,0
300,322,307,312,0
302,328,311,316,0
305,329,314,319,0
309,326,315,320,0
309,322,315,319,0
306,319,313,316,0
303,319,309,313,0
302,321,306,310,0
303,325,304,309,0
305,329,303,308,0
306,330,303,307,0
307,329,302,306,0
307,326,302,305,0
306,323,303,304,0
305,319,305,304,0
304,317,306,304,0
302,316,308,305,0
299,316,308,305,0
297,316,308,306,0
296,316,309,306,0
296,315,309,305,0
295,312,309,304,0
295,307,310,305,0
297,301,311,306,0
300,295,313,308,0
302,287,314,310,0
301,280,314,312,0
300,277,313,313,0
300,283,312,313,0
301,299,309,312,0
302,319,306,311,0
303,336,305,309,0
302,346,304,308,0
299,348,304,306,0
296,342,302,304,0
294,335,300,303,0
295,328,299,303,0
298,324,298,304,0
303,323,299,306,0
309,328,299,308,0
314,330,299,309,0
316,324,299,308,0
315,309,297,306,0
309,285,295,303,0
303,260,293,302,0
299,247,293,302,0
298,250,295,303,0
298,265,299,304,0
298,281,301,305,0
297,294,301,305,0
295,305,300,306,0
294,314,300,307,0
295,319,301,308,0
298,325,303,309,0
302,331,304,310,0
308,335,306,310,0
313,334,307,311,0
314,327,308,311,0
310,313,309,311,0
305,297,310,312,0
302,286,312,313,0
300,276,316,314,0
299,267,318,314,0
298,263,317,312,0
298,269,315,309,0
299,282,315,307,0
302,297,314,304,0
303,311,313,300,0
304,323,310,297,0
301,330,306,296,0
299,332,302,296,0
297,332,299,297,0
296,332,299,297,0
295,331,299,297,0
294,327,300,297,0
295,319,300,297,0
298,312,302,299,0
304,310,305,302,0
310,313,306,304,0
314,317,306,304,0
315,319,303,304,0
313,318,299,304,0
310,312,296,304,0
309,305,295,304,0
310,301,296,306,0
312,299,298,306,0
315,303,302,307,0
315,308,306,309,0
314,313,309,310,0
313,316,311,311,0
312,318,311,312,0
311,320,313,314,0
311,322,315,314,0
311,322,317,314,0
311,319,319,314,0
311,313,320,314,0
310,304,319,313,0
308,296,316,310,0
305,291,312,306,0
301,288,307,301,0
297,279,303,297,0
294,266,298,294,0
292,256,296,293,0
293,250,295,295,0
296,250,294,297,0
300,258,296,300,0
303,270,297,302,0
304,281,297,303,0
303,286,297,303,0
301,286,296,302,0
302,284,297,303,0
304,282,299,305,0
308,285,301,309,0
310,292,303,311,0
310,305,304,313,0
308,322,304,314,0
305,338,302,313,0
301,348,300,312,0
297,348,299,312,0
296,340,298,312,0
296,332,299,313,0
297,326,301,313,0
298,323,303,314,0
300,324,304,314,0
302,328,306,314,0
304,330,307,315,0
307,333,309,316,0
308,334,310,315,0
309,331,310,314,0
309,326,309,314,0
309,322,309,314,0
308,316,309,313,0
305,305,308,313,0
302,288,307,313,0
300,267,308,313,0
299,246,306,314,0
300,230,303,313,0
301,223,300,312,0
301,224,297,311,0
301,234,296,312,0
303,253,296,313,0
306,278,295,312,0
308,304,292,311,0
310,328,289,309,0
312,347,289,308,0
312,350,290,308,0
312,338,292,307,0
312,322,296,306,0
314,314,301,307,0
318,314,305,308,0
319,317,308,308,0
316,317,308,307,0
310,317,308,305,0
305,317,309,304,0
303,320,311,304,0
302,327,314,305,0
301,337,316,305,0
301,342,317,304,0
299,338,316,303,0
298,330,314,302,0
297,321,313,302,0
297,315,311,302,0
298,312,310,303,0
299,310,310,304,0
302,310,311,306,0
306,311,312,308,0
310,312,313,310,0
312,311,314,310,0
312,308,314,310,0
309,308,313,308,0
306,304,312,307,0
304,297,310,306,0
302,288,309,306,0
300,282,308,306,0
299,282,309,307,0
300,283,309,309,0
299,282,308,310,0
298,273,308,312,0
295,256,306,312,0
292,237,303,311,0
292,231,302,310,0
296,244,304,311,0
301,265,306,313,0
304,287,307,312,0
304,301,306,309,0
303,305,304,303,0
303,305,303,298,0
304,310,304,292,0
307,321,306,290,0
312,336,307,288,0
314,351,308,288,0
313,362,307,289,0
308,367,305,291,0
304,367,303,293,0
302,364,303,296,0
303,360,306,300,0
305,357,310,303,0
307,357,313,305,0
308,358,315,307,0
307,356,315,308,0
306,354,314,309,0
306,351,313,311,0
306,345,312,312,0
307,335,312,313,0
307,323,312,313,0
306,314,311,313,0
305,307,310,313,0
303,304,308,312,0
301,302,307,312,0
300,301,306,311,0
299,301,305,311,0
299,301,305,310,0
299,301,305,310,0
299,301,306,308,0
300,300,307,308,0
301,301,307,306,0
301,300,305,303,0
303,298,302,302,0
306,295,300,303,0
309,286,300,306,0
312,274,302,310,0
316,261,303,314,0
318,252,306,319,0
319,249,309,322,0
319,253,311,325,0
317,261,312,327,0
314,271,313,327,0
310,276,313,325,0
306,280,313,322,0
304,286,314,321,0
304,294,317,320,0
304,310,321,320,0
305,326,325,320,0
305,328,326,319,0
303,319,324,317,0
300,309,321,314,0
298,307,316,311,0
298,317,312,307,0
298,334,310,304,0
298,350,308,301,0
298,354,307,299,0
299,349,306,299,0
299,335,306,300,0
298,318,306,303,0
298,301,306,305,0
298,291,304,306,0
298,288,303,306,0
299,292,300,306,0
300,298,297,306,0
301,304,295,305,0
302,309,295,304,0
303,314,295,305,0
304,319,297,305,0
306,323,300,305,0
308,326,303,307,0
310,328,306,308,0
312,329,308,310,0
312,328,308,311,0
311,325,308,312,0
309,323,306,312,0
307,323,306,311,0
304,322,305,310,0
301,318,305,309,0
298,307,305,308,0
296,287,305,309,0
294,261,306,311,0
292,234,309,313,0
290,209,313,315,0
290,196,318,317,0
292,199,323,318,0
294,216,323,314,0
295,242,321,308,0
297,272,319,303,0
301,304,317,301,0
305,332,314,300,0
307,349,312,301,0
308,356,310,302,0
308,358,308,303,0
307,355,307,302,0
307,349,306,301,0
306,344,306,301,0
306,342,306,302,0
305,340,306,304,0
305,340,304,306,0
305,338,303,308,0
306,335,301,311,0
307,330,300,314,0
310,326,300,316,0
313,325,302,317,0
316,325,306,317,0
317,327,309,316,0
316,328,312,315,0
314,329,314,314,0
312,328,314,313,0
310,322,312,313,0
306,315,310,312,0
303,308,308,311,0
301,305,305,310,0
301,306,303,308,0
302,309,301,308,0
303,314,300,307,0
304,313,299,306,0
302,298,297,305,0
300,278,297,306,0
299,263,301,308,0
302,262,305,311,0
303,271,309,312,0
303,285,310,312,0
302,298,310,310,0
301,308,310,309,0
300,314,311,308,0
300,315,310,307,0
301,312,310,306,0
302,311,310,306,0
304,310,311,306,0
308,311,313,306,0
311,313,316,306,0
314,312,318,307,0
315,309,318,308,0
313,307,317,308,0
310,306,316,308,0
307,308,316,308,0
306,312,318,309,0
307,315,319,310,0
308,314,318,310,0
307,309,318,309,0
305,304,316,308,0
303,299,315,306,0
301,296,314,304,0
299,295,314,304,0
299,293,314,303,0
301,289,312,303,0
303,287,310,304,0
307,291,307,304,0
309,298,305,306,0
310,300,303,307,0
309,295,302,308,0
306,287,301,309,0
303,281,301,309,0
303,282,300,308,0
304,291,302,308,0
308,305,303,308,0
310,316,305,307,0
311,321,305,306,0
310,322,306,306,0
309,317,308,306,0
308,312,312,308,0
308,305,314,309,0
307,295,314,310,0
305,289,314,309,0
304,288,312,309,0
304,286,311,310,0
303,279,309,310,0
302,270,309,311,0
303,265,310,313,0
305,272,311,313,0
309,289,312,313,0
312,305,311,312,0
312,317,309,309,0
311,328,305,305,0
310,337,302,301,0
308,342,299,298,0
306,342,298,295,0
304,338,299,294,0
304,333,301,295,0
306,329,302,299,0
307,327,303,304,0
306,324,303,308,0
305,321,304,312,0
305,319,307,315,0
305,319,310,318,0
305,321,312,319,0
304,326,312,318,0
304,332,312,317,0
306,336,312,315,0
308,340,313,313,0
308,343,313,311,0
305,342,312,309,0
300,336,310,306,0
297,330,308,306,0
297,324,306,306,0
297,317,305,306,0
298,308,304,308,0
298,299,303,309,0
298,289,303,310,0
298,285,305,311,0
300,290,307,312,0
304,302,310,314,0
308,312,311,314,0
309,317,310,314,0
307,315,308,312,0
303,312,305,310,0
300,310,302,307,0
297,309,299,306,0
296,311,298,304,0
296,310,296,304,0
296,305,295,304,0
296,299,293,304,0
297,293,294,305,0
299,287,295,307,0
299,276,299,309,0
298,260,303,310,0
297,243,306,310,0
295,232,308,310,0
296,233,311,311,0
300,246,314,311,0
306,267,316,312,0
312,288,317,312,0
315,305,318,312,0
316,317,318,311,0
314,320,317,310,0
311,317,316,310,0
308,314,314,310,0
307,312,313,309,0
305,315,312,309,0
305,323,310,308,0
305,332,310,308,0
305,334,309,309,0
303,332,310,309,0
301,329,309,309,0
299,330,307,307,0
298,333,304,305,0
298,336,301,304,0
297,335,297,302,0
298,331,295,300,0
299,327,296,298,0
301,323,298,298,0
303,318,301,298,0
305,315,303,299,0
307,314,305,300,0
309,313,306,301,0
307,306,306,302,0
304,297,306,302,0
302,288,308,303,0
301,279,310,304,0
302,275,312,306,0
303,274,313,306,0
304,277,312,306,0
305,285,311,305,0
305,294,308,303,0
306,304,306,302,0
307,313,303,300,0
307,318,302,299,0
307,319,302,298,0
307,320,303,298,0
306,321,305,298,0
305,321,306,298,0
304,319,308,297,0
303,317,309,296,0
303,314,309,296,0
302,313,309,297,0
302,313,309,298,0
303,314,309,299,0
303,316,308,300,0
304,317,307,302,0
306,317,307,303,0
307,314,306,302,0
308,306,306,301,0
306,299,304,299,0
304,294,303,297,0
302,291,304,297,0
300,294,305,296,0
300,300,307,296,0
301,304,308,296,0
303,308,308,297,0
305,313,309,297,0
306,317,308,297,0
303,318,306,295,0
299,317,305,296,0
298,317,307,300,0
299,319,309,306,0
301,324,313,311,0
303,328,314,315,0
303,326,314,318,0
302,316,312,319,0
299,303,309,317,0
296,291,306,316,0
294,282,306,316,0
293,274,306,317,0
294,273,306,317,0
295,284,304,316,0
295,304,302,314,0
296,323,300,311,0
297,335,300,309,0
299,342,301,308,0
300,343,302,308,0
302,343,304,308,0
301,342,303,306,0
298,336,301,304,0
295,327,300,303,0
292,316,301,303,0
290,303,302,302,0
288,290,301,300,0
287,281,300,300,0
289,278,301,300,0
292,278,302,301,0
297,280,306,304,0
302,284,308,305,0
305,293,310,306,0
307,304,311,307,0
309,318,311,308,0
311,329,311,309,0
311,334,310,309,0
311,333,308,308,0
310,329,305,308,0
310,326,303,308,0
311,322,302,308,0
314,316,301,308,0
314,307,301,309,0
312,295,301,308,0
307,285,301,307,0
301,283,302,308,0
297,289,304,309,0
295,299,307,310,0
294,308,308,310,0
292,313,309,309,0
290,308,309,309,0
290,299,309,311,0
292,291,310,313,0
296,288,312,317,0
302,291,314,319,0
307,296,315,320,0
310,302,315,318,0
311,308,313,315,0
310,315,312,313,0
309,322,310,312,0
309,325,309,310,0
309,325,309,310,0
307,320,308,309,0
305,313,307,308,0
302,304,307,308,0
299,296,307,307,0
297,288,305,308,0
297,282,304,308,0
299,279,304,310,0
303,281,304,311,0
307,291,304,311,0
309,305,305,309,0
311,317,304,307,0
310,321,302,305,0
309,317,300,302,0
307,313,299,301,0
307,313,300,302,0
308,321,304,303,0
309,331,306,304,0
310,336,308,305,0
309,332,309,305,0
307,325,309,304,0
305,319,307,303,0
305,317,306,301,0
305,314,305,299,0
305,306,304,297,0
306,291,303,296,0
306,274,302,296,0
305,264,303,298,0
304,268,305,300,0
304,285,307,302,0
305,306,308,304,0
305,323,308,304,0
304,331,305,303,0
304,335,302,302,0
304,337,301,302,0
305,339,301,303,0
304,336,301,304,0
302,327,300,304,0
299,314,299,304,0
297,301,299,305,0
298,291,300,305,0
302,288,302,307,0
307,293,303,309,0
311,303,302,310,0
312,314,302,310,0
313,321,302,310,0
312,324,302,311,0
310,323,302,312,0
307,318,302,314,0
304,310,305,317,0
303,301,308,318,0
302,294,310,317,0
301,288,310,315,0
300,281,309,313,0
299,277,308,312,0
298,276,307,311,0
298,275,307,310,0
299,277,307,310,0
301,281,307,312,0
304,286,308,314,0
305,289,307,315,0
302,290,304,314,0
300,291,302,313,0
299,294,301,312,0
300,297,301,312,0
301,300,302,311,0
302,305,304,312,0
303,311,306,313,0
302,317,307,313,0
300,325,308,312,0
298,336,309,311,0
297,344,309,309,0
296,344,308,307,0
296,336,306,305,0
298,323,304,302,0
299,311,302,300,0
300,305,299,299,0
301,304,297,300,0
303,305,297,302,0
303,304,297,303,0
302,297,297,304,0
300,288,299,306,0
298,278,302,308,0
297,272,307,310,0
297,272,311,310,0
298,280,314,310,0
301,288,316,310,0
304,291,316,310,0
306,291,316,309,0
306,288,316,309,0
306,285,316,309,0
306,286,316,308,0
305,292,316,306,0
305,300,315,305,0
306,310,315,305,0
309,318,315,305,0
311,322,315,306,0
313,322,315,308,0
313,317,314,309,0
311,309,313,310,0
308,301,312,311,0
307,297,311,312,0
306,297,310,313,0
305,302,308,312,0
304,310,306,311,0
304,320,305,310,0
305,328,307,310,0
307,334,309,310,0
309,337,310,309,0
309,335,311,308,0
307,326,311,308,0
306,313,310,309,0
307,300,311,310,0
309,291,312,311,0
311,288,313,311,0
310,289,312,312,0
309,296,310,311,0
308,310,308,311,0
309,326,306,311,0
311,344,306,312,0
315,364,308,313,0
317,374,310,313,0
318,367,310,311,0
314,348,309,309,0
309,328,307,307,0
303,314,305,306,0
299,307,304,304,0
297,306,303,303,0
295,305,303,301,0
293,301,302,298,0
292,294,301,297,0
293,286,301,297,0
294,281,301,298,0
295,276,301,299,0
296,268,301,300,0
297,262,301,302,0
298,260,302,304,0
300,263,305,306,0
303,271,307,307,0
306,283,309,308,0
308,296,311,307,0
312,307,312,306,0
314,315,311,305,0
316,319,308,304,0
315,318,304,301,0
312,312,300,298,0
307,303,297,296,0
303,295,296,293,0
301,286,294,291,0
300,275,294,290,0
300,265,294,292,0
301,256,296,295,0
303,252,299,299,0
306,255,302,303,0
308,263,303,306,0
309,279,302,307,0
309,299,301,307,0
308,319,300,307,0
307,333,300,306,0
305,339,299,304,0
304,340,298,302,0
304,337,297,301,0
306,334,297,302,0
312,334,298,305,0
318,334,301,307,0
321,334,305,308,0
320,330,307,308,0
317,323,307,307,0
314,317,306,307,0
312,315,306,308,0
311,319,306,310,0
309,322,307,311,0
307,318,308,313,0
306,314,310,315,0
307,312,313,317,0
309,315,314,318,0
311,321,314,317,0
312,328,312,316,0
311,334,309,313,0
309,333,305,310,0
307,332,304,309,0
305,332,304,310,0
304,332,304,311,0
302,337,304,312,0
301,344,304,313,0
300,347,303,313,0
299,340,302,312,0
298,325,301,310,0
297,308,301,309,0
299,295,301,309,0
302,286,301,308,0
304,280,300,308,0
306,274,299,308,0
308,267,297,309,0
307,256,297,309,0
307,243,297,310,0
307,236,299,311,0
305,239,302,312,0
304,248,305,313,0
304,263,309,314,0
305,283,312,314,0
306,301,315,313,0
309,314,315,312,0
311,319,313,310,0
312,318,312,309,0
311,315,311,308,0
310,313,311,308,0
311,314,311,307,0
312,318,311,307,0
314,323,311,306,0
314,325,309,304,0
313,325,309,303,0
312,326,309,303,0
310,326,308,303,0
307,326,307,303,0
304,325,306,303,0
301,323,304,304,0
299,321,303,304,0
298,320,301,305,0
297,319,301,306,0
298,316,303,307,0
298,307,305,309,0
298,294,305,310,0
298,282,306,310,0
297,276,306,311,0
296,272,306,312,0
295,270,306,313,0
295,267,306,314,0
297,270,307,314,0
301,274,310,314,0
305,283,311,315,0
309,296,311,314,0
312,313,310,313,0
315,328,308,311,0
317,334,306,308,0
318,330,303,304,0
316,322,300,301,0
315,315,298,300,0
314,307,299,301,0
313,298,300,303,0
312,295,302,305,0
310,302,304,308,0
310,314,306,308,0
310,324,306,307,0
309,329,306,306,0
308,328,306,306,0
307,327,307,306,0
305,327,307,306,0
303,327,307,306,0
303,325,307,306,0
303,324,307,305,0
305,327,307,304,0
306,332,306,303,0
307,334,305,304,0
307,331,306,305,0
307,324,305,306,0
304,312,304,305,0
301,297,302,304,0
298,279,299,303,0
296,266,298,303,0
296,260,299,305,0
297,262,301,307,0
299,270,304,309,0
302,284,307,311,0
306,300,309,313,0
309,315,310,313,0
312,323,311,313,0
314,323,311,313,0
314,313,311,313,0
313,296,311,313,0
311,280,311,314,0
309,274,311,313,0
308,277,308,312,0
308,285,305,312,0
309,292,303,312,0
310,297,303,313,0
312,302,304,314,0
313,310,306,314,0
315,318,307,313,0
316,322,307,312,0
315,318,306,312,0
313,309,307,311,0
312,304,308,312,0
311,305,310,313,0
311,311,312,314,0
312,316,314,314,0
312,317,315,313,0
312,317,316,311,0
310,318,316,309,0
308,321,316,307,0
307,325,316,305,0
307,326,314,303,0
307,323,312,302,0
308,320,310,301,0
309,317,310,301,0
309,314,311,303,0
309,312,313,305,0
307,309,314,305,0
304,305,313,304,0
300,303,311,303,0
297,304,308,301,0
295,303,305,301,0
295,296,303,302,0
296,290,301,303,0
298,289,300,303,0
300,293,299,303,0
303,298,299,303,0
306,304,299,304,0
308,308,300,304,0
311,311,300,304,0
313,314,301,305,0
315,317,302,305,0
316,318,303,306,0
315,316,304,306,0
314,313,305,307,0
312,309,306,308,0
311,305,308,310,0
309,300,309,310,0
307,296,309,309,0
305,294,309,308,0
305,299,309,307,0
306,308,310,307,0
309,317,311,306,0
310,326,311,305,0
312,333,312,305,0
312,335,312,304,0
312,334,310,303,0
310,329,308,301,0
308,323,306,300,0
305,316,304,300,0
303,306,303,300,0
301,298,304,300,0
299,293,304,301,0
299,295,303,302,0
300,302,303,304,0
302,308,303,307,0
305,312,304,309,0
307,314,304,310,0
308,314,304,310,0
307,309,304,310,0
305,299,306,311,0
303,288,307,312,0
300,276,309,312,0
299,266,312,314,0
298,260,314,315,0
299,259,317,315,0
300,264,318,315,0
302,275,319,315,0
304,291,319,313,0
305,306,317,310,0
305,315,313,306,0
305,315,309,301,0
305,311,305,298,0
306,309,304,296,0
306,310,302,296,0
307,315,302,298,0
307,321,301,300,0
308,326,300,303,0
308,328,300,304,0
309,327,302,305,0
311,327,303,306,0
313,330,304,306,0
316,333,305,307,0
316,334,305,307,0
314,329,305,308,0
312,319,304,307,0
310,306,305,307,0
310,297,306,307,0
311,295,306,307,0
309,294,304,306,0
306,290,301,306,0
303,284,299,307,0
303,277,298,307,0
304,272,299,308,0
307,277,302,308,0
310,290,305,309,0
311,306,307,308,0
309,320,307,307,0
306,333,305,305,0
304,344,305,304,0
303,352,304,304,0
303,355,305,305,0
303,349,306,306,0
301,337,306,306,0
300,321,307,307,0
301,308,309,307,0
304,301,310,306,0
306,299,311,306,0
307,298,311,307,0
306,294,311,308,0
304,289,309,310,0
302,288,306,311,0
302,292,304,311,0
305,300,303,311,0
307,310,303,311,0
308,318,303,310,0
307,322,303,309,0
306,320,302,308,0
305,318,301,307,0
305,317,302,307,0
307,320,305,308,0
310,325,308,309,0
314,326,309,309,0
316,324,309,308,0
316,318,310,308,0
315,311,310,308,0
314,303,310,308,0
313,294,311,308,0
311,288,311,307,0
310,288,312,304,0
309,293,311,302,0
310,303,310,301,0
311,314,310,301,0
311,324,309,301,0
309,328,306,302,0
305,327,304,302,0
302,325,303,303,0
300,323,302,303,0
299,319,303,303,0
300,311,303,304,0
303,306,305,305,0
308,303,308,308,0
316,309,312,311,0
321,324,315,312,0
322,333,316,312,0
318,328,314,309,0
312,316,312,306,0
305,306,310,304,0
298,300,307,302,0
293,295,306,301,0
290,292,305,302,0
290,290,306,304,0
291,288,307,305,0
293,289,306,305,0
296,292,306,305,0
301,301,308,306,0
305,314,309,307,0
308,328,308,306,0
310,335,306,305,0
309,332,302,304,0
308,323,300,304,0
307,316,301,306,0
306,313,303,308,0
306,312,305,309,0
306,310,307,309,0
305,304,307,308,0
304,294,306,307,0
303,288,307,308,0
304,288,308,308,0
306,292,307,308,0
308,299,306,307,0
309,308,307,307,0
310,316,308,307,0
311,316,311,308,0
310,309,314,310,0
308,298,316,310,0
308,293,317,310,0
308,296,317,310,0
309,307,316,308,0
309,321,314,305,0
308,332,311,303,0
307,337,309,303,0
305,338,307,303,0
304,335,304,305,0
303,327,304,307,0
303,314,304,309,0
304,303,303,310,0
304,294,303,309,0
304,288,302,307,0
304,284,302,306,0
305,282,303,305,0
306,283,306,306,0
309,288,312,308,0
311,295,317,311,0
312,300,321,312,0
313,299,321,312,0
312,295,318,310,0
309,290,315,308,0
306,288,313,305,0
304,292,311,303,0
303,300,312,302,0
302,309,313,303,0
301,315,315,304,0
300,321,316,305,0
299,329,316,305,0
299,335,316,305,0
299,333,315,305,0
299,323,314,305,0
299,311,315,306,0
301,302,317,308,0
305,301,319,310,0
309,301,319,310,0
310,302,317,309,0
310,302,314,307,0
310,300,312,305,0
309,294,310,304,0
308,284,309,303,0
306,276,310,304,0
304,277,312,306,0
302,289,312,308,0
302,304,310,308,0
301,316,308,308,0
301,324,307,308,0
302,330,308,308,0
304,339,309,309,0
305,348,311,310,0
306,353,311,311,0
305,354,311,311,0
306,349,311,311,0
307,340,313,313,0
307,331,313,314,0
307,323,312,315,0
306,315,311,315,0
305,307,309,314,0
305,301,308,314,0
306,299,307,313,0
307,300,305,311,0
306,301,303,308,0
304,295,300,306,0
302,283,299,305,0
301,272,300,305,0
302,267,302,307,0
304,268,305,308,0
304,273,306,308,0
303,283,307,307,0
301,295,307,305,0
300,306,306,304,0
299,311,304,302,0
299,309,303,302,0
299,302,303,303,0
299,296,304,303,0
300,290,305,304,0
300,287,306,304,0
301,289,306,305,0
304,295,307,306,0
305,304,307,306,0
305,317,305,304,0
303,328,302,302,0
300,334,299,299,0
299,334,298,297,0
300,331,299,296,0
302,329,299,296,0
304,330,300,296,0
305,333,300,298,0
306,339,300,301,0
307,342,300,306,0
308,342,301,309,0
310,342,302,313,0
310,336,303,315,0
309,323,306,316,0
308,310,308,316,0
307,301,310,316,0
307,295,311,315,0
307,294,310,314,0
306,297,310,312,0
305,301,311,311,0
303,306,313,310,0
302,310,313,309,0
301,312,313,309,0
301,311,312,309,0
301,308,310,310,0
301,306,308,310,0
301,304,307,311,0
301,300,307,312,0
304,297,309,313,0
308,301,312,314,0
312,309,314,313,0
314,314,315,312,0
314,311,315,311,0
309,300,314,311,0
304,283,313,312,0
297,264,311,313,0
294,253,311,315,0
294,254,310,317,0
296,267,310,317,0
299,289,309,315,0
302,308,309,312,0
303,324,307,309,0
305,337,307,308,0
308,345,306,307,0
310,345,305,306,0
312,337,305,307,0
312,323,308,308,0
311,306,311,310,0
309,292,314,311,0
308,287,317,313,0
307,284,316,313,0
306,280,314,313,0
305,278,312,312,0
304,278,311,312,0
304,280,309,311,0
303,287,307,310,0
302,298,304,308,0
301,312,301,306,0
299,325,300,304,0
298,335,299,304,0
298,343,299,303,0
297,346,300,303,0
296,346,299,303,0
294,345,299,301,0
294,344,300,302,0
295,342,301,303,0
297,339,303,304,0
299,337,305,306,0
301,332,306,307,0
304,321,308,308,0
307,308,309,309,0
310,297,312,309,0
312,292,315,308,0
314,295,315,307,0
314,298,313,304,0
314,300,310,302,0
314,300,308,301,0
313,298,306,300,0
311,287,304,299,0
307,267,302,298,0
304,251,301,299,0
304,245,302,302,0
307,251,304,305,0
309,267,305,306,0
310,289,304,305,0
308,309,303,305,0
307,325,304,306,0
306,337,307,307,0
304,343,309,308,0
301,344,310,309,0
299,342,310,310,0
299,340,309,310,0
301,338,309,312,0
303,335,308,312,0
305,330,307,313,0
306,325,305,312,0
304,318,305,311,0
302,312,305,310,0
300,308,306,309,0
299,305,307,309,0
300,302,307,308,0
300,299,305,307,0
299,296,304,307,0
300,294,303,307,0
299,293,304,308,0
299,291,306,310,0
299,288,308,312,0
300,284,310,314,0
301,276,312,315,0
303,266,314,317,0
306,258,317,319,0
309,260,320,321,0
313,269,323,324,0
317,280,327,325,0
318,288,327,324,0
315,292,323,320,0
311,287,318,315,0
307,279,310,310,0
305,277,305,307,0
305,287,302,307,0
306,302,300,307,0
305,318,300,306,0
302,330,298,304,0
297,337,296,303,0
292,337,295,302,0
290,335,296,302,0
290,332,297,303,0
293,330,299,305,0
297,326,301,306,0
302,320,301,308,0
304,312,302,309,0
305,301,303,311,0
305,292,302,312,0
304,290,303,312,0
304,293,302,312,0
304,297,301,311,0
302,301,300,309,0
302,304,300,308,0
302,308,301,308,0
303,313,303,310,0
304,319,305,311,0
305,322,308,313,0
306,322,310,314,0
306,317,312,315,0
305,310,312,315,0
303,301,309,315,0
301,290,305,315,0
298,278,303,314,0
297,269,302,315,0
299,268,304,318,0
303,275,308,322,0
307,285,312,325,0
312,294,314,326,0
315,299,315,326,0
316,301,314,324,0
314,300,312,320,0
311,300,309,317,0
309,307,307,313,0
308,318,305,311,0
307,329,303,309,0
306,339,303,308,0
306,343,303,307,0
307,341,304,307,0
308,337,305,307,0
309,330,305,308,0
309,323,306,307,0
309,320,307,307,0
308,318,306,307,0
308,318,305,308,0
308,320,304,307,0
307,322,303,306,0
306,320,300,305,0
304,314,298,304,0
303,306,297,303,0
303,293,297,302,0
303,279,297,300,0
304,271,298,299,0
307,273,301,301,0
310,282,303,304,0
310,290,304,307,0
309,297,303,308,0
307,303,302,309,0
306,309,303,309,0
305,316,305,309,0
304,321,307,309,0
303,320,309,308,0
303,316,311,308,0
302,312,313,308,0
302,311,315,307,0
303,315,317,306,0
304,323,318,304,0
305,327,317,302,0
305,326,316,302,0
305,321,313,304,0
306,315,311,307,0
307,311,309,310,0
308,310,308,311,0
310,311,309,312,0
311,312,310,311,0
311,312,309,310,0
310,311,307,309,0
309,309,304,308,0
309,309,303,308,0
310,310,303,309,0
312,312,304,310,0
313,310,305,312,0
311,304,305,314,0
307,295,306,315,0
303,283,308,317,0
300,269,309,318,0
299,260,310,318,0
299,257,310,317,0
301,261,310,316,0
303,270,309,314,0
306,283,309,312,0
309,299,309,310,0
312,314,310,310,0
312,320,309,309,0
311,319,309,308,0
309,315,309,308,0
308,311,308,309,0
307,308,307,309,0
307,309,307,310,0
307,314,307,311,0
308,319,304,311,0
307,324,303,311,0
306,328,303,311,0
306,327,304,312,0
306,317,306,312,0
307,303,306,313,0
308,293,308,313,0
310,291,309,314,0
312,293,310,314,0
311,296,311,313,0
310,302,311,312,0
307,309,312,310,0
304,314,311,309,0
300,318,310,307,0
297,320,308,305,0
295,319,307,304,0
294,314,307,305,0
295,306,306,307,0
298,297,306,309,0
301,290,306,311,0
304,281,305,312,0
307,271,305,312,0
310,263,306,312,0
313,262,306,312,0
313,270,306,310,0
312,285,304,308,0
309,302,301,306,0
305,317,299,304,0
301,325,297,303,0
299,327,296,302,0
300,326,296,303,0
301,327,297,302,0
304,330,298,303,0
306,332,300,303,0
308,327,301,303,0
309,319,301,302,0
308,312,300,302,0
307,308,299,302,0
306,307,298,303,0
305,308,298,305,0
303,306,299,307,0
301,299,302,310,0
300,285,304,313,0
300,266,306,315,0
301,252,308,315,0
303,251,310,314,0
305,269,312,311,0
307,298,312,306,0
307,322,312,301,0
306,333,311,297,0
305,338,309,295,0
305,336,307,294,0
305,332,306,295,0
306,330,307,298,0
307,334,309,300,0
307,332,310,304,0
306,327,309,307,0
306,320,308,310,0
307,314,307,313,0
308,310,306,314,0
308,307,306,315,0
308,307,306,315,0
308,309,307,315,0
308,315,308,315,0
308,323,311,315,0
307,331,312,316,0
308,336,313,316,0
309,338,313,316,0
310,337,313,315,0
311,335,312,313,0
311,329,311,311,0
309,319,308,308,0
306,309,306,305,0
303,298,303,305,0
303,288,302,306,0
303,279,302,308,0
305,274,303,311,0
306,276,306,314,0
307,283,310,316,0
308,293,312,317,0
306,301,313,316,0
305,304,314,316,0
304,301,313,314,0
302,295,310,313,0
300,292,307,311,0
299,292,305,309,0
298,294,303,307,0
299,297,301,304,0
299,300,301,302,0
300,303,301,303,0
302,309,302,304,0
304,314,302,305,0
306,316,303,307,0
308,316,304,309,0
309,313,306,311,0
309,308,307,310,0
308,303,307,310,0
308,300,307,310,0
306,298,308,309,0
304,297,308,309,0
302,295,308,308,0
299,293,309,308,0
299,292,311,308,0
301,294,312,309,0
303,304,314,308,0
303,317,314,307,0
301,330,312,305,0
299,338,310,303,0
298,342,309,303,0
300,344,308,303,0
301,340,308,302,0
302,333,307,302,0
302,324,305,300,0
301,311,305,300,0
301,294,305,302,0
301,282,307,304,0
302,276,310,308,0
304,271,312,310,0
307,270,313,313,0
311,280,315,315,0
312,294,314,314,0
309,302,312,312,0
304,305,309,308,0
298,307,307,305,0
293,311,306,303,0
291,318,307,302,0
290,326,309,301,0
292,333,311,302,0
296,336,312,304,0
300,336,313,306,0
303,334,313,308,0
306,329,312,310,0
308,324,311,310,0
309,319,311,312,0
310,315,311,313,0
312,314,313,314,0
314,315,314,317,0
316,316,316,317,0
316,318,317,317,0
314,318,315,314,0
310,319,313,311,0
307,321,310,308,0
304,324,309,305,0
302,326,307,303,0
301,326,307,302,0
301,322,307,303,0
301,312,306,302,0
300,297,305,300,0
298,277,304,299,0
298,259,306,299,0
300,252,309,301,0
304,260,312,303,0
307,278,312,303,0
309,300,310,301,0
308,321,305,299,0
305,336,301,297,0
303,346,299,299,0
301,355,298,300,0
301,362,298,302,0
300,356,298,302,0
298,339,297,302,0
298,320,296,303,0
298,307,297,304,0
299,303,300,306,0
302,304,304,308,0
302,304,308,308,0
302,302,311,308,0
303,298,312,307,0
305,295,313,308,0
307,294,314,309,0
310,295,315,311,0
310,297,315,312,0
309,300,314,312,0
306,304,311,312,0
304,308,308,311,0
301,308,307,310,0
299,303,307,309,0
298,291,307,309,0
298,275,309,311,0
301,261,310,313,0
305,256,311,315,0
308,259,312,315,0
309,268,313,315,0
308,280,312,314,0
305,287,310,310,0
301,293,307,307,0
299,303,305,305,0
301,314,305,306,0
303,324,304,307,0
304,330,302,308,0
304,335,300,307,0
304,338,298,306,0
304,337,296,304,0
303,332,296,303,0
303,328,296,303,0
303,325,298,304,0
303,323,300,306,0
303,321,301,307,0
301,316,303,308,0
302,311,305,310,0
302,310,307,310,0
304,314,308,310,0
305,320,308,309,0
304,323,308,308,0
303,322,307,308,0
301,318,307,307,0
300,313,306,306,0
300,310,307,306,0
300,309,308,306,0
300,308,309,305,0
301,307,309,305,0
300,303,307,304,0
299,298,306,303,0
298,293,304,302,0
298,290,303,301,0
299,293,302,300,0
301,300,302,300,0
304,306,302,298,0
308,300,303,297,0
312,288,303,295,0
314,281,304,293,0
317,286,306,293,0
322,297,311,295,0
327,310,315,298,0
327,318,315,298,0
320,315,312,297,0
312,306,308,298,0
304,298,304,300,0
299,296,303,301,0
296,297,303,301,0
292,298,304,301,0
291,302,306,303,0
291,311,308,306,0
292,321,312,309,0
295,329,315,312,0
298,338,315,311,0
299,342,313,311,0
301,342,309,310,0
302,337,306,310,0
304,334,303,310,0
305,331,301,310,0
305,328,300,309,0
305,327,300,309,0
305,327,301,309,0
305,326,302,309,0
305,325,303,310,0
305,323,303,310,0
305,320,304,311,0
305,316,304,313,0
305,312,304,313,0
306,308,305,314,0
307,305,306,314,0
309,303,306,315,0
310,302,308,316,0
311,301,309,317,0
313,301,310,318,0
313,302,311,319,0
314,303,313,320,0
314,305,314,320,0
315,305,313,320,0
316,302,310,319,0
318,297,306,318,0
318,295,303,317,0
317,287,301,316,0
314,273,298,315,0
311,260,296,313,0
309,254,296,313,0
308,258,297,313,0
309,276,299,313,0
310,298,300,313,0
309,316,300,312,0
306,325,301,310,0
302,325,302,309,0
299,323,304,309,0
298,325,309,310,0
297,332,313,310,0
296,337,314,309,0
294,340,313,307,0
293,341,312,306,0
293,341,311,306,0
294,340,310,306,0
295,337,310,305,0
296,333,309,305,0
298,329,308,305,0
299,326,307,305,0
300,323,305,305,0
302,321,304,306,0
303,319,303,307,0
304,314,303,307,0
304,308,303,309,0
304,301,303,310,0
303,293,303,310,0
302,287,303,311,0
301,283,303,310,0
301,283,302,310,0
301,284,302,309,0
302,284,301,307,0
303,285,299,305,0
305,287,298,303,0
308,291,299,303,0
313,295,302,304,0
320,302,307,306,0
324,311,312,308,0
324,314,312,308,0
319,311,309,305,0
312,302,305,303,0
305,288,301,301,0
301,273,299,299,0
299,267,299,297,0
299,273,298,295,0
301,286,295,294,0
304,299,293,293,0
308,308,293,294,0
309,314,295,298,0
310,320,300,303,0
309,328,304,309,0
308,337,307,313,0
305,347,307,314,0
303,353,307,313,0
300,350,307,312,0
297,340,305,309,0
295,330,304,307,0
294,320,302,306,0
294,310,301,305,0
294,303,300,305,0
295,297,299,305,0
297,295,300,306,0
298,295,301,308,0
299,294,304,309,0
300,290,306,311,0
300,285,308,312,0
299,278,309,312,0
299,273,310,313,0
301,274,311,313,0
304,282,312,312,0
306,295,312,309,0
307,307,310,305,0
308,316,309,304,0
309,318,308,305,0
310,314,308,308,0
310,309,310,312,0
310,307,311,315,0
311,309,311,317,0
314,313,310,317,0
317,319,308,316,0
319,324,306,314,0
318,328,305,313,0
315,329,304,311,0
311,326,301,311,0
307,321,298,309,0
305,319,296,308,0
305,318,294,307,0
305,317,293,304,0
304,313,293,302,0
303,311,294,301,0
302,308,295,300,0
301,304,297,302,0
301,303,300,304,0
302,303,302,306,0
304,306,303,307,0
304,306,303,308,0
304,302,303,308,0
304,296,302,308,0
304,290,302,309,0
305,286,303,310,0
305,283,304,311,0
304,283,306,311,0
304,283,307,311,0
303,282,308,311,0
303,276,309,311,0
304,270,310,311,0
306,267,311,311,0
308,272,312,310,0
310,285,310,308,0
313,299,309,307,0
314,308,311,307,0
315,312,312,307,0
315,312,313,306,0
314,316,313,304,0
312,322,312,302,0
308,326,310,300,0
304,327,308,299,0
300,326,307,299,0
298,327,307,301,0
299,330,308,304,0
300,333,310,306,0
301,335,311,307,0
302,335,312,308,0
301,336,313,308,0
300,337,313,308,0
300,335,313,307,0
299,330,313,306,0
298,321,311,305,0
296,310,308,305,0
294,297,305,305,0
292,282,303,306,0
290,271,302,308,0
288,266,303,309,0
289,268,303,310,0
292,279,303,312,0
298,295,303,312,0
304,307,301,311,0
309,314,299,310,0
313,314,297,309,0
316,310,296,309,0
318,307,298,309,0
319,304,300,308,0
319,300,302,307,0
317,298,302,304,0
314,298,302,302,0
310,297,304,299,0
305,295,305,297,0
303,298,305,296,0
303,308,305,298,0
304,319,305,303,0
306,327,306,307,0
306,328,307,311,0
307,327,309,314,0
308,327,311,318,0
309,326,314,320,0
309,324,314,322,0
308,321,313,322,0
306,318,312,321,0
303,314,309,319,0
300,311,307,316,0
297,306,304,314,0
295,304,302,311,0
296,304,301,308,0
299,302,302,307,0
304,297,303,306,0
307,287,304,304,0
307,275,304,303,0
306,267,305,302,0
305,267,308,305,0
306,275,312,309,0
305,286,314,313,0
305,296,315,315,0
305,303,316,316,0
306,309,315,316,0
306,311,314,315,0
306,319,313,313,0
306,332,312,311,0
306,343,310,309,0
305,350,309,309,0
303,350,307,309,0
303,345,307,310,0
303,338,307,310,0
304,331,307,309,0
305,325,308,309,0
306,319,307,310,0
307,312,307,310,0
306,305,306,310,0
306,297,306,311,0
307,290,308,312,0
309,286,311,314,0
312,285,314,315,0
315,287,316,316,0
315,292,315,314,0
314,298,313,312,0
310,303,310,310,0
306,308,307,308,0
304,314,306,308,0
304,321,305,308,0
305,327,304,308,0
308,329,304,309,0
313,329,305,309,0
317,329,305,309,0
318,327,304,309,0
316,323,302,308,0
315,318,301,307,0
312,307,300,306,0
309,295,298,306,0
307,285,296,307,0
306,279,296,308,0
305,276,296,308,0
304,275,297,307,0
303,275,299,306,0
304,276,300,307,0
305,279,302,307,0
307,283,304,307,0
309,287,305,308,0
310,294,306,308,0
310,299,307,309,0
310,303,309,309,0
311,305,312,309,0
313,308,315,310,0
315,313,318,310,0
316,319,319,309,0
316,323,318,307,0
315,322,316,306,0
314,319,313,305,0
312,316,310,304,0
310,312,306,304,0
308,304,302,304,0
306,290,298,305,0
304,271,296,307,0
303,254,297,308,0
304,245,299,309,0
304,243,302,307,0
304,245,304,306,0
305,256,306,304,0
307,272,309,303,0
310,291,311,304,0
313,310,312,307,0
315,328,313,311,0
314,339,311,311,0
311,343,308,311,0
306,342,304,309,0
303,337,300,308,0
301,333,298,308,0
301,332,298,309,0
303,334,299,309,0
305,335,300,308,0
306,335,300,307,0
306,335,301,306,0
305,333,301,306,0
305,331,301,307,0
303,327,301,308,0
303,321,302,308,0
302,316,301,307,0
302,311,299,305,0
303,308,296,301,0
305,307,293,297,0
307,307,291,295,0
311,308,292,297,0
315,310,297,300,0
318,311,302,305,0
318,312,305,308,0
315,309,307,310,0
313,305,309,311,0
313,300,313,313,0
311,291,315,314,0
308,280,316,315,0
303,267,315,315,0
299,261,314,316,0
298,264,313,317,0
300,275,314,319,0
305,293,315,321,0
308,311,315,320,0
310,323,313,319,0
310,325,310,318,0
308,322,306,316,0
307,323,304,314,0
304,325,301,313,0
303,328,299,310,0
302,330,297,309,0
302,331,296,307,0
302,331,296,307,0
303,331,297,308,0
305,333,299,310,0
308,334,301,312,0
310,335,303,313,0
310,334,303,314,0
309,331,304,314,0
308,329,304,314,0
306,325,305,314,0
304,323,305,313,0
304,321,305,312,0
304,321,305,312,0
306,321,305,311,0
307,322,305,311,0
307,322,305,310,0
307,319,303,309,0
306,314,302,308,0
305,308,302,307,0
304,303,303,308,0
304,299,306,307,0
303,295,307,307,0
304,290,308,308,0
306,286,308,310,0
307,284,307,312,0
307,285,306,312,0
307,286,306,311,0
307,290,305,309,0
306,295,306,308,0
306,297,306,307,0
306,298,306,307,0
307,299,307,307,0
308,300,307,307,0
308,300,306,307,0
308,294,305,307,0
307,285,305,308,0
307,274,305,308,0
307,266,306,309,0
306,263,307,309,0
306,265,306,309,0
305,270,305,308,0
303,274,304,308,0
302,282,305,308,0
303,292,307,310,0
306,305,310,312,0
308,314,312,313,0
308,313,313,314,0
307,301,312,313,0
303,286,312,311,0
299,272,312,310,0
297,269,313,310,0
298,280,315,311,0
303,295,316,312,0
307,307,315,312,0
310,316,314,310,0
312,320,313,308,0
313,321,311,305,0
314,325,310,301,0
314,332,309,298,0
313,340,308,295,0
310,346,308,295,0
307,339,308,297,0
305,325,309,300,0
303,311,308,304,0
301,303,305,307,0
302,301,304,310,0
304,303,305,314,0
307,306,304,316,0
309,311,304,316,0
311,319,303,316,0
311,326,302,314,0
308,330,300,312,0
305,330,298,309,0
303,328,295,307,0
303,324,295,305,0
303,320,294,304,0
303,317,294,303,0
303,315,296,302,0
303,314,298,302,0
303,313,300,303,0
304,312,303,303,0
305,311,305,303,0
306,310,306,304,0
307,308,307,306,0
309,305,308,309,0
310,301,309,311,0
312,299,310,314,0
316,299,311,316,0
319,297,312,317,0
320,289,313,318,0
319,281,314,318,0
319,278,316,318,0
318,280,318,318,0
317,280,318,318,0
316,276,317,318,0
316,273,315,317,0
316,275,313,315,0
314,284,310,312,0
312,300,306,307,0
308,321,302,302,0
306,335,297,297,0
303,339,293,293,0
301,338,292,291,0
301,334,291,290,0
301,329,293,291,0
303,324,296,294,0
305,324,300,296,0
308,326,304,299,0
309,327,308,300,0
307,324,310,301,0
304,316,310,301,0
302,306,309,302,0
302,298,309,304,0
303,295,308,305,0
305,299,309,306,0
308,313,309,306,0
310,331,310,306,0
310,340,308,305,0
308,337,306,303,0
306,325,303,302,0
303,307,303,301,0
302,290,303,301,0
301,278,304,301,0
302,275,303,300,0
301,279,302,301,0
303,289,301,304,0
305,301,302,306,0
306,310,304,308,0
307,314,305,308,0
306,308,305,307,0
304,297,304,308,0
303,287,305,309,0
303,281,308,312,0
306,279,312,314,0
309,280,317,316,0
312,283,320,317,0
312,290,321,317,0
312,303,320,318,0
313,323,318,318,0
315,341,317,318,0
316,354,315,316,0
314,360,314,314,0
312,355,312,311,0
308,344,311,309,0
304,328,310,305,0
301,312,310,302,0
299,302,310,300,0
298,299,309,300,0
298,302,311,304,0
300,310,312,307,0
301,321,311,309,0
302,332,311,310,0
303,339,311,310,0
304,341,312,310,0
304,335,313,310,0
305,323,315,311,0
305,310,317,311,0
305,302,317,312,0
307,301,317,313,0
309,306,318,314,0
312,317,317,316,0
313,325,316,316,0
313,327,315,315,0
311,322,313,315,0
309,314,312,315,0
309,307,312,315,0
308,304,311,314,0
306,302,309,312,0
302,300,305,310,0
299,299,302,308,0
297,299,300,307,0
296,299,300,306,0
295,297,299,305,0
295,294,300,304,0
296,291,300,304,0
297,288,301,306,0
299,287,303,307,0
301,289,304,308,0
304,292,305,309,0
305,294,305,309,0
307,293,306,310,0
309,290,306,311,0
311,289,306,312,0
313,290,305,312,0
315,293,303,311,0
317,299,302,310,0
316,306,302,310,0
314,308,303,311,0
311,307,304,311,0
307,303,304,311,0
305,297,304,311,0
306,290,304,312,0
308,289,304,312,0
310,292,304,312,0
311,297,303,309,0
309,306,300,305,0
304,314,297,301,0
300,320,293,299,0
297,323,291,297,0
296,325,291,297,0
296,323,290,297,0
297,318,290,299,0
298,313,292,301,0
301,310,295,303,0
304,310,299,305,0
308,315,306,308,0
311,319,312,311,0
312,317,315,311,0
309,310,315,311,0
307,301,314,310,0
305,299,313,311,0
306,300,313,311,0
308,303,312,311,0
310,307,311,311,0
309,309,310,310,0
307,311,308,309,0
305,316,306,308,0
305,322,304,308,0
304,327,302,307,0
304,329,302,306,0
304,330,302,307,0
305,329,303,308,0
305,324,304,308,0
304,316,304,309,0
303,310,305,309,0
303,307,305,309,0
304,309,305,308,0
305,316,304,307,0
306,324,303,305,0
306,327,301,303,0
305,323,301,303,0
303,314,300,303,0
301,303,300,303,0
299,290,300,304,0
298,280,301,304,0
297,271,302,305,0
297,261,304,306,0
296,253,304,308,0
295,247,306,310,0
295,246,308,314,0
297,252,310,316,0
300,269,313,318,0
303,291,314,317,0
306,306,313,315,0
307,310,312,312,0
308,306,311,311,0
310,302,311,311,0
311,299,312,312,0
310,297,311,311,0
305,298,309,311,0
303,298,309,311,0
302,297,309,311,0
303,295,309,311,0
306,293,310,310,0
309,297,311,309,0
310,307,312,309,0
309,316,310,307,0
306,320,307,306,0
304,322,304,304,0
303,324,302,303,0
303,325,301,302,0
303,321,302,301,0
303,312,304,302,0
304,305,307,303,0
305,307,310,304,0
307,318,312,307,0
310,329,313,309,0
310,336,312,310,0
307,338,310,310,0
304,333,307,308,0
302,326,305,307,0
301,321,304,307,0
303,316,303,307,0
304,313,304,306,0
304,312,305,306,0
302,310,305,306,0
299,306,305,305,0
296,300,306,304,0
295,293,307,304,0
296,290,307,303,0
298,294,308,302,0
302,301,307,301,0
304,307,306,298,0
305,310,304,294,0
303,313,303,292,0
301,314,301,292,0
299,311,301,293,0
299,305,300,295,0
299,298,301,297,0
300,289,302,299,0
301,280,304,301,0
302,269,306,303,0
303,261,308,305,0
304,263,309,307,0
305,271,309,308,0
304,280,307,307,0
303,291,306,306,0
301,298,306,304,0
300,302,307,302,0
301,304,307,299,0
302,302,307,296,0
303,297,305,293,0
303,292,304,291,0
303,291,302,291,0
304,297,301,292,0
304,304,302,293,0
304,309,303,296,0
303,311,305,298,0
302,311,307,302,0
302,311,309,305,0
303,314,311,308,0
304,318,312,309,0
307,321,313,310,0
308,322,313,311,0
310,320,314,310,0
310,318,314,309,0
311,313,313,309,0
311,309,312,308,0
312,304,309,308,0
312,298,307,309,0
312,290,305,310,0
311,282,304,311,0
310,282,304,312,0
308,288,304,312,0
307,294,306,312,0
307,299,307,312,0
307,298,307,312,0
308,293,308,312,0
308,289,309,312,0
309,291,310,312,0
312,299,313,314,0
317,316,316,315,0
321,337,318,316,0
320,351,318,314,0
315,357,316,311,0
310,356,314,307,0
304,349,311,304,0
299,339,307,300,0
295,328,304,298,0
293,318,303,299,0
293,307,303,303,0
294,296,303,306,0
296,283,303,308,0
298,270,303,309,0
301,262,304,310,0
305,262,305,311,0
310,270,308,311,0
313,279,309,311,0
314,283,309,310,0
313,283,307,308,0
310,283,304,305,0
308,289,302,304,0
308,302,301,303,0
309,317,301,302,0
307,330,299,301,0
305,337,298,300,0
304,338,297,300,0
302,333,296,299,0
301,323,296,298,0
300,312,296,299,0
299,303,297,300,0
300,298,300,301,0
302,296,302,303,0
305,298,305,305,0
310,302,307,306,0
315,309,308,307,0
319,314,309,307,0
320,320,308,307,0
318,327,306,306,0
314,330,303,304,0
309,328,301,303,0
306,321,299,302,0
302,313,297,300,0
301,307,298,299,0
302,303,299,300,0
303,299,302,301,0
303,296,305,303,0
303,296,307,304,0
304,299,309,305,0
305,302,310,305,0
306,306,309,305,0
307,310,309,306,0
308,314,310,306,0
307,314,311,306,0
306,308,311,306,0
305,298,311,305,0
303,291,311,304,0
304,292,312,305,0
306,300,313,305,0
308,310,313,306,0
309,315,312,307,0
309,315,310,308,0
311,314,310,309,0
315,314,311,311,0
318,313,312,312,0
320,309,312,312,0
317,304,311,311,0
314,292,310,311,0
310,273,309,312,0
308,256,308,312,0
307,250,308,313,0
306,259,308,313,0
306,278,307,311,0
305,296,304,309,0
305,310,303,307,0
305,320,303,304,0
306,324,304,303,0
308,325,305,303,0
309,323,307,304,0
309,321,307,304,0
308,320,307,305,0
308,321,307,307,0
308,323,306,308,0
309,325,304,308,0
311,328,302,309,0
312,329,301,308,0
311,328,301,307,0
309,325,300,306,0
307,322,299,305,0
304,320,299,303,0
303,318,298,303,0
303,317,299,304,0
304,317,300,305,0
306,321,303,306,0
308,328,306,307,0
310,334,308,308,0
310,336,310,309,0
310,331,310,310,0
309,319,310,310,0
308,302,309,311,0
308,287,307,311,0
307,278,304,310,0
307,275,301,309,0
307,276,298,307,0
307,283,296,303,0
306,292,294,300,0
305,303,294,298,0
305,308,296,297,0
304,303,298,298,0
303,293,299,299,0
304,286,301,301,0
306,286,303,305,0
308,291,305,308,0
308,298,304,310,0
307,299,303,310,0
303,297,302,310,0
300,295,301,309,0
299,298,302,310,0
301,304,304,310,0
304,308,305,311,0
307,310,306,310,0
309,311,307,309,0
310,309,306,306,0
309,304,304,303,0
308,294,302,301,0
305,283,301,300,0
304,276,302,302,0
304,278,304,303,0
306,286,305,305,0
308,294,306,306,0
310,302,308,306,0
312,309,309,306,0
312,315,310,306,0
311,318,310,305,0
308,319,310,305,0
305,318,308,304,0
302,316,307,303,0
299,312,306,302,0
298,308,304,302,0
298,304,304,303,0
299,301,305,306,0
300,301,308,310,0
302,302,311,313,0
304,304,313,314,0
305,305,313,314,0
306,303,313,314,0
306,303,311,313,0
306,305,309,311,0
306,312,306,311,0
309,321,305,311,0
313,329,306,312,0
319,333,309,314,0
324,332,311,316,0
326,328,313,317,0
324,319,312,315,0
317,305,310,312,0
312,290,308,310,0
309,279,308,310,0
308,276,309,310,0
310,281,310,312,0
311,292,310,313,0
309,301,309,312,0
307,303,306,311,0
304,301,302,310,0
302,297,301,310,0
303,297,300,310,0
305,301,300,310,0
306,306,301,309,0
307,309,302,309,0
306,308,303,309,0
303,302,304,308,0
299,294,304,307,0
297,286,304,308,0
297,278,304,308,0
298,273,304,308,0
300,273,305,308,0
301,282,306,308,0
303,297,309,309,0
303,317,310,309,0
304,332,310,309,0
304,340,309,309,0
303,340,308,308,0
302,336,307,307,0
302,332,306,306,0
304,331,306,305,0
306,331,307,304,0
308,330,306,303,0
309,329,305,302,0
310,329,304,300,0
311,331,302,299,0
312,330,301,299,0
313,323,300,299,0
313,311,301,299,0
313,298,302,300,0
312,290,304,302,0
313,289,306,304,0
313,292,306,306,0
312,297,307,308,0
311,301,308,310,0
312,309,308,312,0
312,316,309,313,0
313,317,308,313,0
313,312,307,312,0
310,305,305,310,0
307,296,303,308,0
304,287,303,306,0
303,282,304,305,0
305,281,306,304,0
307,281,309,304,0
307,282,311,304,0
305,282,311,303,0
303,278,311,303,0
303,275,312,304,0
305,276,313,306,0
308,283,315,308,0
310,293,315,309,0
311,302,311,309,0
312,313,307,308,0
313,324,305,308,0
313,335,303,308,0
312,340,302,308,0
311,339,301,307,0
310,337,301,306,0
309,334,300,305,0
308,330,300,304,0
306,327,300,302,0
304,324,300,302,0
302,323,300,301,0
302,323,300,301,0
304,323,300,301,0
306,323,301,302,0
308,323,302,303,0
309,321,304,304,0
311,317,307,305,0
313,314,308,306,0
314,312,310,307,0
316,310,311,309,0
315,308,312,310,0
314,308,313,311,0
313,313,315,312,0
312,318,315,313,0
313,323,315,314,0
314,327,315,315,0
315,327,314,315,0
315,325,311,314,0
315,319,308,314,0
315,309,307,314,0
313,296,308,315,0
311,284,309,315,0
306,274,309,313,0
301,271,309,309,0
297,272,309,305,0
296,280,308,304,0
297,292,308,304,0
300,300,308,306,0
303,301,309,307,0
305,301,309,308,0
305,301,310,308,0
304,305,310,308,0
303,312,310,308,0
303,317,310,309,0
303,319,309,309,0
304,316,309,309,0
304,310,308,310,0
302,301,308,311,0
301,289,307,312,0
301,276,308,312,0
302,263,309,313,0
304,252,309,311,0
306,245,307,309,0
307,243,306,308,0
308,249,307,308,0
308,261,308,308,0
309,274,310,309,0
308,283,308,307,0
306,293,304,305,0
306,306,300,303,0
307,321,296,301,0
308,333,295,300,0
309,340,295,301,0
309,342,297,303,0
310,342,300,305,0
309,339,305,308,0
310,335,310,310,0
310,329,313,312,0
310,320,315,312,0
309,311,316,313,0
309,303,316,314,0
309,296,315,315,0
308,295,314,315,0
309,296,313,315,0
309,300,313,314,0
309,304,312,313,0
310,307,312,311,0
311,308,311,309,0
312,307,310,308,0
315,311,311,308,0
318,318,313,309,0
319,324,316,311,0
320,329,320,313,0
322,330,322,316,0
323,327,324,318,0
321,323,323,318,0
315,322,320,316,0
306,322,316,314,0
299,322,312,311,0
294,315,308,307,0
292,305,306,305,0
292,297,306,303,0
292,292,304,302,0
292,292,302,300,0
293,295,301,300,0
296,303,301,300,0
299,309,302,300,0
301,311,301,300,0
302,309,300,300,0
301,306,298,299,0
300,300,297,301,0
299,295,297,303,0
299,291,297,305,0
299,289,297,308,0
301,288,298,311,0
302,288,298,313,0
304,290,299,314,0
306,292,301,314,0
309,296,304,314,0
312,304,309,314,0
315,312,314,314,0
318,319,318,314,0
319,322,319,313,0
318,319,320,313,0
316,315,318,310,0
313,314,314,307,0
308,313,309,304,0
304,313,305,304,0
301,313,303,305,0
301,313,304,308,0
302,313,304,310,0
304,313,304,309,0
305,314,303,309,0
305,315,303,308,0
305,313,302,307,0
304,306,301,307,0
303,296,299,306,0
302,285,298,307,0
304,280,297,309,0
306,285,298,310,0
309,294,299,312,0
311,303,299,313,0
312,307,300,314,0
310,312,302,314,0
309,320,304,314,0
308,328,306,314,0
305,332,306,312,0
304,331,305,311,0
302,326,303,309,0
302,319,302,308,0
303,316,302,308,0
303,318,304,308,0
304,324,304,308,0
305,327,306,308,0
307,325,307,309,0
308,320,307,309,0
310,311,307,309,0
313,299,308,310,0
316,285,308,311,0
318,272,307,310,0
318,265,306,309,0
317,261,304,306,0
314,263,302,303,0
311,274,301,300,0
309,291,302,298,0
306,306,304,298,0
304,316,307,300,0
303,322,310,303,0
303,327,312,306,0
304,332,313,307,0
306,336,313,308,0
307,340,312,308,0
307,340,310,307,0
306,339,308,307,0
305,338,306,307,0
305,336,305,307,0
304,334,304,308,0
303,331,305,308,0
303,330,306,309,0
303,327,308,309,0
304,324,310,309,0
305,319,311,309,0
306,314,312,308,0
306,311,312,306,0
307,308,311,304,0
307,305,309,302,0
306,302,308,300,0
306,300,307,299,0
305,297,307,300,0
305,289,307,302,0
306,281,309,306,0
308,274,310,310,0
308,271,311,314,0
309,271,311,317,0
310,277,311,318,0
312,291,310,318,0
313,309,309,317,0
313,324,306,315,0
311,331,302,311,0
308,332,299,308,0
306,326,296,305,0
304,321,296,303,0
304,318,297,302,0
303,315,299,301,0
304,313,301,303,0
306,314,305,305,0
307,316,309,306,0
306,318,311,307,0
305,316,313,308,0
305,313,313,308,0
303,309,311,308,0
301,306,310,308,0
300,303,308,308,0
301,301,307,308,0
303,299,307,306,0
305,296,306,303,0
307,296,305,299,0
308,295,303,295,0
308,294,301,294,0
307,295,301,296,0
305,296,303,301,0
304,294,307,307,0
302,291,310,311,0
300,289,311,312,0
297,292,311,311,0
294,298,309,309,0
292,301,308,309,0
294,301,309,311,0
297,299,311,313,0
300,296,311,314,0
303,294,310,314,0
305,296,309,314,0
305,298,308,314,0
306,303,306,314,0
307,309,306,314,0
308,315,306,315,0
308,319,306,315,0
308,319,306,316,0
308,317,306,317,0
308,313,306,318,0
308,305,306,318,0
307,296,305,319,0
307,290,304,319,0
309,290,305,320,0
311,290,308,321,0
313,293,311,322,0
314,297,312,322,0
312,299,312,320,0
308,296,310,319,0
303,291,307,317,0
301,291,306,315,0
300,299,304,314,0
301,309,303,313,0
301,319,302,310,0
301,325,300,308,0
300,327,300,306,0
299,325,302,305,0
298,317,304,306,0
298,305,306,307,0
298,295,308,308,0
300,288,309,308,0
302,284,309,309,0
303,284,309,309,0
304,289,308,310,0
307,298,308,312,0
311,307,308,313,0
314,312,307,313,0
316,310,306,313,0
318,309,307,313,0
319,313,307,313,0
319,313,308,313,0
319,310,309,313,0
317,307,311,314,0
315,307,314,315,0
312,307,314,315,0
310,310,315,315,0
309,316,317,316,0
311,323,318,316,0
312,324,318,314,0
310,318,315,310,0
304,309,312,305,0
299,302,310,300,0
294,298,308,296,0
292,296,306,294,0
291,297,305,293,0
292,299,303,293,0
294,300,301,294,0
296,301,299,296,0
297,302,297,297,0
298,300,297,298,0
300,301,296,299,0
301,307,298,301,0
302,318,301,303,0
304,331,305,305,0
304,341,309,306,0
302,344,310,305,0
299,339,310,304,0
297,329,310,304,0
295,320,310,304,0
296,314,310,306,0
297,312,310,307,0
300,311,311,308,0
302,312,309,308,0
304,310,307,308,0
306,306,305,307,0
309,300,305,307,0
314,295,306,306,0
318,292,307,305,0
321,294,309,305,0
320,303,312,307,0
316,313,314,311,0
311,318,315,316,0
305,318,316,320,0
301,313,316,323,0
297,305,316,324,0
296,297,314,325,0
295,291,313,324,0
296,288,311,324,0
297,291,310,323,0
297,296,309,321,0
297,300,307,319,0
297,304,306,318,0
298,306,305,317,0
299,307,306,316,0
301,306,308,315,0
302,308,309,314,0
302,312,309,312,0
303,317,310,311,0
302,321,311,309,0
302,322,311,308,0
302,322,312,308,0
302,320,312,307,0
303,316,311,308,0
303,312,310,308,0
304,309,310,309,0
305,308,310,309,0
307,307,311,310,0
309,305,311,310,0
309,302,312,310,0
310,297,313,312,0
312,293,314,314,0
314,288,317,315,0
316,286,319,316,0
318,288,322,317,0
320,296,323,317,0
319,306,323,316,0
316,305,320,315,0
313,301,316,312,0
309,298,311,310,0
307,297,307,307,0
305,300,303,305,0
303,301,300,303,0
300,301,298,302,0
299,302,298,302,0
299,304,299,302,0
301,307,302,303,0
303,309,303,303,0
305,308,304,304,0
305,305,305,303,0
304,301,304,304,0
304,297,304,304,0
305,295,305,305,0
306,295,305,304,0
308,297,305,303,0
311,300,305,302,0
313,302,306,301,0
314,304,307,300,0
315,302,309,300,0
314,293,310,301,0
311,276,312,304,0
310,264,317,309,0
312,262,321,314,0
314,270,321,315,0
313,283,319,313,0
309,295,315,310,0
305,303,310,306,0
301,305,305,303,0
298,306,304,302,0
297,306,306,303,0
298,308,308,304,0
299,310,310,305,0
300,315,312,304,0
300,321,310,304,0
300,329,308,303,0
300,337,305,303,0
301,341,303,303,0
303,342,301,305,0
304,342,301,306,0
307,341,302,308,0
309,338,303,310,0
309,329,306,310,0
308,317,308,311,0
308,308,310,312,0
308,307,312,313,0
312,313,314,314,0
314,323,314,314,0
316,332,313,313,0
315,337,312,311,0
313,335,312,309,0
310,335,313,307,0
307,335,315,307,0
304,327,317,310,0
301,310,317,312,0
298,292,316,314,0
298,281,315,316,0
299,280,315,317,0
302,283,315,317,0
303,287,316,317,0
304,292,316,317,0
305,297,313,317,0
306,302,311,316,0
308,304,310,317,0
309,304,308,316,0
308,307,307,314,0
304,309,303,311,0
300,307,299,308,0
297,303,298,307,0
296,298,298,307,0
296,292,299,308,0
296,290,303,308,0
299,292,307,311,0
302,292,311,312,0
304,288,311,313,0
307,284,310,312,0
310,284,310,312,0
313,287,310,312,0
314,292,310,310,0
314,299,309,309,0
314,307,308,309,0
314,317,307,308,0
315,329,308,309,0
316,341,308,308,0
315,347,307,307,0
312,348,304,305,0
309,346,302,304,0
307,341,299,302,0
305,337,298,302,0
304,334,297,302,0
304,330,296,302,0
304,323,295,302,0
303,315,295,302,0
303,309,295,303,0
302,307,297,304,0
302,307,298,306,0
304,307,300,308,0
305,305,303,310,0
307,298,304,311,0
306,289,305,310,0
305,282,305,309,0
306,285,305,308,0
309,300,306,306,0
311,318,308,305,0
312,329,308,303,0
311,333,308,301,0
308,328,307,300,0
305,315,306,299,0
304,302,306,300,0
304,294,309,302,0
303,291,313,305,0
303,291,317,308,0
303,295,319,310,0
303,301,320,310,0
302,308,319,310,0
301,315,318,308,0
301,320,316,308,0
302,323,314,308,0
302,323,313,308,0
303,316,312,308,0
303,306,312,308,0
304,294,312,307,0
305,282,312,307,0
306,272,311,306,0
307,267,310,305,0
307,269,309,304,0
307,278,308,302,0
305,288,306,300,0
303,297,304,297,0
300,302,303,294,0
298,304,304,293,0
299,307,306,295,0
302,310,307,299,0
304,310,306,303,0
307,311,306,309,0
311,314,308,316,0
314,318,310,321,0
317,326,312,323,0
319,337,312,324,0
320,346,313,322,0
322,348,313,320,0
323,343,314,318,0
322,338,313,315,0
320,336,311,312,0
316,334,310,308,0
311,331,308,304,0
306,326,308,301,0
302,321,307,300,0
299,316,307,301,0
297,310,306,302,0
295,305,305,304,0
295,302,304,305,0
297,299,303,306,0
298,295,302,307,0
299,287,301,307,0
299,277,301,307,0
300,272,301,308,0
301,273,302,309,0
304,278,302,311,0
308,281,302,312,0
312,283,303,313,0
314,285,303,313,0
315,290,304,312,0
315,297,304,310,0
314,310,305,308,0
312,323,304,307,0
308,330,303,305,0
303,332,301,303,0
298,331,300,302,0
295,325,300,302,0
295,315,302,303,0
296,304,303,304,0
298,295,304,305,0
301,289,305,306,0
303,284,306,307,0
305,283,307,308,0
308,287,311,309,0
311,298,313,308,0
313,310,313,307,0
313,320,312,306,0
313,323,311,305,0
313,320,309,306,0
311,315,305,306,0
310,311,303,306,0
309,309,302,308,0
309,309,301,310,0
308,306,299,312,0
307,301,298,313,0
307,295,298,314,0
307,291,298,314,0
307,289,298,316,0
309,288,299,316,0
312,289,301,317,0
316,296,302,317,0
319,304,303,315,0
320,307,304,313,0
319,307,304,311,0
316,302,303,309,0
314,294,300,308,0
311,288,298,307,0
308,284,297,305,0
304,284,295,303,0
301,289,294,300,0
299,300,292,298,0
297,312,290,296,0
297,320,290,295,0
299,327,292,296,0
302,333,297,299,0
305,337,301,301,0
308,340,306,304,0
310,343,309,307,0
311,341,312,309,0
311,331,313,311,0
309,317,314,310,0
307,304,316,309,0
305,295,317,307,0
304,292,318,306,0
303,293,317,304,0
302,294,315,304,0
301,296,311,304,0
301,296,308,304,0
301,297,305,304,0
301,301,304,303,0
302,305,304,303,0
303,305,306,303,0
304,302,307,304,0
305,294,309,307,0
306,285,310,309,0
308,281,313,311,0
311,288,315,312,0
315,304,315,311,0
317,319,315,309,0
317,329,313,307,0
315,332,310,307,0
313,330,309,307,0
311,324,308,309,0
310,319,308,312,0
311,317,310,315,0
312,314,313,317,0
313,308,315,318,0
312,298,315,318,0
310,289,314,316,0
307,286,312,315,0
306,288,310,313,0
306,298,309,312,0
309,313,309,312,0
312,325,309,311,0
314,330,308,310,0
314,327,308,310,0
314,318,307,310,0
311,309,307,310,0
307,300,306,310,0
303,295,305,310,0
300,293,305,311,0
299,295,305,311,0
299,296,306,312,0
302,303,308,314,0
305,314,311,314,0
306,322,311,312,0
304,323,308,308,0
300,318,307,305,0
299,312,306,306,0
298,310,306,308,0
299,311,307,311,0
300,313,307,313,0
302,315,308,313,0
303,318,307,313,0
305,320,307,312,0
308,323,307,312,0
309,325,307,312,0
309,322,307,311,0
309,319,306,311,0
306,316,305,310,0
304,312,304,309,0
302,310,303,309,0
300,307,303,309,0
301,305,304,310,0
303,306,304,311,0
305,310,304,312,0
307,316,303,311,0
309,322,304,311,0
311,324,304,310,0
310,320,304,309,0
306,313,302,307,0
301,306,300,307,0
298,300,298,306,0
296,292,298,306,0
295,280,298,307,0
294,267,299,309,0
294,255,301,311,0
296,248,303,313,0
299,251,306,315,0
301,263,309,315,0
302,273,310,315,0
304,278,311,315,0
306,277,310,314,0
308,275,309,313,0
311,281,309,312,0
313,294,308,309,0
314,310,305,305,0
313,324,300,301,0
310,332,295,298,0
307,334,292,295,0
303,331,291,295,0
299,326,292,295,0
297,318,295,297,0
297,314,299,298,0
298,316,301,298,0
300,324,301,298,0
300,329,299,296,0
299,329,297,295,0
297,327,296,294,0
297,323,296,295,0
298,318,297,294,0
300,314,298,293,0
301,312,299,291,0
303,314,302,291,0
304,319,304,292,0
306,325,307,296,0
308,330,310,301,0
311,333,313,306,0
313,332,315,311,0
313,326,316,314,0
311,317,315,315,0
308,307,313,315,0
304,295,310,314,0
302,286,306,314,0
303,285,305,315,0
305,291,305,317,0
306,299,305,317,0
305,304,304,317,0
304,304,303,316,0
303,302,303,316,0
302,298,304,315,0
302,290,306,315,0
303,282,308,314,0
304,278,311,313,0
307,278,314,314,0
309,281,316,313,0
309,284,316,313,0
309,289,316,312,0
309,297,315,311,0
308,303,315,311,0
307,306,314,310,0
304,306,312,309,0
301,306,311,308,0
299,311,310,307,0
298,318,310,307,0
300,328,309,307,0
301,337,307,307,0
302,339,304,306,0
303,332,303,306,0
301,318,302,305,0
300,301,301,305,0
298,289,300,304,0
298,286,301,305,0
300,288,302,306,0
302,298,303,306,0
305,310,303,307,0
306,319,303,306,0
305,323,303,303,0
304,323,303,301,0
302,322,302,300,0
300,320,302,300,0
298,312,303,302,0
298,299,304,305,0
298,284,307,309,0
298,273,309,312,0
299,267,310,313,0
301,267,311,315,0
303,273,312,317,0
304,280,313,317,0
304,288,312,315,0
303,296,309,311,0
300,305,305,308,0
299,316,303,306,0
300,331,303,306,0
303,347,304,306,0
306,353,305,306,0
307,349,306,305,0
306,337,306,304,0
304,323,306,302,0
302,313,305,300,0
300,310,304,299,0
300,313,303,299,0
299,317,303,299,0
299,317,303,300,0
300,310,303,300,0
301,300,303,301,0
303,291,302,301,0
305,287,303,302,0
307,289,304,303,0
309,295,305,303,0
310,302,306,303,0
310,309,306,301,0
309,314,306,300,0
306,317,305,298,0
302,315,303,295,0
298,312,299,290,0
294,306,295,286,0
292,297,293,283,0
292,285,293,284,0
294,276,296,287,0
296,273,300,292,0
298,275,303,296,0
298,280,305,301,0
299,284,304,305,0
299,289,304,308,0
300,294,304,310,0
302,298,305,310,0
304,299,306,311,0
306,299,306,311,0
307,302,305,311,0
308,307,304,311,0
310,312,303,311,0
312,317,303,311,0
312,320,303,309,0
312,322,303,309,0
311,322,305,309,0
310,319,308,310,0
309,314,310,311,0
306,311,310,312,0
303,312,308,312,0
302,316,307,312,0
303,323,307,312,0
307,331,308,312,0
310,338,310,311,0
313,342,313,311,0
314,345,315,311,0
313,345,315,313,0
312,343,314,314,0
311,338,311,314,0
309,330,307,312,0
306,321,302,309,0
304,314,298,306,0
301,310,296,305,0
299,309,297,305,0
298,305,300,308,0
297,298,304,311,0
299,288,309,314,0
301,281,314,318,0
302,279,317,319,0
302,282,318,319,0
302,291,317,319,0
301,302,316,318,0
301,309,315,317,0
302,313,314,316,0
302,313,312,316,0
302,310,309,316,0
303,306,307,315,0
304,304,304,315,0
305,304,303,314,0
307,305,304,314,0
308,308,305,313,0
308,310,306,310,0
310,314,307,309,0
311,318,309,309,0
312,319,310,309,0
312,319,310,308,0
310,319,309,308,0
309,320,309,307,0
307,320,307,307,0
305,315,305,306,0
304,305,303,305,0
303,295,302,305,0
304,286,302,307,0
306,279,303,309,0
310,281,306,312,0
313,284,310,314,0
315,284,312,316,0
314,284,313,316,0
312,285,312,315,0
309,290,310,313,0
306,297,308,311,0
304,304,305,310,0
303,310,304,309,0
303,313,303,309,0
303,316,303,309,0
304,319,303,309,0
307,326,303,307,0
309,334,301,305,0
311,341,301,303,0
311,344,301,302,0
308,340,302,302,0
305,333,303,304,0
302,323,305,307,0
299,312,305,308,0
297,300,305,309,0
295,286,305,311,0
296,278,307,312,0
299,279,308,313,0
303,285,308,312,0
304,290,306,310,0
305,294,305,308,0
304,295,303,306,0
304,295,301,304,0
304,296,298,303,0
305,302,297,303,0
306,311,297,305,0
306,321,297,306,0
306,329,297,307,0
306,331,295,308,0
306,328,294,309,0
306,322,294,310,0
308,316,295,311,0
310,313,296,311,0
311,313,298,310,0
311,313,300,309,0
311,314,302,308,0
311,315,304,307,0
311,312,305,307,0
313,307,307,307,0
315,301,308,307,0
316,297,309,307,0
319,294,310,306,0
321,298,310,306,0
321,308,307,304,0
320,319,302,302,0
318,326,297,301,0
317,330,294,301,0
316,332,292,303,0
317,335,292,304,0
317,337,293,305,0
315,341,294,305,0
312,342,297,305,0
309,339,301,306,0
306,333,304,307,0
304,328,307,307,0
303,323,309,308,0
302,319,311,309,0
301,312,313,308,0
300,299,314,309,0
299,283,314,309,0
299,267,313,309,0
299,255,311,308,0
301,251,310,308,0
304,253,308,309,0
308,258,308,310,0
312,264,309,311,0
314,270,310,312,0
316,273,311,313,0
315,273,312,314,0
313,272,313,314,0
310,276,314,313,0
307,284,314,311,0
305,294,313,308,0
305,304,312,305,0
306,314,311,303,0
308,324,309,301,0
310,332,307,301,0
310,337,305,301,0
309,338,305,301,0
307,337,306,301,0
306,334,306,303,0
307,332,307,305,0
310,332,309,308,0
315,335,310,310,0
319,339,310,310,0
319,339,309,309,0
317,334,307,307,0
314,328,304,305,0
310,321,301,304,0
307,313,300,304,0
306,310,301,304,0
308,312,304,305,0
310,319,306,305,0
309,320,307,304,0
306,318,306,303,0
304,314,304,303,0
303,313,303,303,0
304,315,304,304,0
306,316,304,306,0
306,315,304,308,0
306,311,305,311,0
307,306,306,313,0
308,302,306,313,0
309,299,306,311,0
308,297,303,309,0
305,297,300,306,0
303,300,298,304,0
300,303,297,303,0
300,303,297,305,0
301,295,297,306,0
302,282,297,306,0
304,273,297,306,0
304,272,298,305,0
305,278,300,305,0
304,286,302,305,0
304,294,304,304,0
304,298,306,303,0
303,301,307,302,0
302,303,307,302,0
302,304,307,302,0
303,305,308,303,0
303,307,309,304,0
303,310,309,305,0
303,313,309,305,0
304,311,308,305,0
304,310,307,306,0
304,311,308,306,0
305,314,309,307,0
306,317,310,309,0
308,317,311,310,0
309,313,312,310,0
310,304,312,310,0
310,297,311,309,0
309,295,309,309,0
308,298,306,308,0
308,308,302,307,0
309,318,299,305,0
307,326,295,302,0
305,328,294,300,0
303,327,294,298,0
301,323,295,298,0
301,315,296,297,0
302,305,298,298,0
303,296,301,299,0
304,292,303,300,0
305,292,305,301,0
306,296,307,303,0
308,303,308,303,0
310,309,308,303,0
311,312,307,302,0
311,314,306,301,0
311,317,306,300,0
310,320,306,299,0
308,320,306,298,0
306,318,304,296,0
304,315,302,295,0
303,310,301,296,0
303,306,302,299,0
305,303,304,303,0
307,304,305,306,0
309,309,306,310,0
309,314,306,312,0
309,316,307,313,0
308,317,306,313,0
307,317,306,311,0
307,315,305,310,0
306,312,305,310,0
305,310,305,310,0
304,309,306,311,0
302,306,308,313,0
301,301,309,314,0
299,294,309,314,0
299,288,309,315,0
300,285,310,316,0
302,284,310,318,0
303,284,311,320,0
304,286,312,320,0
303,289,311,318,0
302,295,310,314,0
301,302,309,311,0
300,310,308,309,0
301,315,307,309,0
302,317,306,309,0
305,320,307,310,0
307,326,308,310,0
308,330,309,309,0
307,331,311,308,0
307,333,311,308,0
307,332,310,307,0
306,325,307,306,0
304,316,301,305,0
302,308,296,305,0
302,304,294,306,0
304,306,294,308,0
305,313,297,310,0
306,318,299,311,0
305,317,301,311,0
304,310,304,311,0
305,301,307,313,0
305,293,310,315,0
305,285,312,316,0
304,277,314,318,0
303,275,315,318,0
302,279,315,318,0
302,293,315,317,0
303,311,315,316,0
304,328,315,314,0
304,339,314,312,0
304,342,313,310,0
304,341,313,310,0
304,339,313,311,0
303,338,313,311,0
303,336,312,311,0
302,331,311,312,0
302,325,309,312,0
302,315,308,311,0
302,302,307,312,0
301,289,306,312,0
300,283,304,313,0
299,284,303,313,0
299,286,302,314,0
299,291,301,313,0
299,294,301,312,0
300,295,300,311,0
301,294,299,310,0
302,292,299,309,0
302,290,299,310,0
303,288,300,310,0
305,288,302,312,0
308,292,304,314,0
312,301,308,315,0
315,312,310,315,0
316,317,309,314,0
317,315,307,313,0
316,312,306,311,0
315,311,303,310,0
314,311,301,308,0
312,312,299,307,0
310,310,298,307,0
309,308,298,307,0
308,309,299,305,0
307,313,300,303,0
306,320,301,300,0
306,326,302,297,0
306,329,303,295,0
307,329,303,295,0
310,328,305,297,0
314,326,305,299,0
316,326,305,301,0
315,326,304,302,0
312,326,302,303,0
307,325,301,303,0
304,322,300,304,0
302,320,300,306,0
301,320,301,308,0
301,321,301,309,0
300,322,302,309,0
300,320,301,309,0
299,316,301,309,0
300,312,301,308,0
301,306,299,306,0
303,299,298,304,0
305,289,299,304,0
306,276,301,304,0
306,265,304,304,0
308,263,308,305,0
309,275,312,306,0
308,294,314,308,0
306,310,314,311,0
304,313,315,314,0
