309,265,308,309,0
305,268,305,308,0
302,270,304,307,0
299,268,303,306,0
297,268,303,306,0
297,271,303,305,0
300,276,304,304,0
303,282,304,304,0
307,289,306,305,0
310,297,309,306,0
311,306,310,307,0
312,312,311,308,0
311,315,311,308,0
308,311,311,308,0
305,303,310,308,0
303,298,311,308,0
303,299,312,309,0
304,305,313,309,0
305,311,313,307,0
304,311,312,306,0
304,306,311,306,0
304,293,310,307,0
304,273,310,309,0
305,256,311,310,0
306,248,314,312,0
307,252,316,313,0
309,264,316,313,0
311,282,315,312,0
313,299,313,310,0
313,314,312,308,0
312,330,312,307,0
312,348,313,306,0
312,361,312,304,0
313,365,310,303,0
312,356,309,304,0
312,340,308,306,0
310,324,306,308,0
308,307,304,309,0
305,291,303,309,0
304,280,302,310,0
305,277,303,309,0
305,281,303,308,0
305,288,304,308,0
306,297,305,308,0
306,304,305,308,0
305,310,305,307,0
303,316,305,307,0
302,322,303,307,0
301,326,303,307,0
301,325,302,308,0
303,315,302,308,0
305,304,302,309,0
307,294,302,309,0
311,289,302,310,0
314,291,302,312,0
315,299,302,312,0
311,305,300,311,0
306,306,298,310,0
304,304,298,310,0
303,298,300,312,0
304,292,303,312,0
305,288,305,311,0
305,288,305,308,0
304,293,304,305,0
302,298,303,302,0
301,304,303,300,0
299,307,304,298,0
301,309,305,299,0
304,313,308,300,0
308,316,309,300,0
307,314,310,300,0
305,308,310,301,0
304,299,310,303,0
304,295,312,304,0
304,294,313,305,0
302,294,312,305,0
300,293,308,303,0
297,290,302,303,0
295,288,297,304,0
295,288,296,306,0
298,289,295,308,0
301,290,295,309,0
304,289,296,309,0
308,290,298,310,0
310,293,301,309,0
312,299,305,309,0
312,304,307,309,0
309,306,308,308,0
307,304,308,307,0
306,297,308,306,0
305,291,309,307,0
307,290,310,308,0
309,294,312,310,0
311,299,314,312,0
310,304,314,313,0
308,307,311,312,0
306,303,308,311,0
307,298,308,310,0
309,292,310,310,0
312,289,314,311,0
315,296,317,311,0
314,304,319,310,0
312,312,320,310,0
313,319,322,312,0
316,320,324,314,0
319,315,326,316,0
319,310,325,314,0
316,312,321,311,0
313,321,318,307,0
310,333,313,302,0
304,343,309,297,0
299,346,304,294,0
294,335,301,293,0
290,316,300,294,0
289,295,300,296,0
288,275,301,297,0
288,262,303,300,0
290,260,306,302,0
292,268,309,304,0
295,283,311,305,0
297,302,312,305,0
297,318,310,304,0
296,326,307,302,0
297,326,304,302,0
298,322,303,303,0
300,316,303,304,0
302,312,304,305,0
303,311,304,306,0
304,310,303,307,0
305,310,303,308,0
305,307,303,308,0
305,302,302,308,0
305,294,302,309,0
305,286,302,309,0
305,281,302,309,0
304,276,303,309,0
303,272,303,310,0
303,268,303,311,0
304,265,305,313,0
305,269,307,314,0
305,275,309,314,0
306,286,313,315,0
311,307,317,316,0
318,338,321,317,0
326,363,323,316,0
329,372,324,315,0
328,364,322,313,0
321,342,318,310,0
311,312,315,309,0
304,287,312,310,0
304,276,313,312,0
308,280,314,314,0
313,292,315,313,0
314,303,314,311,0
311,309,312,305,0
303,310,308,298,0
295,310,302,292,0
289,312,297,288,0
287,314,293,286,0
288,318,290,287,0
290,322,289,289,0
293,321,289,292,0
296,317,290,295,0
298,307,292,298,0
300,297,293,301,0
301,289,295,302,0
303,285,298,304,0
305,289,301,306,0
308,297,303,307,0
312,306,306,308,0
316,315,308,309,0
319,322,310,309,0
317,326,310,308,0
311,324,309,305,0
305,321,306,303,0
299,317,304,302,0
296,313,301,301,0
295,309,300,302,0
298,307,300,305,0
303,303,304,307,0
307,297,309,310,0
310,290,314,313,0
312,282,318,315,0
313,279,321,318,0
313,283,321,318,0
310,289,319,317,0
305,289,316,316,0
302,287,314,315,0
301,284,313,314,0
302,281,312,314,0
302,277,312,314,0
303,275,311,313,0
303,278,311,312,0
302,286,312,311,0
300,294,311,309,0
297,301,311,309,0
294,306,310,310,0
292,309,309,311,0
291,312,308,312,0
292,313,307,313,0
294,312,308,313,0
296,315,307,313,0
298,316,306,312,0
298,313,305,311,0
299,308,304,309,0
300,305,303,308,0
300,307,303,307,0
301,313,303,306,0
302,320,303,305,0
304,324,304,306,0
308,323,306,309,0
313,317,309,312,0
318,311,313,316,0
322,306,316,319,0
323,298,317,320,0
321,290,316,320,0
317,286,315,321,0
313,286,313,320,0
307,285,311,318,0
304,283,307,317,0
302,286,304,315,0
302,294,301,313,0
300,305,298,310,0
297,313,295,307,0
294,320,293,304,0
293,327,294,303,0
296,333,296,303,0
301,336,299,305,0
305,335,300,307,0
306,330,301,308,0
304,320,302,308,0
301,306,302,307,0
299,295,300,308,0
298,289,298,307,0
301,286,296,307,0
303,284,293,307,0
306,282,291,308,0
308,281,292,309,0
307,280,293,311,0
304,279,295,312,0
301,278,297,312,0
300,283,299,313,0
303,297,302,314,0
306,316,304,313,0
309,334,306,313,0
310,348,305,310,0
309,355,304,307,0
305,354,302,304,0
303,347,300,301,0
300,337,299,299,0
299,322,298,298,0
299,303,297,299,0
301,288,297,300,0
307,282,298,304,0
314,287,300,307,0
318,300,300,308,0
318,314,297,308,0
313,322,293,305,0
306,326,290,303,0
300,323,289,301,0
294,317,289,301,0
291,308,290,300,0
290,299,292,301,0
292,297,296,304,0
295,300,301,308,0
299,306,306,311,0
303,310,310,313,0
304,308,313,314,0
302,298,314,315,0
301,287,315,316,0
299,279,314,314,0
298,275,311,311,0
298,281,308,309,0
300,296,307,307,0
304,316,307,307,0
307,332,306,308,0
308,338,305,308,0
307,336,303,309,0
305,328,302,309,0
302,318,302,310,0
300,310,301,311,0
300,305,301,312,0
300,304,301,311,0
301,304,301,310,0
302,305,301,308,0
303,305,301,308,0
306,303,302,308,0
311,300,303,309,0
314,297,304,311,0
316,295,305,312,0
315,294,305,313,0
314,293,306,314,0
315,292,308,316,0
316,295,309,316,0
316,300,310,315,0
313,302,311,313,0
308,298,311,312,0
304,289,313,312,0
302,287,314,312,0
301,296,314,309,0
299,311,313,306,0
298,327,310,303,0
296,334,307,300,0
296,329,305,299,0
297,320,306,299,0
298,311,307,300,0
298,303,307,302,0
297,297,306,303,0
296,293,305,305,0
298,292,303,306,0
301,288,302,307,0
303,281,299,307,0
303,274,297,306,0
302,274,297,306,0
302,280,297,306,0
302,286,296,305,0
301,287,295,304,0
300,286,294,303,0
300,286,293,303,0
302,288,293,304,0
303,288,295,304,0
304,287,296,305,0
307,290,298,307,0
311,296,300,307,0
314,300,301,307,0
317,298,303,307,0
319,294,303,307,0
318,292,301,307,0
318,300,301,308,0
319,319,303,310,0
320,340,306,311,0
319,349,306,309,0
314,345,304,305,0
308,336,302,302,0
303,332,300,300,0
301,336,299,298,0
300,348,298,296,0
299,355,295,293,0
298,351,292,290,0
297,343,289,289,0
298,333,288,290,0
299,326,289,293,0
302,320,292,296,0
304,314,297,300,0
306,309,303,305,0
306,307,310,310,0
306,309,314,313,0
305,312,316,315,0
305,316,317,315,0
305,321,317,315,0
305,323,316,313,0
305,322,313,312,0
304,319,311,310,0
304,315,309,309,0
306,314,309,309,0
310,315,309,309,0
314,316,310,310,0
316,316,310,310,0
317,313,309,310,0
315,306,306,308,0
309,295,303,306,0
303,283,301,305,0
298,274,300,304,0
296,272,299,304,0
297,274,299,304,0
299,275,299,306,0
301,273,301,308,0
303,266,304,309,0
303,257,306,311,0
303,252,308,313,0
303,249,309,314,0
303,243,310,316,0
305,235,312,318,0
309,232,315,321,0
311,235,315,322,0
313,247,316,322,0
317,274,318,322,0
324,311,320,322,0
327,339,318,319,0
325,353,314,315,0
321,359,309,312,0
318,361,305,309,0
314,360,303,306,0
311,357,301,304,0
310,351,301,301,0
309,341,300,299,0
307,331,298,298,0
304,326,298,297,0
302,323,298,298,0
302,323,300,300,0
303,321,302,302,0
305,318,303,303,0
305,316,303,304,0
305,318,302,306,0
305,322,302,307,0
307,322,303,309,0
309,317,306,310,0
310,307,308,311,0
310,296,310,311,0
309,291,312,309,0
307,292,312,308,0
304,296,311,306,0
300,302,310,305,0
295,308,310,305,0
292,311,310,305,0
291,312,311,306,0
292,310,312,307,0
294,308,312,307,0
299,312,312,307,0
306,319,312,307,0
313,321,313,307,0
318,314,311,305,0
318,298,308,302,0
315,276,302,298,0
309,252,295,295,0
303,228,291,295,0
299,213,290,297,0
298,220,294,303,0
300,248,300,307,0
302,277,304,309,0
304,299,306,309,0
305,315,307,307,0
307,328,308,306,0
308,335,308,305,0
306,334,309,304,0
304,327,311,304,0
302,317,312,304,0
298,307,310,304,0
294,299,308,306,0
293,295,307,307,0
293,295,305,308,0
294,299,304,309,0
297,304,305,310,0
300,308,306,311,0
303,310,308,312,0
304,307,310,313,0
304,297,311,312,0
304,286,314,313,0
307,281,319,316,0
312,287,322,318,0
315,295,323,319,0
316,304,321,318,0
318,312,318,316,0
320,318,314,314,0
321,322,311,311,0
320,322,310,308,0
315,316,307,305,0
307,307,304,303,0
300,300,302,301,0
295,298,301,301,0
292,298,300,301,0
290,298,301,302,0
290,299,303,304,0
291,303,304,306,0
294,311,305,308,0
296,322,306,308,0
299,330,305,308,0
302,335,306,309,0
309,339,310,311,0
317,342,314,314,0
323,343,318,314,0
322,338,316,313,0
315,326,311,311,0
307,311,306,310,0
302,299,303,310,0
301,295,303,311,0
302,298,304,312,0
303,298,305,312,0
303,294,306,311,0
301,288,305,308,0
299,283,303,306,0
297,282,302,304,0
296,284,301,304,0
296,285,302,304,0
295,283,302,304,0
295,278,301,303,0
294,274,302,302,0
295,275,302,301,0
297,281,302,301,0
300,291,303,303,0
302,298,304,304,0
305,304,306,307,0
309,311,308,311,0
311,318,311,312,0
310,317,311,311,0
306,308,309,309,0
302,299,308,307,0
301,293,307,306,0
304,292,308,307,0
307,292,309,308,0
309,288,308,308,0
307,285,307,308,0
304,283,306,307,0
304,280,306,308,0
305,277,307,309,0
306,276,307,309,0
304,276,305,308,0
302,279,303,307,0
300,282,301,306,0
298,281,300,305,0
295,275,298,305,0
295,271,300,306,0
297,276,304,309,0
301,289,307,311,0
305,307,307,312,0
309,327,307,312,0
312,346,306,312,0
313,354,305,312,0
312,350,303,308,0
309,337,301,305,0
305,323,299,302,0
301,314,297,300,0
298,312,297,299,0
298,312,299,300,0
301,315,302,302,0
305,322,306,305,0
309,326,310,308,0
311,326,311,309,0
315,326,312,310,0
322,332,315,313,0
330,341,318,315,0
332,348,318,315,0
329,350,317,315,0
324,341,313,312,0
317,320,310,309,0
308,293,306,306,0
301,270,303,304,0
296,258,301,301,0
293,258,301,300,0
293,265,302,301,0
295,273,304,302,0
297,273,304,303,0
296,268,303,303,0
293,265,302,303,0
291,266,301,303,0
288,273,299,304,0
287,282,299,304,0
287,291,300,304,0
287,301,300,303,0
288,313,301,303,0
291,323,302,305,0
295,330,304,306,0
299,333,304,307,0
300,330,304,306,0
300,318,303,306,0
300,300,303,306,0
300,281,304,306,0
302,268,306,308,0
304,262,307,309,0
305,262,308,309,0
307,267,309,309,0
309,276,310,310,0
313,286,312,310,0
315,299,314,309,0
314,315,315,308,0
311,331,314,307,0
309,345,313,307,0
308,355,312,308,0
307,359,311,309,0
306,351,310,310,0
302,336,309,310,0
301,322,308,310,0
300,314,308,310,0
300,310,308,310,0
300,309,307,309,0
301,306,308,308,0
301,303,309,308,0
302,299,310,308,0
301,297,311,307,0
301,301,311,307,0
301,309,310,307,0
302,316,309,306,0
303,319,308,306,0
303,321,306,306,0
302,322,304,305,0
300,321,303,304,0
299,319,303,305,0
298,313,303,306,0
298,303,304,307,0
298,293,305,308,0
299,283,306,308,0
301,274,307,309,0
301,268,308,308,0
301,262,308,307,0
301,255,308,307,0
301,247,309,307,0
299,240,309,307,0
299,234,309,308,0
298,233,309,308,0
299,238,309,309,0
301,254,309,310,0
304,277,310,310,0
307,301,310,310,0
309,320,308,308,0
309,331,305,307,0
308,335,305,306,0
307,335,304,304,0
307,337,305,302,0
308,340,305,301,0
310,344,307,302,0
316,349,310,305,0
321,349,311,307,0
323,341,310,308,0
320,329,306,307,0
316,318,302,306,0
312,309,299,306,0
308,304,297,306,0
306,302,296,306,0
303,302,296,305,0
301,303,296,304,0
300,305,298,304,0
300,311,300,305,0
302,316,303,306,0
303,314,303,306,0
303,306,303,306,0
303,297,303,306,0
305,289,303,307,0
307,284,303,308,0
310,282,303,309,0
314,285,306,312,0
319,295,310,316,0
319,302,313,318,0
315,304,313,318,0
310,307,312,317,0
306,309,311,316,0
305,305,310,316,0
305,298,306,314,0
303,291,301,310,0
301,287,295,307,0
301,290,293,306,0
302,300,292,305,0
303,307,292,304,0
303,309,292,304,0
302,313,293,303,0
302,316,296,303,0
301,316,299,303,0
301,312,303,304,0
300,305,306,304,0
298,295,309,305,0
298,285,312,306,0
298,280,314,307,0
299,280,314,307,0
301,281,314,308,0
302,281,313,308,0
306,282,313,310,0
312,288,315,312,0
316,298,317,313,0
316,306,317,313,0
314,313,315,313,0
311,321,313,311,0
309,326,310,309,0
306,324,309,307,0
302,316,307,304,0
298,305,304,302,0
295,293,303,303,0
294,281,303,307,0
294,272,303,310,0
295,268,304,313,0
295,271,303,315,0
295,278,302,315,0
296,288,302,315,0
298,298,302,315,0
299,305,303,315,0
301,306,304,316,0
302,305,306,316,0
303,303,306,315,0
304,304,306,314,0
304,305,306,313,0
304,307,305,312,0
304,310,305,311,0
305,313,306,311,0
306,315,307,311,0
306,316,308,311,0
306,316,308,310,0
306,316,308,310,0
305,315,308,310,0
304,312,307,310,0
304,309,306,311,0
303,306,306,311,0
303,303,306,312,0
303,300,307,315,0
302,296,309,318,0
303,292,311,320,0
303,292,313,322,0
304,294,316,323,0
305,298,316,322,0
305,301,314,320,0
307,307,313,319,0
312,318,313,319,0
318,329,315,320,0
322,334,315,319,0
322,329,314,317,0
317,318,310,315,0
309,305,306,312,0
302,295,303,310,0
299,290,301,310,0
298,291,300,310,0
299,291,300,310,0
301,291,301,311,0
304,288,302,313,0
307,283,305,314,0
311,284,308,315,0
314,289,308,315,0
315,296,306,314,0
313,295,305,311,0
309,281,304,310,0
305,259,305,310,0
303,239,306,309,0
303,237,306,310,0
305,257,307,311,0
308,284,306,312,0
309,304,305,313,0
309,315,305,314,0
309,325,305,314,0
307,333,305,314,0
305,337,303,313,0
303,339,302,312,0
303,340,300,310,0
303,337,300,308,0
303,331,301,307,0
303,323,301,306,0
304,316,302,307,0
305,311,302,307,0
304,309,303,308,0
303,312,304,309,0
303,317,304,310,0
301,321,303,311,0
299,324,302,309,0
298,327,302,308,0
298,326,302,307,0
298,322,302,307,0
297,310,302,308,0
294,296,300,307,0
291,285,298,307,0
291,281,298,308,0
294,284,299,308,0
297,290,300,308,0
300,298,301,308,0
301,305,300,306,0
301,309,298,305,0
300,309,295,305,0
300,308,292,304,0
301,304,292,305,0
303,298,293,306,0
305,289,296,308,0
309,279,297,310,0
311,271,298,311,0
312,267,299,312,0
313,269,301,313,0
314,278,302,312,0
314,294,304,312,0
315,309,307,311,0
316,320,309,311,0
317,329,310,311,0
317,334,310,312,0
318,335,311,314,0
319,333,313,315,0
320,330,315,317,0
319,327,318,318,0
318,324,321,318,0
314,321,320,316,0
306,314,317,312,0
298,307,312,309,0
292,304,309,307,0
290,304,308,307,0
291,308,306,307,0
294,313,306,308,0
298,316,307,309,0
302,313,308,309,0
303,306,307,308,0
301,299,306,306,0
298,296,306,304,0
294,294,306,303,0
293,289,305,304,0
293,286,307,305,0
295,283,310,309,0
298,281,313,313,0
301,284,315,316,0
303,294,316,317,0
305,309,316,316,0
305,322,315,314,0
306,328,315,312,0
306,323,315,312,0
306,309,316,313,0
305,291,317,313,0
305,272,319,314,0
306,261,319,315,0
306,261,318,313,0
306,273,315,309,0
304,294,310,305,0
303,314,307,302,0
304,330,304,300,0
306,341,304,300,0
307,346,305,300,0
307,347,306,300,0
306,346,305,302,0
304,345,305,303,0
304,344,305,305,0
306,348,306,307,0
308,352,307,308,0
310,355,309,309,0
312,359,311,310,0
315,359,311,310,0
315,349,310,308,0
313,334,307,307,0
310,317,306,306,0
307,301,306,307,0
304,286,308,308,0
301,277,309,308,0
300,273,308,309,0
299,274,308,309,0
300,276,308,309,0
301,278,310,309,0
303,281,311,310,0
304,285,311,310,0
303,283,311,311,0
301,280,309,311,0
298,277,306,312,0
298,280,305,314,0
301,289,307,317,0
304,304,308,318,0
307,319,306,316,0
307,327,304,312,0
307,327,301,308,0
307,317,299,304,0
308,294,298,302,0
310,267,299,302,0
313,250,301,303,0
316,252,306,306,0
320,272,311,309,0
323,302,316,311,0
325,332,318,312,0
326,351,317,312,0
324,358,315,310,0
316,354,313,309,0
307,345,311,307,0
300,334,310,306,0
296,325,308,305,0
294,317,307,305,0
294,307,306,304,0
293,301,305,303,0
294,300,304,303,0
295,304,305,303,0
298,310,306,303,0
303,317,308,304,0
306,320,309,304,0
307,319,309,304,0
307,320,310,304,0
306,321,310,305,0
304,321,309,304,0
301,319,308,304,0
298,315,305,303,0
297,313,303,303,0
298,311,301,303,0
299,305,299,303,0
300,296,298,303,0
300,285,298,303,0
301,275,298,304,0
301,272,301,305,0
302,278,304,306,0
303,289,307,307,0
303,299,307,306,0
303,304,306,305,0
304,303,305,305,0
306,297,305,305,0
308,290,306,306,0
309,289,307,307,0
311,295,307,308,0
313,305,305,307,0
313,313,302,307,0
312,319,300,305,0
311,325,299,304,0
311,328,299,303,0
310,329,300,302,0
310,327,300,302,0
309,325,300,302,0
310,325,301,303,0
312,327,301,303,0
313,329,302,303,0
313,331,303,303,0
314,332,305,304,0
316,329,308,306,0
317,316,310,307,0
316,296,311,307,0
314,276,313,308,0
313,261,317,310,0
313,252,320,312,0
312,247,321,313,0
312,251,321,313,0
313,265,319,311,0
311,288,316,308,0
309,309,312,304,0
305,323,309,301,0
301,331,307,300,0
298,333,306,300,0
296,325,306,301,0
294,310,305,303,0
293,296,304,304,0
293,283,304,305,0
294,277,304,307,0
296,278,305,308,0
298,279,305,308,0
298,278,305,309,0
299,281,305,309,0
300,286,306,310,0
303,291,308,311,0
307,293,310,313,0
312,295,310,313,0
315,302,310,312,0
318,312,308,310,0
318,319,308,309,0
319,321,307,309,0
319,319,307,309,0
319,313,308,310,0
318,309,309,309,0
315,310,310,308,0
310,314,310,306,0
307,323,310,305,0
306,334,309,303,0
306,342,305,301,0
307,347,303,300,0
309,349,301,299,0
309,346,299,297,0
308,341,298,296,0
307,335,298,297,0
308,330,300,299,0
310,328,302,301,0
310,326,303,302,0
307,322,303,302,0
305,314,303,302,0
302,303,304,302,0
298,294,306,302,0
296,283,307,304,0
295,275,307,304,0
296,273,307,306,0
298,274,307,306,0
299,277,306,306,0
298,280,305,305,0
298,281,304,305,0
298,285,306,307,0
301,292,309,310,0
304,298,312,313,0
307,303,314,315,0
312,308,316,317,0
315,313,316,316,0
318,317,315,313,0
319,323,315,310,0
319,330,315,307,0
317,333,314,304,0
313,330,313,303,0
308,324,310,302,0
304,315,307,303,0
302,309,304,305,0
302,307,303,307,0
302,306,302,308,0
301,309,301,308,0
301,314,302,308,0
302,320,303,308,0
302,326,305,308,0
301,324,306,308,0
301,314,305,308,0
300,299,305,309,0
301,284,305,312,0
304,270,307,314,0
305,260,308,315,0
305,256,310,316,0
303,253,311,316,0
300,251,313,317,0
300,255,317,317,0
302,265,319,317,0
305,275,320,315,0
307,278,318,313,0
309,278,316,312,0
309,282,314,311,0
310,297,313,311,0
311,323,312,310,0
311,350,311,309,0
309,369,310,308,0
307,376,309,306,0
304,369,308,305,0
302,356,308,304,0
301,342,309,304,0
302,327,311,305,0
302,312,311,305,0
300,297,309,304,0
297,287,309,304,0
296,282,309,305,0
297,286,309,306,0
300,291,309,307,0
303,294,308,308,0
307,295,307,310,0
311,298,305,311,0
312,301,304,310,0
311,303,302,309,0
307,306,300,307,0
303,308,299,305,0
300,307,299,304,0
300,308,301,305,0
303,312,304,306,0
306,316,308,308,0
308,314,309,310,0
306,308,308,311,0
302,299,307,311,0
300,291,306,311,0
300,289,307,311,0
300,288,308,311,0
301,284,307,310,0
301,279,307,309,0
303,277,308,309,0
306,281,309,309,0
308,287,311,309,0
310,296,313,310,0
310,305,315,310,0
309,308,316,309,0
305,302,314,306,0
301,295,310,303,0
299,295,307,302,0
299,302,303,300,0
298,306,300,298,0
297,306,299,297,0
295,305,299,300,0
295,307,301,303,0
297,305,304,306,0
300,303,305,307,0
302,303,305,306,0
303,307,306,305,0
306,317,306,304,0
308,328,307,304,0
310,338,308,304,0
311,343,309,305,0
310,342,307,306,0
309,337,306,306,0
308,332,303,307,0
307,328,301,307,0
307,325,299,307,0
309,325,298,307,0
309,324,298,307,0
308,319,299,305,0
307,310,299,304,0
306,299,300,304,0
307,291,301,305,0
309,287,304,307,0
310,284,308,310,0
312,281,310,311,0
312,280,311,311,0
310,279,312,311,0
309,282,313,311,0
309,290,316,312,0
310,300,317,312,0
310,310,317,311,0
307,312,314,310,0
305,309,311,310,0
303,302,310,310,0
303,294,307,310,0
303,288,302,309,0
304,286,298,310,0
304,292,296,310,0
303,300,296,311,0
301,306,297,311,0
298,312,300,312,0
297,320,306,313,0
298,326,311,315,0
298,324,315,315,0
298,313,317,314,0
298,296,317,313,0
298,275,317,312,0
299,261,317,311,0
303,263,319,312,0
305,276,321,311,0
306,295,321,310,0
305,315,319,309,0
303,331,314,307,0
300,338,310,305,0
297,340,306,303,0
295,341,305,301,0
295,342,304,302,0
297,343,304,303,0
299,342,304,304,0
300,336,304,305,0
299,324,303,305,0
297,307,301,305,0
296,289,301,305,0
296,278,302,306,0
298,274,305,308,0
300,271,307,309,0
299,265,309,309,0
297,260,310,310,0
296,260,311,310,0
296,268,310,310,0
297,284,309,309,0
299,295,307,309,0
301,300,305,308,0
304,299,304,306,0
306,298,302,304,0
308,302,301,301,0
311,311,300,299,0
315,323,300,299,0
319,331,300,300,0
319,329,299,301,0
317,319,298,302,0
314,309,296,304,0
313,305,294,305,0
312,310,293,305,0
311,320,294,305,0
310,330,295,305,0
308,336,295,305,0
307,337,297,305,0
305,332,299,306,0
305,324,302,306,0
304,316,305,305,0
303,309,307,304,0
304,304,309,304,0
305,301,310,306,0
306,296,310,308,0
307,291,310,309,0
310,292,312,312,0
314,300,314,313,0
317,312,317,314,0
318,326,318,313,0
315,337,317,310,0
310,341,315,307,0
306,335,313,304,0
304,321,311,303,0
305,304,310,302,0
306,292,310,301,0
308,291,311,301,0
311,298,311,302,0
312,305,309,302,0
312,309,307,301,0
309,304,304,301,0
306,293,303,302,0
303,283,304,302,0
301,275,305,302,0
298,268,305,302,0
295,262,305,301,0
293,259,306,302,0
295,261,308,303,0
299,276,310,304,0
303,299,309,303,0
302,318,305,300,0
298,328,301,297,0
296,328,299,296,0
296,323,299,297,0
297,315,300,299,0
300,308,302,301,0
303,305,304,303,0
306,306,305,304,0
308,305,306,304,0
308,302,305,303,0
306,298,303,301,0
302,296,302,300,0
300,300,301,301,0
299,306,303,303,0
300,312,305,305,0
301,310,305,308,0
301,300,306,310,0
302,284,307,311,0
304,272,308,311,0
307,272,309,312,0
312,285,312,313,0
318,304,315,314,0
323,321,318,315,0
326,329,320,315,0
324,328,320,315,0
319,324,319,314,0
313,324,318,313,0
308,325,317,312,0
302,322,314,312,0
297,314,312,312,0
295,301,311,313,0
295,288,310,314,0
295,279,309,313,0
295,279,307,312,0
295,282,304,312,0
297,286,303,312,0
299,291,304,311,0
302,293,303,309,0
303,290,302,307,0
304,287,302,305,0
307,292,304,304,0
311,306,307,304,0
314,322,308,305,0
314,335,309,305,0
311,337,309,305,0
306,327,309,306,0
301,312,309,305,0
298,302,309,304,0
296,301,309,303,0
296,304,309,304,0
297,299,308,303,0
298,291,307,303,0
300,283,307,303,0
303,279,308,305,0
307,280,310,307,0
311,291,313,311,0
314,307,315,313,0
316,320,316,314,0
316,327,315,313,0
315,326,312,311,0
311,323,309,308,0
308,320,307,306,0
306,317,305,304,0
305,315,305,304,0
306,314,305,304,0
307,315,305,304,0
307,317,304,304,0
306,321,304,303,0
305,323,304,303,0
305,323,304,304,0
304,314,304,304,0
305,300,305,307,0
308,292,307,311,0
312,302,311,313,0
316,318,312,314,0
318,327,312,313,0
320,326,311,312,0
320,323,310,310,0
317,318,307,307,0
312,316,305,304,0
308,314,305,303,0
304,311,306,302,0
300,306,306,302,0
300,301,307,303,0
301,299,307,304,0
304,297,306,305,0
307,298,303,305,0
311,301,299,305,0
316,303,297,305,0
320,302,295,306,0
321,301,295,306,0
318,302,297,308,0
315,307,301,308,0
309,310,303,308,0
303,308,303,306,0
298,300,304,307,0
296,289,306,308,0
296,281,308,307,0
295,275,308,307,0
294,273,306,306,0
293,274,304,304,0
292,278,303,303,0
293,285,302,303,0
295,293,301,304,0
297,303,302,305,0
300,315,303,305,0
301,325,303,304,0
303,326,303,303,0
303,318,303,304,0
305,308,304,306,0
306,295,305,308,0
305,280,304,309,0
303,263,303,310,0
302,251,301,311,0
303,250,300,311,0
306,263,300,311,0
309,284,299,309,0
311,303,298,307,0
311,317,297,306,0
309,325,297,306,0
307,328,298,307,0
307,327,297,308,0
308,326,299,310,0
308,325,301,312,0
308,323,302,313,0
308,320,303,313,0
307,320,303,313,0
305,320,302,312,0
303,318,301,311,0
302,316,300,310,0
303,312,299,309,0
304,308,299,309,0
305,306,301,307,0
304,303,302,307,0
302,298,303,306,0
301,292,304,306,0
301,285,306,306,0
302,278,308,307,0
306,273,311,309,0
308,270,313,309,0
309,267,313,309,0
309,271,313,309,0
311,286,313,310,0
313,308,314,311,0
316,327,314,312,0
317,340,313,311,0
317,346,309,310,0
315,347,305,308,0
312,344,302,307,0
311,343,302,306,0
309,339,302,305,0
308,331,302,306,0
308,324,302,306,0
310,317,304,307,0
311,310,304,308,0
309,300,303,307,0
306,287,301,306,0
303,281,302,306,0
302,287,305,307,0
303,299,308,306,0
303,313,311,305,0
302,317,312,304,0
300,312,311,303,0
296,298,307,302,0
293,284,305,302,0
292,276,304,303,0
292,276,302,304,0
294,281,301,305,0
298,292,298,304,0
300,298,297,303,0
299,297,295,300,0
298,293,294,299,0
296,290,294,297,0
294,290,295,297,0
295,294,299,298,0
299,304,303,302,0
304,315,307,306,0
306,322,309,309,0
306,326,309,311,0
305,327,309,311,0
304,324,310,311,0
303,318,311,311,0
303,313,312,311,0
304,309,313,310,0
304,305,313,308,0
305,304,312,306,0
306,305,310,304,0
308,307,309,302,0
311,309,308,302,0
311,309,307,302,0
309,303,306,301,0
306,298,303,301,0
303,298,302,301,0
300,301,300,300,0
299,305,297,299,0
298,310,296,299,0
298,318,295,298,0
299,328,295,298,0
301,335,296,298,0
302,338,297,298,0
302,335,297,298,0
301,324,297,300,0
301,309,298,302,0
300,292,300,305,0
299,275,302,306,0
297,267,302,307,0
296,264,303,308,0
296,263,303,309,0
298,265,305,310,0
300,270,304,309,0
302,278,303,308,0
305,287,303,307,0
309,294,304,306,0
313,300,305,305,0
316,307,306,303,0
317,314,307,301,0
316,322,308,300,0
313,330,307,300,0
309,338,307,301,0
305,344,307,302,0
301,344,307,305,0
297,342,307,307,0
294,336,308,309,0
295,328,309,312,0
298,321,312,314,0
304,317,315,316,0
311,317,315,317,0
315,314,313,317,0
317,305,311,316,0
316,293,309,314,0
311,281,306,311,0
303,271,303,308,0
296,263,302,305,0
290,257,303,304,0
288,251,307,304,0
290,253,312,306,0
295,264,316,308,0
298,276,318,309,0
300,288,317,309,0
299,301,314,309,0
298,307,311,308,0
296,305,308,307,0
296,301,306,309,0
298,299,306,311,0
302,305,309,313,0
307,317,310,314,0
310,327,310,314,0
313,336,308,313,0
315,344,308,312,0
314,346,308,311,0
310,337,307,309,0
304,325,306,307,0
302,317,305,306,0
300,315,302,304,0
300,318,298,302,0
299,326,296,300,0
300,334,295,301,0
300,339,296,301,0
301,335,298,303,0
302,325,300,305,0
304,318,303,308,0
308,313,306,311,0
311,308,309,312,0
312,303,311,312,0
310,294,312,312,0
307,280,311,311,0
303,261,311,310,0
299,241,310,310,0
297,226,310,310,0
296,222,310,310,0
296,232,309,310,0
297,253,307,309,0
297,275,304,307,0
297,296,301,305,0
300,316,299,305,0
301,331,297,305,0
300,338,296,306,0
297,338,296,307,0
296,335,298,308,0
295,333,301,309,0
294,331,304,309,0
294,325,305,307,0
293,316,305,304,0
293,305,305,301,0
294,300,305,298,0
295,303,304,296,0
299,314,303,295,0
303,326,304,296,0
309,334,309,300,0
315,336,315,305,0
319,334,318,309,0
321,329,320,312,0
320,326,319,312,0
318,325,315,310,0
314,324,310,307,0
308,324,305,303,0
303,323,301,300,0
301,324,299,299,0
301,328,299,301,0
304,334,301,304,0
307,335,304,306,0
310,329,308,308,0
310,316,310,308,0
308,303,311,308,0
305,292,313,307,0
302,287,314,307,0
300,287,314,307,0
299,289,313,308,0
298,290,312,308,0
298,289,312,309,0
299,288,311,308,0
300,289,309,308,0
303,290,308,308,0
306,294,306,308,0
307,299,305,307,0
308,306,304,306,0
307,316,304,306,0
308,329,305,308,0
310,338,309,310,0
314,338,312,312,0
316,335,314,313,0
314,331,314,312,0
311,326,311,309,0
306,317,309,307,0
302,304,308,306,0
299,291,307,305,0
297,281,307,305,0
295,276,306,304,0
295,280,305,304,0
299,292,305,305,0
304,304,305,308,0
307,307,306,309,0
309,302,305,310,0
308,292,303,310,0
306,285,303,310,0
304,282,305,310,0
303,283,309,311,0
302,286,312,312,0
302,289,314,313,0
302,287,315,313,0
302,285,318,314,0
304,289,319,314,0
308,303,321,313,0
313,318,321,311,0
315,327,319,309,0
314,329,315,306,0
311,327,312,304,0
308,320,309,303,0
302,311,305,302,0
296,306,301,300,0
291,306,300,299,0
288,307,298,298,0
287,308,298,298,0
286,307,297,299,0
287,304,297,300,0
289,300,298,302,0
292,294,300,304,0
294,289,302,306,0
298,292,306,308,0
302,305,310,310,0
304,317,312,309,0
304,323,310,308,0
303,325,309,306,0
301,323,308,305,0
300,322,309,307,0
301,324,311,308,0
306,329,313,310,0
310,335,314,310,0
311,335,312,309,0
307,331,309,307,0
302,329,305,305,0
298,328,303,303,0
297,327,300,303,0
296,320,298,301,0
294,307,295,300,0
292,288,293,300,0
291,267,292,301,0
292,249,292,303,0
297,236,294,306,0
302,233,297,310,0
307,237,301,313,0
310,245,304,315,0
312,254,306,316,0
313,261,308,316,0
313,267,310,315,0
311,273,312,312,0
309,278,313,309,0
308,287,312,306,0
306,301,311,304,0
305,318,311,304,0
305,331,310,305,0
306,338,310,305,0
304,342,308,306,0
303,343,306,306,0
302,346,305,306,0
302,350,304,305,0
300,349,302,305,0
297,343,301,305,0
295,332,300,306,0
296,321,301,309,0
300,314,303,311,0
304,307,304,313,0
306,298,305,315,0
306,285,306,316,0
304,271,305,315,0
302,265,305,314,0
302,271,306,314,0
303,284,307,313,0
304,298,307,311,0
305,309,307,309,0
308,318,308,308,0
311,325,309,308,0
313,328,310,309,0
312,326,307,308,0
308,318,303,307,0
305,306,299,306,0
305,298,296,307,0
308,300,296,310,0
312,308,296,312,0
315,313,297,312,0
316,312,297,312,0
314,307,296,311,0
310,302,296,311,0
304,297,296,311,0
299,293,295,311,0
296,290,295,313,0
296,290,296,315,0
297,293,297,316,0
299,294,299,317,0
301,293,301,317,0
304,298,304,317,0
310,306,307,317,0
316,313,312,318,0
321,317,316,318,0
320,315,317,316,0
313,307,314,312,0
304,298,310,310,0
296,290,307,309,0
292,283,306,310,0
291,280,306,311,0
291,280,305,309,0
291,277,304,307,0
292,272,303,306,0
294,267,304,307,0
297,266,306,308,0
302,269,307,311,0
310,275,309,312,0
315,277,309,313,0
317,274,309,312,0
315,268,308,311,0
312,267,308,312,0
311,277,311,314,0
313,297,313,316,0
312,314,312,316,0
310,324,308,314,0
307,326,305,312,0
305,327,303,309,0
303,326,303,306,0
300,323,303,304,0
296,319,305,302,0
292,315,306,301,0
290,316,306,301,0
291,319,306,301,0
294,322,306,302,0
300,327,307,304,0
309,333,309,306,0
319,340,310,308,0
326,343,309,309,0
328,340,308,309,0
324,330,305,307,0
318,319,302,305,0
311,311,301,305,0
307,307,301,306,0
304,307,303,308,0
303,312,304,308,0
300,319,302,307,0
296,323,299,304,0
293,324,296,303,0
291,322,294,304,0
293,318,294,306,0
296,317,295,309,0
299,315,296,311,0
301,309,295,312,0
301,301,296,311,0
301,294,298,312,0
303,291,300,312,0
306,289,303,312,0
309,285,308,312,0
312,284,311,313,0
313,286,313,313,0
313,287,314,314,0
313,288,313,315,0
313,291,313,316,0
315,297,312,316,0
317,305,311,315,0
319,312,308,312,0
319,315,307,310,0
318,313,307,308,0
314,307,307,308,0
310,300,308,308,0
305,296,310,309,0
301,291,311,311,0
299,283,312,313,0
297,275,313,313,0
297,273,315,314,0
300,286,319,316,0
305,309,322,317,0
307,332,321,316,0
307,345,318,314,0
306,343,314,312,0
305,332,311,311,0
305,317,308,310,0
304,304,307,309,0
303,296,306,308,0
301,294,306,306,0
299,294,306,305,0
299,294,305,303,0
298,292,303,302,0
297,295,303,301,0
297,304,305,301,0
298,316,306,301,0
298,324,306,301,0
299,323,307,302,0
300,316,308,304,0
303,302,309,306,0
305,289,308,309,0
305,283,307,310,0
304,285,306,310,0
303,290,305,310,0
301,295,305,310,0
301,296,305,309,0
300,294,304,307,0
297,292,303,305,0
297,295,303,304,0
298,302,303,305,0
300,309,304,305,0
301,312,305,306,0
301,313,306,307,0
301,312,309,308,0
301,313,312,309,0
304,321,315,311,0
307,328,318,311,0
309,329,318,311,0
308,323,316,310,0
307,312,314,309,0
305,296,312,307,0
304,280,312,308,0
305,270,311,308,0
307,269,311,308,0
310,277,309,308,0
314,291,308,308,0
317,303,306,308,0
316,306,304,308,0
312,300,302,306,0
306,290,298,305,0
301,282,297,304,0
300,280,299,305,0
301,287,302,305,0
304,301,304,305,0
305,315,305,305,0
305,323,306,305,0
304,322,306,306,0
304,318,306,306,0
305,317,304,306,0
305,318,303,305,0
304,317,302,304,0
301,312,301,303,0
299,308,301,302,0
297,306,302,303,0
297,305,302,305,0
297,304,302,307,0
299,306,304,309,0
301,308,306,310,0
303,309,307,311,0
304,306,308,311,0
304,300,306,310,0
304,297,305,309,0
305,298,304,309,0
306,300,304,309,0
308,303,304,308,0
308,306,305,308,0
308,309,305,306,0
305,310,306,304,0
301,308,306,302,0
298,302,308,302,0
298,293,311,303,0
298,288,313,303,0
299,291,313,304,0
300,299,313,304,0
301,307,312,303,0
304,315,310,305,0
307,319,309,307,0
310,319,307,310,0
311,315,303,311,0
310,310,300,311,0
309,304,298,311,0
307,301,297,310,0
307,302,297,310,0
306,304,298,309,0
305,302,300,308,0
303,298,300,307,0
299,293,301,307,0
297,292,303,307,0
296,293,304,307,0
296,298,306,308,0
298,304,307,309,0
301,308,308,310,0
303,306,307,310,0
304,303,307,310,0
305,301,306,309,0
307,303,306,310,0
310,307,307,311,0
313,311,308,313,0
313,312,309,314,0
310,305,308,314,0
305,295,307,313,0
302,289,307,312,0
302,290,307,311,0
304,299,307,311,0
306,311,305,310,0
308,320,303,309,0
309,329,301,309,0
310,337,301,310,0
308,338,301,310,0
304,332,301,308,0
298,323,301,305,0
292,310,301,302,0
289,297,301,301,0
289,284,304,301,0
292,274,306,303,0
298,270,309,305,0
303,271,310,305,0
304,278,310,304,0
304,289,308,303,0
302,302,306,301,0
301,314,304,300,0
301,323,301,299,0
301,328,298,299,0
301,330,297,298,0
304,328,298,298,0
307,323,301,298,0
308,316,304,299,0
308,309,308,301,0
308,305,310,302,0
308,299,310,304,0
307,293,311,306,0
307,294,312,308,0
307,301,314,310,0
306,310,315,312,0
307,312,316,314,0
308,306,316,315,0
307,296,315,315,0
307,289,313,315,0
306,288,312,313,0
305,290,310,312,0
304,288,308,311,0
303,285,307,311,0
305,286,308,312,0
308,293,310,313,0
310,303,310,313,0
310,310,308,312,0
307,313,306,309,0
303,310,305,307,0
301,304,305,306,0
301,298,306,306,0
302,292,306,306,0
303,289,307,307,0
306,292,309,310,0
311,302,311,312,0
315,309,314,313,0
317,309,314,313,0
314,300,312,312,0
308,287,310,311,0
304,278,309,312,0
305,279,312,315,0
306,284,313,316,0
304,290,312,314,0
300,295,309,310,0
296,302,304,305,0
293,313,301,302,0
293,324,298,299,0
295,333,297,297,0
298,337,296,295,0
302,337,297,295,0
305,336,298,295,0
310,337,299,297,0
314,338,301,299,0
318,335,302,302,0
320,327,304,305,0
321,319,305,307,0
319,314,306,308,0
316,310,306,308,0
312,307,305,308,0
308,304,306,308,0
304,300,308,308,0
302,297,309,308,0
299,295,310,307,0
297,294,310,306,0
296,294,311,306,0
297,295,311,306,0
299,298,310,306,0
302,303,310,307,0
305,304,310,307,0
305,302,309,306,0
305,299,308,306,0
304,298,308,305,0
303,299,307,306,0
303,300,307,306,0
304,304,307,306,0
305,309,307,306,0
307,315,306,306,0
307,317,305,305,0
307,317,305,305,0
307,319,306,305,0
307,323,307,307,0
309,323,309,309,0
309,318,309,311,0
309,308,307,311,0
307,297,304,311,0
305,289,301,311,0
304,283,298,310,0
303,282,297,309,0
303,282,296,308,0
304,286,297,306,0
307,294,298,305,0
309,305,301,303,0
310,317,302,301,0
309,323,304,300,0
310,327,308,301,0
312,326,311,304,0
311,319,314,308,0
309,306,315,311,0
304,292,315,312,0
298,284,315,313,0
295,287,314,314,0
295,297,313,313,0
296,310,312,312,0
296,320,309,310,0
295,323,306,309,0
296,316,304,308,0
297,302,303,307,0
298,289,302,308,0
300,286,303,308,0
302,295,304,310,0
306,304,306,310,0
308,306,308,309,0
310,301,309,309,0
309,293,309,309,0
307,288,309,308,0
304,288,309,307,0
304,296,307,305,0
304,312,307,303,0
306,328,308,303,0
306,335,309,303,0
306,333,309,303,0
305,324,308,304,0
304,311,306,303,0
303,301,303,303,0
304,297,303,304,0
307,300,304,306,0
311,306,307,308,0
315,310,311,309,0
318,307,315,312,0
318,297,318,313,0
315,281,321,316,0
312,272,324,317,0
311,274,325,317,0
313,287,325,315,0
315,304,324,314,0
317,319,322,312,0
318,331,318,311,0
318,337,313,310,0
317,334,308,309,0
315,329,303,308,0
312,326,300,308,0
309,326,298,308,0
305,328,296,308,0
301,332,294,307,0
298,336,294,306,0
297,338,295,306,0
296,334,296,305,0
295,324,297,305,0
295,313,298,305,0
297,307,301,306,0
300,311,304,307,0
302,320,306,307,0
304,327,308,307,0
303,327,307,306,0
303,322,306,305,0
304,317,303,304,0
305,314,302,304,0
307,314,303,304,0
307,313,302,304,0
305,310,302,303,0
302,306,302,301,0
300,302,302,300,0
298,300,301,299,0
297,300,303,299,0
298,300,304,301,0
301,299,306,302,0
303,295,307,304,0
306,289,307,305,0
309,282,308,307,0
311,275,308,309,0
311,273,308,309,0
310,280,307,309,0
310,291,308,308,0
310,304,309,309,0
311,317,310,309,0
313,326,312,310,0
315,331,315,310,0
315,331,316,310,0
313,328,316,309,0
310,325,315,308,0
306,325,313,307,0
304,327,311,306,0
305,330,309,306,0
307,331,307,306,0
309,330,305,305,0
310,327,304,304,0
310,321,304,302,0
308,313,305,300,0
304,304,305,298,0
300,296,306,298,0
297,288,308,299,0
296,282,310,302,0
297,277,312,304,0
298,278,314,306,0
300,286,315,308,0
302,297,315,308,0
303,308,314,308,0
303,316,312,307,0
304,317,310,306,0
306,309,309,305,0
310,301,309,306,0
316,296,311,308,0
322,296,314,310,0
326,299,315,311,0
325,307,313,310,0
322,315,312,310,0
316,316,311,310,0
309,309,310,309,0
302,299,309,309,0
297,292,309,308,0
295,293,309,307,0
295,299,308,307,0
295,307,308,307,0
295,309,308,308,0
296,306,307,308,0
296,299,306,308,0
296,291,306,308,0
297,284,305,307,0
299,283,305,307,0
301,287,305,307,0
304,297,305,308,0
306,308,307,309,0
308,316,308,310,0
308,317,309,310,0
305,313,308,309,0
301,308,306,307,0
299,304,305,305,0
299,299,306,303,0
299,297,307,302,0
299,297,309,302,0
299,305,311,302,0
301,323,313,303,0
306,342,314,304,0
311,353,313,303,0
312,352,309,301,0
312,345,306,300,0
315,345,305,300,0
320,347,305,301,0
321,343,303,301,0
316,331,298,300,0
309,316,295,298,0
304,302,292,298,0
301,293,292,299,0
300,293,294,302,0
299,301,297,303,0
299,307,297,303,0
298,311,297,303,0
298,315,298,303,0
297,317,300,305,0
297,311,304,308,0
296,298,307,311,0
295,280,310,312,0
295,263,311,312,0
296,250,312,311,0
298,245,315,310,0
301,248,317,309,0
303,262,318,308,0
304,281,316,307,0
304,300,313,307,0
305,320,312,309,0
308,336,311,309,0
310,345,310,309,0
311,348,309,308,0
309,348,309,305,0
306,348,309,303,0
304,347,309,300,0
302,344,308,298,0
301,336,307,297,0
302,322,306,298,0
304,310,307,301,0
307,301,307,303,0
309,295,309,306,0
309,291,309,309,0
309,290,309,310,0
308,289,308,311,0
307,289,305,311,0
304,284,302,309,0
302,279,299,308,0
300,277,299,307,0
299,281,301,308,0
299,293,303,309,0
300,309,305,311,0
301,323,306,312,0
302,330,307,314,0
303,335,309,315,0
306,342,311,317,0
309,348,313,318,0
310,350,314,319,0
310,343,315,318,0
308,330,314,316,0
304,315,312,313,0
302,306,309,311,0
302,305,306,310,0
304,305,304,308,0
307,303,304,308,0
312,303,306,308,0
317,303,308,308,0
320,304,309,306,0
321,304,309,304,0
318,303,306,303,0
313,300,305,302,0
307,297,304,301,0
301,294,301,300,0
294,292,299,299,0
291,293,297,300,0
291,298,297,301,0
292,300,297,303,0
294,295,297,305,0
296,284,299,307,0
299,274,303,309,0
302,270,307,311,0
303,275,310,313,0
302,285,310,312,0
302,294,309,310,0
301,300,308,308,0
301,302,308,306,0
301,301,308,305,0
303,301,309,304,0
304,301,310,304,0
305,303,312,304,0
304,305,314,305,0
302,302,315,306,0
299,293,314,306,0
298,282,314,306,0
297,272,314,307,0
299,269,315,309,0
304,273,314,311,0
309,284,312,311,0
314,300,310,310,0
318,317,307,309,0
319,329,304,308,0
317,330,301,306,0
313,332,300,304,0
311,342,301,304,0
310,356,303,303,0
309,366,305,303,0
308,370,305,301,0
305,366,305,300,0
303,356,304,299,0
302,343,304,298,0
302,331,302,297,0
302,321,301,296,0
301,311,300,296,0
301,306,299,296,0
300,304,300,297,0
300,305,300,298,0
300,307,301,298,0
300,308,303,300,0
300,308,304,301,0
300,307,305,302,0
302,307,305,304,0
307,310,305,306,0
314,315,306,309,0
320,318,307,309,0
321,316,308,309,0
318,307,308,309,0
314,295,310,309,0
309,283,311,310,0
306,277,311,312,0
304,276,310,312,0
302,278,309,312,0
299,282,309,311,0
296,286,309,309,0
292,286,307,307,0
290,286,304,307,0
292,289,303,308,0
298,296,305,310,0
306,308,307,312,0
313,321,310,312,0
317,330,310,311,0
316,332,309,309,0
311,322,306,307,0
305,305,305,306,0
299,287,305,306,0
295,272,305,307,0
294,266,306,308,0
297,271,307,310,0
302,282,306,310,0
308,294,305,310,0
313,309,303,311,0
315,317,300,310,0
313,306,297,308,0
309,284,294,306,0
304,264,293,305,0
303,257,295,307,0
304,267,298,310,0
304,284,302,312,0
302,296,305,313,0
300,300,306,313,0
301,301,307,314,0
306,305,309,315,0
312,311,311,315,0
316,321,311,313,0
317,332,309,312,0
316,340,307,310,0
314,339,305,309,0
310,331,304,307,0
309,323,303,307,0
308,320,304,307,0
309,320,303,307,0
308,321,302,307,0
307,321,302,307,0
306,321,303,307,0
304,320,306,307,0
304,322,310,308,0
302,324,312,309,0
299,323,312,309,0
297,319,312,310,0
298,313,314,313,0
301,302,316,315,0
304,289,316,316,0
307,284,315,316,0
313,291,315,317,0
318,306,315,317,0
318,312,314,316,0
314,303,309,313,0
308,288,305,311,0
303,273,302,309,0
301,263,303,308,0
302,262,304,308,0
306,269,306,308,0
310,278,307,306,0
312,288,306,304,0
313,298,306,303,0
314,303,307,304,0
313,307,307,306,0
308,312,307,308,0
303,316,306,309,0
299,321,305,310,0
299,326,305,310,0
302,328,306,311,0
306,325,308,311,0
308,319,309,310,0
308,316,310,309,0
310,317,309,308,0
309,317,309,306,0
307,314,308,304,0
304,309,306,303,0
301,304,304,300,0
299,301,303,300,0
299,299,302,301,0
299,298,302,303,0
300,298,302,305,0
301,297,303,307,0
303,297,303,308,0
308,298,305,311,0
316,306,309,313,0
324,319,315,317,0
332,333,319,319,0
334,341,321,319,0
330,336,319,318,0
321,318,315,315,0
312,297,311,312,0
305,282,307,308,0
301,277,305,305,0
300,282,304,303,0
299,293,303,301,0
298,305,302,299,0
298,317,300,298,0
298,326,298,296,0
298,331,297,296,0
299,333,296,297,0
301,333,297,299,0
302,332,298,301,0
304,330,299,302,0
305,324,299,301,0
304,314,298,301,0
304,304,298,302,0
304,297,299,305,0
305,294,301,309,0
305,293,303,312,0
306,292,304,314,0
306,286,304,316,0
303,273,305,317,0
300,257,307,318,0
296,245,309,320,0
296,238,312,323,0
299,239,316,324,0
305,257,319,324,0
311,286,318,322,0
316,316,315,319,0
321,338,313,317,0
327,349,311,315,0
331,351,309,315,0
330,347,305,315,0
324,339,300,313,0
317,330,295,311,0
310,324,294,311,0
307,322,296,311,0
305,320,299,310,0
304,317,303,310,0
306,314,305,310,0
307,313,307,310,0
308,313,307,310,0
307,313,307,309,0
306,314,307,309,0
307,315,306,310,0
308,317,307,310,0
309,317,308,311,0
309,314,307,310,0
309,306,305,309,0
306,296,303,309,0
304,287,301,309,0
303,283,302,310,0
304,285,304,312,0
306,294,306,313,0
307,306,307,314,0
311,321,309,317,0
317,337,311,319,0
324,355,312,319,0
329,367,311,318,0
331,372,310,317,0
330,365,308,314,0
326,345,307,311,0
320,321,306,308,0
315,304,307,307,0
310,291,308,307,0
305,277,307,306,0
302,267,305,306,0
302,267,304,305,0
302,280,303,305,0
302,300,302,303,0
301,315,300,301,0
299,320,298,300,0
297,315,298,300,0
296,305,298,301,0
296,299,300,304,0
296,296,302,307,0
298,300,303,308,0
303,311,306,310,0
309,324,308,311,0
312,329,310,310,0
312,328,309,308,0
312,324,309,307,0
311,317,308,307,0
308,307,306,305,0
306,299,303,305,0
305,294,301,304,0
305,294,300,304,0
305,296,301,304,0
306,302,303,305,0
310,312,306,307,0
315,319,310,309,0
318,320,312,308,0
316,315,312,307,0
310,309,310,306,0
303,304,309,306,0
299,302,307,306,0
298,301,307,308,0
299,302,307,309,0
300,303,306,311,0
301,301,306,311,0
300,297,306,311,0
299,291,306,310,0
298,284,307,309,0
297,278,307,308,0
297,273,308,309,0
296,270,308,309,0
296,267,308,309,0
296,261,307,310,0
297,254,306,310,0
299,250,304,311,0
302,252,303,311,0
305,263,301,311,0
308,285,300,310,0
311,313,300,310,0
314,339,303,311,0
317,358,306,312,0
321,367,309,313,0
324,365,310,313,0
324,354,309,311,0
322,340,308,309,0
319,325,308,307,0
314,313,308,307,0
309,309,308,307,0
308,306,307,308,0
307,300,307,309,0
305,295,304,308,0
302,296,301,307,0
298,297,297,305,0
294,294,294,304,0
293,295,293,304,0
292,299,293,305,0
293,303,294,305,0
292,304,295,304,0
292,305,296,303,0
291,304,298,301,0
290,298,301,301,0
292,291,305,303,0
294,285,310,307,0
299,284,315,312,0
305,289,319,316,0
314,301,321,319,0
322,317,321,319,0
325,331,319,316,0
322,333,315,313,0
316,328,311,309,0
310,323,309,307,0
308,320,309,307,0
308,317,311,309,0
308,309,314,312,0
307,299,316,313,0
304,293,316,314,0
302,295,314,314,0
301,305,313,315,0
304,319,312,316,0
308,332,310,315,0
311,337,308,314,0
310,330,306,312,0
309,318,304,310,0
310,304,303,309,0
312,296,303,308,0
313,293,303,306,0
313,292,303,304,0
310,292,301,302,0
307,293,300,301,0
303,293,297,299,0
300,292,295,298,0
297,290,293,298,0
295,289,292,299,0
293,290,293,299,0
293,296,295,300,0
293,306,297,301,0
294,316,299,302,0
295,324,302,303,0
296,327,304,303,0
297,324,305,304,0
297,317,306,304,0
298,307,306,304,0
300,298,307,304,0
302,291,309,303,0
305,288,311,303,0
308,291,313,302,0
309,301,314,303,0
309,312,316,305,0
309,319,316,306,0
308,318,314,307,0
307,312,312,308,0
309,308,311,309,0
315,312,313,312,0
322,318,314,313,0
324,320,314,313,0
320,313,311,311,0
312,301,307,309,0
305,292,304,308,0
302,291,303,307,0
301,294,303,307,0
301,297,303,308,0
301,300,305,309,0
301,303,306,309,0
300,307,306,308,0
299,311,306,306,0
298,315,305,305,0
298,317,305,304,0
299,315,305,303,0
300,309,305,304,0
300,300,307,304,0
300,289,307,306,0
300,281,308,308,0
301,276,310,310,0
302,281,312,311,0
303,291,312,311,0
302,303,310,311,0
302,314,309,309,0
304,321,309,308,0
306,325,309,307,0
307,326,308,305,0
309,326,309,305,0
309,322,309,305,0
309,314,310,307,0
309,304,312,310,0
310,292,312,312,0
310,276,310,313,0
310,258,308,315,0
312,246,307,317,0
317,245,308,319,0
324,250,310,320,0
330,263,312,321,0
333,288,314,321,0
333,316,315,320,0
328,334,312,317,0
320,339,308,313,0
309,332,303,309,0
300,320,299,306,0
293,310,296,305,0
290,303,297,305,0
290,302,300,307,0
292,306,303,310,0
295,313,307,313,0
300,318,309,315,0
306,321,311,316,0
311,321,312,318,0
314,318,312,318,0
312,313,311,317,0
306,306,308,313,0
300,302,305,310,0
294,303,302,307,0
292,312,300,305,0
292,320,301,305,0
293,327,303,304,0
295,328,304,305,0
296,330,304,305,0
298,333,306,306,0
301,331,305,307,0
302,322,305,309,0
303,312,305,310,0
303,305,305,311,0
304,301,304,312,0
305,297,304,312,0
304,290,304,311,0
304,279,304,310,0
303,271,302,308,0
302,272,299,307,0
303,282,296,307,0
308,302,295,306,0
314,322,294,305,0
321,339,295,303,0
327,350,294,300,0
327,348,293,296,0
322,334,292,294,0
316,320,291,294,0
311,312,291,295,0
306,308,291,295,0
302,304,290,294,0
298,301,289,293,0
296,298,290,293,0
296,296,292,294,0
298,293,296,297,0
300,292,299,300,0
303,291,301,303,0
304,289,303,306,0
305,285,305,308,0
305,277,307,309,0
304,265,309,310,0
304,252,311,311,0
305,248,313,313,0
308,259,313,315,0
312,284,313,317,0
317,314,314,317,0
320,336,314,317,0
321,350,313,314,0
319,355,312,312,0
315,352,310,308,0
311,345,309,305,0
309,338,307,304,0
308,333,306,304,0
306,331,304,304,0
305,328,302,304,0
305,321,300,304,0
306,313,298,304,0
308,305,297,303,0
309,301,296,302,0
311,302,296,300,0
310,306,296,299,0
307,305,295,299,0
302,302,294,300,0
299,299,296,302,0
302,301,299,307,0
307,309,304,313,0
314,321,310,318,0
319,329,313,320,0
318,323,314,320,0
315,307,312,318,0
310,291,309,316,0
306,284,307,315,0
304,285,306,313,0
302,290,305,311,0
302,295,303,309,0
301,299,302,306,0
300,303,302,304,0
299,312,302,303,0
298,321,303,303,0
298,324,304,303,0
299,319,305,304,0
301,309,306,307,0
302,293,307,311,0
303,276,307,314,0
304,264,308,317,0
306,264,309,318,0
307,274,308,317,0
306,287,304,314,0
305,296,299,310,0
304,301,295,307,0
303,302,294,305,0
301,302,295,304,0
300,307,297,304,0
299,316,300,305,0
299,327,301,306,0
300,336,301,305,0
301,339,300,306,0
303,339,300,307,0
307,338,301,309,0
310,339,303,310,0
311,339,303,310,0
309,337,303,310,0
305,333,303,309,0
302,329,303,308,0
299,326,303,307,0
298,325,303,306,0
299,324,304,305,0
301,320,305,305,0
303,312,307,305,0
304,301,309,305,0
304,289,310,306,0
304,278,311,306,0
302,273,310,306,0
301,273,309,305,0
300,274,307,304,0
299,277,305,304,0
298,280,305,304,0
299,284,307,306,0
301,295,310,308,0
303,308,312,310,0
304,316,313,310,0
305,315,313,310,0
306,307,311,310,0
306,303,307,308,0
306,306,302,305,0
305,313,298,301,0
302,320,293,298,0
299,323,291,295,0
297,320,289,295,0
296,314,290,297,0
296,307,292,298,0
298,304,294,301,0
299,304,296,302,0
300,305,299,303,0
300,306,301,304,0
301,309,304,306,0
305,314,307,308,0
310,322,311,310,0
315,330,313,311,0
317,332,313,312,0
318,326,312,312,0
319,317,311,311,0
319,309,312,310,0
315,301,313,307,0
308,289,312,304,0
301,273,310,303,0
297,262,309,303,0
295,256,308,304,0
293,256,308,304,0
293,262,307,304,0
294,270,307,304,0
295,275,307,305,0
297,275,306,306,0
297,272,306,307,0
296,269,307,308,0
297,273,307,309,0
299,284,308,309,0
303,296,308,309,0
304,303,306,307,0
303,303,304,304,0
303,301,302,303,0
305,305,302,303,0
307,315,303,304,0
308,329,305,305,0
310,341,306,306,0
311,349,307,307,0
309,346,308,309,0
307,337,311,311,0
307,329,314,314,0
310,330,316,316,0
312,339,315,316,0
313,354,312,315,0
311,367,308,312,0
310,372,307,311,0
308,361,306,310,0
307,343,307,310,0
306,325,307,311,0
304,311,306,311,0
303,300,305,311,0
303,289,304,310,0
304,281,303,309,0
306,277,302,309,0
307,277,302,309,0
309,280,303,310,0
309,288,303,310,0
307,299,303,309,0
306,311,304,310,0
307,321,308,311,0
309,326,309,312,0
308,324,309,310,0
305,312,307,309,0
302,294,306,309,0
299,279,304,309,0
297,266,302,310,0
297,257,301,310,0
299,251,299,309,0
300,247,296,307,0
302,247,294,304,0
302,249,293,302,0
302,255,294,302,0
302,266,298,302,0
303,280,303,304,0
305,291,307,306,0
308,301,311,308,0
312,310,313,309,0
315,317,314,310,0
317,322,314,311,0
319,325,312,311,0
317,326,309,310,0
314,323,305,309,0
311,319,302,310,0
310,317,301,311,0
311,316,300,314,0
311,318,300,315,0
310,322,300,315,0
308,322,300,313,0
304,316,299,312,0
301,307,300,312,0
302,299,302,312,0
303,298,305,312,0
304,303,307,310,0
303,310,305,308,0
299,313,303,307,0
296,316,301,307,0
295,319,301,309,0
294,321,302,311,0
294,322,302,312,0
293,323,303,312,0
294,323,304,312,0
295,324,304,312,0
296,327,303,311,0
298,327,301,311,0
299,323,299,312,0
299,317,298,312,0
300,312,299,313,0
301,311,300,314,0
303,312,302,314,0
306,311,304,316,0
310,312,306,316,0
313,313,307,316,0
314,313,308,315,0
311,313,309,314,0
307,309,309,311,0
303,308,309,308,0
302,308,308,306,0
303,306,309,305,0
305,304,309,304,0
308,303,310,305,0
311,306,312,307,0
312,308,312,308,0
312,306,311,309,0
309,300,308,309,0
309,290,307,309,0
309,278,308,309,0
311,264,310,310,0
311,252,312,312,0
312,248,313,313,0
310,252,313,313,0
307,259,313,312,0
305,270,314,310,0
304,287,314,309,0
304,306,315,308,0
305,320,315,307,0
304,327,313,305,0
304,329,310,303,0
303,329,306,302,0
304,330,303,301,0
305,331,301,301,0
308,333,300,302,0
309,332,300,302,0
308,327,300,302,0
305,319,303,302,0
302,314,305,302,0
300,315,307,302,0
300,319,309,303,0
300,319,310,304,0
299,314,312,304,0
298,310,314,305,0
299,311,317,307,0
301,315,320,308,0
303,314,320,308,0
305,307,317,307,0
309,298,313,307,0
314,295,310,306,0
320,299,307,306,0
323,304,304,306,0
323,306,301,306,0
320,311,300,306,0
316,319,299,308,0
311,328,299,309,0
307,335,299,310,0
306,341,300,310,0
305,341,301,309,0
304,331,302,308,0
303,315,301,308,0
304,302,302,309,0
307,295,304,310,0
312,294,306,311,0
316,297,307,311,0
315,296,307,309,0
311,289,305,307,0
306,280,305,305,0
303,277,305,304,0
300,277,303,303,0
300,279,301,302,0
300,284,300,302,0
302,290,300,303,0
304,298,302,304,0
308,306,305,307,0
311,314,308,310,0
314,321,310,312,0
314,324,312,313,0
311,316,312,314,0
306,304,312,313,0
301,292,310,312,0
298,289,309,311,0
300,298,307,310,0
303,315,305,309,0
305,330,302,308,0
306,336,299,306,0
307,336,298,306,0
308,330,298,305,0
308,321,299,305,0
309,314,301,306,0
309,311,302,306,0
308,309,302,305,0
305,304,301,304,0
303,301,301,304,0
302,304,301,304,0
301,310,301,304,0
300,314,299,305,0
299,317,298,305,0
299,322,298,307,0
301,328,298,309,0
303,334,299,310,0
307,336,299,309,0
311,329,299,307,0
313,315,298,305,0
313,298,300,303,0
311,287,303,303,0
310,282,307,303,0
310,282,310,305,0
310,284,312,307,0
310,290,314,310,0
309,297,316,312,0
307,299,317,313,0
305,300,316,314,0
303,297,313,313,0
301,293,310,311,0
300,290,307,309,0
298,289,304,308,0
298,293,302,309,0
299,300,302,309,0
300,305,302,310,0
300,304,302,310,0
300,296,302,310,0
301,293,305,311,0
302,298,307,312,0
305,309,310,313,0
309,320,312,313,0
312,322,313,313,0
313,314,312,311,0
313,300,309,309,0
310,286,306,306,0
310,280,304,304,0
311,283,303,303,0
314,294,302,303,0
315,309,302,303,0
313,322,302,303,0
310,329,303,303,0
306,332,303,303,0
304,332,303,304,0
303,333,301,305,0
302,331,301,306,0
303,327,300,307,0
304,320,300,306,0
306,308,299,305,0
308,297,300,304,0
308,290,302,303,0
308,291,303,301,0
308,296,303,299,0
306,301,302,297,0
302,304,300,296,0
297,303,298,296,0
294,304,297,297,0
292,306,297,300,0
290,305,298,302,0
288,303,299,303,0
287,299,298,303,0
286,294,297,303,0
286,292,296,302,0
288,293,298,303,0
291,294,301,305,0
294,298,304,307,0
297,300,306,308,0
300,304,307,308,0
305,309,308,308,0
310,317,309,307,0
314,323,310,306,0
316,327,309,305,0
314,331,308,305,0
310,332,306,305,0
306,328,304,304,0
304,320,301,303,0
302,310,298,302,0
300,301,295,301,0
299,294,293,301,0
298,292,292,301,0
298,292,291,302,0
299,293,292,304,0
300,292,294,305,0
299,288,297,305,0
295,281,300,305,0
291,275,304,306,0
290,273,307,307,0
291,277,310,309,0
294,286,312,309,0
297,297,311,308,0
300,305,307,307,0
301,304,302,305,0
303,296,298,305,0
306,289,296,306,0
310,290,297,309,0
316,304,300,313,0
322,327,303,316,0
325,348,307,318,0
324,353,308,318,0
319,343,308,318,0
312,326,308,316,0
308,310,308,315,0
304,298,310,314,0
304,290,313,313,0
305,286,315,313,0
307,289,315,313,0
307,300,315,314,0
307,317,314,314,0
307,332,312,313,0
306,342,309,312,0
305,341,306,311,0
303,330,302,309,0
300,316,298,307,0
298,303,297,305,0
297,295,297,305,0
298,291,299,304,0
298,285,301,303,0
297,277,302,301,0
296,274,304,299,0
297,278,306,298,0
299,288,307,299,0
302,301,307,302,0
305,317,307,305,0
306,332,307,308,0
307,342,307,311,0
307,343,307,313,0
306,339,307,315,0
305,335,307,316,0
305,329,308,317,0
305,322,309,317,0
306,314,310,317,0
308,305,312,317,0
309,300,314,317,0
312,296,317,318,0
314,294,319,318,0
316,291,321,317,0
319,286,322,317,0
322,274,323,317,0
323,262,323,317,0
320,252,321,317,0
315,246,318,316,0
310,251,315,316,0
309,270,312,315,0
308,295,308,312,0
305,315,302,308,0
301,326,296,303,0
297,330,292,299,0
293,330,289,296,0
292,327,289,295,0
292,327,292,296,0
294,327,296,298,0
296,326,300,300,0
296,323,304,302,0
297,319,310,304,0
301,318,315,307,0
307,320,319,310,0
313,324,320,310,0
316,329,317,309,0
318,338,314,306,0
320,349,312,304,0
320,358,311,303,0
320,362,310,303,0
320,361,310,303,0
317,354,308,304,0
313,340,307,304,0
308,323,306,305,0
303,308,305,305,0
299,298,304,304,0
296,291,303,303,0
295,284,303,301,0
297,281,304,300,0
299,282,306,300,0
303,285,307,299,0
304,286,307,298,0
305,287,305,298,0
306,287,303,299,0
307,286,302,300,0
308,286,301,301,0
308,290,301,302,0
309,297,301,304,0
311,306,301,306,0
312,313,301,307,0
311,311,300,308,0
308,303,301,308,0
305,294,304,310,0
304,288,308,312,0
302,283,311,313,0
303,281,313,314,0
304,281,315,313,0
306,282,317,312,0
310,280,318,310,0
313,277,318,309,0
314,276,319,309,0
316,277,320,312,0
314,281,319,314,0
311,284,316,314,0
307,286,311,312,0
305,293,309,311,0
305,304,307,311,0
304,311,304,310,0
301,308,303,309,0
298,296,302,309,0
298,283,304,310,0
300,276,307,311,0
303,276,311,311,0
305,282,314,311,0
307,295,316,311,0
309,313,316,310,0
309,327,316,309,0
308,333,315,309,0
308,335,314,308,0
308,334,313,307,0
310,332,312,306,0
312,328,312,305,0
313,325,311,304,0
311,325,310,301,0
308,329,308,299,0
306,338,306,298,0
303,347,303,296,0
300,353,300,295,0
298,353,298,296,0
298,346,298,298,0
299,337,300,300,0
301,328,302,303,0
304,317,304,305,0
306,307,307,307,0
308,299,309,308,0
307,293,311,307,0
305,291,312,306,0
303,290,312,305,0
299,285,311,304,0
295,279,309,303,0
294,276,306,303,0
295,277,304,302,0
299,280,302,301,0
304,290,301,301,0
309,304,301,300,0
313,317,301,299,0
315,324,303,298,0
315,326,305,298,0
315,325,306,299,0
316,322,309,301,0
318,314,310,304,0
318,302,311,307,0
318,292,313,309,0
317,289,314,309,0
316,293,314,309,0
314,293,312,307,0
312,290,311,306,0
311,284,310,304,0
313,282,310,304,0
315,288,311,305,0
316,293,313,307,0
314,293,314,307,0
309,294,314,306,0
304,298,312,304,0
300,303,310,303,0
298,304,308,302,0
296,304,306,301,0
297,305,306,301,0
299,307,305,303,0
300,306,305,304,0
301,301,305,304,0
301,297,304,305,0
301,298,304,304,0
301,302,303,302,0
300,307,302,301,0
301,315,304,300,0
303,328,307,300,0
305,334,310,300,0
306,334,310,300,0
306,331,310,301,0
306,326,310,303,0
306,320,310,305,0
307,315,310,307,0
308,308,310,308,0
307,298,309,309,0
306,286,308,310,0
304,281,306,311,0
303,280,306,312,0
301,282,306,312,0
298,284,306,311,0
296,285,307,311,0
296,288,309,311,0
298,296,311,312,0
299,306,313,313,0
300,315,314,313,0
303,322,317,313,0
308,329,319,314,0
313,334,320,314,0
316,335,320,313,0
314,334,318,311,0
311,330,314,308,0
307,323,311,306,0
305,317,310,305,0
304,312,309,304,0
304,309,308,304,0
305,307,307,304,0
305,306,307,304,0
304,307,307,304,0
303,309,306,304,0
302,308,306,304,0
303,309,308,304,0
306,314,309,306,0
309,320,312,309,0
309,318,313,311,0
307,309,313,313,0
305,295,312,315,0
304,281,311,316,0
304,274,310,316,0
304,274,307,314,0
305,281,305,313,0
306,291,305,312,0
306,299,304,312,0
307,303,304,311,0
308,306,304,310,0
312,311,305,310,0
314,314,306,310,0
313,312,306,308,0
309,308,305,306,0
305,310,305,305,0
303,317,305,305,0
300,319,305,305,0
297,315,304,305,0
295,308,303,305,0
294,303,302,306,0
295,300,302,307,0
297,299,303,308,0
299,299,304,309,0
301,297,305,309,0
303,293,306,310,0
306,289,307,311,0
308,285,308,311,0
310,278,310,312,0
311,267,308,312,0
311,255,306,313,0
309,247,304,312,0
307,250,304,313,0
306,265,305,313,0
306,285,308,313,0
308,310,312,313,0
310,332,314,313,0
310,344,313,311,0
307,346,310,309,0
304,342,307,307,0
301,337,305,306,0
298,338,303,306,0
297,338,303,307,0
297,338,304,308,0
299,337,306,309,0
301,329,308,310,0
303,315,309,309,0
306,299,309,308,0
309,288,309,308,0
312,285,308,306,0
313,292,308,305,0
314,307,308,305,0
314,320,310,306,0
313,327,310,307,0
311,331,309,307,0
309,334,308,306,0
306,333,307,304,0
304,324,307,304,0
302,313,308,304,0
302,304,309,305,0
303,300,311,308,0
306,301,314,312,0
311,308,317,315,0
314,313,318,316,0
313,310,318,315,0
309,302,316,313,0
308,298,314,313,0
308,300,314,313,0
308,303,311,312,0
305,304,308,311,0
303,302,306,311,0
302,298,306,312,0
302,295,307,312,0
301,292,306,312,0
298,292,305,312,0
297,297,306,313,0
298,308,309,314,0
300,319,312,314,0
303,326,312,313,0
306,325,311,311,0
310,321,310,311,0
312,317,309,311,0
313,316,306,310,0
312,316,305,310,0
311,313,305,310,0
307,308,304,309,0
304,303,304,308,0
302,301,304,308,0
303,304,305,308,0
304,307,307,307,0
305,311,308,306,0
304,318,308,305,0
304,325,309,304,0
305,332,310,303,0
307,335,309,304,0
307,334,307,304,0
310,330,306,306,0
313,325,306,308,0
318,326,307,311,0
322,333,308,312,0
320,338,309,311,0
314,334,308,310,0
306,322,306,309,0
301,307,306,309,0
299,295,306,311,0
302,291,306,313,0
306,295,308,315,0
308,302,308,314,0
305,308,305,311,0
299,310,301,306,0
294,311,298,302,0
291,307,297,300,0
290,301,296,299,0
293,295,296,301,0
299,295,298,304,0
306,302,300,306,0
312,308,301,307,0
316,313,299,308,0
319,317,297,308,0
320,322,297,308,0
318,323,298,308,0
314,322,299,309,0
309,322,300,310,0
305,321,303,310,0
299,319,305,309,0
295,318,308,310,0
293,319,310,311,0
293,319,312,312,0
294,313,312,312,0
295,301,311,312,0
297,286,311,311,0
299,269,311,310,0
303,258,312,309,0
306,256,312,308,0
307,265,313,307,0
307,279,313,306,0
307,291,312,305,0
308,297,310,305,0
309,302,308,306,0
312,307,307,306,0
314,310,306,308,0
313,312,305,309,0
310,315,306,309,0
307,316,307,310,0
304,317,308,312,0
304,316,309,314,0
304,313,310,314,0
304,312,311,314,0
303,314,310,314,0
301,315,309,313,0
300,313,308,313,0
300,308,305,312,0
300,302,302,310,0
301,295,300,308,0
303,287,298,307,0
304,281,296,305,0
305,281,296,304,0
306,289,298,304,0
307,300,301,305,0
308,314,304,307,0
311,329,308,309,0
313,341,312,310,0
314,347,313,311,0
312,344,312,311,0
309,335,309,310,0
307,321,307,310,0
305,307,306,310,0
304,294,306,310,0
303,282,305,310,0
300,272,304,309,0
296,266,303,308,0
294,269,303,309,0
295,283,304,311,0
300,304,307,314,0
307,324,310,316,0
315,344,313,317,0
321,357,316,316,0
322,355,316,314,0
317,340,314,310,0
310,321,312,305,0
303,306,309,300,0
297,297,307,296,0
293,293,305,294,0
293,291,305,295,0
293,288,305,296,0
295,283,307,298,0
297,279,308,301,0
300,277,310,303,0
303,280,311,305,0
307,287,313,307,0
309,295,313,308,0
310,300,313,308,0
310,303,313,308,0
311,301,312,309,0
311,296,311,310,0
310,286,310,310,0
309,278,309,311,0
309,279,309,312,0
309,285,311,313,0
310,287,312,314,0
310,289,311,313,0
310,294,309,311,0
310,301,308,309,0
307,309,306,307,0
305,316,305,306,0
305,322,307,307,0
307,328,309,309,0
311,333,311,312,0
312,332,312,313,0
310,325,311,313,0
306,314,310,312,0
301,303,309,311,0
298,295,309,310,0
296,291,310,310,0
296,292,311,310,0
298,297,312,310,0
302,309,313,310,0
305,319,314,310,0
306,324,313,309,0
304,322,312,307,0
300,316,310,306,0
298,313,307,306,0
299,316,305,306,0
301,324,301,306,0
305,330,299,305,0
309,328,297,304,0
310,320,297,304,0
308,308,296,304,0
308,302,297,304,0
309,303,298,306,0
312,310,300,306,0
315,319,302,306,0
317,324,303,305,0
317,318,303,304,0
315,306,303,300,0
311,296,303,297,0
307,293,304,296,0
305,294,306,298,0
304,295,307,300,0
303,295,307,301,0
301,293,307,301,0
300,292,306,300,0
299,291,304,300,0
300,291,303,301,0
303,293,303,304,0
308,297,306,308,0
313,302,310,312,0
317,306,312,313,0
317,309,312,313,0
315,313,311,312,0
312,316,309,310,0
307,314,307,308,0
303,313,304,307,0
299,312,302,306,0
297,315,301,306,0
296,318,301,306,0
296,324,302,307,0
297,331,304,308,0
299,336,306,308,0
303,335,309,309,0
308,327,311,311,0
311,317,312,312,0
314,310,313,313,0
316,308,314,313,0
318,311,315,313,0
319,314,315,312,0
317,313,313,309,0
312,304,309,307,0
308,291,306,305,0
305,276,306,306,0
303,266,308,307,0
301,260,309,308,0
298,261,308,306,0
299,267,308,304,0
301,272,309,302,0
304,276,309,300,0
307,281,309,298,0
309,287,309,297,0
311,294,310,299,0
313,303,312,302,0
315,307,312,305,0
314,302,311,307,0
311,292,307,306,0
308,286,302,305,0
305,288,298,304,0
304,298,295,304,0
305,311,294,305,0
307,322,295,306,0
308,324,298,307,0
308,313,301,307,0
306,295,303,308,0
304,279,305,308,0
303,269,306,308,0
303,265,308,309,0
305,265,310,310,0
306,270,311,310,0
307,276,311,310,0
307,284,309,308,0
305,290,309,308,0
305,294,309,308,0
306,295,309,308,0
306,290,309,308,0
307,287,308,308,0
308,286,308,308,0
310,284,308,308,0
312,284,308,307,0
314,293,309,306,0
315,310,309,304,0
316,328,308,304,0
317,342,309,304,0
317,348,309,305,0
318,349,309,305,0
318,347,308,304,0
316,343,305,302,0
312,338,302,301,0
308,334,300,300,0
306,330,299,300,0
305,326,299,301,0
306,323,301,302,0
308,321,303,303,0
309,318,305,305,0
309,314,306,306,0
308,315,308,307,0
310,323,311,308,0
315,337,314,308,0
320,353,317,308,0
323,364,318,305,0
319,365,315,301,0
314,357,310,298,0
309,347,305,295,0
305,336,302,294,0
303,321,299,294,0
303,303,298,294,0
301,279,298,295,0
299,254,298,296,0
297,237,300,299,0
297,235,304,302,0
298,243,308,306,0
299,255,310,309,0
298,268,310,310,0
298,283,309,312,0
298,297,308,312,0
298,304,307,313,0
299,305,306,313,0
301,302,306,313,0
304,296,307,313,0
306,285,307,311,0
306,271,307,310,0
307,261,309,310,0
312,262,313,311,0
319,277,317,312,0
327,304,319,313,0
331,333,319,311,0
331,357,316,309,0
330,372,314,307,0
329,374,312,307,0
326,363,310,306,0
320,348,308,305,0
314,336,305,304,0
310,328,303,303,0
305,323,301,300,0
301,321,299,298,0
296,321,299,296,0
292,320,299,294,0
290,318,300,295,0
289,315,303,296,0
291,310,305,299,0
293,304,305,302,0
294,299,305,305,0
296,294,304,307,0
296,286,304,309,0
298,280,305,311,0
300,278,307,313,0
303,280,310,315,0
305,288,312,315,0
306,300,312,314,0
305,312,311,312,0
303,320,309,310,0
302,322,306,308,0
301,321,305,306,0
300,319,305,304,0
299,315,306,304,0
300,311,306,303,0
300,307,307,304,0
301,302,307,305,0
302,296,306,306,0
303,292,307,308,0
306,289,308,310,0
309,287,309,311,0
311,283,310,312,0
313,275,313,314,0
317,265,317,317,0
318,253,321,318,0
317,242,323,319,0
313,240,323,317,0
310,251,320,314,0
309,271,317,311,0
311,294,313,307,0
314,316,309,304,0
317,330,307,303,0
320,334,305,304,0
317,330,304,305,0
311,322,304,305,0
304,318,304,306,0
299,321,305,307,0
297,330,307,308,0
298,340,309,309,0
300,347,310,309,0
301,350,309,307,0
303,349,308,305,0
307,348,307,303,0
308,343,306,301,0
308,332,304,300,0
306,319,303,299,0
303,308,303,300,0
300,300,302,301,0
299,295,300,302,0
299,293,298,304,0
300,297,297,306,0
301,305,298,307,0
303,318,298,308,0
305,333,298,309,0
307,347,299,308,0
310,355,301,309,0
313,354,302,309,0
317,343,304,309,0
319,327,307,310,0
319,309,310,311,0
318,295,312,311,0
316,284,313,312,0
313,275,314,311,0
309,270,314,311,0
306,263,314,312,0
304,253,315,314,0
304,242,319,317,0
303,236,322,319,0
303,238,325,320,0
303,247,326,320,0
304,263,326,319,0
308,283,325,318,0
313,306,325,315,0
316,323,322,313,0
313,330,318,308,0
309,330,312,304,0
304,327,307,301,0
302,324,304,299,0
301,322,303,298,0
302,322,303,298,0
303,325,302,300,0
304,325,301,300,0
305,320,299,302,0
305,312,297,302,0
307,304,297,304,0
310,299,298,304,0
311,300,298,303,0
311,304,299,303,0
310,304,301,303,0
308,301,301,304,0
306,297,302,305,0
305,293,303,306,0
305,288,302,308,0
307,290,303,309,0
309,297,304,310,0
310,300,304,312,0
308,298,304,312,0
306,291,305,313,0
303,286,305,312,0
302,288,305,311,0
304,300,307,311,0
310,319,309,312,0
316,339,311,312,0
319,350,311,310,0
319,352,310,308,0
318,352,310,308,0
318,352,310,308,0
320,351,308,307,0
320,348,306,307,0
318,339,305,307,0
314,318,305,305,0
306,295,304,304,0
299,279,301,303,0
294,274,298,302,0
290,276,296,303,0
290,280,296,305,0
291,285,298,307,0
292,290,300,310,0
294,296,302,310,0
296,302,302,309,0
297,303,301,307,0
297,299,301,305,0
298,292,301,304,0
298,287,302,305,0
299,285,303,306,0
300,283,304,307,0
301,283,303,308,0
302,283,302,309,0
303,282,300,309,0
303,277,299,309,0
303,270,299,309,0
303,265,300,309,0
303,265,301,309,0
304,271,304,310,0
307,282,307,311,0
309,295,309,311,0
310,306,310,310,0
310,314,310,308,0
310,321,310,306,0
310,321,308,305,0
308,313,306,303,0
308,302,305,303,0
308,287,306,305,0
310,271,308,308,0
313,259,311,312,0
319,257,313,313,0
325,265,313,313,0
328,281,311,310,0
326,299,308,308,0
325,320,306,308,0
327,345,308,309,0
330,371,313,310,0
330,388,316,310,0
323,392,313,306,0
313,384,309,303,0
303,372,305,301,0
295,359,302,300,0
290,347,300,300,0
288,338,299,300,0
288,331,298,300,0
289,325,296,300,0
290,320,294,301,0
291,314,290,302,0
292,310,288,303,0
293,308,287,304,0
295,307,287,305,0
297,309,288,306,0
298,313,290,306,0
299,318,293,308,0
300,323,297,310,0
301,322,300,312,0
302,316,302,313,0
304,309,304,314,0
306,302,306,316,0
308,298,309,318,0
309,293,312,319,0
309,285,315,320,0
309,273,318,322,0
310,258,320,322,0
312,246,322,323,0
315,242,323,323,0
318,247,324,323,0
321,261,325,321,0
322,281,323,317,0
322,303,320,313,0
320,322,315,308,0
315,333,308,304,0
310,338,301,301,0
306,339,297,300,0
304,340,295,300,0
304,342,297,302,0
305,341,299,303,0
305,333,301,304,0
304,321,303,305,0
303,314,304,305,0
305,312,306,306,0
306,311,307,306,0
305,310,306,307,0
305,307,306,307,0
305,304,306,308,0
307,298,305,308,0
307,291,303,307,0
307,282,301,305,0
307,275,300,305,0
307,269,301,305,0
307,269,303,305,0
306,278,305,306,0
306,291,305,306,0
304,303,304,305,0
302,312,302,304,0
301,317,300,303,0
301,318,298,303,0
303,323,298,303,0
307,335,299,304,0
312,350,300,305,0
315,356,302,305,0
315,348,304,306,0
312,334,305,305,0
309,316,307,307,0
307,300,308,308,0
307,289,310,310,0
307,283,312,311,0
306,278,312,312,0
304,268,311,311,0
302,254,310,310,0
299,241,307,309,0
300,237,306,308,0
303,244,304,308,0
305,254,303,307,0
307,266,302,307,0
309,280,300,306,0
310,295,300,307,0
310,306,301,307,0
309,312,301,307,0
306,311,300,307,0
304,307,299,307,0
305,308,299,308,0
308,315,301,309,0
313,324,302,309,0
318,332,304,311,0
324,341,306,312,0
327,349,310,313,0
328,353,311,313,0
325,349,311,310,0
319,336,308,307,0
312,316,305,304,0
307,296,304,303,0
303,281,303,302,0
301,273,304,302,0
299,275,304,303,0
299,285,305,303,0
299,297,306,303,0
299,305,306,303,0
300,309,305,303,0
300,310,306,305,0
300,311,309,309,0
300,314,312,312,0
301,321,313,314,0
301,328,314,314,0
301,333,312,313,0
301,335,311,312,0
301,336,310,312,0
302,338,310,311,0
303,336,309,310,0
304,328,307,309,0
304,314,305,308,0
306,302,304,308,0
307,293,303,308,0
307,288,303,308,0
308,285,302,308,0
308,284,302,307,0
308,283,303,307,0
308,284,304,308,0
308,286,307,311,0
309,290,311,313,0
309,295,313,314,0
311,296,314,314,0
314,294,314,313,0
317,291,315,313,0
320,288,318,313,0
321,288,321,313,0
320,292,324,315,0
318,297,325,315,0
313,298,324,314,0
306,296,321,312,0
301,297,316,310,0
300,301,311,309,0
301,308,308,309,0
303,314,304,309,0
301,319,301,308,0
297,323,298,308,0
295,330,297,308,0
293,334,296,307,0
292,334,294,306,0
290,330,292,303,0
290,324,290,301,0
290,319,289,300,0
293,323,291,300,0
297,328,295,300,0
300,327,297,301,0
304,322,299,302,0
307,316,300,302,0
309,312,301,303,0
310,311,301,303,0
309,309,302,304,0
307,306,303,303,0
303,301,303,303,0
299,297,303,304,0
296,294,304,305,0
294,291,305,306,0
294,286,306,308,0
294,282,307,310,0
295,280,307,312,0
297,280,307,313,0
297,282,306,313,0
297,288,305,312,0
297,299,304,310,0
298,315,304,310,0
300,332,305,309,0
303,340,306,308,0
305,339,306,307,0
306,332,306,306,0
307,322,306,306,0
309,312,307,307,0
311,306,309,308,0
314,304,311,310,0
315,304,313,311,0
316,302,313,312,0
316,300,313,312,0
315,297,314,312,0
314,296,313,311,0
311,295,312,309,0
309,295,311,308,0
306,297,309,305,0
301,299,305,302,0
297,301,302,299,0
295,303,300,298,0
295,305,298,298,0
295,307,298,299,0
296,310,298,300,0
297,311,299,301,0
297,306,300,301,0
297,293,301,302,0
296,275,304,304,0
295,262,307,306,0
295,257,313,309,0
298,262,319,312,0
301,276,322,314,0
302,294,322,313,0
304,313,319,312,0
305,326,316,309,0
306,327,312,307,0
306,320,310,306,0
304,310,309,305,0
302,304,309,304,0
299,305,309,302,0
297,310,309,300,0
297,316,310,299,0
298,323,311,298,0
301,331,312,299,0
305,337,313,301,0
308,337,314,302,0
309,331,314,303,0
310,322,313,303,0
309,314,311,302,0
310,308,309,302,0
310,305,306,301,0
309,298,304,300,0
307,288,302,301,0
304,276,301,302,0
302,266,300,303,0
301,260,299,305,0
302,262,297,308,0
305,272,297,311,0
308,284,297,313,0
311,295,299,313,0
314,306,301,313,0
318,317,303,313,0
321,326,306,313,0
322,332,308,311,0
320,332,309,310,0
314,328,309,308,0
309,319,309,306,0
305,309,309,305,0
304,299,310,305,0
305,295,310,305,0
306,298,310,304,0
306,307,308,304,0
303,316,305,303,0
300,320,304,303,0
296,321,304,304,0
295,324,306,307,0
296,327,309,309,0
298,333,314,311,0
301,343,318,313,0
305,352,319,314,0
309,354,319,315,0
311,346,317,316,0
312,331,315,316,0
311,318,314,316,0
312,309,313,317,0
314,303,312,317,0
315,301,309,316,0
314,299,306,314,0
311,294,304,312,0
306,285,302,310,0
303,274,301,309,0
300,268,300,308,0
300,271,300,307,0
299,280,299,305,0
299,288,298,305,0
299,296,298,305,0
299,304,297,305,0
300,313,297,306,0
301,322,297,307,0
303,327,297,307,0
304,328,297,307,0
305,326,298,307,0
306,324,300,308,0
308,320,303,309,0
310,319,307,311,0
313,321,311,312,0
315,326,313,314,0
316,325,313,314,0
314,315,311,313,0
313,298,307,312,0
311,281,305,311,0
309,266,303,310,0
306,257,300,308,0
302,256,296,308,0
299,264,294,307,0
298,281,294,307,0
299,300,296,306,0
300,314,297,306,0
301,321,297,305,0
302,323,298,305,0
303,323,300,306,0
304,321,302,306,0
304,318,303,307,0
305,314,305,307,0
306,309,306,308,0
308,305,307,309,0
310,301,308,310,0
313,299,308,311,0
316,301,309,312,0
319,307,310,314,0
321,316,312,316,0
322,323,313,316,0
320,324,312,316,0
315,316,309,315,0
310,303,307,315,0
306,294,305,315,0
303,291,305,315,0
301,293,304,314,0
299,299,304,313,0
297,305,304,312,0
297,306,304,312,0
297,302,304,312,0
297,296,303,310,0
298,294,303,308,0
299,295,302,306,0
299,298,303,304,0
299,300,305,302,0
299,300,308,302,0
299,295,310,304,0
298,286,312,306,0
298,282,314,309,0
299,288,315,311,0
301,304,314,312,0
303,321,312,311,0
304,332,308,310,0
306,337,306,308,0
307,337,305,306,0
307,335,304,305,0
306,329,303,304,0
304,320,301,303,0
302,311,301,303,0
303,306,303,305,0
305,304,306,307,0
308,304,308,308,0
311,304,309,309,0
312,305,310,309,0
311,306,310,309,0
308,305,310,307,0
303,301,308,306,0
298,294,307,305,0
295,286,307,305,0
294,284,307,306,0
295,289,307,307,0
297,300,308,308,0
300,319,309,310,0
301,340,309,310,0
300,347,308,311,0
299,340,307,312,0
298,324,306,312,0
298,306,305,312,0
299,294,305,312,0
301,290,305,311,0
302,294,305,310,0
302,299,304,307,0
302,302,304,306,0
302,304,304,304,0
302,305,304,303,0
302,305,305,302,0
303,308,305,302,0
304,312,306,302,0
307,320,306,303,0
309,327,305,304,0
312,334,303,304,0
314,338,303,306,0
314,336,305,307,0
313,327,306,308,0
310,317,307,309,0
307,309,307,310,0
305,307,306,311,0
305,312,306,312,0
305,315,307,312,0
303,310,308,312,0
301,299,308,309,0
299,290,308,307,0
298,288,308,306,0
299,290,307,304,0
299,296,306,303,0
301,301,303,303,0
302,303,300,302,0
302,298,296,301,0
301,286,292,300,0
299,273,289,299,0
298,266,289,300,0
298,269,289,301,0
298,281,291,302,0
298,296,292,302,0
298,309,293,302,0
299,318,294,301,0
300,320,295,300,0
301,317,297,301,0
302,312,301,303,0
304,306,306,306,0
307,297,313,310,0
311,290,318,313,0
315,285,323,315,0
320,285,323,316,0
323,290,322,315,0
323,299,318,313,0
321,309,313,312,0
320,319,310,312,0
319,325,306,311,0
318,328,303,310,0
314,330,299,308,0
309,330,297,307,0
304,328,297,306,0
302,324,299,307,0
302,318,302,308,0
305,316,306,310,0
309,318,310,312,0
311,320,313,312,0
310,323,314,310,0
308,318,313,308,0
305,307,312,307,0
302,296,311,309,0
300,287,311,310,0
299,280,310,311,0
301,276,310,312,0
304,278,311,312,0
306,284,312,312,0
306,288,312,310,0
304,289,311,308,0
301,292,310,307,0
300,299,310,307,0
300,303,309,307,0
300,301,307,307,0
300,295,305,307,0
301,291,303,307,0
303,293,302,308,0
305,300,302,309,0
307,310,303,309,0
310,319,306,310,0
313,326,308,309,0
314,328,309,307,0
314,327,310,305,0
311,327,310,303,0
309,333,311,301,0
308,340,311,301,0
309,342,309,300,0
310,338,307,300,0
309,328,305,299,0
306,312,303,297,0
303,298,300,296,0
300,293,299,295,0
300,294,301,294,0
299,294,303,294,0
298,292,304,294,0
296,292,304,294,0
296,294,304,296,0
296,295,305,297,0
296,292,305,298,0
296,285,304,299,0
295,274,304,301,0
296,266,304,304,0
299,267,305,308,0
304,279,307,310,0
309,297,308,311,0
311,309,306,311,0
311,316,305,309,0
311,321,304,308,0
310,323,303,307,0
308,320,301,306,0
308,317,300,306,0
309,316,300,307,0
310,320,300,308,0
312,323,301,309,0
314,327,301,310,0
314,331,302,309,0
312,333,302,308,0
307,333,301,307,0
303,331,301,307,0
300,326,301,307,0
299,322,301,308,0
300,321,302,308,0
303,319,303,308,0
307,315,303,307,0
310,313,304,307,0
311,314,304,307,0
311,316,305,307,0
310,317,306,308,0
312,320,309,310,0
314,322,310,313,0
315,321,310,315,0
312,319,309,315,0
307,318,306,313,0
302,315,304,311,0
300,312,304,309,0
298,306,304,307,0
297,300,305,306,0
298,297,307,306,0
299,293,310,307,0
301,286,311,309,0
302,279,311,310,0
304,274,311,311,0
306,276,312,312,0
308,283,312,313,0
311,294,312,312,0
311,302,313,312,0
311,310,313,312,0
309,316,313,312,0
307,320,311,311,0
305,321,307,309,0
304,319,304,308,0
303,315,301,306,0
302,310,299,305,0
302,306,298,305,0
301,303,300,306,0
301,299,301,308,0
300,293,302,309,0
299,287,303,311,0
300,281,304,313,0
302,278,305,314,0
304,281,307,314,0
307,287,308,314,0
309,294,310,314,0
309,297,310,314,0
309,296,310,314,0
309,295,309,313,0
308,294,308,312,0
307,298,306,310,0
306,305,305,309,0
305,317,304,308,0
304,329,305,308,0
304,335,306,307,0
304,334,307,307,0
304,333,306,307,0
305,335,305,306,0
308,338,304,307,0
310,341,303,307,0
310,342,304,307,0
309,341,304,307,0
306,333,304,307,0
303,317,304,306,0
301,298,305,306,0
301,282,305,307,0
300,270,305,307,0
300,263,306,308,0
302,261,307,310,0
303,265,308,311,0
304,269,308,312,0
301,273,307,312,0
298,276,306,311,0
296,283,307,312,0
296,290,308,312,0
298,296,309,312,0
301,298,308,310,0
304,299,305,308,0
309,304,303,307,0
313,311,303,307,0
317,319,304,307,0
318,324,306,309,0
317,324,308,311,0
314,321,310,312,0
309,316,312,314,0
304,311,311,314,0
300,305,310,313,0
297,304,309,312,0
296,310,308,310,0
296,320,307,308,0
297,329,307,306,0
298,331,307,305,0
299,327,307,304,0
300,318,306,304,0
300,308,306,305,0
303,301,308,307,0
307,304,310,310,0
311,317,311,311,0
315,339,312,311,0
318,362,311,311,0
319,377,310,310,0
318,378,308,307,0
314,364,306,305,0
311,345,306,304,0
309,330,307,305,0
310,321,309,307,0
311,316,310,308,0
311,312,309,308,0
311,307,307,308,0
311,303,306,308,0
312,301,305,308,0
311,300,303,305,0
308,299,300,302,0
305,296,297,300,0
301,288,297,299,0
299,278,299,300,0
299,272,302,302,0
299,270,304,303,0
298,271,305,303,0
299,276,303,302,0
300,282,300,301,0
302,289,298,301,0
306,296,298,302,0
309,300,299,304,0
311,303,301,307,0
313,306,304,309,0
314,311,307,310,0
315,317,310,312,0
316,322,310,314,0
315,324,311,316,0
313,324,309,318,0
310,323,307,317,0
307,317,305,315,0
304,304,304,313,0
301,286,302,312,0
298,268,301,312,0
298,258,301,312,0
300,259,302,314,0
303,269,303,316,0
305,284,303,316,0
306,302,303,315,0
309,323,305,316,0
313,344,308,316,0
318,355,312,316,0
319,354,314,315,0
318,345,315,311,0
315,333,312,307,0
310,321,309,304,0
308,312,307,304,0
307,304,305,304,0
306,297,304,305,0
304,290,303,305,0
302,285,303,305,0
300,281,302,305,0
298,283,303,304,0
296,290,304,305,0
297,298,305,305,0
298,305,306,307,0
300,307,306,309,0
303,306,305,310,0
304,310,304,311,0
306,319,301,312,0
307,330,298,312,0
307,333,294,311,0
307,328,292,310,0
309,323,293,310,0
313,321,297,311,0
317,321,300,312,0
318,318,302,311,0
313,312,302,309,0
309,306,303,308,0
306,302,305,309,0
304,299,308,309,0
304,299,311,310,0
304,301,313,310,0
303,301,314,310,0
302,298,315,310,0
302,293,316,311,0
302,288,317,311,0
304,284,316,310,0
304,285,314,309,0
304,291,310,307,0
304,298,307,306,0
303,301,306,306,0
303,302,304,306,0
302,303,305,306,0
302,306,306,307,0
303,309,307,307,0
303,312,309,308,0
303,313,310,309,0
303,309,311,310,0
302,306,310,310,0
302,306,309,309,0
303,305,307,309,0
304,305,305,309,0
306,305,303,308,0
308,306,301,308,0
307,305,299,307,0
306,302,298,307,0
307,298,300,309,0
310,294,305,311,0
313,296,311,312,0
311,301,314,311,0
305,303,314,309,0
299,302,313,305,0
294,301,312,303,0
293,302,311,300,0
294,302,310,298,0
295,304,309,297,0
298,309,309,299,0
302,317,310,301,0
306,326,311,304,0
311,333,311,305,0
315,336,310,306,0
315,336,308,306,0
313,330,305,306,0
308,321,303,305,0
302,312,301,305,0
298,305,298,304,0
295,300,297,303,0
294,294,295,303,0
294,286,295,302,0
295,277,295,302,0
297,269,298,303,0
299,268,300,305,0
301,275,302,305,0
302,287,302,305,0
304,300,301,305,0
306,311,300,305,0
310,316,299,303,0
313,316,298,302,0
316,315,298,302,0
318,316,300,302,0
319,318,303,304,0
318,319,306,305,0
315,318,308,307,0
311,320,308,307,0
307,319,308,307,0
303,316,307,307,0
301,310,309,309,0
302,306,312,313,0
304,304,313,314,0
304,301,313,315,0
307,300,313,316,0
311,304,313,316,0
316,306,312,315,0
319,305,309,313,0
320,298,307,310,0
318,294,304,309,0
315,296,303,308,0
312,305,303,309,0
311,317,302,309,0
310,329,301,308,0
309,340,301,307,0
310,346,302,307,0
311,347,302,306,0
311,346,300,305,0
312,344,300,305,0
313,342,301,305,0
313,339,301,305,0
312,333,301,305,0
309,325,299,304,0
307,317,299,304,0
307,308,299,304,0
307,301,300,305,0
308,293,302,305,0
308,284,305,307,0
309,278,308,308,0
309,277,310,307,0
308,283,310,306,0
305,292,310,303,0
302,298,307,302,0
300,300,305,302,0
299,302,303,303,0
300,304,302,305,0
302,311,304,308,0
305,317,307,311,0
307,318,309,312,0
306,310,309,312,0
305,296,309,312,0
304,284,309,313,0
305,280,310,315,0
307,285,309,315,0
308,291,308,314,0
309,296,308,314,0
309,302,308,313,0
310,309,308,313,0
312,316,309,313,0
313,322,311,312,0
315,327,313,313,0
315,331,313,312,0
313,334,312,310,0
311,334,309,308,0
307,331,307,306,0
304,326,307,305,0
302,320,308,305,0
302,316,309,306,0
303,313,310,307,0
304,311,311,306,0
304,310,310,305,0
304,312,308,304,0
305,313,308,304,0
307,309,307,303,0
308,302,306,304,0
310,297,306,304,0
313,292,306,304,0
316,289,307,303,0
320,291,309,301,0
323,298,312,299,0
322,304,312,297,0
318,305,311,296,0
313,305,310,297,0
311,308,310,299,0
311,315,310,302,0
311,322,308,304,0
310,327,306,305,0
308,327,303,304,0
305,323,302,304,0
302,316,303,305,0
300,310,304,306,0
298,304,305,307,0
298,299,306,309,0
299,294,308,311,0
299,290,310,313,0
300,287,311,314,0
303,288,312,316,0
307,293,312,317,0
310,296,310,315,0
312,297,307,313,0
313,296,304,310,0
314,299,302,306,0
315,302,302,303,0
316,305,302,301,0
317,307,303,300,0
317,311,306,301,0
318,321,307,303,0
318,336,307,306,0
319,350,305,307,0
319,354,303,309,0
320,350,302,310,0
319,339,303,310,0
317,324,304,310,0
314,312,306,310,0
311,307,307,309,0
310,309,310,309,0
310,314,312,308,0
310,318,313,308,0
309,319,312,306,0
307,320,311,305,0
306,322,309,305,0
307,323,309,306,0
308,321,310,307,0
308,316,311,308,0
308,310,310,308,0
308,304,309,308,0
308,301,309,307,0
308,299,307,307,0
307,293,303,306,0
304,285,298,304,0
302,281,293,303,0
300,283,290,303,0
300,289,290,304,0
301,296,291,305,0
301,297,292,306,0
301,294,294,306,0
303,291,298,308,0
308,294,304,310,0
315,300,309,311,0
318,301,311,310,0
318,295,310,309,0
315,284,308,308,0
311,273,306,307,0
305,266,304,306,0
301,262,302,306,0
299,265,302,305,0
298,273,302,304,0
299,288,302,303,0
299,305,302,301,0
300,320,301,299,0
300,330,301,298,0
301,332,301,298,0
302,330,301,300,0
303,326,302,303,0
304,324,304,306,0
306,324,305,309,0
308,326,307,312,0
309,323,307,313,0
309,314,305,314,0
308,303,303,314,0
308,294,304,315,0
307,282,305,315,0
307,269,306,317,0
306,262,306,317,0
304,266,307,316,0
303,281,307,315,0
302,301,306,314,0
300,316,305,312,0
299,323,305,310,0
300,323,305,310,0
302,323,306,310,0
304,325,307,311,0
304,324,306,309,0
303,319,305,308,0
303,314,305,309,0
305,312,306,310,0
307,308,309,312,0
309,305,311,313,0
310,301,311,313,0
311,296,309,314,0
313,296,308,313,0
318,301,308,314,0
322,309,308,314,0
322,315,308,313,0
319,318,310,312,0
314,319,311,312,0
309,320,311,312,0
305,322,312,312,0
303,321,312,312,0
302,318,310,311,0
301,310,308,308,0
299,301,306,306,0
298,294,306,306,0
298,291,308,307,0
300,288,309,308,0
301,283,309,308,0
301,282,308,308,0
302,288,306,308,0
303,298,305,307,0
304,308,304,307,0
304,319,303,307,0
304,327,302,306,0
303,331,301,306,0
302,330,301,305,0
302,326,300,304,0
300,321,300,302,0
300,318,300,300,0
300,317,300,298,0
302,315,302,297,0
305,313,304,298,0
307,310,306,300,0
309,307,307,302,0
312,301,309,305,0
314,296,311,306,0
314,297,311,307,0
315,305,311,308,0
316,316,311,310,0
316,319,311,312,0
316,315,310,315,0
315,310,308,315,0
313,311,306,314,0
313,317,307,313,0
312,322,306,312,0
309,320,304,311,0
304,316,301,309,0
302,315,299,309,0
301,316,299,311,0
302,316,301,312,0
302,315,302,312,0
300,315,303,311,0
299,315,304,310,0
298,315,307,308,0
297,314,310,307,0
297,311,312,307,0
297,306,312,307,0
298,300,312,308,0
301,294,313,309,0
303,290,313,310,0
304,286,315,310,0
304,281,315,309,0
305,278,315,309,0
308,280,315,309,0
312,287,315,310,0
314,296,313,310,0
312,304,309,310,0
309,308,307,309,0
307,312,308,310,0
307,314,310,312,0
307,311,313,314,0
309,307,315,317,0
311,305,316,320,0
310,306,316,321,0
308,308,314,320,0
306,308,312,318,0
303,308,310,315,0
300,304,308,313,0
299,300,306,311,0
300,296,304,310,0
302,297,302,309,0
305,301,300,308,0
308,309,298,308,0
311,323,299,309,0
317,336,302,311,0
321,338,305,313,0
322,329,307,312,0
317,315,307,311,0
310,303,308,310,0
303,295,310,310,0
298,287,310,310,0
293,276,309,310,0
289,263,308,310,0
288,253,307,310,0
289,253,307,310,0
292,260,306,309,0
294,271,306,307,0
296,281,305,306,0
298,290,305,305,0
301,300,305,304,0
303,305,305,304,0
304,304,306,304,0
304,302,308,304,0
306,307,309,305,0
307,315,311,306,0
310,327,312,305,0
312,339,313,304,0
312,342,313,302,0
310,338,311,301,0
310,334,309,300,0
311,334,309,301,0
312,336,309,303,0
312,334,309,304,0
310,328,310,305,0
307,320,310,304,0
302,311,309,303,0
299,301,307,303,0
299,296,307,304,0
301,297,309,306,0
305,302,311,308,0
310,312,314,308,0
314,323,315,306,0
314,332,313,303,0
311,334,310,299,0
306,329,306,296,0
302,318,303,295,0
300,306,301,296,0
299,297,300,297,0
299,290,299,299,0
301,285,299,301,0
302,284,300,303,0
302,286,301,305,0
301,289,302,307,0
300,294,303,310,0
300,296,302,311,0
300,296,301,312,0
303,297,302,314,0
308,299,306,316,0
312,299,310,317,0
314,297,311,318,0
313,294,311,316,0
310,290,309,315,0
307,287,307,313,0
305,287,304,310,0
303,295,301,307,0
301,306,298,304,0
300,316,296,302,0
299,326,295,301,0
299,333,297,302,0
300,339,301,304,0
302,342,306,307,0
304,339,311,309,0
305,330,313,310,0
306,321,316,311,0
308,317,317,311,0
310,315,317,312,0
311,316,316,311,0
311,317,314,310,0
310,317,311,308,0
307,313,308,305,0
304,305,306,302,0
303,297,307,302,0
304,292,309,303,0
304,292,311,306,0
303,294,313,308,0
301,294,313,309,0
299,292,313,311,0
298,290,313,312,0
299,290,312,313,0
300,291,311,312,0
302,287,311,311,0
305,285,311,310,0
308,289,310,309,0
310,296,309,307,0
312,300,306,305,0
313,308,305,304,0
315,319,305,304,0
314,326,306,303,0
312,329,307,304,0
311,331,308,304,0
312,331,308,306,0
312,329,308,307,0
311,320,308,308,0
311,310,307,309,0
311,303,308,310,0
314,306,311,312,0
315,314,314,313,0
314,319,315,311,0
309,319,314,309,0
303,312,311,306,0
297,302,310,304,0
294,298,310,303,0
293,302,311,303,0
296,314,313,305,0
301,332,316,306,0
305,347,316,306,0
306,352,313,305,0
305,349,309,305,0
304,340,305,305,0
302,328,302,304,0
301,316,300,303,0
301,306,300,304,0
302,299,300,305,0
305,298,302,307,0
307,300,303,308,0
307,302,302,308,0
305,303,302,307,0
302,303,301,307,0
299,299,301,307,0
296,294,301,307,0
295,287,303,308,0
296,282,303,309,0
298,280,304,311,0
302,284,306,312,0
306,290,307,313,0
309,298,308,314,0
312,310,310,314,0
315,322,312,314,0
316,329,312,314,0
315,332,312,313,0
313,333,310,311,0
309,331,307,309,0
306,327,304,306,0
304,323,303,304,0
303,319,302,303,0
304,315,302,302,0
306,311,303,302,0
308,308,304,303,0
311,308,305,305,0
315,308,308,308,0
318,308,311,311,0
318,313,312,313,0
315,319,311,312,0
310,322,310,310,0
306,325,308,308,0
303,326,306,305,0
302,324,306,303,0
302,320,305,301,0
302,317,305,299,0
303,311,303,298,0
304,304,303,297,0
305,293,303,297,0
304,282,303,298,0
304,274,305,300,0
302,272,306,303,0
301,275,307,305,0
301,280,308,306,0
303,290,310,307,0
306,304,311,308,0
308,315,312,308,0
309,321,310,307,0
309,325,309,307,0
312,330,308,308,0
315,329,306,309,0
317,319,304,311,0
318,306,302,312,0
317,296,302,312,0
312,289,302,312,0
307,288,301,311,0
303,292,301,310,0
301,299,300,308,0
301,303,300,305,0
301,301,299,303,0
302,298,298,302,0
302,297,298,302,0
304,299,298,303,0
305,305,299,303,0
306,312,301,304,0
308,316,302,305,0
310,317,305,305,0
311,318,308,307,0
312,321,312,308,0
311,320,314,310,0
310,312,315,311,0
310,301,316,312,0
310,293,317,313,0
311,292,317,313,0
312,298,316,312,0
311,307,313,309,0
310,320,311,307,0
311,332,309,305,0
311,335,308,305,0
310,333,307,305,0
308,329,308,305,0
306,328,309,306,0
304,328,309,307,0
303,330,308,307,0
302,332,306,307,0
301,332,305,306,0
300,332,304,305,0
300,329,305,304,0
299,325,305,304,0
298,320,305,304,0
298,318,306,306,0
299,317,305,307,0
299,313,305,307,0
300,307,304,307,0
302,301,303,308,0
303,299,303,308,0
305,299,303,309,0
305,301,302,309,0
306,303,303,309,0
306,302,303,310,0
306,299,303,311,0
308,297,304,312,0
312,297,307,313,0
314,296,310,314,0
314,292,312,315,0
314,283,312,314,0
313,273,312,313,0
313,265,311,312,0
315,263,311,311,0
317,265,312,310,0
318,272,312,309,0
318,280,312,309,0
316,285,312,308,0
313,289,312,307,0
311,294,310,306,0
310,298,307,304,0
309,300,305,304,0
307,302,302,303,0
304,302,299,302,0
300,299,297,301,0
298,292,296,301,0
297,284,296,301,0
298,278,298,302,0
299,276,300,304,0
299,276,303,305,0
300,276,305,306,0
301,278,307,306,0
302,284,308,305,0
304,297,309,305,0
305,316,310,305,0
307,334,311,305,0
307,344,311,306,0
306,348,312,306,0
305,345,311,307,0
303,334,310,307,0
303,323,309,308,0
303,314,308,310,0
305,309,308,311,0
308,311,307,312,0
311,319,305,313,0
314,332,304,313,0
316,343,302,312,0
317,350,300,311,0
315,350,300,311,0
312,347,302,312,0
310,343,305,313,0
307,341,307,313,0
305,341,308,312,0
304,340,308,311,0
302,337,308,309,0
302,329,308,309,0
302,317,309,308,0
304,303,309,308,0
308,298,311,308,0
314,302,312,308,0
318,307,312,306,0
317,310,310,304,0
314,310,307,304,0
308,304,305,305,0
303,292,304,306,0
298,279,304,308,0
297,273,306,309,0
299,273,308,311,0
301,284,310,311,0
304,297,311,311,0
306,304,311,311,0
306,300,308,310,0
306,290,306,309,0
303,279,303,308,0
301,271,302,307,0
299,271,302,307,0
299,281,301,307,0
300,296,301,307,0
302,309,301,308,0
304,318,302,307,0
305,324,302,306,0
306,327,301,305,0
305,325,299,305,0
304,321,298,306,0
303,314,298,308,0
304,309,300,310,0
306,307,302,311,0
306,306,304,312,0
307,307,306,313,0
309,313,307,314,0
310,318,308,314,0
311,319,309,314,0
312,316,310,314,0
312,310,310,313,0
313,300,309,313,0
314,290,310,314,0
315,286,311,315,0
316,291,312,314,0
316,308,313,313,0
315,329,314,311,0
313,343,314,309,0
311,345,313,308,0
307,338,311,307,0
305,328,309,307,0
306,321,309,307,0
307,318,308,307,0
310,318,306,308,0
311,320,304,308,0
311,319,302,307,0
308,316,298,304,0
305,311,296,303,0
301,304,294,301,0
297,295,293,300,0
295,286,292,300,0
296,277,293,301,0
298,267,295,302,0
301,257,299,304,0
305,251,302,306,0
309,254,306,308,0
312,264,308,309,0
313,279,307,308,0
313,297,306,308,0
313,318,304,308,0
312,334,301,307,0
310,345,298,305,0
308,357,297,304,0
306,364,299,303,0
307,362,302,304,0
308,354,307,305,0
310,340,310,306,0
311,327,311,307,0
310,316,311,306,0
308,310,310,305,0
306,308,309,305,0
306,311,309,305,0
306,316,310,305,0
306,321,311,306,0
306,322,311,307,0
306,318,312,309,0
305,310,312,309,0
304,299,311,309,0
303,288,310,309,0
303,279,309,309,0
304,273,308,308,0
304,269,306,308,0
305,268,305,308,0
308,273,307,309,0
312,286,309,310,0
314,299,311,310,0
312,303,311,308,0
308,302,309,305,0
305,298,308,303,0
302,294,308,302,0
299,295,308,303,0
298,303,309,304,0
298,316,309,305,0
299,328,309,306,0
302,338,309,307,0
304,345,308,306,0
306,347,307,305,0
308,344,308,304,0
308,337,310,303,0
308,324,311,304,0
308,307,312,304,0
307,290,313,305,0
306,277,314,307,0
305,271,315,309,0
304,269,315,309,0
300,268,313,308,0
295,268,311,308,0
293,269,309,308,0
291,270,306,308,0
292,277,305,308,0
294,286,305,309,0
297,294,306,311,0
301,301,308,311,0
303,308,310,311,0
304,315,311,312,0
305,324,312,311,0
306,334,312,309,0
305,342,311,306,0
304,341,311,305,0
302,332,311,303,0
301,320,312,303,0
300,310,312,304,0
301,303,314,305,0
303,304,316,307,0
306,311,317,309,0
310,320,318,310,0
313,327,316,309,0
315,330,313,308,0
314,328,309,307,0
313,326,307,307,0
313,328,306,307,0
314,333,306,308,0
313,336,308,309,0
313,337,310,310,0
312,330,311,312,0
311,313,311,313,0
309,293,310,314,0
308,273,309,314,0
308,263,308,314,0
307,264,306,311,0
304,270,301,307,0
301,279,298,304,0
300,287,298,303,0
300,292,298,303,0
301,294,299,305,0
304,298,300,307,0
307,304,301,310,0
308,309,299,311,0
305,310,296,310,0
300,309,294,309,0
297,308,292,309,0
295,308,291,308,0
296,308,292,308,0
298,309,294,308,0
302,310,297,309,0
306,311,300,310,0
309,311,303,310,0
310,311,306,311,0
310,311,309,311,0
310,310,311,312,0
308,307,312,313,0
307,306,314,314,0
308,308,315,315,0
310,315,317,316,0
313,324,318,318,0
315,332,319,318,0
317,337,320,319,0
318,340,321,319,0
317,338,321,319,0
316,331,321,318,0
313,321,319,317,0
308,307,315,313,0
304,294,311,309,0
300,287,309,305,0
299,286,306,300,0
300,289,304,296,0
303,296,304,295,0
305,301,304,296,0
305,302,303,298,0
304,297,302,302,0
303,293,302,306,0
304,293,304,310,0
306,299,306,312,0
308,307,307,312,0
308,315,307,313,0
307,320,306,312,0
303,321,305,312,0
301,319,304,312,0
299,313,304,312,0
297,305,304,312,0
296,299,304,312,0
295,293,304,312,0
296,293,305,312,0
298,299,307,313,0
302,309,310,314,0
305,316,311,314,0
306,316,311,313,0
307,314,310,313,0
308,312,310,313,0
310,310,311,313,0
313,300,312,313,0
315,284,312,312,0
317,271,312,313,0
319,271,314,313,0
319,279,314,313,0
316,290,312,312,0
310,298,309,310,0
305,301,305,309,0
300,298,301,308,0
297,293,300,307,0
296,290,301,309,0
297,292,304,311,0
297,300,305,311,0
297,310,305,310,0
297,322,304,309,0
298,333,304,309,0
300,339,304,309,0
302,341,305,309,0
304,340,305,309,0
306,339,306,308,0
307,336,308,308,0
309,331,307,308,0
310,328,306,307,0
311,323,303,306,0
311,318,300,305,0
310,313,298,305,0
310,309,299,306,0
310,307,301,307,0
309,306,302,307,0
308,307,303,307,0
307,308,304,307,0
305,308,304,308,0
304,305,304,308,0
304,300,304,308,0
304,296,303,308,0
305,295,302,308,0
306,298,300,307,0
308,302,299,305,0
310,307,298,305,0
314,308,300,306,0
315,303,300,307,0
315,297,301,307,0
314,296,303,308,0
313,293,305,308,0
310,286,307,309,0
308,277,309,311,0
307,267,310,312,0
307,258,310,314,0
308,258,311,316,0
311,266,311,317,0
314,276,311,318,0
317,284,309,317,0
317,290,306,315,0
315,300,303,313,0
312,315,301,310,0
308,327,299,307,0
304,333,297,305,0
301,333,297,304,0
299,329,298,304,0
299,324,301,306,0
301,324,306,307,0
305,326,309,308,0
310,329,311,308,0
313,330,311,308,0
312,328,310,306,0
309,322,308,304,0
304,314,306,302,0
299,308,305,301,0
296,307,305,302,0
296,310,305,304,0
297,313,306,307,0
299,314,308,309,0
301,313,310,311,0
302,309,311,311,0
302,302,311,311,0
302,294,311,310,0
302,287,312,311,0
302,280,314,312,0
302,276,315,313,0
303,277,315,314,0
304,283,314,315,0
305,292,313,315,0
306,296,311,315,0
305,292,309,315,0
305,282,308,313,0
304,271,307,312,0
304,265,306,311,0
305,267,307,312,0
307,279,308,313,0
308,295,308,313,0
308,313,308,312,0
308,333,309,313,0
310,348,311,313,0
312,356,310,313,0
313,356,309,312,0
313,346,308,312,0
311,330,307,312,0
310,313,307,311,0
309,304,308,311,0
310,304,309,310,0
311,311,311,310,0
314,318,313,310,0
317,322,314,311,0
318,323,314,312,0
316,318,313,312,0
313,312,310,311,0
307,306,307,310,0
302,305,306,309,0
300,308,306,308,0
299,310,305,307,0
299,308,303,307,0
297,301,303,306,0
295,290,303,305,0
294,279,304,305,0
294,271,304,305,0
295,267,304,305,0
297,267,305,306,0
300,274,306,307,0
302,285,306,307,0
303,295,304,307,0
303,303,303,306,0
302,309,302,305,0
301,314,301,305,0
299,314,302,306,0
299,314,306,308,0
300,319,310,310,0
303,329,313,311,0
305,336,314,312,0
307,335,313,312,0
306,331,309,310,0
304,329,305,308,0
303,328,302,307,0
302,327,300,306,0
301,322,298,305,0
302,317,299,307,0
304,316,301,308,0
308,320,304,310,0
312,325,306,312,0
315,328,308,313,0
316,327,308,312,0
315,322,308,311,0
313,315,308,311,0
312,309,310,310,0
311,302,311,309,0
310,298,312,307,0
310,297,312,305,0
311,300,314,305,0
313,306,316,306,0
313,312,317,308,0
313,314,317,311,0
313,313,316,312,0
309,304,312,312,0
303,289,307,311,0
299,278,303,310,0
298,278,301,309,0
301,284,302,308,0
304,286,304,306,0
305,287,304,302,0
305,290,303,298,0
304,299,301,294,0
303,310,301,293,0
301,318,301,296,0
299,321,303,300,0
299,321,306,304,0
301,316,308,308,0
301,305,309,312,0
302,292,309,314,0
303,282,309,315,0
305,277,309,316,0
306,280,310,317,0
307,287,310,317,0
307,296,309,316,0
307,305,307,314,0
308,313,306,314,0
310,322,307,314,0
312,329,309,314,0
313,327,311,314,0
313,319,310,312,0
313,312,308,309,0
312,311,306,305,0
310,317,305,301,0
309,326,304,298,0
309,335,302,297,0
310,342,302,299,0
309,345,302,301,0
306,340,302,302,0
302,330,301,302,0
299,320,301,301,0
297,312,302,300,0
295,305,302,301,0
294,302,304,302,0
294,300,307,304,0
295,298,310,307,0
297,296,312,310,0
298,295,312,311,0
300,299,311,311,0
301,307,311,311,0
302,316,311,312,0
302,322,311,312,0
302,323,311,312,0
302,320,312,313,0
302,311,313,315,0
302,297,313,316,0
302,284,314,316,0
301,277,314,316,0
301,279,315,315,0
301,284,313,313,0
302,289,311,312,0
303,295,309,311,0
305,299,309,311,0
309,302,310,312,0
312,303,311,312,0
314,304,312,312,0
315,304,313,312,0
316,305,313,313,0
317,304,315,314,0
316,300,315,315,0
315,298,316,316,0
315,300,315,315,0
315,304,314,315,0
315,307,313,314,0
315,316,313,312,0
315,330,311,309,0
314,344,309,307,0
314,346,307,306,0
313,338,305,305,0
310,328,304,304,0
308,318,304,304,0
306,313,304,304,0
305,312,304,304,0
305,315,305,304,0
307,319,306,304,0
307,323,306,304,0
307,325,306,304,0
305,324,305,305,0
304,322,305,306,0
304,317,305,307,0
305,312,305,307,0
305,305,304,307,0
304,294,304,306,0
302,283,303,305,0
300,275,302,304,0
300,273,303,304,0
300,273,303,304,0
300,275,303,304,0
301,278,304,304,0
303,285,306,305,0
306,294,309,306,0
309,301,311,309,0
311,302,312,311,0
313,297,312,313,0
315,288,313,315,0
315,282,313,315,0
314,280,313,314,0
312,284,312,313,0
312,293,311,313,0
312,306,310,311,0
312,318,308,308,0
312,326,305,303,0
311,334,302,299,0
308,339,300,295,0
305,340,299,295,0
303,336,300,297,0
301,328,302,300,0
300,318,303,302,0
299,310,303,303,0
301,308,303,304,0
304,312,304,304,0
309,318,305,304,0
311,324,305,304,0
313,326,303,304,0
312,325,303,305,0
311,321,304,306,0
310,318,305,308,0
309,315,308,309,0
309,311,310,310,0
310,307,311,311,0
312,301,312,310,0
313,298,313,310,0
314,295,313,309,0
315,288,314,310,0
316,285,314,311,0
318,288,314,312,0
319,291,315,312,0
317,293,314,311,0
314,297,312,309,0
310,306,312,309,0
308,316,311,310,0
305,322,309,310,0
302,320,307,310,0
300,318,303,310,0
298,319,300,309,0
297,321,299,308,0
298,324,298,308,0
299,325,298,307,0
301,323,298,307,0
303,318,298,307,0
303,314,299,306,0
304,311,301,305,0
304,312,305,305,0
305,312,310,306,0
304,309,312,306,0
304,308,313,306,0
304,308,310,306,0
303,309,306,305,0
302,309,303,304,0
303,308,301,304,0
304,303,301,306,0
307,293,303,308,0
309,284,307,311,0
311,279,311,313,0
311,279,313,314,0
310,281,314,312,0
308,284,314,311,0
306,289,313,310,0
305,296,313,310,0
306,300,312,310,0
307,300,311,310,0
309,303,310,311,0
310,309,311,311,0
309,311,311,310,0
306,303,310,308,0
304,295,309,307,0
302,294,307,306,0
301,301,304,304,0
300,312,302,304,0
300,320,300,304,0
300,321,298,304,0
299,317,297,304,0
298,316,297,304,0
299,317,295,302,0
299,317,294,300,0
299,312,293,298,0
300,302,294,298,0
301,294,297,300,0
304,291,302,302,0
307,298,306,305,0
312,315,310,306,0
314,334,310,306,0
315,349,309,305,0
315,354,308,304,0
316,351,307,304,0
318,343,308,305,0
320,333,310,306,0
322,327,310,307,0
321,326,311,308,0
320,330,311,308,0
318,337,311,308,0
316,343,310,308,0
312,341,309,308,0
307,330,306,308,0
301,315,305,308,0
296,303,305,309,0
293,299,307,310,0
293,304,308,311,0
297,315,309,312,0
302,325,308,313,0
306,325,304,312,0
307,318,300,309,0
305,308,297,307,0
301,298,296,304,0
297,291,298,303,0
295,287,301,303,0
294,286,304,303,0
294,285,307,304,0
295,283,310,306,0
297,282,312,308,0
297,280,313,309,0
297,275,313,310,0
297,272,312,310,0
298,273,310,310,0
302,281,310,311,0
308,293,310,311,0
312,309,310,310,0
314,323,311,310,0
315,332,311,309,0
315,333,312,309,0
314,327,312,309,0
312,313,312,310,0
309,298,312,310,0
307,290,314,310,0
306,291,316,310,0
305,297,317,310,0
305,299,317,311,0
304,293,313,311,0
302,285,310,312,0
302,281,309,312,0
305,285,311,313,0
308,296,311,313,0
310,311,311,312,0
311,325,310,311,0
311,332,307,310,0
311,332,304,309,0
311,326,302,308,0
311,316,301,308,0
310,304,300,308,0
311,294,300,308,0
312,289,300,308,0
313,286,301,307,0
314,283,302,308,0
315,281,303,308,0
316,284,305,308,0
318,294,308,309,0
319,307,309,310,0
316,315,310,309,0
313,319,310,309,0
310,318,310,309,0
307,312,310,309,0
305,304,310,309,0
304,297,311,310,0
307,296,312,312,0
309,300,313,312,0
311,306,314,311,0
311,310,312,310,0
309,313,310,308,0
308,317,308,307,0
306,317,306,306,0
303,311,305,306,0
302,302,304,306,0
302,293,305,308,0
302,290,306,309,0
303,298,306,310,0
304,309,305,309,0
304,315,302,308,0
305,323,300,306,0
308,332,300,306,0
311,337,301,306,0
312,335,301,305,0
312,327,301,304,0
310,317,301,303,0
307,310,301,303,0
304,306,301,303,0
302,307,301,302,0
301,308,300,303,0
301,307,301,303,0
301,304,302,303,0
302,302,303,304,0
304,302,303,304,0
307,303,304,305,0
311,303,304,306,0
315,303,305,307,0
316,304,305,308,0
317,309,307,308,0
316,314,307,308,0
314,314,305,307,0
311,308,303,306,0
308,303,302,306,0
304,299,301,305,0
301,295,299,305,0
299,295,299,305,0
299,301,298,306,0
300,310,297,306,0
301,316,297,305,0
301,315,295,305,0
300,310,294,304,0
300,304,294,304,0
301,301,294,303,0
303,303,295,303,0
304,308,297,303,0
307,316,300,303,0
309,323,303,304,0
312,326,305,307,0
315,325,306,309,0
317,323,307,313,0
317,320,307,315,0
317,316,308,317,0
316,311,309,317,0
314,304,309,315,0
312,294,308,312,0
308,286,305,310,0
304,281,305,309,0
301,279,306,310,0
299,279,307,313,0
298,278,308,315,0
298,278,309,317,0
298,281,310,318,0
298,289,310,319,0
300,299,311,318,0
303,305,313,317,0
305,305,314,314,0
305,298,312,309,0
303,289,309,305,0
301,284,306,302,0
300,286,305,301,0
301,291,306,303,0
302,299,307,305,0
304,307,308,307,0
305,314,309,308,0
305,320,309,307,0
304,321,309,307,0
305,318,310,309,0
306,312,310,310,0
306,303,309,313,0
306,298,308,313,0
307,301,308,314,0
307,310,309,315,0
308,322,312,316,0
310,333,315,317,0
312,343,318,318,0
316,347,319,319,0
319,350,320,319,0
323,350,320,318,0
323,341,318,316,0
318,327,314,313,0
311,311,310,311,0
306,299,308,311,0
305,293,308,311,0
308,293,309,312,0
311,291,310,312,0
311,285,309,311,0
309,277,307,310,0
308,270,308,310,0
307,266,309,311,0
306,264,309,313,0
305,262,309,314,0
305,257,308,315,0
305,257,308,315,0
307,269,309,315,0
308,286,310,315,0
308,300,309,313,0
308,313,309,312,0
307,322,307,310,0
305,327,306,308,0
304,329,305,308,0
303,329,304,307,0
303,329,302,306,0
304,332,301,304,0
305,334,301,304,0
306,336,302,304,0
307,338,303,305,0
307,334,304,306,0
303,324,305,306,0
301,309,307,307,0
300,295,309,308,0
301,286,310,310,0
305,283,311,311,0
308,288,309,310,0
311,302,307,310,0
314,316,303,310,0
315,322,299,309,0
315,320,297,308,0
312,313,295,306,0
311,306,297,306,0
312,304,300,307,0
314,309,304,309,0
316,316,308,311,0
315,317,309,311,0
313,314,309,309,0
312,315,308,307,0
311,319,308,305,0
310,322,306,302,0
308,321,303,300,0
308,322,301,299,0
308,324,299,298,0
309,329,298,298,0
309,334,298,298,0
309,335,298,298,0
308,332,296,297,0
305,326,295,296,0
304,323,294,297,0
303,319,293,296,0
302,311,293,297,0
300,301,292,299,0
298,291,294,301,0
295,283,296,304,0
293,280,299,306,0
293,278,303,309,0
295,275,306,311,0
298,274,309,312,0
301,278,311,313,0
304,288,313,312,0
308,302,312,310,0
311,317,311,308,0
313,329,311,305,0
313,338,310,303,0
311,341,309,301,0
307,338,307,300,0
303,334,304,300,0
301,329,300,302,0
299,322,298,303,0
298,315,297,305,0
298,309,299,307,0
298,307,302,308,0
299,304,305,310,0
300,299,307,311,0
301,295,308,313,0
302,290,309,314,0
302,286,309,314,0
302,286,308,315,0
302,290,308,316,0
302,295,307,316,0
302,298,307,317,0
304,301,307,318,0
306,301,309,319,0
308,298,310,319,0
308,294,310,318,0
306,291,309,316,0
305,290,307,314,0
305,290,309,313,0
309,293,313,314,0
314,298,317,314,0
317,308,319,313,0
318,322,320,312,0
318,335,319,311,0
318,343,318,311,0
319,339,314,310,0
318,329,310,310,0
314,316,306,309,0
309,307,305,310,0
307,306,305,310,0
306,311,306,310,0
307,321,306,310,0
310,331,307,310,0
312,336,308,308,0
309,335,309,307,0
306,329,308,307,0
303,322,308,305,0
301,315,307,304,0
301,310,307,303,0
302,307,307,302,0
302,304,307,302,0
302,302,307,302,0
302,299,308,303,0
301,296,307,304,0
299,293,305,304,0
297,286,302,304,0
297,280,301,304,0
299,281,301,304,0
302,285,302,305,0
304,293,303,305,0
304,300,303,305,0
303,302,302,303,0
302,297,300,303,0
302,292,300,305,0
304,290,302,307,0
306,291,304,309,0
305,293,303,308,0
303,292,302,306,0
301,289,302,305,0
301,285,303,304,0
300,283,303,303,0
299,284,301,302,0
300,289,299,301,0
302,297,297,301,0
307,306,296,302,0
311,313,295,302,0
312,318,294,302,0
312,323,294,302,0
310,324,294,302,0
308,319,294,302,0
305,310,295,301,0
304,297,298,301,0
305,287,303,302,0
308,282,309,303,0
312,284,313,303,0
314,296,316,303,0
316,309,317,304,0
316,318,316,304,0
315,322,315,304,0
313,325,313,305,0
313,329,313,304,0
314,334,312,304,0
315,339,313,304,0
315,343,313,304,0
315,349,314,304,0
316,354,316,305,0
314,356,318,305,0
311,353,317,305,0
307,345,315,304,0
304,337,312,303,0
302,330,308,302,0
300,321,302,300,0
298,311,296,299,0
298,302,292,298,0
299,294,292,298,0
301,288,292,299,0
304,286,295,299,0
305,286,298,297,0
307,290,301,295,0
309,300,306,294,0
310,307,310,295,0
311,306,313,299,0
310,298,316,305,0
307,285,318,311,0
303,271,318,316,0
299,259,318,318,0
298,251,319,319,0
299,251,319,320,0
302,260,319,320,0
304,275,319,319,0
305,284,316,319,0
305,282,314,318,0
304,278,312,318,0
303,282,310,318,0
303,293,310,317,0
303,305,309,315,0
304,318,309,313,0
307,328,309,313,0
311,336,309,312,0
315,339,309,311,0
318,338,310,311,0
320,334,310,311,0
319,328,310,310,0
317,321,310,309,0
315,315,308,308,0
314,311,306,306,0
314,306,305,306,0
314,301,304,308,0
313,300,304,309,0
312,304,304,310,0
308,307,303,309,0
305,307,302,309,0
303,308,301,308,0
301,310,301,307,0
300,314,301,306,0
299,317,302,305,0
299,320,303,305,0
300,318,304,305,0
302,315,304,306,0
305,314,305,307,0
306,314,305,307,0
306,314,305,307,0
306,314,305,307,0
306,316,305,307,0
306,318,304,306,0
306,317,302,306,0
306,314,301,305,0
305,309,301,305,0
305,307,302,306,0
306,309,302,308,0
306,317,302,309,0
308,325,302,310,0
310,323,304,311,0
311,312,305,310,0
310,300,306,310,0
308,291,306,310,0
307,285,308,309,0
306,282,310,309,0
305,281,311,308,0
304,282,311,307,0
302,286,312,308,0
302,294,313,309,0
303,303,312,310,0
303,306,310,309,0
304,303,308,308,0
304,298,306,307,0
305,292,305,307,0
305,286,305,306,0
305,283,306,305,0
305,282,305,305,0
304,284,304,304,0
304,286,303,304,0
305,286,302,303,0
309,289,302,305,0
314,298,304,308,0
318,310,308,310,0
320,317,310,312,0
318,322,311,312,0
314,319,311,311,0
311,310,310,310,0
310,298,309,309,0
310,288,307,307,0
313,286,306,307,0
317,291,306,308,0
317,300,307,308,0
315,308,307,306,0
312,313,305,304,0
308,315,303,302,0
307,315,301,300,0
306,315,298,299,0
304,314,295,298,0
303,313,295,298,0
302,312,296,300,0
301,307,297,302,0
300,298,298,304,0
299,283,302,307,0
298,265,306,309,0
298,253,310,312,0
299,251,315,315,0
303,261,319,318,0
308,282,324,321,0
314,305,327,323,0
318,320,328,323,0
321,328,325,322,0
323,333,320,319,0
320,337,313,314,0
315,340,304,308,0
309,340,298,303,0
306,338,294,300,0
303,336,293,297,0
302,332,293,297,0
301,328,294,297,0
300,328,296,297,0
302,331,298,297,0
304,334,299,297,0
306,333,300,298,0
307,328,300,300,0
309,321,302,303,0
311,315,303,305,0
313,310,306,307,0
316,309,310,309,0
319,311,313,310,0
319,310,313,310,0
317,308,313,312,0
313,309,314,312,0
310,310,314,313,0
308,307,313,312,0
306,300,312,311,0
304,293,311,310,0
302,291,310,310,0
300,293,310,310,0
299,301,311,309,0
298,310,310,307,0
296,315,308,304,0
296,317,306,303,0
297,314,304,304,0
297,309,303,305,0
297,299,303,307,0
297,285,303,309,0
297,269,304,310,0
296,253,305,311,0
297,241,307,311,0
298,237,310,312,0
300,237,312,312,0
303,244,315,313,0
306,260,317,313,0
308,279,318,312,0
309,298,317,310,0
311,314,316,309,0
314,325,316,309,0
319,332,316,309,0
323,336,316,308,0
324,337,315,306,0
321,338,313,304,0
314,336,311,302,0
306,335,309,300,0
301,337,308,298,0
299,336,306,297,0
299,333,306,297,0
302,326,305,298,0
304,316,303,299,0
306,305,302,300,0
307,295,301,302,0
308,288,302,304,0
307,282,302,305,0
305,280,302,306,0
304,285,303,306,0
303,299,304,306,0
301,314,306,304,0
298,323,306,304,0
295,324,305,305,0
293,322,306,307,0
293,318,307,311,0
295,314,309,314,0
296,309,311,317,0
297,305,313,319,0
299,306,315,320,0
301,305,316,320,0
304,300,317,319,0
305,295,317,318,0
305,288,317,316,0
303,284,316,315,0
301,282,317,315,0
302,287,318,316,0
302,297,318,315,0
303,310,315,313,0
303,326,310,310,0
304,340,306,308,0
305,348,303,306,0
307,349,302,306,0
310,346,302,307,0
312,341,304,309,0
312,332,306,312,0
310,319,309,314,0
307,307,311,315,0
304,298,312,314,0
303,289,312,314,0
302,281,312,313,0
302,279,311,311,0
302,282,309,311,0
302,289,308,311,0
302,298,308,311,0
304,306,307,312,0
307,308,306,312,0
310,302,305,312,0
312,292,304,312,0
313,285,305,313,0
314,285,306,314,0
313,289,307,315,0
310,292,307,314,0
307,298,305,314,0
303,306,303,313,0
301,315,301,312,0
299,323,300,310,0
298,333,299,309,0
298,343,299,307,0
298,346,302,306,0
299,342,305,306,0
299,334,307,305,0
298,322,307,304,0
297,310,305,303,0
296,300,304,302,0
297,294,302,301,0
299,291,301,302,0
303,291,301,303,0
305,292,301,303,0
305,296,300,302,0
303,297,298,300,0
299,294,295,298,0
297,292,296,298,0
297,290,300,301,0
297,286,305,303,0
299,283,309,305,0
300,285,312,307,0
302,293,315,307,0
305,304,316,307,0
307,318,316,306,0
309,328,316,304,0
312,334,315,302,0
314,336,314,301,0
313,333,314,301,0
310,323,312,302,0
306,312,311,303,0
306,307,309,304,0
307,305,307,304,0
310,301,303,302,0
311,295,299,299,0
312,290,296,298,0
312,288,295,297,0
309,286,295,297,0
305,286,295,296,0
300,286,296,295,0
296,288,297,295,0
295,292,299,298,0
295,298,300,300,0
296,303,300,302,0
298,304,301,303,0
303,304,303,304,0
307,305,305,305,0
312,308,309,307,0
314,310,312,308,0
315,309,314,310,0
316,304,316,311,0
318,294,319,313,0
319,285,321,315,0
319,279,323,316,0
317,279,323,317,0
312,287,320,316,0
308,304,315,314,0
306,324,311,312,0
306,340,309,310,0
304,348,306,308,0
301,345,304,306,0
298,338,302,306,0
297,332,304,307,0
300,332,308,309,0
307,337,314,312,0
313,343,317,314,0
317,349,317,314,0
318,350,315,312,0
317,347,311,309,0
314,337,308,307,0
311,326,307,306,0
309,315,307,306,0
307,305,308,306,0
305,297,309,306,0
304,295,309,305,0
303,298,308,304,0
302,298,306,302,0
300,294,305,302,0
299,288,306,304,0
302,287,310,309,0
307,289,316,315,0
314,291,320,318,0
317,291,320,318,0
317,290,317,316,0
318,291,314,314,0
322,296,312,314,0
326,303,310,314,0
329,310,306,313,0
328,311,302,313,0
326,311,299,311,0
322,313,296,310,0
316,320,294,308,0
310,324,294,306,0
304,319,294,304,0
298,309,295,301,0
294,300,296,300,0
292,295,297,300,0
292,296,299,302,0
293,301,302,304,0
295,305,306,306,0
297,303,310,308,0
299,294,312,309,0
301,285,312,308,0
304,277,311,307,0
309,276,311,308,0
314,284,313,309,0
320,299,315,310,0
323,314,315,309,0
324,325,314,310,0
324,332,315,310,0
322,335,315,311,0
319,337,313,311,0
314,335,311,310,0
309,332,309,308,0
305,327,306,307,0
301,319,305,306,0
298,308,305,305,0
297,296,305,306,0
298,288,304,307,0
299,288,302,305,0
300,297,301,304,0
301,311,301,305,0
302,322,302,307,0
303,323,302,309,0
302,316,303,310,0
301,307,304,310,0
302,300,305,311,0
304,296,308,311,0
307,298,308,311,0
311,307,309,311,0
315,318,307,310,0
317,326,305,309,0
319,329,304,308,0
321,329,304,310,0
326,326,307,313,0
331,325,311,317,0
334,327,315,320,0
332,326,316,320,0
323,319,314,319,0
312,309,311,317,0
302,295,308,315,0
297,282,308,314,0
295,271,308,315,0
297,270,308,315,0
300,279,309,315,0
304,293,308,314,0
307,306,307,311,0
310,316,306,309,0
311,321,305,306,0
311,323,305,304,0
312,325,305,303,0
313,327,306,303,0
313,326,308,304,0
310,322,310,304,0
307,312,310,305,0
304,300,307,305,0
302,289,305,307,0
303,280,303,308,0
304,270,302,310,0
304,261,301,310,0
303,255,301,311,0
300,255,302,312,0
298,261,305,312,0
297,274,310,313,0
296,296,314,314,0
296,322,317,313,0
297,341,317,311,0
298,344,315,308,0
299,340,312,306,0
301,334,309,304,0
304,329,305,302,0
306,326,302,300,0
307,324,297,297,0
307,322,293,294,0
307,322,289,293,0
309,325,289,294,0
312,330,291,296,0
315,334,295,299,0
314,334,299,301,0
310,328,303,303,0
306,320,307,305,0
304,313,313,309,0
308,314,318,314,0
314,319,323,317,0
318,320,325,318,0
318,312,325,318,0
314,294,323,316,0
310,277,321,315,0
307,270,319,314,0
307,278,317,313,0
306,294,313,312,0
304,309,309,310,0
303,318,304,309,0
301,320,300,308,0
299,315,298,308,0
299,311,297,309,0
299,308,298,310,0
300,306,300,311,0
300,304,302,311,0
298,305,302,310,0
297,311,303,310,0
297,317,305,310,0
298,324,307,310,0
300,329,309,309,0
302,330,310,309,0
305,327,313,310,0
307,320,316,310,0
308,315,319,310,0
306,312,319,309,0
303,305,318,308,0
298,291,315,307,0
295,276,314,306,0
295,268,313,307,0
296,269,313,306,0
297,273,312,305,0
299,279,310,304,0
299,286,308,303,0
300,292,306,302,0
301,300,304,302,0
301,309,303,302,0
302,315,302,302,0
302,316,301,303,0
302,315,299,304,0
303,314,299,306,0
306,316,300,308,0
308,321,302,309,0
309,326,302,308,0
308,326,303,307,0
308,322,303,305,0
309,317,305,304,0
312,309,307,303,0
316,299,309,304,0
320,290,311,306,0
320,282,310,307,0
315,278,306,307,0
309,278,303,307,0
305,283,301,308,0
303,287,298,308,0
301,290,296,308,0
301,295,295,309,0
302,301,294,309,0
304,305,293,308,0
304,309,292,306,0
303,312,292,303,0
302,314,294,302,0
301,314,295,301,0
302,314,297,301,0
304,318,298,302,0
306,324,299,303,0
309,331,298,304,0
308,333,298,305,0
306,332,298,307,0
305,333,302,310,0
305,332,306,313,0
306,330,309,315,0
305,325,310,315,0
305,317,310,315,0
305,309,309,313,0
307,302,306,309,0
309,297,303,305,0
311,293,302,302,0
314,296,304,299,0
315,301,306,297,0
313,304,306,297,0
309,304,305,299,0
305,303,304,301,0
303,304,303,304,0
303,307,304,308,0
304,311,305,310,0
306,315,306,311,0
307,317,306,309,0
308,314,306,308,0
308,310,307,306,0
309,309,310,306,0
311,312,311,307,0
312,317,312,308,0
312,320,312,308,0
310,321,312,307,0
308,319,313,306,0
307,316,314,307,0
307,311,315,308,0
308,305,315,310,0
308,302,315,312,0
306,298,314,311,0
305,290,313,311,0
304,281,311,310,0
303,274,309,309,0
302,272,308,308,0
301,279,308,309,0
302,291,309,310,0
303,299,309,310,0
303,300,309,310,0
304,297,307,310,0
304,294,305,308,0
304,292,304,307,0
304,296,302,306,0
304,306,301,305,0
305,320,299,306,0
305,332,298,305,0
306,339,297,306,0
309,339,298,307,0
313,332,300,309,0
316,324,302,312,0
314,318,304,312,0
311,313,305,312,0
307,308,305,312,0
304,305,305,311,0
301,301,305,310,0
299,297,306,310,0
299,293,307,310,0
301,292,308,310,0
303,294,309,310,0
306,298,309,309,0
307,301,309,309,0
307,299,308,307,0
306,294,308,306,0
305,288,308,306,0
305,288,309,306,0
307,298,309,305,0
309,312,308,304,0
310,328,306,302,0
310,338,303,300,0
310,338,300,299,0
309,332,299,300,0
309,324,300,302,0
311,317,303,306,0
314,314,306,311,0
317,314,309,314,0
318,317,311,315,0
318,319,313,315,0
317,319,314,314,0
314,315,314,314,0
310,307,313,313,0
305,301,311,312,0
301,299,310,310,0
299,302,309,309,0
299,306,309,309,0
302,309,310,310,0
304,307,310,310,0
306,301,309,311,0
307,295,310,312,0
310,292,310,313,0
311,296,310,314,0
312,301,310,314,0
312,305,308,312,0
311,308,307,309,0
311,310,306,307,0
311,313,306,306,0
310,312,307,305,0
307,308,307,304,0
304,302,308,305,0
304,297,309,308,0
305,294,311,309,0
306,295,312,310,0
308,300,313,311,0
308,308,313,311,0
306,315,312,312,0
304,319,312,312,0
303,324,311,314,0
303,320,311,315,0
302,307,311,316,0
300,294,310,316,0
297,283,310,317,0
297,276,311,318,0
300,275,311,318,0
303,279,311,316,0
306,286,309,315,0
308,288,308,313,0
308,285,306,311,0
308,283,305,309,0
308,291,304,307,0
309,309,305,305,0
309,330,304,303,0
308,344,304,301,0
307,346,303,300,0
303,340,302,300,0
300,329,302,300,0
299,318,303,302,0
299,310,304,304,0
301,308,305,306,0
303,313,305,309,0
304,318,306,313,0
305,324,307,315,0
307,328,309,316,0
308,327,308,315,0
307,317,306,312,0
305,304,304,310,0
304,292,303,309,0
304,286,302,308,0
304,283,301,308,0
303,281,301,307,0
303,282,301,307,0
302,288,302,307,0
301,296,302,306,0
301,303,301,306,0
302,308,300,306,0
303,310,300,306,0
305,313,298,307,0
306,316,297,307,0
307,319,297,308,0
306,319,297,309,0
304,318,299,311,0
303,318,302,314,0
306,321,306,317,0
311,323,309,319,0
314,316,310,318,0
313,300,310,315,0
310,282,310,312,0
308,274,311,311,0
307,279,310,310,0
306,292,309,307,0
305,304,308,305,0
304,316,308,304,0
303,324,307,303,0
302,329,306,302,0
301,328,306,301,0
300,325,307,302,0
301,324,308,302,0
303,324,310,303,0
305,327,312,304,0
307,332,313,304,0
309,337,312,305,0
309,335,311,306,0
308,325,308,306,0
307,313,307,307,0
307,306,306,308,0
307,303,304,308,0
308,299,302,308,0
309,295,302,308,0
310,294,303,308,0
310,296,304,308,0
310,299,306,307,0
309,299,308,306,0
308,298,309,305,0
308,296,309,305,0
310,296,308,306,0
312,301,308,307,0
314,311,309,306,0
315,322,308,303,0
314,329,307,300,0
312,331,307,297,0
311,330,308,297,0
310,327,308,299,0
308,320,308,301,0
305,313,308,303,0
304,307,309,304,0
304,306,309,304,0
305,316,310,304,0
307,331,311,305,0
310,343,313,305,0
311,349,313,305,0
311,345,312,305,0
311,338,311,305,0
311,329,311,306,0
311,319,311,307,0
310,309,309,307,0
309,306,310,307,0
308,311,310,307,0
308,316,310,307,0
307,316,309,306,0
306,315,308,305,0
304,315,309,305,0
304,313,309,304,0
302,309,310,304,0
300,303,309,304,0
301,300,308,304,0
303,297,307,304,0
304,291,304,303,0
302,283,301,302,0
299,274,300,301,0
297,270,299,301,0
296,272,300,301,0
297,276,302,303,0
298,280,303,304,0
299,282,303,304,0
300,281,302,305,0
301,279,300,305,0
302,279,299,306,0
304,285,299,306,0
305,290,299,307,0
306,295,299,308,0
308,300,299,308,0
309,301,299,308,0
310,299,299,310,0
312,296,300,311,0
313,293,303,313,0
314,290,305,315,0
313,288,309,316,0
314,293,312,317,0
316,302,313,317,0
316,305,313,316,0
315,301,311,314,0
313,294,309,313,0
311,287,307,312,0
307,287,304,311,0
303,294,302,310,0
300,301,299,310,0
298,305,297,310,0
298,307,296,309,0
300,311,295,308,0
302,317,296,307,0
305,323,297,306,0
306,325,299,306,0
307,324,300,306,0
309,321,302,306,0
313,325,304,305,0
317,335,307,305,0
322,341,310,304,0
324,341,313,303,0
322,337,314,301,0
317,332,314,299,0
310,327,313,299,0
306,325,313,301,0
304,325,311,304,0
304,323,310,308,0
304,319,308,309,0
304,315,306,308,0
304,315,305,307,0
305,320,305,306,0
306,323,304,304,0
304,320,303,303,0
302,313,304,303,0
300,308,306,304,0
297,311,309,305,0
295,317,311,308,0
294,320,312,309,0
294,320,312,310,0
295,321,312,310,0
297,318,313,310,0
299,311,313,310,0
300,300,312,309,0
300,288,311,309,0
301,279,309,311,0
303,277,309,312,0
304,280,310,313,0
305,281,310,314,0
305,274,310,314,0
302,262,310,313,0
298,252,310,313,0
297,253,312,313,0
299,264,315,314,0
301,285,316,313,0
303,307,314,310,0
304,323,312,306,0
304,333,310,303,0
304,338,307,301,0
305,339,305,299,0
305,337,302,298,0
305,334,299,297,0
305,329,296,296,0
305,324,295,297,0
305,321,295,298,0
307,323,297,300,0
307,331,300,302,0
306,342,303,304,0
305,350,304,305,0
303,351,306,306,0
303,347,307,307,0
304,341,309,309,0
305,333,312,310,0
306,323,313,310,0
306,314,313,310,0
305,302,312,309,0
303,288,311,309,0
303,273,310,309,0
303,261,310,310,0
303,254,310,311,0
305,252,311,311,0
308,255,311,313,0
311,261,310,312,0
312,271,308,312,0
313,280,305,310,0
313,288,304,307,0
310,291,303,305,0
305,290,302,303,0
301,289,303,302,0
300,295,304,304,0
302,307,306,305,0
306,321,308,307,0
309,331,309,307,0
310,332,307,305,0
307,327,303,301,0
303,318,299,298,0
301,310,298,296,0
300,303,298,295,0
300,298,298,294,0
302,297,299,293,0
304,300,300,293,0
307,305,301,293,0
309,310,302,293,0
310,312,303,293,0
310,308,303,294,0
309,304,303,296,0
310,300,304,299,0
310,299,304,301,0
310,300,305,303,0
311,299,305,306,0
310,292,306,307,0
309,278,304,308,0
306,262,304,308,0
304,252,305,308,0
304,254,307,307,0
308,270,311,307,0
312,292,314,308,0
317,314,317,309,0
321,333,318,310,0
321,344,317,312,0
319,350,313,312,0
316,356,308,311,0
312,360,303,308,0
306,357,298,305,0
301,346,293,301,0
296,329,288,298,0
293,311,286,297,0
292,295,286,298,0
294,286,289,301,0
297,283,294,305,0
300,284,300,310,0
304,289,305,313,0
306,296,310,314,0
307,301,311,314,0
307,307,312,313,0
307,313,313,311,0
307,316,313,310,0
307,315,314,309,0
308,314,315,309,0
310,313,315,309,0
312,313,315,309,0
313,318,315,310,0
315,323,314,310,0
314,326,312,310,0
311,319,310,311,0
307,304,309,313,0
306,287,309,316,0
307,275,310,319,0
308,274,311,319,0
309,284,312,318,0
309,299,311,316,0
308,315,312,314,0
309,330,313,312,0
310,337,313,311,0
310,334,311,310,0
307,326,310,308,0
305,320,310,308,0
303,315,311,308,0
303,311,312,308,0
303,305,311,309,0
305,298,311,311,0
306,288,310,313,0
306,278,309,313,0
304,270,307,314,0
302,270,305,313,0
300,275,303,312,0
300,286,302,311,0
303,304,301,310,0
306,324,301,309,0
308,340,302,308,0
308,346,302,307,0
305,343,302,306,0
301,335,302,305,0
299,328,303,305,0
298,327,304,305,0
297,326,303,304,0
297,324,302,304,0
298,321,301,305,0
299,318,301,306,0
300,317,301,306,0
301,317,301,306,0
301,316,301,306,0
302,313,302,305,0
304,306,303,305,0
305,297,304,304,0
307,289,306,303,0
307,286,308,303,0
305,289,308,303,0
304,294,309,304,0
302,293,308,305,0
301,287,308,307,0
303,278,310,310,0
307,269,312,314,0
310,268,315,317,0
312,274,316,319,0
315,288,317,320,0
315,306,318,320,0
313,321,317,317,0
308,327,314,312,0
303,328,310,306,0
299,328,306,302,0
298,331,303,299,0
299,338,301,298,0
303,349,302,299,0
307,354,304,300,0
309,351,306,302,0
309,340,306,304,0
307,324,306,307,0
306,307,304,310,0
304,293,303,312,0
304,282,303,314,0
305,276,303,316,0
305,274,303,316,0
304,279,303,315,0
303,283,304,315,0
303,287,305,315,0
305,289,307,315,0
307,287,308,316,0
310,287,309,317,0
312,291,308,316,0
312,296,307,315,0
311,303,306,313,0
310,310,305,312,0
310,316,306,311,0
311,317,305,310,0
313,318,305,309,0
313,321,305,309,0
313,323,304,307,0
310,320,301,307,0
308,315,297,306,0
305,312,293,306,0
304,309,290,306,0
304,309,288,307,0
306,312,289,308,0
308,312,293,309,0
309,308,298,309,0
308,303,303,310,0
307,297,308,310,0
