306,316,303,312,2
307,306,303,313,2
306,296,304,312,2
307,289,304,312,2
306,286,303,311,2
304,285,302,310,2
303,285,300,310,2
302,286,298,309,2
300,284,298,309,2
299,281,299,309,2
300,279,301,310,2
302,280,304,312,2
305,286,307,313,2
308,295,308,313,2
309,303,308,313,2
309,311,306,312,2
309,319,305,311,2
308,326,305,311,2
308,336,306,310,2
307,347,306,309,2
307,356,306,308,2
305,357,305,306,2
302,350,303,303,2
299,336,301,302,2
296,319,299,302,2
295,305,298,304,2
295,297,297,306,2
296,296,298,307,2
299,297,299,308,2
301,301,299,308,2
303,305,301,309,2
305,307,302,309,2
306,305,304,310,2
306,299,306,311,2
307,292,308,312,2
307,287,310,312,2
308,290,310,311,2
309,302,310,310,2
309,312,309,308,2
309,317,308,306,2
309,319,306,304,2
309,317,305,303,2
308,314,304,301,2
307,309,303,299,2
305,303,302,297,2
305,302,302,296,2
305,308,303,297,2
306,316,304,298,2
306,322,305,301,2
307,325,306,306,2
308,326,307,310,2
309,326,309,313,2
309,324,311,314,2
310,322,312,313,2
310,316,314,312,2
311,311,315,311,2
311,307,316,310,2
311,305,316,309,2
311,303,315,310,2
311,304,314,311,2
312,306,312,312,2
311,308,311,312,2
310,311,310,312,2
309,316,311,310,2
309,322,312,308,2
308,325,312,306,2
307,324,311,304,2
308,319,308,303,2
309,310,306,303,2
311,300,304,303,2
313,295,303,303,2
317,296,303,302,2
319,298,302,301,2
320,302,301,300,2
319,305,301,300,2
316,306,301,301,2
312,305,303,298,2
309,300,304,294,2
306,289,305,289,2
303,274,307,287,2
302,260,309,290,2
302,255,310,297,2
303,259,309,306,2
302,271,306,318,2
301,288,304,328,2
299,301,303,335,2
297,310,302,338,2
297,314,302,337,2
298,315,301,333,2
300,318,299,329,2
304,321,299,326,2
309,324,299,323,2
313,328,299,321,2
314,329,300,319,2
314,326,302,317,2
310,321,303,315,2
305,314,303,313,2
302,305,304,311,2
299,294,305,310,2
298,281,306,309,2
297,270,306,309,2
296,268,305,308,2
297,276,305,307,2
298,289,307,307,2
300,305,309,308,2
302,321,310,309,2
303,333,311,310,2
303,341,311,311,2
304,345,311,312,2
305,348,310,311,2
305,350,308,310,2
305,351,305,308,2
305,345,302,306,2
304,335,299,304,2
303,321,297,302,2
303,305,298,301,2
302,292,299,302,2
302,282,300,304,2
302,271,301,304,2
303,261,301,305,2
305,257,300,305,2
307,262,301,304,2
308,276,301,303,2
308,295,302,303,2
308,312,306,305,2
308,324,311,308,2
309,332,316,311,2
309,339,319,313,2
309,346,318,313,2
307,351,314,312,2
307,353,311,311,2
305,350,308,310,2
304,343,306,308,2
304,336,305,307,2
304,332,305,307,2
305,329,305,307,2
305,326,307,308,2
305,323,309,308,2
305,323,310,308,2
306,321,310,308,2
306,318,309,308,2
305,314,309,307,2
304,309,309,306,2
303,307,311,306,2
302,306,312,306,2
301,306,313,306,2
300,301,313,306,2
300,288,313,305,2
300,268,312,304,2
301,245,312,302,2
304,231,313,302,2
307,231,316,301,2
311,248,318,301,2
312,273,317,298,2
310,295,314,295,2
307,310,310,293,2
304,319,306,293,2
302,326,304,295,2
301,333,304,298,2
302,339,305,302,2
303,343,306,305,2
304,344,307,308,2
304,346,309,311,2
305,347,311,312,2
306,347,312,310,2
306,345,312,306,2
307,340,312,302,2
307,331,311,298,2
307,316,309,296,2
306,299,308,296,2
304,285,307,297,2
300,277,305,297,2
296,276,303,295,2
294,281,302,294,2
295,287,303,295,2
297,290,303,298,2
298,290,305,301,2
300,290,307,305,2
301,292,308,310,2
303,297,309,315,2
305,307,310,320,2
308,323,311,325,2
310,336,310,330,2
312,345,310,334,2
313,349,309,335,2
313,349,309,333,2
313,343,309,331,2
312,335,310,329,2
311,323,312,328,2
310,313,313,327,2
309,307,315,325,2
309,304,317,324,2
309,304,318,323,2
307,305,318,321,2
305,302,316,319,2
303,294,313,317,2
301,279,311,314,2
299,258,311,312,2
300,240,311,309,2
301,231,311,307,2
303,233,311,305,2
306,242,310,303,2
308,257,307,303,2
309,275,304,304,2
309,295,302,305,2
307,310,300,305,2
305,317,299,304,2
302,320,297,301,2
299,325,294,298,2
297,333,291,295,2
297,342,290,293,2
298,350,291,290,2
298,353,294,288,2
298,351,296,286,2
297,348,298,285,2
297,344,301,285,2
297,341,303,287,2
300,339,306,291,2
304,337,309,299,2
309,335,313,308,2
313,331,317,316,2
315,325,320,322,2
315,317,321,325,2
313,304,320,326,2
309,288,319,327,2
305,270,316,327,2
303,254,313,326,2
300,248,312,326,2
300,254,314,324,2
300,271,316,320,2
300,292,317,315,2
300,311,318,310,2
301,327,320,307,2
302,340,319,305,2
302,349,318,303,2
301,352,314,301,2
300,352,312,300,2
301,351,311,298,2
301,347,309,297,2
302,341,307,297,2
302,334,306,297,2
303,328,306,299,2
305,323,307,302,2
307,318,309,303,2
309,310,311,303,2
310,302,313,304,2
310,295,314,306,2
310,290,313,307,2
309,287,312,309,2
308,285,310,311,2
307,286,310,313,2
307,289,310,313,2
308,290,311,313,2
308,289,310,312,2
309,284,310,311,2
309,274,310,308,2
309,266,309,305,2
309,263,309,303,2
308,265,308,301,2
306,273,306,300,2
304,288,306,299,2
304,310,305,300,2
305,333,305,301,2
307,352,304,303,2
308,363,304,305,2
308,366,304,307,2
306,365,304,307,2
305,361,302,306,2
304,355,301,303,2
303,349,300,301,2
303,341,299,300,2
303,333,299,300,2
304,325,300,301,2
304,319,301,302,2
304,316,302,304,2
304,314,305,307,2
305,314,307,311,2
307,314,308,312,2
307,312,308,311,2
307,311,308,309,2
307,311,307,307,2
307,312,307,305,2
308,314,308,305,2
308,315,309,308,2
309,315,310,311,2
310,315,310,314,2
311,316,310,315,2
312,315,310,315,2
310,309,310,313,2
307,298,309,309,2
304,285,308,305,2
302,275,309,303,2
302,273,309,303,2
302,277,310,303,2
303,285,310,304,2
303,296,306,305,2
301,306,302,306,2
298,310,296,307,2
296,310,293,310,2
296,308,291,312,2
296,304,292,312,2
296,299,293,311,2
296,292,295,309,2
296,284,297,306,2
295,275,299,303,2
295,267,302,302,2
296,264,305,304,2
300,271,308,309,2
305,287,310,315,2
309,303,312,318,2
312,318,312,319,2
313,327,311,315,2
313,329,311,313,2
313,326,311,311,2
314,321,312,312,2
315,317,313,314,2
316,315,312,317,2
317,317,310,318,2
316,321,307,317,2
314,327,304,315,2
310,334,300,312,2
305,337,297,309,2
300,335,295,306,2
297,331,296,305,2
295,328,297,304,2
293,323,300,303,2
292,313,301,302,2
290,299,301,301,2
288,286,301,300,2
288,277,301,301,2
289,277,302,304,2
290,282,304,308,2
293,287,305,312,2
295,292,306,316,2
297,299,308,318,2
300,305,311,319,2
303,309,313,318,2
305,308,314,315,2
307,302,314,312,2
307,294,314,308,2
307,286,314,304,2
308,279,313,300,2
307,277,312,298,2
308,288,312,298,2
307,304,310,299,2
305,315,306,300,2
303,319,303,303,2
300,317,302,307,2
297,314,301,311,2
296,316,302,314,2
297,326,304,316,2
297,336,303,315,2
297,343,301,314,2
297,346,300,313,2
296,345,301,313,2
297,344,302,314,2
296,339,306,314,2
296,332,308,314,2
297,324,309,314,2
298,316,308,313,2
298,310,305,311,2
298,304,304,310,2
298,299,304,310,2
298,295,305,310,2
298,294,307,309,2
299,298,308,309,2
301,310,309,308,2
303,324,311,309,2
304,330,311,309,2
305,323,311,312,2
304,303,312,314,2
303,278,314,317,2
303,256,316,320,2
304,246,319,324,2
307,249,321,325,2
309,262,321,323,2
310,280,320,321,2
310,300,318,318,2
310,320,316,315,2
310,336,314,313,2
309,345,311,311,2
307,349,309,309,2
304,350,306,307,2
302,351,304,306,2
301,354,303,305,2
301,356,304,306,2
301,353,304,307,2
301,349,304,308,2
301,343,303,309,2
300,337,302,310,2
299,329,301,311,2
299,320,301,312,2
298,308,302,312,2
299,293,306,313,2
299,278,309,313,2
300,266,312,312,2
301,256,314,311,2
301,250,315,309,2
302,248,316,309,2
303,253,317,309,2
305,261,317,311,2
305,267,315,311,2
304,273,312,313,2
304,282,311,313,2
304,298,310,314,2
305,315,311,312,2
305,325,311,311,2
305,324,312,309,2
304,318,311,306,2
303,314,311,304,2
302,314,311,300,2
302,318,310,297,2
301,326,308,296,2
300,331,307,297,2
300,332,304,298,2
300,331,302,297,2
301,329,299,294,2
304,328,296,289,2
306,326,295,284,2
310,324,294,281,2
312,322,294,280,2
312,320,293,284,2
311,319,293,291,2
309,319,294,299,2
307,321,297,305,2
306,325,300,311,2
305,327,302,316,2
305,325,305,319,2
305,316,307,321,2
304,302,309,321,2
303,289,310,321,2
301,284,309,319,2
299,290,308,318,2
297,301,307,317,2
295,312,306,317,2
294,319,305,316,2
294,322,305,316,2
294,322,304,316,2
294,319,303,315,2
295,312,302,315,2
297,299,301,315,2
300,281,301,316,2
302,261,302,316,2
305,245,305,315,2
309,241,308,314,2
312,251,309,313,2
313,272,309,312,2
312,295,305,309,2
309,310,301,306,2
305,315,299,305,2
303,313,297,307,2
300,311,296,310,2
297,311,295,311,2
295,315,296,312,2
294,320,298,313,2
293,323,301,313,2
293,320,304,314,2
293,309,308,315,2
295,300,311,315,2
297,296,312,314,2
298,300,310,312,2
300,307,309,309,2
301,314,307,306,2
302,318,305,303,2
304,319,303,300,2
304,314,302,295,2
304,306,301,291,2
303,299,302,288,2
301,296,304,288,2
298,294,305,292,2
296,293,306,299,2
296,291,308,309,2
298,294,311,318,2
301,303,312,324,2
302,313,312,326,2
301,314,311,325,2
299,309,310,322,2
298,309,308,318,2
297,313,306,315,2
297,316,303,312,2
297,313,303,312,2
296,302,302,312,2
295,287,302,313,2
296,270,304,314,2
296,260,308,316,2
298,265,309,317,2
300,277,309,317,2
301,288,306,316,2
301,292,303,313,2
302,294,299,309,2
303,296,297,306,2
306,300,298,304,2
310,309,299,303,2
314,322,300,303,2
317,335,301,304,2
319,341,302,305,2
321,342,302,306,2
322,340,304,307,2
322,336,306,307,2
322,332,308,308,2
319,330,309,309,2
314,328,308,310,2
307,325,306,310,2
299,320,305,310,2
292,315,305,310,2
288,312,304,310,2
285,311,304,309,2
284,313,305,307,2
285,315,306,305,2
287,316,307,305,2
290,319,308,305,2
292,318,309,302,2
292,309,309,297,2
292,299,308,291,2
291,290,308,287,2
293,283,309,287,2
295,282,310,290,2
299,290,311,296,2
302,302,310,303,2
303,313,308,310,2
303,321,306,315,2
302,328,304,319,2
299,330,305,321,2
296,329,305,322,2
293,325,306,323,2
292,317,305,323,2
293,307,305,322,2
294,296,305,321,2
295,286,305,318,2
297,278,305,315,2
299,273,306,314,2
301,274,309,315,2
303,278,311,315,2
303,281,311,316,2
303,280,310,317,2
302,278,308,319,2
301,278,308,320,2
301,281,309,322,2
300,288,310,323,2
300,298,312,322,2
301,306,312,322,2
301,313,312,320,2
302,318,312,317,2
302,327,310,313,2
300,336,308,309,2
298,341,305,304,2
296,341,302,299,2
294,335,300,293,2
292,320,298,288,2
291,300,297,284,2
290,280,297,281,2
292,270,299,280,2
295,272,302,282,2
299,283,302,288,2
301,299,303,297,2
302,312,304,308,2
302,319,305,319,2
301,319,307,328,2
300,314,308,332,2
300,306,309,333,2
299,302,308,332,2
300,305,306,328,2
301,313,305,324,2
304,324,303,321,2
308,333,302,318,2
310,338,301,316,2
313,336,301,313,2
316,330,301,311,2
318,323,302,310,2
320,312,304,308,2
318,301,304,305,2
313,291,304,303,2
307,285,304,302,2
302,282,305,301,2
298,283,307,300,2
296,287,308,298,2
295,292,309,297,2
293,294,309,296,2
292,293,308,296,2
292,291,307,297,2
292,289,306,300,2
292,289,305,303,2
293,287,304,306,2
294,286,303,309,2
295,288,305,311,2
296,290,307,312,2
297,294,310,311,2
297,298,312,308,2
296,303,314,306,2
295,307,315,306,2
296,312,316,309,2
298,319,315,312,2
300,325,313,316,2
303,326,311,319,2
305,322,310,320,2
307,318,309,320,2
307,317,309,319,2
307,314,309,318,2
305,309,309,317,2
301,305,308,315,2
298,307,306,312,2
296,312,305,310,2
294,319,304,308,2
294,326,304,307,2
294,329,304,307,2
294,329,304,306,2
294,329,305,306,2
294,329,304,305,2
295,328,304,304,2
295,320,303,302,2
295,307,302,299,2
295,293,301,297,2
295,277,302,296,2
295,265,305,298,2
297,264,310,302,2
299,274,314,306,2
301,293,315,310,2
302,312,315,314,2
303,328,314,317,2
303,335,312,318,2
304,337,310,317,2
304,335,310,315,2
304,330,311,314,2
304,326,312,312,2
303,322,313,311,2
302,318,313,310,2
300,312,313,310,2
299,309,311,310,2
297,309,309,311,2
296,312,307,311,2
296,317,306,312,2
297,322,306,313,2
300,325,305,312,2
301,324,303,311,2
303,320,300,308,2
304,312,297,307,2
305,299,296,306,2
306,284,296,307,2
307,272,297,308,2
307,271,300,309,2
309,279,302,309,2
308,288,304,309,2
305,296,304,309,2
302,301,304,310,2
300,301,305,312,2
300,299,307,316,2
301,298,310,318,2
302,301,311,319,2
302,304,312,317,2
302,303,311,316,2
301,297,310,313,2
300,286,308,310,2
298,273,306,306,2
297,263,303,302,2
295,255,303,299,2
294,247,303,298,2
294,246,304,302,2
296,253,308,309,2
300,265,313,317,2
303,279,316,323,2
306,291,316,324,2
309,304,314,320,2
311,315,311,312,2
312,323,307,305,2
311,332,304,300,2
309,341,302,298,2
305,348,300,299,2
301,350,298,301,2
297,348,297,304,2
296,337,296,305,2
296,320,295,307,2
296,302,296,308,2
296,287,296,308,2
296,279,298,308,2
296,281,302,308,2
297,285,305,306,2
299,290,308,306,2
300,295,310,306,2
302,303,313,308,2
304,313,317,311,2
306,325,319,313,2
307,336,321,315,2
306,342,321,316,2
304,342,319,314,2
300,338,317,313,2
296,334,313,311,2
293,323,308,310,2
291,306,303,310,2
290,286,299,310,2
290,270,294,309,2
290,260,290,308,2
291,257,289,307,2
293,260,290,308,2
295,269,294,308,2
296,277,298,309,2
297,280,302,311,2
298,281,305,311,2
300,284,307,310,2
301,291,309,308,2
301,298,311,307,2
302,304,312,306,2
301,310,313,304,2
300,318,313,303,2
299,328,314,301,2
299,338,314,300,2
299,346,315,300,2
299,350,315,301,2
300,352,315,301,2
301,354,314,301,2
302,356,313,303,2
303,356,313,304,2
305,356,312,305,2
307,353,311,306,2
308,346,310,307,2
309,339,309,308,2
309,331,308,309,2
309,324,307,310,2
305,317,306,310,2
301,306,305,308,2
297,295,303,305,2
293,287,302,299,2
291,280,301,294,2
290,276,301,289,2
290,275,300,287,2
290,274,299,288,2
291,272,297,291,2
291,271,294,294,2
292,274,292,298,2
294,283,292,301,2
297,296,294,302,2
301,309,299,303,2
307,318,305,307,2
312,321,310,314,2
315,322,315,322,2
317,324,317,329,2
318,322,318,335,2
318,314,318,336,2
319,302,319,335,2
321,294,319,333,2
324,294,319,330,2
326,301,319,324,2
328,311,317,319,2
327,321,315,313,2
322,329,312,306,2
314,334,310,300,2
305,338,308,295,2
297,340,307,294,2
289,341,307,297,2
284,333,307,302,2
280,318,307,307,2
280,301,306,312,2
281,291,306,316,2
284,287,306,317,2
288,287,307,318,2
292,288,307,317,2
296,290,308,316,2
300,291,307,315,2
302,293,307,313,2
302,294,304,311,2
300,297,301,309,2
297,299,298,308,2
294,297,297,307,2
292,289,297,309,2
290,276,298,310,2
289,260,302,312,2
288,248,306,314,2
288,242,311,314,2
287,243,313,312,2
287,251,314,309,2
286,264,313,305,2
287,280,314,301,2
290,302,315,299,2
295,326,316,298,2
300,348,317,299,2
305,368,317,299,2
309,382,316,299,2
311,389,314,300,2
310,390,312,303,2
309,384,310,308,2
307,372,309,312,2
304,357,307,315,2
302,342,306,317,2
300,329,305,317,2
299,319,303,316,2
298,309,301,314,2
298,302,300,312,2
297,298,299,309,2
297,297,299,307,2
297,299,299,304,2
298,303,300,299,2
299,308,301,295,2
299,313,302,292,2
300,314,303,291,2
301,313,305,293,2
301,311,308,297,2
301,309,310,303,2
301,308,311,306,2
300,306,313,308,2
300,300,313,307,2
301,290,313,305,2
301,284,313,304,2
303,285,313,302,2
304,291,313,302,2
306,301,312,302,2
306,310,311,301,2
304,313,311,299,2
302,311,309,296,2
299,307,307,292,2
298,303,306,291,2
297,298,304,291,2
296,294,302,293,2
296,290,300,296,2
296,286,299,301,2
296,283,300,307,2
298,283,303,313,2
301,284,305,317,2
303,289,308,319,2
306,298,309,320,2
307,309,308,320,2
307,317,306,318,2
306,323,304,315,2
306,327,304,312,2
306,329,304,311,2
306,326,306,310,2
305,317,307,310,2
305,304,310,310,2
305,291,313,311,2
306,284,317,312,2
309,283,320,313,2
312,286,323,314,2
314,292,323,313,2
314,300,321,310,2
311,308,317,307,2
307,317,312,305,2
302,326,309,302,2
298,330,307,299,2
296,328,305,298,2
294,322,305,298,2
294,317,305,301,2
295,316,304,306,2
296,315,303,311,2
296,311,302,315,2
296,304,299,316,2
295,298,297,314,2
295,293,297,311,2
296,288,298,308,2
297,283,301,305,2
299,277,305,305,2
302,272,310,307,2
306,270,314,310,2
312,276,317,315,2
317,289,318,319,2
321,304,319,322,2
323,318,320,324,2
323,331,320,323,2
321,343,320,319,2
318,353,318,314,2
315,360,316,307,2
311,360,313,304,2
307,359,310,305,2
303,355,308,308,2
298,349,306,312,2
293,339,304,314,2
289,331,301,315,2
287,332,300,314,2
289,336,300,313,2
292,336,300,312,2
295,329,301,312,2
296,320,303,313,2
296,309,305,314,2
294,303,306,313,2
292,303,306,312,2
292,305,305,311,2
292,308,305,308,2
293,310,303,306,2
295,309,302,302,2
296,305,301,296,2
297,299,300,289,2
298,295,301,283,2
299,294,302,279,2
300,300,304,279,2
300,308,305,284,2
299,314,303,293,2
298,318,300,303,2
297,321,298,313,2
297,322,297,319,2
299,321,297,321,2
300,318,297,320,2
300,312,299,318,2
299,305,300,316,2
299,297,301,315,2
299,288,302,314,2
300,278,304,314,2
302,268,306,313,2
304,260,309,310,2
306,253,311,308,2
309,246,313,308,2
311,245,313,310,2
315,252,314,313,2
318,267,313,316,2
318,284,310,316,2
315,299,306,315,2
311,314,302,311,2
307,328,300,308,2
304,339,298,306,2
301,346,297,305,2
299,352,297,305,2
297,354,298,306,2
294,349,300,307,2
292,337,301,308,2
289,321,303,309,2
288,307,305,311,2
288,299,307,312,2
287,296,308,312,2
287,296,309,312,2
288,301,308,311,2
288,310,306,309,2
290,321,305,308,2
291,329,304,308,2
293,333,304,308,2
293,329,305,309,2
293,320,304,309,2
293,314,304,309,2
293,313,302,309,2
294,316,300,308,2
295,320,298,306,2
295,325,295,304,2
294,329,294,302,2
294,331,292,299,2
294,330,292,297,2
294,328,292,296,2
294,326,294,298,2
295,323,297,301,2
296,318,301,305,2
296,312,306,309,2
297,306,311,312,2
299,299,313,312,2
299,284,315,312,2
299,262,315,311,2
298,241,314,309,2
297,230,314,308,2
297,233,315,307,2
298,247,316,307,2
300,267,316,305,2
302,284,314,302,2
302,296,312,300,2
302,309,311,299,2
302,324,310,299,2
302,337,309,302,2
302,344,308,304,2
304,344,308,307,2
309,338,309,309,2
315,330,311,310,2
322,326,310,309,2
327,328,309,305,2
329,333,306,300,2
328,337,303,296,2
323,337,301,293,2
317,335,299,292,2
309,330,297,295,2
302,324,296,299,2
295,316,296,301,2
289,304,297,301,2
285,290,299,299,2
281,278,301,296,2
280,276,303,296,2
281,285,305,296,2
285,303,306,297,2
289,319,307,298,2
292,329,306,298,2
294,333,306,297,2
295,334,308,298,2
296,329,310,300,2
297,321,313,305,2
298,312,314,309,2
299,306,314,312,2
299,302,313,312,2
301,298,312,308,2
304,292,311,303,2
308,288,308,299,2
312,287,305,295,2
314,284,304,292,2
315,277,302,289,2
314,272,300,288,2
311,270,300,286,2
305,274,300,285,2
299,286,300,283,2
293,298,300,282,2
288,308,301,282,2
284,315,301,285,2
282,320,301,291,2
281,323,300,299,2
281,323,299,309,2
284,324,297,316,2
286,325,295,318,2
288,326,293,316,2
289,326,292,314,2
291,324,294,312,2
293,322,297,311,2
294,319,302,311,2
296,317,307,312,2
296,315,313,314,2
296,315,317,316,2
297,317,321,318,2
298,319,323,321,2
299,318,324,322,2
299,314,322,324,2
300,310,320,325,2
301,308,318,324,2
302,307,317,323,2
301,305,316,321,2
300,301,315,319,2
299,295,313,316,2
296,287,313,314,2
294,274,314,312,2
293,261,314,310,2
292,252,314,308,2
291,253,313,306,2
290,263,311,305,2
291,276,308,305,2
293,283,305,307,2
295,285,304,311,2
298,287,304,314,2
301,292,304,316,2
302,301,304,315,2
302,308,304,313,2
301,310,304,309,2
300,308,304,305,2
300,306,304,303,2
300,308,305,303,2
302,315,307,305,2
303,323,308,307,2
304,328,308,308,2
305,328,306,308,2
304,323,304,307,2
302,312,302,306,2
300,298,300,303,2
299,285,300,300,2
299,271,298,298,2
299,264,297,297,2
300,271,296,299,2
302,290,296,301,2
304,311,296,302,2
305,326,296,302,2
305,336,298,302,2
305,339,302,303,2
306,335,307,306,2
306,326,310,309,2
304,315,309,314,2
302,308,305,318,2
299,303,301,320,2
298,304,299,319,2
298,314,298,317,2
299,325,300,315,2
300,330,302,313,2
300,330,303,312,2
301,329,305,311,2
301,327,305,312,2
301,326,305,314,2
302,322,305,317,2
302,316,306,319,2
303,312,306,320,2
304,309,306,319,2
303,307,304,316,2
302,303,302,312,2
300,298,299,308,2
300,297,297,306,2
299,299,296,304,2
298,299,296,304,2
298,297,296,306,2
297,295,298,308,2
297,293,300,311,2
298,295,302,312,2
298,297,303,312,2
298,297,303,311,2
298,294,304,309,2
298,286,304,307,2
298,275,304,307,2
299,269,305,308,2
300,267,305,310,2
301,269,306,314,2
302,274,306,317,2
302,281,307,318,2
302,287,307,318,2
301,295,305,315,2
300,303,303,312,2
301,312,301,309,2
301,320,299,307,2
302,330,299,305,2
302,341,302,305,2
302,351,305,306,2
301,349,309,308,2
301,336,312,312,2
302,319,315,315,2
303,307,316,316,2
306,306,317,315,2
310,311,317,314,2
315,317,317,312,2
320,320,317,310,2
323,321,317,309,2
323,323,317,308,2
321,323,317,309,2
317,323,315,310,2
314,323,313,311,2
310,326,310,312,2
305,327,308,313,2
301,323,306,314,2
295,316,304,313,2
291,308,302,310,2
288,303,301,305,2
285,297,301,295,2
285,290,301,282,2
285,283,300,267,2
286,275,301,256,2
287,269,303,254,2
289,270,305,260,2
292,277,306,275,2
296,287,307,293,2
297,296,307,310,2
299,304,307,322,2
301,310,307,328,2
302,313,307,328,2
303,313,308,326,2
303,313,309,323,2
303,311,309,321,2
303,305,308,317,2
303,299,306,313,2
301,289,304,310,2
300,278,303,307,2
298,274,304,307,2
298,280,306,308,2
299,292,307,310,2
300,305,308,310,2
301,316,309,309,2
302,320,308,305,2
302,318,308,303,2
301,311,306,303,2
300,301,303,304,2
299,292,299,305,2
298,285,295,307,2
299,285,293,310,2
300,292,293,312,2
302,304,295,312,2
304,319,298,311,2
305,334,301,311,2
306,348,304,310,2
306,355,306,310,2
306,354,306,308,2
305,348,308,306,2
306,344,310,305,2
307,343,312,305,2
309,347,313,306,2
310,349,314,307,2
308,345,313,308,2
305,335,312,308,2
301,325,310,307,2
298,317,307,307,2
295,310,303,307,2
294,302,300,307,2
294,293,298,307,2
297,284,298,309,2
301,274,299,310,2
304,267,301,311,2
308,266,304,312,2
311,273,305,312,2
312,281,306,310,2
309,283,306,307,2
304,278,304,306,2
298,268,303,306,2
294,256,304,308,2
292,248,306,311,2
292,245,308,312,2
293,249,309,312,2
294,258,308,310,2
297,271,307,307,2
299,288,306,304,2
301,305,305,298,2
302,318,306,293,2
302,326,305,289,2
300,331,305,287,2
300,336,304,287,2
300,343,303,290,2
300,347,303,294,2
302,349,303,297,2
304,347,303,299,2
306,345,303,301,2
309,342,303,305,2
311,338,303,310,2
312,335,303,315,2
313,332,304,318,2
312,327,306,318,2
311,320,308,314,2
310,314,310,307,2
307,310,313,300,2
304,308,315,295,2
301,306,315,294,2
297,306,315,298,2
295,305,314,304,2
293,302,310,311,2
291,293,305,318,2
291,279,301,322,2
290,264,298,324,2
290,253,297,324,2
292,251,297,324,2
294,261,299,323,2
297,276,300,321,2
299,292,300,317,2
299,303,302,314,2
300,310,303,313,2
301,314,304,313,2
302,318,305,313,2
302,322,305,310,2
302,324,305,307,2
302,325,305,304,2
301,322,305,302,2
300,317,305,301,2
300,312,303,301,2
300,308,302,301,2
300,308,300,303,2
301,312,299,306,2
301,316,298,310,2
300,318,298,314,2
298,317,298,317,2
298,314,298,319,2
299,310,298,320,2
300,305,298,321,2
302,301,298,321,2
304,297,299,320,2
304,294,299,319,2
303,293,299,317,2
303,296,300,315,2
302,301,302,314,2
302,308,304,313,2
303,313,305,311,2
302,312,305,309,2
300,307,305,306,2
299,299,304,304,2
298,293,303,301,2
297,290,302,298,2
297,291,300,297,2
297,293,299,298,2
298,293,300,301,2
299,292,301,304,2
299,291,304,306,2
300,295,309,308,2
300,302,312,309,2
301,307,315,309,2
302,310,315,306,2
301,311,314,303,2
301,308,312,300,2
300,300,309,299,2
298,286,305,298,2
296,271,303,298,2
294,260,302,301,2
294,258,303,305,2
294,268,304,310,2
296,288,306,314,2
297,310,307,317,2
299,328,310,318,2
300,341,313,319,2
302,349,316,318,2
303,353,318,318,2
303,355,317,317,2
301,353,314,315,2
299,346,311,314,2
298,335,309,314,2
297,324,308,315,2
296,315,307,315,2
296,310,308,316,2
296,305,308,316,2
295,300,309,315,2
295,296,309,314,2
296,296,309,313,2
297,297,309,311,2
298,299,307,308,2
299,301,305,305,2
299,303,304,304,2
300,308,303,305,2
301,314,303,306,2
301,321,304,308,2
302,325,304,309,2
301,326,305,310,2
301,325,305,310,2
301,321,306,309,2
301,312,306,307,2
299,298,305,305,2
298,280,304,304,2
298,262,305,304,2
299,253,307,303,2
299,256,309,301,2
300,268,310,299,2
301,281,309,298,2
301,289,307,300,2
300,292,305,301,2
300,292,303,302,2
299,293,300,303,2
299,297,298,305,2
301,303,298,307,2
302,309,297,310,2
304,314,297,314,2
305,317,297,318,2
306,320,298,320,2
305,321,299,320,2
304,322,299,317,2
302,321,299,313,2
300,319,298,309,2
298,317,298,305,2
297,316,297,303,2
297,317,296,301,2
298,321,297,302,2
300,330,301,304,2
303,339,305,305,2
303,341,308,305,2
302,337,310,306,2
301,328,310,307,2
299,313,308,308,2
299,300,306,312,2
300,297,305,316,2
301,299,304,319,2
301,298,303,319,2
300,295,302,316,2
299,292,302,312,2
298,295,303,308,2
298,304,304,306,2
300,316,304,305,2
303,327,304,305,2
307,334,304,308,2
311,337,304,312,2
314,338,305,314,2
317,338,306,317,2
318,337,307,318,2
316,332,308,319,2
312,325,308,319,2
307,313,309,318,2
302,298,308,316,2
297,281,308,314,2
294,266,308,313,2
291,256,308,311,2
290,256,309,310,2
291,264,311,311,2
293,274,311,312,2
294,288,312,313,2
295,301,311,313,2
295,308,309,312,2
295,308,307,313,2
295,304,306,314,2
295,299,306,314,2
296,298,306,313,2
297,298,305,311,2
299,300,304,309,2
301,305,304,308,2
304,311,304,307,2
307,316,305,305,2
308,321,306,302,2
310,327,306,298,2
311,331,306,295,2
311,330,306,294,2
311,327,307,298,2
311,323,308,304,2
309,325,309,312,2
307,329,310,317,2
303,329,309,318,2
299,324,308,317,2
296,315,306,314,2
293,305,305,312,2
293,297,305,311,2
292,292,305,310,2
292,285,306,309,2
291,279,306,307,2
291,278,306,304,2
292,281,305,302,2
294,286,305,302,2
296,286,304,304,2
297,290,304,307,2
298,298,305,310,2
299,308,308,313,2
299,318,310,314,2
297,329,312,312,2
296,338,313,309,2
294,340,313,306,2
293,337,313,304,2
293,335,313,303,2
293,334,312,302,2
292,335,311,301,2
292,333,310,301,2
291,329,310,301,2
290,321,310,301,2
289,311,309,303,2
289,301,310,304,2
290,295,310,305,2
291,290,310,306,2
293,288,309,306,2
296,287,309,307,2
300,288,309,308,2
304,292,309,309,2
309,297,310,308,2
313,302,309,305,2
316,303,307,301,2
316,300,306,295,2
313,296,304,287,2
308,291,302,280,2
302,288,302,277,2
298,287,303,281,2
293,290,304,288,2
291,295,308,298,2
289,299,313,308,2
288,304,315,315,2
288,310,317,319,2
289,319,317,318,2
291,327,315,314,2
293,333,314,309,2
295,337,312,304,2
296,341,311,300,2
295,346,311,295,2
294,348,308,293,2
292,345,308,293,2
291,338,307,297,2
290,331,307,302,2
290,322,306,306,2
290,313,304,309,2
290,305,302,311,2
290,302,299,312,2
290,306,297,312,2
291,315,297,311,2
292,323,297,310,2
292,327,298,310,2
293,327,299,309,2
293,323,302,308,2
294,316,304,306,2
294,308,307,304,2
294,301,309,303,2
295,297,310,303,2
296,298,311,303,2
298,299,311,304,2
300,295,311,304,2
302,286,310,303,2
303,275,309,300,2
303,269,307,296,2
303,273,306,293,2
303,285,304,290,2
305,299,304,288,2
307,310,304,287,2
309,318,302,285,2
309,323,299,287,2
309,328,295,293,2
309,331,292,304,2
309,332,290,316,2
308,331,290,326,2
306,331,292,332,2
303,330,295,333,2
298,327,298,330,2
294,322,302,326,2
292,314,306,321,2
291,305,309,318,2
290,295,312,315,2
291,281,313,313,2
292,269,314,311,2
293,261,313,309,2
293,254,312,305,2
294,249,311,303,2
294,248,310,302,2
294,252,309,303,2
294,260,308,304,2
295,276,306,306,2
297,294,304,307,2
299,312,302,308,2
302,324,300,309,2
303,331,297,309,2
304,337,296,310,2
305,346,295,311,2
307,361,297,311,2
309,374,300,312,2
310,373,303,311,2
309,360,305,309,2
307,340,306,305,2
305,320,306,303,2
304,302,306,301,2
304,289,306,300,2
304,284,307,301,2
305,288,307,301,2
307,298,306,300,2
309,309,306,299,2
311,318,307,299,2
312,321,309,299,2
312,322,311,300,2
311,322,313,301,2
310,323,314,302,2
307,324,315,303,2
304,325,315,303,2
300,325,314,305,2
296,322,312,306,2
291,315,311,307,2
288,307,309,308,2
286,301,308,308,2
286,294,307,308,2
287,286,307,309,2
288,276,306,309,2
288,265,305,307,2
288,254,304,306,2
288,246,304,305,2
289,245,305,305,2
290,250,306,305,2
291,257,305,306,2
291,268,304,307,2
293,284,304,310,2
296,302,304,312,2
299,318,305,313,2
301,326,305,313,2
302,324,304,312,2
301,314,302,310,2
298,303,299,308,2
297,295,298,307,2
297,290,297,306,2
297,286,298,305,2
297,285,300,304,2
298,284,301,303,2
299,286,304,302,2
301,293,306,301,2
303,304,308,297,2
304,315,309,292,2
304,323,309,287,2
303,331,308,284,2
302,337,306,282,2
301,341,306,283,2
301,339,307,287,2
300,334,306,292,2
298,326,305,299,2
298,320,305,304,2
298,316,306,309,2
299,310,307,313,2
301,307,308,317,2
303,309,309,321,2
305,314,309,323,2
305,322,309,325,2
305,327,309,324,2
304,328,309,321,2
304,326,309,316,2
304,322,308,310,2
302,319,307,306,2
302,317,306,303,2
303,316,307,301,2
306,318,308,299,2
310,321,310,297,2
313,324,311,294,2
314,326,311,292,2
313,329,308,292,2
310,329,305,295,2
305,327,301,298,2
302,321,299,302,2
299,311,297,307,2
299,299,296,312,2
299,286,296,316,2
299,274,297,319,2
301,267,298,320,2
302,266,299,319,2
303,267,301,317,2
302,268,303,314,2
302,273,305,312,2
302,284,307,310,2
303,300,310,310,2
305,318,313,312,2
308,331,316,314,2
309,337,318,316,2
310,334,319,317,2
310,323,319,317,2
310,311,318,318,2
308,303,319,316,2
306,296,319,315,2
305,294,320,313,2
304,297,321,311,2
303,301,321,308,2
303,302,319,306,2
302,299,318,305,2
303,293,317,304,2
305,293,317,303,2
308,298,317,302,2
310,303,316,301,2
309,306,313,298,2
307,311,309,295,2
303,315,304,293,2
300,316,299,294,2
296,316,296,296,2
292,314,294,299,2
290,311,294,303,2
290,309,296,305,2
290,308,298,306,2
291,309,300,306,2
292,308,301,303,2
292,300,302,300,2
291,293,302,297,2
290,290,301,296,2
290,294,303,297,2
291,304,306,300,2
293,312,308,302,2
295,311,309,303,2
295,301,309,303,2
295,285,307,302,2
295,267,304,301,2
295,254,302,301,2
296,252,301,300,2
297,259,300,301,2
297,273,301,301,2
298,285,304,302,2
298,294,307,304,2
298,302,310,306,2
299,310,311,308,2
299,319,313,310,2
299,327,313,312,2
299,333,312,312,2
299,337,311,310,2
298,341,310,306,2
298,343,309,303,2
297,343,308,302,2
297,339,307,302,2
297,332,307,304,2
297,325,308,308,2
298,320,310,312,2
299,317,313,315,2
300,315,315,315,2
300,313,316,313,2
300,308,315,310,2
300,300,314,306,2
299,292,311,302,2
299,289,309,299,2
300,293,306,297,2
299,300,304,296,2
300,308,301,296,2
301,318,299,297,2
304,326,299,299,2
309,332,298,300,2
313,332,297,301,2
315,329,295,302,2
316,324,294,301,2
316,319,293,301,2
316,317,295,302,2
317,317,298,305,2
318,315,302,311,2
318,313,307,317,2
315,313,311,323,2
311,316,313,326,2
307,316,315,326,2
302,312,315,324,2
298,307,315,320,2
294,303,314,315,2
291,298,311,312,2
289,292,310,310,2
289,286,309,309,2
289,280,308,309,2
289,276,307,309,2
288,273,306,308,2
288,272,306,307,2
288,268,306,307,2
288,261,307,308,2
288,250,307,309,2
288,240,307,310,2
289,234,310,312,2
290,234,313,313,2
293,242,317,314,2
296,259,319,314,2
299,277,319,312,2
301,292,318,310,2
301,302,317,308,2
301,309,317,306,2
302,315,317,307,2
302,321,315,308,2
303,324,310,310,2
305,323,306,312,2
307,321,303,313,2
310,327,302,312,2
312,339,303,310,2
313,348,304,307,2
312,349,305,304,2
311,342,306,302,2
308,330,306,299,2
306,315,307,296,2
305,299,306,293,2
302,282,305,290,2
298,265,304,290,2
295,257,304,293,2
294,257,306,299,2
294,263,308,305,2
295,272,310,311,2
295,281,310,317,2
295,289,311,320,2
296,299,311,320,2
297,314,309,317,2
299,331,308,312,2
301,344,308,307,2
303,353,308,302,2
305,352,306,300,2
305,346,304,300,2
307,339,304,303,2
309,333,304,306,2
310,329,304,308,2
310,327,305,308,2
309,328,306,306,2
307,327,306,303,2
304,324,305,299,2
299,319,303,295,2
295,316,300,291,2
292,317,297,291,2
293,318,294,293,2
294,316,293,297,2
296,311,293,303,2
296,304,295,308,2
295,296,297,311,2
291,292,299,311,2
289,295,300,309,2
288,305,302,307,2
290,318,303,305,2
293,327,304,303,2
296,332,305,301,2
298,331,305,297,2
299,323,305,294,2
299,314,306,291,2
300,304,308,288,2
301,297,309,286,2
302,292,312,284,2
303,289,316,287,2
304,291,318,292,2
305,296,320,297,2
306,302,319,301,2
306,306,317,302,2
305,307,314,301,2
304,304,313,301,2
303,300,311,303,2
302,298,311,308,2
302,300,311,314,2
302,304,311,319,2
302,306,311,321,2
302,305,309,321,2
301,301,308,319,2
300,293,308,317,2
300,288,308,317,2
299,288,308,316,2
299,293,308,316,2
298,295,307,315,2
296,293,306,313,2
295,286,304,311,2
294,277,302,311,2
294,270,299,311,2
294,270,298,313,2
296,281,298,315,2
298,294,298,315,2
300,303,298,314,2
301,308,299,313,2
300,307,300,312,2
299,305,302,312,2
298,306,304,312,2
298,306,306,312,2
298,305,307,312,2
298,306,308,311,2
299,309,309,308,2
301,310,308,303,2
303,309,305,299,2
304,305,303,296,2
306,302,301,294,2
309,300,300,294,2
312,299,300,297,2
315,298,301,303,2
317,296,304,309,2
318,297,306,314,2
316,298,308,317,2
312,303,308,317,2
306,307,308,316,2
302,315,307,314,2
299,323,306,313,2
299,329,304,311,2
299,333,302,310,2
300,335,298,309,2
300,334,296,307,2
300,330,294,306,2
301,325,293,303,2
301,315,292,302,2
300,303,290,301,2
300,296,290,301,2
300,295,293,303,2
301,297,296,304,2
302,303,300,305,2
302,309,303,305,2
301,312,307,305,2
301,308,310,307,2
302,305,313,309,2
303,305,316,312,2
304,310,318,316,2
306,318,320,320,2
308,325,320,322,2
309,331,318,323,2
310,335,315,321,2
309,338,313,318,2
307,338,310,316,2
304,336,309,314,2
303,334,309,312,2
302,332,308,310,2
301,330,307,307,2
302,326,305,305,2
303,322,304,304,2
303,318,304,303,2
304,314,304,302,2
304,310,304,300,2
305,304,303,298,2
305,298,302,295,2
305,292,302,293,2
304,286,304,294,2
303,284,306,297,2
302,284,309,302,2
301,285,311,308,2
303,284,313,314,2
305,277,314,319,2
306,265,315,320,2
305,250,314,318,2
303,238,312,315,2
300,239,311,311,2
299,258,312,307,2
298,286,312,304,2
299,314,312,304,2
300,335,310,304,2
300,349,307,301,2
300,356,303,296,2
300,358,300,291,2
299,355,297,288,2
298,348,296,288,2
297,341,295,291,2
296,336,295,296,2
295,333,296,302,2
295,332,297,307,2
297,333,299,311,2
299,333,301,313,2
300,326,303,314,2
300,311,305,313,2
298,294,307,311,2
297,282,310,308,2
298,281,312,306,2
301,291,314,303,2
302,302,314,300,2
304,311,312,298,2
303,316,308,297,2
302,317,304,297,2
301,314,301,297,2
300,311,298,298,2
300,311,298,300,2
300,316,299,302,2
302,323,301,305,2
304,329,304,308,2
308,332,305,312,2
312,334,306,314,2
315,334,306,316,2
318,335,306,318,2
320,336,307,319,2
321,334,307,320,2
321,329,307,321,2
318,323,307,320,2
315,317,307,319,2
312,312,306,318,2
309,306,305,316,2
307,298,304,314,2
306,290,302,311,2
305,283,301,309,2
305,277,302,308,2
304,272,302,307,2
302,271,302,307,2
300,273,301,308,2
297,278,301,309,2
295,285,300,310,2
293,291,301,311,2
292,294,302,312,2
291,293,303,312,2
291,288,303,313,2
291,282,303,314,2
292,281,304,314,2
294,283,304,313,2
296,285,305,310,2
299,288,309,308,2
302,291,312,306,2
303,294,315,305,2
304,294,315,304,2
304,295,313,302,2
304,299,311,301,2
304,307,308,301,2
304,316,307,301,2
304,326,306,300,2
304,332,306,301,2
303,331,306,304,2
302,324,307,309,2
300,309,308,313,2
298,293,309,317,2
297,280,310,319,2
298,275,310,319,2
299,278,310,318,2
302,289,308,316,2
305,306,307,313,2
307,318,305,310,2
310,324,304,308,2
310,327,304,307,2
309,329,304,307,2
307,330,304,307,2
305,331,305,307,2
304,332,306,306,2
304,334,306,305,2
303,339,306,303,2
301,345,303,300,2
300,352,300,296,2
298,355,298,294,2
298,353,296,294,2
297,345,295,297,2
297,331,295,303,2
298,310,297,308,2
298,285,299,313,2
298,263,301,315,2
299,249,302,314,2
301,249,305,313,2
304,262,308,312,2
306,281,311,309,2
306,299,312,307,2
306,308,312,304,2
303,306,312,300,2
302,299,313,299,2
301,290,314,299,2
300,278,314,299,2
299,271,314,300,2
299,275,313,303,2
300,284,313,305,2
301,298,312,307,2
302,316,312,308,2
305,338,310,309,2
307,364,310,309,2
308,387,310,311,2
310,398,312,313,2
310,395,314,314,2
311,383,315,314,2
310,367,316,314,2
312,349,317,314,2
313,333,317,313,2
313,319,316,311,2
312,306,317,308,2
310,299,316,305,2
306,298,315,301,2
304,303,312,297,2
302,314,310,293,2
302,324,307,291,2
302,331,305,291,2
301,334,303,294,2
299,334,301,298,2
297,332,301,301,2
295,328,301,302,2
295,322,302,300,2
295,317,303,298,2
297,313,305,298,2
300,308,308,301,2
302,299,309,308,2
303,289,311,316,2
304,282,314,324,2
306,279,315,328,2
306,276,316,326,2
306,275,317,322,2
305,273,317,316,2
304,271,317,308,2
303,272,317,301,2
303,277,315,296,2
303,283,313,293,2
303,287,308,292,2
302,292,305,293,2
303,300,302,293,2
304,311,301,291,2
306,324,302,291,2
308,330,303,293,2
307,323,304,297,2
306,310,304,302,2
305,298,304,309,2
304,290,305,315,2
304,285,307,320,2
306,287,308,322,2
309,292,310,322,2
312,298,310,320,2
313,306,309,316,2
312,314,306,313,2
311,320,302,310,2
310,323,298,308,2
308,323,294,307,2
306,324,291,306,2
305,325,289,306,2
303,326,289,306,2
302,323,291,308,2
300,319,295,310,2
299,314,299,312,2
299,306,303,314,2
301,295,306,316,2
303,283,309,317,2
307,272,313,318,2
311,264,315,319,2
313,263,318,320,2
315,270,320,320,2
315,283,320,319,2
315,299,320,318,2
315,314,320,317,2
313,327,319,315,2
310,338,317,312,2
305,344,315,308,2
300,341,312,305,2
296,326,309,302,2
291,303,306,300,2
288,284,304,299,2
287,281,304,299,2
288,293,305,302,2
292,312,306,304,2
294,332,306,305,2
296,346,306,305,2
297,348,306,306,2
296,342,306,307,2
295,332,305,308,2
296,325,305,309,2
296,318,304,310,2
297,314,303,310,2
298,314,302,309,2
299,316,299,309,2
300,317,297,308,2
301,318,296,307,2
302,320,296,307,2
302,323,299,307,2
302,326,302,308,2
302,330,306,309,2
303,333,310,310,2
303,333,312,311,2
303,327,313,313,2
303,313,314,314,2
303,291,315,314,2
303,266,316,314,2
304,244,316,313,2
306,232,317,311,2
308,237,318,309,2
309,256,319,304,2
309,278,318,298,2
308,300,316,291,2
306,315,313,287,2
303,322,310,286,2
300,319,308,288,2
298,312,308,292,2
296,305,308,296,2
296,304,308,299,2
297,315,307,301,2
299,326,307,301,2
299,330,306,301,2
299,325,305,305,2
299,314,305,309,2
299,304,305,313,2
300,296,304,316,2
300,293,303,317,2
299,297,302,317,2
300,306,302,316,2
301,313,302,315,2
302,319,301,312,2
303,326,300,307,2
304,332,300,301,2
305,337,299,295,2
306,341,299,290,2
307,344,300,285,2
310,343,302,282,2
314,338,302,282,2
318,332,302,284,2
322,328,302,288,2
326,327,300,295,2
326,327,299,303,2
322,326,298,312,2
315,324,297,320,2
307,318,298,325,2
300,307,300,329,2
295,293,303,329,2
292,282,305,328,2
291,276,306,325,2
292,275,305,321,2
292,278,305,318,2
293,281,305,316,2
293,280,306,315,2
294,278,307,317,2
295,277,308,319,2
297,278,310,321,2
298,282,312,321,2
299,290,312,319,2
298,298,310,315,2
297,303,307,310,2
294,304,303,305,2
291,298,300,302,2
289,287,299,301,2
288,277,300,303,2
290,277,304,306,2
293,287,308,308,2
299,299,312,309,2
304,312,313,308,2
309,323,313,307,2
311,331,311,307,2
312,333,309,308,2
309,331,307,310,2
305,328,305,312,2
302,327,304,314,2
300,330,304,314,2
299,334,304,313,2
299,336,305,311,2
299,333,305,310,2
301,328,307,308,2
301,321,308,307,2
301,312,308,305,2
300,306,308,303,2
300,306,308,301,2
300,311,307,300,2
300,322,306,299,2
301,334,306,300,2
301,340,307,301,2
300,334,308,303,2
298,318,308,305,2
296,300,308,306,2
296,284,308,306,2
296,273,308,305,2
297,269,307,304,2
298,267,307,303,2
299,267,308,304,2
301,267,309,306,2
301,271,310,308,2
301,279,310,311,2
302,290,310,314,2
303,298,311,316,2
304,302,309,314,2
302,307,306,309,2
300,314,303,303,2
298,320,302,297,2
297,320,300,291,2
295,316,299,287,2
293,310,298,285,2
291,304,298,287,2
291,298,300,293,2
292,294,303,300,2
295,296,305,306,2
297,304,307,309,2
299,312,307,310,2
300,319,307,309,2
301,326,306,306,2
301,330,305,303,2
301,329,303,301,2
300,324,301,298,2
300,317,299,295,2
299,312,298,292,2
300,310,298,290,2
301,311,299,289,2
302,312,300,290,2
303,308,302,290,2
302,299,303,290,2
302,286,304,290,2
303,272,306,292,2
304,262,309,294,2
308,260,312,298,2
315,266,316,302,2
322,279,321,306,2
327,295,323,310,2
327,309,323,311,2
323,318,321,312,2
317,324,319,313,2
311,331,316,314,2
305,338,312,314,2
300,343,309,312,2
297,345,305,310,2
296,340,303,307,2
295,331,300,304,2
296,323,298,303,2
297,316,297,304,2
299,313,299,307,2
301,309,301,311,2
303,303,303,314,2
306,296,303,316,2
308,288,303,317,2
309,285,302,318,2
309,289,301,317,2
308,297,300,316,2
305,306,301,313,2
301,313,302,312,2
297,314,303,309,2
295,309,306,308,2
293,302,308,308,2
292,297,311,309,2
292,297,314,310,2
293,299,317,311,2
293,301,319,312,2
293,302,320,313,2
294,301,320,313,2
295,298,320,315,2
296,293,319,316,2
296,284,318,316,2
296,271,317,315,2
296,257,314,312,2
295,250,312,307,2
295,253,310,300,2
294,263,307,294,2
294,279,305,290,2
295,298,306,290,2
297,314,307,293,2
299,323,309,298,2
300,328,310,303,2
300,332,309,304,2
300,338,306,302,2
300,343,304,299,2
300,346,302,298,2
300,345,300,299,2
300,340,299,303,2
300,334,298,308,2
301,325,297,313,2
301,317,299,314,2
301,310,301,313,2
301,305,302,308,2
301,304,304,302,2
302,304,306,295,2
303,304,308,289,2
303,299,310,284,2
305,295,311,280,2
307,294,312,277,2
309,304,312,278,2
312,321,312,281,2
314,337,312,289,2
314,343,313,299,2
311,337,314,309,2
308,324,314,317,2
304,310,314,322,2
301,296,313,324,2
298,286,313,326,2
295,281,313,326,2
294,277,313,326,2
294,274,313,325,2
295,273,313,326,2
296,273,314,326,2
298,274,314,325,2
301,277,314,324,2
302,281,313,323,2
303,284,312,321,2
304,286,310,318,2
304,287,307,316,2
303,287,304,312,2
303,293,303,309,2
304,307,302,307,2
306,320,302,305,2
309,324,301,304,2
312,322,299,304,2
313,318,298,305,2
314,314,297,306,2
315,311,297,306,2
315,310,297,307,2
315,312,298,306,2
316,318,299,305,2
316,326,301,304,2
317,331,302,305,2
318,330,301,307,2
319,326,300,312,2
320,320,297,318,2
320,316,294,322,2
317,313,293,324,2
311,312,292,324,2
306,309,294,323,2
303,306,297,323,2
302,303,301,323,2
302,298,306,323,2
302,290,309,323,2
302,285,311,321,2
300,282,309,318,2
297,283,306,315,2
295,290,305,313,2
294,301,304,311,2
294,313,304,310,2
293,325,303,308,2
292,333,303,307,2
291,335,303,306,2
291,332,304,305,2
291,325,305,304,2
291,313,306,303,2
291,297,307,300,2
291,278,307,297,2
291,263,307,294,2
292,256,306,293,2
292,257,305,295,2
294,265,305,300,2
296,279,305,306,2
299,291,307,312,2
302,299,309,317,2
304,303,312,319,2
305,306,315,318,2
306,310,317,315,2
307,313,318,311,2
306,316,316,306,2
305,319,312,301,2
303,319,307,298,2
300,319,304,297,2
298,322,300,300,2
297,331,297,304,2
297,340,297,309,2
298,345,299,312,2
298,346,301,312,2
300,342,303,310,2
302,336,305,305,2
303,328,306,298,2
303,321,307,293,2
304,311,308,290,2
304,299,310,288,2
304,288,312,287,2
305,283,313,287,2
306,284,313,287,2
307,288,311,289,2
308,292,308,291,2
309,293,308,294,2
308,290,308,297,2
307,284,308,301,2
305,270,308,303,2
303,255,307,306,2
302,248,307,312,2
301,256,307,318,2
303,275,307,325,2
305,300,306,329,2
308,323,306,330,2
311,340,305,327,2
313,347,304,322,2
314,348,304,315,2
316,346,304,310,2
318,345,304,307,2
319,343,303,306,2
316,340,302,308,2
310,336,301,310,2
303,331,300,313,2
297,329,299,315,2
292,328,298,315,2
288,328,296,314,2
287,327,295,314,2
288,326,295,316,2
290,325,298,320,2
292,322,302,324,2
294,318,307,326,2
296,313,311,325,2
297,308,314,324,2
297,301,316,321,2
299,296,318,319,2
302,295,320,316,2
304,299,323,313,2
307,307,323,309,2
308,315,323,305,2
310,324,321,302,2
309,329,317,301,2
308,330,313,302,2
305,327,308,306,2
301,323,305,309,2
297,318,302,310,2
295,314,299,309,2
294,307,297,306,2
293,298,295,304,2
293,285,294,305,2
295,268,294,308,2
295,252,295,311,2
295,237,296,313,2
295,225,297,313,2
294,218,299,313,2
295,221,301,313,2
297,241,303,312,2
300,271,306,310,2
303,298,308,306,2
305,316,308,302,2
306,325,308,300,2
307,331,309,299,2
308,337,309,299,2
309,341,309,303,2
308,341,309,306,2
308,338,309,309,2
306,332,309,312,2
305,326,310,314,2
304,320,311,315,2
302,316,312,316,2
302,313,313,316,2
302,309,313,317,2
304,305,313,316,2
306,307,313,315,2
309,312,311,313,2
310,321,309,311,2
310,330,305,308,2
309,333,303,305,2
306,330,301,300,2
303,327,299,295,2
299,326,299,292,2
298,327,301,292,2
297,327,303,294,2
296,325,303,297,2
295,321,303,298,2
294,317,302,299,2
294,311,300,300,2
293,301,299,300,2
292,289,298,300,2
291,278,298,302,2
291,268,299,305,2
292,263,301,310,2
293,261,303,312,2
295,258,305,312,2
296,256,308,312,2
298,262,311,312,2
299,275,313,313,2
301,289,314,315,2
302,297,314,318,2
304,299,313,322,2
305,296,312,322,2
306,291,311,321,2
307,294,310,317,2
308,303,311,314,2
310,316,309,312,2
310,329,308,310,2
310,342,308,311,2
312,350,309,314,2
313,357,309,315,2
314,361,309,313,2
314,363,308,310,2
314,363,307,308,2
312,360,307,307,2
311,356,308,309,2
310,349,310,312,2
307,341,312,313,2
303,332,313,314,2
299,323,313,314,2
295,315,312,313,2
293,308,310,311,2
291,304,307,306,2
290,300,304,300,2
288,297,300,293,2
288,296,297,286,2
289,297,296,282,2
291,301,296,283,2
292,307,295,287,2
293,312,293,293,2
293,314,291,299,2
293,310,289,306,2
294,305,289,311,2
296,301,292,315,2
299,298,296,317,2
303,294,299,318,2
306,288,304,318,2
308,279,307,316,2
308,268,310,314,2
306,257,313,312,2
303,249,315,311,2
301,245,316,309,2
299,248,316,309,2
298,259,315,308,2
299,273,315,308,2
300,287,314,307,2
301,296,313,307,2
302,301,312,307,2
302,300,312,306,2
301,297,311,304,2
302,294,311,303,2
302,294,311,303,2
303,297,311,303,2
304,303,309,303,2
305,314,308,304,2
307,327,308,306,2
309,337,308,308,2
310,341,309,309,2
311,343,309,310,2
311,344,308,311,2
310,344,309,312,2
310,339,308,313,2
309,336,308,313,2
309,333,308,313,2
307,327,308,312,2
304,320,306,310,2
301,315,305,308,2
299,313,305,306,2
297,311,305,305,2
296,305,306,302,2
295,296,306,299,2
294,283,304,296,2
293,271,303,295,2
293,267,301,296,2
294,271,299,297,2
295,280,298,298,2
297,289,297,300,2
299,293,297,301,2
301,296,297,300,2
304,304,297,299,2
307,318,299,299,2
312,329,302,300,2
316,337,306,302,2
318,341,309,303,2
319,343,311,303,2
315,340,312,302,2
309,333,310,303,2
302,322,308,304,2
297,313,306,307,2
295,305,305,311,2
296,300,305,313,2
299,296,305,314,2
302,297,304,313,2
305,300,304,310,2
307,304,304,307,2
305,307,304,304,2
303,301,304,304,2
300,292,304,304,2
298,285,305,305,2
297,283,305,306,2
297,288,306,306,2
297,297,307,307,2
299,308,309,308,2
300,319,310,307,2
302,329,309,305,2
303,337,306,303,2
304,339,304,302,2
305,337,302,302,2
304,329,301,301,2
304,320,302,300,2
303,311,305,300,2
302,310,308,300,2
300,313,310,302,2
298,317,309,305,2
297,318,307,308,2
296,315,306,311,2
296,312,306,312,2
297,308,306,311,2
299,301,306,310,2
299,290,308,309,2
299,275,310,310,2
298,262,312,311,2
298,257,314,312,2
298,258,315,312,2
299,264,315,310,2
298,273,312,306,2
298,284,311,303,2
299,293,310,300,2
300,300,311,298,2
302,307,312,298,2
304,316,315,300,2
306,323,316,304,2
306,328,315,308,2
305,331,313,312,2
305,332,311,317,2
305,331,311,320,2
306,329,310,323,2
306,325,311,323,2
306,319,310,322,2
305,312,309,320,2
304,306,309,319,2
303,305,308,316,2
303,306,306,313,2
303,305,305,310,2
303,302,303,308,2
302,295,300,307,2
302,287,298,307,2
302,282,295,309,2
302,283,293,311,2
303,290,292,312,2
304,301,292,312,2
304,308,294,312,2
304,310,295,312,2
303,311,297,312,2
303,310,299,311,2
302,307,301,311,2
302,304,304,311,2
303,302,305,310,2
303,298,305,310,2
304,295,306,311,2
304,293,305,310,2
303,293,303,307,2
302,292,300,305,2
300,292,297,302,2
299,294,295,301,2
300,300,293,300,2
300,310,294,301,2
301,316,296,302,2
302,317,298,303,2
303,315,301,303,2
305,318,303,303,2
307,324,304,301,2
309,332,304,298,2
311,337,303,296,2
312,341,301,295,2
313,343,300,296,2
314,344,298,295,2
313,343,298,294,2
312,339,298,290,2
310,331,297,288,2
308,317,297,287,2
306,303,297,289,2
304,295,298,293,2
302,295,300,299,2
301,300,303,306,2
300,302,306,312,2
299,298,310,317,2
298,292,313,321,2
298,288,316,322,2
299,283,319,321,2
299,278,318,318,2
300,278,316,314,2
301,278,314,310,2
304,277,311,305,2
306,278,309,302,2
309,284,308,301,2
312,293,308,302,2
313,300,308,301,2
312,307,309,300,2
309,315,310,299,2
306,326,310,296,2
304,337,312,295,2
303,347,312,296,2
302,352,314,300,2
303,353,316,307,2
304,353,318,312,2
304,354,318,317,2
303,354,316,320,2
301,350,314,322,2
297,342,312,324,2
293,332,310,325,2
291,325,309,326,2
290,323,309,327,2
291,324,309,326,2
291,327,310,325,2
292,332,312,323,2
292,334,312,320,2
292,331,311,317,2
291,324,310,313,2
291,313,308,310,2
291,298,307,306,2
293,287,307,304,2
296,282,306,303,2
300,285,306,304,2
305,292,307,307,2
309,297,308,310,2
311,299,306,312,2
311,297,304,312,2
310,296,301,310,2
308,297,298,306,2
306,299,297,304,2
303,301,297,303,2
300,303,297,302,2
298,305,298,303,2
296,307,298,305,2
294,304,298,307,2
292,294,298,308,2
291,279,297,309,2
290,260,298,310,2
289,244,300,312,2
290,234,302,315,2
291,231,305,318,2
294,240,307,320,2
298,257,309,320,2
302,278,308,319,2
305,296,308,316,2
308,310,308,312,2
311,321,308,308,2
312,331,309,305,2
313,341,310,305,2
313,350,311,306,2
311,358,312,308,2
306,360,311,309,2
300,354,311,309,2
296,340,310,307,2
293,323,311,305,2
291,310,312,302,2
292,308,313,301,2
293,320,315,301,2
296,332,317,304,2
298,342,317,306,2
300,344,317,308,2
300,341,315,308,2
299,335,314,307,2
298,329,312,304,2
297,324,310,302,2
297,321,309,300,2
298,316,309,300,2
299,308,309,304,2
301,297,311,309,2
303,286,313,312,2
305,277,315,314,2
306,274,315,313,2
307,280,313,311,2
308,287,309,309,2
307,289,305,307,2
305,286,302,305,2
302,283,301,304,2
299,284,301,303,2
297,290,302,302,2
296,296,303,300,2
297,304,303,298,2
298,311,303,295,2
299,316,304,293,2
300,318,305,293,2
300,320,305,296,2
300,323,305,301,2
301,325,305,307,2
302,325,304,312,2
303,322,303,315,2
305,319,302,317,2
307,314,303,320,2
311,312,305,322,2
313,315,305,322,2
314,320,305,321,2
312,325,304,320,2
309,327,304,318,2
306,331,304,315,2
304,334,306,313,2
303,334,308,311,2
301,330,310,308,2
299,324,311,306,2
297,314,311,305,2
297,304,311,304,2
297,296,310,304,2
298,290,309,303,2
299,283,308,304,2
300,275,307,305,2
301,266,305,305,2
301,259,303,305,2
300,262,301,306,2
301,276,300,306,2
304,295,300,307,2
306,314,298,307,2
306,329,297,306,2
305,335,296,306,2
304,330,295,306,2
304,319,295,306,2
305,305,297,307,2
307,295,299,308,2
310,294,302,308,2
313,300,304,308,2
315,307,305,308,2
317,313,305,308,2
317,318,305,308,2
317,322,304,307,2
316,322,304,306,2
313,316,303,305,2
309,306,304,302,2
305,296,305,299,2
302,285,305,296,2
298,274,305,295,2
297,265,306,296,2
297,256,307,297,2
297,253,309,298,2
299,258,310,299,2
301,268,310,299,2
301,278,310,298,2
302,286,310,299,2
302,296,311,300,2
303,305,312,303,2
303,311,312,306,2
303,313,312,310,2
304,314,310,314,2
304,318,308,317,2
305,330,306,320,2
308,354,305,321,2
312,379,304,322,2
314,390,303,321,2
314,388,303,318,2
312,377,303,315,2
307,364,303,312,2
303,349,303,309,2
299,334,305,307,2
297,319,306,305,2
296,305,307,304,2
296,296,306,303,2
297,293,306,302,2
299,293,306,302,2
300,294,305,301,2
302,296,305,301,2
304,301,306,301,2
305,307,309,302,2
306,312,311,303,2
306,314,313,304,2
305,312,314,304,2
303,306,315,303,2
300,297,315,302,2
298,287,313,301,2
296,280,311,299,2
295,274,309,298,2
296,271,306,296,2
297,270,304,292,2
299,269,302,290,2
301,264,303,288,2
302,260,305,287,2
303,260,308,289,2
303,262,311,294,2
303,267,313,300,2
303,276,314,304,2
304,290,314,306,2
305,304,311,306,2
305,319,306,306,2
305,330,302,306,2
304,336,299,308,2
304,337,298,311,2
304,330,298,314,2
304,320,299,317,2
304,312,300,318,2
304,308,300,318,2
304,312,301,318,2
304,321,302,318,2
305,331,304,318,2
307,338,307,319,2
309,342,309,322,2
310,339,311,324,2
310,330,311,326,2
309,320,312,325,2
310,308,312,325,2
311,302,314,324,2
313,301,315,322,2
314,300,315,320,2
313,298,314,317,2
311,296,312,315,2
309,300,310,313,2
309,309,310,312,2
310,320,311,312,2
311,335,310,311,2
312,348,309,310,2
312,355,308,310,2
311,355,307,310,2
310,345,305,309,2
308,330,305,309,2
307,315,304,309,2
306,303,305,308,2
306,293,307,306,2
307,290,311,305,2
308,290,316,305,2
309,291,319,303,2
309,293,320,302,2
309,296,320,303,2
309,300,319,306,2
310,303,319,310,2
311,307,319,314,2
311,311,318,317,2
310,313,318,318,2
308,312,317,319,2
305,308,313,318,2
303,304,310,315,2
302,300,305,313,2
301,300,302,310,2
301,303,300,308,2
301,310,298,305,2
300,316,296,304,2
299,317,295,303,2
298,312,295,303,2
297,302,295,303,2
296,294,297,303,2
297,290,301,304,2
300,288,304,304,2
302,288,305,304,2
303,287,304,305,2
303,285,302,306,2
303,286,302,308,2
303,291,302,308,2
303,299,303,309,2
303,305,304,308,2
303,306,306,308,2
303,305,308,309,2
303,304,309,310,2
304,304,309,310,2
304,305,308,310,2
305,304,307,311,2
306,306,306,312,2
308,312,306,313,2
310,320,307,314,2
313,324,308,316,2
315,322,309,317,2
315,309,308,316,2
314,294,305,314,2
311,286,302,310,2
309,287,299,306,2
307,295,297,304,2
308,302,297,302,2
309,307,299,303,2
310,309,301,304,2
309,308,304,306,2
308,309,306,308,2
306,308,309,309,2
304,302,310,311,2
302,296,311,310,2
300,295,311,309,2
299,298,310,305,2
299,303,309,301,2
300,312,308,297,2
301,322,308,294,2
301,330,307,291,2
300,334,305,289,2
299,333,303,288,2
299,328,301,288,2
298,320,300,289,2
297,311,299,293,2
298,304,302,299,2
297,298,306,305,2
297,296,312,312,2
298,296,316,316,2
298,299,320,319,2
299,302,322,321,2
300,308,322,320,2
303,317,322,318,2
305,325,320,315,2
309,335,318,310,2
312,343,316,301,2
316,348,314,291,2
319,347,312,286,2
320,340,311,289,2
320,328,310,298,2
318,316,310,309,2
314,303,311,317,2
310,294,313,321,2
306,291,313,322,2
303,290,313,321,2
302,289,313,320,2
302,283,314,320,2
303,276,312,319,2
305,271,311,319,2
307,273,311,320,2
309,276,311,320,2
310,277,309,320,2
309,279,306,319,2
308,283,305,320,2
306,291,306,320,2
304,303,308,318,2
302,316,309,316,2
299,328,311,315,2
298,334,311,313,2
297,337,310,311,2
296,335,309,309,2
296,334,307,307,2
296,333,304,305,2
296,330,301,302,2
296,328,299,301,2
296,327,298,300,2
296,327,298,299,2
297,326,299,300,2
298,322,300,302,2
300,314,300,303,2
303,303,300,305,2
304,288,298,306,2
305,274,298,308,2
305,259,298,309,2
304,245,299,311,2
303,236,301,312,2
301,235,302,312,2
300,242,303,312,2
300,255,302,311,2
299,272,302,311,2
300,293,301,309,2
302,315,301,309,2
303,333,300,309,2
304,342,300,309,2
305,347,301,309,2
306,349,302,307,2
306,348,302,305,2
306,344,303,302,2
305,338,304,298,2
305,332,305,294,2
304,326,306,292,2
303,322,307,291,2
303,319,307,290,2
303,314,308,292,2
303,307,309,298,2
305,302,311,308,2
307,301,313,317,2
308,299,315,323,2
309,293,315,327,2
309,284,314,327,2
309,277,314,325,2
310,277,313,322,2
310,287,314,319,2
311,297,314,316,2
311,301,313,312,2
307,300,310,308,2
304,297,309,305,2
302,297,307,302,2
301,304,307,301,2
302,316,308,301,2
304,327,309,302,2
306,336,311,303,2
306,342,311,302,2
304,347,310,300,2
302,351,308,296,2
300,353,307,294,2
300,350,306,293,2
300,338,307,294,2
301,324,308,296,2
303,317,309,299,2
304,314,310,302,2
306,312,311,303,2
308,309,312,303,2
309,303,313,302,2
310,294,313,303,2
312,287,313,305,2
313,284,313,309,2
313,287,312,314,2
314,295,311,317,2
313,306,310,319,2
314,314,309,319,2
313,320,308,318,2
312,325,308,316,2
310,327,307,313,2
307,320,306,311,2
303,304,305,309,2
298,285,304,307,2
294,271,304,306,2
291,266,303,304,2
291,273,302,302,2
292,283,300,300,2
294,294,298,297,2
295,303,297,294,2
299,307,297,294,2
301,306,299,294,2
302,304,301,296,2
302,308,303,299,2
301,316,304,303,2
300,324,303,305,2
299,330,303,305,2
299,332,303,305,2
299,333,303,304,2
300,334,305,305,2
302,334,307,305,2
304,334,309,305,2
305,331,310,305,2
306,325,312,305,2
306,317,312,305,2
306,308,313,306,2
306,301,314,306,2
306,297,314,306,2
305,293,313,306,2
304,287,310,305,2
304,281,308,305,2
303,281,305,304,2
304,288,302,303,2
306,297,299,302,2
307,305,297,301,2
310,309,297,301,2
312,309,298,303,2
314,304,301,305,2
317,296,305,307,2
319,289,308,309,2
319,289,311,311,2
320,299,313,312,2
320,318,316,312,2
319,336,317,310,2
316,346,316,305,2
309,347,314,301,2
303,341,312,297,2
297,331,311,296,2
294,317,312,297,2
293,301,312,300,2
293,288,313,303,2
294,276,314,308,2
295,269,315,312,2
295,265,316,316,2
296,265,318,318,2
298,270,319,319,2
299,280,320,319,2
300,292,320,317,2
300,303,317,314,2
299,313,313,311,2
298,323,308,309,2
298,335,304,309,2
298,343,301,309,2
298,341,300,310,2
298,332,300,311,2
297,320,300,311,2
296,312,301,310,2
296,306,301,310,2
296,300,302,309,2
296,296,302,308,2
296,293,302,307,2
297,289,303,307,2
299,288,304,307,2
301,292,305,308,2
304,297,306,309,2
308,300,306,310,2
309,300,307,311,2
309,296,306,311,2
307,289,306,310,2
304,281,304,309,2
302,273,303,308,2
300,271,303,308,2
300,274,305,309,2
300,280,306,309,2
302,289,308,308,2
304,299,312,308,2
306,304,315,307,2
307,302,316,304,2
306,294,317,299,2
305,283,316,294,2
304,282,315,292,2
303,290,314,290,2
302,302,313,290,2
302,314,311,293,2
304,323,311,300,2
306,330,311,308,2
310,335,312,317,2
314,338,312,324,2
317,337,312,328,2
319,332,311,330,2
318,328,311,329,2
316,330,311,327,2
313,334,311,324,2
311,336,310,321,2
309,337,308,318,2
308,336,304,315,2
308,336,302,314,2
309,334,301,312,2
309,330,301,310,2
309,324,302,305,2
309,316,302,301,2
308,306,303,296,2
307,291,304,293,2
308,275,304,292,2
308,260,304,293,2
308,252,306,297,2
307,252,308,302,2
305,260,308,307,2
302,273,307,311,2
300,290,307,314,2
300,306,307,315,2
299,316,307,316,2
299,318,307,315,2
298,312,308,315,2
299,304,308,313,2
299,301,308,310,2
299,304,310,308,2
300,308,310,306,2
299,306,312,306,2
298,298,313,308,2
299,292,315,312,2
300,293,316,314,2
300,299,316,314,2
299,307,314,312,2
296,316,312,309,2
292,327,309,306,2
290,333,307,305,2
288,330,307,306,2
287,320,308,308,2
286,307,309,309,2
285,295,309,310,2
285,287,308,310,2
287,287,308,309,2
290,294,307,307,2
294,305,307,305,2
298,318,307,303,2
302,329,307,301,2
304,338,307,300,2
305,343,307,300,2
304,342,305,300,2
302,337,303,300,2
300,327,301,300,2
298,312,299,298,2
296,297,299,293,2
293,285,298,286,2
292,282,298,278,2
294,288,299,275,2
297,301,298,278,2
300,314,298,288,2
303,322,298,301,2
306,325,299,315,2
308,328,301,325,2
308,328,303,330,2
306,326,304,331,2
305,323,305,329,2
304,317,308,328,2
303,312,310,326,2
303,307,312,323,2
302,306,313,320,2
302,306,313,317,2
303,304,313,315,2
304,301,311,314,2
304,300,310,313,2
304,300,310,315,2
304,302,310,316,2
304,305,309,317,2
303,307,307,316,2
302,308,305,315,2
302,308,304,312,2
303,308,302,310,2
305,307,301,307,2
307,306,301,305,2
308,302,300,303,2
308,294,299,301,2
308,286,299,301,2
308,281,300,302,2
308,276,303,304,2
308,270,304,305,2
308,265,303,305,2
307,266,301,304,2
307,274,299,303,2
307,287,299,302,2
308,301,300,302,2
307,313,301,302,2
305,322,301,303,2
303,329,299,303,2
299,332,299,304,2
296,328,298,305,2
293,318,298,305,2
291,303,298,305,2
290,290,301,306,2
291,283,305,307,2
292,288,310,310,2
293,303,313,312,2
294,318,316,314,2
294,330,317,314,2
295,336,318,313,2
296,340,318,311,2
297,344,320,309,2
300,348,321,308,2
302,352,322,306,2
303,351,322,306,2
303,346,321,305,2
304,339,319,303,2
304,332,316,299,2
305,326,312,295,2
306,321,307,294,2
306,317,303,295,2
305,313,300,298,2
303,311,298,304,2
302,313,298,310,2
301,315,299,315,2
301,315,299,318,2
301,309,300,317,2
302,298,301,315,2
301,282,303,312,2
301,263,304,310,2
300,243,305,309,2
300,226,307,310,2
301,212,309,313,2
303,201,311,316,2
306,200,313,319,2
309,217,315,322,2
311,249,317,322,2
310,286,316,320,2
308,318,314,316,2
306,340,312,312,2
302,351,310,306,2
298,356,308,298,2
294,359,307,290,2
292,362,308,284,2
292,364,308,281,2
293,362,307,282,2
295,359,305,285,2
296,356,304,292,2
298,352,304,301,2
299,348,304,308,2
300,342,305,311,2
301,335,305,311,2
302,326,305,311,2
302,320,305,310,2
303,316,304,309,2
304,311,304,309,2
304,304,305,309,2
304,298,305,309,2
304,292,306,308,2
304,291,305,306,2
304,296,304,306,2
303,304,303,308,2
303,310,302,311,2
303,313,303,314,2
302,312,303,317,2
302,315,304,318,2
302,322,305,317,2
302,324,306,315,2
303,319,305,313,2
302,308,305,311,2
301,293,305,310,2
300,277,305,309,2
300,266,305,308,2
300,259,305,305,2
301,258,305,303,2
303,263,305,299,2
304,270,303,294,2
303,275,299,289,2
302,276,296,288,2
300,276,293,290,2
301,284,292,295,2
306,303,293,301,2
312,327,294,306,2
317,346,295,307,2
319,356,295,306,2
321,360,294,305,2
322,360,295,305,2
322,358,298,306,2
322,357,302,309,2
322,356,306,312,2
320,353,310,313,2
316,347,314,313,2
312,339,317,313,2
307,332,319,312,2
303,325,320,311,2
299,321,321,310,2
297,318,320,310,2
296,316,317,311,2
295,313,313,311,2
294,308,310,311,2
294,303,306,311,2
294,292,305,312,2
296,278,306,314,2
298,260,308,315,2
299,242,310,316,2
300,230,313,316,2
301,228,315,316,2
301,234,317,316,2
300,245,320,315,2
299,260,323,314,2
297,271,322,312,2
295,278,321,309,2
294,286,319,306,2
294,296,317,302,2
294,306,314,297,2
294,314,310,293,2
294,324,307,290,2
295,334,304,290,2
297,341,302,290,2
299,347,300,291,2
300,353,298,293,2
301,356,297,295,2
302,360,297,298,2
303,364,298,301,2
304,363,299,303,2
304,355,299,303,2
304,344,300,303,2
306,335,300,304,2
307,329,301,303,2
308,324,301,301,2
309,320,303,300,2
307,315,306,299,2
305,311,308,302,2
303,307,309,305,2
301,304,309,309,2
299,301,308,313,2
297,298,307,314,2
297,296,307,312,2
298,293,307,307,2
298,286,306,303,2
299,279,306,301,2
299,276,307,302,2
299,282,308,305,2
300,292,309,310,2
301,303,310,315,2
303,310,311,320,2
303,312,312,322,2
303,310,312,324,2
302,308,311,323,2
301,307,311,321,2
302,305,311,319,2
303,304,312,318,2
304,300,312,315,2
304,288,311,313,2
303,273,309,310,2
303,260,307,308,2
303,254,307,307,2
304,258,307,309,2
308,270,308,311,2
310,286,308,313,2
311,302,306,313,2
311,316,304,312,2
309,328,301,310,2
307,336,300,309,2
305,340,301,308,2
304,341,302,307,2
303,340,304,307,2
304,334,307,306,2
305,323,311,305,2
307,310,314,305,2
309,302,318,306,2
312,303,321,309,2
315,312,323,311,2
316,321,323,314,2
316,327,322,316,2
314,324,321,317,2
312,309,318,317,2
310,289,317,316,2
311,276,315,315,2
313,277,314,314,2
317,294,313,314,2
321,315,310,314,2
323,331,308,313,2
324,338,305,313,2
322,337,303,311,2
319,331,301,310,2
315,324,302,307,2
308,320,304,303,2
300,319,304,299,2
293,319,305,295,2
289,318,304,290,2
287,319,303,287,2
287,319,301,288,2
287,320,299,292,2
288,318,299,294,2
289,314,299,296,2
290,308,299,296,2
292,300,299,298,2
295,293,299,301,2
297,291,298,304,2
299,291,298,310,2
302,291,300,314,2
305,289,303,317,2
307,285,306,317,2
306,282,310,315,2
303,283,312,312,2
300,287,313,309,2
297,289,313,306,2
295,288,312,305,2
295,286,313,308,2
296,290,315,312,2
298,297,315,316,2
301,303,314,319,2
303,305,313,318,2
304,303,312,316,2
303,294,310,312,2
303,284,309,310,2
303,280,308,310,2
304,283,308,312,2
306,289,308,315,2
308,293,306,317,2
307,291,304,320,2
305,280,301,321,2
301,267,298,320,2
298,262,295,319,2
297,268,294,319,2
297,284,294,318,2
300,305,296,318,2
303,324,298,316,2
306,339,300,314,2
309,348,301,311,2
310,350,303,308,2
310,345,305,307,2
310,336,307,307,2
309,330,309,307,2
309,327,309,307,2
308,326,307,308,2
307,330,304,308,2
308,332,301,310,2
308,332,300,311,2
308,331,301,311,2
309,328,303,311,2
309,322,306,310,2
307,312,310,310,2
306,297,314,312,2
305,277,318,315,2
305,261,321,318,2
305,256,323,319,2
305,261,321,317,2
304,270,317,312,2
302,281,313,307,2
301,291,310,306,2
302,302,308,307,2
303,314,308,309,2
304,325,307,310,2
305,333,305,310,2
305,337,303,310,2
306,339,300,309,2
307,340,298,308,2
308,343,298,307,2
310,344,297,306,2
311,339,298,305,2
313,330,299,305,2
317,320,300,306,2
321,314,301,307,2
327,314,302,308,2
334,319,304,310,2
338,326,307,310,2
340,331,309,309,2
337,331,310,306,2
330,328,310,302,2
320,324,310,299,2
310,322,311,297,2
302,318,312,296,2
296,312,313,295,2
292,304,314,295,2
289,297,313,295,2
286,294,313,296,2
286,294,312,297,2
286,290,311,299,2
287,280,311,300,2
289,272,312,302,2
292,272,313,303,2
294,279,313,305,2
296,284,311,306,2
297,285,309,306,2
297,280,307,305,2
297,272,305,304,2
298,270,304,300,2
299,278,304,297,2
301,293,304,295,2
304,310,305,296,2
308,324,307,299,2
310,336,310,304,2
313,345,311,309,2
313,349,311,312,2
313,346,309,315,2
313,337,306,316,2
312,328,305,316,2
310,322,304,312,2
307,320,304,308,2
304,321,304,305,2
300,320,303,303,2
297,316,302,304,2
296,310,300,306,2
295,308,300,308,2
296,310,300,309,2
297,310,301,310,2
298,305,302,310,2
299,299,302,310,2
299,290,303,310,2
298,276,303,311,2
297,259,304,312,2
296,244,304,313,2
295,235,306,313,2
295,237,308,312,2
297,247,311,313,2
301,264,314,315,2
304,281,316,316,2
306,299,315,316,2
306,313,313,314,2
306,319,311,312,2
305,325,308,309,2
304,333,306,306,2
304,341,303,304,2
303,347,302,303,2
302,349,301,303,2
302,350,300,304,2
303,348,300,304,2
304,340,301,305,2
305,329,302,305,2
305,318,304,304,2
306,310,304,301,2
307,305,304,298,2
308,304,303,295,2
309,307,302,294,2
310,313,302,293,2
311,317,302,294,2
311,322,301,297,2
311,323,302,301,2
312,317,303,304,2
312,302,304,307,2
312,285,306,310,2
312,270,307,312,2
311,261,309,314,2
310,263,313,316,2
310,274,317,318,2
309,289,318,317,2
307,301,318,317,2
306,311,317,316,2
305,319,316,316,2
305,325,315,315,2
305,325,313,314,2
307,322,312,313,2
308,319,310,312,2
309,316,309,310,2
308,308,307,309,2
306,299,306,308,2
304,290,306,308,2
302,288,306,308,2
301,295,307,308,2
300,307,307,308,2
299,320,308,308,2
298,326,308,308,2
296,329,308,308,2
295,329,310,309,2
295,332,311,309,2
298,336,312,308,2
302,339,312,306,2
307,340,311,303,2
312,339,309,299,2
314,334,307,294,2
314,324,305,287,2
313,312,303,281,2
311,300,302,276,2
311,298,302,276,2
312,303,304,280,2
314,310,305,286,2
314,312,307,295,2
312,307,306,306,2
308,298,304,313,2
303,289,302,317,2
300,286,300,318,2
298,290,300,317,2
297,298,300,315,2
297,304,301,312,2
297,303,301,309,2
297,294,301,306,2
298,284,303,305,2
298,275,304,302,2
298,270,304,297,2
299,270,304,294,2
300,279,304,292,2
301,297,304,291,2
303,317,304,292,2
304,333,302,294,2
306,342,300,296,2
307,344,298,299,2
308,341,296,303,2
308,336,295,307,2
309,331,295,311,2
309,330,295,313,2
310,331,295,314,2
313,332,297,315,2
316,333,300,317,2
319,333,302,320,2
320,335,306,323,2
318,336,309,323,2
313,331,312,322,2
309,323,313,320,2
306,317,315,318,2
304,312,316,316,2
303,307,316,313,2
302,300,314,312,2
300,289,312,311,2
299,274,311,311,2
298,260,310,312,2
297,247,310,313,2
297,237,311,315,2
298,233,313,316,2
299,237,314,316,2
302,252,315,317,2
305,272,315,317,2
306,290,315,316,2
307,306,315,315,2
308,318,315,314,2
308,328,314,312,2
308,335,312,310,2
308,336,309,308,2
309,336,307,306,2
312,336,307,304,2
313,335,307,301,2
314,332,309,299,2
313,331,310,297,2
310,332,313,297,2
307,334,315,300,2
305,327,316,303,2
302,309,316,306,2
298,285,315,309,2
295,264,314,312,2
293,257,313,312,2
293,263,313,312,2
295,280,313,310,2
298,300,313,309,2
302,317,312,308,2
306,329,311,307,2
310,339,310,306,2
313,342,310,305,2
314,339,310,306,2
312,332,309,307,2
307,322,308,307,2
301,312,307,307,2
296,300,304,307,2
292,290,302,306,2
292,285,301,306,2
294,287,300,306,2
296,290,299,304,2
297,290,299,303,2
298,287,301,302,2
299,284,302,300,2
299,282,302,298,2
298,283,302,294,2
299,284,301,291,2
299,289,301,290,2
300,295,301,292,2
300,301,299,296,2
299,303,297,301,2
298,303,296,306,2
297,303,297,311,2
296,305,299,314,2
295,311,302,314,2
296,320,304,311,2
297,330,306,308,2
298,336,308,303,2
300,340,309,298,2
302,339,309,295,2
303,336,309,295,2
304,330,309,298,2
305,321,308,302,2
304,310,307,306,2
304,301,307,310,2
304,295,309,312,2
305,292,310,313,2
306,288,310,313,2
306,284,308,311,2
307,280,307,310,2
308,279,306,310,2
310,282,307,311,2
312,289,309,313,2
316,297,312,315,2
319,305,313,316,2
322,312,314,318,2
324,318,314,319,2
323,319,314,320,2
320,315,313,319,2
314,308,311,317,2
306,298,309,313,2
300,287,307,310,2
295,276,305,309,2
292,270,305,309,2
290,267,304,311,2
290,270,301,312,2
291,279,299,314,2
292,291,296,314,2
293,305,296,313,2
294,322,295,310,2
294,335,297,307,2
294,336,300,304,2
295,329,304,303,2
296,321,307,304,2
298,317,311,308,2
301,320,313,313,2
302,324,314,314,2
302,321,313,314,2
302,311,311,313,2
301,297,308,311,2
300,287,306,310,2
299,284,304,311,2
299,290,302,312,2
299,300,300,313,2
299,307,299,314,2
301,312,299,317,2
303,316,300,319,2
305,317,302,320,2
306,312,303,320,2
306,302,302,320,2
306,290,301,319,2
306,282,300,318,2
307,280,300,317,2
307,285,302,317,2
309,292,302,317,2
310,302,303,316,2
312,311,304,316,2
314,317,304,313,2
314,319,304,309,2
315,320,305,304,2
314,320,306,300,2
313,317,307,298,2
312,312,307,298,2
310,306,308,300,2
308,306,307,304,2
306,311,308,310,2
306,318,308,315,2
304,323,308,317,2
303,322,307,315,2
302,317,307,310,2
302,313,307,304,2
304,312,308,298,2
305,314,309,295,2
306,316,311,296,2
306,314,314,301,2
306,311,316,307,2
306,309,316,312,2
306,312,315,315,2
308,316,313,318,2
310,315,311,317,2
312,311,310,315,2
314,306,308,312,2
314,302,307,309,2
313,296,305,306,2
311,288,303,303,2
308,279,300,302,2
306,273,299,301,2
306,277,299,300,2
306,290,298,299,2
308,301,299,298,2
308,308,301,297,2
309,314,303,298,2
309,320,306,302,2
309,325,309,306,2
309,327,311,310,2
308,324,311,312,2
307,318,310,313,2
306,313,310,312,2
305,310,309,311,2
306,310,308,311,2
306,310,307,310,2
307,310,306,310,2
308,306,305,310,2
309,295,304,310,2
310,278,304,310,2
310,262,305,308,2
308,253,305,305,2
307,255,305,303,2
308,267,306,301,2
309,286,306,301,2
311,305,304,301,2
310,317,301,301,2
308,323,298,301,2
305,326,297,302,2
302,328,297,304,2
300,329,296,306,2
298,328,297,308,2
297,324,298,311,2
297,318,300,313,2
297,308,301,314,2
297,296,301,314,2
297,283,299,313,2
297,273,297,311,2
298,269,296,309,2
300,274,297,308,2
303,289,298,309,2
305,304,300,310,2
304,311,301,311,2
302,309,301,313,2
301,304,302,315,2
301,303,302,317,2
301,306,303,317,2
302,306,304,317,2
304,299,304,316,2
306,288,303,314,2
308,281,303,314,2
311,281,303,313,2
314,289,303,313,2
315,301,304,314,2
314,310,304,313,2
312,313,305,313,2
309,312,306,314,2
306,310,307,314,2
306,311,308,316,2
307,316,308,316,2
307,323,308,315,2
307,327,308,313,2
307,329,308,312,2
306,329,308,310,2
306,329,308,309,2
307,325,308,310,2
308,318,308,312,2
309,308,309,314,2
309,299,308,315,2
307,292,308,314,2
306,287,308,314,2
305,287,308,313,2
303,291,308,313,2
300,294,308,312,2
298,291,308,311,2
296,285,308,307,2
296,282,310,302,2
297,284,311,296,2
298,285,311,292,2
298,284,312,290,2
299,282,313,290,2
301,285,314,291,2
305,297,315,294,2
310,313,315,298,2
315,323,313,305,2
317,326,311,312,2
317,325,309,319,2
315,324,309,324,2
312,325,308,327,2
309,328,306,326,2
306,328,305,322,2
303,326,302,318,2
300,321,299,315,2
299,318,298,313,2
298,317,299,313,2
299,318,301,313,2
299,321,304,313,2
300,323,305,312,2
300,326,305,311,2
301,326,305,309,2
301,323,303,308,2
301,321,301,307,2
302,320,300,307,2
303,325,299,307,2
303,327,298,307,2
302,322,298,306,2
301,311,297,306,2
300,297,297,306,2
299,285,298,306,2
299,275,298,304,2
298,267,299,302,2
299,262,300,299,2
300,260,302,297,2
302,264,305,296,2
304,274,307,294,2
308,283,309,293,2
312,291,311,294,2
316,298,313,296,2
319,303,314,300,2
320,305,313,304,2
318,303,311,306,2
314,293,309,307,2
309,278,307,309,2
306,264,306,313,2
304,258,307,317,2
303,264,307,321,2
301,279,308,323,2
298,296,307,323,2
295,310,307,321,2
292,320,306,319,2
290,324,306,316,2
290,327,306,314,2
290,329,308,313,2
292,327,310,312,2
294,324,311,311,2
295,321,311,310,2
296,320,310,309,2
297,321,309,307,2
298,322,307,306,2
298,322,305,304,2
298,322,305,305,2
298,321,304,307,2
298,316,304,310,2
298,309,303,312,2
298,300,302,312,2
299,289,302,312,2
300,281,302,310,2
303,283,301,307,2
305,294,301,304,2
307,309,302,302,2
309,320,303,301,2
312,323,305,303,2
313,322,306,305,2
315,318,305,307,2
316,313,303,308,2
316,307,302,308,2
315,302,300,308,2
313,298,300,305,2
310,297,301,302,2
307,297,302,302,2
304,298,302,304,2
300,301,303,309,2
295,304,304,315,2
292,307,305,320,2
291,306,306,323,2
291,304,309,323,2
293,304,311,321,2
295,307,314,319,2
297,310,315,315,2
298,311,314,312,2
298,310,312,311,2
298,307,311,312,2
298,305,309,312,2
297,303,307,312,2
296,300,305,311,2
295,292,303,310,2
294,279,302,308,2
293,264,302,308,2
294,255,305,309,2
296,259,310,310,2
299,272,313,311,2
301,289,313,310,2
302,308,311,308,2
303,327,309,306,2
304,339,307,304,2
306,343,306,302,2
306,343,304,302,2
306,341,302,303,2
306,335,298,304,2
307,331,295,305,2
307,325,292,305,2
307,318,290,304,2
306,312,291,304,2
306,307,293,304,2
306,307,297,305,2
307,312,299,307,2
308,320,302,308,2
307,328,304,309,2
308,332,307,310,2
308,333,308,311,2
306,331,308,311,2
305,325,308,311,2
303,317,308,311,2
302,309,308,312,2
302,303,309,312,2
302,300,308,313,2
302,298,307,313,2
303,294,306,312,2
304,287,305,312,2
305,278,303,312,2
306,272,302,312,2
308,270,303,312,2
312,275,305,313,2
316,283,306,312,2
320,290,306,310,2
324,296,304,308,2
327,303,303,304,2
330,314,302,301,2
332,327,301,299,2
335,338,302,298,2
336,347,304,299,2
334,351,307,301,2
328,351,310,305,2
321,349,312,309,2
313,342,313,313,2
306,333,313,317,2
300,324,313,319,2
297,316,312,321,2
296,309,310,321,2
295,301,308,319,2
296,290,308,318,2
297,277,308,318,2
297,262,310,318,2
295,250,312,319,2
295,245,314,319,2
297,247,318,319,2
297,256,320,316,2
298,271,319,310,2
296,285,316,303,2
294,293,311,296,2
292,298,307,291,2
292,302,304,288,2
294,307,302,286,2
297,314,302,285,2
302,322,303,285,2
307,330,303,286,2
311,332,304,291,2
312,332,303,298,2
311,329,303,306,2
309,326,302,313,2
308,323,302,318,2
307,323,301,320,2
306,327,301,320,2
305,330,300,318,2
304,332,299,314,2
302,331,298,309,2
300,328,298,304,2
298,322,297,301,2
297,310,298,300,2
295,292,298,300,2
293,271,299,301,2
292,253,301,302,2
292,244,304,305,2
294,251,307,310,2
297,270,309,315,2
301,294,310,317,2
305,318,311,318,2
308,335,310,316,2
309,344,309,312,2
309,347,308,309,2
308,346,309,309,2
308,343,312,310,2
307,339,314,311,2
306,335,315,312,2
305,330,315,313,2
304,325,313,314,2
303,320,310,314,2
302,317,306,313,2
301,310,303,311,2
300,301,300,309,2
300,297,300,308,2
301,299,301,307,2
302,307,301,307,2
301,314,301,306,2
300,316,300,307,2
299,309,300,308,2
297,292,300,310,2
296,268,300,312,2
295,246,303,315,2
296,234,306,318,2
299,236,310,320,2
302,246,313,322,2
306,261,313,320,2
308,279,314,317,2
310,297,314,313,2
311,312,314,310,2
311,324,314,307,2
313,336,314,305,2
314,346,312,303,2
314,353,311,302,2
312,354,308,303,2
310,352,306,306,2
308,348,305,310,2
307,343,304,313,2
306,339,304,315,2
305,338,304,314,2
303,338,304,312,2
302,338,303,309,2
300,337,301,306,2
299,334,299,303,2
298,333,297,301,2
298,332,296,300,2
298,331,295,300,2
300,329,294,300,2
301,325,293,302,2
301,319,293,304,2
301,311,294,306,2
300,304,295,306,2
300,300,297,304,2
301,303,298,300,2
303,306,300,297,2
305,308,301,297,2
308,307,304,298,2
312,305,306,299,2
316,300,307,301,2
319,293,308,303,2
320,281,308,307,2
317,265,307,313,2
312,252,305,320,2
306,245,303,326,2
302,244,302,330,2
299,250,302,331,2
296,260,302,328,2
294,271,302,323,2
292,285,302,317,2
290,299,302,312,2
290,310,302,308,2
291,313,303,304,2
293,311,304,302,2
294,310,305,300,2
293,314,304,299,2
293,322,304,300,2
293,333,303,302,2
293,341,304,306,2
293,344,305,313,2
293,343,305,318,2
294,338,305,321,2
294,335,305,323,2
296,335,306,322,2
298,336,306,321,2
299,336,307,319,2
300,335,308,317,2
300,332,308,316,2
300,328,307,314,2
299,325,306,312,2
299,322,305,311,2
298,317,303,311,2
296,311,302,311,2
295,306,301,311,2
294,304,299,310,2
294,307,300,310,2
295,312,300,311,2
297,315,301,311,2
299,314,303,312,2
302,306,305,312,2
304,291,307,314,2
306,275,308,314,2
308,263,309,315,2
309,258,309,315,2
311,261,310,315,2
313,271,311,316,2
314,283,311,315,2
314,291,311,314,2
311,291,309,313,2
306,286,307,311,2
302,279,306,310,2
298,270,307,309,2
296,264,308,309,2
296,262,309,309,2
296,261,309,309,2
297,266,308,310,2
299,277,307,310,2
301,294,307,310,2
303,314,306,308,2
304,334,307,307,2
306,352,307,307,2
308,363,308,307,2
309,369,309,306,2
309,368,311,306,2
310,361,312,306,2
311,352,311,304,2
313,340,309,302,2
314,324,307,301,2
314,307,303,300,2
314,293,300,301,2
315,287,298,303,2
316,291,298,305,2
316,302,298,308,2
314,314,298,309,2
311,320,297,310,2
307,320,295,309,2
303,315,293,308,2
300,310,294,306,2
299,311,296,305,2
300,313,298,303,2
300,314,300,301,2
300,316,301,300,2
301,317,302,299,2
301,314,303,300,2
301,305,304,302,2
301,289,304,301,2
300,270,304,301,2
299,257,305,304,2
300,252,308,308,2
300,250,310,312,2
301,255,310,315,2
303,265,309,318,2
305,277,308,318,2
307,288,306,316,2
309,301,304,311,2
313,314,302,306,2
316,329,300,300,2
320,342,298,295,2
322,352,298,292,2
325,358,301,293,2
326,360,304,297,2
325,357,308,300,2
322,352,310,303,2
320,346,312,306,2
318,340,313,310,2
316,335,314,314,2
315,330,314,318,2
312,323,315,321,2
309,312,314,323,2
306,301,314,322,2
303,289,314,320,2
301,282,315,318,2
301,279,316,315,2
301,280,316,313,2
303,287,316,311,2
303,299,314,308,2
302,310,311,304,2
298,310,307,302,2
295,300,303,301,2
293,287,299,300,2
293,279,296,300,2
295,278,296,301,2
300,287,298,301,2
306,301,302,302,2
311,315,306,303,2
315,326,310,304,2
317,330,311,305,2
316,328,309,305,2
314,323,307,306,2
311,318,304,308,2
308,315,301,311,2
305,317,299,314,2
304,320,298,315,2
304,321,297,314,2
303,321,297,311,2
303,316,298,309,2
303,308,298,307,2
303,299,298,306,2
303,292,298,308,2
305,295,299,310,2
307,303,301,311,2
309,311,302,310,2
310,314,303,308,2
310,313,305,306,2
310,307,306,305,2
309,300,308,306,2
307,292,309,306,2
305,284,309,307,2
303,276,308,309,2
301,270,307,312,2
300,265,306,314,2
299,265,305,316,2
299,273,304,318,2
300,288,301,318,2
301,303,298,316,2
302,312,296,315,2
303,315,295,313,2
304,317,295,312,2
305,319,294,311,2
305,323,293,309,2
305,330,293,306,2
304,341,295,305,2
304,348,298,306,2
304,344,301,307,2
303,330,303,310,2
303,311,303,312,2
303,294,304,313,2
302,286,305,313,2
302,287,305,312,2
303,295,304,310,2
303,309,304,307,2
303,321,303,305,2
302,326,304,303,2
301,326,303,300,2
299,324,303,298,2
298,320,302,299,2
299,314,302,303,2
300,305,302,309,2
301,294,304,315,2
302,283,305,320,2
302,274,306,322,2
301,269,306,321,2
301,269,305,320,2
302,275,306,317,2
304,285,308,314,2
306,296,309,311,2
309,305,310,309,2
311,313,312,307,2
311,316,313,305,2
311,313,313,304,2
309,307,314,303,2
307,298,315,304,2
306,288,315,305,2
306,277,315,306,2
307,264,314,306,2
307,251,313,306,2
308,244,312,306,2
309,245,311,307,2
310,254,309,310,2
311,273,308,313,2
311,301,306,316,2
311,330,304,317,2
311,349,304,317,2
311,357,306,315,2
312,353,308,313,2
312,344,309,310,2
310,335,311,306,2
309,329,311,305,2
307,329,311,303,2
305,329,312,303,2
303,328,313,304,2
302,328,315,304,2
300,326,317,303,2
298,326,318,303,2
297,326,317,304,2
297,327,316,305,2
297,328,315,308,2
300,330,312,309,2
303,334,309,309,2
307,339,306,309,2
311,343,303,309,2
314,344,301,310,2
315,342,299,311,2
314,337,298,312,2
311,330,298,314,2
308,323,299,315,2
307,318,301,316,2
307,309,306,319,2
309,300,311,321,2
311,296,315,320,2
312,298,318,317,2
312,303,318,313,2
311,304,316,309,2
310,304,313,307,2
312,304,309,306,2
314,303,304,306,2
316,303,300,304,2
318,302,297,301,2
319,302,294,297,2
319,303,291,292,2
317,303,289,290,2
313,301,287,294,2
307,293,287,302,2
302,279,290,312,2
297,259,293,322,2
293,239,298,329,2
291,225,303,332,2
292,228,309,331,2
293,250,313,326,2
295,281,315,320,2
297,312,314,312,2
298,334,313,306,2
299,348,312,303,2
300,356,312,303,2
300,358,312,304,2
301,357,313,306,2
302,356,313,308,2
303,354,314,309,2
305,349,315,309,2
305,343,316,309,2
304,334,316,308,2
303,323,316,308,2
301,310,317,309,2
301,298,318,311,2
303,285,319,313,2
305,273,318,315,2
308,266,316,316,2
310,263,313,314,2
312,260,312,312,2
314,259,311,310,2
316,262,311,308,2
318,265,311,308,2
319,264,311,309,2
319,266,311,310,2
317,275,310,309,2
314,289,309,308,2
310,305,307,307,2
305,319,306,307,2
301,330,305,307,2
297,339,304,308,2
295,342,305,309,2
294,340,306,311,2
295,337,307,312,2
296,336,308,312,2
298,332,306,310,2
299,326,304,308,2
300,324,302,306,2
301,325,300,305,2
303,324,299,304,2
303,322,299,303,2
304,322,300,302,2
303,324,302,301,2
302,325,304,301,2
299,324,305,300,2
296,321,305,298,2
293,317,305,296,2
292,315,305,295,2
293,318,307,296,2
294,320,310,299,2
297,321,312,305,2
299,319,313,312,2
302,315,315,318,2
304,309,317,323,2
306,297,319,324,2
307,279,321,321,2
307,264,321,317,2
308,258,322,313,2
311,259,323,309,2
314,269,323,307,2
318,284,321,306,2
321,300,320,306,2
326,311,318,307,2
328,320,316,308,2
329,327,315,310,2
328,334,314,309,2
327,340,313,309,2
323,342,312,307,2
317,338,310,304,2
310,328,309,301,2
303,314,307,297,2
298,301,305,294,2
296,291,304,293,2
294,286,303,295,2
295,286,302,299,2
296,288,302,305,2
298,290,301,311,2
300,295,299,314,2
302,302,297,315,2
303,312,297,314,2
305,323,298,311,2
307,334,301,308,2
309,342,306,305,2
310,345,310,304,2
311,341,313,305,2
310,332,314,306,2
309,323,314,308,2
308,320,311,310,2
308,321,309,312,2
308,324,306,312,2
308,323,303,311,2
307,317,301,310,2
307,310,301,309,2
307,307,301,307,2
306,306,302,304,2
306,302,303,300,2
306,295,303,296,2
306,285,303,291,2
305,277,304,287,2
306,274,305,286,2
309,278,308,289,2
312,288,310,294,2
314,298,311,298,2
316,309,311,302,2
317,319,311,304,2
319,326,311,307,2
320,326,312,308,2
320,319,311,307,2
317,311,310,305,2
313,304,308,302,2
309,302,307,300,2
306,305,305,299,2
305,310,302,301,2
304,312,301,305,2
303,311,300,311,2
302,310,300,316,2
302,312,301,319,2
303,317,301,319,2
304,320,301,316,2
304,320,302,313,2
305,317,303,310,2
306,312,304,309,2
305,303,304,308,2
303,293,304,307,2
300,282,303,307,2
297,274,302,306,2
294,277,301,305,2
295,291,301,306,2
297,309,302,307,2
300,320,302,310,2
304,321,302,313,2
307,318,302,315,2
310,317,303,318,2
313,318,305,321,2
314,321,308,322,2
314,320,310,322,2
314,313,312,321,2
313,299,313,321,2
314,285,315,321,2
314,276,318,322,2
315,276,322,323,2
314,281,324,322,2
310,282,323,319,2
304,277,320,316,2
298,272,317,314,2
296,273,315,313,2
296,283,313,312,2
297,298,308,310,2
298,315,304,308,2
298,330,299,306,2
298,339,296,304,2
297,339,294,302,2
296,330,294,301,2
295,318,295,299,2
294,306,298,297,2
295,299,301,296,2
296,301,303,292,2
297,308,305,287,2
299,315,307,281,2
301,321,308,279,2
302,325,308,282,2
303,325,307,290,2
303,321,306,300,2
302,315,305,310,2
302,306,305,316,2
302,297,306,320,2
303,292,308,322,2
304,293,309,323,2
306,297,312,324,2
307,303,313,324,2
308,311,315,323,2
309,319,316,322,2
310,325,315,319,2
310,328,314,317,2
310,329,313,315,2
309,324,311,315,2
309,315,310,316,2
309,303,308,318,2
310,291,306,318,2
310,280,302,317,2
311,272,300,314,2
313,269,299,312,2
315,271,299,310,2
317,279,300,307,2
317,290,300,304,2
317,301,300,302,2
316,310,300,301,2
315,315,300,302,2
314,316,300,304,2
311,314,302,307,2
308,310,303,310,2
304,305,305,313,2
300,301,305,314,2
296,291,307,312,2
292,278,309,308,2
291,267,312,304,2
292,268,315,300,2
292,281,316,297,2
294,299,316,296,2
295,314,316,296,2
296,324,316,297,2
296,328,315,297,2
296,328,313,298,2
296,328,311,298,2
297,329,308,300,2
298,332,305,301,2
298,332,303,302,2
300,333,302,304,2
302,332,303,306,2
304,329,304,308,2
305,324,306,310,2
306,319,308,314,2
306,316,310,316,2
306,317,310,317,2
306,319,310,318,2
307,323,310,318,2
308,328,312,318,2
308,330,313,318,2
308,328,315,317,2
308,327,316,316,2
308,326,316,316,2
309,324,315,315,2
309,319,312,313,2
310,313,308,313,2
311,309,305,312,2
312,307,304,312,2
313,306,303,312,2
315,304,303,311,2
316,299,303,312,2
317,290,303,312,2
318,281,303,312,2
318,275,304,313,2
317,271,306,313,2
314,268,308,312,2
309,264,309,311,2
304,261,310,310,2
301,262,308,307,2
298,266,306,304,2
297,271,303,299,2
296,276,300,294,2
296,279,298,289,2
297,280,297,286,2
296,280,297,285,2
297,282,297,287,2
297,287,297,292,2
297,298,298,300,2
300,310,300,308,2
304,320,301,315,2
308,329,301,320,2
310,341,302,322,2
312,355,303,321,2
311,362,303,318,2
309,357,303,312,2
305,346,302,308,2
303,331,301,307,2
301,318,300,307,2
301,307,299,309,2
302,303,300,311,2
304,310,301,313,2
305,323,301,313,2
305,336,300,311,2
305,343,299,309,2
304,342,298,308,2
302,336,298,308,2
301,326,299,307,2
300,311,300,306,2
299,293,302,307,2
300,278,304,308,2
301,269,307,309,2
302,268,309,311,2
303,271,309,312,2
304,273,309,313,2
305,275,309,314,2
306,281,308,313,2
305,290,305,311,2
304,294,300,307,2
304,291,295,305,2
303,284,293,303,2
304,281,293,304,2
306,287,294,305,2
308,298,297,306,2
311,310,300,306,2
313,321,303,307,2
315,331,306,307,2
317,339,309,306,2
319,344,312,307,2
321,347,314,307,2
322,345,315,309,2
322,339,315,311,2
321,332,314,313,2
319,326,312,313,2
318,323,310,313,2
317,322,310,313,2
314,320,311,313,2
310,314,313,312,2
304,307,313,309,2
298,301,313,305,2
295,298,311,302,2
294,300,309,301,2
293,305,306,300,2
294,311,304,301,2
295,315,304,302,2
297,318,305,304,2
298,320,305,304,2
299,324,305,305,2
301,331,305,306,2
303,337,306,308,2
304,339,306,311,2
306,335,307,313,2
306,329,307,314,2
306,321,307,314,2
306,313,308,314,2
307,307,308,314,2
307,304,309,312,2
308,302,310,312,2
310,301,311,311,2
312,301,311,312,2
313,302,311,313,2
313,303,309,314,2
313,304,307,314,2
312,303,306,314,2
310,300,304,313,2
308,296,302,311,2
305,290,299,309,2
301,285,298,308,2
298,281,297,307,2
295,277,298,306,2
293,269,302,307,2
293,259,306,309,2
293,250,310,311,2
294,246,312,313,2
294,249,313,313,2
294,256,312,314,2
295,267,313,316,2
299,281,314,317,2
303,292,315,316,2
305,300,312,313,2
306,309,306,308,2
306,321,301,303,2
306,334,298,299,2
308,344,297,296,2
308,348,299,293,2
309,345,303,292,2
309,339,304,291,2
308,329,305,293,2
308,320,304,297,2
307,314,302,301,2
307,313,300,305,2
307,317,298,307,2
308,323,298,307,2
309,332,298,306,2
310,338,298,306,2
309,334,298,305,2
307,321,297,305,2
306,306,296,304,2
305,293,297,301,2
304,284,298,300,2
304,279,300,300,2
305,280,303,300,2
306,285,306,298,2
308,293,308,296,2
309,300,309,292,2
310,304,309,286,2
310,301,308,282,2
309,288,308,282,2
308,270,308,286,2
307,260,308,292,2
306,265,308,299,2
308,286,308,305,2
309,310,308,310,2
311,330,306,313,2
312,345,305,316,2
311,351,303,317,2
309,349,303,317,2
307,343,303,317,2
305,336,304,317,2
304,330,305,317,2
303,325,306,317,2
304,320,308,317,2
304,315,308,317,2
305,309,309,316,2
305,303,310,316,2
306,295,311,315,2
307,287,311,314,2
308,285,311,313,2
309,289,310,313,2
308,296,308,312,2
307,301,306,311,2
307,306,307,310,2
309,311,308,310,2
312,315,310,309,2
316,318,312,309,2
320,319,312,309,2
321,318,313,310,2
322,314,314,311,2
319,308,312,311,2
316,304,310,310,2
313,304,307,308,2
311,306,305,306,2
308,311,304,304,2
304,313,303,301,2
298,312,302,300,2
294,308,301,299,2
291,306,301,299,2
290,308,301,301,2
290,310,300,304,2
292,313,300,307,2
294,314,300,310,2
296,316,301,311,2
298,319,302,311,2
302,325,304,311,2
305,333,306,311,2
308,333,308,313,2
309,321,309,316,2
307,299,310,319,2
305,274,312,322,2
303,255,314,324,2
303,245,319,324,2
304,245,323,322,2
305,255,326,318,2
306,270,326,313,2
307,286,325,308,2
309,299,323,305,2
310,309,322,304,2
312,313,322,304,2
312,311,320,303,2
311,304,317,302,2
310,293,313,300,2
309,279,310,299,2
308,266,308,300,2
305,254,306,302,2
301,248,304,303,2
298,252,302,304,2
297,269,301,304,2
296,292,300,304,2
297,312,299,303,2
297,324,298,302,2
298,326,298,302,2
298,320,299,302,2
298,312,299,301,2
298,308,298,300,2
298,307,299,300,2
299,311,301,300,2
301,319,302,298,2
301,328,301,295,2
300,332,300,291,2
298,331,299,290,2
297,326,297,290,2
296,319,297,294,2
297,311,297,300,2
298,305,299,307,2
301,306,303,314,2
304,310,305,319,2
305,312,306,322,2
305,310,306,322,2
305,306,306,322,2
304,302,307,321,2
304,298,308,319,2
305,297,311,316,2
307,299,314,314,2
309,305,318,312,2
311,313,320,310,2
312,319,321,307,2
312,319,320,304,2
310,315,317,299,2
306,309,314,295,2
304,305,312,292,2
303,305,311,293,2
302,304,310,297,2
302,299,309,303,2
301,294,309,311,2
301,287,311,320,2
302,284,313,325,2
303,287,315,325,2
304,293,314,320,2
303,298,313,312,2
302,304,310,305,2
302,311,307,299,2
304,319,305,296,2
305,327,304,293,2
304,331,303,291,2
303,332,301,291,2
300,330,300,293,2
298,322,301,297,2
298,311,304,304,2
298,300,308,311,2
299,294,312,317,2
301,296,316,321,2
304,306,319,322,2
307,317,320,322,2
308,326,319,319,2
309,329,317,317,2
311,330,314,315,2
312,329,311,313,2
314,329,310,311,2
316,329,310,310,2
316,329,310,309,2
316,329,310,307,2
315,327,309,306,2
314,322,307,306,2
314,315,304,307,2
314,305,302,308,2
313,293,299,307,2
311,286,296,306,2
310,283,293,305,2
309,284,292,304,2
308,290,293,306,2
308,298,295,307,2
306,304,299,308,2
306,304,303,309,2
305,295,306,308,2
304,280,308,307,2
303,264,309,307,2
304,258,308,307,2
305,263,308,308,2
307,271,307,308,2
306,276,306,307,2
304,277,305,303,2
302,275,306,299,2
301,279,307,296,2
300,293,309,293,2
301,307,311,293,2
302,319,312,293,2
301,330,311,294,2
300,344,309,295,2
299,356,306,296,2
298,359,304,297,2
298,355,301,300,2
297,347,301,303,2
297,339,300,309,2
296,333,301,316,2
296,327,303,323,2
296,320,305,328,2
296,309,308,330,2
297,295,311,330,2
299,281,313,328,2
301,273,315,326,2
303,273,316,323,2
306,282,317,321,2
309,297,317,319,2
312,316,315,316,2
313,330,312,313,2
311,333,307,308,2
307,330,302,303,2
304,325,298,300,2
302,322,296,298,2
301,319,296,299,2
300,314,299,300,2
299,306,303,303,2
299,302,306,305,2
300,304,309,307,2
300,308,311,309,2
301,311,312,310,2
301,311,313,311,2
302,306,314,311,2
302,300,314,309,2
302,295,314,307,2
302,293,313,304,2
301,294,314,301,2
301,295,314,297,2
301,291,314,294,2
300,285,313,290,2
299,279,311,288,2
300,278,308,287,2
303,281,306,290,2
305,286,305,294,2
307,294,304,300,2
308,301,304,306,2
309,305,304,311,2
308,304,304,316,2
308,303,303,318,2
309,307,303,318,2
310,318,302,315,2
311,328,301,311,2
312,333,300,306,2
313,335,300,303,2
312,333,301,301,2
310,330,303,302,2
309,326,305,303,2
308,323,307,304,2
307,322,308,305,2
308,321,307,307,2
309,318,306,309,2
312,313,306,311,2
314,306,307,313,2
315,302,309,314,2
316,301,310,316,2
316,304,311,316,2
314,309,311,316,2
311,315,310,315,2
307,320,308,314,2
303,321,306,312,2
299,318,304,311,2
296,312,303,310,2
294,305,302,310,2
294,300,303,309,2
294,296,304,310,2
295,296,306,310,2
297,294,309,311,2
300,287,312,312,2
302,275,314,313,2
305,264,316,312,2
306,256,315,311,2
307,253,315,310,2
307,255,316,309,2
309,264,317,309,2
310,279,319,309,2
310,297,319,310,2
309,316,319,311,2
309,335,317,313,2
308,347,314,314,2
308,353,311,313,2
307,354,308,312,2
306,351,305,310,2
306,345,303,308,2
307,335,303,307,2
309,327,303,307,2
310,321,305,308,2
312,318,306,310,2
314,318,307,311,2
317,317,307,311,2
318,317,307,310,2
318,319,306,309,2
318,325,305,309,2
316,330,305,309,2
312,331,305,310,2
308,331,304,311,2
305,331,305,312,2
303,331,305,311,2
303,330,306,311,2
304,329,305,311,2
305,328,305,309,2
304,327,304,305,2
302,324,304,300,2
299,318,303,296,2
296,310,303,293,2
295,300,303,294,2
294,288,304,297,2
295,279,305,300,2
296,279,306,302,2
298,285,307,303,2
301,290,310,301,2
305,289,313,300,2
308,281,315,301,2
310,270,317,304,2
310,261,317,307,2
307,257,317,309,2
304,260,316,310,2
300,268,315,308,2
298,278,313,308,2
299,291,312,307,2
301,303,310,309,2
305,312,308,311,2
308,316,307,312,2
310,315,306,313,2
312,311,306,313,2
313,306,306,311,2
312,308,304,311,2
310,316,303,311,2
308,326,302,312,2
306,332,301,313,2
305,336,301,315,2
304,336,302,316,2
303,335,303,316,2
303,332,304,315,2
302,327,305,314,2
301,319,305,313,2
299,312,307,312,2
298,304,308,313,2
298,299,309,313,2
299,298,308,314,2
300,297,307,313,2
302,294,306,313,2
305,292,306,313,2
309,293,307,313,2
311,300,309,313,2
313,310,310,314,2
314,318,312,315,2
314,320,313,315,2
312,316,314,315,2
307,309,314,314,2
303,306,313,313,2
299,308,312,312,2
295,310,311,310,2
292,306,310,309,2
289,301,310,307,2
289,297,312,307,2
290,298,316,306,2
292,296,320,306,2
293,291,321,304,2
293,287,320,301,2
292,285,316,297,2
291,284,313,294,2
291,283,312,293,2
294,284,312,294,2
298,288,312,295,2
303,293,311,296,2
310,298,310,299,2
316,304,310,302,2
320,314,309,304,2
323,324,310,305,2
323,333,311,305,2
320,341,312,305,2
316,345,311,305,2
309,345,308,307,2
302,342,305,310,2
295,336,302,313,2
291,329,300,315,2
288,325,299,316,2
287,322,299,314,2
288,322,299,312,2
289,324,300,309,2
291,327,302,306,2
293,326,304,304,2
295,321,304,303,2
297,315,305,303,2
298,309,304,304,2
300,304,304,304,2
302,300,304,306,2
303,294,304,308,2
303,288,304,309,2
303,283,304,310,2
302,280,305,311,2
302,278,306,314,2
303,275,307,316,2
302,270,308,316,2
302,262,308,316,2
302,255,308,315,2
302,252,309,314,2
303,259,310,312,2
304,280,309,309,2
306,304,308,306,2
308,326,305,301,2
311,340,304,299,2
314,349,304,299,2
318,354,304,300,2
321,355,305,303,2
321,354,305,306,2
320,351,304,309,2
315,345,301,309,2
306,336,299,307,2
298,322,296,303,2
290,304,294,298,2
287,287,294,296,2
289,278,295,296,2
292,278,298,299,2
299,286,302,306,2
305,302,307,314,2
311,319,310,319,2
315,333,311,322,2
316,340,310,321,2
315,344,308,317,2
312,347,306,312,2
307,344,305,307,2
303,335,304,303,2
299,322,304,299,2
297,309,305,294,2
295,296,306,294,2
295,286,308,298,2
296,281,311,305,2
298,281,314,312,2
301,282,315,317,2
303,287,315,319,2
305,295,315,321,2
307,306,314,320,2
307,319,313,319,2
307,327,311,317,2
305,331,309,315,2
303,331,307,314,2
302,328,306,312,2
301,323,306,310,2
301,317,307,308,2
302,310,308,306,2
304,306,309,304,2
307,305,310,302,2
311,305,308,300,2
314,302,306,297,2
317,295,304,296,2
319,286,305,296,2
319,279,306,299,2
317,279,308,303,2
313,287,309,310,2
309,300,308,315,2
304,310,307,318,2
301,316,305,318,2
299,317,304,316,2
298,316,303,313,2
298,315,303,310,2
297,312,303,308,2
297,306,303,306,2
296,298,302,303,2
294,291,300,301,2
294,283,299,300,2
294,280,299,300,2
295,285,300,300,2
297,295,303,303,2
300,305,306,305,2
303,313,307,305,2
304,319,307,303,2
305,318,306,300,2
306,314,304,297,2
307,310,304,295,2
309,307,305,296,2
312,310,307,301,2
314,315,308,307,2
316,320,308,313,2
315,322,308,318,2
312,320,307,318,2
309,315,307,315,2
306,311,307,309,2
305,309,308,304,2
304,307,308,301,2
304,304,308,300,2
305,300,308,302,2
305,295,307,304,2
307,293,307,307,2
309,296,307,311,2
312,300,308,317,2
316,300,308,323,2
318,297,306,325,2
320,292,303,325,2
320,285,300,322,2
318,277,298,318,2
317,277,297,315,2
317,285,297,312,2
318,299,296,310,2
318,316,296,307,2
317,332,297,306,2
315,345,299,305,2
313,351,302,306,2
311,349,304,307,2
309,345,305,309,2
309,342,307,312,2
307,339,308,313,2
306,333,308,314,2
303,325,308,312,2
301,316,308,310,2
300,306,309,309,2
299,295,310,308,2
299,282,312,307,2
300,273,312,305,2
301,273,311,302,2
304,284,311,299,2
310,302,312,294,2
316,320,312,291,2
322,335,312,288,2
325,342,311,288,2
325,343,311,292,2
322,339,311,297,2
317,335,312,303,2
311,330,313,309,2
308,324,315,315,2
307,319,316,318,2
309,314,317,321,2
310,307,316,320,2
310,298,314,314,2
307,292,309,308,2
304,292,305,305,2
300,296,303,305,2
298,299,302,308,2
298,301,301,313,2
298,297,302,318,2
299,290,305,321,2
300,285,306,323,2
302,285,307,322,2
305,289,308,322,2
309,294,308,321,2
311,297,307,319,2
313,296,305,317,2
315,298,304,315,2
316,305,303,313,2
317,318,303,310,2
317,332,304,306,2
316,341,303,301,2
312,346,300,296,2
308,347,298,291,2
305,346,296,289,2
303,341,294,289,2
301,329,293,290,2
300,313,292,293,2
299,297,293,297,2
299,286,295,302,2
299,280,298,307,2
301,283,300,308,2
302,291,301,308,2
304,299,301,305,2
306,307,301,304,2
308,313,300,305,2
310,316,299,308,2
312,317,299,311,2
313,321,297,313,2
314,328,296,314,2
314,334,296,313,2
314,337,296,310,2
313,334,294,305,2
310,327,293,300,2
308,320,290,295,2
306,313,288,291,2
306,307,287,288,2
306,300,288,286,2
307,292,290,286,2
307,283,293,285,2
307,273,296,284,2
307,263,300,283,2
306,254,305,285,2
306,254,310,289,2
307,266,314,294,2
307,283,313,302,2
305,300,312,310,2
305,313,310,319,2
304,321,309,324,2
304,325,309,326,2
304,331,309,326,2
305,337,311,323,2
307,339,312,321,2
308,337,312,318,2
309,331,311,314,2
310,325,309,312,2
311,322,307,309,2
311,324,305,308,2
313,331,304,307,2
313,338,302,306,2
312,338,302,305,2
312,334,303,305,2
311,327,303,306,2
311,319,303,308,2
310,309,304,310,2
309,297,306,311,2
308,285,308,313,2
307,275,310,314,2
306,267,313,315,2
305,264,314,315,2
305,264,315,316,2
305,267,316,316,2
305,271,317,316,2
305,276,316,317,2
305,283,315,317,2
306,288,313,316,2
307,290,310,314,2
309,291,308,312,2
310,292,304,309,2
313,294,302,308,2
315,296,300,307,2
315,299,298,305,2
313,299,298,305,2
310,297,298,304,2
308,297,299,303,2
306,296,300,302,2
304,295,300,302,2
302,296,300,302,2
300,293,301,302,2
299,288,302,301,2
298,282,302,298,2
297,278,303,297,2
297,280,304,296,2
298,292,306,297,2
300,312,308,299,2
302,331,309,300,2
302,345,309,300,2
302,353,307,297,2
301,355,305,293,2
301,352,304,291,2
301,342,303,289,2
301,328,303,289,2
301,314,303,293,2
301,303,304,298,2
302,300,305,303,2
304,302,306,306,2
307,309,307,307,2
310,316,307,308,2
314,322,307,308,2
317,322,306,308,2
319,318,306,308,2
319,312,308,310,2
318,304,311,314,2
315,299,314,317,2
312,299,313,316,2
308,300,311,314,2
305,301,307,313,2
303,304,305,312,2
303,307,304,311,2
303,310,303,309,2
303,306,302,306,2
303,299,302,304,2
304,292,302,305,2
306,287,303,306,2
308,284,303,309,2
309,284,302,312,2
311,284,302,316,2
312,286,302,318,2
315,289,305,319,2
318,295,309,319,2
320,303,313,319,2
321,310,314,317,2
320,313,314,315,2
319,311,315,315,2
317,307,316,314,2
314,303,318,314,2
312,302,319,313,2
311,305,320,312,2
309,309,320,310,2
306,313,318,308,2
302,318,316,305,2
300,325,313,304,2
298,330,310,302,2
297,330,307,301,2
295,326,305,300,2
295,321,304,300,2
295,321,304,301,2
296,326,305,301,2
298,333,306,300,2
299,336,306,299,2
300,334,306,297,2
301,327,307,296,2
304,318,308,296,2
306,311,309,297,2
309,308,310,297,2
311,308,309,298,2
311,309,308,299,2
310,311,307,299,2
308,315,306,300,2
306,318,306,300,2
304,320,305,302,2
302,319,305,304,2
301,315,303,306,2
302,309,302,307,2
305,302,301,306,2
309,293,301,304,2
313,285,302,301,2
316,278,302,299,2
317,275,302,299,2
314,274,302,301,2
311,276,302,305,2
307,281,303,309,2
303,285,304,311,2
300,281,305,311,2
299,275,305,309,2
297,274,307,306,2
299,280,310,304,2
301,293,312,303,2
304,303,312,301,2
307,313,311,299,2
310,322,310,297,2
311,329,308,297,2
312,331,307,298,2
311,327,306,300,2
308,324,305,304,2
305,324,304,310,2
302,325,303,316,2
301,325,304,322,2
302,324,305,325,2
302,321,306,326,2
303,318,306,325,2
305,316,305,323,2
306,311,302,320,2
306,303,298,317,2
306,293,295,315,2
305,282,292,315,2
305,272,291,316,2
305,267,291,316,2
305,269,294,317,2
307,275,298,318,2
311,283,304,320,2
314,291,309,320,2
316,298,313,319,2
315,304,315,318,2
312,305,314,315,2
307,306,312,313,2
303,305,311,312,2
301,302,312,312,2
301,297,314,313,2
301,291,316,314,2
302,287,317,314,2
302,287,316,314,2
303,292,315,313,2
303,303,313,312,2
304,315,312,311,2
305,325,310,310,2
306,333,309,309,2
307,339,308,308,2
308,341,309,308,2
308,336,309,308,2
308,326,309,308,2
307,312,310,309,2
306,298,309,309,2
305,288,308,307,2
307,287,307,306,2
310,294,308,307,2
313,305,308,310,2
315,315,309,312,2
315,317,308,315,2
315,315,307,319,2
315,313,306,322,2
316,310,307,324,2
316,308,308,323,2
315,309,309,322,2
313,310,309,319,2
310,313,310,316,2
307,317,311,313,2
305,322,312,311,2
303,319,312,308,2
299,310,311,304,2
295,298,310,302,2
292,289,308,300,2
291,288,308,299,2
293,296,308,299,2
297,306,307,299,2
301,314,307,301,2
305,316,307,303,2
307,315,306,306,2
308,313,305,308,2
306,313,304,308,2
304,313,302,308,2
302,311,299,309,2
299,304,298,309,2
297,294,296,308,2
295,285,296,306,2
292,277,298,303,2
291,271,300,300,2
293,271,303,298,2
295,275,307,298,2
299,282,310,301,2
302,290,310,305,2
305,297,308,311,2
306,302,305,315,2
306,305,303,318,2
305,306,301,318,2
304,304,300,316,2
303,303,300,315,2
304,304,300,315,2
306,306,302,316,2
308,308,305,318,2
310,313,308,320,2
312,321,311,320,2
312,326,313,319,2
312,325,314,315,2
310,322,314,311,2
308,319,313,306,2
306,319,312,303,2
306,321,312,301,2
306,325,313,300,2
306,328,315,299,2
307,329,315,300,2
308,326,314,300,2
308,320,311,302,2
309,310,307,303,2
310,300,303,304,2
310,293,301,303,2
311,290,299,303,2
311,290,300,303,2
311,293,303,304,2
309,294,306,306,2
306,292,308,307,2
303,293,309,309,2
301,297,309,308,2
299,299,310,305,2
298,299,310,302,2
299,298,310,301,2
300,298,311,301,2
303,300,311,303,2
305,303,312,305,2
306,308,311,307,2
306,311,310,308,2
306,310,309,310,2
306,303,307,311,2
305,295,305,313,2
306,288,304,314,2
308,286,303,316,2
312,287,304,317,2
314,294,304,317,2
317,305,306,317,2
319,320,309,316,2
319,331,311,316,2
318,338,312,314,2
316,337,312,312,2
313,333,312,310,2
310,329,312,309,2
307,321,311,309,2
304,306,311,310,2
302,284,310,310,2
300,262,310,310,2
300,245,310,310,2
301,239,310,310,2
302,248,310,309,2
305,263,310,308,2
307,281,308,307,2
307,299,307,304,2
307,315,306,300,2
306,327,307,300,2
305,332,308,301,2
304,332,308,303,2
303,329,308,305,2
300,325,308,306,2
298,324,308,307,2
297,327,308,306,2
298,330,309,306,2
301,334,311,304,2
305,336,312,301,2
308,335,313,298,2
309,332,312,296,2
309,327,309,297,2
308,323,306,301,2
308,320,303,308,2
307,317,301,315,2
306,314,299,320,2
307,312,298,322,2
308,311,299,321,2
309,309,300,320,2
309,305,301,318,2
305,294,300,316,2
301,275,299,315,2
297,257,299,315,2
295,249,299,315,2
295,254,300,314,2
298,269,303,313,2
301,287,306,312,2
304,304,308,310,2
305,318,309,307,2
305,328,309,305,2
306,336,309,304,2
306,337,309,305,2
306,333,309,304,2
304,327,309,304,2
303,320,310,304,2
301,314,310,303,2
300,313,310,302,2
299,318,310,301,2
299,329,310,299,2
300,339,308,297,2
301,347,307,294,2
301,349,306,290,2
302,346,305,286,2
302,338,305,283,2
302,327,305,280,2
302,317,305,279,2
303,310,306,281,2
304,308,306,286,2
306,309,307,293,2
308,315,309,303,2
310,322,311,313,2
313,325,313,319,2
315,326,314,322,2
320,330,313,321,2
323,332,313,316,2
327,330,312,311,2
329,327,310,307,2
331,325,310,303,2
331,321,309,301,2
330,314,308,301,2
327,307,308,302,2
322,302,309,305,2
316,300,309,309,2
309,296,310,312,2
302,288,311,315,2
298,280,313,317,2
295,276,314,318,2
293,278,314,318,2
292,285,313,316,2
292,294,312,313,2
293,300,310,307,2
293,301,309,302,2
294,300,308,298,2
294,296,308,296,2
295,289,308,295,2
296,278,307,297,2
296,265,307,298,2
295,255,305,299,2
294,254,304,301,2
294,263,304,305,2
295,275,305,310,2
297,287,306,314,2
299,295,307,318,2
301,304,306,319,2
303,313,305,321,2
305,322,303,322,2
307,329,300,323,2
309,334,298,324,2
311,334,297,324,2
312,330,298,323,2
313,325,300,322,2
314,318,303,321,2
315,311,307,320,2
316,305,309,320,2
317,302,310,319,2
318,301,311,318,2
320,302,314,317,2
323,307,318,317,2
325,315,320,316,2
325,322,320,315,2
325,328,318,312,2
323,331,315,310,2
321,332,312,307,2
317,331,309,304,2
313,329,307,302,2
308,323,307,301,2
302,312,307,299,2
298,293,308,297,2
293,273,309,295,2
289,259,309,295,2
287,258,309,297,2
287,273,308,302,2
288,295,307,307,2
290,315,306,311,2
291,327,306,314,2
292,333,306,314,2
293,335,307,313,2
295,333,308,311,2
297,330,308,309,2
299,325,307,308,2
301,320,305,307,2
302,314,303,306,2
302,305,301,306,2
303,296,301,305,2
303,287,300,305,2
303,280,300,303,2
302,275,300,301,2
301,268,300,300,2
300,260,299,299,2
299,256,300,299,2
299,260,301,299,2
300,273,302,300,2
303,287,303,298,2
304,295,304,294,2
304,296,303,289,2
303,295,302,285,2
306,300,304,283,2
310,310,306,282,2
315,324,308,282,2
320,338,309,285,2
323,352,310,291,2
326,362,310,298,2
327,365,312,307,2
327,361,311,314,2
324,349,310,318,2
318,336,308,318,2
309,323,306,316,2
302,314,305,314,2
298,309,304,313,2
295,308,304,313,2
295,312,302,313,2
295,317,302,313,2
296,317,302,313,2
298,313,303,313,2
299,307,306,313,2
300,301,307,312,2
301,298,308,311,2
301,296,308,307,2
302,298,308,303,2
302,299,306,297,2
302,297,303,292,2
301,295,299,288,2
300,296,296,287,2
300,300,295,288,2
301,306,297,292,2
303,312,299,297,2
304,317,301,301,2
305,320,303,302,2
305,319,305,303,2
305,319,307,305,2
305,320,309,307,2
305,321,311,311,2
307,321,312,315,2
309,321,313,318,2
309,320,313,320,2
309,318,314,320,2
308,316,314,319,2
307,313,315,317,2
306,307,315,315,2
307,300,316,314,2
308,297,317,314,2
310,299,317,316,2
313,303,317,318,2
315,308,316,319,2
316,313,316,320,2
315,314,316,319,2
312,313,314,318,2
308,310,311,316,2
304,305,307,314,2
303,298,304,313,2
303,292,301,311,2
304,290,300,308,2
306,292,298,303,2
308,296,298,296,2
310,300,298,290,2
310,302,298,283,2
309,305,298,279,2
307,309,298,281,2
304,316,300,288,2
302,321,301,297,2
299,317,302,304,2
295,303,301,309,2
293,286,300,310,2
292,273,299,311,2
293,269,299,311,2
297,274,300,312,2
302,288,302,313,2
307,305,305,314,2
313,318,306,317,2
317,325,307,319,2
320,327,307,320,2
321,325,308,321,2
320,319,308,320,2
319,312,308,319,2
317,310,308,316,2
315,313,306,314,2
313,320,305,312,2
310,323,303,311,2
307,322,302,310,2
304,317,301,309,2
302,311,300,308,2
301,307,300,309,2
300,305,301,309,2
300,306,303,309,2
301,308,306,310,2
303,310,309,310,2
304,306,312,311,2
306,300,315,312,2
309,296,318,313,2
311,295,320,313,2
312,291,322,312,2
312,288,321,309,2
311,289,319,306,2
309,293,316,302,2
308,299,313,297,2
308,304,310,294,2
310,309,309,291,2
313,312,309,289,2
316,313,310,291,2
317,311,313,296,2
316,307,315,304,2
313,304,317,312,2
310,301,318,319,2
309,296,319,323,2
309,290,318,323,2
309,283,316,321,2
309,280,315,319,2
309,284,313,318,2
307,293,312,318,2
306,304,309,317,2
304,315,306,315,2
302,325,304,313,2
301,333,303,312,2
301,339,303,311,2
300,342,304,311,2
297,338,304,310,2
295,330,305,309,2
293,319,305,309,2
292,308,306,307,2
292,300,307,306,2
293,293,308,305,2
294,288,309,304,2
297,285,310,305,2
299,284,311,306,2
302,285,311,306,2
304,289,310,305,2
306,298,309,302,2
307,309,306,299,2
307,320,303,297,2
306,328,302,295,2
306,332,301,294,2
308,333,300,295,2
310,331,300,298,2
313,327,302,302,2
316,321,305,306,2
318,315,307,309,2
319,309,308,312,2
319,302,308,314,2
318,296,307,315,2
315,291,306,314,2
312,288,306,312,2
309,290,306,310,2
305,294,307,308,2
303,296,306,308,2
301,296,306,310,2
300,296,307,312,2
301,295,308,313,2
301,295,310,314,2
302,294,310,313,2
301,290,310,310,2
300,285,308,308,2
298,283,306,307,2
297,284,306,309,2
298,290,306,313,2
299,299,306,316,2
300,308,307,319,2
301,314,306,321,2
302,316,306,321,2
303,317,307,321,2
304,318,307,319,2
305,319,306,318,2
305,316,304,318,2
306,312,304,318,2
306,306,305,318,2
307,299,307,318,2
306,295,310,318,2
306,295,310,317,2
305,297,309,314,2
304,300,307,312,2
304,304,306,310,2
304,307,306,309,2
305,309,307,307,2
307,308,309,305,2
310,304,310,304,2
313,301,312,303,2
316,298,313,301,2
318,295,315,299,2
319,296,315,297,2
318,300,313,297,2
315,306,311,299,2
312,313,310,303,2
309,317,309,307,2
306,318,309,311,2
303,317,310,313,2
300,318,310,313,2
300,321,311,312,2
300,323,309,310,2
300,325,307,307,2
300,327,305,305,2
301,327,304,303,2
303,325,305,303,2
306,320,306,303,2
310,308,307,304,2
313,292,308,304,2
316,280,308,302,2
316,272,309,300,2
314,269,308,297,2
310,269,307,295,2
306,270,307,294,2
304,268,308,296,2
302,267,308,299,2
300,270,310,302,2
299,278,311,305,2
300,288,311,306,2
300,300,310,305,2
301,308,309,306,2
303,311,311,307,2
307,307,313,308,2
309,298,314,309,2
310,291,314,309,2
311,288,314,308,2
313,291,314,307,2
314,299,313,305,2
315,310,311,304,2
315,323,309,302,2
313,333,306,302,2
310,337,303,303,2
307,336,302,304,2
305,333,301,305,2
305,326,302,306,2
307,316,303,306,2
309,305,304,306,2
310,298,304,304,2
311,300,305,302,2
313,309,307,300,2
315,321,309,296,2
315,332,311,294,2
313,339,312,294,2
309,340,311,296,2
304,339,310,300,2
300,337,308,305,2
298,336,305,309,2
297,334,305,311,2
297,332,303,312,2
297,328,302,309,2
296,320,300,306,2
295,311,298,302,2
295,304,297,299,2
295,297,298,298,2
295,290,299,298,2
295,281,302,299,2
296,274,305,302,2
297,274,308,307,2
300,282,312,312,2
304,291,313,316,2
306,294,314,316,2
307,293,313,315,2
307,294,311,311,2
307,299,312,307,2
308,307,313,304,2
308,317,312,302,2
306,326,309,300,2
304,335,307,299,2
304,345,303,298,2
304,350,302,299,2
305,348,302,302,2
307,343,302,306,2
308,336,303,311,2
310,330,303,315,2
311,326,304,319,2
311,320,303,320,2
310,312,303,319,2
309,304,303,317,2
309,298,304,316,2
308,297,304,314,2
307,299,305,312,2
307,301,305,310,2
306,299,305,308,2
306,295,305,307,2
305,287,306,306,2
305,279,306,306,2
304,272,306,306,2
304,270,306,305,2
303,272,305,304,2
304,279,304,302,2
304,285,303,299,2
305,291,304,297,2
305,297,304,293,2
305,306,304,290,2
306,317,302,288,2
307,327,301,289,2
308,332,300,293,2
308,333,299,298,2
308,328,300,304,2
308,321,302,309,2
308,314,304,312,2
309,307,306,311,2
308,299,306,308,2
308,291,304,303,2
307,284,303,298,2
306,277,303,295,2
305,274,303,296,2
305,277,303,299,2
306,286,305,305,2
308,296,307,310,2
310,304,309,313,2
313,308,310,314,2
315,313,311,314,2
316,320,310,313,2
317,326,309,312,2
314,326,308,312,2
311,325,307,312,2
307,324,307,311,2
304,320,308,309,2
302,314,309,306,2
301,309,310,304,2
302,306,311,302,2
305,304,312,301,2
310,304,313,302,2
316,306,314,303,2
323,310,315,306,2
329,316,317,310,2
333,323,318,313,2
335,329,318,316,2
333,330,317,316,2
327,323,314,315,2
321,310,311,313,2
314,296,307,311,2
307,285,304,310,2
302,280,301,309,2
297,283,299,307,2
294,288,299,307,2
292,293,300,308,2
290,295,301,309,2
289,297,303,311,2
289,299,305,313,2
290,298,308,316,2
292,296,309,318,2
293,290,311,319,2
295,285,313,317,2
296,283,314,314,2
298,285,315,311,2
299,289,315,310,2
301,291,315,309,2
303,289,314,307,2
305,284,314,306,2
308,278,315,304,2
310,275,315,300,2
311,273,315,295,2
310,272,313,290,2
309,276,313,289,2
308,281,312,292,2
307,287,311,297,2
305,292,310,304,2
304,299,310,311,2
303,309,309,318,2
303,325,308,322,2
304,340,306,324,2
305,349,304,322,2
306,351,302,319,2
306,349,300,315,2
305,343,300,312,2
305,337,301,310,2
304,330,301,309,2
302,323,300,308,2
301,318,300,307,2
300,314,300,306,2
300,308,300,305,2
300,303,301,305,2
301,298,302,305,2
302,298,303,306,2
304,301,302,307,2
306,306,300,308,2
307,309,299,310,2
308,311,298,311,2
309,312,298,312,2
310,311,299,312,2
309,310,300,311,2
309,310,301,310,2
307,308,302,309,2
305,303,303,307,2
305,296,305,308,2
306,292,307,309,2
308,292,310,312,2
311,285,313,314,2
312,270,315,316,2
312,252,316,316,2
311,239,316,315,2
312,237,315,313,2
315,248,315,312,2
319,267,317,312,2
321,285,319,312,2
322,300,319,311,2
320,313,317,308,2
318,323,314,304,2
315,331,312,300,2
312,335,311,297,2
309,337,309,294,2
307,338,309,293,2
307,338,308,294,2
308,338,306,295,2
311,336,305,297,2
313,333,305,297,2
314,330,305,299,2
313,327,306,302,2
310,323,305,305,2
306,319,304,306,2
302,319,303,305,2
297,320,302,302,2
293,322,300,298,2
290,320,300,294,2
288,316,302,292,2
288,310,304,295,2
289,303,306,303,2
291,300,308,312,2
294,299,310,321,2
298,301,310,327,2
300,303,310,329,2
303,305,310,330,2
304,304,309,329,2
304,300,308,327,2
303,295,306,325,2
303,290,306,324,2
303,288,307,323,2
303,287,307,321,2
304,289,307,320,2
304,291,309,319,2
305,291,311,318,2
306,289,312,317,2
306,286,313,315,2
306,281,313,314,2
307,274,314,313,2
307,269,314,312,2
307,267,312,308,2
305,270,310,301,2
303,278,306,292,2
300,285,303,284,2
298,293,298,280,2
297,302,296,281,2
298,310,295,286,2
300,317,295,294,2
301,321,295,303,2
303,324,296,310,2
304,323,297,313,2
304,320,295,313,2
303,316,294,312,2
303,311,294,310,2
303,311,295,309,2
303,312,298,309,2
304,312,300,309,2
303,308,301,310,2
303,307,302,312,2
304,312,304,313,2
305,320,305,315,2
307,325,306,315,2
308,328,306,315,2
309,326,306,314,2
310,321,306,314,2
309,316,308,314,2
309,313,311,315,2
310,315,315,316,2
311,319,317,316,2
311,322,318,315,2
311,318,318,314,2
311,309,317,312,2
310,299,316,309,2
309,292,315,306,2
309,293,314,304,2
309,302,314,302,2
309,312,313,301,2
308,318,312,299,2
306,320,310,299,2
305,320,308,299,2
305,317,306,300,2
304,312,304,302,2
304,304,303,304,2
306,295,303,307,2
308,287,303,307,2
311,283,304,307,2
313,284,306,304,2
315,287,306,299,2
315,288,304,292,2
314,286,302,286,2
313,280,300,284,2
312,272,298,285,2
313,266,297,288,2
315,266,297,293,2
316,274,297,302,2
317,288,299,310,2
318,302,302,317,2
317,315,303,319,2
314,323,303,318,2
310,329,302,313,2
307,330,301,309,2
305,331,302,306,2
303,332,303,306,2
302,335,305,309,2
301,337,307,315,2
301,333,310,322,2
301,324,312,328,2
301,317,314,331,2
302,316,315,330,2
304,317,314,328,2
305,318,313,324,2
306,318,310,322,2
306,318,308,320,2
305,319,306,317,2
304,318,305,316,2
303,316,303,315,2
302,310,303,314,2
300,305,303,313,2
299,303,303,313,2
297,300,301,312,2
295,298,300,311,2
293,293,299,312,2
293,289,299,312,2
294,284,300,312,2
297,278,302,313,2
300,273,305,313,2
304,270,307,312,2
309,271,306,312,2
312,274,306,312,2
314,276,308,311,2
315,279,311,311,2
313,283,313,310,2
311,282,314,309,2
308,275,315,309,2
307,265,315,310,2
306,263,316,312,2
308,272,316,315,2
311,293,316,317,2
315,320,317,319,2
320,343,318,320,2
322,357,318,319,2
320,363,318,318,2
316,362,316,315,2
310,359,314,312,2
304,355,312,308,2
299,351,309,304,2
297,345,306,300,2
296,338,303,296,2
295,328,301,294,2
295,318,301,294,2
295,311,302,296,2
297,310,304,300,2
299,312,306,304,2
301,314,307,308,2
303,316,307,310,2
304,317,307,310,2
304,318,304,307,2
304,321,301,305,2
303,324,298,304,2
302,328,296,304,2
301,328,295,304,2
300,326,296,302,2
299,322,297,300,2
299,319,298,299,2
300,317,299,297,2
302,317,299,297,2
304,320,300,298,2
305,319,301,299,2
305,309,301,301,2
302,294,302,304,2
300,281,304,306,2
298,275,306,309,2
299,277,309,313,2
302,281,312,317,2
306,282,314,321,2
310,284,315,323,2
314,289,314,323,2
318,302,313,321,2
319,314,311,319,2
318,319,309,317,2
314,315,306,314,2
309,304,303,311,2
304,293,300,309,2
301,283,302,307,2
299,275,306,305,2
299,269,310,302,2
300,268,313,300,2
301,269,316,298,2
301,271,316,298,2
301,275,316,298,2
301,285,314,298,2
301,300,311,299,2
301,315,308,301,2
302,326,307,303,2
302,329,306,306,2
302,326,304,309,2
301,324,302,314,2
301,323,300,317,2
302,323,299,320,2
305,322,299,322,2
308,320,298,321,2
312,316,299,321,2
315,313,300,320,2
317,315,301,319,2
319,320,303,318,2
320,326,304,316,2
320,330,305,314,2
319,330,307,312,2
318,329,309,310,2
317,328,310,307,2
315,326,311,303,2
312,324,311,302,2
308,323,312,303,2
303,322,314,306,2
299,322,317,309,2
296,323,318,312,2
294,322,318,313,2
292,321,318,312,2
292,318,316,310,2
292,314,315,308,2
292,310,314,307,2
293,304,313,308,2
295,299,312,308,2
297,294,312,308,2
299,291,311,309,2
301,288,309,309,2
303,284,306,310,2
304,285,304,311,2
305,290,303,313,2
306,298,302,315,2
308,309,301,317,2
308,319,302,318,2
309,323,305,318,2
309,320,309,318,2
309,315,312,317,2
308,309,315,317,2
309,302,316,316,2
310,294,316,315,2
311,291,314,314,2
312,292,311,312,2
312,296,309,309,2
312,299,307,307,2
310,295,306,307,2
307,285,306,305,2
304,276,307,305,2
302,272,308,304,2
300,274,310,303,2
299,279,310,302,2
298,283,311,301,2
298,285,311,300,2
297,282,310,299,2
296,277,309,298,2
296,275,308,299,2
298,281,307,302,2
300,293,306,304,2
302,308,305,306,2
303,323,304,306,2
303,336,303,304,2
303,345,303,301,2
304,350,302,298,2
303,350,300,297,2
304,349,298,298,2
304,349,296,301,2
306,349,296,307,2
309,348,297,311,2
312,345,300,315,2
315,342,304,316,2
316,339,307,316,2
316,336,309,315,2
313,334,310,313,2
309,331,309,312,2
306,328,308,310,2
304,324,307,309,2
302,322,305,308,2
301,320,303,306,2
300,318,301,305,2
299,317,300,306,2
298,316,301,307,2
299,314,304,307,2
300,311,308,308,2
300,303,311,308,2
300,292,313,306,2
300,278,314,303,2
299,264,313,298,2
298,256,312,292,2
299,255,311,288,2
301,257,309,286,2
303,257,306,288,2
304,256,302,294,2
304,255,298,302,2
304,258,297,310,2
303,271,296,316,2
303,297,298,318,2
304,324,301,320,2
305,338,302,319,2
306,339,304,318,2
307,331,305,316,2
308,321,306,314,2
309,312,308,313,2
309,305,312,312,2
309,300,315,312,2
310,302,318,312,2
312,307,320,313,2
314,312,320,313,2
315,316,319,314,2
317,320,317,316,2
317,323,313,316,2
315,326,309,314,2
313,328,306,311,2
311,327,303,308,2
308,324,301,304,2
306,318,299,301,2
304,314,298,299,2
303,311,299,299,2
304,312,301,301,2
305,315,303,302,2
306,317,305,303,2
307,317,309,303,2
308,317,312,304,2
308,315,313,305,2
309,310,314,307,2
309,303,313,308,2
311,293,313,309,2
312,282,311,309,2
314,272,309,310,2
316,265,307,313,2
319,264,305,315,2
320,268,303,316,2
320,274,301,315,2
318,280,298,312,2
313,285,296,306,2
309,288,294,298,2
306,294,294,293,2
304,303,294,292,2
303,310,295,296,2
302,316,297,303,2
303,320,298,313,2
305,321,301,321,2
307,319,303,327,2
308,319,305,329,2
310,321,306,327,2
311,325,308,326,2
313,325,309,324,2
314,318,311,321,2
315,311,311,318,2
317,308,310,313,2
316,308,309,308,2
315,305,307,301,2
312,300,304,295,2
310,298,302,289,2
308,301,302,287,2
307,307,302,289,2
306,314,303,296,2
305,318,305,305,2
305,318,307,314,2
304,315,308,319,2
302,314,309,318,2
301,316,309,315,2
301,319,309,309,2
302,321,308,303,2
302,323,307,298,2
303,326,306,296,2
304,327,307,298,2
305,323,308,302,2
307,317,308,306,2
309,311,308,309,2
311,306,307,311,2
312,305,306,311,2
311,307,305,310,2
310,307,303,309,2
309,303,302,309,2
308,296,302,309,2
307,284,302,310,2
306,272,303,310,2
305,266,306,311,2
305,268,308,312,2
306,275,310,313,2
307,285,311,312,2
307,297,310,310,2
306,305,308,307,2
305,309,308,305,2
304,309,309,303,2
302,307,311,301,2
300,302,312,300,2
300,293,313,299,2
300,285,314,299,2
302,283,315,302,2
306,287,316,307,2
308,293,314,310,2
308,300,311,311,2
306,307,305,310,2
304,314,300,308,2
304,320,295,305,2
307,326,293,304,2
311,332,295,303,2
315,337,296,303,2
318,343,298,304,2
320,348,300,306,2
320,350,302,308,2
317,346,303,311,2
314,338,305,314,2
310,329,306,315,2
306,320,307,316,2
302,314,308,316,2
301,311,308,316,2
299,308,308,316,2
299,305,306,315,2
299,301,304,314,2
300,297,303,310,2
299,291,302,305,2
298,286,301,298,2
296,285,301,292,2
294,288,301,287,2
293,292,302,285,2
293,295,304,285,2
294,299,306,288,2
295,304,307,290,2
297,310,311,294,2
299,313,313,299,2
300,315,314,305,2
301,316,315,312,2
302,316,315,319,2
304,317,315,325,2
306,318,315,328,2
308,317,315,329,2
309,317,315,327,2
310,317,316,324,2
310,319,316,321,2
309,321,316,319,2
308,324,316,318,2
307,325,316,317,2
307,323,316,315,2
306,317,316,312,2
305,310,316,307,2
304,300,315,303,2
302,290,314,301,2
302,280,312,303,2
302,270,310,308,2
302,263,309,316,2
304,261,309,324,2
305,263,310,331,2
308,266,311,334,2
311,266,312,335,2
314,261,315,334,2
318,255,319,333,2
321,253,322,330,2
323,262,324,326,2
324,280,322,320,2
324,302,318,314,2
322,321,313,310,2
320,333,307,306,2
316,337,302,303,2
313,337,299,302,2
313,339,298,302,2
315,343,299,304,2
318,346,300,305,2
321,346,301,307,2
322,342,301,308,2
322,336,300,310,2
321,327,299,311,2
318,318,296,311,2
314,310,293,310,2
310,306,291,309,2
305,308,290,306,2
301,315,291,304,2
299,322,294,302,2
299,330,297,299,2
299,336,299,297,2
299,337,300,296,2
299,334,301,297,2
299,329,301,299,2
300,323,300,303,2
299,320,300,308,2
300,319,301,312,2
299,317,302,315,2
299,316,303,316,2
299,313,304,316,2
299,309,305,314,2
299,304,306,313,2
300,299,307,313,2
301,296,308,312,2
303,294,309,311,2
304,292,310,311,2
306,291,312,310,2
307,289,313,308,2
308,287,315,306,2
309,285,315,304,2
311,284,314,303,2
313,284,312,301,2
314,284,309,297,2
316,284,306,291,2
318,285,305,285,2
321,288,305,279,2
324,293,306,274,2
326,302,309,275,2
328,312,311,280,2
329,316,313,288,2
328,314,314,296,2
323,311,314,304,2
317,310,313,307,2
310,310,311,307,2
301,306,309,304,2
293,300,306,303,2
288,295,305,304,2
287,295,306,309,2
288,297,306,315,2
289,297,306,320,2
290,292,305,323,2
291,286,305,323,2
291,283,305,321,2
291,286,305,318,2
293,296,306,314,2
295,307,307,311,2
297,315,308,308,2
299,319,308,308,2
300,322,309,309,2
300,325,310,312,2
300,328,310,317,2
299,329,311,321,2
299,327,310,323,2
299,326,310,322,2
300,321,311,320,2
301,313,311,317,2
303,304,311,314,2
304,295,311,314,2
304,287,311,315,2
305,282,310,316,2
305,281,308,317,2
305,284,308,318,2
306,292,307,317,2
308,302,308,316,2
309,310,309,314,2
309,317,311,312,2
309,325,311,309,2
310,335,312,307,2
310,345,312,305,2
311,350,311,303,2
311,351,309,302,2
310,348,306,301,2
310,343,304,301,2
310,336,301,301,2
309,330,300,301,2
308,325,301,302,2
307,319,302,303,2
306,314,302,304,2
304,309,303,306,2
303,304,305,308,2
302,301,306,309,2
303,301,306,311,2
303,301,305,311,2
303,297,304,311,2
302,292,302,311,2
302,291,302,310,2
301,292,301,308,2
301,293,301,306,2
302,293,301,304,2
304,287,299,302,2
304,278,297,301,2
305,271,297,303,2
306,272,298,307,2
305,283,301,311,2
305,297,303,315,2
305,308,307,317,2
304,315,309,316,2
304,318,310,313,2
303,319,311,310,2
303,319,312,308,2
302,317,314,307,2
301,314,315,306,2
301,313,316,306,2
302,318,317,305,2
303,323,316,304,2
303,326,315,301,2
302,325,314,299,2
301,320,312,298,2
299,313,310,298,2
298,304,309,300,2
298,300,310,302,2
298,301,310,305,2
299,306,311,307,2
300,310,312,309,2
302,312,312,309,2
303,314,313,309,2
305,315,313,309,2
306,315,311,308,2
307,314,308,308,2
308,313,306,308,2
308,310,303,308,2
308,308,301,307,2
307,308,298,306,2
306,309,297,304,2
305,311,296,302,2
304,312,296,301,2
304,312,297,301,2
305,311,300,302,2
306,305,304,304,2
308,303,308,307,2
310,309,311,308,2
314,320,313,308,2
318,330,314,307,2
320,333,315,307,2
321,332,316,308,2
320,329,316,309,2
319,328,317,310,2
319,328,318,312,2
318,327,318,310,2
315,323,318,305,2
311,317,318,300,2
306,310,317,295,2
303,305,315,293,2
302,303,314,295,2
303,301,313,300,2
307,299,314,308,2
312,299,314,316,2
316,300,313,321,2
320,304,312,325,2
322,307,311,325,2
321,308,310,324,2
317,302,309,323,2
312,288,307,320,2
305,271,304,318,2
300,258,303,317,2
296,256,303,317,2
294,267,304,316,2
292,281,303,315,2
292,291,303,312,2
291,296,301,309,2
290,299,300,307,2
290,303,298,307,2
291,310,297,307,2
294,316,296,308,2
296,318,297,308,2
298,315,298,307,2
298,309,299,304,2
299,304,301,301,2
298,301,302,298,2
298,302,302,297,2
