316,336,302,298,2
316,333,304,297,2
316,329,306,294,2
315,326,307,293,2
314,324,309,291,2
314,323,310,290,2
313,321,310,288,2
311,314,308,288,2
308,304,306,290,2
305,296,304,292,2
304,293,304,293,2
305,295,304,293,2
306,295,305,294,2
305,289,305,296,2
304,277,305,298,2
303,259,305,304,2
304,244,306,312,2
306,240,309,321,2
309,248,311,328,2
311,263,312,332,2
313,280,310,332,2
314,290,310,330,2
315,294,309,326,2
314,295,307,321,2
313,294,305,319,2
312,296,303,318,2
311,304,303,316,2
311,313,302,314,2
310,322,303,312,2
310,330,304,311,2
310,340,306,312,2
310,349,306,313,2
311,355,306,313,2
312,356,306,312,2
312,352,307,310,2
312,342,308,306,2
311,328,308,303,2
310,311,308,301,2
308,294,309,301,2
307,278,310,303,2
306,266,311,306,2
306,264,311,307,2
306,275,311,305,2
308,295,312,303,2
310,314,313,302,2
313,325,313,303,2
315,329,313,305,2
316,326,312,308,2
315,317,311,312,2
313,310,311,314,2
311,306,310,313,2
310,305,311,311,2
309,305,313,309,2
309,306,314,307,2
308,307,315,305,2
309,313,314,305,2
309,320,314,305,2
309,325,313,305,2
310,327,313,306,2
312,328,315,308,2
315,331,318,309,2
317,334,318,309,2
317,337,316,308,2
314,335,311,305,2
312,329,308,303,2
310,320,308,302,2
308,308,309,301,2
307,297,312,301,2
307,288,314,301,2
305,284,315,301,2
304,284,314,301,2
304,288,313,301,2
304,295,311,301,2
305,300,311,301,2
305,301,310,300,2
303,299,309,298,2
302,300,309,295,2
303,304,308,293,2
303,310,307,292,2
303,312,306,289,2
302,311,305,287,2
302,305,304,283,2
301,297,304,277,2
300,290,303,272,2
300,290,302,270,2
301,295,303,272,2
304,299,304,278,2
305,299,306,286,2
306,300,305,292,2
305,304,304,297,2
305,314,302,301,2
306,325,300,304,2
308,332,300,307,2
311,335,300,310,2
313,335,301,310,2
313,333,301,308,2
311,329,300,305,2
310,320,300,301,2
308,305,300,295,2
308,285,301,289,2
307,268,301,285,2
308,257,301,283,2
308,254,301,284,2
311,263,301,286,2
313,280,299,287,2
313,298,297,287,2
312,313,295,285,2
310,324,294,283,2
308,330,295,279,2
306,329,297,275,2
304,324,299,270,2
302,317,300,266,2
302,310,300,266,2
303,303,300,271,2
303,297,300,279,2
304,293,301,291,2
306,289,302,303,2
308,288,304,313,2
310,290,304,320,2
312,295,305,324,2
314,299,306,328,2
316,300,306,332,2
316,293,306,336,2
316,279,308,340,2
316,262,309,341,2
315,249,310,339,2
315,240,310,335,2
314,243,312,330,2
315,262,313,324,2
315,288,312,320,2
315,316,311,317,2
315,337,309,316,2
314,349,309,317,2
313,355,308,319,2
311,358,308,320,2
310,358,307,321,2
308,356,307,320,2
307,351,308,320,2
306,344,309,318,2
306,333,309,315,2
305,321,309,310,2
305,307,309,303,2
304,295,309,297,2
304,288,308,296,2
305,286,307,298,2
306,287,308,303,2
307,287,308,309,2
308,284,307,313,2
307,279,305,315,2
306,276,304,315,2
307,282,304,314,2
310,298,305,314,2
313,314,306,314,2
314,327,306,315,2
314,337,306,316,2
314,341,305,316,2
314,336,305,315,2
312,320,305,314,2
309,296,306,312,2
307,271,308,311,2
306,256,310,310,2
307,250,313,309,2
309,255,313,306,2
309,268,311,302,2
308,281,308,297,2
307,294,305,293,2
307,307,304,289,2
307,317,304,286,2
308,322,304,287,2
309,325,305,290,2
310,325,307,295,2
311,327,307,301,2
312,331,307,309,2
313,334,306,315,2
314,334,306,320,2
315,333,305,322,2
316,332,305,321,2
316,330,304,318,2
316,328,303,314,2
315,324,302,312,2
314,318,302,309,2
313,313,301,307,2
311,309,299,305,2
310,303,296,302,2
308,292,293,300,2
307,278,289,300,2
306,261,287,299,2
305,247,286,299,2
305,238,286,299,2
306,236,290,298,2
308,244,293,296,2
309,263,296,289,2
309,284,298,279,2
308,299,300,268,2
306,307,303,261,2
305,312,305,260,2
305,315,307,266,2
307,319,309,277,2
309,323,310,290,2
310,323,309,299,2
310,318,308,304,2
310,306,306,306,2
308,286,305,307,2
306,263,306,306,2
304,250,306,304,2
303,250,306,301,2
303,261,304,300,2
304,281,304,303,2
308,305,306,310,2
312,327,309,319,2
317,342,310,327,2
319,348,312,332,2
320,346,313,335,2
320,338,315,336,2
320,327,317,338,2
320,318,318,336,2
319,314,319,332,2
320,316,318,324,2
320,317,318,315,2
320,314,317,304,2
317,310,316,293,2
315,311,314,286,2
313,314,313,285,2
312,316,311,289,2
311,317,309,295,2
311,319,307,299,2
310,321,306,301,2
309,324,304,299,2
308,327,303,297,2
307,328,302,296,2
306,325,303,296,2
305,317,305,298,2
304,305,307,302,2
304,289,311,309,2
303,275,314,317,2
303,265,316,324,2
304,261,318,330,2
306,269,318,333,2
306,283,317,333,2
307,297,315,331,2
308,309,312,328,2
309,319,311,325,2
310,327,311,322,2
312,329,311,321,2
314,326,312,320,2
314,318,312,320,2
315,308,310,319,2
314,301,309,317,2
313,299,308,316,2
313,306,306,315,2
312,318,305,313,2
310,329,304,311,2
309,335,304,310,2
308,335,304,309,2
308,330,304,308,2
307,319,304,308,2
305,307,301,307,2
302,298,300,305,2
301,293,300,304,2
302,293,301,303,2
304,296,302,303,2
305,296,303,303,2
306,291,302,303,2
305,283,301,303,2
305,277,300,304,2
304,275,299,306,2
303,275,301,307,2
303,274,304,306,2
303,274,308,302,2
303,272,310,297,2
304,273,312,293,2
305,275,314,293,2
306,284,315,297,2
307,299,314,302,2
308,314,313,308,2
308,324,311,311,2
308,326,309,312,2
307,322,308,310,2
305,314,308,306,2
304,308,308,303,2
303,305,308,300,2
303,303,308,302,2
304,300,306,304,2
305,294,306,308,2
306,289,307,311,2
306,287,307,313,2
305,286,307,313,2
303,288,308,312,2
302,295,309,311,2
302,307,309,309,2
302,320,308,304,2
302,329,306,299,2
302,334,304,295,2
301,336,303,291,2
301,335,302,290,2
300,332,300,294,2
300,332,300,302,2
302,335,300,310,2
305,341,301,314,2
308,347,304,313,2
311,351,306,311,2
312,350,307,309,2
313,347,307,308,2
312,340,307,310,2
313,329,307,313,2
314,319,309,316,2
314,311,310,317,2
313,307,311,318,2
312,305,310,319,2
309,305,308,319,2
304,304,304,318,2
300,302,301,317,2
297,299,298,316,2
296,295,297,316,2
298,288,296,315,2
300,283,296,315,2
304,282,297,315,2
306,283,298,315,2
307,283,299,314,2
308,276,301,314,2
308,264,302,313,2
307,249,304,313,2
307,237,306,313,2
308,233,310,312,2
310,238,312,310,2
311,250,313,306,2
312,264,315,303,2
311,277,314,299,2
309,288,313,296,2
308,300,311,295,2
306,314,309,295,2
304,329,306,294,2
302,342,303,291,2
302,349,301,288,2
302,352,300,287,2
304,352,300,288,2
305,351,301,294,2
307,349,302,302,2
308,345,303,311,2
309,338,304,317,2
310,330,304,320,2
310,320,304,321,2
309,309,304,319,2
308,301,304,317,2
307,301,305,316,2
308,306,307,317,2
309,310,309,317,2
309,308,310,318,2
308,298,311,316,2
306,283,311,313,2
303,270,309,307,2
302,263,308,299,2
301,264,306,290,2
300,273,304,283,2
300,289,301,278,2
300,302,298,277,2
300,309,295,279,2
300,307,294,286,2
301,300,296,294,2
303,294,300,304,2
306,294,304,315,2
311,303,307,324,2
316,310,310,332,2
319,316,312,336,2
319,321,313,335,2
318,326,312,333,2
317,333,311,330,2
316,340,310,328,2
315,348,310,327,2
315,352,311,326,2
314,353,310,323,2
312,348,309,319,2
309,338,308,316,2
305,324,307,314,2
303,307,306,313,2
303,295,306,313,2
304,290,306,313,2
307,291,307,313,2
309,294,308,313,2
312,296,310,314,2
313,298,312,316,2
315,299,313,317,2
315,299,313,318,2
315,298,313,319,2
314,296,311,320,2
312,292,310,320,2
310,285,309,320,2
308,279,309,319,2
305,278,309,317,2
304,283,308,316,2
304,291,308,316,2
305,299,309,316,2
306,300,309,315,2
307,294,309,315,2
309,286,309,315,2
309,279,310,314,2
309,277,311,314,2
309,276,311,312,2
307,275,310,311,2
306,281,309,309,2
305,290,309,308,2
306,297,308,307,2
306,302,308,304,2
305,305,307,301,2
304,309,306,297,2
303,316,304,292,2
302,322,302,286,2
301,325,299,281,2
299,328,295,279,2
297,328,294,280,2
297,326,294,284,2
297,323,294,288,2
298,319,295,292,2
298,320,296,292,2
299,324,298,288,2
300,329,299,280,2
300,332,298,272,2
301,333,298,267,2
302,334,297,270,2
303,332,298,281,2
303,325,299,296,2
304,315,302,311,2
304,306,304,322,2
305,300,307,327,2
305,297,309,328,2
305,294,310,327,2
306,291,310,325,2
306,289,311,324,2
307,288,310,323,2
307,287,310,322,2
307,286,311,322,2
307,290,311,322,2
308,297,311,322,2
308,303,311,321,2
307,305,309,319,2
306,305,307,315,2
306,307,304,310,2
305,310,303,308,2
305,312,304,307,2
306,313,305,309,2
307,313,305,311,2
307,313,305,314,2
308,312,303,316,2
308,312,301,315,2
307,314,300,311,2
307,316,299,306,2
306,319,299,302,2
306,321,301,301,2
306,325,304,302,2
306,328,307,305,2
307,330,310,308,2
307,331,311,312,2
308,333,311,313,2
308,335,310,314,2
307,335,308,313,2
306,334,306,312,2
305,332,304,309,2
303,328,302,306,2
300,321,301,304,2
298,308,301,303,2
296,293,302,304,2
296,281,302,305,2
298,277,304,308,2
301,283,305,311,2
306,290,308,315,2
310,292,310,318,2
311,292,311,320,2
311,289,312,321,2
310,283,311,321,2
307,276,309,318,2
305,273,306,314,2
302,277,304,309,2
300,285,303,305,2
299,291,303,300,2
296,292,302,296,2
294,285,301,293,2
294,276,302,291,2
294,271,303,287,2
295,271,304,284,2
298,278,304,283,2
300,290,304,287,2
304,304,304,294,2
307,316,304,305,2
310,328,303,317,2
313,337,304,326,2
316,341,304,331,2
317,340,304,331,2
317,339,302,328,2
315,339,301,324,2
313,336,299,320,2
310,328,298,317,2
306,317,298,314,2
303,305,298,312,2
301,294,300,311,2
300,280,301,311,2
298,263,302,311,2
297,248,302,310,2
295,240,302,307,2
296,242,303,306,2
297,249,305,304,2
300,260,305,303,2
303,275,306,302,2
306,297,306,302,2
308,319,306,304,2
309,335,305,308,2
309,345,305,313,2
309,349,305,317,2
310,348,306,319,2
310,345,306,317,2
309,340,305,313,2
308,336,304,308,2
307,332,302,304,2
306,328,301,301,2
305,322,299,300,2
303,313,297,299,2
301,303,296,300,2
300,294,296,300,2
299,288,299,299,2
300,287,303,297,2
303,293,308,292,2
305,302,311,287,2
307,310,312,284,2
308,316,311,284,2
307,320,308,288,2
307,321,307,293,2
308,321,305,300,2
309,321,306,306,2
310,318,306,308,2
310,313,306,310,2
310,308,307,310,2
309,304,308,310,2
309,300,309,312,2
308,295,311,317,2
307,288,314,323,2
307,282,316,327,2
307,278,318,329,2
309,279,319,327,2
310,286,318,321,2
309,297,314,313,2
308,312,308,305,2
308,325,304,300,2
308,331,303,298,2
308,331,303,300,2
308,327,303,304,2
307,323,304,308,2
308,322,305,311,2
309,324,306,312,2
308,325,307,311,2
307,324,308,310,2
304,319,309,306,2
303,312,309,302,2
301,305,309,298,2
299,302,308,295,2
298,302,305,295,2
298,303,303,299,2
299,303,302,307,2
301,305,303,316,2
302,305,304,324,2
303,305,305,328,2
303,304,307,329,2
303,302,309,328,2
304,300,310,326,2
304,296,311,323,2
305,289,311,319,2
305,285,310,315,2
305,284,309,311,2
305,290,308,309,2
305,299,307,307,2
304,306,306,306,2
303,310,304,306,2
302,310,303,305,2
300,305,301,304,2
300,298,300,303,2
299,294,300,303,2
299,297,300,303,2
299,302,300,304,2
299,306,300,304,2
299,311,301,304,2
299,316,303,304,2
300,320,305,303,2
301,320,308,302,2
302,319,311,303,2
303,319,313,304,2
304,318,315,303,2
304,317,316,299,2
304,314,316,298,2
304,311,315,299,2
305,306,315,304,2
306,300,314,312,2
308,293,313,319,2
308,285,310,324,2
309,278,308,326,2
309,274,305,325,2
308,278,302,321,2
308,292,300,316,2
308,310,298,311,2
307,327,297,307,2
305,338,297,307,2
304,343,299,307,2
304,344,301,310,2
306,342,303,313,2
307,336,306,316,2
308,325,308,318,2
309,311,309,319,2
308,296,310,320,2
306,285,312,320,2
305,280,313,319,2
305,280,317,318,2
306,284,320,318,2
307,291,322,318,2
308,299,321,317,2
308,309,319,315,2
309,318,316,312,2
309,324,314,310,2
308,325,313,309,2
307,322,311,308,2
306,318,309,307,2
307,316,307,308,2
308,317,304,308,2
308,319,303,308,2
309,321,301,306,2
309,320,300,304,2
308,316,298,302,2
308,311,298,299,2
307,313,297,297,2
307,320,297,295,2
308,327,297,294,2
308,332,297,293,2
307,333,299,295,2
307,331,300,297,2
306,327,302,299,2
305,320,304,300,2
303,310,305,299,2
302,297,304,298,2
301,285,302,300,2
300,275,302,303,2
301,269,303,307,2
302,267,303,312,2
303,270,305,314,2
305,280,307,314,2
307,293,309,312,2
307,306,309,309,2
308,316,308,307,2
307,323,307,306,2
307,325,306,308,2
306,324,306,310,2
305,321,305,312,2
304,318,305,313,2
303,316,305,314,2
302,314,303,315,2
301,310,301,315,2
300,304,299,315,2
298,296,298,314,2
296,285,298,312,2
296,274,299,309,2
296,266,302,307,2
297,267,305,306,2
297,276,306,306,2
297,283,307,306,2
298,288,306,307,2
299,293,305,305,2
301,298,304,302,2
304,304,302,298,2
306,314,301,294,2
307,326,301,295,2
308,336,300,301,2
307,343,300,309,2
307,347,300,316,2
306,347,301,320,2
304,343,302,323,2
303,336,303,323,2
300,326,304,323,2
297,318,305,322,2
293,311,305,320,2
290,304,305,316,2
290,300,304,311,2
291,296,302,305,2
294,293,299,300,2
295,292,297,298,2
297,292,296,301,2
300,295,297,306,2
303,299,300,313,2
306,305,304,318,2
310,310,308,322,2
313,312,313,324,2
315,312,316,324,2
316,310,319,323,2
317,305,321,322,2
317,304,322,320,2
315,306,321,316,2
314,315,320,311,2
313,326,318,307,2
312,332,317,304,2
310,334,314,303,2
308,334,312,303,2
305,330,309,305,2
303,322,305,307,2
301,311,303,309,2
300,302,302,312,2
301,297,302,313,2
303,295,303,314,2
305,291,304,313,2
307,283,303,310,2
307,277,302,305,2
306,278,300,301,2
305,287,299,295,2
305,299,300,289,2
305,310,301,287,2
306,319,302,286,2
306,324,303,289,2
306,326,305,296,2
306,325,305,303,2
306,324,305,309,2
305,321,303,311,2
305,316,301,311,2
305,310,300,311,2
305,307,300,312,2
306,311,301,313,2
307,316,303,315,2
307,321,305,319,2
308,324,308,321,2
308,325,309,321,2
307,322,310,318,2
305,314,309,314,2
304,303,307,308,2
302,296,306,301,2
301,299,303,295,2
301,308,302,291,2
302,318,300,291,2
303,326,301,294,2
304,328,302,301,2
305,326,303,308,2
306,319,304,314,2
306,307,303,317,2
305,292,304,318,2
304,276,305,319,2
303,266,306,320,2
301,263,308,319,2
299,269,310,315,2
298,283,309,309,2
298,300,306,301,2
300,315,303,296,2
303,322,301,293,2
307,325,300,295,2
310,329,300,299,2
312,329,301,305,2
313,325,303,311,2
312,315,304,313,2
309,307,304,312,2
307,305,304,310,2
304,309,302,307,2
304,315,300,304,2
304,323,300,302,2
304,332,300,302,2
305,338,300,302,2
306,338,301,304,2
306,331,301,304,2
304,320,302,305,2
304,311,304,307,2
304,304,306,309,2
306,301,309,311,2
307,300,311,313,2
308,297,313,314,2
309,293,314,313,2
309,288,315,311,2
308,283,316,306,2
307,277,317,301,2
307,272,317,296,2
307,269,317,291,2
307,267,317,289,2
308,272,316,290,2
309,288,314,290,2
309,307,311,292,2
310,321,308,292,2
309,325,304,290,2
308,319,299,287,2
306,307,296,286,2
305,295,295,288,2
304,288,295,293,2
304,288,295,296,2
304,295,294,298,2
305,306,294,301,2
306,317,294,304,2
308,326,295,307,2
309,332,296,311,2
310,337,296,315,2
311,337,295,319,2
311,335,294,321,2
310,331,294,322,2
309,326,294,321,2
307,324,297,320,2
307,325,299,318,2
305,328,301,316,2
305,330,304,316,2
306,327,307,315,2
306,319,309,314,2
305,309,310,314,2
304,301,310,313,2
303,295,308,312,2
302,290,307,310,2
302,286,306,308,2
301,282,305,305,2
301,280,304,302,2
301,283,302,300,2
302,290,302,298,2
303,297,302,299,2
305,301,302,303,2
306,303,303,306,2
307,304,303,308,2
307,304,303,310,2
307,299,305,311,2
307,294,306,313,2
307,294,308,315,2
309,298,310,318,2
312,300,311,320,2
312,295,312,321,2
311,284,311,319,2
309,270,311,317,2
308,264,311,316,2
307,271,312,315,2
307,285,312,314,2
307,296,310,313,2
307,305,309,311,2
307,313,308,309,2
308,323,307,306,2
309,334,305,302,2
308,344,304,299,2
307,348,303,296,2
305,349,302,293,2
303,345,301,293,2
302,339,301,295,2
301,332,301,298,2
301,324,301,303,2
301,320,302,306,2
301,318,303,309,2
302,317,304,309,2
303,314,305,307,2
303,308,305,302,2
304,305,304,297,2
304,305,302,291,2
305,307,300,285,2
305,312,299,285,2
305,315,299,288,2
305,318,302,293,2
304,323,306,298,2
304,329,311,301,2
305,331,315,305,2
305,327,318,310,2
304,317,319,316,2
304,303,318,321,2
304,287,316,325,2
303,273,315,326,2
303,268,314,326,2
303,275,313,324,2
305,288,312,321,2
306,301,310,319,2
306,309,310,318,2
307,310,310,317,2
307,309,309,317,2
307,309,309,317,2
308,314,307,317,2
309,321,305,317,2
311,325,303,318,2
311,324,301,319,2
311,320,300,319,2
310,316,298,318,2
308,314,296,317,2
307,313,295,314,2
306,314,296,313,2
306,316,298,312,2
307,316,300,311,2
306,311,301,311,2
306,306,303,310,2
305,303,304,309,2
305,302,306,309,2
305,303,307,309,2
304,305,308,311,2
303,305,308,313,2
302,302,307,315,2
301,295,306,318,2
300,289,305,319,2
299,285,304,319,2
298,284,302,318,2
297,285,302,316,2
297,286,303,315,2
298,289,304,314,2
299,296,306,312,2
303,307,308,311,2
306,321,310,309,2
308,334,311,307,2
307,345,311,306,2
307,351,310,306,2
307,351,309,307,2
306,345,306,306,2
303,330,304,303,2
300,310,302,299,2
297,288,300,296,2
294,270,300,294,2
292,263,301,293,2
293,272,302,296,2
296,288,303,301,2
299,304,303,305,2
302,315,303,307,2
303,319,303,308,2
303,318,302,307,2
303,316,302,306,2
302,312,301,306,2
302,306,302,305,2
301,298,303,305,2
302,292,305,306,2
302,289,308,308,2
303,291,311,311,2
304,299,313,312,2
305,309,311,312,2
304,318,307,309,2
303,326,303,305,2
302,334,301,301,2
301,339,299,298,2
299,339,298,296,2
298,335,299,295,2
298,326,300,296,2
297,313,301,298,2
296,299,299,299,2
295,289,297,302,2
295,285,295,304,2
296,286,293,308,2
298,290,293,313,2
301,293,292,319,2
304,295,294,324,2
306,297,297,326,2
309,301,301,325,2
311,305,304,322,2
310,306,306,319,2
310,305,308,317,2
308,300,308,316,2
306,292,308,318,2
305,287,306,320,2
304,290,306,322,2
305,303,306,323,2
306,317,307,322,2
307,324,309,319,2
308,327,309,315,2
307,326,309,311,2
306,323,308,308,2
305,320,307,306,2
305,315,307,307,2
305,308,307,308,2
305,299,308,311,2
306,289,309,315,2
306,281,311,317,2
306,278,313,320,2
306,283,313,321,2
306,292,312,322,2
306,302,311,321,2
305,310,310,320,2
305,318,309,319,2
306,327,308,317,2
308,339,308,316,2
310,347,308,314,2
310,350,308,312,2
309,352,307,307,2
307,350,307,300,2
304,340,305,290,2
301,323,303,277,2
297,303,300,266,2
295,284,298,262,2
293,270,295,264,2
293,261,294,272,2
293,258,293,283,2
293,259,294,295,2
295,266,295,305,2
297,279,299,314,2
298,293,302,320,2
300,304,305,324,2
301,311,307,326,2
302,314,310,327,2
302,314,311,328,2
302,315,314,327,2
302,313,317,326,2
304,312,320,325,2
305,311,322,323,2
306,310,323,320,2
306,309,322,318,2
306,305,319,317,2
305,294,313,316,2
304,275,307,315,2
302,248,303,312,2
299,222,300,307,2
297,208,298,303,2
298,212,299,298,2
298,228,299,296,2
300,251,299,295,2
302,278,299,295,2
304,304,297,295,2
305,324,296,296,2
305,338,294,296,2
303,346,293,297,2
301,350,292,296,2
300,353,291,295,2
301,356,292,292,2
301,359,293,290,2
303,360,296,292,2
304,358,298,300,2
305,352,301,310,2
306,345,303,320,2
307,338,305,328,2
308,333,308,331,2
309,328,310,331,2
308,324,311,329,2
308,323,311,326,2
306,325,310,324,2
305,325,309,322,2
304,325,307,319,2
303,323,307,316,2
302,321,307,314,2
301,319,307,313,2
301,317,307,312,2
302,314,308,309,2
303,309,309,306,2
303,302,309,302,2
303,294,307,299,2
302,284,305,298,2
302,272,305,299,2
301,258,306,305,2
302,243,307,313,2
302,230,309,319,2
302,226,311,322,2
303,230,313,322,2
304,240,312,316,2
303,256,310,304,2
302,278,307,293,2
303,302,305,285,2
303,321,302,284,2
302,333,300,289,2
302,338,299,301,2
302,336,300,314,2
303,331,302,324,2
305,325,304,328,2
306,318,306,328,2
307,312,307,325,2
308,308,308,320,2
308,304,309,315,2
309,302,309,311,2
309,302,308,307,2
308,302,307,305,2
307,305,305,305,2
306,307,304,306,2
306,310,303,310,2
306,315,303,313,2
307,320,303,315,2
306,326,303,316,2
307,330,305,317,2
306,331,307,316,2
306,330,310,316,2
306,328,312,315,2
306,326,313,315,2
305,325,315,315,2
305,324,317,316,2
305,322,319,316,2
305,313,320,314,2
304,299,318,312,2
303,281,314,308,2
301,263,312,305,2
300,252,308,303,2
301,253,305,303,2
303,263,302,304,2
305,276,300,305,2
306,292,297,306,2
307,309,296,304,2
307,323,295,302,2
307,329,295,299,2
306,328,295,297,2
305,322,295,295,2
303,318,296,296,2
302,314,297,299,2
300,307,299,303,2
300,298,301,307,2
300,293,303,308,2
300,294,304,307,2
301,299,306,303,2
302,306,306,296,2
301,313,305,289,2
301,317,305,285,2
301,315,304,285,2
301,310,303,288,2
301,306,304,295,2
303,308,306,303,2
305,317,308,309,2
308,328,309,312,2
309,336,311,312,2
310,339,312,311,2
310,338,313,310,2
308,334,315,310,2
307,329,315,312,2
306,323,315,314,2
305,316,314,316,2
305,307,314,318,2
304,294,315,320,2
305,284,317,322,2
306,280,320,323,2
306,284,322,323,2
307,295,324,321,2
306,304,323,318,2
305,311,321,312,2
303,313,319,303,2
302,312,316,295,2
302,306,312,291,2
302,299,309,289,2
302,295,306,291,2
303,295,305,296,2
303,298,306,301,2
303,302,307,307,2
303,305,309,311,2
302,303,309,314,2
300,296,308,315,2
299,287,307,314,2
297,278,305,312,2
296,277,301,308,2
296,283,299,305,2
297,293,299,304,2
299,298,300,304,2
299,295,300,304,2
300,288,301,307,2
301,276,302,309,2
302,268,304,312,2
305,272,306,314,2
308,286,307,314,2
310,300,306,313,2
310,310,304,312,2
308,314,302,311,2
307,313,301,310,2
305,309,300,309,2
304,305,301,308,2
304,302,302,306,2
304,300,304,305,2
304,297,307,304,2
304,294,310,304,2
303,291,314,304,2
304,295,317,305,2
306,303,319,307,2
308,307,320,311,2
310,305,320,315,2
309,294,319,317,2
308,279,318,318,2
305,271,316,318,2
303,271,315,317,2
303,277,315,316,2
304,286,315,315,2
306,298,315,314,2
307,309,313,311,2
306,320,311,309,2
304,327,310,307,2
303,328,309,307,2
302,317,311,308,2
301,295,313,310,2
301,274,315,311,2
301,269,319,312,2
303,279,320,312,2
304,292,318,310,2
304,297,314,308,2
302,293,308,306,2
300,284,304,305,2
299,275,300,304,2
300,278,298,304,2
302,295,297,304,2
306,315,297,306,2
309,326,299,306,2
311,326,300,307,2
311,317,303,307,2
310,309,306,308,2
310,311,310,308,2
311,317,312,305,2
311,323,311,301,2
310,323,309,296,2
307,317,307,294,2
303,303,305,293,2
299,287,304,294,2
296,282,304,295,2
295,294,306,298,2
297,316,307,299,2
298,335,307,297,2
299,347,307,295,2
300,350,307,293,2
301,348,309,294,2
301,345,310,298,2
303,341,311,305,2
305,337,310,314,2
307,330,308,319,2
308,320,304,319,2
307,308,301,313,2
305,293,297,305,2
301,281,294,299,2
298,279,292,294,2
298,290,293,292,2
300,309,294,292,2
302,325,297,295,2
304,337,299,301,2
306,344,303,307,2
307,346,306,313,2
307,341,309,318,2
305,329,311,321,2
302,312,312,323,2
300,295,314,324,2
299,285,317,327,2
298,278,318,327,2
297,275,317,325,2
297,280,314,321,2
296,294,310,316,2
297,314,306,310,2
298,332,304,306,2
300,341,302,304,2
300,342,303,305,2
301,340,304,309,2
301,337,305,314,2
301,335,306,320,2
301,331,306,324,2
300,326,305,326,2
300,320,304,325,2
298,316,304,323,2
297,318,304,322,2
298,325,306,321,2
298,331,308,320,2
299,333,309,319,2
300,331,310,317,2
301,328,311,317,2
303,324,313,317,2
304,321,313,317,2
304,318,311,316,2
304,315,310,314,2
304,309,309,313,2
303,304,308,311,2
303,301,307,309,2
302,297,303,306,2
302,293,298,303,2
300,285,296,300,2
298,275,294,299,2
297,266,293,299,2
295,262,293,301,2
295,266,295,301,2
296,277,297,301,2
297,288,299,300,2
299,297,302,298,2
300,299,304,295,2
301,295,305,294,2
301,289,307,293,2
300,289,307,294,2
300,292,306,298,2
300,295,306,303,2
302,300,305,312,2
303,306,303,318,2
303,310,298,321,2
301,310,293,320,2
300,307,292,317,2
299,303,292,311,2
299,306,294,303,2
299,316,298,296,2
301,331,302,291,2
301,343,304,290,2
301,347,306,292,2
301,343,306,300,2
301,333,306,310,2
301,320,307,318,2
302,307,308,324,2
302,299,309,327,2
302,293,311,328,2
303,286,311,329,2
303,277,312,330,2
303,267,311,330,2
303,259,309,329,2
303,259,307,327,2
303,273,306,326,2
306,296,307,326,2
308,319,308,325,2
309,338,307,323,2
309,349,305,321,2
309,354,302,319,2
308,355,300,316,2
308,354,298,313,2
307,347,297,311,2
306,333,299,311,2
306,315,301,311,2
307,299,305,313,2
310,288,309,315,2
312,281,312,317,2
312,271,313,318,2
313,264,314,318,2
315,267,316,317,2
316,281,316,315,2
316,299,314,312,2
315,315,312,309,2
313,323,309,306,2
310,325,307,304,2
307,321,305,304,2
304,319,303,305,2
302,321,302,307,2
302,325,302,309,2
303,328,303,310,2
302,328,304,310,2
301,327,305,308,2
300,326,305,308,2
299,327,306,306,2
299,327,306,305,2
300,326,306,303,2
301,323,306,300,2
301,320,306,297,2
301,314,307,296,2
301,309,307,296,2
301,307,307,298,2
302,309,307,300,2
302,313,304,300,2
301,318,301,299,2
300,321,298,299,2
299,320,296,301,2
299,317,296,302,2
299,313,297,302,2
300,307,297,303,2
301,300,299,305,2
301,291,302,309,2
302,277,305,313,2
300,261,306,317,2
299,250,307,320,2
301,250,308,324,2
303,259,309,327,2
306,272,310,327,2
309,286,310,327,2
311,301,309,324,2
311,316,307,321,2
311,327,306,318,2
310,330,305,315,2
308,328,304,312,2
305,323,303,308,2
302,315,303,302,2
299,306,304,296,2
298,298,307,291,2
297,291,309,289,2
298,281,310,293,2
298,268,310,301,2
298,258,311,312,2
300,254,310,320,2
302,261,310,323,2
304,277,309,322,2
305,297,307,319,2
306,316,304,316,2
307,330,300,313,2
306,338,297,312,2
307,341,297,312,2
309,342,299,313,2
310,342,302,313,2
310,339,304,312,2
309,336,307,311,2
307,328,309,309,2
305,315,310,309,2
303,300,311,307,2
301,285,311,304,2
299,274,311,298,2
297,269,310,294,2
297,272,308,292,2
297,284,307,293,2
299,299,307,296,2
301,314,307,298,2
303,324,308,299,2
304,329,310,299,2
305,334,312,300,2
306,338,315,302,2
308,342,318,306,2
308,343,319,312,2
308,341,318,317,2
307,337,317,322,2
306,329,313,325,2
304,320,310,325,2
303,311,307,325,2
303,303,305,323,2
303,297,304,321,2
302,292,304,318,2
301,287,304,315,2
300,284,304,309,2
299,284,304,301,2
297,290,305,291,2
297,299,306,285,2
298,307,308,283,2
299,310,308,286,2
301,310,309,292,2
303,309,308,301,2
304,306,307,309,2
304,301,306,317,2
303,294,304,322,2
302,286,304,327,2
301,278,304,330,2
301,270,306,331,2
300,264,307,329,2
299,261,307,327,2
299,261,308,324,2
299,266,308,322,2
299,277,307,318,2
299,289,305,314,2
298,305,304,308,2
297,323,302,300,2
296,339,299,291,2
295,350,296,284,2
295,355,294,279,2
296,355,293,281,2
297,353,294,287,2
299,349,295,295,2
301,343,295,304,2
303,335,295,309,2
304,329,295,313,2
305,324,296,316,2
306,322,298,316,2
306,319,298,315,2
305,319,299,312,2
305,319,300,307,2
304,320,300,302,2
303,320,302,297,2
301,316,304,295,2
300,302,306,298,2
300,277,308,304,2
300,248,310,310,2
300,226,312,314,2
302,224,315,317,2
306,241,317,320,2
311,266,318,321,2
314,288,319,321,2
316,304,319,320,2
315,313,319,319,2
313,313,318,318,2
310,308,317,317,2
308,300,317,316,2
308,297,316,315,2
307,300,314,313,2
307,302,311,311,2
306,299,307,309,2
305,295,303,307,2
303,290,300,305,2
302,290,298,305,2
302,299,296,306,2
303,311,293,306,2
304,322,292,306,2
306,332,292,305,2
307,340,294,303,2
308,343,295,303,2
308,342,297,302,2
307,336,298,303,2
305,327,300,304,2
303,315,303,306,2
302,302,306,308,2
301,290,310,309,2
300,277,314,311,2
298,259,316,309,2
296,241,314,306,2
294,236,312,302,2
294,245,309,298,2
295,266,306,295,2
298,297,305,294,2
301,326,304,294,2
304,346,304,296,2
305,356,306,298,2
307,357,307,301,2
307,352,308,305,2
306,343,309,309,2
306,332,308,311,2
305,321,305,314,2
305,311,303,314,2
305,305,302,313,2
306,308,303,312,2
307,319,303,309,2
309,331,302,308,2
310,341,304,308,2
311,347,308,308,2
313,350,313,309,2
314,350,317,311,2
314,347,318,310,2
312,338,316,308,2
310,327,313,306,2
309,318,311,303,2
308,311,310,302,2
308,307,310,300,2
308,302,311,300,2
308,297,313,303,2
307,292,313,306,2
306,291,312,308,2
304,294,309,307,2
302,301,307,303,2
301,301,304,298,2
299,288,302,291,2
296,265,301,286,2
294,242,301,284,2
293,236,302,287,2
296,252,303,293,2
299,277,303,301,2
303,300,303,308,2
304,313,302,313,2
304,316,301,317,2
303,312,303,317,2
301,311,303,316,2
299,316,302,312,2
297,324,297,306,2
296,333,294,302,2
295,338,293,301,2
296,341,294,303,2
297,341,296,306,2
299,340,297,308,2
300,338,298,309,2
300,334,298,306,2
300,325,298,300,2
300,313,298,295,2
301,303,300,292,2
303,297,304,291,2
304,296,308,293,2
304,299,312,298,2
304,302,315,306,2
304,303,317,314,2
304,302,317,321,2
302,301,317,325,2
301,299,317,327,2
300,297,318,327,2
301,296,319,324,2
302,298,318,320,2
302,304,314,313,2
301,312,308,307,2
300,318,303,303,2
299,323,299,302,2
299,326,297,302,2
300,324,297,302,2
300,318,298,302,2
301,310,301,301,2
303,303,303,298,2
304,302,304,294,2
305,306,305,291,2
307,312,305,290,2
307,315,304,290,2
305,314,302,291,2
303,315,299,293,2
300,315,296,295,2
296,314,294,297,2
295,312,294,299,2
295,307,296,303,2
296,297,299,307,2
297,285,301,312,2
297,273,302,315,2
297,263,303,317,2
298,255,304,319,2
300,251,307,321,2
304,252,310,323,2
308,261,311,322,2
310,271,310,318,2
311,278,308,313,2
311,279,304,307,2
311,285,301,302,2
311,299,300,300,2
310,314,300,301,2
309,328,301,304,2
307,338,301,308,2
306,344,302,312,2
306,347,303,312,2
306,349,305,311,2
306,349,306,310,2
306,348,307,308,2
306,346,308,307,2
307,345,309,306,2
307,345,311,306,2
308,344,311,307,2
308,342,311,309,2
307,338,312,310,2
306,332,311,309,2
304,325,310,305,2
303,319,310,300,2
302,314,308,294,2
301,307,306,290,2
301,299,303,290,2
300,294,300,292,2
300,289,296,296,2
299,284,293,300,2
299,282,291,304,2
300,284,292,307,2
300,288,294,309,2
301,287,296,310,2
301,280,299,311,2
301,272,300,312,2
302,269,301,311,2
305,276,303,311,2
308,294,303,311,2
309,316,302,308,2
309,336,300,306,2
307,347,300,305,2
305,347,300,306,2
304,339,301,307,2
303,330,303,308,2
302,321,304,307,2
302,317,306,305,2
303,320,306,301,2
301,322,307,296,2
300,320,307,294,2
297,318,305,293,2
296,317,304,295,2
296,318,303,298,2
297,317,303,301,2
298,312,303,301,2
299,307,303,300,2
300,301,304,300,2
300,293,305,301,2
301,284,306,304,2
301,275,307,306,2
302,272,308,305,2
302,277,311,303,2
303,283,313,301,2
304,287,315,301,2
304,293,317,304,2
305,300,318,310,2
306,309,319,315,2
307,314,318,318,2
307,314,317,319,2
305,312,314,318,2
304,311,311,317,2
303,313,309,317,2
303,319,308,317,2
303,325,308,317,2
304,329,307,317,2
303,328,306,315,2
301,325,304,312,2
300,320,301,309,2
299,315,299,305,2
299,312,297,303,2
300,309,296,300,2
300,306,296,297,2
301,305,295,295,2
301,305,294,294,2
301,305,294,295,2
301,300,294,296,2
300,292,296,297,2
299,281,297,298,2
298,269,299,300,2
297,263,302,304,2
298,266,304,310,2
300,276,305,316,2
302,288,306,320,2
304,299,307,322,2
307,305,309,321,2
308,308,309,318,2
308,311,307,312,2
306,313,305,307,2
304,313,304,304,2
303,312,303,303,2
303,310,303,305,2
304,310,301,306,2
304,313,298,305,2
304,319,294,304,2
303,324,291,303,2
302,325,289,304,2
302,318,289,306,2
301,305,288,310,2
300,295,290,315,2
299,290,292,319,2
298,290,294,321,2
297,293,296,321,2
297,294,297,321,2
297,294,300,320,2
299,299,303,319,2
300,307,305,318,2
301,318,307,316,2
301,327,308,315,2
302,334,309,314,2
302,336,309,313,2
303,333,309,310,2
303,323,309,307,2
302,308,307,303,2
301,293,306,300,2
299,279,305,299,2
297,269,304,299,2
297,264,303,299,2
296,264,302,299,2
297,272,300,297,2
297,285,299,294,2
297,298,298,291,2
297,309,298,290,2
298,314,299,291,2
299,314,301,297,2
301,309,303,303,2
303,303,305,309,2
304,300,308,314,2
304,300,311,318,2
305,300,314,321,2
305,299,316,324,2
306,296,318,326,2
306,292,318,328,2
305,288,319,327,2
304,281,319,326,2
304,276,320,325,2
305,281,323,324,2
306,292,324,324,2
307,305,322,321,2
305,314,318,317,2
305,322,314,314,2
304,325,311,313,2
303,323,309,312,2
301,319,307,312,2
300,318,306,312,2
300,320,305,311,2
300,322,306,310,2
301,325,308,310,2
302,329,310,310,2
303,331,310,309,2
303,335,311,307,2
304,337,311,307,2
304,338,312,306,2
305,337,312,305,2
305,337,312,304,2
305,335,311,304,2
305,331,309,305,2
304,326,308,305,2
304,319,306,306,2
303,310,304,306,2
302,300,302,307,2
300,289,300,307,2
297,278,301,307,2
296,269,302,308,2
296,268,306,310,2
297,274,310,310,2
299,285,313,311,2
301,298,314,310,2
302,309,314,308,2
302,317,312,306,2
301,320,310,306,2
302,320,308,308,2
303,316,307,310,2
305,309,306,313,2
307,298,306,314,2
308,287,307,315,2
309,277,309,314,2
309,271,311,312,2
306,272,312,310,2
304,283,311,307,2
301,300,310,305,2
300,318,309,306,2
300,332,307,307,2
301,338,307,308,2
302,336,306,309,2
301,327,304,310,2
301,316,303,309,2
300,307,302,309,2
300,304,302,308,2
301,306,303,307,2
302,310,305,307,2
304,314,306,307,2
305,319,307,306,2
305,325,308,305,2
307,330,309,305,2
310,332,310,305,2
312,330,309,303,2
313,326,306,302,2
314,320,302,301,2
312,315,300,299,2
311,313,298,299,2
309,315,298,298,2
307,314,298,298,2
305,310,300,299,2
303,303,302,301,2
302,299,304,303,2
301,300,305,305,2
300,303,306,307,2
299,306,307,309,2
299,309,308,310,2
300,311,308,309,2
300,312,309,306,2
300,309,311,300,2
300,306,314,293,2
300,305,316,288,2
300,304,316,286,2
300,303,315,286,2
299,304,312,290,2
300,306,310,297,2
301,308,309,303,2
302,305,309,309,2
301,297,308,313,2
299,282,307,319,2
298,265,307,324,2
298,249,307,327,2
298,237,306,327,2
299,236,305,322,2
299,247,304,317,2
300,269,304,312,2
301,301,304,310,2
302,332,305,311,2
304,354,307,315,2
306,363,308,319,2
308,361,309,321,2
309,351,309,322,2
309,338,310,320,2
308,327,310,318,2
307,315,312,316,2
306,301,312,315,2
304,286,311,314,2
303,275,311,313,2
303,274,313,313,2
305,289,315,311,2
307,310,316,307,2
308,329,314,302,2
308,339,311,300,2
306,344,307,300,2
305,346,305,304,2
305,347,304,310,2
306,347,304,315,2
307,348,304,318,2
308,347,304,320,2
309,345,303,320,2
310,343,303,319,2
310,343,302,318,2
310,342,302,316,2
310,338,303,315,2
309,331,304,314,2
307,321,307,314,2
304,308,307,312,2
301,297,306,310,2
298,288,305,307,2
298,285,304,304,2
299,287,303,303,2
301,290,302,301,2
302,293,300,299,2
301,295,298,299,2
301,294,296,300,2
300,289,295,301,2
299,283,295,301,2
298,279,296,298,2
299,279,298,296,2
300,283,302,292,2
301,287,306,288,2
303,291,308,284,2
305,296,310,283,2
307,303,309,287,2
309,310,309,297,2
311,318,308,311,2
312,326,309,325,2
312,333,309,334,2
310,336,309,338,2
308,337,307,336,2
306,336,306,330,2
305,333,305,322,2
304,330,305,313,2
303,325,307,305,2
302,318,308,299,2
301,307,310,295,2
302,294,311,294,2
302,283,312,297,2
303,276,313,303,2
305,271,314,310,2
307,268,315,318,2
309,267,315,323,2
309,269,314,327,2
309,275,312,329,2
308,280,309,328,2
307,281,306,328,2
306,279,304,327,2
306,281,305,327,2
307,289,308,328,2
308,300,309,328,2
309,313,309,327,2
310,322,308,325,2
309,326,306,323,2
309,325,305,321,2
309,324,304,320,2
308,320,304,318,2
308,315,304,317,2
307,310,304,315,2
306,309,303,314,2
306,309,303,312,2
307,306,304,311,2
309,298,304,312,2
310,288,304,312,2
310,280,304,313,2
310,278,304,313,2
312,281,306,314,2
312,287,307,315,2
312,298,308,314,2
310,314,307,313,2
309,330,305,311,2
307,343,304,310,2
307,354,303,310,2
307,361,303,310,2
307,361,303,310,2
306,355,304,310,2
306,346,305,309,2
306,335,306,308,2
306,324,308,307,2
305,312,309,307,2
304,301,308,307,2
304,290,307,308,2
303,280,306,308,2
303,271,305,307,2
302,267,305,305,2
301,266,305,304,2
299,268,305,301,2
297,274,306,298,2
296,284,306,294,2
296,291,307,291,2
297,294,309,291,2
298,291,310,294,2
300,289,310,300,2
302,289,308,307,2
302,295,305,312,2
303,303,303,313,2
303,310,301,313,2
304,317,301,311,2
305,324,302,311,2
306,329,304,310,2
307,330,305,309,2
307,327,307,308,2
307,323,307,309,2
306,318,305,309,2
304,314,301,310,2
302,311,299,312,2
302,311,300,313,2
302,313,301,313,2
301,314,302,311,2
301,311,302,309,2
300,304,300,307,2
298,298,299,305,2
298,295,299,304,2
298,294,299,303,2
298,291,300,303,2
299,284,300,302,2
299,276,301,301,2
301,276,303,301,2
305,285,305,301,2
308,297,306,302,2
311,310,307,303,2
313,324,308,305,2
314,334,311,308,2
315,340,315,310,2
314,339,318,311,2
313,337,319,307,2
310,336,318,302,2
308,332,316,297,2
305,324,313,294,2
303,313,311,294,2
301,305,309,298,2
299,303,307,304,2
299,307,306,312,2
301,314,307,318,2
303,320,308,321,2
305,323,308,321,2
306,322,308,320,2
306,316,308,319,2
306,308,307,317,2
305,298,308,315,2
305,291,308,314,2
306,290,309,313,2
307,296,309,311,2
308,300,308,309,2
309,302,308,307,2
309,301,307,307,2
308,295,308,308,2
307,283,307,309,2
305,271,307,309,2
304,264,306,310,2
305,267,306,309,2
307,276,307,308,2
310,289,309,306,2
312,302,309,302,2
311,314,307,296,2
308,325,303,293,2
305,336,300,292,2
303,346,300,292,2
302,351,302,292,2
302,349,304,291,2
302,342,304,290,2
302,329,304,291,2
303,312,304,295,2
304,298,304,304,2
305,293,305,313,2
307,297,307,320,2
308,304,308,324,2
309,314,309,326,2
310,325,310,325,2
309,333,310,322,2
308,338,309,320,2
306,340,310,317,2
305,339,309,315,2
305,336,310,313,2
306,331,311,313,2
307,328,312,312,2
308,323,313,312,2
309,318,311,311,2
309,313,308,309,2
308,306,303,307,2
307,293,298,304,2
306,276,293,301,2
304,259,290,298,2
302,247,288,297,2
301,246,287,297,2
299,255,287,297,2
298,266,287,297,2
297,272,289,298,2
295,272,294,301,2
294,268,301,306,2
295,268,307,311,2
296,275,312,315,2
300,290,315,319,2
303,310,317,320,2
305,330,317,319,2
306,344,317,317,2
307,352,316,315,2
307,353,315,312,2
307,348,314,310,2
308,336,313,308,2
307,322,311,305,2
306,311,308,303,2
304,301,306,302,2
303,293,307,305,2
303,291,309,309,2
304,297,312,312,2
305,308,314,313,2
305,318,314,312,2
304,324,313,311,2
302,325,311,310,2
300,323,310,309,2
298,317,308,309,2
297,303,306,309,2
297,285,304,308,2
296,270,303,307,2
296,262,303,307,2
297,267,304,307,2
299,282,306,308,2
301,298,309,308,2
304,311,310,307,2
306,319,310,305,2
307,322,310,303,2
307,323,309,301,2
307,322,308,302,2
307,319,308,306,2
307,314,309,311,2
306,309,309,316,2
306,304,309,320,2
306,306,309,321,2
305,313,309,320,2
304,319,308,318,2
304,321,308,317,2
304,322,309,316,2
305,318,311,315,2
305,312,313,312,2
305,307,313,305,2
304,306,311,294,2
303,310,310,283,2
302,317,309,275,2
301,324,308,275,2
301,327,308,283,2
301,327,307,296,2
302,325,305,310,2
303,322,303,323,2
305,321,302,330,2
306,320,301,333,2
307,319,300,333,2
308,318,299,330,2
308,317,297,326,2
307,316,296,323,2
306,313,294,319,2
305,310,292,314,2
304,306,290,310,2
304,301,289,307,2
303,291,290,305,2
303,279,292,306,2
302,269,295,306,2
302,266,299,307,2
302,274,303,308,2
302,291,306,309,2
302,307,309,310,2
302,314,311,312,2
301,310,313,312,2
300,295,313,312,2
298,275,311,312,2
297,254,310,312,2
296,240,309,313,2
297,240,311,314,2
300,257,314,315,2
303,277,318,314,2
305,291,319,311,2
305,297,318,308,2
303,298,316,303,2
302,301,312,300,2
301,310,308,297,2
300,319,305,297,2
299,327,301,298,2
297,333,298,301,2
297,338,296,303,2
299,341,296,304,2
301,342,296,303,2
303,342,296,301,2
303,340,296,301,2
303,337,296,302,2
302,334,296,303,2
301,331,296,302,2
301,328,297,299,2
301,326,298,294,2
301,325,300,290,2
301,325,302,289,2
302,327,304,293,2
303,329,304,300,2
303,332,305,309,2
305,334,307,318,2
306,335,311,324,2
307,331,315,326,2
308,321,318,325,2
308,304,320,322,2
307,286,320,319,2
306,268,321,317,2
305,255,322,315,2
303,247,321,313,2
302,245,319,312,2
302,254,314,310,2
302,273,310,308,2
302,292,307,304,2
303,304,304,300,2
303,313,301,296,2
302,321,298,293,2
301,325,295,291,2
299,325,294,293,2
298,320,293,296,2
297,311,294,301,2
298,302,295,306,2
300,297,297,310,2
302,290,300,313,2
304,286,303,315,2
306,286,308,315,2
308,290,312,315,2
310,297,314,314,2
311,302,315,314,2
312,304,314,313,2
311,308,312,312,2
312,314,311,312,2
313,324,311,311,2
313,334,311,309,2
311,343,310,307,2
309,349,308,305,2
306,351,304,303,2
303,348,302,301,2
300,339,299,299,2
298,324,298,297,2
296,306,296,297,2
295,289,295,298,2
294,276,296,300,2
294,271,298,304,2
296,277,304,308,2
298,285,311,311,2
301,292,316,311,2
302,298,319,308,2
301,302,318,304,2
300,309,316,300,2
299,317,313,299,2
300,324,311,301,2
301,328,311,304,2
303,328,312,310,2
305,324,314,316,2
305,318,316,319,2
305,310,317,320,2
304,303,318,320,2
303,299,316,318,2
302,296,314,314,2
301,292,309,310,2
300,292,306,306,2
299,298,303,303,2
300,309,303,302,2
302,326,303,303,2
305,342,304,306,2
307,354,305,311,2
309,358,306,315,2
310,355,307,318,2
310,347,308,319,2
309,335,308,319,2
308,320,308,318,2
306,305,307,316,2
303,294,307,313,2
300,288,307,310,2
298,286,307,308,2
296,284,308,307,2
295,282,307,308,2
295,279,308,308,2
295,273,309,310,2
295,266,308,310,2
294,262,308,308,2
294,263,308,307,2
295,269,309,306,2
296,278,310,304,2
298,288,310,303,2
300,293,309,303,2
301,293,307,304,2
303,288,306,307,2
304,283,306,311,2
306,281,308,314,2
308,282,308,315,2
309,284,308,312,2
310,284,308,308,2
309,283,307,302,2
307,283,307,296,2
305,287,307,292,2
304,296,306,291,2
303,305,304,293,2
303,313,302,298,2
305,325,301,303,2
307,338,301,306,2
308,350,302,309,2
309,356,303,311,2
310,355,305,313,2
311,349,308,314,2
310,342,310,314,2
310,336,311,314,2
309,332,312,313,2
307,328,311,312,2
306,328,311,310,2
305,329,310,309,2
305,329,308,307,2
305,326,305,307,2
305,322,301,306,2
304,319,298,306,2
305,315,295,307,2
305,311,295,308,2
305,303,296,309,2
304,293,299,311,2
302,281,302,313,2
300,273,305,314,2
300,273,308,315,2
300,279,311,314,2
301,287,312,313,2
302,295,312,311,2
304,300,310,308,2
305,302,308,305,2
306,300,305,302,2
306,298,301,300,2
306,295,299,296,2
305,291,298,293,2
304,286,297,292,2
302,286,298,293,2
301,292,298,296,2
300,302,299,299,2
301,309,300,304,2
302,312,302,310,2
303,307,304,316,2
304,292,306,321,2
305,271,309,324,2
306,257,310,324,2
308,259,311,321,2
310,274,312,316,2
313,299,315,310,2
316,324,316,303,2
317,342,316,298,2
315,352,316,297,2
313,353,315,299,2
309,350,313,304,2
306,344,311,309,2
303,337,308,313,2
301,330,306,312,2
299,321,304,310,2
298,312,302,304,2
297,304,302,297,2
297,301,301,291,2
297,300,299,286,2
297,300,299,284,2
298,298,300,284,2
299,296,302,286,2
301,298,305,290,2
303,304,307,296,2
304,308,307,304,2
304,308,307,313,2
303,304,308,323,2
303,296,311,329,2
304,289,313,332,2
304,288,315,332,2
305,292,316,331,2
306,300,315,328,2
307,307,313,326,2
307,312,311,323,2
307,314,309,320,2
307,312,307,318,2
306,308,306,315,2
305,303,305,313,2
304,297,305,311,2
302,291,305,310,2
300,287,304,308,2
299,286,305,308,2
300,288,308,309,2
302,291,310,308,2
303,294,311,307,2
304,298,312,305,2
304,298,313,304,2
304,296,313,302,2
303,293,312,300,2
303,291,310,296,2
304,287,308,291,2
305,283,307,287,2
305,284,306,285,2
307,295,306,287,2
309,314,306,294,2
310,334,306,302,2
312,349,306,310,2
313,357,307,316,2
313,359,307,319,2
312,358,306,320,2
311,354,307,320,2
309,350,308,320,2
307,346,309,320,2
306,342,310,320,2
305,338,309,320,2
304,333,308,319,2
304,328,307,319,2
304,322,306,318,2
304,316,304,316,2
303,309,302,315,2
303,302,301,313,2
303,291,300,312,2
302,276,302,312,2
302,260,305,314,2
303,249,309,317,2
304,254,313,320,2
307,268,315,321,2
309,278,317,322,2
310,277,317,321,2
308,270,316,319,2
307,267,314,316,2
307,272,313,315,2
307,278,312,313,2
307,284,310,311,2
306,294,307,308,2
305,307,305,306,2
304,319,304,304,2
305,329,304,302,2
306,335,304,300,2
306,337,304,299,2
306,337,302,299,2
305,335,301,301,2
304,333,300,303,2
304,330,300,306,2
303,327,301,308,2
303,324,302,308,2
302,321,303,308,2
302,317,303,306,2
301,313,303,303,2
300,308,304,299,2
300,304,304,294,2
298,301,303,290,2
298,302,303,289,2
299,307,302,289,2
300,310,302,291,2
302,312,302,295,2
303,314,303,298,2
305,314,305,302,2
306,310,306,304,2
306,307,307,307,2
307,305,308,308,2
308,305,309,309,2
308,308,310,307,2
308,313,311,304,2
307,316,311,300,2
306,318,310,295,2
304,319,308,288,2
301,319,304,282,2
298,318,301,277,2
296,316,298,276,2
295,311,296,280,2
296,307,296,289,2
298,303,297,302,2
300,299,298,316,2
302,293,300,328,2
303,284,304,335,2
303,274,308,340,2
305,266,312,341,2
307,264,316,340,2
309,270,318,337,2
310,282,318,332,2
310,293,316,328,2
309,301,314,323,2
308,306,313,319,2
308,306,312,316,2
308,306,312,314,2
308,310,312,312,2
310,317,313,309,2
311,329,314,307,2
313,339,315,306,2
314,345,316,307,2
314,345,317,309,2
312,341,315,309,2
309,336,314,309,2
307,332,313,307,2
306,325,312,307,2
305,317,312,308,2
305,312,313,310,2
306,310,316,315,2
309,309,318,319,2
311,302,319,322,2
312,291,317,323,2
312,283,316,323,2
313,281,314,320,2
313,285,311,315,2
313,289,308,307,2
312,292,304,302,2
311,293,302,300,2
309,295,300,301,2
308,299,299,303,2
307,306,299,305,2
306,315,300,307,2
305,323,301,307,2
303,330,301,306,2
303,337,299,305,2
302,344,298,305,2
302,351,298,306,2
302,355,300,307,2
302,354,304,309,2
301,346,309,310,2
301,329,312,313,2
300,310,314,315,2
301,293,315,317,2
303,287,316,319,2
305,288,316,319,2
306,293,316,318,2
306,300,315,315,2
305,307,313,313,2
304,311,311,310,2
302,312,309,307,2
301,312,307,305,2
302,313,306,304,2
301,314,305,304,2
301,314,305,304,2
301,313,304,304,2
300,309,305,304,2
300,305,306,304,2
301,299,307,303,2
301,293,308,302,2
302,289,309,301,2
303,288,309,301,2
304,283,308,301,2
303,276,307,302,2
303,269,306,303,2
303,265,303,304,2
303,269,300,303,2
303,279,298,303,2
302,288,297,300,2
301,296,296,296,2
300,305,297,290,2
300,314,298,285,2
300,322,300,281,2
301,329,302,281,2
301,332,304,285,2
303,330,307,294,2
305,327,311,305,2
307,324,315,317,2
308,325,318,325,2
309,326,321,328,2
309,326,323,329,2
309,323,324,328,2
308,321,325,326,2
307,317,324,325,2
305,312,321,322,2
303,306,318,319,2
302,300,315,315,2
300,296,311,311,2
298,295,307,308,2
297,297,305,307,2
296,301,303,308,2
296,303,302,310,2
297,301,300,312,2
297,294,300,313,2
297,281,302,313,2
298,269,305,314,2
300,262,309,314,2
303,260,312,314,2
306,262,314,315,2
309,269,316,315,2
311,281,316,313,2
310,292,314,310,2
307,303,312,306,2
303,314,308,302,2
301,322,306,300,2
299,325,305,299,2
299,323,304,298,2
299,319,303,299,2
300,316,302,302,2
301,317,301,305,2
302,318,301,308,2
302,317,302,309,2
301,315,303,309,2
300,311,305,308,2
299,307,307,307,2
299,304,308,306,2
299,304,309,305,2
299,303,308,306,2
301,303,308,308,2
303,303,308,311,2
305,298,308,313,2
307,290,307,315,2
307,279,306,316,2
307,271,306,317,2
308,270,305,316,2
307,279,303,314,2
307,295,301,312,2
306,308,299,310,2
305,317,299,308,2
303,318,300,307,2
302,312,301,305,2
302,300,303,305,2
301,288,304,305,2
301,282,306,305,2
302,285,308,305,2
304,298,309,304,2
307,316,309,303,2
309,330,309,302,2
310,340,307,301,2
311,344,307,302,2
312,344,307,304,2
311,338,306,307,2
309,329,306,309,2
307,321,306,311,2
306,315,308,311,2
305,314,310,310,2
304,314,310,308,2
304,312,310,307,2
303,307,309,308,2
302,299,308,310,2
302,292,307,312,2
302,289,306,312,2
302,288,304,311,2
302,284,302,310,2
302,277,302,309,2
302,269,303,308,2
303,266,304,307,2
303,271,305,303,2
304,283,306,298,2
304,297,308,294,2
304,305,309,291,2
304,309,311,290,2
303,313,312,291,2
303,314,312,295,2
304,315,311,299,2
305,315,310,302,2
306,316,308,303,2
306,320,305,302,2
305,325,303,303,2
304,330,302,305,2
303,335,301,308,2
304,340,301,313,2
306,346,302,319,2
307,347,303,324,2
309,345,304,327,2
310,336,305,329,2
310,323,307,329,2
310,307,307,328,2
309,291,307,326,2
308,280,307,323,2
308,274,307,320,2
308,273,305,316,2
309,277,303,314,2
310,286,303,312,2
312,296,303,311,2
312,308,303,310,2
312,317,304,309,2
311,321,304,309,2
310,323,306,309,2
310,328,307,309,2
309,336,309,309,2
308,342,310,308,2
307,344,310,307,2
306,339,310,308,2
304,331,311,308,2
302,323,311,309,2
301,315,311,310,2
300,308,310,310,2
299,301,309,311,2
301,297,310,312,2
302,296,311,312,2
303,301,311,311,2
303,308,310,309,2
302,311,308,307,2
302,311,306,304,2
301,308,304,302,2
300,304,303,301,2
301,300,303,301,2
301,298,303,301,2
302,299,304,301,2
301,299,304,301,2
302,298,303,302,2
302,295,303,303,2
302,290,303,304,2
303,281,303,307,2
303,270,304,308,2
303,257,304,309,2
303,245,304,309,2
302,235,305,309,2
302,232,306,308,2
302,240,308,306,2
303,258,311,304,2
305,278,315,303,2
308,296,316,302,2
309,311,315,300,2
309,320,313,298,2
310,324,312,295,2
309,325,310,292,2
309,325,307,290,2
308,325,304,293,2
307,326,302,299,2
307,327,300,306,2
306,328,298,312,2
305,330,297,316,2
305,331,297,316,2
304,332,297,313,2
302,334,299,310,2
303,335,301,309,2
304,335,304,310,2
305,333,304,311,2
306,331,304,313,2
306,327,303,314,2
305,321,302,312,2
304,316,301,307,2
302,312,299,301,2
302,310,299,297,2
303,310,300,293,2
304,310,302,293,2
305,313,304,295,2
306,319,307,300,2
308,329,310,304,2
308,336,311,306,2
307,334,309,307,2
305,326,307,308,2
303,311,305,309,2
302,299,303,311,2
303,294,301,312,2
305,295,301,314,2
305,300,301,313,2
305,303,301,313,2
305,303,303,315,2
304,297,305,317,2
303,286,307,319,2
300,273,308,320,2
298,260,309,320,2
297,253,310,320,2
297,252,311,319,2
300,256,311,318,2
303,264,311,315,2
306,272,310,310,2
308,280,309,304,2
308,288,308,299,2
308,295,306,294,2
307,300,306,291,2
307,307,306,291,2
307,313,307,292,2
308,318,307,296,2
311,324,308,300,2
313,330,308,305,2
314,335,308,309,2
315,340,307,312,2
315,345,307,315,2
314,349,307,316,2
313,351,307,315,2
311,350,307,314,2
310,346,307,311,2
309,340,307,308,2
308,331,306,305,2
306,319,304,304,2
304,306,304,305,2
302,295,302,306,2
300,287,302,306,2
300,285,303,305,2
301,286,303,304,2
301,287,302,300,2
300,287,301,298,2
299,288,300,297,2
300,293,301,299,2
303,299,304,303,2
305,307,307,307,2
307,314,309,309,2
309,320,311,310,2
309,323,310,310,2
308,323,309,309,2
306,318,307,309,2
304,309,306,310,2
303,299,304,310,2
303,293,303,311,2
303,293,303,312,2
304,300,303,312,2
305,308,304,313,2
305,316,306,312,2
305,321,307,311,2
304,323,306,310,2
303,321,306,309,2
302,317,306,308,2
302,313,307,307,2
301,309,308,306,2
302,307,309,305,2
303,305,310,304,2
305,301,310,301,2
306,299,309,297,2
307,297,309,294,2
307,297,307,292,2
306,300,307,294,2
306,304,306,298,2
306,309,305,303,2
306,314,304,307,2
307,316,303,310,2
307,317,302,311,2
306,313,301,310,2
305,309,301,309,2
304,308,301,310,2
304,312,302,312,2
303,318,303,315,2
304,321,304,318,2
307,323,307,320,2
310,325,310,321,2
312,325,312,320,2
313,323,313,317,2
313,320,313,315,2
312,315,313,313,2
311,311,312,311,2
311,306,311,310,2
311,304,311,310,2
311,306,310,309,2
311,308,310,307,2
310,310,310,306,2
309,307,310,307,2
308,302,310,307,2
307,294,309,309,2
305,289,310,310,2
304,289,312,312,2
303,292,312,312,2
302,295,311,311,2
302,297,310,309,2
302,301,308,307,2
302,304,307,306,2
303,301,305,305,2
304,294,302,304,2
304,287,298,303,2
303,284,294,301,2
303,284,291,299,2
303,288,289,297,2
303,294,288,294,2
303,300,291,290,2
304,305,295,287,2
306,308,300,286,2
307,306,304,289,2
307,304,307,293,2
305,305,309,298,2
304,307,309,304,2
303,310,308,308,2
303,313,307,310,2
304,313,307,310,2
304,312,310,310,2
306,315,312,311,2
307,320,314,314,2
309,326,315,317,2
312,329,318,320,2
313,329,319,321,2
314,325,319,321,2
313,316,317,318,2
311,309,316,316,2
309,306,314,313,2
308,307,311,311,2
307,307,307,309,2
306,307,303,306,2
304,307,300,304,2
303,306,299,302,2
303,307,299,302,2
303,309,301,304,2
303,311,303,306,2
305,314,304,309,2
307,318,305,312,2
310,324,306,313,2
311,330,304,314,2
311,332,303,314,2
310,329,300,313,2
308,320,298,313,2
306,311,296,312,2
306,307,295,309,2
305,308,295,305,2
306,306,295,302,2
306,302,297,300,2
306,296,300,299,2
304,291,302,300,2
303,290,304,302,2
302,293,306,305,2
302,298,306,305,2
302,303,305,303,2
303,303,304,299,2
304,298,303,296,2
303,290,303,293,2
303,284,305,293,2
304,286,308,294,2
304,291,311,296,2
305,299,312,300,2
306,307,313,304,2
307,312,312,311,2
308,314,311,317,2
308,313,310,322,2
308,312,309,324,2
308,308,308,324,2
308,304,307,322,2
307,301,305,318,2
306,300,304,314,2
306,302,303,310,2
307,306,304,308,2
308,308,304,306,2
308,307,304,305,2
308,308,303,304,2
308,312,303,304,2
308,318,301,307,2
308,322,300,311,2
307,326,298,315,2
307,326,297,317,2
307,325,296,316,2
306,323,296,316,2
307,320,295,315,2
307,318,295,314,2
307,314,296,313,2
307,310,298,312,2
307,305,303,310,2
307,298,306,308,2
306,292,308,306,2
305,289,310,304,2
304,293,311,301,2
304,301,311,299,2
305,310,312,298,2
305,316,313,300,2
306,318,312,303,2
305,317,312,307,2
304,312,312,312,2
303,304,313,316,2
304,294,314,320,2
305,283,314,324,2
305,276,313,326,2
306,276,314,327,2
307,279,315,325,2
308,283,314,320,2
307,284,314,315,2
307,281,313,312,2
307,280,313,310,2
307,284,312,310,2
308,290,311,310,2
310,297,310,310,2
312,303,309,310,2
313,310,306,308,2
313,321,304,305,2
310,332,301,303,2
307,340,299,302,2
304,343,297,302,2
301,340,295,303,2
300,330,295,304,2
300,318,297,306,2
300,311,300,305,2
301,309,303,303,2
301,308,304,299,2
301,305,304,297,2
302,302,304,297,2
303,300,304,298,2
305,301,305,301,2
307,306,308,305,2
309,316,310,307,2
310,324,311,305,2
310,329,311,302,2
309,332,310,297,2
307,333,310,296,2
305,334,309,297,2
303,333,310,301,2
301,330,310,305,2
301,327,310,309,2
300,325,309,310,2
301,323,309,308,2
301,320,308,306,2
301,314,308,305,2
300,305,308,304,2
300,292,307,306,2
301,280,306,309,2
301,275,305,313,2
302,278,305,315,2
304,287,304,315,2
305,298,303,314,2
306,309,302,313,2
307,316,303,312,2
309,318,304,311,2
309,316,304,309,2
307,312,305,304,2
305,307,304,300,2
303,302,303,296,2
301,300,301,293,2
300,302,299,294,2
299,307,299,296,2
299,311,299,299,2
300,313,301,303,2
301,314,304,304,2
301,312,307,305,2
302,310,309,305,2
303,307,309,306,2
303,303,308,306,2
303,297,306,305,2
303,291,305,304,2
304,289,304,303,2
304,292,304,302,2
305,298,304,301,2
306,302,303,300,2
305,303,303,301,2
304,300,305,304,2
303,294,309,306,2
302,290,314,308,2
302,289,318,308,2
303,293,320,306,2
303,298,319,303,2
303,304,315,299,2
303,312,311,297,2
303,320,308,298,2
304,323,305,301,2
305,319,305,304,2
306,308,305,307,2
306,293,305,311,2
306,281,305,313,2
306,279,305,314,2
305,281,304,313,2
305,284,304,311,2
304,286,303,309,2
304,289,303,308,2
304,295,303,308,2
303,305,304,309,2
304,316,305,312,2
305,326,306,315,2
306,335,306,318,2
307,342,305,320,2
308,344,306,321,2
309,344,306,321,2
309,341,307,320,2
310,339,307,318,2
309,337,308,317,2
310,337,309,315,2
311,338,311,314,2
312,340,313,314,2
313,338,314,313,2
313,330,314,312,2
313,316,314,311,2
312,298,313,310,2
311,281,312,307,2
311,270,312,304,2
310,267,311,303,2
308,268,310,303,2
305,267,308,304,2
303,265,306,307,2
301,261,305,310,2
301,258,305,314,2
301,260,304,314,2
301,266,303,314,2
302,273,302,312,2
302,280,302,309,2
303,285,304,307,2
304,289,306,305,2
306,299,308,302,2
308,314,310,299,2
309,329,310,296,2
308,334,310,295,2
306,327,309,292,2
303,313,307,289,2
301,297,306,286,2
298,289,305,285,2
297,292,304,287,2
298,304,304,292,2
299,316,304,300,2
300,325,304,309,2
301,331,305,317,2
302,334,306,321,2
304,335,307,323,2
306,338,309,323,2
308,340,311,321,2
309,340,310,319,2
309,338,309,317,2
309,334,308,315,2
308,328,308,313,2
307,322,308,311,2
307,318,309,310,2
307,312,310,309,2
308,307,311,310,2
308,307,311,308,2
306,306,310,304,2
305,304,306,301,2
303,298,303,300,2
301,290,300,300,2
300,284,300,302,2
300,286,302,306,2
302,293,304,311,2
304,302,308,314,2
307,309,311,315,2
308,313,312,314,2
309,315,313,312,2
309,316,314,310,2
309,311,315,309,2
307,299,316,310,2
306,281,317,311,2
304,265,316,312,2
303,258,315,312,2
303,262,313,312,2
304,272,312,312,2
304,287,311,311,2
305,303,310,309,2
305,317,310,307,2
305,330,310,305,2
305,335,309,302,2
303,333,308,299,2
301,321,308,296,2
299,308,307,295,2
298,300,306,294,2
298,298,305,296,2
298,304,304,299,2
298,311,303,302,2
299,315,302,304,2
300,317,303,304,2
301,319,304,303,2
303,320,304,303,2
305,321,304,303,2
306,320,303,304,2
307,319,303,307,2
308,318,302,310,2
307,316,302,313,2
306,313,302,315,2
306,310,302,315,2
305,307,303,315,2
304,302,304,314,2
302,295,306,313,2
300,287,309,312,2
299,281,311,310,2
298,279,312,307,2
296,280,311,303,2
295,283,311,300,2
296,290,311,300,2
297,292,310,303,2
298,288,309,308,2
298,278,307,313,2
299,266,306,318,2
301,259,306,320,2
303,263,307,320,2
306,273,307,316,2
307,287,307,311,2
308,302,304,303,2
309,314,301,294,2
310,323,299,288,2
312,332,298,287,2
315,344,298,291,2
317,354,298,297,2
318,359,298,305,2
317,360,299,312,2
316,359,302,316,2
313,355,305,316,2
311,350,307,315,2
309,343,309,313,2
307,337,310,312,2
306,331,309,312,2
305,326,309,312,2
304,322,307,312,2
303,318,306,311,2
303,315,304,310,2
302,313,303,309,2
302,310,304,307,2
302,305,305,306,2
302,300,305,304,2
301,294,306,302,2
300,288,307,300,2
299,285,307,299,2
298,283,308,298,2
297,280,310,299,2
297,275,312,302,2
299,272,313,306,2
301,275,313,310,2
303,282,314,313,2
304,290,314,314,2
305,292,314,315,2
306,285,312,315,2
305,270,311,315,2
305,254,311,314,2
306,246,312,314,2
307,252,314,313,2
308,273,314,311,2
309,299,313,309,2
309,320,311,307,2
308,335,310,307,2
307,344,309,307,2
306,348,309,307,2
306,346,309,308,2
306,341,309,310,2
306,331,308,311,2
305,318,308,312,2
304,307,310,313,2
304,302,313,313,2
304,303,314,311,2
303,307,315,307,2
303,313,314,301,2
302,319,313,292,2
303,324,311,283,2
303,328,311,276,2
304,329,310,273,2
305,328,309,274,2
306,328,309,282,2
307,327,309,291,2
308,325,308,301,2
310,324,306,308,2
310,323,305,312,2
309,323,304,314,2
309,320,304,314,2
308,312,304,315,2
305,298,304,315,2
302,284,302,313,2
300,275,300,311,2
298,273,296,307,2
297,279,294,304,2
299,286,294,304,2
301,294,296,304,2
303,302,300,306,2
306,309,303,308,2
309,317,307,308,2
311,323,311,308,2
313,327,314,309,2
314,329,316,310,2
314,328,317,311,2
314,327,317,312,2
313,326,316,314,2
312,324,315,315,2
311,320,313,317,2
310,316,312,319,2
308,310,311,321,2
306,305,311,324,2
304,301,312,324,2
303,299,313,324,2
303,295,314,323,2
303,286,314,322,2
304,273,315,320,2
304,260,315,317,2
304,251,314,314,2
304,249,313,311,2
304,255,312,310,2
306,267,311,309,2
307,283,312,310,2
310,299,314,310,2
311,311,316,311,2
312,320,316,311,2
312,327,315,310,2
313,331,312,310,2
314,330,310,310,2
313,327,306,309,2
312,328,302,307,2
312,333,300,306,2
313,343,300,306,2
315,353,301,307,2
319,360,304,309,2
325,363,308,312,2
330,360,312,314,2
333,350,315,315,2
333,334,315,315,2
330,316,313,314,2
326,300,312,314,2
323,292,311,313,2
320,293,311,312,2
316,302,311,311,2
312,312,312,310,2
309,322,312,310,2
304,329,313,310,2
300,332,313,310,2
297,333,312,310,2
295,332,311,310,2
293,332,310,310,2
292,329,309,310,2
291,321,307,310,2
289,309,305,310,2
288,293,304,310,2
288,277,304,311,2
288,264,305,312,2
290,255,308,313,2
291,253,310,314,2
293,261,312,314,2
296,275,313,314,2
298,289,313,313,2
301,300,313,313,2
304,307,315,312,2
307,312,317,312,2
310,313,320,312,2
313,313,322,312,2
316,312,320,312,2
317,313,316,310,2
316,313,312,307,2
312,314,308,303,2
308,315,305,300,2
304,317,305,298,2
301,318,304,295,2
299,315,303,293,2
296,305,302,291,2
294,291,301,291,2
293,282,301,291,2
293,285,301,292,2
295,296,302,294,2
295,310,304,298,2
296,323,305,303,2
297,331,305,307,2
298,334,304,308,2
299,334,304,308,2
299,331,305,307,2
299,329,306,305,2
299,326,306,304,2
300,321,307,304,2
300,314,306,304,2
299,306,305,304,2
299,302,304,303,2
299,302,303,302,2
299,304,304,302,2
301,306,307,302,2
302,305,310,302,2
304,303,312,302,2
304,299,312,305,2
306,299,312,310,2
307,300,311,316,2
308,304,310,321,2
309,309,308,324,2
309,315,307,326,2
309,318,306,325,2
307,316,304,322,2
305,308,303,319,2
302,298,302,316,2
301,290,302,314,2
301,288,302,314,2
301,290,302,313,2
302,293,302,314,2
304,298,303,313,2
304,306,305,312,2
305,315,306,310,2
306,322,306,308,2
306,326,305,306,2
305,326,303,305,2
303,323,300,305,2
302,318,300,305,2
302,310,301,308,2
303,300,302,311,2
306,290,303,314,2
307,284,305,316,2
309,283,307,318,2
310,285,309,318,2
311,289,310,317,2
312,294,310,317,2
311,297,309,317,2
312,305,309,317,2
312,318,309,318,2
312,327,309,318,2
310,329,308,317,2
307,322,309,316,2
304,312,310,316,2
303,303,312,315,2
302,297,313,315,2
302,296,313,313,2
303,300,313,311,2
303,309,311,308,2
303,320,310,306,2
304,330,310,304,2
305,337,311,303,2
306,339,312,304,2
306,338,313,304,2
306,335,312,306,2
307,331,311,307,2
307,327,308,308,2
308,324,306,309,2
308,322,304,309,2
308,321,304,307,2
307,320,305,306,2
306,317,307,305,2
305,312,308,306,2
303,302,307,308,2
301,289,307,310,2
300,276,306,311,2
299,267,306,308,2
298,269,304,302,2
298,279,301,294,2
300,293,298,287,2
304,307,297,285,2
309,318,299,287,2
313,324,301,292,2
316,325,304,298,2
316,322,305,304,2
314,318,303,305,2
310,315,302,304,2
306,311,300,302,2
303,303,300,302,2
300,289,299,301,2
297,270,298,302,2
295,253,298,303,2
295,248,298,305,2
296,257,301,309,2
299,275,304,313,2
303,291,308,317,2
305,303,310,320,2
307,308,312,323,2
308,311,313,325,2
309,312,313,325,2
309,311,311,324,2
309,313,309,321,2
309,319,305,316,2
308,325,301,311,2
308,325,297,307,2
308,320,295,305,2
306,314,294,304,2
306,312,295,305,2
307,314,298,307,2
307,319,303,311,2
308,326,306,313,2
308,333,309,312,2
309,341,309,308,2
310,348,309,304,2
312,354,309,301,2
314,358,310,301,2
315,358,312,304,2
316,351,314,310,2
315,336,316,315,2
311,316,316,320,2
307,298,314,321,2
304,285,313,319,2
302,277,311,315,2
302,272,310,310,2
303,266,309,305,2
304,259,307,299,2
305,254,305,295,2
305,255,304,293,2
305,260,302,295,2
306,270,300,298,2
307,286,299,304,2
309,305,300,308,2
310,324,301,311,2
311,340,301,312,2
312,352,301,312,2
313,359,302,313,2
314,362,303,314,2
315,362,305,313,2
315,361,307,310,2
316,357,309,308,2
316,348,311,307,2
315,335,313,307,2
313,318,315,308,2
312,298,318,312,2
312,279,321,316,2
311,264,322,319,2
310,255,321,319,2
310,254,317,317,2
309,261,311,312,2
307,274,305,308,2
306,286,301,305,2
305,294,297,303,2
304,298,295,302,2
305,303,295,303,2
306,309,295,302,2
307,316,294,300,2
307,323,293,298,2
307,328,293,297,2
306,332,296,297,2
306,332,300,298,2
306,331,305,300,2
307,328,309,301,2
307,321,310,301,2
307,312,309,300,2
306,304,308,298,2
305,300,306,294,2
305,303,305,291,2
306,309,304,289,2
306,312,302,287,2
306,313,298,285,2
304,312,295,287,2
303,308,294,292,2
303,302,295,299,2
303,296,296,305,2
304,288,296,308,2
305,281,297,309,2
307,276,297,308,2
308,274,297,306,2
309,277,299,303,2
311,286,300,302,2
312,295,301,303,2
312,304,301,304,2
310,314,299,307,2
308,323,298,310,2
307,330,297,313,2
306,332,296,315,2
306,332,297,317,2
306,331,298,318,2
307,332,299,317,2
307,333,300,317,2
308,335,301,317,2
308,335,302,316,2
308,333,303,315,2
307,328,304,313,2
306,322,305,310,2
305,318,306,306,2
304,315,306,304,2
303,312,306,304,2
303,305,307,307,2
303,300,308,311,2
304,299,309,313,2
304,302,310,314,2
305,304,310,315,2
307,304,311,315,2
308,303,311,316,2
309,302,310,316,2
309,302,310,315,2
310,304,309,315,2
311,306,309,315,2
311,307,309,315,2
310,308,309,316,2
309,308,308,318,2
309,308,307,320,2
308,308,305,321,2
307,310,302,321,2
307,314,300,319,2
307,315,298,316,2
305,313,296,311,2
303,301,295,307,2
300,281,295,303,2
299,255,297,302,2
298,230,300,303,2
298,216,303,304,2
298,219,304,304,2
299,236,305,305,2
302,264,305,305,2
305,296,306,303,2
308,326,307,302,2
310,349,308,302,2
313,363,309,302,2
313,367,310,303,2
313,366,310,303,2
312,360,310,304,2
310,354,309,303,2
309,348,310,302,2
308,340,310,303,2
307,331,310,306,2
308,320,310,310,2
308,310,310,314,2
309,301,310,316,2
309,292,309,318,2
308,291,307,318,2
307,297,306,318,2
307,304,304,317,2
307,306,304,317,2
307,303,304,316,2
308,298,303,312,2
308,293,301,306,2
307,290,298,298,2
306,291,296,293,2
306,295,295,290,2
305,301,296,290,2
306,307,298,291,2
306,311,301,292,2
306,313,304,292,2
306,314,306,292,2
306,315,307,294,2
306,314,307,299,2
306,314,307,304,2
308,314,307,308,2
310,311,309,310,2
310,303,311,310,2
311,291,314,310,2
310,275,316,311,2
310,262,319,313,2
310,256,322,314,2
311,261,325,314,2
312,273,326,313,2
313,288,325,312,2
312,301,323,311,2
311,307,319,310,2
309,307,315,309,2
305,307,312,309,2
303,315,309,309,2
302,327,307,310,2
303,337,306,310,2
303,344,307,311,2
305,345,307,311,2
306,340,307,311,2
306,329,307,310,2
305,319,308,308,2
305,312,310,309,2
305,310,312,309,2
305,308,313,310,2
306,306,316,312,2
307,304,318,314,2
308,301,320,314,2
309,299,320,313,2
309,299,318,312,2
308,300,314,311,2
306,301,309,310,2
305,303,305,310,2
304,308,303,311,2
304,311,301,310,2
304,313,301,310,2
305,313,300,308,2
305,313,300,307,2
305,313,300,307,2
304,314,300,308,2
304,314,301,311,2
303,311,301,313,2
302,301,301,314,2
301,288,301,314,2
301,275,301,314,2
301,266,302,312,2
300,266,302,310,2
300,271,301,306,2
299,280,300,303,2
300,289,299,300,2
300,296,297,298,2
300,296,297,297,2
300,290,297,295,2
300,283,298,293,2
300,274,298,293,2
300,266,298,294,2
300,261,298,297,2
301,261,299,300,2
303,267,301,305,2
307,278,305,310,2
311,290,309,313,2
315,300,312,313,2
317,310,312,312,2
317,316,312,312,2
317,321,310,313,2
317,322,309,314,2
316,320,309,314,2
315,318,309,314,2
315,318,309,313,2
314,318,308,312,2
313,317,307,311,2
313,315,306,310,2
312,312,306,310,2
312,310,305,310,2
311,314,304,309,2
308,319,304,306,2
304,323,303,300,2
300,323,303,293,2
296,318,302,286,2
293,309,302,281,2
292,302,302,279,2
292,298,301,281,2
294,296,302,287,2
298,294,302,295,2
302,294,304,303,2
305,298,305,311,2
308,305,306,318,2
309,312,307,322,2
309,317,308,324,2
308,318,308,324,2
306,317,307,321,2
304,313,305,316,2
303,307,304,314,2
301,302,305,314,2
300,297,307,315,2
298,292,309,317,2
297,287,311,318,2
297,280,311,318,2
297,275,311,316,2
298,276,309,312,2
300,284,308,307,2
303,295,308,303,2
306,307,307,299,2
307,314,305,296,2
308,315,304,295,2
308,310,303,298,2
307,304,303,303,2
308,300,306,311,2
310,299,309,318,2
312,304,311,320,2
312,310,311,318,2
311,314,309,313,2
308,315,308,308,2
306,315,307,305,2
306,317,307,306,2
306,319,307,308,2
306,321,307,310,2
305,323,306,310,2
304,323,304,309,2
304,321,303,308,2
304,320,302,306,2
305,317,302,302,2
305,312,301,297,2
305,304,299,294,2
304,300,297,294,2
304,299,296,296,2
305,300,295,300,2
307,301,296,305,2
308,302,297,309,2
309,306,299,312,2
309,309,301,313,2
308,310,302,314,2
308,308,304,314,2
307,306,307,316,2
305,304,310,316,2
305,308,314,317,2
306,317,318,317,2
307,324,321,317,2
307,327,322,318,2
307,322,322,318,2
306,311,320,317,2
304,293,319,315,2
304,275,318,314,2
304,261,318,312,2
303,258,316,310,2
303,263,315,308,2
302,274,315,305,2
302,286,315,301,2
300,297,315,295,2
299,308,313,287,2
297,318,310,279,2
296,327,305,274,2
295,331,300,274,2
295,334,296,279,2
295,333,293,287,2
296,330,292,297,2
297,326,292,305,2
299,321,294,310,2
300,316,296,312,2
301,313,299,313,2
302,311,301,312,2
302,311,303,311,2
303,310,305,312,2
303,305,307,315,2
304,300,308,320,2
305,293,310,325,2
307,285,310,327,2
307,279,310,325,2
306,278,309,320,2
305,281,309,314,2
305,288,307,306,2
306,297,305,300,2
307,304,304,294,2
306,310,303,291,2
305,313,302,289,2
304,315,301,288,2
303,317,300,285,2
302,320,300,285,2
302,322,301,285,2
302,323,300,286,2
302,320,300,290,2
304,313,300,295,2
305,303,302,302,2
306,295,304,309,2
307,291,306,313,2
307,289,308,315,2
308,287,309,314,2
308,287,310,310,2
307,291,310,304,2
306,297,308,296,2
305,303,307,292,2
304,307,304,290,2
304,309,301,292,2
304,309,298,298,2
304,306,294,305,2
304,303,292,312,2
304,299,292,316,2
304,294,293,320,2
304,286,295,322,2
304,278,297,325,2
305,278,300,327,2
307,290,302,328,2
310,311,305,326,2
313,329,306,321,2
314,340,305,316,2
314,343,303,312,2
313,339,301,312,2
311,328,301,314,2
307,316,301,317,2
303,304,301,319,2
300,297,302,320,2
299,297,302,320,2
300,302,303,319,2
302,309,305,317,2
304,314,306,312,2
304,318,307,307,2
305,322,306,303,2
306,326,305,300,2
307,330,304,301,2
309,331,303,304,2
310,329,303,309,2
310,321,304,313,2
309,306,307,317,2
306,291,310,318,2
304,282,314,318,2
303,280,317,318,2
304,280,318,317,2
304,279,318,317,2
304,278,316,318,2
303,280,313,319,2
302,290,311,319,2
302,304,308,320,2
303,317,307,320,2
303,326,306,320,2
305,333,307,320,2
306,338,309,319,2
307,342,310,317,2
307,344,312,315,2
307,344,312,313,2
307,342,311,312,2
307,340,309,311,2
308,338,307,311,2
309,335,306,311,2
310,330,306,311,2
311,321,307,310,2
310,310,306,309,2
308,296,305,308,2
305,283,303,307,2
303,272,303,305,2
302,263,303,304,2
301,257,303,304,2
299,254,303,302,2
298,252,303,300,2
297,252,303,299,2
298,257,304,299,2
299,266,304,299,2
300,272,303,298,2
301,275,301,297,2
301,281,299,296,2
301,287,296,295,2
301,293,294,297,2
303,295,292,300,2
304,296,293,303,2
306,297,294,307,2
306,300,298,309,2
308,304,301,309,2
309,309,304,306,2
310,314,304,302,2
310,319,305,298,2
309,320,304,295,2
308,321,303,294,2
307,320,301,294,2
307,320,300,296,2
307,322,299,298,2
307,327,298,300,2
308,335,299,303,2
309,339,300,308,2
310,340,302,312,2
311,337,304,316,2
311,329,305,318,2
310,319,305,317,2
309,306,304,314,2
308,296,303,310,2
307,290,302,306,2
306,290,302,303,2
305,297,302,299,2
305,308,303,297,2
306,320,304,295,2
308,326,306,294,2
308,327,308,294,2
308,324,311,297,2
307,318,314,302,2
306,309,317,308,2
305,300,318,312,2
304,292,317,312,2
303,288,315,310,2
303,290,313,306,2
302,296,311,302,2
302,303,309,301,2
302,307,307,302,2
303,308,305,305,2
304,304,303,309,2
305,295,301,312,2
304,285,300,313,2
304,278,301,314,2
303,275,301,313,2
303,275,303,313,2
305,286,305,313,2
307,304,308,312,2
310,320,309,310,2
311,327,311,307,2
311,327,311,304,2
309,322,309,300,2
307,316,308,295,2
305,311,307,294,2
305,305,307,296,2
305,298,308,302,2
306,291,308,309,2
305,284,309,313,2
305,279,309,315,2
305,278,310,315,2
307,284,313,315,2
310,293,315,316,2
313,298,315,316,2
314,298,314,316,2
314,294,312,315,2
312,293,309,312,2
310,298,308,308,2
307,309,306,303,2
305,323,304,299,2
304,339,304,296,2
304,352,303,296,2
304,359,303,297,2
303,360,303,299,2
303,356,304,302,2
302,349,305,303,2
302,341,307,303,2
302,334,308,304,2
302,326,308,307,2
302,317,308,313,2
303,308,308,319,2
304,302,308,322,2
306,299,309,323,2
307,298,310,321,2
309,297,311,319,2
309,295,311,317,2
308,292,310,315,2
307,288,309,312,2
305,286,308,309,2
304,288,306,307,2
304,291,304,305,2
304,296,303,303,2
304,306,302,301,2
303,316,302,301,2
303,323,302,302,2
304,326,302,303,2
304,328,301,303,2
303,327,302,303,2
303,324,304,302,2
302,321,307,301,2
302,317,311,301,2
303,315,313,303,2
303,315,314,303,2
304,317,313,301,2
304,318,310,297,2
304,315,308,293,2
304,307,306,291,2
305,297,306,294,2
305,288,307,299,2
305,283,309,306,2
305,281,309,313,2
304,283,308,317,2
302,286,307,320,2
302,289,306,321,2
302,291,306,321,2
303,295,305,320,2
306,299,305,319,2
308,302,305,317,2
310,303,305,316,2
310,305,306,313,2
310,308,306,310,2
309,310,305,306,2
308,312,305,302,2
307,313,305,297,2
307,315,305,291,2
306,314,303,287,2
305,308,300,286,2
304,298,296,286,2
302,289,291,289,2
301,284,287,296,2
302,287,286,304,2
305,292,287,312,2
307,294,289,318,2
308,297,293,320,2
309,305,298,320,2
308,318,302,320,2
306,328,306,320,2
305,335,311,320,2
304,335,314,319,2
304,332,315,317,2
303,326,315,315,2
303,318,315,312,2
303,308,316,311,2
303,296,316,311,2
305,289,317,312,2
307,290,317,314,2
309,297,317,314,2
310,306,316,314,2
310,314,316,311,2
310,320,315,307,2
309,324,313,302,2
307,326,310,298,2
306,322,308,296,2
306,314,306,297,2
305,309,305,301,2
305,309,304,307,2
305,316,303,313,2
305,322,302,317,2
305,324,301,319,2
305,322,301,319,2
304,318,301,317,2
303,312,302,312,2
302,305,304,309,2
302,299,307,306,2
302,293,311,305,2
302,283,315,307,2
302,270,317,312,2
303,258,318,316,2
303,254,318,320,2
304,261,316,321,2
304,275,311,319,2
302,290,305,316,2
301,303,300,314,2
300,314,298,313,2
300,320,298,313,2
300,323,299,313,2
302,323,299,312,2
303,322,299,309,2
304,320,298,305,2
304,318,297,299,2
303,317,296,294,2
303,317,296,291,2
304,322,297,292,2
306,327,299,297,2
308,332,301,304,2
310,335,303,311,2
311,338,304,315,2
311,336,305,316,2
311,330,305,316,2
311,318,305,315,2
310,304,305,313,2
310,294,305,313,2
310,291,306,312,2
311,292,307,311,2
311,296,307,311,2
310,297,307,311,2
308,298,306,312,2
305,297,305,312,2
302,294,305,312,2
300,290,305,311,2
298,290,306,309,2
297,290,306,306,2
296,290,306,302,2
296,292,306,299,2
297,294,307,297,2
296,293,307,297,2
295,287,307,299,2
294,281,308,303,2
295,278,309,307,2
296,280,309,309,2
297,286,307,309,2
298,294,306,306,2
298,304,304,302,2
299,313,303,300,2
299,317,303,301,2
299,314,301,305,2
299,311,300,311,2
300,310,300,317,2
301,313,300,320,2
302,316,301,321,2
303,317,303,320,2
303,315,304,317,2
303,312,305,313,2
302,310,305,308,2
302,311,306,305,2
302,314,306,304,2
303,320,307,304,2
305,325,308,306,2
306,327,309,308,2
306,328,309,309,2
306,329,309,308,2
305,328,308,307,2
305,325,306,305,2
304,320,306,303,2
304,314,307,301,2
304,306,310,299,2
305,300,310,299,2
305,300,310,300,2
306,303,311,302,2
307,305,313,307,2
309,308,314,313,2
309,309,314,317,2
309,311,312,318,2
308,314,311,316,2
307,318,308,315,2
306,322,305,314,2
305,324,303,313,2
305,323,301,313,2
305,320,301,314,2
305,316,300,314,2
304,311,300,313,2
303,300,300,312,2
301,281,299,312,2
299,254,300,313,2
297,230,302,316,2
296,221,304,320,2
296,232,307,323,2
298,257,309,324,2
300,281,309,324,2
303,297,310,323,2
306,305,309,322,2
309,309,309,321,2
312,311,308,320,2
314,314,307,318,2
314,320,306,316,2
314,327,305,314,2
313,334,304,310,2
311,338,303,307,2
309,340,302,303,2
307,338,302,299,2
305,336,301,296,2
303,333,300,294,2
303,332,300,292,2
303,329,300,292,2
302,327,298,293,2
302,326,298,296,2
303,322,299,302,2
305,313,301,309,2
306,302,305,315,2
307,289,309,319,2
307,281,311,321,2
307,276,312,321,2
308,276,313,319,2
309,279,313,317,2
308,283,312,315,2
307,289,310,313,2
306,298,307,308,2
306,307,305,303,2
306,315,303,297,2
307,320,303,293,2
307,321,302,293,2
307,320,303,296,2
305,317,303,303,2
303,313,303,310,2
302,309,304,316,2
302,307,303,317,2
301,303,303,313,2
301,297,302,309,2
300,288,301,305,2
300,280,300,304,2
300,277,300,306,2
302,284,300,309,2
304,293,300,312,2
306,302,300,313,2
306,308,301,313,2
306,313,301,311,2
306,316,303,310,2
306,316,304,309,2
307,311,304,308,2
307,301,305,307,2
306,290,306,305,2
305,283,307,303,2
303,287,309,302,2
303,296,310,301,2
303,305,312,300,2
303,311,313,299,2
303,314,312,295,2
302,310,310,291,2
300,302,306,288,2
299,295,303,287,2
299,294,301,291,2
300,299,298,297,2
302,305,297,303,2
304,310,297,310,2
306,314,298,314,2
307,319,299,315,2
309,325,302,313,2
310,331,304,311,2
311,334,306,308,2
311,329,307,306,2
310,321,306,306,2
308,314,304,307,2
305,307,303,307,2
303,304,302,309,2
302,307,302,311,2
302,315,302,312,2
302,323,304,313,2
302,326,305,313,2
302,325,305,313,2
302,319,305,311,2
303,311,306,310,2
304,302,306,310,2
305,294,305,310,2
306,290,305,311,2
306,289,304,311,2
307,288,303,311,2
307,285,303,310,2
306,278,304,309,2
304,267,303,308,2
303,254,303,307,2
301,245,303,306,2
300,247,303,305,2
299,262,303,303,2
299,281,303,300,2
300,296,304,297,2
302,306,304,296,2
304,308,305,298,2
306,304,306,302,2
307,292,307,309,2
307,282,307,315,2
306,280,305,320,2
305,290,303,320,2
306,309,302,318,2
307,329,303,314,2
308,345,304,309,2
309,354,306,305,2
309,358,307,304,2
309,359,306,305,2
308,356,306,307,2
308,352,306,310,2
307,351,307,313,2
308,351,308,314,2
309,353,309,314,2
310,354,309,314,2
310,353,309,313,2
310,349,308,313,2
310,341,308,312,2
310,329,308,312,2
310,315,307,312,2
310,303,306,312,2
309,296,305,312,2
307,295,304,312,2
305,296,302,312,2
302,297,301,311,2
300,296,300,310,2
299,294,300,309,2
298,289,302,308,2
298,282,304,309,2
299,274,307,309,2
300,268,310,310,2
300,266,313,310,2
300,266,316,310,2
300,267,316,309,2
300,265,314,307,2
299,264,311,305,2
298,261,307,303,2
298,259,304,302,2
298,258,302,300,2
298,261,302,297,2
299,266,303,293,2
300,280,306,287,2
302,295,308,284,2
303,305,310,284,2
304,308,311,287,2
303,306,311,291,2
301,306,308,294,2
300,313,306,296,2
300,327,304,298,2
301,342,302,300,2
302,353,300,302,2
303,359,298,303,2
303,361,297,301,2
303,360,297,298,2
303,357,298,295,2
303,353,299,295,2
303,348,301,298,2
303,343,303,303,2
303,337,305,308,2
304,332,307,313,2
304,328,309,317,2
304,322,310,319,2
305,316,311,320,2
305,310,311,320,2
305,305,310,319,2
305,301,310,319,2
305,299,310,319,2
305,298,310,319,2
305,298,311,318,2
305,296,311,315,2
305,294,311,312,2
305,292,310,310,2
305,294,309,309,2
305,298,308,309,2
306,302,307,310,2
307,307,306,309,2
307,311,305,310,2
307,313,304,309,2
307,312,304,309,2
307,310,304,309,2
306,308,304,309,2
306,306,303,309,2
306,301,303,308,2
306,292,303,306,2
305,280,305,304,2
305,268,310,305,2
306,260,317,307,2
309,258,324,312,2
312,260,328,314,2
312,260,328,314,2
310,255,325,313,2
308,248,319,310,2
306,248,313,301,2
304,256,306,289,2
302,272,298,276,2
301,296,293,267,2
302,324,290,263,2
304,347,289,262,2
305,360,287,265,2
304,366,287,270,2
302,367,288,278,2
302,364,290,289,2
303,359,293,302,2
305,355,295,316,2
309,353,296,327,2
312,352,297,334,2
313,348,297,336,2
314,344,297,334,2
314,340,297,330,2
313,336,298,323,2
311,332,298,319,2
310,329,299,316,2
309,327,301,314,2
308,325,304,314,2
309,324,308,314,2
308,322,312,314,2
308,321,314,314,2
306,319,315,314,2
305,319,315,314,2
305,317,315,313,2
304,315,314,312,2
304,312,314,311,2
304,307,314,310,2
304,302,314,310,2
305,295,314,309,2
304,284,313,308,2
304,269,312,308,2
304,253,311,308,2
304,242,309,307,2
303,242,307,305,2
303,253,303,302,2
303,266,298,300,2
303,280,295,299,2
304,293,293,299,2
305,308,293,301,2
306,319,295,303,2
306,323,298,305,2
307,322,300,306,2
307,319,302,306,2
306,317,304,306,2
306,319,307,305,2
308,325,308,305,2
309,330,309,305,2
309,333,309,305,2
310,334,309,304,2
310,333,309,304,2
311,332,309,304,2
311,331,309,304,2
311,328,309,304,2
310,322,309,304,2
309,314,308,303,2
308,306,308,303,2
307,301,307,303,2
305,301,306,303,2
304,304,305,302,2
304,307,304,301,2
304,308,302,300,2
304,307,301,300,2
304,302,299,301,2
303,293,298,301,2
302,283,298,303,2
301,270,299,304,2
301,261,302,307,2
303,253,309,311,2
306,245,316,314,2
309,235,322,318,2
311,227,325,319,2
311,221,325,317,2
310,224,325,310,2
309,237,324,300,2
306,259,320,286,2
303,286,314,273,2
300,315,308,263,2
296,338,302,257,2
294,357,296,255,2
294,371,293,259,2
296,381,292,270,2
298,385,293,284,2
299,384,295,302,2
301,378,297,319,2
302,370,298,334,2
302,362,299,340,2
303,354,301,340,2
305,348,303,336,2
308,344,306,331,2
310,339,309,327,2
310,333,312,324,2
310,326,315,321,2
310,320,316,318,2
309,315,316,316,2
308,311,316,315,2
307,307,315,314,2
306,304,313,313,2
306,301,312,312,2
306,297,311,312,2
306,293,308,311,2
305,289,306,310,2
305,287,304,309,2
305,287,302,309,2
305,290,301,309,2
305,294,300,309,2
305,294,301,310,2
305,288,302,310,2
304,281,303,311,2
305,275,305,310,2
305,274,306,311,2
307,276,306,311,2
309,281,307,310,2
310,286,307,310,2
311,289,308,311,2
311,291,309,313,2
309,292,309,313,2
307,297,308,312,2
305,304,307,310,2
304,312,305,307,2
303,318,304,305,2
302,320,303,303,2
302,319,303,301,2
302,318,304,299,2
301,317,304,298,2
302,319,306,301,2
303,324,308,304,2
304,328,310,308,2
305,331,310,311,2
305,331,310,312,2
306,328,310,312,2
305,323,309,311,2
305,317,308,310,2
304,310,306,309,2
303,302,303,307,2
302,294,301,306,2
302,288,299,307,2
302,286,300,308,2
303,289,301,308,2
303,297,302,308,2
305,309,304,308,2
305,317,305,308,2
305,318,306,307,2
303,313,307,305,2
302,305,308,301,2
299,301,308,295,2
297,302,307,286,2
295,306,305,279,2
296,310,303,276,2
297,313,302,278,2
299,311,302,286,2
299,307,300,296,2
300,303,298,305,2
300,298,297,311,2
301,293,296,312,2
301,290,295,310,2
303,289,293,310,2
304,292,292,310,2
304,296,290,312,2
304,300,289,313,2
304,303,289,313,2
303,302,290,312,2
303,299,292,309,2
303,293,294,306,2
303,289,298,304,2
305,287,301,305,2
306,284,305,308,2
308,280,308,311,2
309,275,309,314,2
309,273,309,316,2
310,279,308,316,2
311,290,307,314,2
312,303,307,312,2
313,316,307,309,2
314,328,307,307,2
313,336,307,305,2
313,339,307,307,2
312,338,308,310,2
311,335,309,312,2
311,333,311,315,2
311,331,313,315,2
311,329,315,314,2
310,327,316,313,2
308,322,316,312,2
306,310,315,311,2
303,293,314,310,2
300,274,313,309,2
298,256,312,308,2
298,244,312,309,2
300,244,313,311,2
303,251,313,314,2
306,261,313,316,2
308,275,313,317,2
310,290,313,317,2
312,309,311,316,2
313,329,310,314,2
313,348,308,310,2
313,362,306,308,2
314,370,308,306,2
316,372,311,305,2
317,367,314,306,2
318,357,314,308,2
317,344,312,308,2
315,330,310,309,2
314,319,309,310,2
311,314,307,309,2
308,315,305,307,2
305,318,303,305,2
304,321,302,304,2
303,318,301,303,2
301,309,301,302,2
299,299,301,303,2
298,290,301,303,2
297,283,303,304,2
296,279,306,304,2
297,274,309,305,2
297,268,312,304,2
297,263,316,302,2
297,265,319,300,2
298,272,321,298,2
300,282,322,299,2
302,295,321,299,2
303,307,317,298,2
304,317,313,295,2
304,323,310,292,2
304,323,308,290,2
305,319,308,291,2
305,313,308,296,2
306,307,308,301,2
306,298,307,303,2
304,286,305,303,2
302,273,302,299,2
300,266,301,296,2
300,264,300,295,2
302,263,301,298,2
305,266,302,304,2
308,275,305,312,2
311,287,308,319,2
313,299,310,323,2
313,314,312,326,2
313,331,313,326,2
312,346,314,325,2
311,358,314,323,2
309,366,314,321,2
309,367,315,318,2
310,364,317,317,2
311,356,321,316,2
311,347,323,316,2
311,340,322,315,2
311,332,318,313,2
311,322,312,310,2
309,313,307,308,2
308,305,304,306,2
306,298,303,305,2
305,295,304,304,2
304,297,306,304,2
304,300,308,304,2
304,304,309,303,2
304,309,309,302,2
304,313,308,301,2
304,317,306,301,2
305,321,304,302,2
306,325,302,304,2
307,326,302,306,2
308,324,302,308,2
310,321,303,310,2
311,318,304,311,2
312,315,304,311,2
312,314,305,311,2
313,315,305,311,2
314,317,305,310,2
314,316,305,310,2
313,312,304,310,2
313,305,304,310,2
311,295,304,310,2
309,286,303,309,2
308,277,301,308,2
307,268,299,309,2
306,263,298,309,2
306,262,297,309,2
306,269,296,308,2
307,282,295,306,2
307,296,294,304,2
308,311,292,301,2
308,322,292,300,2
308,327,294,299,2
307,319,297,299,2
305,304,301,297,2
303,288,304,296,2
302,277,308,295,2
302,275,311,295,2
303,280,313,293,2
304,287,314,289,2
304,295,314,286,2
304,303,314,286,2
303,309,315,292,2
304,317,315,301,2
305,329,315,311,2
307,342,314,320,2
308,353,311,325,2
310,359,309,326,2
311,358,307,325,2
311,352,306,323,2
310,339,306,321,2
308,319,307,317,2
306,297,308,314,2
305,277,310,312,2
306,265,311,310,2
307,262,312,310,2
308,269,312,311,2
310,278,311,311,2
311,287,311,310,2
311,296,309,307,2
311,304,307,302,2
310,312,306,299,2
309,317,306,297,2
309,317,306,298,2
309,316,304,302,2
310,315,303,307,2
311,314,302,312,2
312,315,301,315,2
313,318,301,316,2
313,322,301,317,2
313,325,303,317,2
312,323,304,318,2
312,315,306,318,2
311,299,307,319,2
311,278,308,320,2
310,255,309,320,2
310,236,309,320,2
310,225,310,319,2
309,222,310,318,2
310,230,309,317,2
310,247,308,315,2
310,269,307,313,2
310,292,305,311,2
308,312,304,309,2
308,328,303,308,2
307,340,304,308,2
308,346,306,308,2
308,347,309,307,2
308,349,310,307,2
307,351,310,306,2
307,353,308,305,2
306,354,307,305,2
304,350,306,306,2
302,342,305,306,2
300,330,306,306,2
299,319,307,306,2
298,309,309,306,2
300,302,311,308,2
303,298,313,310,2
306,299,314,311,2
308,305,313,311,2
308,311,310,311,2
308,314,306,309,2
307,317,302,307,2
306,319,300,305,2
306,322,299,304,2
306,324,300,303,2
308,324,299,303,2
308,324,300,304,2
308,322,301,304,2
308,318,302,303,2
307,311,301,300,2
305,304,301,295,2
304,299,301,292,2
304,292,302,292,2
304,286,304,295,2
305,282,307,299,2
307,283,308,304,2
308,286,309,307,2
309,287,309,310,2
310,290,309,313,2
311,294,308,315,2
312,300,306,318,2
311,305,305,321,2
309,307,305,323,2
307,305,304,322,2
305,300,304,318,2
303,290,304,312,2
302,277,304,305,2
301,266,303,299,2
300,265,302,294,2
301,271,301,294,2
303,282,302,299,2
305,294,304,306,2
306,301,307,312,2
306,304,310,317,2
306,306,313,319,2
305,311,314,319,2
305,317,315,317,2
304,324,313,314,2
304,330,311,310,2
304,332,308,306,2
303,331,306,303,2
303,328,304,301,2
303,325,304,301,2
303,325,304,305,2
304,324,306,309,2
305,322,307,312,2
306,321,309,314,2
307,321,310,315,2
308,321,312,314,2
309,322,312,313,2
309,322,311,311,2
308,321,310,308,2
306,322,310,306,2
305,322,311,304,2
305,318,312,303,2
304,307,313,303,2
304,291,314,303,2
303,273,316,304,2
303,261,319,306,2
303,261,321,307,2
305,268,322,309,2
306,276,321,312,2
308,283,318,314,2
308,289,314,314,2
308,296,310,312,2
306,305,306,309,2
304,312,303,307,2
302,317,303,306,2
302,319,305,307,2
302,319,307,308,2
302,322,309,308,2
302,324,308,307,2
302,322,306,304,2
302,315,304,302,2
302,306,302,300,2
302,298,302,298,2
302,297,303,297,2
304,301,304,297,2
306,307,306,299,2
307,311,308,303,2
308,314,310,306,2
309,314,312,309,2
310,314,315,311,2
311,313,318,312,2
311,312,320,311,2
310,308,320,311,2
309,302,318,310,2
307,294,315,310,2
305,286,312,309,2
304,288,308,308,2
303,299,305,307,2
304,313,303,307,2
306,325,302,309,2
308,332,302,312,2
310,335,302,313,2
310,336,302,312,2
310,335,302,308,2
310,333,302,304,2
309,329,301,301,2
307,325,300,300,2
306,320,299,303,2
306,315,298,307,2
307,309,298,312,2
307,302,298,315,2
305,294,298,315,2
304,285,299,315,2
303,278,301,314,2
303,273,303,313,2
303,271,306,313,2
304,271,308,313,2
305,273,311,312,2
306,276,313,308,2
305,280,313,301,2
304,287,312,295,2
303,295,309,291,2
302,300,307,291,2
302,301,305,294,2
302,299,304,299,2
303,297,305,303,2
305,298,306,306,2
307,302,307,309,2
309,307,308,312,2
310,312,308,315,2
309,319,309,316,2
309,327,309,316,2
308,332,309,314,2
307,332,309,311,2
306,327,309,307,2
306,319,308,305,2
305,314,309,304,2
306,315,309,305,2
306,317,307,307,2
308,317,305,311,2
309,311,305,313,2
312,305,305,315,2
314,301,307,315,2
315,302,308,313,2
315,306,309,311,2
313,311,310,307,2
310,315,309,304,2
307,321,306,301,2
305,330,303,297,2
304,338,302,296,2
305,341,304,295,2
306,339,306,296,2
306,335,307,297,2
304,326,309,297,2
302,313,310,297,2
298,300,308,297,2
295,288,306,297,2
294,280,303,299,2
294,278,302,302,2
296,281,303,306,2
300,288,304,309,2
303,295,306,312,2
306,302,308,314,2
309,309,310,316,2
310,317,311,317,2
310,323,311,318,2
309,328,310,320,2
308,331,310,321,2
307,333,309,322,2
307,334,309,321,2
307,334,309,318,2
307,331,309,313,2
307,324,309,307,2
306,313,308,303,2
304,304,309,301,2
303,300,309,301,2
303,302,309,304,2
303,307,310,307,2
303,312,311,309,2
304,314,311,309,2
305,314,312,309,2
306,314,313,307,2
306,314,315,306,2
307,312,314,304,2
306,306,313,303,2
304,295,310,303,2
302,281,308,304,2
301,268,308,307,2
301,259,311,312,2
303,255,314,317,2
305,257,316,319,2
306,265,317,319,2
308,277,316,316,2
308,291,313,310,2
306,304,310,303,2
304,314,306,296,2
303,319,304,291,2
301,321,302,289,2
301,321,302,291,2
301,318,301,295,2
301,314,301,300,2
302,309,301,306,2
303,304,303,309,2
305,301,306,312,2
307,301,309,313,2
308,305,311,312,2
309,312,313,313,2
310,317,314,314,2
310,320,314,315,2
310,322,313,315,2
309,324,312,316,2
308,326,311,316,2
307,327,309,315,2
306,327,308,316,2
306,326,307,316,2
307,324,307,316,2
307,321,308,316,2
307,319,308,316,2
306,319,308,315,2
306,318,309,313,2
306,317,310,312,2
307,316,312,310,2
308,317,315,308,2
308,317,318,305,2
309,315,321,303,2
309,309,322,302,2
309,297,321,303,2
308,286,319,305,2
309,281,316,307,2
310,287,313,310,2
310,299,310,312,2
309,310,307,313,2
308,314,304,312,2
306,312,303,311,2
304,306,302,309,2
302,299,302,307,2
301,292,303,305,2
301,288,304,304,2
302,285,305,303,2
303,279,305,303,2
303,269,305,302,2
303,259,305,301,2
303,254,307,298,2
305,260,308,296,2
306,277,309,295,2
308,298,310,296,2
311,316,311,300,2
313,328,310,304,2
315,334,309,308,2
316,334,308,311,2
317,333,308,311,2
317,332,308,310,2
317,331,308,307,2
315,329,308,305,2
312,326,308,303,2
308,324,309,302,2
305,323,309,301,2
303,321,310,299,2
302,319,310,299,2
301,315,310,299,2
302,310,310,301,2
302,305,310,303,2
303,300,311,305,2
303,297,310,306,2
305,299,310,307,2
305,302,310,307,2
306,305,310,307,2
307,307,311,308,2
307,306,312,308,2
307,304,312,309,2
306,302,312,309,2
305,298,311,308,2
303,296,308,307,2
302,295,305,305,2
302,296,302,303,2
302,296,296,301,2
302,294,291,297,2
301,289,285,293,2
300,280,281,287,2
298,273,279,280,2
297,273,278,273,2
297,280,281,269,2
298,291,287,268,2
300,300,293,269,2
302,303,299,273,2
304,303,305,280,2
304,301,310,290,2
305,301,316,304,2
307,304,320,316,2
308,306,323,325,2
308,304,324,329,2
308,301,324,328,2
307,300,322,324,2
305,305,320,318,2
305,316,317,310,2
304,327,314,304,2
304,338,311,299,2
304,346,309,297,2
305,353,308,297,2
307,359,307,301,2
309,362,307,307,2
312,363,308,313,2
313,359,310,319,2
314,349,311,323,2
314,335,313,326,2
313,322,313,326,2
312,311,314,324,2
310,305,314,321,2
309,303,314,319,2
307,301,313,318,2
306,298,313,317,2
305,292,313,316,2
304,287,313,315,2
304,283,315,315,2
304,281,316,315,2
303,282,314,315,2
303,283,312,316,2
305,284,311,317,2
306,284,310,317,2
307,282,310,317,2
307,279,311,315,2
307,276,312,314,2
308,272,313,314,2
309,269,313,312,2
309,269,310,310,2
309,271,307,308,2
307,276,304,304,2
304,281,302,302,2
302,289,300,301,2
301,299,299,300,2
301,309,298,301,2
302,319,299,303,2
303,329,300,304,2
305,337,301,304,2
307,342,301,304,2
308,347,301,304,2
310,351,302,303,2
311,354,303,302,2
312,355,306,300,2
311,356,307,298,2
309,356,308,298,2
307,354,308,299,2
305,350,309,301,2
305,342,310,303,2
304,330,309,304,2
302,319,308,302,2
300,311,307,300,2
299,309,305,297,2
300,311,304,296,2
301,313,302,297,2
301,314,302,301,2
302,312,301,306,2
302,310,300,311,2
302,308,300,314,2
302,305,300,314,2
301,302,301,313,2
302,298,303,312,2
302,293,306,311,2
303,288,309,310,2
304,282,310,310,2
303,275,310,308,2
303,269,309,308,2
304,264,310,309,2
306,262,311,311,2
307,264,310,312,2
307,272,307,311,2
305,284,305,310,2
304,297,303,309,2
304,308,302,308,2
304,314,303,306,2
304,314,303,302,2
303,312,303,296,2
300,310,302,290,2
298,311,302,288,2
298,312,303,290,2
300,314,304,297,2
303,316,306,305,2
306,318,308,313,2
308,320,309,315,2
309,324,309,311,2
309,329,310,304,2
310,332,310,296,2
309,334,309,290,2
307,331,308,285,2
306,327,306,283,2
305,323,306,285,2
305,320,306,290,2
305,319,308,297,2
307,319,310,306,2
307,320,310,315,2
307,320,310,323,2
306,317,310,327,2
306,314,310,328,2
307,310,310,327,2
307,308,310,324,2
308,305,311,321,2
308,303,311,318,2
307,300,311,315,2
306,295,312,313,2
305,290,311,312,2
305,286,311,312,2
305,283,310,313,2
306,282,309,313,2
306,281,307,312,2
307,282,305,311,2
308,287,304,310,2
308,294,303,307,2
309,305,303,306,2
308,313,303,306,2
308,319,303,307,2
308,320,304,309,2
308,318,306,311,2
308,314,308,313,2
309,311,310,315,2
309,312,311,316,2
310,316,311,316,2
310,321,310,316,2
309,324,310,315,2
307,327,310,314,2
306,329,308,311,2
305,330,306,307,2
304,329,305,301,2
303,324,304,297,2
302,315,303,295,2
301,304,301,295,2
301,296,301,299,2
301,294,301,304,2
301,296,302,309,2
302,299,303,314,2
303,299,304,316,2
303,297,305,317,2
302,293,304,316,2
300,287,303,314,2
298,282,302,313,2
298,281,303,314,2
299,285,305,316,2
301,293,307,319,2
305,301,310,321,2
307,308,313,321,2
309,312,316,320,2
310,312,318,317,2
309,311,320,314,2
309,308,322,311,2
308,302,322,308,2
307,297,320,305,2
306,296,316,304,2
305,300,311,303,2
304,306,308,304,2
304,310,304,305,2
303,308,302,307,2
302,304,302,309,2
302,299,302,311,2
302,297,305,314,2
303,298,307,315,2
304,301,307,315,2
304,308,305,314,2
304,315,302,312,2
304,322,300,312,2
304,328,298,312,2
305,331,297,312,2
306,334,297,312,2
307,333,298,312,2
308,332,300,311,2
309,330,303,311,2
310,327,306,311,2
309,324,309,311,2
308,319,310,311,2
306,309,311,310,2
303,298,310,309,2
300,287,309,307,2
299,279,307,303,2
297,281,305,298,2
297,289,304,292,2
298,300,304,287,2
299,307,304,285,2
299,310,304,286,2
299,309,305,290,2
298,304,305,298,2
298,294,305,304,2
298,283,306,308,2
299,278,307,311,2
301,284,306,311,2
303,297,306,313,2
305,313,305,316,2
308,326,305,319,2
310,336,305,322,2
311,340,305,324,2
311,340,304,324,2
310,337,304,322,2
308,334,302,319,2
305,331,301,317,2
304,328,300,315,2
303,325,301,313,2
303,322,302,312,2
303,317,304,311,2
302,310,306,311,2
301,302,308,310,2
301,294,311,307,2
302,291,314,304,2
304,295,314,301,2
305,306,312,299,2
306,318,310,298,2
307,326,309,301,2
308,329,308,304,2
308,329,308,307,2
307,325,307,309,2
307,321,304,308,2
305,316,301,305,2
305,312,298,302,2
305,309,295,300,2
306,305,292,297,2
305,298,292,295,2
303,290,292,294,2
300,282,293,294,2
297,277,295,295,2
296,277,299,298,2
297,282,301,300,2
299,291,304,303,2
301,301,306,307,2
303,311,307,310,2
304,319,307,313,2
306,324,308,314,2
307,327,308,315,2
308,328,308,314,2
308,327,308,311,2
309,324,307,307,2
309,320,307,302,2
310,315,307,299,2
310,312,308,296,2
310,308,308,296,2
308,305,307,296,2
306,303,306,297,2
304,300,304,298,2
302,296,304,297,2
301,292,304,294,2
300,288,305,289,2
299,282,305,285,2
300,274,306,283,2
302,265,307,285,2
305,257,309,290,2
308,256,311,298,2
310,264,312,308,2
313,279,312,317,2
315,297,313,322,2
315,313,312,323,2
315,324,309,321,2
313,331,306,318,2
311,335,303,316,2
309,334,302,313,2
307,330,302,312,2
305,325,302,310,2
304,319,302,309,2
303,314,300,307,2
302,310,299,305,2
302,309,299,305,2
303,309,300,307,2
304,309,302,310,2
304,312,303,312,2
305,315,306,315,2
307,317,309,316,2
310,317,313,316,2
312,314,314,314,2
312,309,315,311,2
311,301,314,308,2
308,295,314,305,2
305,288,313,302,2
303,285,313,299,2
303,285,313,297,2
305,290,313,296,2
306,297,310,297,2
309,303,306,299,2
311,308,303,303,2
312,313,302,308,2
313,316,302,313,2
313,317,305,318,2
313,318,309,320,2
311,321,311,319,2
309,325,311,318,2
307,326,310,316,2
306,326,309,314,2
306,323,308,312,2
306,319,306,311,2
306,315,305,308,2
306,308,303,304,2
306,298,302,299,2
304,285,300,296,2
303,274,300,294,2
301,272,299,295,2
300,277,298,299,2
301,285,299,305,2
302,294,300,310,2
304,300,302,314,2
304,304,303,316,2
304,304,303,317,2
304,305,303,317,2
305,307,304,316,2
306,309,307,316,2
307,307,309,316,2
307,304,311,315,2
307,300,313,315,2
308,297,315,315,2
308,296,316,315,2
310,297,318,316,2
311,301,318,315,2
312,311,317,313,2
313,323,315,311,2
313,332,313,308,2
312,336,311,305,2
310,337,308,300,2
307,336,306,295,2
304,331,305,292,2
302,325,304,292,2
300,316,306,294,2
299,308,310,298,2
300,303,313,303,2
300,305,315,307,2
301,310,315,309,2
302,316,313,309,2
304,319,311,308,2
305,319,309,308,2
306,315,306,308,2
306,310,304,306,2
306,307,303,305,2
307,306,302,304,2
308,310,302,304,2
310,316,302,306,2
312,321,301,307,2
313,323,300,307,2
313,324,299,306,2
312,324,297,304,2
310,323,295,301,2
309,323,293,298,2
307,325,293,295,2
307,325,293,293,2
307,322,295,294,2
308,317,298,298,2
308,310,300,304,2
309,302,302,311,2
308,292,302,317,2
308,282,301,321,2
307,275,302,323,2
307,271,305,323,2
308,266,309,322,2
308,265,312,319,2
308,266,313,316,2
307,275,312,312,2
306,288,310,308,2
306,302,308,304,2
305,312,306,300,2
304,319,304,295,2
304,323,303,290,2
303,320,302,287,2
302,314,300,286,2
302,307,298,289,2
302,304,297,295,2
303,303,297,303,2
304,304,297,312,2
305,306,299,318,2
306,304,303,323,2
309,304,309,325,2
311,303,314,326,2
313,302,318,325,2
314,301,319,322,2
315,300,319,320,2
314,300,317,317,2
314,302,315,314,2
314,304,314,312,2
314,307,313,311,2
313,310,311,310,2
312,311,310,309,2
312,311,308,310,2
311,312,308,309,2
311,315,308,307,2
311,318,306,303,2
308,315,304,298,2
306,307,302,294,2
305,301,301,293,2
304,299,303,293,2
303,304,305,296,2
303,313,307,300,2
304,321,310,305,2
305,326,313,310,2
307,326,316,316,2
308,322,317,320,2
309,319,317,322,2
308,318,315,321,2
307,319,313,318,2
307,320,311,315,2
307,320,309,312,2
307,321,309,312,2
307,324,309,312,2
308,331,310,313,2
309,339,312,314,2
311,347,313,315,2
313,351,313,315,2
313,348,313,314,2
312,339,315,313,2
311,327,315,312,2
309,315,314,311,2
307,306,313,310,2
306,302,311,310,2
306,301,309,309,2
306,300,308,308,2
306,299,306,308,2
306,297,304,309,2
306,294,303,310,2
306,288,302,311,2
305,281,301,311,2
304,275,300,312,2
304,271,299,312,2
303,267,299,311,2
303,263,299,309,2
301,259,299,308,2
301,258,300,306,2
301,263,302,304,2
302,276,304,302,2
303,292,304,300,2
304,302,304,297,2
304,306,303,295,2
303,308,301,293,2
302,309,301,293,2
303,310,301,294,2
304,311,302,297,2
305,308,303,301,2
306,306,303,303,2
308,306,304,303,2
309,308,303,302,2
310,312,302,302,2
310,314,301,302,2
310,311,298,303,2
309,305,297,304,2
306,302,295,305,2
304,302,296,304,2
303,306,297,302,2
303,311,300,302,2
304,316,303,305,2
305,318,305,308,2
305,315,306,310,2
304,310,307,312,2
305,306,307,312,2
306,308,308,311,2
308,316,307,310,2
310,326,308,309,2
312,334,308,309,2
313,339,309,309,2
314,343,310,309,2
313,345,310,309,2
311,342,310,310,2
310,337,309,310,2
308,329,309,310,2
307,319,308,310,2
305,307,306,310,2
304,292,306,311,2
304,279,306,311,2
305,269,306,311,2
306,265,307,311,2
306,264,307,308,2
305,263,307,304,2
305,263,306,301,2
305,266,306,297,2
305,274,306,296,2
306,288,307,296,2
307,301,309,299,2
307,311,312,304,2
308,316,315,309,2
308,316,316,314,2
308,314,316,317,2
308,311,314,319,2
308,309,312,320,2
308,306,311,320,2
309,302,310,319,2
309,298,307,316,2
307,297,304,312,2
306,299,302,309,2
306,301,300,307,2
307,303,301,308,2
308,308,303,309,2
309,315,304,311,2
309,320,305,313,2
309,322,306,314,2
310,323,307,315,2
312,324,307,316,2
314,325,307,316,2
316,327,306,314,2
316,329,305,313,2
315,330,303,310,2
313,331,302,307,2
312,333,301,304,2
311,332,300,301,2
310,330,300,297,2
308,328,301,293,2
306,327,302,291,2
305,328,303,289,2
304,327,304,291,2
304,324,305,296,2
303,321,306,303,2
304,318,307,310,2
305,314,308,316,2
306,309,309,320,2
307,297,310,320,2
306,280,312,319,2
306,263,313,318,2
304,248,313,316,2
302,240,312,315,2
302,243,311,314,2
302,255,310,314,2
303,268,308,313,2
304,280,306,312,2
304,291,305,311,2
305,302,305,309,2
306,312,305,308,2
306,320,306,306,2
306,326,306,305,2
306,329,306,304,2
307,331,304,302,2
307,332,303,302,2
306,331,301,301,2
306,325,300,301,2
306,316,300,301,2
306,303,301,302,2
305,292,302,303,2
306,285,303,304,2
306,287,305,305,2
308,294,308,306,2
309,302,311,305,2
310,308,312,304,2
310,308,312,301,2
309,304,310,299,2
309,295,308,300,2
309,285,307,304,2
310,280,308,309,2
312,283,308,314,2
312,291,307,315,2
312,300,305,313,2
311,308,303,307,2
310,314,303,302,2
310,320,304,300,2
308,325,306,300,2
306,328,306,303,2
303,325,306,308,2
301,315,305,312,2
300,303,304,314,2
299,292,304,314,2
300,285,303,314,2
300,282,304,312,2
302,284,305,312,2
305,286,309,312,2
306,289,312,313,2
306,294,314,313,2
304,304,315,311,2
303,313,313,309,2
302,321,311,307,2
302,330,309,305,2
303,338,306,304,2
304,344,305,303,2
305,348,304,302,2
305,350,304,300,2
305,349,305,299,2
304,342,306,298,2
302,331,308,299,2
302,320,310,300,2
303,312,312,302,2
305,303,312,303,2
306,286,312,302,2
307,262,312,302,2
306,237,312,301,2
304,219,311,303,2
302,215,310,305,2
302,228,309,308,2
304,252,309,311,2
306,280,308,312,2
307,307,305,311,2
307,329,302,309,2
306,345,298,308,2
305,355,296,306,2
304,359,293,305,2
304,359,292,305,2
303,352,293,303,2
303,342,294,300,2
304,336,298,299,2
306,332,302,299,2
308,326,305,301,2
308,318,306,304,2
308,310,306,308,2
307,300,305,312,2
307,291,303,315,2
306,283,302,315,2
305,277,301,315,2
305,272,299,314,2
304,269,299,312,2
304,267,298,310,2
304,271,298,309,2
305,281,300,310,2
307,300,302,312,2
308,319,304,314,2
308,332,306,316,2
308,338,307,317,2
307,336,307,315,2
306,330,306,312,2
304,321,302,308,2
303,313,299,305,2
302,307,298,302,2
302,303,299,300,2
303,301,303,299,2
305,302,307,299,2
306,306,311,299,2
307,312,312,300,2
308,318,311,301,2
307,322,309,303,2
307,323,307,304,2
307,318,304,303,2
305,309,302,302,2
304,296,300,299,2
303,281,300,298,2
302,270,301,300,2
301,266,303,304,2
302,272,305,310,2
303,281,308,313,2
305,287,310,315,2
306,288,312,314,2
306,285,314,313,2
307,287,313,311,2
308,294,312,310,2
310,307,310,312,2
313,323,308,315,2
315,335,307,317,2
316,343,306,318,2
316,349,305,317,2
316,355,305,315,2
316,358,305,314,2
317,358,306,312,2
317,353,308,311,2
316,344,310,308,2
315,335,312,306,2
313,327,312,304,2
312,320,313,305,2
312,313,313,308,2
312,308,312,312,2
313,304,312,315,2
314,302,312,317,2
314,301,311,317,2
314,301,310,315,2
314,304,309,313,2
312,308,308,309,2
310,312,308,304,2
307,313,306,299,2
304,310,305,295,2
302,305,304,295,2
302,299,305,299,2
304,296,306,307,2
305,296,308,315,2
307,299,309,321,2
309,300,308,324,2
308,297,306,323,2
307,293,303,319,2
304,289,301,314,2
302,286,298,310,2
301,285,296,307,2
300,285,295,305,2
301,287,296,306,2
303,292,299,308,2
305,296,302,310,2
306,300,306,313,2
307,303,308,315,2
308,306,309,316,2
308,308,308,315,2
307,309,306,314,2
306,305,304,314,2
306,298,304,315,2
306,288,307,316,2
308,282,311,319,2
310,284,313,319,2
312,294,314,317,2
312,309,312,312,2
311,326,312,309,2
310,340,311,306,2
309,346,311,304,2
307,340,310,302,2
306,323,309,302,2
305,305,307,302,2
304,294,307,304,2
303,293,306,307,2
304,298,306,310,2
306,303,307,311,2
307,306,306,308,2
307,309,306,302,2
308,311,306,297,2
308,315,304,293,2
308,318,303,291,2
308,319,301,292,2
308,319,299,297,2
308,316,297,302,2
307,311,295,306,2
307,305,293,307,2
306,299,292,307,2
306,295,293,306,2
306,292,295,304,2
307,290,298,302,2
307,288,302,299,2
307,283,305,297,2
307,273,307,296,2
305,264,309,296,2
305,262,311,298,2
306,272,313,301,2
308,293,315,306,2
310,314,317,312,2
311,330,317,316,2
310,338,317,318,2
308,339,316,318,2
306,337,314,317,2
303,335,312,315,2
302,333,311,313,2
302,331,310,312,2
302,326,309,310,2
303,319,308,308,2
303,311,307,306,2
303,306,306,305,2
303,304,306,303,2
303,304,306,303,2
303,305,306,302,2
303,304,306,303,2
305,301,305,304,2
306,298,306,306,2
308,298,308,309,2
310,301,309,311,2
312,306,310,312,2
313,312,309,313,2
313,315,307,313,2
311,316,305,312,2
308,316,302,311,2
305,315,300,310,2
304,314,299,309,2
303,310,298,309,2
305,307,300,307,2
306,304,302,305,2
308,303,304,303,2
310,303,306,301,2
312,304,308,302,2
313,307,309,305,2
314,307,310,310,2
313,303,311,315,2
311,298,312,319,2
309,294,314,319,2
308,294,314,318,2
308,297,313,315,2
307,300,312,313,2
307,303,312,311,2
307,307,310,310,2
306,314,310,309,2
306,320,308,308,2
306,322,307,306,2
305,320,305,305,2
305,319,305,305,2
304,318,304,305,2
302,318,304,305,2
301,318,303,306,2
301,315,304,308,2
302,311,304,310,2
302,306,304,311,2
303,300,304,311,2
303,298,306,309,2
304,301,307,306,2
304,309,307,299,2
304,317,305,291,2
303,323,302,285,2
302,324,300,282,2
301,318,300,283,2
300,307,301,288,2
300,293,303,297,2
300,281,305,306,2
301,272,306,314,2
301,268,308,319,2
301,267,309,320,2
301,271,310,318,2
301,279,310,317,2
301,289,309,316,2
301,301,307,316,2
302,310,306,317,2
303,317,306,317,2
304,323,307,316,2
305,328,310,315,2
306,329,314,314,2
307,324,317,313,2
306,315,318,312,2
303,300,316,310,2
301,282,314,308,2
299,269,312,306,2
297,265,311,304,2
296,271,311,302,2
296,284,311,300,2
296,297,311,299,2
297,305,310,300,2
298,313,309,299,2
299,320,307,300,2
301,327,306,301,2
303,332,306,304,2
305,336,308,307,2
307,339,310,310,2
309,340,311,311,2
308,336,310,308,2
307,325,307,304,2
306,312,304,300,2
304,298,302,298,2
303,290,300,297,2
302,287,299,296,2
301,290,299,297,2
301,299,300,300,2
301,309,301,304,2
302,317,300,309,2
302,323,299,313,2
302,328,298,317,2
301,331,299,319,2
300,334,300,319,2
300,335,302,318,2
301,335,305,317,2
303,332,308,317,2
304,327,311,317,2
306,322,312,319,2
307,319,314,321,2
309,317,315,323,2
310,314,315,322,2
310,308,314,321,2
310,304,312,318,2
309,302,311,314,2
308,299,311,311,2
306,289,310,308,2
304,275,309,306,2
302,262,307,306,2
301,252,305,309,2
301,249,304,313,2
303,255,304,317,2
305,266,304,320,2
309,279,303,320,2
311,294,301,318,2
312,307,300,315,2
310,316,297,313,2
307,320,296,311,2
305,323,296,309,2
303,323,297,308,2
302,320,299,309,2
301,315,301,309,2
301,310,304,309,2
302,304,309,308,2
303,299,313,307,2
303,299,315,304,2
303,303,315,301,2
302,311,313,297,2
301,319,309,296,2
300,325,304,295,2
297,329,301,297,2
296,332,299,300,2
296,334,299,303,2
296,333,299,305,2
297,326,299,308,2
297,316,301,310,2
297,303,304,313,2
298,291,308,314,2
298,283,313,314,2
299,277,318,315,2
300,277,322,315,2
302,283,325,314,2
305,296,327,314,2
307,311,325,312,2
309,324,321,310,2
310,332,316,308,2
310,336,313,307,2
309,336,309,306,2
308,333,305,305,2
307,327,302,303,2
306,319,298,301,2
305,310,297,299,2
304,301,296,298,2
304,294,296,297,2
304,292,297,297,2
305,293,300,296,2
305,296,302,294,2
305,301,304,288,2
305,304,305,282,2
304,309,307,278,2
304,316,309,278,2
303,318,308,282,2
303,316,308,289,2
303,312,308,298,2
302,309,307,304,2
302,307,307,310,2
302,308,306,316,2
303,309,306,320,2
303,310,306,324,2
304,308,306,324,2
304,305,306,323,2
305,303,304,321,2
305,304,302,318,2
306,307,302,316,2
308,313,302,313,2
308,318,303,312,2
309,322,305,311,2
309,323,306,311,2
308,322,308,312,2
307,319,309,311,2
306,312,310,307,2
305,304,310,302,2
305,297,310,296,2
305,292,311,293,2
305,290,312,294,2
305,289,312,299,2
304,288,312,306,2
304,291,311,313,2
304,297,311,317,2
305,304,311,318,2
307,311,311,318,2
307,315,311,318,2
308,317,310,318,2
307,317,309,317,2
306,313,308,317,2
304,307,308,315,2
301,299,308,314,2
299,292,307,312,2
297,285,306,311,2
296,281,305,310,2
297,279,305,311,2
298,279,305,312,2
301,282,306,314,2
304,291,308,315,2
306,302,309,313,2
307,311,307,311,2
306,314,306,308,2
306,314,306,307,2
306,311,305,305,2
304,305,305,304,2
302,297,304,304,2
299,288,305,304,2
299,282,306,307,2
300,282,309,310,2
302,291,312,314,2
305,305,313,316,2
308,320,313,315,2
310,332,311,313,2
310,338,309,310,2
310,340,310,309,2
310,339,311,311,2
309,337,313,314,2
309,337,314,317,2
309,335,313,319,2
308,329,313,320,2
307,317,311,319,2
305,300,308,318,2
304,284,305,317,2
303,274,303,314,2
302,271,302,311,2
302,275,300,308,2
302,287,299,305,2
301,304,298,303,2
301,319,297,302,2
301,329,296,301,2
302,335,296,300,2
303,336,297,298,2
304,334,299,295,2
304,331,301,294,2
305,328,303,293,2
305,324,304,295,2
305,320,305,300,2
305,315,307,306,2
305,311,308,313,2
305,304,309,317,2
305,297,310,319,2
305,286,310,319,2
306,275,310,318,2
306,267,309,315,2
306,262,309,311,2
306,261,308,308,2
305,267,307,305,2
303,277,305,304,2
302,290,303,304,2
302,305,302,306,2
302,314,301,308,2
301,316,301,311,2
301,311,301,313,2
300,303,301,313,2
300,292,302,313,2
300,286,303,313,2
302,286,305,312,2
303,293,307,312,2
305,305,308,311,2
306,316,309,310,2
307,323,309,308,2
307,327,309,307,2
307,330,310,306,2
308,330,311,307,2
310,328,313,308,2
309,321,313,309,2
308,312,312,311,2
307,304,310,313,2
306,299,307,313,2
305,301,304,312,2
305,308,302,310,2
305,315,302,307,2
304,320,302,304,2
304,320,301,304,2
304,317,301,304,2
305,314,301,308,2
307,312,301,312,2
310,313,303,316,2
312,316,304,317,2
312,317,304,315,2
313,316,304,313,2
313,316,305,312,2
313,315,307,311,2
313,311,309,310,2
312,306,309,309,2
311,302,309,309,2
311,304,309,310,2
310,310,308,311,2
310,318,306,312,2
310,327,305,313,2
311,334,304,314,2
311,337,305,315,2
313,337,307,315,2
313,332,309,316,2
313,325,309,316,2
311,316,309,315,2
310,304,309,315,2
310,292,309,315,2
309,283,309,314,2
309,276,308,313,2
309,274,308,312,2
309,276,307,312,2
308,279,305,313,2
308,280,304,313,2
307,279,304,313,2
306,277,304,312,2
306,277,304,311,2
305,283,305,309,2
305,290,307,308,2
305,296,307,308,2
306,296,306,308,2
307,293,302,309,2
308,290,299,310,2
308,287,298,310,2
309,285,297,311,2
309,283,297,312,2
309,281,298,313,2
309,277,298,313,2
308,273,299,313,2
308,270,302,313,2
308,277,305,313,2
308,292,309,313,2
309,308,311,313,2
309,324,314,313,2
310,339,315,313,2
310,347,314,312,2
309,343,311,311,2
306,328,309,310,2
304,305,307,310,2
302,284,305,311,2
300,271,304,312,2
301,271,305,313,2
302,281,307,314,2
304,293,310,315,2
308,306,313,316,2
313,322,315,317,2
317,337,317,317,2
318,347,317,316,2
317,350,316,314,2
315,352,314,312,2
313,353,313,310,2
311,353,310,308,2
310,348,306,306,2
308,339,304,303,2
308,329,303,301,2
308,322,303,298,2
308,319,306,296,2
307,317,308,295,2
307,318,310,296,2
306,322,312,300,2
306,327,313,303,2
306,330,313,305,2
306,329,311,304,2
304,328,309,300,2
304,325,308,296,2
303,319,306,292,2
303,312,305,289,2
303,302,304,290,2
303,294,304,294,2
303,291,305,299,2
303,290,307,305,2
304,288,306,307,2
305,286,305,306,2
306,286,304,301,2
306,290,303,294,2
307,299,303,292,2
307,308,303,294,2
307,315,303,300,2
307,319,304,307,2
306,322,307,315,2
306,326,309,320,2
305,328,310,324,2
305,328,310,326,2
306,326,310,327,2
307,320,310,329,2
309,308,310,329,2
310,295,310,328,2
310,280,310,327,2
311,268,310,324,2
310,265,310,322,2
311,273,310,319,2
312,288,310,316,2
313,303,309,314,2
313,315,309,312,2
313,323,308,310,2
313,330,307,309,2
312,333,306,309,2
311,334,306,309,2
310,334,305,309,2
310,335,305,310,2
309,336,306,311,2
309,336,306,312,2
309,331,304,312,2
308,321,302,313,2
308,308,302,313,2
309,297,302,313,2
311,293,304,314,2
314,297,306,314,2
315,306,308,313,2
315,315,309,313,2
314,321,312,313,2
313,324,314,314,2
313,328,317,315,2
313,332,319,315,2
314,333,321,314,2
314,330,320,313,2
312,325,319,311,2
308,315,316,309,2
305,303,311,307,2
302,289,307,305,2
300,276,305,305,2
300,270,305,304,2
300,274,305,301,2
299,280,305,298,2
300,285,304,297,2
300,289,305,297,2
301,295,306,299,2
301,300,307,304,2
301,303,309,309,2
302,303,310,314,2
303,301,311,317,2
303,298,311,317,2
303,295,310,316,2
302,292,309,313,2
302,289,307,310,2
301,286,305,306,2
300,284,303,302,2
299,287,302,298,2
298,291,300,295,2
296,293,297,291,2
295,294,295,288,2
295,294,295,288,2
296,292,296,289,2
296,292,299,292,2
298,296,302,297,2
300,299,304,306,2
302,303,306,315,2
304,309,307,321,2
307,315,308,323,2
309,321,308,320,2
310,327,308,315,2
312,332,309,311,2
312,336,310,309,2
313,339,310,310,2
313,341,310,313,2
313,341,311,317,2
313,337,313,320,2
312,330,316,321,2
310,318,316,318,2
306,305,315,313,2
303,298,313,308,2
301,300,312,305,2
300,311,311,304,2
300,320,308,306,2
299,325,305,307,2
299,322,302,309,2
298,312,299,309,2
298,298,296,308,2
298,284,294,306,2
298,278,293,306,2
300,281,296,307,2
302,287,300,310,2
304,291,303,312,2
304,290,305,312,2
303,285,307,312,2
303,284,309,311,2
303,291,309,309,2
302,301,309,307,2
302,313,306,304,2
302,322,304,301,2
302,329,303,301,2
303,333,303,303,2
304,333,304,308,2
305,330,305,312,2
305,323,306,314,2
305,315,305,313,2
305,307,306,309,2
305,300,308,306,2
307,297,310,303,2
308,297,312,302,2
310,299,311,304,2
310,302,310,308,2
311,305,309,311,2
312,305,309,314,2
312,301,308,316,2
311,294,306,315,2
309,286,303,314,2
307,282,301,313,2
306,282,300,313,2
305,287,298,312,2
305,300,297,311,2
306,315,298,308,2
307,326,300,305,2
308,329,302,303,2
309,325,305,302,2
311,316,307,301,2
313,303,308,302,2
314,293,311,305,2
314,290,313,307,2
313,297,314,309,2
311,310,313,310,2
309,326,312,308,2
307,337,311,305,2
306,343,309,302,2
304,339,305,299,2
303,329,301,298,2
302,318,298,298,2
301,310,295,298,2
300,307,293,299,2
300,307,293,300,2
300,308,292,300,2
300,310,293,300,2
301,309,296,300,2
302,302,299,301,2
303,291,304,302,2
304,281,307,304,2
305,272,311,304,2
307,269,313,306,2
308,274,315,308,2
309,285,315,311,2
310,296,315,313,2
310,303,313,314,2
310,306,310,315,2
308,307,307,313,2
307,308,304,310,2
305,309,302,307,2
305,311,301,305,2
306,318,302,304,2
307,325,304,306,2
308,330,306,309,2
309,330,307,313,2
308,326,307,316,2
308,322,306,318,2
307,317,306,318,2
307,310,305,317,2
306,301,304,316,2
306,293,305,315,2
306,289,305,315,2
305,289,305,314,2
305,293,307,314,2
307,298,309,314,2
309,303,310,314,2
310,307,310,313,2
310,311,308,310,2
309,316,306,307,2
308,320,303,304,2
307,323,302,303,2
306,324,303,302,2
305,324,305,303,2
304,322,308,304,2
304,318,312,304,2
305,312,316,306,2
306,305,320,308,2
307,298,321,309,2
307,296,319,308,2
306,299,317,305,2
306,303,315,302,2
305,304,312,299,2
304,301,310,299,2
304,297,308,300,2
304,295,308,303,2
304,294,308,307,2
306,296,308,312,2
309,298,308,316,2
311,302,308,317,2
311,306,307,316,2
309,308,304,314,2
308,305,301,312,2
306,299,297,310,2
304,297,294,309,2
302,299,292,307,2
301,304,291,305,2
301,311,291,303,2
302,317,293,303,2
302,320,297,303,2
303,321,302,305,2
304,322,306,308,2
305,319,309,311,2
306,314,311,312,2
306,304,313,313,2
305,293,315,312,2
304,284,314,310,2
302,280,311,307,2
302,281,308,305,2
304,289,305,304,2
306,300,302,303,2
309,311,300,303,2
311,318,299,303,2
312,319,298,302,2
311,317,296,301,2
310,314,295,301,2
308,315,295,302,2
308,318,296,305,2
308,320,298,306,2
308,316,300,306,2
307,306,303,305,2
305,296,306,306,2
304,292,309,307,2
304,292,312,310,2
305,291,313,313,2
305,287,314,317,2
306,281,314,320,2
307,275,315,321,2
308,275,316,320,2
311,278,317,319,2
312,283,316,317,2
311,292,314,314,2
310,302,311,312,2
307,314,308,311,2
306,328,305,310,2
305,340,304,310,2
305,350,302,310,2
306,356,303,308,2
307,360,304,306,2
308,356,305,305,2
308,345,305,304,2
308,326,304,305,2
306,304,304,306,2
305,285,303,308,2
305,274,304,308,2
305,271,306,309,2
305,276,308,311,2
306,283,310,314,2
307,289,311,316,2
308,296,310,317,2
308,304,310,316,2
309,312,308,312,2
309,319,306,307,2
309,322,304,304,2
310,324,302,304,2
310,324,300,306,2
310,321,299,309,2
308,313,299,313,2
306,304,301,316,2
304,295,303,316,2
303,288,304,316,2
302,288,304,314,2
301,296,303,312,2
302,304,303,310,2
304,309,304,308,2
305,311,304,305,2
307,311,303,303,2
307,310,302,301,2
307,309,300,300,2
306,309,297,299,2
305,310,295,299,2
305,311,292,301,2
305,311,290,304,2
306,310,288,306,2
307,308,286,306,2
308,306,286,306,2
308,305,287,305,2
308,307,290,303,2
309,309,295,302,2
309,309,301,302,2
310,306,307,305,2
311,301,312,309,2
312,296,315,314,2
313,293,317,317,2
312,293,317,318,2
313,297,318,317,2
313,303,318,316,2
313,307,317,314,2
313,311,315,311,2
311,315,313,308,2
309,318,311,307,2
309,319,310,306,2
309,315,309,306,2
309,311,308,308,2
310,312,307,310,2
311,320,307,313,2
311,328,308,314,2
311,328,307,314,2
310,319,307,314,2
309,308,307,314,2
309,298,306,314,2
309,293,307,312,2
311,294,310,311,2
312,298,312,310,2
313,303,313,309,2
313,309,313,308,2
313,316,310,306,2
313,323,307,305,2
313,328,305,304,2
312,331,304,304,2
311,330,305,304,2
310,325,306,305,2
309,315,308,305,2
307,299,309,304,2
305,282,309,301,2
302,270,307,298,2
300,266,305,294,2
299,265,304,291,2
298,266,305,289,2
298,266,306,289,2
298,266,309,292,2
298,269,310,297,2
298,277,310,302,2
299,286,308,306,2
300,289,305,308,2
301,289,303,307,2
301,290,303,307,2
302,296,304,305,2
303,305,305,304,2
304,316,306,301,2
304,326,306,298,2
304,334,305,294,2
303,341,303,290,2
303,344,302,288,2
302,344,302,289,2
302,341,302,294,2
303,339,303,301,2
304,337,303,308,2
305,332,302,314,2
306,325,302,318,2
307,318,301,319,2
309,318,303,318,2
310,323,306,317,2
312,329,308,316,2
313,328,308,314,2
312,320,307,313,2
309,309,306,312,2
307,295,305,311,2
305,282,304,311,2
302,272,304,310,2
301,269,305,310,2
302,270,307,309,2
302,275,309,307,2
302,282,309,303,2
300,290,309,297,2
298,297,309,292,2
297,305,308,288,2
295,312,307,288,2
296,318,307,290,2
297,325,307,296,2
299,332,309,303,2
303,339,310,310,2
306,342,312,315,2
309,342,314,317,2
311,339,315,319,2
312,334,315,319,2
313,330,316,319,2
312,325,316,319,2
311,319,316,319,2
309,312,315,318,2
307,302,314,316,2
305,290,313,314,2
302,278,311,311,2
301,273,310,306,2
301,276,310,301,2
302,286,311,296,2
305,297,312,295,2
309,307,312,297,2
311,313,312,300,2
312,317,311,304,2
312,317,310,306,2
311,316,310,308,2
311,314,311,309,2
310,311,312,308,2
309,310,312,306,2
308,309,311,304,2
307,306,309,302,2
305,306,306,300,2
304,307,304,299,2
303,309,301,299,2
303,311,301,299,2
304,312,302,299,2
305,311,303,300,2
305,308,304,303,2
305,309,305,308,2
305,313,308,313,2
305,316,310,318,2
304,318,312,320,2
304,321,315,321,2
305,326,318,320,2
306,333,320,319,2
307,336,320,316,2
307,332,317,312,2
306,322,314,307,2
304,309,310,303,2
302,295,307,300,2
301,285,304,297,2
300,281,303,296,2
300,282,304,296,2
302,285,306,297,2
303,289,308,299,2
304,292,309,302,2
305,296,309,306,2
306,300,310,310,2
308,304,308,313,2
308,306,307,316,2
308,308,304,318,2
308,310,302,318,2
307,314,301,318,2
306,320,301,317,2
305,324,301,316,2
304,325,301,314,2
304,324,302,314,2
304,321,303,314,2
304,317,304,314,2
305,313,305,314,2
306,310,305,314,2
307,305,307,314,2
307,297,308,314,2
308,288,309,314,2
307,282,311,313,2
305,280,311,312,2
304,282,311,311,2
304,286,310,309,2
304,291,310,307,2
303,300,309,303,2
303,308,306,299,2
301,316,304,296,2
301,323,302,294,2
301,325,302,295,2
302,324,303,297,2
302,318,304,300,2
303,310,306,305,2
304,303,308,310,2
306,299,309,313,2
307,301,310,314,2
307,306,310,314,2
307,310,310,314,2
306,310,310,313,2
305,307,310,312,2
303,303,311,311,2
303,301,312,308,2
303,304,311,306,2
303,308,310,305,2
303,312,309,304,2
303,312,308,304,2
302,304,307,304,2
301,292,307,304,2
301,278,307,305,2
302,270,308,307,2
303,274,309,308,2
305,288,310,307,2
307,306,310,306,2
308,322,310,305,2
309,333,311,305,2
309,337,311,306,2
309,337,311,308,2
309,335,310,309,2
308,329,309,309,2
308,323,309,308,2
308,316,309,305,2
308,307,309,302,2
308,303,309,297,2
308,306,308,294,2
309,313,307,294,2
309,318,306,297,2
309,320,304,302,2
308,322,303,308,2
307,326,302,314,2
306,331,303,317,2
307,332,303,318,2
307,328,303,317,2
307,319,302,316,2
307,307,301,316,2
307,294,301,316,2
307,283,302,318,2
309,278,303,320,2
312,282,304,320,2
313,289,303,319,2
312,296,301,316,2
310,303,299,314,2
306,307,297,313,2
303,309,296,313,2
301,308,296,314,2
299,305,296,316,2
299,302,298,317,2
300,300,301,317,2
301,301,305,317,2
301,303,308,317,2
302,304,311,316,2
301,303,311,315,2
300,298,311,313,2
299,288,308,313,2
298,276,305,312,2
297,266,304,313,2
298,263,304,314,2
300,266,305,314,2
303,273,306,314,2
305,281,306,312,2
306,291,306,311,2
307,302,307,309,2
308,313,308,307,2
307,323,309,304,2
306,331,310,299,2
304,337,311,295,2
303,341,311,293,2
302,340,310,292,2
301,336,308,292,2
300,333,307,291,2
299,333,306,290,2
298,333,305,289,2
298,329,304,289,2
299,323,303,292,2
301,316,304,299,2
303,307,303,308,2
305,297,302,317,2
307,287,300,322,2
307,280,299,325,2
307,278,299,324,2
307,280,299,322,2
308,287,300,320,2
308,296,301,318,2
307,301,300,316,2
305,303,300,314,2
304,304,299,312,2
304,306,300,311,2
304,312,303,310,2
305,321,306,309,2
307,330,308,308,2
308,335,309,308,2
309,332,310,308,2
310,323,312,307,2
311,310,315,307,2
312,298,317,308,2
312,293,318,307,2
310,293,316,305,2
307,294,312,303,2
304,296,308,300,2
302,300,304,298,2
301,305,302,297,2
301,313,300,296,2
301,322,300,297,2
302,330,301,299,2
303,337,301,302,2
303,342,302,304,2
302,344,301,304,2
301,343,300,304,2
301,342,298,304,2
301,340,297,302,2
302,336,297,298,2
304,329,297,293,2
305,320,299,289,2
307,312,301,289,2
308,307,304,291,2
309,305,307,296,2
309,303,308,303,2
309,301,310,311,2
310,298,311,318,2
312,294,313,321,2
314,291,315,324,2
315,289,316,325,2
314,286,316,325,2
314,284,316,325,2
312,287,317,324,2
311,295,318,322,2
310,305,319,320,2
309,313,318,319,2
308,320,317,318,2
307,326,315,317,2
307,328,312,317,2
307,326,309,316,2
306,323,309,314,2
306,319,308,313,2
306,314,309,312,2
308,310,311,311,2
309,309,311,310,2
309,308,312,309,2
309,305,310,308,2
307,300,308,305,2
305,292,304,302,2
303,285,300,301,2
302,282,298,301,2
302,285,297,301,2
302,293,297,299,2
302,305,299,297,2
303,315,302,296,2
303,319,306,296,2
304,315,309,298,2
304,307,312,303,2
304,298,313,309,2
304,290,313,315,2
304,284,312,317,2
304,282,311,315,2
304,286,310,311,2
304,294,309,307,2
305,302,309,303,2
306,311,310,302,2
308,320,310,302,2
309,330,310,302,2
311,337,308,304,2
312,342,307,305,2
313,344,307,307,2
315,343,307,308,2
317,337,309,310,2
318,326,310,312,2
317,308,310,313,2
314,292,310,313,2
310,283,310,312,2
306,283,310,310,2
303,287,310,308,2
303,292,311,306,2
304,300,311,303,2
304,305,310,302,2
305,309,308,301,2
305,310,307,302,2
306,306,307,304,2
305,297,306,305,2
305,289,307,305,2
306,285,307,306,2
307,288,309,307,2
308,295,310,307,2
309,305,309,307,2
307,315,308,306,2
306,322,306,305,2
305,323,306,302,2
304,320,305,298,2
302,316,304,296,2
301,312,304,294,2
299,309,304,293,2
298,306,305,292,2
298,305,306,291,2
299,306,307,291,2
300,307,307,293,2
301,309,305,295,2
302,311,303,297,2
303,313,300,300,2
304,317,298,302,2
305,321,296,304,2
305,325,296,306,2
306,326,296,308,2
305,319,297,309,2
304,303,298,309,2
303,282,298,308,2
303,264,300,306,2
303,258,301,304,2
304,267,300,301,2
305,280,300,299,2
305,289,300,297,2
306,293,301,297,2
306,293,303,298,2
307,294,306,301,2
308,298,309,305,2
310,306,313,309,2
312,314,316,313,2
314,318,318,316,2
315,321,319,317,2
316,327,319,317,2
315,333,316,314,2
314,339,313,312,2
313,343,309,310,2
312,346,306,308,2
312,345,304,307,2
311,340,302,305,2
309,332,301,303,2
306,320,300,300,2
304,304,300,300,2
304,288,302,302,2
304,278,305,307,2
305,280,309,311,2
307,288,312,314,2
307,295,313,316,2
307,298,313,316,2
308,299,313,314,2
309,299,313,312,2
310,301,314,309,2
311,306,314,308,2
312,313,314,308,2
312,319,312,309,2
312,321,311,312,2
312,320,309,314,2
312,320,307,316,2
311,317,307,316,2
310,311,307,313,2
308,306,306,308,2
306,300,304,302,2
304,294,302,298,2
303,290,299,297,2
302,291,298,299,2
302,297,297,304,2
302,306,297,309,2
304,317,298,312,2
305,324,301,314,2
306,328,305,314,2
307,330,309,313,2
309,330,312,311,2
309,328,312,309,2
308,325,310,308,2
306,320,308,307,2
305,314,306,306,2
304,307,305,303,2
303,303,304,301,2
303,300,303,300,2
304,300,301,301,2
305,303,299,304,2
306,304,297,308,2
308,304,296,310,2
307,303,294,310,2
304,302,293,308,2
301,301,295,308,2
299,301,298,309,2
298,302,301,311,2
299,303,304,314,2
300,302,306,316,2
301,297,305,317,2
302,291,305,318,2
302,285,303,317,2
301,278,303,317,2
302,272,305,316,2
303,270,307,315,2
305,275,309,314,2
306,288,310,311,2
306,303,309,309,2
306,316,308,308,2
306,324,309,306,2
306,330,311,306,2
306,331,312,306,2
304,330,312,305,2
303,326,312,306,2
301,319,312,307,2
300,309,311,309,2
300,300,311,310,2
301,295,312,312,2
303,296,313,313,2
304,303,313,315,2
305,312,312,316,2
306,316,311,318,2
306,316,310,319,2
307,312,309,319,2
307,309,308,318,2
307,305,305,317,2
307,300,304,317,2
306,297,303,317,2
307,297,304,317,2
307,301,304,316,2
307,310,304,314,2
307,320,303,311,2
306,327,301,305,2
305,327,299,301,2
304,319,296,297,2
302,305,294,296,2
300,292,293,296,2
300,284,294,297,2
301,287,297,298,2
303,296,299,299,2
