302,301,301,308,0
303,315,300,308,0
304,323,299,307,0
305,324,297,305,0
305,320,295,302,0
305,313,295,301,0
307,306,296,303,0
311,302,300,306,0
315,300,304,309,0
318,301,307,310,0
320,305,310,310,0
321,311,312,311,0
319,311,312,312,0
315,300,310,314,0
310,279,308,315,0
307,259,307,316,0
304,248,306,315,0
303,247,306,313,0
302,256,305,309,0
302,274,304,305,0
304,292,304,305,0
306,308,304,308,0
309,319,305,312,0
310,323,305,315,0
311,320,305,317,0
311,318,306,318,0
313,320,307,320,0
317,325,309,321,0
321,327,311,320,0
321,314,310,318,0
318,291,308,313,0
314,270,306,309,0
311,257,304,304,0
310,248,303,301,0
307,240,302,299,0
304,236,302,297,0
302,242,302,297,0
300,261,303,298,0
300,282,305,302,0
300,297,308,308,0
301,303,310,315,0
301,302,312,318,0
300,293,311,319,0
300,282,310,319,0
301,269,310,319,0
301,261,308,317,0
299,256,306,314,0
297,258,306,313,0
299,267,307,313,0
303,281,307,313,0
306,293,305,311,0
309,306,304,310,0
313,323,304,310,0
315,337,304,309,0
314,342,304,308,0
311,337,304,308,0
308,327,307,308,0
308,319,310,305,0
307,321,312,300,0
306,330,310,297,0
304,343,308,297,0
302,354,305,299,0
302,358,303,304,0
302,354,301,309,0
303,346,301,314,0
305,339,302,318,0
308,335,304,322,0
310,327,306,325,0
314,319,309,326,0
319,309,310,327,0
323,302,311,326,0
326,302,311,324,0
327,308,310,320,0
324,315,308,314,0
320,322,307,307,0
315,329,306,299,0
312,334,306,293,0
309,335,307,289,0
306,330,307,288,0
303,318,308,290,0
301,300,309,295,0
299,280,309,299,0
298,261,309,303,0
297,248,309,306,0
297,242,309,307,0
299,247,309,306,0
300,261,307,301,0
301,280,307,298,0
300,293,306,296,0
299,300,305,296,0
299,302,304,298,0
301,301,304,300,0
303,295,302,299,0
304,290,301,296,0
304,284,301,295,0
303,279,301,298,0
301,275,301,300,0
297,267,301,304,0
292,258,302,308,0
288,254,303,312,0
287,256,305,315,0
288,266,306,317,0
290,281,307,319,0
293,292,309,321,0
297,297,309,323,0
300,296,309,323,0
304,297,307,321,0
307,301,306,319,0
309,303,306,316,0
311,304,306,315,0
313,305,306,315,0
316,313,309,316,0
319,330,312,318,0
320,349,315,319,0
318,367,317,316,0
315,379,316,312,0
312,378,313,310,0
308,366,309,307,0
306,343,306,303,0
303,316,303,300,0
304,290,303,301,0
306,269,305,304,0
309,261,306,306,0
309,263,306,307,0
306,271,305,306,0
302,279,305,305,0
298,287,305,304,0
295,294,306,304,0
295,296,306,305,0
296,297,306,307,0
298,298,307,308,0
301,301,306,309,0
303,306,306,310,0
304,310,306,311,0
304,313,306,313,0
303,306,307,315,0
302,292,309,318,0
303,282,311,321,0
304,276,312,321,0
306,274,311,321,0
307,273,309,319,0
307,270,308,318,0
309,270,309,318,0
312,270,312,320,0
313,266,314,320,0
310,260,314,319,0
305,263,313,317,0
302,283,312,314,0
301,313,311,311,0
301,340,309,307,0
302,357,305,303,0
304,367,302,300,0
306,372,300,299,0
309,374,301,300,0
312,373,302,301,0
315,364,303,304,0
318,349,305,306,0
320,333,306,309,0
321,315,306,310,0
319,296,305,311,0
316,283,304,311,0
312,283,302,311,0
310,298,302,310,0
308,319,303,309,0
306,338,304,308,0
305,348,306,308,0
303,347,307,308,0
302,338,308,307,0
303,327,308,307,0
304,316,308,307,0
306,306,308,307,0
305,297,308,306,0
304,291,307,305,0
302,293,307,305,0
302,298,307,304,0
303,303,307,300,0
304,305,305,296,0
304,304,304,290,0
303,299,304,283,0
303,293,303,277,0
301,290,304,274,0
299,289,304,273,0
298,289,304,273,0
299,292,305,272,0
300,291,304,271,0
298,281,302,270,0
296,266,300,272,0
296,253,300,279,0
297,250,303,288,0
301,260,307,298,0
305,277,309,306,0
310,295,310,312,0
312,308,308,314,0
313,315,306,312,0
314,316,307,311,0
314,313,309,312,0
314,305,311,315,0
312,298,314,320,0
310,299,317,325,0
309,308,318,330,0
307,319,319,333,0
305,324,318,335,0
301,323,316,334,0
296,317,314,331,0
290,309,313,328,0
288,303,313,326,0
288,302,312,324,0
292,305,311,321,0
298,309,308,318,0
303,310,305,316,0
306,303,303,315,0
308,291,303,315,0
309,283,303,316,0
309,281,305,318,0
308,278,305,319,0
304,267,304,319,0
301,250,302,320,0
300,238,303,320,0
302,235,304,322,0
307,246,307,323,0
311,266,309,323,0
310,288,308,320,0
305,306,306,317,0
300,320,303,315,0
296,333,301,313,0
295,347,300,312,0
296,360,301,311,0
299,364,302,312,0
301,356,302,312,0
302,338,302,313,0
305,322,303,313,0
308,314,305,314,0
309,312,307,314,0
309,315,309,314,0
307,320,311,312,0
304,317,312,312,0
300,307,314,312,0
297,300,314,312,0
296,297,315,313,0
297,303,315,313,0
298,317,313,313,0
300,330,309,311,0
301,334,306,309,0
302,332,303,307,0
302,328,302,304,0
303,325,301,302,0
304,327,303,300,0
307,333,304,300,0
310,338,306,302,0
313,342,308,304,0
313,338,308,304,0
310,321,306,303,0
307,296,307,302,0
303,268,307,300,0
300,242,309,298,0
298,231,309,298,0
298,243,309,300,0
298,266,308,302,0
298,288,305,304,0
300,307,303,306,0
304,321,302,307,0
309,328,301,308,0
313,331,302,307,0
314,335,303,306,0
313,343,304,304,0
312,353,306,301,0
308,358,307,298,0
305,355,307,296,0
302,348,306,294,0
300,341,305,294,0
299,330,306,296,0
298,317,305,300,0
297,307,304,303,0
297,300,303,308,0
299,299,304,313,0
302,298,306,317,0
306,291,307,319,0
310,286,309,319,0
312,286,311,313,0
311,288,311,305,0
308,289,312,297,0
305,284,311,292,0
301,276,311,292,0
300,269,310,297,0
300,269,310,304,0
302,280,310,310,0
305,298,310,314,0
308,315,309,316,0
310,327,308,316,0
311,333,308,316,0
312,336,307,316,0
313,337,307,318,0
314,336,306,318,0
314,331,304,318,0
314,323,302,315,0
313,315,300,309,0
310,309,298,301,0
308,308,297,291,0
307,312,298,283,0
307,320,300,278,0
305,325,301,276,0
302,322,303,280,0
299,307,304,290,0
296,285,306,302,0
296,268,311,314,0
297,262,315,323,0
298,265,318,328,0
301,276,321,331,0
305,292,323,330,0
308,308,322,327,0
308,321,317,321,0
308,331,313,316,0
308,338,309,310,0
307,339,306,306,0
306,334,304,303,0
306,324,304,302,0
307,310,305,303,0
309,298,307,303,0
312,291,307,304,0
315,288,308,303,0
313,289,307,301,0
307,288,307,301,0
301,283,307,303,0
297,278,308,308,0
295,276,310,312,0
296,279,310,315,0
298,283,309,316,0
299,285,307,314,0
300,284,304,312,0
302,282,303,310,0
305,280,302,309,0
308,272,302,309,0
310,263,303,310,0
313,260,307,313,0
316,272,313,317,0
319,291,318,320,0
320,315,321,320,0
319,333,319,318,0
314,341,314,314,0
308,341,308,310,0
303,340,305,308,0
299,336,304,307,0
297,327,304,307,0
295,316,304,306,0
294,306,306,306,0
296,300,308,308,0
301,298,310,312,0
306,298,311,314,0
310,299,312,316,0
312,301,312,315,0
312,302,312,314,0
312,300,312,311,0
309,299,311,309,0
307,303,310,308,0
305,310,310,308,0
306,310,310,309,0
308,305,312,310,0
313,296,314,312,0
319,290,315,313,0
321,291,316,314,0
321,298,317,313,0
316,304,316,312,0
311,308,313,309,0
307,309,312,308,0
305,313,312,307,0
306,323,313,305,0
307,331,313,301,0
308,334,313,296,0
309,335,314,294,0
310,333,314,295,0
311,323,312,297,0
312,309,310,299,0
312,299,308,301,0
313,291,305,303,0
313,288,303,303,0
312,291,300,303,0
313,296,299,302,0
316,300,299,303,0
319,301,300,302,0
319,301,301,299,0
316,304,301,294,0
311,313,301,289,0
307,324,301,287,0
304,329,300,286,0
301,324,299,289,0
299,312,299,293,0
299,299,300,298,0
302,296,303,302,0
306,306,308,304,0
310,319,311,305,0
311,323,312,307,0
311,315,312,306,0
310,304,312,304,0
309,299,311,301,0
306,303,309,296,0
302,308,305,291,0
298,314,301,287,0
296,322,299,287,0
297,327,298,289,0
298,327,298,292,0
298,320,299,294,0
299,310,300,294,0
300,299,302,294,0
301,292,304,293,0
301,286,304,290,0
298,282,304,288,0
296,281,304,289,0
295,282,306,294,0
295,283,309,300,0
297,288,313,305,0
300,296,314,310,0
303,305,313,312,0
304,313,310,311,0
303,315,306,309,0
302,309,304,307,0
300,296,303,307,0
299,281,302,308,0
298,273,304,311,0
300,275,306,315,0
304,287,307,318,0
308,303,308,321,0
313,318,309,324,0
315,329,309,326,0
315,331,307,325,0
313,328,305,324,0
312,323,304,323,0
311,315,305,324,0
311,304,306,325,0
310,296,309,328,0
312,300,312,330,0
312,314,313,329,0
310,324,311,327,0
307,325,308,323,0
306,314,307,321,0
309,304,310,321,0
313,299,314,321,0
314,296,313,320,0
312,294,311,318,0
308,292,306,315,0
302,288,300,312,0
297,280,298,309,0
295,269,298,307,0
295,261,301,305,0
297,263,304,303,0
300,266,306,299,0
303,272,306,294,0
305,282,307,289,0
306,292,307,286,0
307,297,306,286,0
307,300,305,286,0
307,305,303,288,0
308,311,301,292,0
309,316,300,298,0
309,320,300,304,0
309,324,300,308,0
308,328,300,310,0
307,329,299,311,0
307,330,299,312,0
306,331,299,312,0
306,334,300,314,0
308,338,302,316,0
312,342,305,320,0
315,348,308,323,0
318,354,311,325,0
319,358,312,325,0
318,356,312,324,0
315,348,310,321,0
310,336,308,319,0
307,323,306,317,0
306,307,308,316,0
308,284,311,316,0
309,258,312,315,0
308,233,312,315,0
306,215,313,315,0
304,210,312,315,0
302,212,309,314,0
301,221,307,313,0
302,237,306,310,0
303,256,305,307,0
304,272,304,303,0
304,286,303,298,0
304,300,302,295,0
305,314,302,294,0
307,325,304,294,0
309,335,306,295,0
311,340,307,296,0
313,342,307,299,0
314,340,307,302,0
315,336,305,303,0
315,335,305,305,0
315,339,305,305,0
314,347,305,305,0
313,351,304,302,0
311,350,303,298,0
308,341,302,293,0
306,326,301,288,0
305,312,301,287,0
304,295,302,287,0
302,271,303,287,0
300,246,304,290,0
300,231,306,296,0
303,233,308,303,0
307,250,309,311,0
313,275,312,317,0
318,297,313,320,0
321,313,312,318,0
321,324,309,312,0
318,333,308,305,0
314,336,305,298,0
309,332,303,296,0
306,323,302,297,0
304,312,301,300,0
303,300,300,303,0
303,289,300,309,0
304,285,303,314,0
305,286,305,318,0
305,289,306,317,0
305,295,306,314,0
304,303,304,307,0
304,313,303,301,0
304,319,301,297,0
305,320,300,296,0
305,318,300,296,0
304,314,300,297,0
304,310,302,300,0
304,306,303,304,0
304,301,304,309,0
306,296,306,313,0
307,291,308,316,0
306,285,309,319,0
305,278,310,320,0
304,269,312,322,0
303,259,313,323,0
304,252,314,324,0
305,249,313,322,0
306,250,311,321,0
308,253,311,320,0
308,256,313,320,0
307,259,313,319,0
303,260,310,315,0
299,267,307,313,0
297,280,305,311,0
298,294,304,310,0
301,310,304,311,0
305,324,306,312,0
311,331,308,314,0
316,328,311,315,0
319,313,312,315,0
317,295,311,313,0
314,286,308,311,0
310,289,307,308,0
307,300,306,306,0
304,304,304,304,0
300,293,303,303,0
296,273,302,303,0
294,256,303,304,0
294,255,305,307,0
297,273,307,310,0
302,304,308,312,0
307,336,309,312,0
310,356,308,311,0
311,356,307,311,0
311,344,306,311,0
311,332,305,311,0
311,325,303,310,0
311,321,301,309,0
309,319,298,305,0
308,321,296,299,0
308,325,296,296,0
309,328,298,297,0
310,328,299,300,0
309,328,300,303,0
306,332,302,304,0
304,337,301,304,0
302,340,301,303,0
301,336,300,302,0
301,326,298,301,0
300,314,297,300,0
301,304,297,301,0
302,296,298,304,0
303,286,297,308,0
303,274,297,311,0
303,268,297,312,0
305,280,298,311,0
307,298,300,308,0
308,311,302,302,0
308,319,304,295,0
310,325,306,291,0
311,327,308,288,0
310,323,308,286,0
308,313,308,286,0
307,300,309,290,0
305,286,309,294,0
303,272,309,296,0
303,263,306,296,0
303,254,303,294,0
303,242,301,294,0
300,222,301,296,0
294,201,302,302,0
290,193,307,311,0
289,209,312,319,0
291,246,317,325,0
294,289,319,327,0
298,323,318,327,0
300,344,316,324,0
303,357,315,322,0
306,365,314,320,0
308,366,313,319,0
309,362,311,318,0
310,355,310,318,0
311,348,309,319,0
313,340,309,320,0
314,332,310,321,0
313,321,310,321,0
311,314,310,321,0
310,316,311,321,0
309,323,313,321,0
309,331,314,321,0
309,337,315,320,0
306,335,313,319,0
301,324,310,316,0
296,306,307,313,0
292,287,305,312,0
291,276,305,311,0
293,286,308,311,0
297,309,309,310,0
301,323,311,309,0
305,322,313,309,0
306,306,315,309,0
304,286,315,307,0
301,273,313,306,0
298,268,311,305,0
297,264,310,305,0
296,254,309,303,0
296,239,308,300,0
295,223,308,298,0
294,218,308,297,0
295,229,308,299,0
299,254,308,301,0
303,283,309,302,0
306,308,309,304,0
307,322,308,305,0
306,324,306,305,0
304,322,304,306,0
303,322,302,305,0
303,328,301,304,0
304,339,300,303,0
304,348,300,303,0
304,345,301,304,0
305,335,303,304,0
306,320,304,305,0
306,306,306,305,0
308,294,308,305,0
309,287,309,304,0
309,288,310,303,0
308,295,309,303,0
311,310,310,305,0
315,329,313,308,0
318,343,316,309,0
316,348,317,308,0
309,347,313,304,0
300,341,307,299,0
293,338,300,295,0
291,336,295,293,0
291,328,292,292,0
291,312,291,294,0
293,291,291,296,0
296,272,295,299,0
300,261,301,302,0
305,267,307,304,0
308,281,311,303,0
310,295,311,303,0
312,309,310,304,0
313,320,308,307,0
313,327,307,309,0
312,326,306,309,0
307,316,304,307,0
301,298,303,302,0
296,279,303,297,0
294,264,305,296,0
294,257,307,297,0
294,258,308,300,0
295,267,307,303,0
294,284,306,303,0
293,300,305,303,0
294,306,305,304,0
296,305,306,306,0
300,305,308,307,0
304,306,308,304,0
307,310,307,298,0
309,318,305,293,0
308,325,303,294,0
307,327,302,299,0
306,321,301,305,0
304,311,300,310,0
304,299,299,314,0
305,290,298,318,0
305,287,300,322,0
306,291,302,324,0
304,298,305,326,0
301,306,308,327,0
299,316,311,329,0
301,328,312,331,0
304,337,312,332,0
306,335,310,331,0
306,328,308,329,0
306,316,307,327,0
307,304,307,327,0
307,300,308,325,0
308,300,308,323,0
308,297,307,320,0
307,290,307,318,0
306,284,308,318,0
307,284,311,318,0
308,288,313,318,0
309,292,313,318,0
310,297,313,317,0
312,306,313,316,0
315,314,313,314,0
316,322,312,313,0
315,326,310,310,0
313,326,308,307,0
308,321,308,304,0
303,307,308,304,0
298,283,307,306,0
294,257,308,310,0
292,240,309,313,0
293,241,312,316,0
295,258,313,316,0
297,279,313,315,0
299,297,311,312,0
299,309,308,309,0
300,311,306,308,0
301,302,304,309,0
304,288,305,313,0
306,276,306,315,0
307,269,307,315,0
306,268,306,313,0
304,273,306,309,0
303,285,307,304,0
302,298,307,298,0
299,305,306,294,0
297,306,304,293,0
294,303,304,292,0
293,299,305,293,0
294,297,306,292,0
294,298,307,290,0
295,300,308,289,0
296,305,309,290,0
298,311,310,293,0
301,317,310,296,0
303,320,310,298,0
305,321,309,300,0
307,316,308,300,0
308,304,307,300,0
308,295,307,302,0
309,291,308,306,0
310,291,309,312,0
311,293,311,317,0
311,301,312,321,0
311,315,312,323,0
310,325,312,324,0
308,328,311,324,0
310,329,312,325,0
313,327,314,325,0
314,319,315,324,0
311,302,313,321,0
305,281,309,315,0
301,269,305,310,0
299,272,302,307,0
298,283,301,306,0
299,293,301,307,0
301,297,303,309,0
303,295,306,311,0
303,292,307,310,0
302,291,306,309,0
300,291,304,309,0
299,292,303,309,0
299,293,302,310,0
300,292,302,311,0
301,292,302,312,0
302,295,303,311,0
302,299,305,310,0
303,298,305,309,0
302,293,305,307,0
302,288,305,304,0
303,286,304,299,0
303,282,304,296,0
304,278,303,296,0
304,274,303,297,0
305,272,304,300,0
307,270,306,305,0
308,274,308,308,0
309,280,308,310,0
309,279,307,311,0
308,272,306,312,0
308,267,306,312,0
308,269,306,313,0
308,281,308,313,0
310,299,309,314,0
313,318,309,313,0
316,333,309,313,0
317,345,308,311,0
316,354,307,311,0
312,357,307,309,0
306,354,305,307,0
302,351,305,305,0
301,346,307,305,0
302,342,308,304,0
303,336,307,304,0
304,330,306,302,0
306,327,304,300,0
310,326,303,297,0
314,328,304,296,0
317,328,307,296,0
318,319,309,298,0
314,301,310,300,0
308,278,309,303,0
300,258,308,307,0
294,253,307,311,0
294,266,307,315,0
298,287,308,317,0
302,300,309,317,0
303,301,308,315,0
302,295,307,312,0
301,288,307,308,0
301,284,306,303,0
300,281,306,298,0
301,276,305,297,0
303,269,306,297,0
306,265,308,298,0
310,263,308,298,0
312,266,308,298,0
313,275,307,299,0
313,290,307,301,0
312,304,307,303,0
311,314,308,305,0
310,315,309,306,0
308,310,309,306,0
306,307,307,304,0
304,311,305,302,0
302,321,302,300,0
302,333,299,300,0
302,339,297,301,0
304,341,297,304,0
304,338,297,307,0
304,332,298,309,0
304,322,300,309,0
305,315,302,309,0
307,314,306,308,0
308,317,309,305,0
310,321,310,302,0
311,325,310,301,0
311,328,308,301,0
308,328,306,302,0
305,325,303,303,0
301,321,302,304,0
298,316,301,306,0
297,310,302,307,0
296,302,302,309,0
297,294,304,310,0
298,284,305,310,0
298,271,305,309,0
297,257,303,309,0
297,241,303,310,0
297,228,304,312,0
297,222,305,312,0
297,228,305,312,0
298,243,306,311,0
300,256,306,308,0
301,262,305,299,0
300,262,301,291,0
300,265,299,286,0
300,269,298,285,0
302,273,298,288,0
304,280,299,290,0
306,288,300,294,0
307,299,301,298,0
308,313,303,302,0
308,328,304,307,0
309,339,304,311,0
310,344,304,315,0
313,340,305,318,0
316,332,306,320,0
319,321,305,320,0
320,313,304,319,0
320,313,304,317,0
320,321,302,314,0
319,329,301,311,0
318,329,301,308,0
314,326,301,306,0
311,323,303,304,0
308,322,304,302,0
306,318,306,301,0
306,309,307,300,0
307,301,310,299,0
308,300,311,298,0
309,308,311,294,0
309,321,309,287,0
307,327,306,283,0
303,319,304,283,0
297,299,304,288,0
292,272,304,296,0
289,249,306,305,0
289,241,307,312,0
291,243,307,315,0
294,248,308,318,0
301,250,310,322,0
306,251,312,323,0
308,253,313,323,0
307,266,313,323,0
308,295,316,324,0
308,329,319,323,0
308,352,320,322,0
305,360,320,320,0
302,359,319,317,0
300,354,316,315,0
299,349,313,314,0
298,346,310,313,0
298,347,307,312,0
299,347,306,311,0
300,342,304,309,0
300,330,303,308,0
302,313,303,307,0
304,300,303,306,0
308,292,305,307,0
310,288,308,308,0
310,282,311,310,0
308,274,313,313,0
305,267,315,316,0
303,265,317,317,0
301,269,316,318,0
299,275,314,317,0
299,279,312,317,0
299,281,311,317,0
300,284,309,317,0
302,293,309,317,0
304,304,309,317,0
305,313,309,316,0
303,316,307,314,0
301,311,305,313,0
299,301,305,311,0
299,294,305,311,0
300,291,305,311,0
302,289,306,311,0
304,287,308,312,0
307,289,310,313,0
310,293,310,313,0
311,296,309,312,0
312,296,308,312,0
313,299,308,313,0
315,304,309,313,0
317,312,311,311,0
320,320,312,309,0
319,325,311,305,0
316,328,308,299,0
311,330,306,296,0
307,329,305,296,0
303,322,304,297,0
299,311,303,299,0
297,300,301,301,0
296,290,301,302,0
297,281,302,302,0
298,268,304,303,0
299,255,306,303,0
301,250,308,300,0
303,263,308,294,0
305,288,308,290,0
307,311,307,287,0
309,326,307,288,0
310,335,305,289,0
309,341,303,291,0
309,345,300,293,0
309,343,300,295,0
307,335,298,297,0
305,324,298,300,0
301,312,298,303,0
299,301,298,305,0
298,296,300,306,0
297,295,301,305,0
298,296,303,301,0
299,296,305,298,0
301,293,306,297,0
302,291,307,295,0
301,290,307,294,0
299,293,308,294,0
298,300,310,297,0
300,307,311,300,0
302,312,313,304,0
304,315,313,307,0
306,316,312,308,0
306,313,310,307,0
307,308,308,305,0
307,298,306,304,0
306,283,304,303,0
304,263,303,303,0
302,248,302,305,0
303,241,303,309,0
305,250,305,313,0
309,271,307,317,0
310,291,309,319,0
308,303,308,320,0
305,307,307,320,0
303,309,306,321,0
301,313,306,321,0
301,318,306,320,0
302,322,306,320,0
302,326,307,318,0
302,324,307,317,0
302,318,306,317,0
302,312,307,317,0
304,313,308,317,0
305,314,310,318,0
306,310,313,319,0
304,299,316,320,0
301,280,318,320,0
295,258,317,320,0
289,244,315,319,0
286,237,313,318,0
287,233,313,318,0
293,230,313,318,0
303,235,314,319,0
316,253,318,320,0
327,285,321,320,0
329,318,320,317,0
324,346,314,313,0
317,363,307,308,0
311,368,303,306,0
307,364,300,305,0
303,353,300,305,0
299,337,300,305,0
297,324,301,306,0
296,314,301,307,0
297,314,302,307,0
299,321,302,308,0
302,331,302,309,0
305,341,302,310,0
308,350,303,311,0
311,354,304,312,0
312,352,305,312,0
313,344,306,312,0
313,331,307,312,0
311,314,306,310,0
309,295,304,310,0
308,278,303,311,0
308,270,305,312,0
309,269,307,312,0
307,270,308,311,0
303,270,309,309,0
297,266,309,307,0
291,263,309,305,0
287,267,309,305,0
284,279,308,304,0
286,297,307,305,0
290,315,305,304,0
295,329,302,303,0
300,336,299,301,0
304,340,297,301,0
307,339,294,300,0
308,332,291,298,0
307,320,289,296,0
304,305,288,294,0
302,293,288,292,0
302,288,289,290,0
302,287,290,286,0
301,286,291,280,0
300,286,294,272,0
299,286,297,267,0
299,288,301,267,0
299,294,304,271,0
300,299,306,278,0
301,301,308,284,0
303,298,309,288,0
305,291,308,293,0
306,280,307,297,0
306,275,306,301,0
308,283,306,304,0
311,297,308,308,0
314,310,309,311,0
315,320,308,312,0
312,325,307,310,0
308,327,306,308,0
304,326,305,305,0
300,320,305,306,0
296,311,305,309,0
294,301,305,313,0
293,291,305,316,0
294,284,306,320,0
297,284,309,321,0
302,292,310,321,0
308,304,312,319,0
314,314,314,318,0
320,319,316,318,0
323,315,319,320,0
321,304,321,322,0
314,289,321,324,0
303,274,320,325,0
293,263,318,325,0
285,259,315,324,0
282,261,314,323,0
282,272,313,322,0
287,287,312,322,0
292,299,311,321,0
296,303,310,321,0
301,301,310,322,0
305,301,310,322,0
308,302,311,321,0
310,302,311,319,0
309,299,310,317,0
307,294,310,315,0
305,288,311,314,0
304,286,312,314,0
303,289,312,314,0
302,299,311,313,0
301,312,309,311,0
299,323,307,310,0
298,331,305,310,0
298,335,304,311,0
298,337,303,311,0
298,336,304,312,0
299,334,304,312,0
299,332,305,312,0
298,328,305,311,0
298,318,305,311,0
299,303,306,312,0
300,283,306,313,0
301,265,306,313,0
303,256,306,313,0
305,260,306,313,0
306,275,306,313,0
307,294,305,312,0
305,306,303,311,0
301,306,301,310,0
297,292,299,311,0
294,269,300,313,0
294,242,304,317,0
297,221,308,321,0
302,210,312,323,0
308,211,315,324,0
312,226,319,322,0
314,255,318,319,0
312,286,312,314,0
308,308,305,310,0
303,326,301,307,0
302,339,298,306,0
303,348,298,305,0
304,355,297,305,0
307,362,298,306,0
308,366,298,306,0
309,368,299,305,0
308,367,300,304,0
306,361,300,303,0
303,352,300,303,0
302,343,301,304,0
303,337,302,305,0
305,332,304,305,0
307,329,304,303,0
307,323,302,298,0
306,315,298,291,0
307,314,296,286,0
311,318,295,285,0
315,326,296,288,0
318,332,298,292,0
320,332,301,297,0
323,327,305,303,0
324,321,308,308,0
320,313,310,313,0
314,300,311,315,0
307,281,311,315,0
299,258,310,312,0
291,238,308,307,0
285,232,308,303,0
284,244,307,301,0
285,265,305,298,0
285,281,303,295,0
285,291,302,295,0
287,302,302,297,0
290,317,302,301,0
292,334,302,304,0
295,351,303,307,0
296,362,304,309,0
298,366,305,311,0
300,366,305,312,0
301,363,305,311,0
302,358,304,310,0
304,350,304,308,0
305,338,303,307,0
305,324,301,307,0
305,308,301,306,0
304,291,301,307,0
304,275,302,310,0
304,262,304,314,0
303,250,306,317,0
304,243,307,319,0
308,248,309,319,0
312,258,310,317,0
313,265,309,311,0
311,274,309,304,0
308,290,309,298,0
307,312,311,297,0
309,343,315,301,0
314,376,318,308,0
318,399,316,313,0
321,405,312,317,0
322,398,307,319,0
319,385,303,319,0
315,369,299,318,0
310,346,297,317,0
305,320,296,316,0
302,297,296,315,0
301,282,297,315,0
302,275,298,315,0
302,274,299,314,0
303,279,300,314,0
305,287,301,313,0
306,298,302,312,0
307,306,301,312,0
305,308,300,312,0
303,304,298,313,0
300,296,298,315,0
298,286,300,318,0
297,280,303,320,0
297,284,307,321,0
298,298,308,319,0
299,316,307,315,0
300,327,305,308,0
300,331,304,301,0
301,332,302,297,0
302,331,302,295,0
304,324,301,296,0
305,312,302,297,0
307,301,304,300,0
311,296,307,303,0
315,297,310,306,0
319,296,312,308,0
319,294,312,308,0
316,295,311,307,0
309,301,308,306,0
302,308,307,306,0
296,312,306,307,0
292,312,306,308,0
291,311,308,309,0
291,310,310,310,0
292,308,312,311,0
293,308,314,311,0
293,309,315,311,0
294,312,315,311,0
295,320,315,312,0
297,322,312,311,0
298,313,309,310,0
299,298,304,308,0
302,283,300,307,0
304,271,298,307,0
306,263,297,308,0
308,258,298,308,0
307,255,299,309,0
306,252,301,309,0
305,254,303,310,0
305,260,307,311,0
306,268,311,313,0
306,281,315,314,0
307,296,318,314,0
309,307,319,314,0
312,317,320,314,0
313,335,319,310,0
313,355,317,304,0
314,371,314,298,0
313,373,309,290,0
309,359,302,283,0
303,338,295,278,0
297,323,293,277,0
294,319,294,281,0
295,326,298,286,0
298,339,301,292,0
301,349,302,295,0
302,352,301,295,0
303,348,298,294,0
303,342,296,294,0
305,337,295,296,0
305,335,296,299,0
305,335,297,301,0
303,334,299,304,0
300,330,301,305,0
297,320,303,306,0
296,303,304,306,0
296,288,306,307,0
297,283,308,310,0
299,289,310,313,0
302,300,311,316,0
304,312,311,317,0
306,321,310,317,0
308,326,310,317,0
309,325,311,316,0
308,318,311,316,0
304,309,310,314,0
299,301,307,311,0
296,297,305,307,0
294,298,305,305,0
294,303,304,305,0
294,304,304,305,0
294,299,304,306,0
294,288,305,306,0
294,268,307,308,0
294,247,309,310,0
293,228,311,312,0
294,217,314,313,0
295,221,316,314,0
297,240,317,314,0
298,265,316,312,0
300,288,315,311,0
303,309,313,310,0
308,330,312,308,0
312,346,310,306,0
313,351,308,305,0
312,349,305,305,0
311,343,304,306,0
312,339,305,307,0
313,334,305,307,0
313,327,305,305,0
311,319,304,302,0
308,308,303,298,0
304,296,302,292,0
302,293,303,289,0
303,301,306,288,0
306,315,310,291,0
310,325,313,296,0
314,329,314,302,0
318,333,315,308,0
321,336,315,311,0
322,343,314,312,0
321,347,312,312,0
317,347,310,311,0
313,343,309,309,0
310,338,308,308,0
309,337,307,308,0
308,343,307,306,0
306,346,304,305,0
301,341,299,302,0
294,329,297,298,0
287,312,296,293,0
282,292,295,286,0
278,274,295,279,0
277,260,297,272,0
276,250,298,266,0
276,245,302,263,0
278,243,306,268,0
282,244,311,278,0
288,251,318,291,0
298,265,323,303,0
308,279,325,310,0
317,291,325,313,0
320,300,323,312,0
320,309,318,309,0
317,319,313,307,0
315,327,308,308,0
312,331,304,308,0
309,328,299,307,0
306,318,296,307,0
305,306,295,306,0
307,301,297,307,0
312,304,300,308,0
315,315,304,309,0
316,327,307,312,0
314,332,308,315,0
309,332,308,316,0
303,328,306,317,0
298,321,305,318,0
296,310,306,318,0
297,301,309,317,0
299,298,310,315,0
301,302,310,312,0
303,311,308,308,0
304,319,305,303,0
304,326,302,299,0
305,331,301,296,0
305,331,301,296,0
304,328,302,297,0
301,320,302,297,0
297,309,302,297,0
293,298,302,298,0
291,288,303,300,0
291,281,304,302,0
292,276,306,305,0
294,270,307,307,0
293,264,308,308,0
292,260,309,309,0
292,262,310,310,0
294,271,312,312,0
297,282,312,313,0
299,292,313,314,0
301,301,313,315,0
303,307,312,316,0
304,311,311,316,0
303,313,310,316,0
301,309,309,316,0
299,306,308,316,0
300,311,308,315,0
301,321,307,314,0
304,335,307,312,0
308,347,307,311,0
313,348,309,311,0
315,341,310,312,0
315,328,311,313,0
315,315,311,315,0
315,312,313,315,0
317,317,313,313,0
318,325,313,309,0
319,332,312,304,0
317,334,310,302,0
315,330,309,301,0
314,328,309,303,0
314,326,309,307,0
313,320,308,310,0
310,306,306,312,0
306,289,304,313,0
302,277,303,313,0
298,273,302,311,0
297,280,303,310,0
299,297,303,309,0
300,312,304,307,0
300,322,305,306,0
299,323,306,306,0
297,314,305,306,0
294,300,305,307,0
293,291,304,308,0
293,286,303,307,0
294,278,302,306,0
295,266,301,307,0
299,257,300,308,0
303,260,302,310,0
307,274,304,308,0
309,290,304,304,0
307,304,302,301,0
304,315,299,299,0
302,323,298,300,0
300,331,298,301,0
300,339,299,303,0
301,342,300,303,0
301,338,300,302,0
302,328,300,301,0
303,312,301,301,0
303,293,302,301,0
302,278,303,302,0
302,275,303,303,0
303,283,304,305,0
305,301,304,306,0
308,319,304,309,0
310,330,303,311,0
311,326,301,312,0
311,310,299,312,0
310,290,298,311,0
311,276,299,312,0
313,277,300,313,0
313,285,302,312,0
313,297,302,311,0
314,310,303,311,0
315,322,305,311,0
316,332,306,312,0
316,339,308,313,0
316,344,308,313,0
314,343,308,313,0
311,337,308,312,0
307,330,307,311,0
304,322,307,310,0
303,315,308,310,0
304,309,309,311,0
306,304,309,312,0
308,301,309,312,0
310,302,310,313,0
311,303,310,312,0
310,301,309,311,0
308,296,308,310,0
304,289,307,310,0
302,285,305,309,0
301,286,304,308,0
301,292,302,309,0
301,298,301,309,0
301,296,300,310,0
300,279,301,312,0
297,250,302,314,0
293,222,303,316,0
292,209,307,319,0
297,224,312,321,0
303,257,316,321,0
307,284,317,320,0
311,299,316,318,0
313,307,314,318,0
316,312,313,316,0
317,311,311,314,0
317,302,309,311,0
316,297,307,308,0
317,304,307,305,0
316,316,307,303,0
315,323,307,301,0
313,319,308,301,0
310,310,310,301,0
306,304,310,301,0
301,307,310,300,0
300,314,310,300,0
297,321,311,299,0
294,323,310,298,0
293,324,310,296,0
294,323,310,296,0
297,312,311,298,0
301,296,311,300,0
305,280,311,303,0
310,268,313,307,0
315,261,316,310,0
317,258,316,310,0
314,256,315,310,0
311,258,313,309,0
310,266,313,309,0
309,279,312,309,0
308,294,310,307,0
307,307,306,303,0
307,317,302,300,0
310,322,301,299,0
314,327,302,299,0
315,338,304,300,0
312,358,306,301,0
307,379,308,302,0
302,393,309,302,0
299,401,309,299,0
296,404,305,295,0
293,400,301,290,0
292,389,297,286,0
291,376,295,282,0
293,369,296,282,0
298,368,299,284,0
303,368,303,288,0
308,363,306,292,0
311,352,307,295,0
313,338,308,295,0
312,323,307,294,0
309,311,305,291,0
306,302,303,289,0
305,295,302,286,0
304,291,300,280,0
303,288,300,273,0
302,285,301,268,0
300,277,304,267,0
300,265,307,270,0
302,254,311,276,0
304,250,315,285,0
304,250,317,294,0
302,252,315,300,0
299,254,310,305,0
298,257,306,309,0
299,260,303,312,0
300,258,302,313,0
303,253,305,316,0
305,246,308,319,0
305,239,311,322,0
304,234,313,325,0
305,236,316,327,0
306,244,317,328,0
306,249,318,327,0
307,253,319,326,0
307,261,320,323,0
305,273,319,319,0
304,293,318,316,0
302,314,316,314,0
300,331,314,312,0
300,342,311,310,0
301,349,310,308,0
303,354,311,307,0
306,357,312,306,0
307,356,313,305,0
306,351,313,304,0
303,342,313,304,0
301,335,312,305,0
299,331,312,307,0
299,332,311,309,0
301,333,311,310,0
306,330,309,311,0
310,323,308,311,0
312,315,307,311,0
313,314,308,312,0
314,322,311,313,0
313,334,312,313,0
309,335,310,312,0
304,324,308,312,0
301,311,308,312,0
301,304,309,312,0
300,301,309,310,0
299,299,307,309,0
300,297,305,308,0
302,297,306,308,0
306,295,307,309,0
306,289,307,309,0
304,276,306,308,0
300,257,305,308,0
298,237,304,307,0
298,228,304,305,0
300,232,304,302,0
300,245,302,298,0
300,261,300,296,0
300,281,298,297,0
300,302,298,300,0
300,314,299,302,0
299,311,299,303,0
298,302,299,305,0
297,296,302,306,0
298,296,305,306,0
299,297,307,306,0
299,295,308,306,0
298,290,308,308,0
298,285,308,310,0
299,283,309,311,0
298,284,309,310,0
295,286,307,309,0
292,290,305,308,0
289,296,304,307,0
288,303,303,307,0
287,312,302,306,0
287,314,300,305,0
288,305,299,304,0
290,284,298,303,0
292,258,297,302,0
295,240,297,301,0
298,238,300,302,0
302,246,303,303,0
305,263,306,304,0
307,282,309,305,0
309,302,310,306,0
311,321,311,308,0
313,338,312,309,0
315,353,312,307,0
317,364,312,302,0
315,368,311,297,0
311,365,307,292,0
306,358,303,288,0
303,352,298,285,0
303,349,295,286,0
306,351,295,290,0
310,351,296,295,0
311,347,298,301,0
309,339,301,306,0
305,331,302,311,0
301,319,303,315,0
298,304,304,317,0
297,289,305,319,0
298,277,306,321,0
300,271,308,322,0
302,273,310,323,0
303,275,312,322,0
304,274,313,320,0
305,274,315,319,0
306,276,315,317,0
306,279,315,316,0
305,282,313,316,0
304,282,311,315,0
302,278,310,313,0
298,272,309,312,0
296,270,309,311,0
294,277,311,311,0
295,288,312,310,0
295,294,313,309,0
296,295,313,308,0
298,298,312,306,0
298,305,310,304,0
298,315,307,304,0
297,322,307,304,0
297,325,307,305,0
297,322,307,306,0
297,317,306,308,0
298,309,307,310,0
299,292,307,311,0
297,266,305,312,0
296,235,305,313,0
296,206,306,315,0
297,193,309,317,0
299,198,310,318,0
302,213,310,317,0
304,231,309,315,0
303,249,306,312,0
300,264,304,310,0
299,279,303,308,0
301,296,303,308,0
305,311,304,309,0
309,326,306,309,0
311,334,306,308,0
311,335,305,307,0
311,334,306,307,0
312,331,307,309,0
312,322,309,310,0
312,321,311,312,0
312,336,314,313,0
313,363,315,313,0
313,385,315,312,0
312,395,313,308,0
309,394,307,303,0
306,387,302,297,0
303,372,297,292,0
300,351,296,291,0
297,327,296,292,0
293,310,297,295,0
288,301,301,301,0
286,303,305,306,0
288,316,309,310,0
291,327,310,312,0
293,328,310,310,0
296,321,310,309,0
300,310,309,307,0
303,302,309,306,0
304,296,307,304,0
303,286,306,301,0
300,273,304,296,0
297,260,303,291,0
297,245,303,289,0
298,225,303,291,0
300,204,304,296,0
303,193,306,304,0
307,200,308,312,0
312,222,310,318,0
315,251,309,320,0
317,276,307,321,0
318,297,305,319,0
317,315,303,316,0
314,330,302,314,0
309,341,303,313,0
303,350,305,313,0
299,354,307,315,0
295,356,308,317,0
294,355,309,317,0
294,352,309,318,0
295,344,308,318,0
294,332,307,318,0
295,318,306,317,0
295,305,307,317,0
295,296,307,316,0
296,294,308,316,0
298,302,309,315,0
301,314,310,316,0
305,323,311,316,0
308,330,310,316,0
311,337,309,315,0
312,340,307,314,0
310,335,305,312,0
307,328,304,309,0
303,325,303,306,0
301,327,304,303,0
301,334,307,301,0
301,338,309,301,0
300,334,309,301,0
297,321,308,302,0
296,303,306,304,0
297,284,306,307,0
299,272,306,309,0
302,267,306,312,0
303,268,306,313,0
302,270,306,314,0
300,272,306,314,0
298,272,305,312,0
295,265,304,311,0
294,259,304,310,0
294,257,303,308,0
295,263,304,307,0
297,275,305,308,0
299,290,307,309,0
299,302,307,309,0
298,314,307,309,0
297,327,308,310,0
298,338,309,310,0
300,345,308,309,0
301,344,306,307,0
301,330,304,304,0
300,307,304,300,0
300,284,304,296,0
302,269,304,293,0
304,266,305,289,0
308,271,305,288,0
312,282,306,287,0
317,292,307,289,0
320,301,307,293,0
321,308,305,296,0
319,318,303,299,0
315,332,302,300,0
310,343,301,301,0
303,347,300,301,0
298,345,301,300,0
296,338,303,301,0
295,334,305,302,0
295,334,306,304,0
297,332,305,306,0
298,324,304,307,0
301,317,304,310,0
304,316,305,312,0
307,317,306,312,0
307,319,306,312,0
307,318,305,312,0
305,314,305,312,0
304,308,306,313,0
304,301,306,313,0
303,295,305,313,0
304,291,304,311,0
304,287,304,310,0
304,281,305,310,0
305,273,305,310,0
304,265,306,310,0
303,260,306,310,0
302,259,306,308,0
302,271,306,305,0
304,294,307,303,0
305,314,308,301,0
306,324,308,301,0
307,324,308,303,0
310,320,310,307,0
313,315,311,310,0
313,307,311,312,0
311,299,308,313,0
308,293,305,312,0
305,287,303,312,0
304,280,301,312,0
304,277,302,313,0
305,279,303,315,0
304,282,304,316,0
302,284,304,315,0
300,288,304,314,0
298,293,304,311,0
297,304,304,306,0
297,320,306,301,0
299,336,308,298,0
300,346,309,296,0
301,344,309,296,0
301,333,309,297,0
303,324,309,300,0
305,320,308,303,0
306,319,307,305,0
308,315,307,308,0
310,309,307,310,0
312,300,307,310,0
311,290,306,309,0
311,288,304,307,0
311,297,303,305,0
312,313,303,304,0
314,332,305,307,0
315,344,307,312,0
314,341,309,315,0
310,328,308,316,0
305,311,307,315,0
300,293,305,313,0
295,275,304,313,0
292,258,304,314,0
291,245,305,315,0
293,241,306,317,0
296,246,307,317,0
300,256,307,317,0
303,268,307,316,0
307,277,308,315,0
310,281,309,314,0
312,283,310,312,0
310,283,308,308,0
306,283,306,305,0
303,287,304,303,0
302,294,304,302,0
302,303,305,302,0
302,312,305,302,0
302,323,304,301,0
302,336,304,300,0
301,348,303,299,0
303,358,303,299,0
304,363,303,300,0
303,357,302,300,0
301,343,300,300,0
298,323,298,301,0
296,301,296,301,0
295,278,296,302,0
294,261,297,303,0
296,254,301,304,0
298,254,304,305,0
300,256,307,305,0
301,254,308,306,0
302,248,308,307,0
302,245,308,309,0
303,250,310,312,0
306,262,311,314,0
306,273,312,316,0
304,275,311,316,0
301,273,311,317,0
301,277,313,320,0
304,294,317,323,0
307,309,320,323,0
307,319,321,319,0
305,328,320,313,0
301,338,318,308,0
298,346,316,304,0
297,350,314,303,0
297,348,312,304,0
298,344,310,305,0
299,341,308,307,0
301,342,307,310,0
304,347,307,313,0
304,351,307,315,0
304,349,308,317,0
303,345,309,318,0
301,341,308,317,0
301,338,307,315,0
302,336,308,314,0
304,332,308,313,0
306,324,307,312,0
308,311,307,312,0
308,298,307,311,0
307,290,308,312,0
307,289,311,314,0
307,291,313,316,0
309,290,314,316,0
308,284,313,316,0
306,275,313,314,0
305,272,313,312,0
303,275,314,310,0
300,278,314,307,0
296,279,312,302,0
293,280,311,298,0
293,285,309,297,0
295,296,306,298,0
296,307,303,301,0
298,315,301,306,0
298,316,298,311,0
298,313,295,315,0
297,306,292,315,0
296,299,290,315,0
296,299,290,315,0
298,300,293,316,0
300,297,296,319,0
301,286,299,320,0
301,267,302,321,0
300,247,304,321,0
301,234,305,320,0
302,232,305,319,0
304,241,306,318,0
305,261,306,317,0
306,285,306,315,0
307,311,306,313,0
307,330,306,312,0
306,342,306,311,0
304,346,306,310,0
302,346,306,309,0
302,341,306,308,0
301,332,307,307,0
300,318,307,305,0
299,296,307,304,0
299,270,306,302,0
299,247,305,301,0
301,237,303,300,0
305,248,303,301,0
311,276,305,303,0
316,306,307,304,0
317,325,309,305,0
316,329,311,307,0
311,321,312,309,0
304,307,310,309,0
297,290,307,308,0
290,276,304,308,0
288,271,302,309,0
290,275,302,310,0
295,286,304,313,0
302,301,305,316,0
306,314,308,318,0
308,323,309,319,0
309,328,311,319,0
310,328,311,319,0
309,324,311,318,0
308,320,310,317,0
307,321,310,315,0
307,324,309,313,0
306,326,308,311,0
305,327,307,309,0
304,327,306,308,0
304,327,306,308,0
303,325,305,308,0
302,317,303,309,0
301,303,303,310,0
302,290,304,311,0
303,280,305,311,0
304,277,306,310,0
304,283,307,308,0
303,296,308,304,0
300,310,306,299,0
298,314,304,295,0
295,300,300,292,0
293,274,298,292,0
292,251,300,294,0
294,241,303,298,0
298,240,307,303,0
301,249,309,307,0
305,260,311,310,0
308,273,312,313,0
311,289,312,315,0
314,305,315,317,0
315,317,316,318,0
314,324,314,316,0
312,329,311,312,0
309,332,309,309,0
305,333,308,309,0
298,325,309,311,0
291,310,310,315,0
283,294,310,318,0
276,284,309,318,0
274,289,308,318,0
277,306,308,318,0
283,326,309,317,0
289,337,308,315,0
294,336,306,314,0
298,328,304,313,0
300,317,303,313,0
302,306,303,314,0
304,298,304,316,0
308,297,306,318,0
315,302,308,320,0
320,305,308,319,0
320,304,305,316,0
318,305,302,311,0
316,311,299,306,0
315,319,297,302,0
314,327,296,298,0
312,331,296,296,0
310,333,296,297,0
308,332,297,298,0
307,328,297,300,0
304,321,298,301,0
302,317,299,303,0
302,318,302,304,0
302,320,304,306,0
303,323,305,306,0
305,324,305,305,0
307,319,304,303,0
309,311,305,300,0
309,300,304,296,0
306,289,303,292,0
303,279,302,289,0
300,273,301,288,0
299,271,301,288,0
301,273,303,290,0
303,277,304,292,0
303,284,306,296,0
304,292,308,301,0
304,298,309,305,0
302,297,309,307,0
300,292,308,306,0
297,284,306,304,0
295,275,306,302,0
295,267,306,299,0
296,260,308,297,0
298,254,310,299,0
302,253,311,303,0
304,257,311,308,0
306,263,309,311,0
306,270,307,312,0
306,279,305,311,0
305,291,304,309,0
305,305,305,308,0
303,315,307,308,0
300,317,308,309,0
296,317,310,311,0
293,319,310,313,0
291,321,309,315,0
290,320,309,317,0
291,311,309,318,0
292,298,308,318,0
293,284,308,318,0
294,279,308,319,0
297,289,309,319,0
301,309,310,319,0
305,327,308,318,0
306,336,306,316,0
307,334,303,314,0
306,324,301,313,0
305,311,300,312,0
304,302,300,312,0
305,298,304,313,0
306,291,310,314,0
306,277,314,315,0
304,258,316,314,0
302,245,317,313,0
302,247,316,313,0
304,264,315,312,0
307,290,314,310,0
308,315,314,309,0
309,333,313,309,0
307,342,314,310,0
307,346,314,310,0
305,346,314,310,0
304,345,314,310,0
304,343,314,310,0
302,337,313,309,0
300,328,312,308,0
299,319,311,308,0
300,314,311,308,0
302,317,311,309,0
304,324,311,309,0
306,331,310,309,0
307,333,308,309,0
308,326,306,309,0
307,310,304,309,0
304,292,302,309,0
302,282,301,309,0
302,284,302,310,0
303,293,303,309,0
304,300,302,307,0
304,305,302,306,0
305,314,303,307,0
306,327,306,311,0
306,338,309,314,0
304,341,309,315,0
303,336,310,316,0
304,329,313,318,0
307,324,315,320,0
310,321,316,320,0
308,311,316,319,0
303,297,315,317,0
297,284,313,315,0
293,274,312,313,0
293,275,312,311,0
295,287,311,309,0
298,304,308,306,0
299,316,304,303,0
299,322,301,300,0
298,321,298,299,0
297,315,295,298,0
296,308,294,298,0
297,301,293,299,0
298,297,292,300,0
299,300,293,303,0
301,303,294,305,0
302,301,295,307,0
304,294,297,309,0
306,287,298,310,0
308,281,301,311,0
310,279,303,312,0
313,283,306,312,0
314,288,308,312,0
314,292,309,311,0
313,293,309,309,0
310,288,308,308,0
306,278,308,307,0
302,267,310,306,0
302,267,311,306,0
302,279,311,305,0
302,293,309,304,0
303,299,306,302,0
302,299,304,302,0
303,295,303,304,0
304,291,305,305,0
305,292,308,304,0
305,294,310,301,0
304,295,312,298,0
303,299,315,297,0
303,304,317,296,0
304,309,316,296,0
305,314,314,298,0
304,317,312,300,0
304,320,307,300,0
302,321,303,299,0
300,323,299,297,0
299,326,298,295,0
299,333,299,295,0
300,338,303,295,0
300,338,306,297,0
300,336,307,300,0
301,334,307,304,0
303,338,307,309,0
305,345,306,314,0
306,350,304,316,0
304,349,303,318,0
302,345,303,318,0
301,343,303,318,0
303,344,304,319,0
304,343,306,321,0
305,339,310,322,0
305,332,313,323,0
306,320,313,323,0
305,306,312,322,0
304,292,310,320,0
303,282,308,319,0
303,276,308,318,0
304,275,308,318,0
306,278,309,319,0
306,282,309,319,0
306,285,308,318,0
305,288,307,316,0
305,292,305,314,0
307,297,305,312,0
312,299,305,310,0
318,296,306,309,0
321,288,307,308,0
319,273,309,308,0
311,254,310,310,0
302,239,311,313,0
296,234,312,317,0
292,239,313,320,0
291,256,315,323,0
292,275,315,324,0
293,288,313,322,0
293,291,310,319,0
292,284,307,318,0
291,270,305,317,0
291,257,304,317,0
293,252,303,317,0
297,258,302,316,0
301,276,301,314,0
306,303,300,311,0
311,331,300,308,0
316,356,301,307,0
319,367,302,304,0
319,362,300,302,0
320,351,298,301,0
321,340,297,301,0
324,330,297,302,0
324,318,297,303,0
323,307,298,305,0
320,300,300,307,0
316,298,303,309,0
311,297,306,309,0
305,293,307,309,0
301,289,309,310,0
298,291,311,310,0
296,298,311,309,0
293,308,311,307,0
291,315,308,304,0
291,318,306,302,0
294,323,306,303,0
299,336,308,306,0
307,353,310,309,0
312,365,312,311,0
314,365,312,310,0
312,355,311,308,0
308,338,309,305,0
305,316,308,301,0
303,295,307,300,0
302,278,307,301,0
302,272,309,303,0
301,278,310,304,0
299,285,311,306,0
297,289,310,306,0
294,287,307,306,0
294,281,303,307,0
296,274,301,308,0
301,275,300,309,0
306,286,300,307,0
309,300,302,303,0
311,309,303,300,0
313,315,307,299,0
317,326,311,300,0
317,336,313,302,0
315,345,312,304,0
312,349,311,308,0
309,347,311,312,0
306,338,309,314,0
303,322,305,314,0
301,306,303,313,0
300,298,302,312,0
300,301,302,310,0
300,309,301,308,0
299,317,301,305,0
298,323,300,305,0
298,326,302,306,0
301,325,304,309,0
305,324,306,312,0
310,320,307,314,0
312,314,307,314,0
311,307,307,313,0
309,302,307,313,0
308,302,307,312,0
308,305,306,310,0
308,307,305,307,0
308,310,303,304,0
309,312,302,300,0
310,314,302,297,0
311,314,300,295,0
311,311,299,294,0
309,306,299,294,0
307,300,300,297,0
304,294,302,301,0
303,290,305,304,0
303,282,307,306,0
303,272,308,308,0
304,265,309,310,0
306,263,310,312,0
305,261,309,312,0
301,261,306,311,0
298,264,304,309,0
296,268,302,306,0
296,267,301,303,0
298,261,300,301,0
300,254,300,300,0
305,251,303,303,0
311,254,305,308,0
314,262,306,312,0
316,273,305,316,0
316,282,303,319,0
317,291,303,321,0
316,301,303,322,0
316,312,304,320,0
313,320,304,318,0
310,328,304,315,0
308,334,303,313,0
306,336,303,311,0
303,329,302,308,0
300,307,302,307,0
296,273,302,306,0
293,241,302,306,0
292,230,304,307,0
294,244,307,308,0
298,273,309,310,0
302,302,311,311,0
304,323,311,311,0
306,335,310,312,0
307,340,311,312,0
309,343,311,313,0
314,348,312,314,0
320,356,312,315,0
324,363,312,315,0
322,360,309,313,0
315,345,306,311,0
308,327,304,311,0
304,318,304,312,0
302,320,303,311,0
300,329,301,309,0
298,335,300,308,0
296,334,298,307,0
294,327,298,306,0
294,317,298,307,0
295,311,298,307,0
298,308,300,309,0
300,309,301,309,0
301,313,303,310,0
303,315,304,310,0
303,309,305,309,0
302,297,304,308,0
299,285,304,307,0
298,276,304,307,0
298,274,304,307,0
298,275,303,306,0
297,274,302,306,0
295,271,302,305,0
292,266,303,305,0
290,263,304,304,0
289,266,304,303,0
289,275,305,302,0
291,287,305,300,0
295,299,305,298,0
300,308,303,295,0
304,311,303,292,0
309,313,303,289,0
311,317,303,284,0
310,325,303,280,0
308,334,304,278,0
306,336,305,280,0
304,332,305,283,0
302,326,304,288,0
303,325,303,291,0
306,332,304,295,0
308,340,304,296,0
308,344,304,297,0
305,343,302,298,0
303,337,300,301,0
301,330,299,305,0
302,323,300,309,0
303,315,303,312,0
305,312,306,314,0
308,312,308,314,0
309,312,311,314,0
309,313,312,315,0
309,313,313,316,0
309,314,314,316,0
308,311,315,314,0
305,299,314,310,0
300,282,312,308,0
299,264,311,309,0
300,252,312,313,0
302,249,313,316,0
303,256,312,317,0
302,271,311,317,0
302,287,308,316,0
302,299,307,315,0
300,302,305,313,0
296,295,303,310,0
292,282,303,308,0
289,266,303,307,0
289,253,305,307,0
291,247,305,307,0
294,248,304,306,0
298,256,305,306,0
302,269,307,305,0
305,289,310,305,0
308,315,311,304,0
309,336,310,301,0
308,349,308,299,0
307,353,306,299,0
306,351,304,301,0
307,348,304,304,0
307,345,305,306,0
306,341,306,307,0
303,336,306,307,0
299,332,306,307,0
296,327,305,307,0
293,319,304,308,0
291,308,304,309,0
293,299,305,312,0
297,298,307,315,0
303,304,310,316,0
309,317,312,317,0
314,331,312,316,0
315,338,311,314,0
313,337,310,312,0
309,333,309,309,0
305,326,307,305,0
299,314,304,302,0
293,302,302,299,0
290,289,300,298,0
290,278,300,298,0
292,265,299,298,0
293,248,298,298,0
295,231,298,299,0
297,220,300,302,0
298,221,303,305,0
299,238,305,308,0
299,259,306,309,0
299,273,307,310,0
299,276,307,311,0
299,272,306,310,0
301,272,304,308,0
305,284,302,304,0
311,303,302,300,0
316,322,302,294,0
317,334,300,289,0
315,345,300,287,0
314,357,302,289,0
314,368,306,294,0
316,371,309,299,0
316,367,311,303,0
315,361,311,305,0
314,354,311,306,0
312,341,309,307,0
308,324,307,308,0
304,312,306,308,0
302,313,306,308,0
302,324,308,308,0
302,340,309,306,0
301,348,308,304,0
299,343,306,301,0
297,330,306,299,0
296,319,307,297,0
297,313,309,292,0
299,315,309,285,0
301,322,309,277,0
304,325,309,272,0
306,323,310,270,0
307,316,310,273,0
309,306,310,280,0
308,296,308,288,0
307,286,305,296,0
304,274,304,303,0
302,262,305,308,0
302,253,307,314,0
302,251,309,319,0
302,262,312,323,0
300,282,313,325,0
296,299,312,325,0
291,306,310,324,0
288,302,308,322,0
287,294,305,320,0
288,287,303,318,0
290,287,302,314,0
294,297,302,310,0
297,312,301,305,0
299,323,300,300,0
300,329,298,296,0
303,328,298,295,0
307,323,301,298,0
313,325,305,302,0
316,335,310,305,0
317,342,311,307,0
315,341,311,309,0
311,332,309,310,0
307,315,308,312,0
303,299,307,313,0
301,291,307,314,0
300,293,308,315,0
300,300,309,315,0
300,305,308,315,0
300,303,308,316,0
300,298,311,319,0
302,294,315,322,0
303,287,317,322,0
303,279,316,320,0
302,271,315,317,0
302,270,314,316,0
305,279,315,315,0
307,289,315,315,0
309,299,315,314,0
308,309,314,312,0
305,314,310,308,0
299,304,305,304,0
292,287,303,302,0
286,273,302,301,0
283,273,303,301,0
283,282,304,303,0
287,291,304,302,0
290,295,304,302,0
293,295,303,302,0
296,293,304,302,0
299,291,305,302,0
302,291,306,303,0
305,293,307,303,0
308,297,308,303,0
311,299,308,304,0
312,299,308,305,0
313,301,310,306,0
314,301,310,307,0
315,304,310,308,0
314,313,308,308,0
313,321,306,308,0
311,327,306,309,0
309,329,306,310,0
306,327,306,311,0
303,324,307,312,0
301,322,308,313,0
300,322,309,313,0
298,322,309,312,0
296,322,308,310,0
295,323,307,307,0
293,326,306,305,0
292,328,303,303,0
292,326,302,304,0
294,322,302,304,0
296,314,302,303,0
297,305,302,302,0
298,301,301,300,0
297,302,299,298,0
296,307,300,297,0
296,313,301,296,0
296,316,303,295,0
295,315,304,294,0
294,308,304,293,0
293,296,303,290,0
291,280,303,287,0
287,265,303,285,0
284,256,304,284,0
283,260,306,283,0
284,270,308,283,0
286,272,310,284,0
288,263,310,286,0
290,250,311,289,0
294,245,313,296,0
299,256,315,304,0
305,279,315,311,0
309,308,317,317,0
312,332,316,319,0
311,342,314,318,0
310,343,312,317,0
309,339,311,317,0
309,336,310,317,0
310,334,308,318,0
312,334,307,318,0
312,336,306,318,0
310,336,305,316,0
307,332,305,314,0
305,327,306,314,0
303,322,307,315,0
302,317,307,316,0
300,311,307,317,0
299,308,308,319,0
301,309,309,320,0
303,313,310,320,0
305,314,311,320,0
306,310,311,319,0
308,302,312,318,0
310,289,313,317,0
310,275,313,316,0
308,264,313,314,0
304,257,313,312,0
301,256,313,312,0
299,264,313,313,0
299,281,312,313,0
298,303,310,312,0
299,326,308,311,0
299,343,306,310,0
299,351,306,310,0
298,351,306,310,0
297,340,308,312,0
297,324,310,313,0
297,306,312,313,0
298,289,312,313,0
300,271,311,313,0
303,254,311,313,0
306,240,311,315,0
311,234,313,318,0
317,236,315,320,0
321,244,316,320,0
323,255,315,318,0
320,268,313,315,0
312,282,309,310,0
304,296,306,306,0
297,308,304,304,0
294,317,303,303,0
291,319,303,303,0
289,316,303,304,0
287,315,304,305,0
287,313,306,306,0
288,313,307,308,0
290,316,308,309,0
293,323,309,310,0
297,329,310,310,0
300,330,310,310,0
302,327,310,308,0
305,323,309,306,0
310,321,307,306,0
315,324,306,306,0
319,332,305,306,0
321,337,302,305,0
320,340,300,304,0
318,339,299,304,0
316,334,301,304,0
312,330,305,307,0
311,330,309,309,0
310,334,311,309,0
311,333,311,309,0
312,330,310,308,0
313,324,309,306,0
311,315,306,304,0
308,303,305,302,0
305,289,304,303,0
304,276,304,303,0
304,267,305,304,0
306,268,304,303,0
309,282,304,301,0
313,302,304,299,0
313,322,303,297,0
312,337,303,296,0
310,347,303,297,0
307,349,304,298,0
305,343,304,299,0
305,332,303,298,0
305,319,302,295,0
303,311,299,291,0
300,305,297,288,0
297,305,298,289,0
297,312,301,293,0
299,321,304,297,0
301,331,306,299,0
304,338,308,300,0
305,343,309,299,0
305,344,308,296,0
304,342,309,291,0
303,335,311,288,0
302,326,313,287,0
299,307,313,290,0
296,279,312,295,0
295,256,309,300,0
295,247,308,304,0
297,251,308,309,0
299,268,309,313,0
301,289,310,317,0
302,305,310,321,0
302,306,310,324,0
302,299,311,328,0
303,295,312,330,0
304,296,312,330,0
306,299,313,329,0
308,298,315,325,0
309,291,314,322,0
306,281,313,319,0
304,274,312,319,0
303,273,313,321,0
303,283,315,322,0
305,304,317,325,0
308,329,319,325,0
310,344,318,324,0
310,346,315,322,0
311,343,313,320,0
310,339,310,318,0
310,332,308,316,0
308,319,304,315,0
306,302,302,314,0
303,285,299,315,0
302,272,299,316,0
304,269,302,319,0
310,275,307,322,0
314,281,310,323,0
314,281,311,321,0
311,282,310,318,0
308,291,310,316,0
307,305,310,315,0
304,319,311,313,0
303,330,310,312,0
302,334,309,310,0
300,335,309,310,0
300,334,310,310,0
302,330,310,310,0
304,320,309,311,0
305,308,308,312,0
305,296,306,312,0
304,290,306,312,0
303,290,304,310,0
301,294,303,308,0
300,304,300,305,0
299,313,299,302,0
298,319,299,300,0
297,320,300,300,0
296,318,302,300,0
296,315,303,301,0
296,314,305,304,0
298,316,306,306,0
302,318,308,308,0
304,310,309,309,0
304,290,308,309,0
306,267,308,310,0
310,255,309,311,0
316,257,311,313,0
321,271,313,313,0
324,296,313,312,0
322,322,311,310,0
318,342,307,307,0
312,352,302,304,0
306,355,299,301,0
303,353,297,300,0
303,347,298,300,0
304,342,299,300,0
305,338,299,298,0
307,333,298,294,0
309,326,297,289,0
312,318,297,282,0
313,311,299,276,0
312,305,299,270,0
308,302,299,266,0
304,303,299,264,0
299,303,300,265,0
294,300,299,271,0
291,301,301,283,0
293,309,303,296,0
297,321,306,307,0
300,329,306,314,0
302,325,304,317,0
300,311,302,317,0
297,290,300,318,0
293,268,301,319,0
291,252,303,322,0
289,248,305,325,0
289,256,308,327,0
292,273,310,328,0
297,291,312,327,0
301,301,313,325,0
304,300,313,324,0
306,290,313,323,0
306,281,313,324,0
307,275,313,324,0
308,273,312,323,0
311,273,312,323,0
313,275,313,323,0
314,280,313,323,0
314,287,313,323,0
313,292,312,322,0
311,292,313,324,0
313,294,315,327,0
316,296,318,329,0
317,297,318,329,0
314,295,316,326,0
310,295,313,323,0
307,299,311,320,0
306,304,310,317,0
306,307,311,316,0
307,307,312,315,0
307,304,311,313,0
305,300,310,311,0
304,302,309,309,0
302,305,309,308,0
300,300,309,307,0
298,288,308,305,0
294,279,306,302,0
292,283,303,300,0
292,301,302,297,0
296,331,302,296,0
301,361,303,296,0
306,377,304,298,0
310,376,304,301,0
313,364,304,306,0
315,347,304,311,0
318,331,305,316,0
323,322,308,321,0
325,321,309,323,0
324,321,309,324,0
320,323,308,322,0
314,325,307,320,0
309,325,305,317,0
306,315,305,315,0
304,298,305,313,0
302,272,306,311,0
301,248,308,310,0
302,233,310,311,0
305,230,312,313,0
307,241,314,314,0
308,254,314,314,0
307,258,312,312,0
302,258,309,307,0
298,266,306,302,0
295,285,302,295,0
294,311,298,290,0
294,335,296,287,0
295,353,295,288,0
296,363,295,290,0
297,369,296,289,0
298,371,296,287,0
300,369,297,286,0
303,361,299,287,0
307,351,301,291,0
311,340,306,298,0
318,328,311,305,0
326,317,316,312,0
332,308,319,316,0
334,308,320,319,0
332,317,319,319,0
328,326,315,315,0
320,331,312,310,0
312,328,307,306,0
303,321,305,306,0
298,313,306,307,0
295,309,306,310,0
293,308,307,313,0
292,308,308,315,0
292,307,309,316,0
293,308,309,317,0
296,313,311,319,0
300,316,313,319,0
302,318,313,318,0
302,316,311,316,0
303,315,310,314,0
303,311,309,313,0
303,305,309,311,0
302,298,308,309,0
301,293,306,306,0
300,290,304,305,0
300,288,303,305,0
301,286,302,306,0
301,282,302,306,0
302,281,302,305,0
304,285,304,303,0
304,288,305,301,0
302,287,304,297,0
301,282,305,294,0
303,275,307,296,0
305,260,310,301,0
304,236,311,307,0
301,208,311,313,0
299,188,312,319,0
299,184,314,323,0
301,201,315,324,0
305,232,315,324,0
308,259,314,322,0
309,274,312,318,0
307,280,309,313,0
306,289,308,309,0
305,304,308,307,0
306,319,309,308,0
307,330,308,310,0
309,335,307,311,0
308,333,305,311,0
306,328,302,310,0
302,319,300,308,0
298,309,298,306,0
295,300,298,306,0
296,298,300,307,0
300,309,305,308,0
304,325,309,309,0
306,339,311,309,0
307,345,312,309,0
307,341,312,309,0
308,327,310,309,0
309,312,309,309,0
310,301,309,309,0
310,299,310,309,0
309,305,311,309,0
307,315,311,307,0
304,324,310,305,0
301,330,309,301,0
300,337,308,300,0
301,350,308,300,0
303,364,307,301,0
306,376,307,303,0
309,383,308,306,0
312,380,310,309,0
313,367,312,312,0
312,347,313,315,0
309,320,314,317,0
304,294,315,319,0
301,278,315,321,0
300,276,316,322,0
301,281,316,321,0
302,278,313,317,0
301,266,307,311,0
299,253,301,306,0
299,246,297,302,0
301,250,295,301,0
304,263,294,301,0
305,279,293,301,0
304,286,291,300,0
302,287,290,301,0
301,294,292,302,0
300,305,293,304,0
299,314,295,304,0
298,320,297,304,0
297,325,300,302,0
298,330,302,299,0
298,333,303,295,0
299,335,302,292,0
299,336,300,291,0
300,334,299,294,0
302,331,301,298,0
304,327,303,303,0
308,325,305,307,0
310,323,308,309,0
310,320,310,311,0
308,316,312,313,0
305,316,312,317,0
303,319,313,321,0
302,321,313,324,0
302,316,311,324,0
301,306,308,322,0
301,297,306,320,0
301,292,303,318,0
301,290,301,316,0
301,290,300,315,0
301,291,300,315,0
302,299,301,315,0
304,309,303,314,0
306,311,302,313,0
307,310,302,311,0
308,308,302,311,0
310,309,303,311,0
312,312,304,310,0
312,318,305,308,0
313,324,306,304,0
313,330,306,299,0
314,336,305,295,0
314,339,303,293,0
314,339,303,294,0
314,335,303,298,0
313,328,303,304,0
311,319,303,309,0
309,311,304,314,0
307,307,306,316,0
304,308,307,317,0
303,311,309,316,0
304,315,309,313,0
305,315,308,308,0
307,312,306,305,0
309,302,305,304,0
310,293,304,303,0
309,287,303,304,0
308,285,303,305,0
307,282,304,308,0
306,280,304,312,0
306,273,304,314,0
305,264,305,317,0
305,254,306,320,0
304,243,308,322,0
301,235,308,322,0
300,228,309,323,0
302,225,309,323,0
305,228,310,322,0
308,237,310,321,0
309,249,309,319,0
309,259,309,316,0
309,263,309,314,0
307,263,308,311,0
304,270,307,308,0
302,280,306,305,0
299,287,306,303,0
297,291,305,302,0
298,293,305,301,0
300,299,304,300,0
304,311,303,299,0
308,317,304,300,0
311,315,304,302,0
314,316,304,304,0
316,323,305,306,0
316,334,305,307,0
315,347,304,307,0
314,364,304,306,0
311,378,304,304,0
307,385,303,304,0
304,383,303,303,0
301,375,304,304,0
299,364,306,305,0
299,350,307,306,0
300,332,307,305,0
303,314,306,303,0
307,302,305,301,0
310,295,304,299,0
310,290,305,298,0
308,288,305,299,0
306,294,305,301,0
305,308,305,304,0
304,326,305,306,0
303,339,306,307,0
301,343,305,307,0
300,341,306,307,0
300,338,306,306,0
300,331,305,304,0
300,324,304,304,0
303,314,305,305,0
307,306,308,307,0
311,300,312,310,0
314,294,314,311,0
314,285,314,312,0
314,272,314,311,0
314,262,314,310,0
314,259,313,309,0
314,265,312,307,0
313,277,311,305,0
312,295,310,303,0
314,315,311,303,0
317,333,310,302,0
319,346,308,302,0
319,355,307,302,0
316,359,305,302,0
311,359,305,302,0
306,357,306,301,0
302,353,307,298,0
299,339,305,295,0
295,320,302,293,0
293,303,300,293,0
294,290,299,296,0
296,279,299,300,0
300,273,301,305,0
302,271,303,309,0
303,273,304,310,0
303,279,306,309,0
302,287,307,309,0
301,294,309,311,0
299,299,309,313,0
297,302,309,313,0
297,303,308,314,0
299,310,308,314,0
301,317,307,313,0
302,318,305,312,0
302,313,305,312,0
303,305,306,313,0
303,296,309,316,0
305,293,312,320,0
308,300,313,323,0
312,318,313,326,0
317,338,313,326,0
321,355,313,324,0
322,364,312,321,0
321,359,310,317,0
317,344,307,312,0
313,326,303,306,0
309,307,301,301,0
304,288,300,298,0
301,271,301,299,0
300,256,304,302,0
302,247,307,305,0
306,248,309,306,0
310,257,310,306,0
310,273,311,305,0
309,292,311,304,0
306,308,310,304,0
302,318,307,305,0
298,324,305,305,0
296,325,302,304,0
292,323,300,303,0
291,315,298,303,0
292,301,299,304,0
296,287,299,305,0
302,280,299,306,0
307,282,299,306,0
311,289,298,306,0
312,297,298,307,0
312,305,300,308,0
313,314,302,309,0
314,325,304,310,0
316,336,306,311,0
316,340,306,309,0
314,336,305,307,0
309,329,304,306,0
306,325,303,307,0
304,324,304,310,0
303,323,306,313,0
304,322,309,315,0
305,318,310,316,0
306,313,310,316,0
307,303,312,315,0
308,289,313,312,0
310,275,315,309,0
312,263,317,307,0
316,257,318,306,0
320,260,320,308,0
325,273,319,311,0
326,292,318,311,0
324,309,315,310,0
320,325,313,309,0
316,340,311,307,0
311,351,308,305,0
305,356,305,303,0
300,356,302,303,0
296,355,301,305,0
294,352,302,308,0
294,345,303,310,0
295,335,303,313,0
297,324,304,314,0
301,316,305,315,0
305,312,306,317,0
309,311,306,317,0
311,312,307,316,0
311,316,307,315,0
311,319,307,315,0
312,317,306,314,0
311,310,306,313,0
310,305,306,312,0
310,309,307,312,0
310,320,307,312,0
309,332,307,312,0
310,344,306,312,0
309,350,306,312,0
308,347,305,311,0
306,340,305,311,0
304,332,304,310,0
303,324,304,310,0
302,318,303,309,0
302,313,303,309,0
302,308,302,309,0
302,303,301,308,0
302,294,300,308,0
303,278,301,308,0
305,260,303,309,0
310,243,307,311,0
313,231,311,312,0
314,223,314,312,0
313,225,316,310,0
308,236,317,307,0
305,257,317,304,0
302,284,315,299,0
299,306,311,295,0
297,315,306,292,0
296,312,302,291,0
297,303,299,293,0
301,298,299,295,0
306,303,301,298,0
310,316,301,299,0
310,328,301,298,0
308,333,300,296,0
304,332,299,294,0
300,328,299,294,0
297,323,299,296,0
295,320,302,300,0
296,324,304,303,0
300,336,308,308,0
305,346,309,310,0
308,347,307,310,0
309,340,304,308,0
309,327,302,308,0
310,310,301,309,0
310,294,302,310,0
309,280,302,310,0
307,271,301,310,0
305,268,300,310,0
304,271,299,311,0
304,282,300,311,0
305,292,302,310,0
307,299,304,309,0
310,305,307,308,0
315,314,310,306,0
322,325,313,305,0
326,332,314,301,0
326,329,312,298,0
324,319,310,297,0
322,311,309,298,0
320,309,308,301,0
318,315,307,303,0
315,325,305,303,0
312,333,302,300,0
308,338,300,295,0
305,340,299,291,0
303,341,298,290,0
301,340,298,291,0
298,336,299,294,0
296,326,300,297,0
296,311,303,300,0
297,296,305,303,0
299,288,306,308,0
302,291,308,314,0
304,302,308,318,0
303,315,308,320,0
301,328,308,322,0
301,339,310,323,0
302,338,312,324,0
303,328,313,324,0
303,313,312,322,0
301,296,310,320,0
298,278,308,318,0
295,262,307,317,0
293,249,307,317,0
292,239,307,318,0
293,236,306,318,0
294,241,305,317,0
296,257,305,316,0
299,277,304,314,0
302,295,305,314,0
306,313,304,313,0
311,329,304,313,0
315,344,305,313,0
319,357,306,314,0
323,364,308,314,0
322,363,308,314,0
319,355,307,313,0
315,339,307,313,0
310,320,306,313,0
307,305,306,314,0
306,293,306,314,0
306,285,305,314,0
307,285,305,313,0
308,292,304,312,0
310,301,304,310,0
310,309,303,308,0
309,317,303,306,0
307,324,303,305,0
304,326,302,303,0
300,323,302,301,0
297,314,302,298,0
295,305,302,296,0
295,300,304,297,0
297,299,305,299,0
300,297,307,303,0
303,297,308,306,0
305,302,308,308,0
307,306,307,309,0
307,308,306,309,0
308,311,306,309,0
308,315,305,308,0
307,316,304,309,0
305,317,303,309,0
303,316,302,309,0
301,314,301,309,0
299,309,301,309,0
297,300,300,310,0
294,286,301,310,0
293,270,303,311,0
294,257,305,311,0
296,250,307,311,0
299,247,309,311,0
304,255,311,311,0
309,270,312,310,0
311,285,312,308,0
312,296,311,307,0
314,309,311,307,0
316,318,312,307,0
318,318,313,307,0
317,309,313,306,0
316,299,311,304,0
314,296,308,300,0
312,302,305,296,0
311,311,300,293,0
308,317,297,291,0
305,313,296,291,0
303,306,296,294,0
301,302,298,296,0
300,303,299,297,0
299,307,301,297,0
298,309,302,299,0
297,310,302,302,0
297,310,303,305,0
297,309,304,308,0
298,306,306,312,0
300,304,309,315,0
301,300,310,316,0
304,299,312,316,0
306,302,311,314,0
306,305,308,311,0
304,307,304,307,0
301,305,298,303,0
297,298,294,299,0
295,288,291,297,0
295,280,292,298,0
296,278,295,302,0
296,282,298,307,0
294,288,300,311,0
292,294,301,314,0
291,301,302,316,0
292,311,304,317,0
295,324,304,317,0
297,334,304,316,0
300,342,304,314,0
304,349,306,313,0
309,353,309,312,0
314,356,312,310,0
318,359,314,307,0
320,357,314,303,0
318,349,313,300,0
315,336,311,300,0
312,321,310,303,0
308,302,310,307,0
306,282,309,311,0
305,267,309,314,0
307,262,309,316,0
308,268,310,316,0
307,278,310,314,0
304,286,308,312,0
299,291,306,309,0
295,292,304,306,0
292,287,302,303,0
292,281,300,301,0
294,278,300,299,0
297,280,300,298,0
301,286,300,298,0
304,296,301,300,0
307,309,302,304,0
311,318,304,309,0
315,323,306,313,0
318,326,307,315,0
319,328,306,316,0
318,331,306,315,0
317,330,305,315,0
314,323,304,313,0
311,312,303,312,0
308,305,302,311,0
307,303,301,310,0
305,302,301,309,0
304,298,300,309,0
303,289,300,309,0
303,282,301,310,0
304,282,304,312,0
304,290,306,313,0
303,300,308,313,0
302,307,310,313,0
300,307,312,312,0
299,302,313,312,0
299,301,313,311,0
302,308,313,311,0
307,320,312,309,0
313,331,310,307,0
317,337,307,303,0
317,335,302,297,0
314,329,296,291,0
309,324,291,287,0
305,322,289,284,0
302,324,290,282,0
299,324,292,283,0
298,321,295,286,0
297,316,299,292,0
296,309,301,298,0
296,301,303,304,0
298,293,305,308,0
301,289,307,310,0
304,290,308,310,0
307,294,308,307,0
309,300,308,303,0
309,305,306,300,0
310,310,305,299,0
311,312,303,298,0
311,307,300,298,0
311,301,296,298,0
312,299,294,299,0
312,301,293,299,0
310,308,294,299,0
307,316,296,300,0
304,320,298,303,0
301,318,300,307,0
299,311,302,312,0
297,301,304,315,0
298,291,306,319,0
300,282,309,322,0
301,276,311,325,0
303,272,312,325,0
304,272,314,324,0
305,278,314,323,0
307,284,314,321,0
310,293,315,319,0
314,309,316,317,0
319,329,318,314,0
321,346,318,311,0
319,357,316,307,0
316,362,314,305,0
312,363,311,306,0
307,359,308,307,0
302,350,305,309,0
299,339,304,310,0
298,328,303,311,0
297,318,304,312,0
297,310,304,312,0
297,304,304,312,0
297,299,305,313,0
299,298,308,313,0
302,301,310,313,0
304,305,311,312,0
307,305,312,312,0
309,304,313,312,0
310,304,315,312,0
312,307,315,312,0
312,311,315,310,0
312,312,314,308,0
311,310,312,305,0
310,302,310,303,0
306,290,306,301,0
303,282,303,300,0
300,285,301,300,0
299,296,300,298,0
297,310,299,296,0
296,323,298,294,0
294,330,298,294,0
292,328,296,294,0
291,319,297,297,0
293,311,300,302,0
296,305,302,305,0
299,299,303,307,0
301,294,303,307,0
303,293,303,307,0
305,297,303,307,0
307,306,303,308,0
309,312,304,309,0
311,314,304,310,0
310,310,305,311,0
307,301,305,310,0
304,292,304,309,0
302,288,304,308,0
303,291,305,308,0
306,302,306,306,0
310,317,307,304,0
313,331,307,302,0
316,343,307,301,0
317,346,307,301,0
315,342,306,302,0
312,333,304,303,0
308,321,303,304,0
304,310,302,305,0
303,303,302,305,0
304,298,304,306,0
306,291,306,307,0
308,285,307,306,0
309,283,308,304,0
309,291,307,302,0
309,302,307,300,0
308,311,307,297,0
307,317,306,294,0
304,320,305,291,0
302,320,304,290,0
300,318,304,291,0
298,312,304,294,0
298,299,304,298,0
297,280,306,302,0
296,262,308,305,0
295,249,309,307,0
295,247,311,308,0
296,259,313,311,0
300,280,315,314,0
304,298,316,315,0
307,305,315,314,0
308,306,314,313,0
309,307,313,313,0
311,318,313,314,0
311,332,312,316,0
310,342,310,316,0
307,345,308,316,0
304,342,306,316,0
302,335,306,317,0
300,331,306,318,0
298,329,306,320,0
296,329,306,322,0
294,327,307,323,0
294,320,307,324,0
296,312,308,324,0
299,307,308,325,0
302,305,309,324,0
305,306,310,324,0
308,306,311,324,0
311,304,312,323,0
314,302,312,323,0
316,301,314,323,0
317,298,315,321,0
316,294,315,319,0
313,293,313,316,0
309,299,312,315,0
306,306,312,314,0
303,312,312,315,0
301,312,312,316,0
300,304,313,317,0
298,287,312,317,0
295,269,311,318,0
294,257,312,319,0
295,257,315,320,0
299,268,318,320,0
302,285,319,319,0
302,302,318,316,0
302,319,315,313,0
301,333,311,309,0
301,343,307,305,0
301,350,304,303,0
303,355,303,302,0
304,352,303,302,0
304,343,304,302,0
303,329,304,301,0
300,310,303,300,0
298,286,300,300,0
296,264,299,302,0
297,245,300,305,0
299,233,302,309,0
304,234,305,313,0
310,252,308,316,0
314,281,311,316,0
315,309,311,315,0
315,329,309,312,0
312,339,305,309,0
308,342,302,306,0
306,341,300,305,0
305,338,299,304,0
304,333,299,304,0
303,325,302,304,0
302,316,305,305,0
303,311,310,307,0
305,315,314,309,0
308,321,317,309,0
309,324,316,307,0
310,324,313,305,0
313,325,311,305,0
316,328,310,304,0
317,331,308,303,0
313,331,307,301,0
310,332,306,298,0
306,333,306,295,0
304,334,307,293,0
304,331,307,293,0
304,324,307,294,0
304,313,308,296,0
304,304,308,299,0
305,302,309,302,0
308,304,310,304,0
310,310,311,306,0
310,314,311,306,0
308,317,311,305,0
307,317,312,304,0
308,316,313,304,0
310,314,313,303,0
311,308,313,302,0
311,298,311,303,0
311,286,310,305,0
312,278,311,308,0
311,281,311,311,0
310,294,312,312,0
307,308,312,312,0
304,316,311,312,0
301,315,309,310,0
299,308,308,309,0
298,299,308,308,0
298,293,308,307,0
299,288,308,306,0
300,285,308,306,0
300,283,308,305,0
299,275,306,305,0
298,262,305,307,0
298,251,305,310,0
298,248,306,312,0
298,254,307,315,0
298,264,308,316,0
298,275,308,317,0
298,285,308,318,0
297,289,308,319,0
297,289,309,320,0
297,290,310,320,0
298,295,311,319,0
300,304,310,317,0
302,316,308,314,0
304,327,308,312,0
305,333,309,311,0
307,337,311,311,0
309,339,312,311,0
309,336,312,311,0
307,329,312,310,0
305,321,312,310,0
301,315,312,310,0
298,316,312,310,0
299,319,313,311,0
301,319,314,311,0
303,320,314,311,0
305,325,313,309,0
308,333,311,308,0
309,342,309,308,0
309,349,308,307,0
307,354,306,306,0
305,355,305,306,0
305,349,305,306,0
306,335,305,307,0
308,313,306,307,0
310,293,309,308,0
312,288,313,309,0
313,300,315,308,0
312,315,314,307,0
310,321,311,305,0
307,317,309,303,0
305,304,308,302,0
304,291,308,303,0
306,284,310,303,0
308,277,310,303,0
308,270,310,302,0
306,265,310,300,0
303,264,309,299,0
300,271,308,300,0
299,290,307,302,0
301,310,305,305,0
302,319,302,305,0
304,323,299,305,0
305,325,297,304,0
306,323,297,303,0
307,316,299,303,0
307,305,301,301,0
307,291,303,299,0
307,277,306,300,0
310,273,310,304,0
314,284,314,308,0
320,306,316,312,0
325,329,317,313,0
326,345,315,313,0
324,351,313,312,0
321,348,311,311,0
319,346,310,311,0
317,348,309,308,0
315,348,308,303,0
313,340,305,295,0
311,329,304,289,0
309,320,301,285,0
307,319,299,282,0
309,330,299,281,0
311,348,298,281,0
314,361,298,284,0
315,367,301,289,0
315,363,304,296,0
312,346,307,301,0
308,322,309,306,0
303,300,310,310,0
300,288,311,314,0
298,291,310,318,0
298,305,311,321,0
299,319,310,323,0
301,329,311,324,0
303,333,311,324,0
303,329,312,325,0
304,320,313,326,0
304,312,313,326,0
305,306,312,327,0
307,306,312,327,0
309,309,312,327,0
310,310,312,326,0
310,304,310,324,0
310,291,310,323,0
311,280,309,322,0
312,275,309,322,0
313,271,308,321,0
312,269,307,320,0
310,268,308,319,0
308,268,308,318,0
305,267,307,317,0
302,269,307,316,0
299,272,306,316,0
299,278,307,316,0
300,283,307,317,0
302,287,306,317,0
304,288,304,317,0
304,289,303,317,0
305,288,302,317,0
307,285,302,318,0
309,281,303,318,0
310,280,304,316,0
311,282,304,314,0
311,283,305,311,0
310,284,305,307,0
308,285,304,303,0
306,288,302,299,0
305,289,302,299,0
305,287,303,300,0
304,284,303,302,0
303,280,302,304,0
303,277,303,307,0
304,277,305,310,0
308,284,308,313,0
311,298,310,313,0
314,314,309,312,0
313,329,308,311,0
312,345,308,310,0
311,358,309,310,0
309,362,308,308,0
306,356,305,306,0
303,345,304,305,0
303,335,305,306,0
305,330,307,306,0
307,325,308,305,0
308,315,308,304,0
307,301,308,303,0
306,286,307,304,0
306,275,305,307,0
307,270,305,308,0
309,272,304,307,0
309,273,302,305,0
307,274,300,300,0
306,277,298,297,0
306,284,296,297,0
306,291,297,299,0
305,293,299,303,0
303,290,303,306,0
299,285,305,309,0
297,281,308,311,0
297,284,311,313,0
299,292,313,314,0
303,302,313,313,0
307,312,311,310,0
311,322,308,307,0
314,331,307,305,0
315,338,308,306,0
315,340,308,307,0
313,337,310,309,0
310,330,311,311,0
308,322,314,313,0
307,316,315,314,0
307,315,315,314,0
307,315,314,312,0
307,317,312,311,0
307,326,310,311,0
308,340,310,312,0
309,352,311,314,0
310,354,312,317,0
311,345,312,318,0
312,329,312,318,0
310,304,312,317,0
309,278,312,315,0
309,258,312,313,0
310,251,312,310,0
310,254,311,305,0
309,259,308,299,0
306,256,305,294,0
303,247,302,293,0
303,244,302,294,0
303,250,302,297,0
304,263,303,301,0
304,278,305,304,0
305,295,305,306,0
306,312,304,308,0
307,329,305,309,0
308,347,307,309,0
308,364,309,309,0
305,374,308,307,0
301,373,306,305,0
299,363,304,304,0
298,350,303,303,0
298,334,304,303,0
299,320,306,305,0
301,313,308,307,0
303,311,309,309,0
304,312,310,310,0
304,311,310,311,0
303,306,310,310,0
302,299,310,309,0
301,294,309,307,0
302,290,309,305,0
303,288,309,302,0
304,286,310,301,0
304,283,309,301,0
302,280,308,301,0
300,282,308,302,0
300,287,308,304,0
300,291,307,306,0
300,293,306,307,0
301,289,305,308,0
302,284,305,310,0
305,278,307,313,0
309,273,309,316,0
313,272,312,319,0
316,277,313,319,0
317,282,313,318,0
316,283,312,316,0
313,283,311,313,0
308,287,309,310,0
305,298,309,307,0
305,313,308,304,0
308,329,307,301,0
312,339,307,300,0
314,340,307,300,0
313,328,307,302,0
309,306,305,303,0
305,285,304,303,0
302,278,305,304,0
302,279,307,307,0
302,283,308,310,0
301,289,309,312,0
302,301,310,314,0
305,323,314,315,0
309,346,316,316,0
311,361,315,315,0
311,369,313,313,0
311,370,311,311,0
311,366,310,311,0
312,357,310,310,0
310,346,309,310,0
308,334,308,310,0
305,319,306,309,0
303,303,306,309,0
304,291,307,310,0
307,286,308,311,0
309,290,308,311,0
312,303,308,309,0
315,318,307,308,0
317,330,307,306,0
318,337,306,305,0
316,338,305,305,0
313,331,304,306,0
310,321,304,307,0
307,311,304,308,0
305,303,304,308,0
305,299,305,308,0
307,302,309,308,0
309,306,312,306,0
309,300,314,305,0
308,286,314,304,0
306,268,314,305,0
301,249,314,307,0
296,231,313,310,0
294,217,312,313,0
296,215,311,315,0
298,223,311,314,0
301,240,310,311,0
302,258,307,307,0
302,272,304,303,0
301,282,302,302,0
301,288,301,301,0
301,294,303,301,0
303,304,306,302,0
305,317,309,304,0
306,332,310,304,0
306,344,308,302,0
306,351,306,300,0
307,353,305,299,0
309,353,305,299,0
311,352,306,299,0
311,349,307,301,0
311,342,308,302,0
309,330,309,304,0
306,314,310,305,0
303,295,310,305,0
300,275,309,304,0
298,261,307,303,0
298,259,304,303,0
300,271,303,303,0
303,291,303,306,0
308,316,305,308,0
311,337,306,310,0
311,349,306,309,0
310,354,306,308,0
309,351,306,306,0
308,345,307,306,0
307,336,307,305,0
304,327,308,306,0
302,316,307,306,0
298,307,306,304,0
296,304,305,302,0
295,302,305,300,0
295,302,305,299,0
298,303,305,300,0
303,306,305,302,0
307,306,304,305,0
311,301,304,308,0
311,294,305,311,0
309,284,307,312,0
307,273,309,313,0
306,269,310,312,0
306,274,309,311,0
305,286,308,309,0
304,294,305,306,0
303,295,302,305,0
304,289,300,305,0
305,284,301,308,0
307,283,304,312,0
307,285,306,315,0
305,288,307,316,0
303,287,307,316,0
300,285,307,315,0
299,282,306,313,0
298,284,306,312,0
298,289,304,311,0
298,292,302,311,0
298,288,298,310,0
299,285,296,309,0
303,288,297,309,0
307,302,298,308,0
310,319,299,308,0
312,334,300,306,0
312,343,301,305,0
312,345,301,304,0
311,341,302,304,0
311,333,304,306,0
308,320,306,307,0
303,301,306,309,0
298,277,307,310,0
293,258,307,312,0
290,247,309,315,0
290,250,309,317,0
292,263,310,318,0
295,281,309,316,0
298,298,307,314,0
300,312,304,311,0
301,323,302,309,0
302,329,301,309,0
303,330,301,308,0
305,327,300,307,0
308,321,300,307,0
310,313,301,305,0
312,303,303,304,0
312,295,306,303,0
312,292,310,303,0
313,294,313,304,0
312,301,314,306,0
310,302,314,307,0
308,294,312,307,0
306,277,309,307,0
307,262,308,307,0
311,258,309,309,0
314,267,312,311,0
315,285,313,312,0
313,304,314,312,0
310,315,313,308,0
304,311,311,305,0
299,300,308,303,0
295,291,307,303,0
295,290,306,304,0
299,302,307,307,0
304,324,307,309,0
308,345,307,311,0
309,359,307,311,0
308,365,308,312,0
308,366,310,312,0
306,360,311,310,0
304,349,311,308,0
302,334,310,305,0
299,319,309,303,0
296,309,309,302,0
295,309,308,304,0
295,316,308,306,0
296,324,307,309,0
297,331,307,311,0
299,337,307,313,0
301,341,306,314,0
304,343,306,314,0
308,343,305,314,0
312,339,305,314,0
315,330,305,314,0
317,317,306,315,0
318,309,308,317,0
315,303,307,316,0
310,299,305,316,0
306,300,304,315,0
305,302,305,315,0
307,301,306,316,0
309,295,307,315,0
308,284,307,313,0
306,277,307,310,0
303,276,306,307,0
300,277,306,305,0
297,280,304,303,0
295,282,302,301,0
295,284,300,300,0
296,287,298,299,0
300,293,297,300,0
304,299,298,302,0
308,300,299,303,0
307,293,301,304,0
304,283,302,305,0
300,279,304,306,0
298,282,305,306,0
298,289,306,306,0
298,297,306,304,0
298,305,305,302,0
298,311,304,299,0
299,317,304,298,0
301,322,305,298,0
303,325,306,300,0
306,327,307,303,0
308,329,309,307,0
309,328,309,310,0
307,324,308,311,0
304,320,307,312,0
301,316,307,313,0
301,313,307,314,0
300,311,306,314,0
297,310,304,314,0
296,310,302,313,0
295,315,301,314,0
298,324,301,314,0
301,330,302,313,0
303,326,301,312,0
303,319,299,309,0
303,314,298,306,0
303,315,298,303,0
303,316,298,300,0
302,313,299,298,0
301,304,300,296,0
300,296,300,295,0
301,294,301,296,0
301,297,302,296,0
301,307,303,298,0
300,316,303,299,0
300,320,302,302,0
300,318,301,305,0
302,311,301,308,0
304,300,303,311,0
307,285,306,314,0
307,262,309,317,0
308,235,311,321,0
309,212,314,326,0
310,200,317,329,0
310,204,319,328,0
307,223,317,324,0
303,250,313,319,0
299,277,310,314,0
296,301,306,309,0
295,318,303,306,0
297,328,302,304,0
299,336,303,303,0
302,343,303,302,0
304,352,303,301,0
306,360,302,301,0
306,364,300,301,0
305,367,300,302,0
303,370,299,303,0
302,374,299,304,0
303,378,299,304,0
305,379,300,305,0
307,374,301,305,0
308,361,302,306,0
308,343,302,307,0
308,325,305,308,0
309,311,307,309,0
310,299,309,309,0
310,290,310,309,0
311,285,310,306,0
310,288,309,302,0
308,293,308,298,0
306,297,308,294,0
304,299,306,291,0
302,299,304,290,0
300,296,303,290,0
301,290,302,290,0
302,285,301,291,0
304,286,301,294,0
306,296,301,297,0
309,310,301,301,0
311,324,303,304,0
311,337,305,306,0
311,346,307,307,0
310,350,308,307,0
308,350,307,305,0
307,348,307,303,0
306,346,305,300,0
305,344,303,297,0
306,341,303,296,0
308,340,305,296,0
308,337,305,296,0
306,331,305,294,0
302,321,303,291,0
299,310,302,289,0
299,302,303,289,0
300,295,304,291,0
303,291,305,294,0
304,288,307,297,0
306,282,308,302,0
305,269,309,306,0
304,247,310,309,0
302,219,311,312,0
298,193,312,314,0
296,183,314,315,0
295,192,316,316,0
296,214,318,316,0
299,241,317,313,0
301,268,315,310,0
304,292,313,307,0
307,310,311,306,0
308,322,310,306,0
309,330,308,307,0
307,335,307,308,0
305,333,306,310,0
305,329,305,312,0
305,323,304,313,0
306,317,304,314,0
307,311,305,316,0
308,304,306,317,0
310,301,308,318,0
311,302,309,318,0
313,305,309,317,0
314,307,309,315,0
314,311,308,314,0
315,317,306,313,0
315,325,304,311,0
315,332,302,309,0
314,338,301,307,0
313,345,301,307,0
313,353,302,307,0
313,360,304,307,0
312,362,306,308,0
311,358,308,308,0
310,347,309,310,0
309,335,311,311,0
308,321,312,314,0
307,309,312,315,0
304,301,311,314,0
301,296,309,313,0
297,291,306,309,0
295,289,304,307,0
294,291,302,305,0
295,297,302,305,0
296,306,302,306,0
298,314,304,308,0
299,318,306,309,0
300,317,308,310,0
300,312,309,310,0
300,305,310,309,0
298,297,309,308,0
294,289,308,308,0
291,281,309,308,0
291,273,309,310,0
294,267,310,311,0
298,267,310,313,0
304,274,309,316,0
310,284,308,317,0
312,289,308,317,0
311,289,307,316,0
309,290,308,315,0
308,300,310,316,0
310,317,314,317,0
312,332,315,316,0
312,338,314,315,0
311,333,311,313,0
311,319,309,312,0
313,301,308,312,0
317,286,308,312,0
319,274,309,311,0
318,266,309,310,0
314,262,309,310,0
308,263,309,308,0
302,269,307,306,0
298,276,306,304,0
295,282,304,302,0
294,287,303,302,0
295,295,303,304,0
297,307,305,305,0
299,318,307,307,0
301,326,307,308,0
302,329,308,308,0
304,324,307,308,0
304,316,307,307,0
303,311,306,305,0
302,312,304,303,0
301,312,303,302,0
300,307,304,302,0
301,302,307,304,0
304,298,310,306,0
307,297,311,306,0
311,299,310,305,0
314,306,308,303,0
315,313,306,299,0
315,319,305,297,0
313,323,305,295,0
310,323,306,296,0
309,325,308,298,0
310,324,309,301,0
310,321,308,301,0
310,320,308,301,0
310,324,308,301,0
310,331,309,302,0
310,336,308,305,0
310,337,308,308,0
309,333,308,310,0
308,326,308,311,0
308,319,308,311,0
307,315,309,310,0
307,313,309,309,0
308,309,308,309,0
309,303,307,308,0
311,302,307,307,0
314,307,308,305,0
315,308,308,302,0
315,304,309,301,0
314,300,313,303,0
315,300,317,308,0
315,300,321,313,0
314,295,323,318,0
310,284,322,320,0
303,267,319,320,0
295,252,315,320,0
290,244,313,319,0
290,241,312,318,0
292,244,311,317,0
296,255,310,315,0
302,276,310,314,0
308,304,310,315,0
313,335,311,316,0
314,362,311,316,0
313,378,311,315,0
310,386,309,314,0
305,382,306,312,0
300,367,304,309,0
297,351,303,305,0
297,341,302,302,0
299,340,301,298,0
302,341,301,297,0
304,337,301,299,0
306,332,303,303,0
308,324,304,308,0
311,315,304,312,0
312,305,305,314,0
312,299,305,314,0
312,302,305,314,0
313,312,306,314,0
312,322,305,313,0
311,323,304,312,0
308,317,305,311,0
305,305,305,311,0
303,290,306,313,0
302,275,307,314,0
303,262,309,316,0
304,252,310,318,0
305,249,310,318,0
304,251,308,316,0
303,263,306,315,0
302,282,304,313,0
300,296,303,311,0
299,298,303,309,0
300,294,305,308,0
303,290,308,308,0
308,290,310,308,0
311,290,311,307,0
311,294,309,305,0
311,307,307,304,0
313,327,306,305,0
316,341,305,307,0
317,341,304,309,0
316,325,303,311,0
312,305,303,312,0
307,287,303,312,0
302,276,303,312,0
297,276,305,311,0
294,284,307,311,0
293,299,308,309,0
294,318,308,305,0
296,333,305,303,0
298,341,303,303,0
302,342,302,304,0
306,338,302,306,0
309,332,303,305,0
310,324,305,303,0
311,315,306,301,0
313,311,307,299,0
314,312,307,299,0
317,312,306,300,0
318,308,304,300,0
317,304,302,301,0
317,303,301,301,0
316,307,300,302,0
314,316,299,301,0
312,324,298,302,0
312,329,297,302,0
310,323,297,302,0
310,309,297,303,0
309,294,298,304,0
309,286,300,307,0
309,290,303,310,0
309,301,306,312,0
309,316,308,313,0
309,329,309,312,0
308,335,309,312,0
307,332,308,311,0
306,321,307,311,0
307,308,306,312,0
309,296,307,314,0
309,289,308,315,0
307,287,308,316,0
304,287,308,316,0
303,281,307,315,0
302,271,308,315,0
300,260,308,314,0
297,254,306,311,0
296,262,304,310,0
296,284,304,311,0
298,308,303,310,0
298,321,302,311,0
299,319,303,311,0
300,311,304,311,0
302,306,305,311,0
304,305,306,311,0
306,305,306,310,0
306,305,305,308,0
307,306,303,306,0
309,310,300,304,0
311,313,298,302,0
312,310,295,301,0
314,303,295,302,0
317,299,296,304,0
320,300,299,305,0
321,308,302,307,0
319,318,305,308,0
315,324,307,310,0
310,322,309,311,0
305,316,309,313,0
300,308,310,314,0
298,298,311,315,0
296,288,311,316,0
295,276,310,316,0
295,266,310,315,0
297,267,310,315,0
301,277,311,315,0
306,290,312,314,0
311,300,313,314,0
315,304,316,316,0
317,304,318,317,0
316,304,317,317,0
313,301,315,314,0
307,304,310,310,0
302,312,305,306,0
298,321,300,302,0
296,328,297,299,0
295,332,294,298,0
296,334,294,298,0
298,338,296,300,0
302,348,300,302,0
306,357,302,303,0
309,363,305,304,0
312,366,307,305,0
313,363,308,305,0
313,357,308,305,0
311,349,308,305,0
309,341,306,305,0
307,333,305,304,0
305,321,305,304,0
303,305,303,303,0
301,289,303,301,0
298,278,303,300,0
297,272,303,299,0
297,271,303,299,0
299,273,303,298,0
302,276,302,297,0
305,278,301,293,0
309,281,300,289,0
312,286,301,283,0
315,289,301,281,0
315,294,302,283,0
312,300,302,288,0
307,300,302,293,0
301,297,302,297,0
296,293,302,302,0
294,289,303,307,0
294,288,305,311,0
296,294,306,314,0
298,304,308,317,0
301,316,309,318,0
303,328,311,318,0
306,336,312,316,0
308,341,312,314,0
309,341,311,312,0
310,336,309,309,0
309,326,307,306,0
306,314,305,302,0
303,304,304,300,0
301,296,304,300,0
298,290,307,302,0
295,282,309,304,0
291,272,311,307,0
289,271,313,311,0
293,286,316,315,0
298,306,317,317,0
304,319,315,317,0
307,322,312,315,0
309,316,308,314,0
309,307,306,312,0
310,300,306,311,0
310,298,306,310,0
310,300,306,309,0
308,305,304,307,0
306,309,303,307,0
303,308,302,307,0
302,303,302,309,0
300,297,303,311,0
300,291,303,312,0
300,289,302,311,0
300,292,301,311,0
302,299,302,311,0
304,308,303,311,0
307,313,305,312,0
309,316,309,314,0
311,316,311,315,0
311,313,310,316,0
310,304,307,315,0
310,294,307,316,0
310,288,309,317,0
309,285,310,316,0
306,283,308,314,0
304,282,306,312,0
304,281,304,311,0
306,283,304,311,0
307,289,304,310,0
308,293,303,309,0
306,292,302,309,0
305,294,302,310,0
304,304,304,311,0
305,314,306,313,0
307,324,308,314,0
309,335,310,315,0
306,341,308,313,0
300,337,305,311,0
296,330,304,309,0
295,326,304,309,0
296,324,305,308,0
297,317,305,306,0
298,311,304,303,0
300,308,304,302,0
303,306,305,303,0
308,307,306,304,0
312,310,307,305,0
314,310,307,305,0
314,308,307,305,0
313,308,306,305,0
312,313,305,305,0
310,318,305,305,0
309,324,305,305,0
308,330,304,304,0
305,335,302,303,0
303,338,302,302,0
302,341,302,300,0
302,344,302,300,0
302,347,304,300,0
305,349,307,302,0
308,346,310,304,0
309,337,311,306,0
308,326,312,307,0
309,314,311,308,0
309,305,310,309,0
310,295,309,309,0
309,282,307,309,0
307,270,307,310,0
307,264,308,309,0
307,268,308,308,0
306,276,307,305,0
305,283,304,302,0
303,287,301,297,0
301,288,297,293,0
299,292,295,289,0
299,304,295,287,0
299,317,295,287,0
299,324,295,287,0
298,321,294,290,0
298,313,295,293,0
299,310,297,297,0
300,312,299,299,0
302,319,302,300,0
304,322,305,301,0
305,323,307,299,0
304,323,308,296,0
302,325,306,290,0
300,325,303,284,0
300,322,300,280,0
300,315,298,280,0
303,303,297,284,0
306,291,298,290,0
310,286,301,298,0
313,291,305,305,0
312,294,308,310,0
307,284,309,312,0
301,263,309,313,0
295,242,310,314,0
293,231,311,316,0
295,238,312,318,0
299,258,313,319,0
303,284,314,320,0
306,310,315,321,0
308,326,314,322,0
309,333,313,323,0
311,337,312,323,0
313,343,312,323,0
314,349,311,322,0
315,353,311,321,0
314,354,310,320,0
313,352,309,319,0
310,349,308,318,0
308,342,309,316,0
305,334,308,315,0
302,324,309,313,0
300,313,310,312,0
300,306,310,310,0
300,300,311,308,0
303,293,313,308,0
306,288,315,309,0
309,282,317,311,0
309,282,318,313,0
308,288,318,315,0
308,301,316,316,0
307,317,313,316,0
305,329,310,315,0
303,335,308,313,0
301,336,306,311,0
300,334,306,310,0
300,325,307,309,0
301,310,308,310,0
301,288,309,311,0
301,264,311,312,0
301,240,311,314,0
301,222,311,315,0
302,216,310,316,0
303,224,310,317,0
304,243,310,316,0
306,263,312,316,0
308,285,313,316,0
311,304,314,316,0
312,317,312,313,0
312,322,307,309,0
310,320,303,305,0
308,317,299,302,0
307,317,297,301,0
306,314,296,301,0
305,304,297,303,0
305,293,299,305,0
306,288,302,307,0
307,291,304,309,0
307,297,305,310,0
307,302,304,310,0
307,307,305,310,0
308,316,306,311,0
311,325,307,310,0
312,330,307,308,0
311,333,306,306,0
310,333,305,304,0
309,332,305,303,0
307,327,305,302,0
306,319,305,302,0
305,308,306,302,0
307,304,307,302,0
307,304,307,300,0
307,305,306,298,0
307,306,307,297,0
308,310,309,298,0
308,321,311,299,0
309,332,311,300,0
307,342,309,300,0
305,348,304,300,0
304,351,300,299,0
303,348,299,299,0
303,344,300,299,0
305,338,302,300,0
305,330,304,299,0
304,321,306,299,0
304,315,307,300,0
303,309,307,300,0
304,304,307,301,0
304,302,307,301,0
304,303,307,300,0
305,304,307,299,0
306,300,305,298,0
306,291,303,297,0
307,279,303,297,0
309,275,304,300,0
312,281,306,303,0
314,294,306,306,0
316,306,305,306,0
315,316,303,306,0
312,322,300,306,0
309,326,299,307,0
308,329,300,310,0
309,331,302,313,0
311,330,304,315,0
311,325,304,317,0
311,316,305,318,0
311,305,306,319,0
309,295,307,320,0
307,284,307,321,0
306,273,306,322,0
305,263,304,322,0
305,260,304,324,0
309,270,307,325,0
312,290,311,326,0
313,308,313,325,0
309,317,313,322,0
303,316,311,319,0
298,313,311,317,0
297,309,310,315,0
297,302,307,314,0
298,295,307,314,0
301,293,308,316,0
302,294,309,317,0
301,296,309,318,0
300,300,310,316,0
299,301,310,315,0
298,299,309,313,0
298,296,308,312,0
299,293,308,311,0
300,292,309,312,0
302,292,311,313,0
303,292,313,314,0
303,294,314,314,0
303,298,313,314,0
303,304,313,314,0
302,308,311,313,0
300,305,310,311,0
299,295,308,311,0
299,280,306,310,0
300,265,305,310,0
302,257,305,311,0
306,265,306,312,0
311,281,307,312,0
314,295,307,311,0
315,302,307,310,0
315,305,308,309,0
314,309,309,308,0
315,318,311,308,0
316,328,313,307,0
315,328,313,305,0
309,315,310,304,0
302,295,308,304,0
299,279,309,306,0
300,275,311,309,0
305,285,313,312,0
311,302,314,312,0
317,321,312,310,0
322,339,310,309,0
326,354,309,308,0
325,363,307,306,0
321,363,306,303,0
318,362,304,299,0
317,366,305,295,0
318,371,306,294,0
317,368,305,293,0
314,359,304,293,0
312,345,302,294,0
309,329,300,295,0
306,313,299,296,0
303,295,298,297,0
300,280,299,299,0
298,267,301,301,0
297,257,301,302,0
293,251,300,301,0
288,251,299,300,0
284,257,301,298,0
282,266,304,296,0
281,278,306,295,0
284,292,307,294,0
289,309,307,294,0
295,325,307,294,0
302,336,306,293,0
307,340,307,293,0
313,338,308,295,0
317,336,309,298,0
319,338,309,302,0
319,340,310,306,0
318,340,311,310,0
315,335,311,313,0
311,325,310,313,0
307,313,308,313,0
306,304,307,313,0
308,297,308,313,0
311,294,309,313,0
313,293,310,312,0
313,293,310,308,0
311,293,310,306,0
309,291,311,306,0
307,288,311,308,0
305,286,311,310,0
302,291,310,313,0
301,307,311,314,0
301,328,311,315,0
303,342,311,315,0
305,347,311,315,0
306,344,311,315,0
307,337,310,314,0
307,328,309,314,0
309,318,309,314,0
311,313,310,314,0
313,312,311,313,0
314,309,309,312,0
310,300,306,309,0
304,288,304,307,0
301,279,303,307,0
300,275,304,309,0
303,278,307,312,0
308,286,309,315,0
312,299,310,316,0
312,309,309,316,0
308,311,307,315,0
303,307,306,313,0
299,299,305,312,0
297,287,305,311,0
296,270,304,311,0
296,255,305,310,0
298,252,307,310,0
300,263,309,311,0
302,281,310,311,0
303,297,311,311,0
304,311,310,309,0
304,319,308,309,0
305,326,307,308,0
306,334,307,308,0
307,343,306,307,0
306,346,306,306,0
305,340,306,306,0
303,327,305,305,0
301,310,304,305,0
300,292,304,305,0
299,278,304,305,0
299,272,306,305,0
298,271,307,305,0
298,274,307,304,0
297,276,307,302,0
296,272,307,302,0
296,268,308,303,0
298,270,310,304,0
301,276,311,304,0
304,280,311,303,0
304,283,309,302,0
304,290,308,300,0
303,301,307,298,0
304,316,307,296,0
303,334,307,294,0
303,348,307,293,0
304,356,308,295,0
307,359,308,298,0
309,358,307,300,0
309,355,306,303,0
309,352,306,305,0
309,345,306,307,0
307,335,306,308,0
306,323,304,307,0
306,313,302,305,0
306,305,300,303,0
305,303,298,301,0
305,307,298,300,0
306,310,299,300,0
307,308,302,302,0
308,303,304,304,0
309,294,303,304,0
307,287,302,304,0
305,290,300,302,0
305,301,297,300,0
306,311,296,297,0
308,315,298,298,0
310,308,301,301,0
312,295,306,307,0
313,286,313,314,0
311,285,317,319,0
308,287,318,321,0
305,288,316,320,0
302,288,313,317,0
302,290,310,313,0
303,298,308,310,0
304,306,307,306,0
305,312,307,303,0
306,312,306,300,0
305,310,306,297,0
306,313,306,294,0
306,321,306,293,0
309,332,308,295,0
311,341,310,299,0
310,345,312,303,0
307,341,312,306,0
302,332,311,307,0
298,316,309,308,0
298,293,307,308,0
299,271,308,308,0
301,258,310,309,0
304,255,312,311,0
306,262,316,315,0
309,276,318,320,0
312,293,319,323,0
312,303,317,323,0
310,307,313,322,0
309,307,310,320,0
309,303,307,319,0
310,296,305,319,0
312,290,303,319,0
314,286,302,320,0
317,287,303,321,0
318,288,303,321,0
317,293,305,321,0
315,304,307,320,0
312,319,308,319,0
309,332,307,317,0
307,336,307,316,0
306,334,306,314,0
305,330,305,313,0
304,328,304,312,0
305,329,305,312,0
306,328,307,311,0
305,319,309,311,0
304,302,312,311,0
305,287,316,312,0
310,283,320,312,0
314,288,319,310,0
315,294,315,306,0
312,297,311,302,0
310,299,307,301,0
309,301,306,301,0
309,298,305,301,0
308,293,304,302,0
306,287,303,303,0
304,282,301,304,0
303,282,301,306,0
304,289,301,309,0
304,301,302,310,0
303,311,302,310,0
302,315,302,311,0
301,315,302,310,0
301,316,302,310,0
302,315,302,310,0
303,310,302,310,0
305,300,303,310,0
307,288,304,310,0
310,284,306,310,0
312,291,307,309,0
313,301,306,306,0
311,307,304,303,0
309,310,302,302,0
307,314,302,303,0
307,324,303,304,0
308,334,305,306,0
308,339,306,307,0
309,340,306,308,0
310,338,306,308,0
309,334,303,307,0
306,330,300,305,0
303,324,297,303,0
300,318,296,302,0
300,311,297,303,0
301,303,299,305,0
303,293,302,309,0
304,281,305,313,0
302,266,308,315,0
298,247,310,317,0
295,232,312,319,0
296,229,313,320,0
301,239,314,320,0
306,259,312,319,0
308,280,309,316,0
305,298,304,312,0
300,314,300,307,0
296,325,298,303,0
295,333,298,301,0
297,342,298,299,0
302,350,299,297,0
308,356,300,295,0
315,362,301,294,0
321,365,302,294,0
325,363,304,294,0
326,354,306,296,0
324,342,308,301,0
321,331,310,307,0
317,322,313,313,0
312,313,313,316,0
307,306,312,316,0
302,303,310,315,0
300,304,308,312,0
298,306,305,309,0
296,305,301,306,0
294,304,298,303,0
293,304,297,301,0
294,305,295,300,0
296,305,295,299,0
301,303,298,299,0
306,294,303,300,0
308,279,307,298,0
304,263,308,296,0
299,254,309,297,0
296,257,311,304,0
297,273,312,311,0
298,295,310,316,0
301,313,307,318,0
304,321,303,318,0
305,318,301,317,0
307,313,300,318,0
310,311,300,319,0
313,310,301,321,0
316,308,301,322,0
316,305,301,322,0
314,301,300,321,0
311,302,300,321,0
310,308,300,321,0
309,317,300,320,0
309,326,301,321,0
308,333,302,321,0
307,337,304,322,0
305,332,306,322,0
304,323,308,322,0
303,314,311,323,0
304,308,313,324,0
305,308,315,325,0
306,311,316,326,0
307,314,316,325,0
306,313,316,323,0
303,310,314,321,0
298,300,312,318,0
294,287,309,316,0
292,279,308,315,0
291,279,307,313,0
292,281,306,313,0
294,282,305,312,0
298,283,306,312,0
301,286,306,312,0
305,294,305,312,0
308,304,302,310,0
309,314,299,307,0
310,315,296,304,0
310,307,295,302,0
310,296,294,301,0
312,288,295,303,0
316,294,300,305,0
320,313,305,307,0
322,335,308,307,0
321,349,307,306,0
317,351,305,304,0
313,343,304,304,0
310,330,305,305,0
309,317,307,306,0
307,306,308,307,0
305,300,309,306,0
303,297,309,305,0
303,295,310,306,0
304,293,312,309,0
306,288,314,313,0
310,282,316,316,0
313,283,317,318,0
319,302,319,319,0
323,326,321,319,0
322,334,322,317,0
315,325,321,316,0
305,305,319,315,0
298,287,319,315,0
296,280,319,315,0
299,283,318,314,0
302,289,314,311,0
306,290,310,307,0
308,284,306,305,0
307,273,304,304,0
306,266,304,305,0
305,271,304,306,0
304,285,304,308,0
303,303,305,308,0
301,320,304,308,0
300,332,301,307,0
298,336,299,305,0
298,333,299,304,0
299,329,300,304,0
303,333,302,303,0
308,344,305,304,0
313,353,306,304,0
317,355,306,306,0
319,350,306,307,0
319,338,306,308,0
318,321,305,307,0
316,300,304,307,0
314,279,304,306,0
312,269,304,304,0
313,273,305,302,0
316,286,305,301,0
318,303,305,299,0
318,311,304,297,0
313,304,302,295,0
306,289,302,295,0
300,273,303,295,0
294,264,305,296,0
290,268,306,296,0
291,291,307,297,0
294,316,308,298,0
298,334,307,298,0
301,345,306,296,0
303,351,305,296,0
305,354,305,298,0
307,354,307,302,0
310,353,310,307,0
312,349,313,312,0
313,343,315,315,0
311,336,314,316,0
309,329,312,316,0
307,321,310,316,0
306,315,309,316,0
305,310,309,315,0
305,302,309,315,0
305,292,309,314,0
305,279,309,314,0
306,268,310,314,0
309,269,311,314,0
313,279,314,313,0
317,295,314,312,0
320,313,314,310,0
319,326,312,306,0
316,331,309,302,0
311,331,306,298,0
307,325,304,296,0
304,313,302,296,0
301,298,300,297,0
298,282,299,299,0
295,269,300,301,0
294,263,301,303,0
293,260,302,304,0
293,259,304,305,0
294,264,305,306,0
296,277,307,307,0
299,299,309,309,0
303,323,311,310,0
306,340,310,309,0
308,344,309,309,0
310,334,307,309,0
312,316,307,311,0
315,296,308,313,0
318,280,311,315,0
319,269,314,318,0
319,259,315,319,0
317,247,313,319,0
313,233,310,317,0
310,229,308,313,0
309,244,308,310,0
311,271,309,306,0
312,295,308,303,0
312,314,307,300,0
310,328,305,299,0
309,340,304,299,0
309,355,305,301,0
310,366,306,302,0
309,366,306,304,0
306,356,306,304,0
304,344,307,304,0
301,333,307,304,0
300,326,309,303,0
300,325,309,302,0
301,327,310,303,0
304,333,311,304,0
308,337,312,306,0
312,336,312,308,0
314,334,313,310,0
316,331,314,312,0
319,326,316,313,0
320,318,316,314,0
319,312,315,314,0
316,312,312,313,0
312,316,310,311,0
307,322,308,311,0
301,320,306,311,0
297,305,305,311,0
296,284,304,311,0
295,262,302,309,0
293,245,300,304,0
294,236,299,300,0
296,236,299,296,0
299,243,301,291,0
301,248,304,287,0
302,251,306,285,0
301,258,308,285,0
300,269,309,287,0
301,288,309,291,0
305,312,307,295,0
309,338,306,298,0
312,362,303,299,0
312,379,300,298,0
311,384,297,298,0
310,382,296,298,0
310,378,296,299,0
311,371,297,301,0
312,361,299,304,0
313,347,302,308,0
312,329,304,311,0
309,314,305,313,0
306,306,306,313,0
304,305,307,312,0
304,305,306,309,0
305,305,305,307,0
306,302,305,305,0
308,299,306,305,0
309,300,309,305,0
310,304,309,304,0
311,312,307,302,0
312,316,303,299,0
312,316,299,296,0
312,317,296,295,0
312,321,296,296,0
315,328,299,301,0
318,337,303,306,0
320,341,307,311,0
318,338,309,313,0
317,331,311,314,0
316,323,310,314,0
313,314,309,313,0
308,306,307,311,0
304,301,307,310,0
301,298,308,310,0
298,300,308,312,0
298,310,309,313,0
300,317,310,313,0
302,311,309,312,0
302,297,306,311,0
302,280,304,310,0
301,265,303,310,0
303,254,304,312,0
306,250,306,315,0
310,248,308,316,0
312,245,308,317,0
313,236,307,317,0
314,222,306,316,0
317,208,306,316,0
320,201,308,317,0
325,215,313,320,0
329,250,319,321,0
329,291,322,321,0
325,327,320,318,0
317,355,315,313,0
307,372,309,308,0
300,376,305,304,0
296,371,301,301,0
293,359,299,300,0
292,341,298,300,0
293,324,299,301,0
294,314,300,303,0
296,308,300,304,0
297,308,300,305,0
299,315,300,306,0
303,325,300,307,0
305,330,299,308,0
305,333,297,308,0
305,337,297,309,0
306,342,298,310,0
308,344,299,310,0
308,344,301,311,0
308,341,303,311,0
309,331,306,312,0
310,317,308,312,0
312,307,310,311,0
316,300,312,311,0
316,293,313,309,0
314,284,312,306,0
310,278,310,305,0
309,276,309,305,0
309,282,308,305,0
309,289,307,305,0
310,296,306,305,0
313,302,304,304,0
315,305,302,302,0
315,304,298,298,0
313,304,294,294,0
310,306,294,289,0
307,307,295,286,0
305,306,297,285,0
303,304,299,286,0
301,300,299,288,0
300,294,300,294,0
302,292,302,300,0
304,296,304,305,0
304,304,305,309,0
303,314,306,310,0
302,322,305,309,0
301,327,303,307,0
300,328,302,305,0
301,332,304,304,0
305,340,308,304,0
310,347,312,305,0
312,351,312,306,0
312,354,309,306,0
310,352,305,306,0
307,346,302,306,0
305,339,300,307,0
303,334,300,306,0
303,333,302,304,0
305,333,303,303,0
306,332,302,302,0
306,325,302,303,0
306,313,302,305,0
305,303,303,310,0
304,300,305,314,0
302,300,308,317,0
298,296,310,319,0
294,286,311,322,0
290,271,313,324,0
287,255,314,325,0
287,240,313,326,0
288,226,311,325,0
291,222,310,325,0
295,226,309,324,0
298,237,307,322,0
300,251,306,320,0
302,264,305,319,0
306,272,305,318,0
310,276,305,318,0
315,278,305,318,0
319,283,307,320,0
322,294,310,321,0
325,308,313,323,0
324,324,315,323,0
321,345,314,320,0
318,364,310,316,0
315,375,306,313,0
314,378,303,311,0
314,375,302,310,0
312,367,301,309,0
310,351,301,309,0
307,335,301,309,0
305,324,302,309,0
305,318,303,308,0
305,318,303,307,0
308,323,302,307,0
311,328,302,307,0
311,327,302,306,0
309,320,301,307,0
307,312,302,308,0
305,309,303,309,0
303,313,304,309,0
302,319,305,311,0
301,318,307,311,0
301,314,307,311,0
302,314,307,311,0
304,322,308,310,0
308,333,309,311,0
312,340,311,311,0
312,341,310,309,0
310,333,308,307,0
308,320,305,306,0
308,306,304,305,0
310,293,304,306,0
310,283,303,306,0
307,272,303,306,0
305,259,304,309,0
304,254,307,312,0
304,258,310,313,0
305,269,309,313,0
306,284,308,312,0
306,301,307,311,0
305,315,306,309,0
302,321,305,307,0
300,320,305,306,0
302,313,306,306,0
306,302,307,307,0
309,289,308,307,0
310,279,307,306,0
309,275,305,304,0
308,283,301,301,0
308,299,297,298,0
308,314,292,295,0
308,318,288,291,0
307,313,285,288,0
305,304,284,287,0
304,301,285,288,0
304,306,288,290,0
304,313,292,292,0
304,317,296,295,0
303,320,299,298,0
303,326,303,302,0
304,335,306,306,0
304,342,307,307,0
303,344,308,306,0
303,342,308,303,0
302,339,309,301,0
301,336,308,297,0
300,332,309,294,0
300,329,310,293,0
300,328,310,292,0
301,329,309,292,0
302,328,309,293,0
304,323,309,297,0
306,315,311,304,0
307,301,313,312,0
306,280,313,318,0
305,261,314,322,0
305,254,316,324,0
308,257,319,325,0
311,262,321,323,0
314,267,321,321,0
316,272,318,317,0
316,280,314,313,0
317,292,313,312,0
318,307,312,312,0
318,319,312,313,0
316,326,312,313,0
313,328,312,312,0
312,325,313,311,0
310,316,312,308,0
307,306,310,306,0
303,300,307,304,0
301,302,307,304,0
300,307,307,304,0
298,309,307,305,0
296,310,309,307,0
295,313,309,310,0
296,315,309,312,0
296,316,308,313,0
296,313,307,313,0
296,310,307,313,0
296,309,308,313,0
296,310,309,312,0
295,305,309,312,0
293,296,308,311,0
292,284,308,311,0
294,271,307,312,0
299,264,308,314,0
303,268,310,315,0
307,277,310,314,0
308,288,310,312,0
310,302,309,310,0
310,314,309,308,0
308,319,308,307,0
305,317,306,306,0
302,316,305,306,0
299,316,304,305,0
296,311,303,306,0
294,302,302,306,0
293,294,301,308,0
296,290,302,311,0
301,290,304,313,0
306,298,308,315,0
313,316,311,315,0
318,337,314,314,0
320,354,314,312,0
321,362,312,310,0
319,360,311,308,0
316,349,309,306,0
310,335,307,305,0
306,322,306,305,0
304,313,305,306,0
303,309,305,307,0
304,310,306,309,0
305,317,307,310,0
305,323,306,309,0
305,327,304,306,0
304,328,302,303,0
304,326,300,299,0
306,320,298,296,0
307,313,298,293,0
307,308,297,291,0
306,307,296,291,0
304,308,296,291,0
302,306,296,292,0
300,302,297,293,0
298,297,297,294,0
298,290,298,294,0
299,280,299,294,0
302,269,301,296,0
305,266,302,298,0
308,278,305,301,0
312,298,309,304,0
315,315,312,306,0
316,324,314,307,0
316,329,314,306,0
315,331,311,303,0
309,330,307,297,0
303,325,302,293,0
298,320,299,292,0
296,318,300,294,0
298,320,302,297,0
301,329,306,300,0
303,331,309,299,0
303,321,309,298,0
303,304,309,297,0
302,286,308,298,0
301,270,308,300,0
300,259,308,304,0
300,250,308,306,0
299,242,308,307,0
299,241,309,306,0
300,249,310,306,0
301,265,312,307,0
302,280,314,310,0
304,291,315,312,0
305,294,314,314,0
304,293,312,315,0
305,290,311,316,0
306,289,311,318,0
307,288,311,319,0
309,287,313,320,0
311,289,314,319,0
313,297,316,318,0
316,308,317,316,0
318,320,316,312,0
317,330,313,308,0
314,339,311,305,0
310,348,310,303,0
304,351,309,301,0
299,345,308,300,0
294,330,307,299,0
290,310,306,299,0
289,294,306,301,0
292,284,307,303,0
297,282,308,306,0
301,288,312,309,0
301,291,315,311,0
296,286,315,311,0
291,286,315,312,0
289,297,315,311,0
292,315,315,310,0
297,331,314,309,0
303,339,311,307,0
307,335,307,306,0
311,325,305,306,0
314,315,304,306,0
314,309,304,307,0
314,307,304,307,0
315,306,304,308,0
317,304,303,309,0
321,298,304,312,0
325,291,307,314,0
326,291,310,316,0
322,300,313,315,0
314,314,311,311,0
304,326,307,306,0
296,335,302,302,0
293,344,301,300,0
293,353,302,300,0
297,361,304,301,0
301,366,305,301,0
304,367,305,299,0
306,364,304,297,0
306,356,303,296,0
306,345,301,296,0
306,335,302,298,0
307,331,301,298,0
307,327,300,297,0
306,319,296,293,0
302,307,291,288,0
298,292,289,286,0
296,276,290,287,0
296,262,293,291,0
297,257,298,296,0
298,261,302,301,0
299,270,304,304,0
299,279,305,306,0
298,285,305,305,0
298,290,304,304,0
297,295,303,303,0
299,300,305,303,0
302,306,307,304,0
305,310,309,304,0
308,312,309,304,0
309,312,309,302,0
310,310,308,300,0
310,307,308,299,0
308,302,308,300,0
306,295,309,302,0
305,289,311,307,0
305,294,313,313,0
307,306,317,319,0
308,307,318,322,0
306,298,318,324,0
305,286,317,324,0
305,276,317,323,0
304,270,317,322,0
303,275,316,321,0
302,290,316,320,0
302,305,317,319,0
304,313,317,317,0
304,316,315,313,0
305,318,313,308,0
306,319,311,304,0
308,317,311,302,0
311,314,312,302,0
314,308,313,304,0
315,301,314,304,0
314,299,313,305,0
311,302,311,306,0
306,304,309,307,0
302,307,305,308,0
299,316,301,307,0
299,330,300,306,0
300,342,301,306,0
302,348,304,307,0
301,348,306,309,0
298,346,308,312,0
295,342,308,314,0
294,335,308,315,0
292,326,308,316,0
292,313,309,316,0
291,297,308,316,0
291,282,308,314,0
290,265,308,313,0
291,252,308,313,0
296,247,310,313,0
302,247,312,312,0
308,254,313,312,0
313,261,313,312,0
314,263,312,312,0
311,257,308,311,0
307,249,305,311,0
305,250,303,312,0
307,268,304,314,0
311,302,307,316,0
315,338,310,316,0
316,362,310,314,0
314,377,309,310,0
311,386,307,306,0
310,390,307,305,0
310,389,307,303,0
311,382,307,302,0
310,372,306,300,0
309,362,305,298,0
310,353,305,299,0
310,345,306,300,0
310,325,307,301,0
309,300,308,302,0
308,278,308,302,0
306,267,307,303,0
305,272,307,304,0
304,290,306,304,0
302,311,306,304,0
301,331,307,304,0
300,347,309,304,0
302,357,310,303,0
303,360,311,301,0
304,354,310,297,0
303,343,308,294,0
301,332,306,292,0
301,324,305,293,0
301,318,305,295,0
302,315,306,297,0
303,314,307,298,0
301,308,306,297,0
298,298,304,296,0
297,288,302,296,0
297,277,302,298,0
299,260,305,304,0
301,238,309,309,0
301,214,312,313,0
302,201,314,317,0
306,209,315,319,0
312,234,316,320,0
316,260,316,319,0
319,285,314,317,0
319,308,313,315,0
317,320,311,313,0
312,319,310,309,0
306,311,309,306,0
302,306,310,304,0
299,302,310,303,0
297,297,310,303,0
297,293,311,306,0
299,295,312,309,0
303,305,313,311,0
307,320,312,311,0
312,335,311,311,0
316,346,310,312,0
320,356,311,314,0
322,362,312,315,0
322,365,312,315,0
319,363,311,313,0
315,356,310,312,0
311,345,310,310,0
309,336,311,309,0
310,331,312,309,0
312,329,313,310,0
313,328,314,311,0
312,326,314,312,0
311,321,313,310,0
308,313,312,309,0
305,304,311,308,0
303,295,312,309,0
302,287,314,311,0
301,279,315,313,0
300,274,315,314,0
299,270,314,314,0
298,261,312,314,0
296,243,309,312,0
294,224,306,309,0
294,216,305,308,0
297,225,307,308,0
300,249,310,309,0
302,277,312,310,0
302,296,312,309,0
300,303,311,307,0
299,305,310,307,0
302,309,309,307,0
306,314,310,308,0
312,315,310,308,0
319,317,312,309,0
324,323,313,309,0
326,335,314,307,0
325,349,312,305,0
322,361,310,302,0
317,368,307,300,0
313,371,305,299,0
311,370,304,299,0
309,365,302,299,0
308,358,302,299,0
308,349,303,300,0
305,334,304,300,0
302,313,306,301,0
300,294,307,304,0
299,278,308,306,0
301,265,308,309,0
302,261,307,311,0
304,267,306,310,0
306,281,306,309,0
308,298,307,308,0
310,313,308,307,0
311,325,308,306,0
313,335,308,305,0
314,342,307,304,0
313,341,305,303,0
313,336,304,301,0
313,329,303,300,0
315,321,302,297,0
315,311,300,294,0
314,304,297,290,0
313,301,297,290,0
313,303,301,294,0
313,303,305,300,0
310,296,308,305,0
305,284,308,307,0
300,275,307,308,0
298,277,306,307,0
301,296,307,306,0
306,321,308,303,0
312,341,308,300,0
316,351,306,296,0
318,353,303,293,0
318,348,300,290,0
316,339,298,289,0
312,327,297,289,0
309,316,298,293,0
307,305,301,299,0
305,296,306,305,0
304,291,310,312,0
302,289,313,316,0
300,287,313,318,0
297,283,311,319,0
294,277,310,319,0
292,273,309,320,0
293,270,311,321,0
296,269,314,323,0
300,269,317,323,0
303,270,319,323,0
304,270,320,321,0
305,271,318,318,0
305,274,315,316,0
305,281,312,314,0
304,290,310,312,0
303,299,309,312,0
303,311,310,313,0
303,323,310,313,0
303,331,309,313,0
303,333,309,314,0
305,329,308,315,0
305,318,307,316,0
304,299,307,317,0
304,281,307,318,0
304,270,307,317,0
305,272,307,317,0
307,285,306,317,0
309,303,306,318,0
310,323,306,317,0
311,339,305,316,0
310,344,304,314,0
308,338,303,312,0
306,324,304,311,0
304,309,306,310,0
303,294,308,311,0
304,283,310,312,0
306,280,313,314,0
310,285,314,316,0
312,295,312,315,0
314,309,310,315,0
317,326,309,314,0
318,341,309,314,0
319,345,309,315,0
317,335,309,315,0
314,320,309,315,0
311,308,309,315,0
307,298,309,315,0
303,292,308,313,0
300,288,306,310,0
300,292,305,307,0
303,301,304,303,0
306,313,302,296,0
309,322,299,288,0
310,327,295,280,0
310,328,293,277,0
310,327,294,277,0
308,320,298,284,0
304,310,303,293,0
300,303,308,302,0
299,298,313,310,0
299,298,315,314,0
300,303,314,315,0
299,308,312,312,0
298,309,309,307,0
297,305,307,302,0
296,296,305,295,0
295,287,302,291,0
295,285,301,291,0
298,292,303,295,0
303,299,306,302,0
308,302,310,310,0
312,305,312,315,0
316,310,314,319,0
318,312,315,322,0
318,308,314,323,0
317,298,313,324,0
315,288,312,325,0
313,282,313,325,0
312,282,314,323,0
312,290,315,321,0
312,300,313,315,0
310,309,309,308,0
310,323,304,302,0
309,340,299,296,0
307,350,294,294,0
305,350,292,293,0
304,347,291,292,0
302,346,292,293,0
302,344,294,294,0
302,340,296,296,0
305,335,299,300,0
309,335,303,305,0
313,338,307,310,0
316,339,309,312,0
314,334,309,313,0
310,325,305,312,0
306,318,302,310,0
303,311,301,310,0
302,306,302,311,0
301,307,304,313,0
299,312,306,316,0
299,316,308,318,0
299,313,309,318,0
299,307,309,316,0
298,296,309,315,0
297,286,308,314,0
298,283,308,314,0
300,282,308,314,0
301,278,308,314,0
300,269,307,313,0
297,256,306,311,0
296,251,304,310,0
297,261,305,310,0
301,279,306,310,0
304,295,306,309,0
306,309,306,307,0
307,314,305,307,0
307,303,305,309,0
306,280,305,311,0
306,257,306,313,0
306,245,307,315,0
306,246,308,315,0
305,259,307,314,0
304,279,304,311,0
303,298,301,309,0
305,310,301,308,0
307,321,303,309,0
308,329,304,310,0
307,339,305,310,0
306,349,306,311,0
307,356,309,313,0
309,360,311,314,0
311,358,312,314,0
311,348,310,313,0
311,337,309,312,0
312,331,309,311,0
313,334,309,309,0
313,340,308,307,0
310,343,306,305,0
307,340,305,305,0
306,336,306,306,0
307,336,308,308,0
309,336,308,309,0
310,335,305,309,0
311,334,303,308,0
312,331,301,308,0
313,326,300,308,0
313,322,300,308,0
311,316,300,308,0
309,311,301,307,0
307,305,302,304,0
306,302,302,300,0
306,303,301,295,0
305,307,299,289,0
303,309,296,285,0
302,307,294,282,0
299,299,292,281,0
295,283,291,281,0
291,265,292,285,0
291,251,295,292,0
293,245,299,300,0
297,246,302,308,0
303,255,306,313,0
309,271,311,316,0
312,286,313,317,0
312,298,312,316,0
311,308,308,313,0
309,313,304,309,0
308,314,302,306,0
307,313,300,304,0
307,314,299,302,0
307,318,299,301,0
308,322,300,303,0
308,323,302,307,0
308,319,305,311,0
308,311,307,315,0
308,299,310,319,0
309,285,312,321,0
309,274,313,321,0
309,266,313,320,0
308,266,313,318,0
307,272,313,318,0
305,282,313,318,0
302,293,314,319,0
299,304,314,320,0
297,314,314,320,0
296,324,312,320,0
297,330,310,319,0
300,333,308,319,0
303,330,306,318,0
307,322,305,318,0
310,312,306,319,0
314,305,309,321,0
317,297,312,321,0
318,284,314,320,0
317,274,313,316,0
315,270,313,312,0
314,274,313,309,0
312,283,311,306,0
309,292,309,304,0
307,300,307,303,0
306,307,305,304,0
305,316,302,304,0
304,324,300,305,0
303,332,299,306,0
302,339,298,308,0
302,351,301,309,0
301,364,305,310,0
299,367,308,310,0
297,359,309,310,0
296,343,308,310,0
296,323,306,310,0
297,304,305,310,0
300,292,305,309,0
304,289,305,310,0
308,294,306,309,0
311,302,306,308,0
311,306,306,307,0
310,307,306,305,0
309,312,307,305,0
309,321,309,306,0
308,329,310,306,0
305,329,310,307,0
303,323,310,307,0
302,313,310,307,0
302,297,311,308,0
301,276,312,310,0
300,261,314,311,0
301,261,315,313,0
304,273,314,313,0
307,292,312,310,0
310,311,306,306,0
310,326,302,300,0
309,332,298,295,0
307,328,296,291,0
305,321,296,291,0
304,315,299,292,0
304,312,301,295,0
303,307,301,297,0
302,305,301,299,0
302,306,301,301,0
304,314,302,302,0
306,325,304,304,0
307,331,304,304,0
306,330,302,301,0
303,325,300,298,0
301,320,299,296,0
300,320,300,297,0
302,322,303,300,0
305,323,306,302,0
309,322,307,302,0
310,317,308,300,0
310,303,307,298,0
310,282,305,296,0
310,259,303,296,0
311,244,303,296,0
312,240,303,297,0
313,245,304,297,0
314,257,306,301,0
315,270,307,305,0
314,281,307,310,0
311,290,306,314,0
309,297,305,318,0
308,302,306,321,0
309,307,308,324,0
310,310,311,326,0
309,313,313,326,0
308,319,314,325,0
308,330,314,323,0
309,349,312,320,0
310,371,310,318,0
309,389,308,316,0
306,396,306,314,0
304,391,305,313,0
304,376,305,314,0
306,358,306,315,0
310,341,308,315,0
313,330,309,315,0
316,324,310,314,0
318,321,311,313,0
320,318,310,312,0
320,315,309,311,0
317,312,308,310,0
314,309,307,310,0
311,304,306,310,0
309,299,304,309,0
309,297,304,309,0
310,300,305,310,0
309,303,306,311,0
306,303,308,311,0
301,293,307,311,0
296,275,307,310,0
293,258,306,310,0
295,249,308,312,0
299,246,310,313,0
302,244,310,312,0
303,244,310,311,0
305,253,310,311,0
308,268,311,310,0
312,288,310,310,0
313,303,309,309,0
313,312,308,310,0
311,312,307,311,0
309,307,307,311,0
306,306,307,312,0
304,313,306,311,0
303,322,304,310,0
302,330,302,308,0
300,333,300,306,0
300,331,298,305,0
300,327,297,304,0
301,324,298,303,0
302,322,300,303,0
303,323,301,303,0
305,327,302,302,0
307,331,303,302,0
309,332,304,301,0
308,329,303,300,0
306,321,303,299,0
305,311,302,301,0
306,305,303,304,0
309,309,304,308,0
313,321,305,310,0
315,333,306,310,0
316,337,306,309,0
315,334,306,308,0
313,326,306,306,0
310,319,306,303,0
305,314,305,301,0
302,309,304,298,0
301,306,303,297,0
301,297,303,297,0
302,283,304,299,0
304,278,306,301,0
306,285,307,303,0
307,296,308,305,0
308,303,308,305,0
308,308,308,304,0
307,314,308,301,0
305,320,307,297,0
303,323,305,294,0
301,326,303,292,0
300,327,303,292,0
299,321,302,294,0
299,306,303,295,0
299,287,304,298,0
301,270,306,304,0
303,264,308,311,0
306,272,310,318,0
308,281,310,322,0
310,285,309,324,0
311,288,309,325,0
311,291,310,325,0
308,292,311,324,0
305,292,311,323,0
303,296,312,323,0
303,300,313,323,0
305,308,313,323,0
307,318,313,321,0
310,325,311,318,0
310,327,309,315,0
309,324,306,312,0
307,319,304,311,0
305,316,303,312,0
304,317,304,313,0
303,320,305,314,0
304,324,306,315,0
305,328,307,315,0
307,326,308,315,0
309,320,309,316,0
311,313,310,315,0
313,307,311,315,0
316,301,311,316,0
319,295,312,316,0
321,289,312,316,0
323,285,312,316,0
322,284,312,316,0
321,290,312,315,0
321,305,313,315,0
321,324,314,315,0
321,337,313,313,0
318,339,312,310,0
313,333,311,308,0
308,322,308,306,0
304,309,306,304,0
303,298,305,304,0
304,289,304,305,0
305,284,303,306,0
306,281,303,307,0
305,278,303,308,0
305,275,304,310,0
305,276,305,310,0
305,284,305,310,0
304,297,305,309,0
302,308,303,308,0
299,312,303,307,0
299,309,303,306,0
301,303,304,307,0
303,299,306,308,0
304,295,307,308,0
304,292,307,307,0
303,292,306,307,0
302,297,305,306,0
301,306,304,306,0
302,316,302,304,0
302,322,301,303,0
302,325,301,303,0
303,324,301,303,0
305,322,301,303,0
305,316,299,301,0
305,303,299,300,0
306,289,299,300,0
308,282,301,301,0
312,283,303,302,0
315,286,303,303,0
317,281,303,303,0
317,268,302,303,0
317,255,303,304,0
318,249,305,305,0
319,250,307,306,0
319,252,309,308,0
317,253,311,310,0
314,255,312,311,0
311,263,313,311,0
312,280,315,311,0
315,309,315,309,0
318,343,312,304,0
316,369,307,298,0
311,382,303,292,0
306,384,299,288,0
302,378,298,288,0
299,373,299,289,0
297,367,299,290,0
295,359,299,289,0
293,347,299,290,0
293,337,301,290,0
294,332,304,291,0
297,332,306,293,0
299,335,307,295,0
300,337,307,296,0
299,338,306,297,0
298,336,306,300,0
298,329,305,303,0
299,319,305,308,0
302,309,306,311,0
306,301,308,314,0
309,298,309,315,0
311,299,310,315,0
312,303,310,314,0
313,307,310,314,0
313,312,310,314,0
313,318,311,315,0
312,321,312,315,0
311,320,313,315,0
309,313,312,314,0
306,301,309,313,0
304,292,308,312,0
303,291,307,312,0
304,297,307,312,0
306,306,307,312,0
307,312,306,312,0
305,306,305,312,0
303,285,304,312,0
300,256,304,313,0
297,227,303,313,0
295,202,302,314,0
294,188,303,315,0
295,187,305,317,0
298,191,308,318,0
302,196,311,318,0
307,208,314,318,0
312,232,317,315,0
316,267,316,311,0
317,308,315,305,0
316,346,313,301,0
314,374,312,299,0
313,392,312,299,0
313,400,311,299,0
312,400,308,298,0
311,396,306,298,0
311,392,306,299,0
311,387,307,301,0
310,377,307,301,0
308,360,305,302,0
304,342,304,302,0
301,325,304,303,0
299,315,305,304,0
299,310,307,306,0
299,309,308,307,0
300,309,308,308,0
300,306,309,310,0
301,304,311,312,0
303,306,313,313,0
306,314,314,314,0
308,324,314,313,0
309,329,312,312,0
307,328,311,310,0
305,327,310,309,0
302,325,309,307,0
300,323,309,306,0
298,323,308,306,0
296,324,308,305,0
296,325,307,305,0
295,323,305,306,0
295,317,303,305,0
294,310,301,306,0
295,303,300,307,0
295,296,300,308,0
296,290,300,309,0
298,286,301,310,0
300,278,303,312,0
304,261,306,314,0
307,239,309,316,0
310,219,312,317,0
313,205,317,319,0
316,205,320,320,0
319,220,324,321,0
320,243,325,321,0
318,262,325,320,0
313,270,324,318,0
306,268,321,316,0
299,259,318,312,0
293,257,316,310,0
292,269,314,308,0
294,289,312,305,0
297,308,308,302,0
301,321,303,299,0
303,331,301,297,0
306,339,301,297,0
308,345,303,296,0
313,355,306,297,0
318,370,309,298,0
321,386,311,298,0
321,395,310,297,0
319,398,308,296,0
316,394,305,293,0
313,383,301,290,0
311,366,298,288,0
310,345,297,287,0
310,326,297,285,0
307,313,298,284,0
304,308,300,286,0
302,310,302,290,0
302,316,303,295,0
303,321,303,298,0
304,322,304,302,0
307,319,305,305,0
309,312,306,308,0
312,305,306,312,0
313,298,306,314,0
314,292,307,318,0
313,288,309,320,0
312,286,310,319,0
309,282,309,318,0
307,278,308,315,0
306,281,307,312,0
306,292,307,310,0
306,304,306,309,0
306,311,307,310,0
306,310,308,311,0
306,305,309,313,0
305,301,309,315,0
306,302,309,317,0
307,308,309,318,0
307,317,307,317,0
308,328,306,317,0
309,339,306,315,0
311,346,307,314,0
312,347,310,312,0
315,346,312,312,0
317,342,313,310,0
318,331,311,309,0
317,312,309,308,0
314,288,308,309,0
310,268,308,309,0
307,260,311,310,0
306,265,314,311,0
308,275,315,312,0
309,282,315,311,0
308,279,312,309,0
304,268,310,308,0
301,257,309,307,0
300,247,309,307,0
301,242,308,308,0
302,249,306,307,0
303,265,304,306,0
302,290,303,304,0
304,318,303,304,0
305,340,304,304,0
305,350,304,304,0
305,351,305,305,0
306,354,307,307,0
309,352,311,307,0
311,340,313,307,0
312,318,314,306,0
312,292,313,305,0
311,268,310,304,0
310,258,309,303,0
310,261,310,303,0
311,273,312,305,0
313,287,314,306,0
313,299,315,308,0
310,314,314,308,0
307,330,312,307,0
305,346,310,307,0
305,359,308,306,0
304,368,306,305,0
304,370,305,305,0
304,362,305,306,0
303,349,306,306,0
303,334,307,307,0
303,324,308,308,0
305,319,310,310,0
307,316,311,311,0
308,315,310,310,0
307,312,308,308,0
306,304,305,306,0
303,293,302,303,0
302,281,300,302,0
302,273,300,301,0
303,269,302,302,0
304,272,304,303,0
304,284,305,303,0
303,301,305,300,0
301,320,303,295,0
299,335,301,289,0
297,345,300,285,0
297,348,301,285,0
297,348,304,289,0
299,346,309,297,0
300,341,313,305,0
300,331,315,310,0
299,321,314,314,0
300,315,314,316,0
303,315,313,318,0
306,313,314,317,0
309,307,313,315,0
309,296,313,312,0
309,282,312,311,0
310,267,313,310,0
312,259,314,310,0
313,264,315,309,0
312,279,313,306,0
310,296,309,303,0
306,308,306,302,0
302,311,303,303,0
299,308,302,304,0
297,305,301,307,0
298,306,301,308,0
299,309,302,308,0
301,312,302,307,0
304,314,303,305,0
305,318,304,302,0
306,323,305,299,0
306,327,305,298,0
306,329,305,301,0
308,327,306,305,0
310,325,308,310,0
310,325,309,313,0
310,325,308,313,0
309,327,307,312,0
308,331,305,312,0
308,333,305,311,0
308,329,305,311,0
308,321,306,313,0
307,308,306,313,0
304,293,307,314,0
303,279,307,315,0
303,270,308,318,0
305,271,310,321,0
310,283,313,324,0
315,298,316,325,0
320,315,318,325,0
322,332,319,324,0
321,342,319,321,0
318,339,317,317,0
313,328,313,313,0
308,311,311,310,0
304,295,309,308,0
301,284,309,308,0
298,281,308,307,0
295,286,306,306,0
294,295,303,305,0
294,302,299,304,0
295,306,297,303,0
297,303,296,303,0
299,293,295,302,0
300,284,296,301,0
301,283,299,301,0
303,289,302,301,0
303,297,304,301,0
304,304,306,303,0
304,310,307,305,0
303,314,309,307,0
301,314,310,309,0
299,310,311,310,0
298,304,310,310,0
297,300,310,311,0
297,298,309,312,0
297,296,308,312,0
298,295,307,313,0
299,297,307,313,0
303,302,307,313,0
308,309,307,313,0
312,311,307,313,0
314,303,308,313,0
313,293,308,313,0
314,288,310,314,0
316,287,314,315,0
316,281,316,316,0
314,273,316,315,0
312,269,316,314,0
309,266,315,313,0
306,260,313,312,0
304,258,312,311,0
302,261,311,310,0
300,268,311,310,0
300,285,312,311,0
300,302,313,311,0
301,311,314,310,0
300,315,313,309,0
298,319,313,308,0
294,323,313,307,0
294,332,312,306,0
295,346,310,304,0
298,358,306,301,0
299,364,302,299,0
301,365,300,298,0
304,364,300,298,0
305,365,301,298,0
306,366,302,299,0
306,366,303,299,0
307,363,303,300,0
309,359,305,302,0
311,353,306,303,0
312,346,306,303,0
313,339,306,303,0
313,331,304,302,0
313,322,303,300,0
315,316,302,299,0
316,312,300,297,0
316,306,298,295,0
314,299,296,293,0
310,291,296,292,0
307,283,297,293,0
306,280,298,294,0
304,279,300,296,0
302,280,303,299,0
302,281,306,302,0
302,283,309,305,0
303,289,309,306,0
303,300,309,306,0
304,314,309,304,0
303,326,308,302,0
302,333,307,300,0
301,332,307,299,0
303,324,309,301,0
306,314,311,303,0
308,305,311,305,0
310,301,310,306,0
310,300,307,307,0
308,300,305,308,0
305,298,304,309,0
302,298,304,309,0
300,302,303,309,0
299,305,303,311,0
299,304,304,314,0
298,298,305,318,0
299,289,307,321,0
301,282,309,325,0
305,276,312,328,0
308,270,313,329,0
310,262,312,328,0
310,257,311,327,0
309,256,310,326,0
305,256,310,324,0
299,251,309,322,0
291,243,307,320,0
285,241,307,319,0
283,255,309,318,0
286,281,309,317,0
291,311,307,315,0
297,339,304,314,0
302,358,302,312,0
305,367,301,311,0
306,368,301,310,0
306,362,302,310,0
305,346,304,311,0
305,324,306,312,0
307,301,308,314,0
310,289,311,317,0
313,285,314,319,0
314,282,316,319,0
313,276,316,319,0
310,265,316,320,0
307,251,317,321,0
306,245,319,323,0
309,255,321,324,0
315,286,323,323,0
322,324,319,318,0
325,354,312,312,0
323,367,305,306,0
316,363,298,303,0
309,351,295,303,0
305,337,294,304,0
303,332,293,304,0
303,334,293,303,0
302,336,294,302,0
301,336,294,301,0
300,334,294,301,0
300,334,295,301,0
300,333,296,301,0
301,332,298,302,0
302,329,300,303,0
305,327,302,304,0
308,326,304,305,0
313,329,306,308,0
317,332,307,309,0
319,334,306,309,0
316,333,305,308,0
312,327,303,306,0
309,315,301,305,0
305,298,300,304,0
303,283,300,304,0
302,275,301,303,0
302,275,301,303,0
304,281,302,304,0
306,291,305,306,0
308,299,307,308,0
308,303,309,309,0
309,303,310,309,0
310,300,310,309,0
313,300,311,308,0
318,306,314,308,0
321,314,316,308,0
321,322,315,307,0
319,329,314,306,0
316,334,312,306,0
312,333,309,307,0
310,324,305,309,0
307,309,304,311,0
304,288,304,313,0
300,264,305,315,0
297,241,306,316,0
295,222,308,315,0
294,210,307,314,0
296,210,307,313,0
302,227,308,311,0
308,255,307,309,0
311,287,305,305,0
309,318,302,301,0
307,343,299,299,0
304,359,298,299,0
303,365,297,301,0
302,362,297,303,0
301,357,295,302,0
301,351,293,299,0
301,349,291,295,0
302,348,289,292,0
301,346,288,289,0
301,342,289,289,0
300,336,293,293,0
299,330,297,298,0
298,325,301,303,0
298,321,304,306,0
299,315,306,308,0
302,306,306,309,0
306,297,307,310,0
309,286,308,312,0
311,273,308,315,0
311,262,309,319,0
312,257,311,322,0
314,260,312,324,0
316,273,314,325,0
318,291,315,325,0
319,305,314,323,0
319,311,312,319,0
317,310,310,316,0
315,306,308,314,0
311,299,307,313,0
307,292,307,314,0
304,286,308,316,0
305,283,309,319,0
303,277,308,320,0
298,267,305,319,0
291,258,304,319,0
286,255,304,319,0
284,262,306,319,0
284,278,307,318,0
288,301,307,317,0
296,328,307,314,0
306,350,306,312,0
314,365,307,309,0
321,371,307,308,0
324,367,308,308,0
322,353,308,307,0
318,335,307,307,0
315,320,307,308,0
311,314,306,309,0
306,313,305,310,0
302,315,303,310,0
299,317,301,310,0
298,319,299,310,0
298,321,298,310,0
300,320,297,309,0
301,317,297,309,0
302,313,297,309,0
302,307,298,308,0
302,304,298,308,0
304,306,300,309,0
306,313,302,311,0
309,322,307,312,0
312,328,311,313,0
315,331,315,315,0
317,330,317,315,0
319,329,317,315,0
320,326,315,315,0
320,319,313,315,0
320,309,313,316,0
318,299,313,316,0
315,290,313,317,0
312,283,312,317,0
310,275,311,317,0
310,269,311,317,0
312,273,312,318,0
313,288,313,317,0
312,304,312,316,0
309,314,310,314,0
305,318,309,313,0
303,319,309,312,0
304,320,311,312,0
306,322,314,312,0
309,326,316,312,0
312,334,317,311,0
314,342,317,308,0
314,350,315,304,0
313,357,312,298,0
311,357,308,292,0
307,344,302,287,0
305,327,298,286,0
305,313,298,287,0
305,307,298,290,0
305,303,299,295,0
304,301,300,299,0
304,301,303,303,0
306,300,306,306,0
307,295,309,308,0
307,287,311,309,0
305,280,314,310,0
302,278,316,309,0
300,279,316,308,0
298,282,314,306,0
299,284,313,304,0
301,284,311,304,0
304,285,309,303,0
306,286,308,302,0
308,286,307,302,0
309,286,308,303,0
310,285,308,304,0
311,286,308,305,0
313,288,309,307,0
316,293,309,311,0
316,297,310,315,0
314,299,313,318,0
312,296,315,321,0
309,289,317,323,0
308,278,317,324,0
306,270,316,323,0
304,271,314,320,0
303,279,309,316,0
302,291,305,309,0
302,300,301,302,0
304,307,299,297,0
307,308,297,295,0
309,308,297,294,0
309,314,299,296,0
308,324,303,299,0
306,333,305,302,0
303,341,306,305,0
302,349,306,310,0
305,357,307,314,0
310,366,308,318,0
315,374,309,320,0
317,377,309,321,0
318,374,310,322,0
316,365,310,322,0
314,351,311,322,0
312,334,311,321,0
310,316,311,320,0
309,297,309,319,0
308,285,309,319,0
308,285,309,318,0
308,290,311,319,0
309,292,312,318,0
307,284,310,316,0
304,272,307,314,0
303,267,304,313,0
304,273,304,313,0
308,290,305,314,0
312,310,306,315,0
315,323,308,316,0
315,328,309,316,0
314,327,310,315,0
310,325,310,314,0
306,321,309,312,0
304,316,309,311,0
303,315,311,312,0
304,317,311,312,0
305,317,312,312,0
304,313,312,311,0
303,306,311,311,0
301,293,310,311,0
300,272,309,311,0
301,248,309,312,0
303,225,311,314,0
308,215,316,318,0
317,227,321,321,0
324,252,323,321,0
326,285,321,317,0
324,316,317,311,0
319,341,312,305,0
314,357,308,301,0
309,364,306,299,0
306,361,304,299,0
302,352,303,298,0
299,343,302,298,0
297,338,301,297,0
297,334,301,298,0
299,335,303,299,0
303,337,305,301,0
306,338,306,301,0
307,337,305,301,0
307,334,304,301,0
308,328,303,302,0
311,319,304,302,0
311,306,303,301,0
309,293,302,300,0
306,292,300,297,0
305,300,299,295,0
305,310,298,292,0
304,316,298,290,0
303,315,298,291,0
302,310,301,293,0
303,307,303,297,0
304,310,306,301,0
308,318,308,305,0
311,325,309,308,0
314,328,309,309,0
314,327,309,308,0
312,322,309,308,0
308,316,308,306,0
303,308,306,304,0
300,297,303,303,0
299,282,302,302,0
298,271,301,300,0
