309,260,316,319,2
311,273,316,319,2
314,287,315,318,2
315,298,313,317,2
314,308,311,314,2
313,314,309,312,2
313,321,308,310,2
312,327,308,310,2
313,328,308,309,2
312,324,306,308,2
312,317,304,307,2
310,310,303,307,2
310,300,303,308,2
308,289,305,311,2
306,283,308,313,2
306,291,311,314,2
307,310,314,313,2
310,331,317,312,2
311,349,318,309,2
312,360,317,306,2
311,366,316,304,2
312,367,314,301,2
313,365,313,300,2
314,361,311,299,2
315,354,311,298,2
316,348,310,298,2
315,340,309,297,2
313,329,307,296,2
310,314,307,296,2
307,301,306,296,2
307,297,305,298,2
307,298,305,299,2
307,301,305,302,2
308,300,305,304,2
310,293,307,307,2
310,288,308,309,2
310,287,309,310,2
309,288,308,311,2
308,292,306,312,2
309,297,305,312,2
309,301,303,312,2
309,306,303,311,2
310,313,303,312,2
310,317,304,311,2
309,317,306,312,2
309,314,309,313,2
309,311,311,313,2
309,307,310,312,2
308,297,308,310,2
306,276,307,308,2
303,254,306,305,2
301,240,305,300,2
300,240,305,296,2
302,254,307,292,2
305,273,308,290,2
308,288,306,287,2
308,288,304,284,2
307,279,302,284,2
307,270,303,287,2
311,273,306,293,2
315,283,308,300,2
317,292,307,305,2
316,295,304,308,2
315,299,301,308,2
314,308,300,305,2
315,319,300,303,2
315,328,302,301,2
315,332,303,297,2
314,332,305,293,2
313,331,305,288,2
311,332,305,282,2
309,335,304,277,2
308,336,304,277,2
308,335,305,282,2
308,332,308,290,2
309,325,311,301,2
311,316,313,310,2
312,304,316,317,2
314,297,318,322,2
315,298,318,323,2
316,306,318,322,2
315,310,318,320,2
315,307,317,317,2
314,303,318,314,2
315,304,318,310,2
317,312,318,307,2
318,326,318,303,2
319,338,318,301,2
319,344,317,301,2
318,343,317,305,2
317,338,316,310,2
315,335,314,315,2
314,337,311,318,2
313,342,306,320,2
312,341,301,321,2
310,331,297,321,2
308,316,294,320,2
306,300,292,319,2
305,290,293,319,2
306,290,295,318,2
308,296,299,316,2
309,301,303,315,2
311,302,310,314,2
312,297,317,313,2
313,295,324,309,2
313,297,330,304,2
313,304,331,301,2
313,313,327,298,2
312,320,319,297,2
310,325,311,297,2
309,326,305,299,2
309,325,302,301,2
310,326,300,303,2
311,326,300,303,2
313,324,299,305,2
315,323,299,307,2
317,322,299,308,2
316,322,299,307,2
315,319,299,305,2
315,314,299,303,2
313,306,299,300,2
312,298,300,296,2
311,291,300,292,2
308,285,301,291,2
305,284,301,293,2
303,286,301,294,2
301,287,300,294,2
301,281,298,294,2
300,267,298,294,2
300,252,298,295,2
300,244,300,297,2
300,247,301,300,2
301,262,302,306,2
303,284,304,313,2
304,303,306,318,2
306,319,307,321,2
306,329,308,323,2
306,331,308,324,2
305,322,308,324,2
305,307,307,324,2
304,292,307,323,2
305,285,307,320,2
307,290,306,316,2
310,305,305,309,2
312,319,303,303,2
314,330,302,298,2
315,340,301,297,2
315,349,299,300,2
314,355,298,304,2
312,357,298,309,2
310,355,298,313,2
307,351,299,317,2
306,346,302,319,2
304,339,306,320,2
304,334,309,320,2
304,329,312,319,2
304,317,313,319,2
303,299,314,318,2
302,276,313,316,2
300,251,313,315,2
300,228,314,313,2
300,210,315,311,2
302,202,316,308,2
305,212,316,306,2
310,235,314,304,2
314,259,310,303,2
316,276,307,301,2
316,289,303,298,2
315,304,301,295,2
314,320,301,293,2
313,330,302,292,2
313,334,302,292,2
312,337,303,295,2
311,342,301,300,2
310,348,299,305,2
309,353,297,310,2
309,354,294,315,2
309,349,292,318,2
309,339,291,319,2
309,328,293,320,2
309,319,297,321,2
309,310,302,322,2
310,306,307,322,2
311,307,311,322,2
311,311,313,321,2
311,313,314,320,2
310,312,315,318,2
309,310,314,316,2
309,309,314,314,2
308,305,313,311,2
307,299,312,310,2
306,293,312,310,2
306,287,314,310,2
305,279,314,308,2
305,271,314,304,2
307,268,314,300,2
309,277,314,297,2
312,298,312,293,2
314,319,310,291,2
314,332,307,292,2
312,337,305,297,2
310,335,305,302,2
308,332,304,306,2
306,329,303,307,2
305,327,302,307,2
305,324,301,305,2
305,322,300,301,2
305,320,300,296,2
304,318,300,291,2
304,316,301,287,2
304,313,303,287,2
303,310,305,293,2
302,305,306,303,2
301,296,308,314,2
301,281,311,324,2
301,260,313,332,2
300,237,316,336,2
300,224,319,337,2
302,226,321,336,2
305,244,321,332,2
308,267,320,326,2
310,285,317,318,2
309,292,315,313,2
307,291,314,310,2
304,292,313,308,2
303,301,311,307,2
304,317,311,308,2
306,332,309,308,2
306,344,309,309,2
307,351,309,309,2
307,355,310,310,2
307,358,311,311,2
308,360,310,311,2
307,360,307,310,2
306,356,304,309,2
305,348,301,307,2
304,336,301,305,2
303,320,301,303,2
301,302,301,300,2
301,280,302,298,2
300,262,303,297,2
300,254,304,297,2
302,255,305,299,2
304,262,306,302,2
305,270,307,306,2
306,276,307,309,2
307,281,308,312,2
307,286,309,315,2
308,293,310,316,2
308,300,310,315,2
307,306,308,313,2
305,307,305,309,2
303,303,301,304,2
301,297,299,299,2
300,294,299,294,2
300,301,299,291,2
301,314,300,290,2
302,328,302,292,2
303,338,305,296,2
304,342,310,300,2
305,341,314,305,2
306,335,318,307,2
306,328,320,309,2
306,321,317,308,2
307,315,312,306,2
307,310,309,305,2
308,304,307,304,2
307,299,307,303,2
306,292,306,303,2
305,283,305,303,2
302,271,303,303,2
298,259,302,304,2
296,248,301,307,2
296,245,302,312,2
298,254,302,316,2
300,269,302,318,2
301,285,301,317,2
302,297,302,317,2
303,304,304,316,2
304,302,305,313,2
304,296,305,308,2
304,290,305,302,2
305,291,306,298,2
307,300,307,295,2
308,314,308,295,2
309,330,309,297,2
310,342,309,301,2
309,347,309,305,2
308,344,307,310,2
308,334,305,314,2
308,322,304,318,2
307,316,302,320,2
306,321,302,320,2
305,329,302,320,2
304,334,304,318,2
304,336,305,318,2
305,337,306,317,2
305,337,308,316,2
306,333,309,316,2
305,323,311,315,2
306,313,312,316,2
306,305,314,316,2
307,300,316,318,2
307,295,316,319,2
306,285,316,319,2
305,263,316,321,2
304,236,316,322,2
302,213,314,321,2
301,198,312,319,2
302,194,309,317,2
305,203,306,314,2
306,224,303,309,2
306,253,301,305,2
306,288,300,301,2
307,324,302,300,2
309,354,305,298,2
310,373,308,296,2
311,383,310,295,2
313,384,310,296,2
313,380,310,297,2
314,374,311,298,2
314,369,311,299,2
314,364,309,300,2
313,356,306,302,2
312,347,304,303,2
311,340,303,303,2
311,338,304,303,2
311,338,304,303,2
310,338,304,303,2
309,336,304,300,2
307,332,303,296,2
305,325,301,292,2
303,314,300,289,2
302,303,300,288,2
301,295,300,289,2
301,292,301,293,2
301,295,303,297,2
302,299,305,300,2
304,302,307,302,2
305,297,310,303,2
306,288,312,303,2
305,275,313,303,2
304,263,313,302,2
304,257,313,300,2
305,258,312,297,2
307,261,314,295,2
309,267,317,297,2
311,274,322,302,2
313,287,326,309,2
313,306,328,315,2
312,321,323,319,2
310,329,315,321,2
309,329,308,320,2
307,325,304,320,2
307,320,304,320,2
308,318,305,318,2
310,315,307,317,2
312,315,309,317,2
314,318,309,317,2
316,321,309,316,2
316,324,307,315,2
315,324,306,315,2
315,324,306,312,2
315,323,305,309,2
315,322,305,306,2
313,317,304,304,2
309,310,304,303,2
305,302,304,303,2
302,298,303,301,2
300,300,303,301,2
299,298,303,303,2
299,290,305,308,2
300,274,307,313,2
299,254,310,318,2
298,241,314,321,2
297,242,319,322,2
298,258,323,322,2
303,284,325,321,2
309,306,323,318,2
313,320,318,310,2
315,328,313,299,2
314,332,308,288,2
312,334,304,277,2
310,333,300,270,2
307,328,298,267,2
303,316,294,271,2
301,302,293,280,2
299,290,292,290,2
298,282,292,299,2
299,283,293,307,2
302,288,295,315,2
305,294,298,321,2
307,299,302,323,2
307,304,304,323,2
305,307,306,319,2
303,309,306,315,2
302,317,306,311,2
303,330,305,306,2
304,343,305,302,2
307,354,304,300,2
309,359,303,300,2
310,354,303,301,2
310,339,303,303,2
308,317,302,306,2
306,291,303,310,2
306,276,304,314,2
306,276,305,318,2
307,287,303,319,2
307,301,301,320,2
307,316,299,320,2
307,329,297,319,2
306,337,296,318,2
305,338,296,317,2
305,334,297,316,2
304,324,297,316,2
303,312,298,316,2
302,300,301,317,2
304,293,304,318,2
307,291,306,320,2
310,293,307,321,2
312,300,308,321,2
314,308,310,321,2
314,314,311,321,2
313,311,311,322,2
311,296,311,323,2
307,275,311,323,2
304,251,310,322,2
305,233,310,321,2
307,230,310,318,2
308,247,307,312,2
309,275,302,305,2
308,305,299,300,2
306,331,298,297,2
305,348,300,297,2
305,357,303,299,2
305,360,306,301,2
305,356,309,301,2
305,346,311,301,2
306,337,312,302,2
307,331,312,305,2
308,329,309,307,2
309,328,307,309,2
310,326,305,311,2
310,325,304,313,2
309,320,304,314,2
307,312,303,315,2
306,305,302,315,2
305,302,300,315,2
303,301,298,314,2
301,298,295,313,2
301,290,294,313,2
300,276,294,314,2
300,259,296,313,2
300,248,298,310,2
302,253,299,305,2
306,271,301,300,2
310,290,303,296,2
313,305,305,293,2
314,317,307,291,2
314,323,309,292,2
315,327,312,293,2
316,327,315,294,2
316,328,318,295,2
317,329,320,298,2
317,330,319,299,2
315,329,317,299,2
312,325,313,296,2
308,315,309,293,2
304,303,308,290,2
301,296,309,287,2
300,292,312,287,2
300,291,316,292,2
303,296,320,300,2
308,306,318,309,2
311,318,310,316,2
313,326,302,319,2
312,327,295,321,2
309,321,293,322,2
306,311,292,324,2
304,297,294,325,2
302,281,296,326,2
301,263,298,327,2
300,250,299,328,2
301,249,301,328,2
302,263,303,328,2
305,289,303,327,2
307,315,303,326,2
309,333,302,324,2
309,341,302,323,2
309,342,301,320,2
308,339,302,318,2
307,337,302,316,2
307,333,303,315,2
307,328,304,314,2
307,323,305,312,2
307,322,306,313,2
308,324,308,314,2
309,330,308,315,2
310,336,310,316,2
311,337,311,316,2
309,333,313,315,2
307,326,313,314,2
305,317,314,314,2
304,309,314,314,2
303,300,313,314,2
302,294,312,314,2
302,294,311,311,2
303,299,310,306,2
303,305,308,302,2
303,310,307,299,2
303,309,306,298,2
303,305,305,300,2
302,298,304,304,2
302,290,304,309,2
302,283,303,313,2
302,276,303,315,2
302,267,302,315,2
302,259,300,312,2
301,255,299,309,2
302,258,299,308,2
303,271,301,308,2
305,291,301,308,2
307,313,301,307,2
308,330,301,307,2
308,340,301,307,2
308,346,301,307,2
309,352,302,307,2
309,354,301,307,2
308,353,302,307,2
307,349,302,307,2
306,343,304,307,2
305,333,307,307,2
305,322,310,306,2
305,311,314,303,2
307,304,317,300,2
309,302,318,299,2
310,302,317,299,2
311,304,313,301,2
312,309,308,303,2
313,314,303,305,2
312,317,299,304,2
312,318,298,303,2
312,318,299,302,2
312,314,302,302,2
311,307,304,302,2
310,296,307,302,2
309,288,309,303,2
308,283,308,304,2
307,283,308,305,2
306,284,308,304,2
306,285,309,302,2
306,288,310,299,2
306,295,311,296,2
307,305,313,293,2
308,316,313,292,2
310,323,312,295,2
311,323,311,301,2
312,317,310,307,2
312,308,309,312,2
313,297,308,313,2
312,286,306,313,2
311,273,306,310,2
311,263,305,308,2
312,262,305,306,2
313,268,306,307,2
314,277,304,308,2
312,288,300,308,2
310,301,297,308,2
308,314,296,308,2
307,325,296,308,2
307,328,298,309,2
306,324,301,312,2
307,319,304,316,2
307,318,307,320,2
308,319,309,323,2
308,323,310,324,2
308,326,310,323,2
307,324,309,321,2
306,316,308,320,2
305,304,307,318,2
305,286,307,318,2
304,265,309,318,2
303,249,311,318,2
302,249,314,317,2
304,264,317,316,2
305,285,316,315,2
307,299,312,314,2
308,306,308,312,2
310,310,305,310,2
312,319,305,307,2
314,332,306,304,2
316,347,308,301,2
315,359,308,297,2
314,365,309,296,2
312,365,310,296,2
310,363,311,296,2
307,358,312,297,2
305,349,312,298,2
305,332,312,301,2
304,310,310,306,2
303,290,309,310,2
302,276,308,314,2
303,269,307,317,2
305,267,308,320,2
308,267,310,321,2
311,274,313,321,2
312,286,315,319,2
311,298,314,317,2
308,304,314,313,2
304,305,314,309,2
301,309,313,304,2
299,317,314,298,2
298,326,315,292,2
297,331,316,288,2
298,329,315,287,2
299,325,313,290,2
302,321,310,295,2
304,324,309,299,2
309,332,309,301,2
313,339,310,299,2
316,342,311,295,2
317,341,311,288,2
318,340,311,282,2
317,341,310,280,2
315,341,309,284,2
311,340,308,291,2
307,338,306,300,2
304,337,305,307,2
302,331,303,313,2
299,318,302,315,2
297,298,301,316,2
295,279,300,315,2
296,263,300,316,2
298,254,303,319,2
303,255,307,325,2
308,269,310,329,2
312,288,310,332,2
314,301,310,332,2
312,307,309,329,2
310,312,308,325,2
307,318,308,321,2
306,321,308,318,2
305,319,308,316,2
304,312,308,314,2
303,301,306,313,2
302,288,305,311,2
300,280,304,309,2
300,279,303,308,2
300,283,301,310,2
300,291,300,312,2
301,297,301,313,2
302,297,302,314,2
303,293,304,315,2
304,296,305,313,2
305,306,304,308,2
306,316,301,302,2
306,317,296,296,2
305,309,292,291,2
304,294,291,287,2
305,282,291,285,2
305,281,292,286,2
307,290,293,287,2
309,304,295,289,2
311,316,296,290,2
312,323,299,292,2
313,327,301,296,2
314,329,303,302,2
315,330,304,308,2
314,330,303,313,2
313,328,303,318,2
310,327,303,320,2
307,326,303,323,2
304,327,304,323,2
303,328,306,323,2
302,325,308,322,2
301,317,310,320,2
300,304,311,317,2
299,290,311,312,2
298,277,311,307,2
299,271,310,303,2
301,271,310,300,2
304,272,309,302,2
306,273,307,307,2
307,273,305,312,2
307,270,305,317,2
307,267,305,319,2
307,271,307,320,2
307,282,309,320,2
308,296,311,320,2
307,311,312,319,2
307,324,311,318,2
307,335,311,319,2
308,341,310,320,2
309,342,311,320,2
310,338,311,319,2
309,330,311,315,2
308,320,310,312,2
307,311,311,309,2
306,304,312,307,2
307,301,314,305,2
308,300,315,303,2
309,305,315,304,2
310,313,314,305,2
309,321,312,305,2
307,326,309,305,2
305,330,305,304,2
304,334,301,305,2
303,335,298,308,2
304,336,296,309,2
305,331,294,309,2
307,321,294,308,2
307,310,295,306,2
307,300,297,306,2
307,296,299,307,2
306,296,302,309,2
305,300,305,313,2
304,304,308,316,2
304,309,312,318,2
305,314,317,320,2
306,317,322,321,2
307,318,325,321,2
307,318,323,320,2
307,314,318,319,2
307,307,313,319,2
305,295,310,318,2
303,278,308,318,2
301,261,307,317,2
301,243,309,317,2
302,226,312,313,2
303,216,313,306,2
304,218,313,299,2
306,231,311,294,2
307,252,305,289,2
308,278,299,287,2
309,306,294,289,2
309,332,291,294,2
310,353,289,299,2
310,367,288,301,2
310,376,288,303,2
310,378,290,304,2
311,375,293,306,2
311,365,297,307,2
310,350,299,308,2
308,333,300,306,2
306,319,300,305,2
305,312,299,304,2
305,312,297,304,2
305,317,295,305,2
305,324,295,307,2
307,328,296,308,2
308,327,299,308,2
308,323,300,309,2
308,317,302,311,2
308,312,304,314,2
309,310,306,317,2
309,311,309,319,2
310,312,311,321,2
311,314,313,321,2
312,313,313,321,2
313,305,311,319,2
312,288,309,314,2
310,264,307,306,2
307,240,307,296,2
304,223,309,285,2
303,219,312,276,2
304,226,314,272,2
306,242,315,276,2
307,263,316,288,2
309,285,317,302,2
311,303,319,315,2
314,318,320,323,2
319,334,321,327,2
323,349,318,326,2
324,358,313,323,2
323,361,307,320,2
320,359,302,317,2
317,353,299,313,2
313,342,297,310,2
308,332,296,308,2
305,328,298,308,2
305,328,300,306,2
305,334,302,301,2
306,339,303,293,2
305,340,303,286,2
303,336,303,282,2
302,325,304,283,2
301,310,304,289,2
301,297,303,298,2
300,290,303,306,2
298,291,302,312,2
298,297,301,317,2
298,303,302,320,2
298,309,303,320,2
298,316,304,318,2
298,320,304,314,2
299,320,303,308,2
299,316,302,302,2
299,309,302,297,2
301,302,303,298,2
302,296,304,303,2
303,290,305,309,2
303,287,305,315,2
304,287,306,320,2
304,288,306,322,2
305,289,305,323,2
305,291,305,322,2
305,293,302,320,2
304,297,299,318,2
303,297,296,315,2
302,296,294,315,2
301,298,296,315,2
300,302,298,316,2
300,310,302,318,2
300,317,307,318,2
299,321,309,318,2
298,322,311,316,2
298,323,311,314,2
298,324,310,313,2
299,326,309,311,2
299,322,309,311,2
298,313,309,310,2
298,299,308,310,2
297,285,307,310,2
296,276,304,310,2
296,274,302,310,2
296,282,299,308,2
298,294,296,307,2
299,305,294,307,2
300,310,293,307,2
301,313,295,308,2
301,315,295,308,2
300,317,296,308,2
298,320,296,308,2
297,321,297,309,2
298,318,299,310,2
299,315,302,312,2
300,311,304,313,2
302,310,307,314,2
304,316,308,314,2
305,323,307,311,2
306,327,306,307,2
307,329,306,302,2
306,329,308,297,2
306,325,311,293,2
305,320,312,291,2
304,317,312,291,2
303,311,311,291,2
302,303,308,293,2
301,296,305,294,2
300,290,302,295,2
299,290,301,296,2
298,298,301,299,2
299,306,301,303,2
298,311,299,306,2
298,311,298,309,2
298,306,298,312,2
298,298,299,315,2
299,293,301,316,2
300,290,304,318,2
302,291,306,319,2
303,294,308,318,2
303,299,308,317,2
303,305,309,317,2
304,310,311,317,2
306,317,310,315,2
307,324,309,312,2
308,330,308,307,2
307,330,307,302,2
305,323,304,295,2
302,312,302,292,2
299,300,299,294,2
296,289,297,298,2
295,281,296,303,2
296,277,295,305,2
297,275,296,304,2
299,277,297,300,2
301,285,298,296,2
302,296,299,293,2
303,306,299,292,2
303,313,298,293,2
303,317,297,294,2
303,320,296,297,2
304,320,297,300,2
305,319,298,305,2
307,317,299,308,2
308,314,300,311,2
309,312,302,313,2
311,311,304,313,2
312,309,304,310,2
311,304,303,304,2
307,296,302,297,2
303,288,302,292,2
300,286,303,290,2
297,288,305,292,2
297,290,306,297,2
300,295,309,305,2
303,300,311,313,2
306,305,310,319,2
307,310,308,324,2
308,317,306,327,2
308,325,304,328,2
308,329,302,328,2
307,331,302,328,2
307,333,301,326,2
306,337,301,324,2
305,341,301,323,2
304,345,302,322,2
303,346,302,321,2
303,343,303,320,2
303,335,303,319,2
301,322,304,318,2
299,308,303,316,2
295,296,302,314,2
292,289,302,314,2
292,290,304,314,2
293,295,305,315,2
295,296,305,317,2
298,289,304,316,2
300,276,303,315,2
301,264,304,312,2
302,260,305,306,2
301,268,305,299,2
299,282,305,296,2
297,293,305,295,2
296,298,306,296,2
296,303,307,297,2
297,310,307,297,2
297,316,305,294,2
297,319,302,291,2
297,319,302,290,2
296,319,303,293,2
297,321,304,297,2
297,327,305,302,2
299,332,304,308,2
300,333,304,314,2
301,329,303,319,2
301,321,304,323,2
303,313,303,326,2
304,311,304,327,2
306,311,304,327,2
307,308,303,325,2
307,300,303,322,2
307,288,303,318,2
308,279,304,315,2
309,275,306,313,2
310,279,307,312,2
310,292,308,313,2
309,306,308,315,2
309,321,308,318,2
307,330,307,319,2
305,332,305,318,2
303,331,304,317,2
303,332,303,316,2
303,335,303,316,2
304,336,304,314,2
304,336,304,312,2
304,333,302,309,2
305,330,302,305,2
306,327,302,302,2
308,324,303,301,2
310,322,304,303,2
313,320,305,304,2
315,317,306,305,2
316,312,307,304,2
314,305,307,301,2
311,293,307,299,2
307,275,308,301,2
304,256,309,304,2
301,246,311,309,2
299,247,311,313,2
297,257,309,316,2
296,272,307,318,2
296,287,306,319,2
295,294,304,318,2
295,294,302,317,2
294,288,302,315,2
294,282,302,312,2
296,280,302,307,2
297,281,303,301,2
300,284,304,297,2
303,288,304,293,2
305,293,303,293,2
307,299,303,296,2
308,304,305,301,2
309,310,307,306,2
311,315,310,312,2
311,315,311,316,2
310,309,310,317,2
308,304,307,317,2
306,304,304,315,2
305,306,302,312,2
304,312,300,308,2
305,321,300,307,2
306,331,300,306,2
306,341,301,307,2
307,345,301,309,2
309,343,302,311,2
310,334,305,313,2
312,322,307,313,2
312,312,309,312,2
313,308,311,307,2
315,312,311,299,2
318,321,312,289,2
320,329,311,276,2
319,331,310,265,2
316,325,308,258,2
311,311,305,259,2
307,293,302,269,2
304,278,300,284,2
302,270,299,298,2
302,272,298,310,2
303,284,299,317,2
304,301,300,321,2
305,314,302,322,2
306,320,303,322,2
306,320,304,321,2
305,319,304,321,2
306,320,307,320,2
306,322,310,319,2
307,322,314,318,2
307,323,317,317,2
306,323,317,315,2
307,322,316,312,2
307,319,316,309,2
308,315,315,306,2
308,309,315,304,2
308,301,313,301,2
307,291,312,298,2
306,283,310,296,2
305,281,308,294,2
304,283,306,295,2
303,286,304,300,2
301,285,302,307,2
300,278,302,315,2
300,271,304,323,2
302,270,305,326,2
304,275,305,326,2
305,281,305,323,2
306,284,305,319,2
307,288,305,314,2
308,295,304,311,2
309,301,303,308,2
310,306,300,307,2
311,309,298,307,2
312,314,296,307,2
313,318,295,307,2
312,320,294,307,2
309,319,295,307,2
306,316,296,307,2
303,314,297,307,2
301,313,298,307,2
300,312,299,308,2
301,306,301,311,2
304,297,304,314,2
306,289,307,315,2
309,281,310,316,2
310,282,311,315,2
310,290,312,313,2
309,303,314,309,2
308,316,315,306,2
308,324,317,305,2
307,323,320,304,2
306,314,323,301,2
305,304,326,295,2
303,295,326,286,2
301,291,323,278,2
299,295,318,271,2
298,300,313,271,2
299,302,309,279,2
300,299,306,292,2
302,295,305,304,2
304,293,305,315,2
306,294,305,322,2
308,301,304,325,2
310,313,303,326,2
311,327,303,325,2
311,340,303,324,2
310,350,302,322,2
308,353,302,321,2
305,350,302,320,2
304,343,302,319,2
304,336,302,318,2
304,330,302,317,2
304,325,302,315,2
303,320,302,314,2
303,316,301,314,2
302,314,300,313,2
301,310,300,313,2
301,306,300,314,2
300,300,302,315,2
300,299,303,315,2
300,301,304,315,2
299,300,303,313,2
298,297,302,311,2
298,296,302,310,2
299,294,303,309,2
300,293,305,308,2
301,293,307,307,2
303,297,307,305,2
304,302,307,304,2
305,305,307,305,2
307,303,307,305,2
308,300,306,307,2
308,298,307,309,2
310,298,308,313,2
312,299,309,316,2
312,298,309,317,2
311,300,306,316,2
309,304,304,315,2
307,311,303,313,2
305,318,304,312,2
304,326,305,312,2
303,333,306,311,2
301,338,305,310,2
300,338,304,309,2
299,331,304,309,2
298,320,302,308,2
296,310,300,307,2
296,304,300,305,2
297,300,300,302,2
298,298,302,297,2
299,295,303,291,2
300,294,304,283,2
301,293,304,277,2
301,292,304,273,2
301,290,306,271,2
302,294,307,271,2
302,303,308,273,2
303,308,309,277,2
304,302,309,285,2
304,279,311,294,2
304,250,314,302,2
304,231,316,308,2
305,231,318,312,2
306,250,317,312,2
306,276,314,310,2
306,298,312,306,2
305,309,310,303,2
304,315,307,300,2
303,319,304,300,2
303,322,301,302,2
304,322,298,304,2
305,325,297,306,2
307,329,296,306,2
307,334,295,304,2
307,338,294,303,2
306,336,295,305,2
304,330,297,311,2
303,322,301,316,2
303,316,304,321,2
302,312,308,324,2
302,310,311,325,2
302,306,313,325,2
300,295,312,324,2
299,272,311,322,2
296,243,310,320,2
294,223,310,319,2
294,220,310,319,2
295,234,310,318,2
298,266,308,317,2
302,305,307,316,2
307,338,305,316,2
310,359,304,314,2
312,373,304,313,2
313,380,307,312,2
313,382,311,312,2
313,380,315,310,2
311,376,319,305,2
309,370,321,297,2
307,364,320,288,2
303,360,317,281,2
300,355,314,279,2
299,346,312,282,2
297,331,311,289,2
296,315,310,297,2
295,302,309,305,2
295,291,307,312,2
295,283,303,316,2
296,275,300,316,2
296,265,298,313,2
296,254,298,311,2
297,246,300,310,2
297,242,306,310,2
298,240,315,312,2
300,242,322,314,2
302,252,323,312,2
303,271,318,308,2
303,297,311,305,2
303,323,305,304,2
303,342,302,306,2
303,351,300,308,2
302,353,300,310,2
303,345,303,312,2
303,329,306,312,2
301,310,309,310,2
300,295,310,308,2
299,294,310,304,2
299,303,311,302,2
301,315,310,302,2
302,328,310,304,2
304,339,308,305,2
305,346,305,306,2
306,350,304,306,2
307,349,304,306,2
308,344,304,305,2
308,338,304,303,2
307,332,303,302,2
306,328,304,302,2
306,326,304,304,2
305,322,305,307,2
304,315,304,309,2
303,307,303,311,2
302,298,302,311,2
301,290,301,312,2
301,282,301,309,2
300,274,302,305,2
301,268,303,299,2
303,266,304,292,2
305,268,305,286,2
308,274,306,283,2
311,283,308,285,2
315,293,310,291,2
317,300,312,297,2
318,306,314,303,2
319,314,314,308,2
318,323,314,312,2
315,327,313,314,2
312,325,310,315,2
307,321,307,315,2
303,316,305,316,2
302,314,303,316,2
302,312,303,317,2
303,309,303,315,2
303,305,304,313,2
304,303,305,311,2
304,304,306,309,2
303,307,305,306,2
303,310,303,302,2
302,310,303,298,2
301,307,302,294,2
299,303,301,291,2
298,300,300,289,2
299,298,301,290,2
300,298,301,294,2
302,297,302,299,2
303,292,303,305,2
304,283,303,308,2
304,272,304,311,2
303,266,305,313,2
303,268,308,314,2
304,275,310,315,2
305,279,309,315,2
305,281,306,314,2
305,283,302,314,2
305,288,299,314,2
307,293,298,314,2
308,297,298,314,2
308,299,299,312,2
308,295,299,308,2
307,291,300,303,2
308,293,300,297,2
309,295,301,291,2
308,294,302,287,2
308,294,303,285,2
307,302,304,284,2
306,314,304,287,2
304,321,303,292,2
302,312,303,297,2
299,287,303,304,2
297,263,304,309,2
295,255,306,314,2
297,268,308,317,2
300,294,310,318,2
303,317,311,317,2
305,333,311,315,2
307,344,311,311,2
307,351,310,307,2
307,356,308,303,2
305,357,307,302,2
303,355,307,301,2
302,348,307,298,2
301,337,309,297,2
302,325,310,296,2
304,316,311,296,2
306,314,309,298,2
307,321,307,300,2
308,328,304,303,2
308,329,302,306,2
308,320,300,307,2
307,305,301,307,2
307,293,304,305,2
308,291,306,302,2
308,296,308,300,2
306,306,309,301,2
305,310,309,305,2
303,303,309,310,2
302,288,308,313,2
302,275,306,312,2
303,273,305,310,2
306,287,305,306,2
310,305,304,302,2
313,324,304,298,2
314,341,304,298,2
313,354,304,301,2
310,358,304,305,2
307,353,305,308,2
305,344,305,311,2
303,337,305,313,2
302,334,305,314,2
302,337,304,314,2
302,342,304,315,2
302,346,304,316,2
302,348,303,317,2
303,347,302,317,2
303,344,302,316,2
304,339,304,316,2
304,331,306,315,2
304,322,307,314,2
304,312,309,312,2
306,298,310,310,2
306,280,311,308,2
305,256,310,307,2
304,228,309,305,2
303,206,308,304,2
303,199,305,303,2
303,207,303,301,2
305,233,301,296,2
306,268,301,292,2
306,302,301,291,2
306,330,303,293,2
307,352,305,297,2
309,364,306,299,2
310,366,305,297,2
309,362,303,292,2
306,356,301,286,2
303,349,300,284,2
299,339,299,285,2
296,328,298,290,2
295,316,298,299,2
295,304,297,308,2
297,292,297,316,2
300,283,296,320,2
302,276,296,323,2
303,276,294,323,2
303,280,292,322,2
303,284,292,320,2
303,287,294,319,2
303,290,297,317,2
304,292,299,316,2
304,293,299,315,2
305,293,299,312,2
305,292,298,307,2
305,294,298,302,2
304,297,299,296,2
304,297,300,288,2
305,296,303,278,2
307,294,306,268,2
309,296,307,258,2
311,303,307,254,2
312,309,306,259,2
311,310,306,272,2
309,301,305,290,2
305,281,306,307,2
302,253,308,321,2
300,225,310,331,2
299,212,313,336,2
299,217,315,337,2
301,236,315,336,2
302,262,314,335,2
304,288,313,333,2
306,308,313,332,2
307,322,312,331,2
307,326,311,330,2
307,321,310,328,2
306,311,310,326,2
307,307,310,323,2
307,312,309,318,2
309,322,308,313,2
309,333,306,307,2
310,338,304,302,2
309,335,303,298,2
307,321,303,294,2
305,300,303,293,2
303,285,302,293,2
303,280,303,294,2
304,288,304,296,2
304,300,304,299,2
304,310,303,301,2
302,314,300,304,2
301,311,299,309,2
300,306,300,316,2
301,305,303,323,2
303,314,305,327,2
304,329,305,329,2
305,342,305,329,2
305,350,306,327,2
306,356,308,322,2
305,358,310,317,2
305,359,312,313,2
306,358,314,310,2
308,353,316,309,2
310,344,318,309,2
311,334,320,310,2
313,324,321,310,2
314,319,321,307,2
315,315,320,298,2
314,311,319,286,2
313,304,316,270,2
309,295,313,253,2
304,287,310,239,2
300,279,308,234,2
297,269,307,241,2
297,266,307,257,2
299,273,306,277,2
302,287,306,296,2
305,303,304,311,2
307,318,302,322,2
308,329,300,328,2
308,335,298,331,2
308,337,298,332,2
308,333,298,332,2
307,324,298,331,2
306,309,300,327,2
305,295,305,322,2
306,287,311,317,2
307,283,317,310,2
307,280,320,304,2
307,278,320,303,2
306,282,321,305,2
306,295,321,310,2
304,310,320,316,2
303,321,317,320,2
301,325,314,323,2
300,320,310,324,2
300,314,307,324,2
302,310,305,325,2
304,309,303,326,2
305,308,303,325,2
306,306,302,324,2
306,305,303,322,2
306,307,303,319,2
306,312,303,314,2
306,317,303,309,2
306,319,301,305,2
305,318,300,300,2
304,313,300,295,2
302,304,299,290,2
301,295,300,286,2
300,285,301,284,2
300,281,302,285,2
302,285,304,291,2
304,292,307,299,2
305,298,310,308,2
307,301,314,316,2
308,302,318,323,2
311,302,324,330,2
313,303,328,335,2
315,310,327,338,2
316,320,322,337,2
314,323,315,334,2
312,319,307,330,2
309,310,301,323,2
306,303,295,316,2
305,304,293,311,2
305,318,293,309,2
306,333,295,310,2
307,342,297,312,2
307,342,301,313,2
307,335,305,315,2
305,324,309,316,2
305,312,313,317,2
305,302,316,319,2
305,300,316,319,2
305,304,313,318,2
305,307,309,316,2
304,307,305,313,2
302,305,303,311,2
301,299,302,311,2
300,289,302,313,2
298,270,303,314,2
297,244,305,317,2
297,223,309,318,2
298,224,313,318,2
301,254,316,317,2
306,292,318,315,2
309,326,318,314,2
312,352,316,312,2
312,368,315,311,2
311,372,313,310,2
310,366,312,308,2
307,355,312,306,2
307,343,313,304,2
307,335,314,303,2
308,328,313,302,2
308,327,312,303,2
309,331,311,305,2
309,336,310,308,2
310,338,310,312,2
310,334,310,315,2
310,327,312,317,2
311,314,312,318,2
312,298,312,319,2
312,283,311,319,2
311,275,309,318,2
308,276,308,318,2
305,283,308,318,2
304,292,309,318,2
304,299,310,317,2
305,305,310,316,2
304,307,310,315,2
303,306,310,314,2
299,303,309,311,2
295,303,307,307,2
292,306,307,300,2
292,309,307,293,2
293,308,307,284,2
294,308,306,276,2
295,309,305,271,2
295,313,305,270,2
296,316,306,274,2
297,313,307,280,2
297,306,307,288,2
296,296,306,297,2
295,290,306,307,2
296,285,305,316,2
296,281,304,321,2
295,279,303,324,2
295,285,303,324,2
296,297,303,321,2
297,308,303,316,2
296,314,304,308,2
296,318,304,303,2
295,325,304,302,2
296,329,305,307,2
299,329,306,315,2
304,324,309,323,2
308,316,310,328,2
309,309,310,328,2
311,303,308,326,2
313,299,306,321,2
314,297,306,316,2
315,298,306,312,2
315,303,307,310,2
313,303,308,311,2
312,297,309,315,2
312,292,310,319,2
314,294,311,323,2
315,302,310,322,2
315,313,310,319,2
314,323,312,313,2
312,330,314,308,2
309,330,317,302,2
307,329,318,299,2
306,333,317,297,2
306,339,314,296,2
307,343,309,295,2
306,342,306,292,2
306,337,303,288,2
304,326,302,284,2
302,311,301,278,2
299,296,299,273,2
297,283,298,269,2
296,276,297,267,2
295,276,296,268,2
295,282,296,274,2
295,286,296,283,2
294,282,296,295,2
293,271,298,308,2
294,261,300,318,2
296,257,302,326,2
299,261,305,332,2
304,275,309,335,2
308,294,311,337,2
309,308,312,336,2
308,313,312,334,2
307,308,313,330,2
306,298,314,324,2
306,290,315,316,2
307,285,314,309,2
308,284,311,305,2
309,288,308,303,2
309,302,305,304,2
310,322,304,307,2
311,340,303,311,2
311,350,302,314,2
310,354,301,315,2
309,354,300,315,2
307,354,301,314,2
306,354,302,311,2
306,353,303,308,2
307,351,304,305,2
308,347,305,304,2
309,340,305,305,2
309,332,304,309,2
309,326,303,312,2
308,325,302,315,2
309,326,301,317,2
311,325,301,319,2
313,321,300,321,2
315,318,299,321,2
314,318,300,321,2
314,317,301,320,2
311,313,303,318,2
309,310,305,316,2
307,306,308,314,2
307,301,309,313,2
307,292,309,313,2
308,282,309,314,2
310,277,310,314,2
312,280,310,314,2
314,289,310,313,2
315,302,309,309,2
314,312,308,301,2
312,317,306,293,2
308,317,303,286,2
304,312,302,281,2
302,302,302,278,2
302,291,304,278,2
303,280,307,282,2
304,271,311,287,2
304,268,316,295,2
305,269,318,302,2
305,270,318,308,2
305,273,317,311,2
304,280,314,314,2
304,288,310,317,2
304,299,305,320,2
303,308,302,322,2
301,313,302,325,2
300,313,304,327,2
300,313,306,329,2
299,314,308,330,2
299,312,308,331,2
298,307,309,331,2
298,308,309,330,2
299,320,308,326,2
299,334,306,321,2
300,342,304,316,2
301,340,303,310,2
302,330,303,305,2
301,316,302,302,2
300,302,303,299,2
299,291,302,297,2
298,288,302,297,2
299,293,303,298,2
302,299,304,301,2
304,303,305,305,2
306,307,304,308,2
306,310,303,311,2
306,308,302,314,2
305,300,302,318,2
304,290,302,320,2
302,284,302,320,2
301,282,302,320,2
301,283,301,318,2
302,282,302,314,2
304,274,303,308,2
306,263,304,300,2
307,255,305,290,2
307,252,304,280,2
307,260,303,276,2
307,277,302,281,2
307,292,302,291,2
306,295,303,303,2
304,288,304,314,2
301,280,304,321,2
300,273,305,326,2
299,267,304,327,2
299,262,305,325,2
301,264,306,323,2
304,280,308,321,2
306,303,310,319,2
307,329,311,316,2
308,350,313,312,2
309,363,314,307,2
310,368,313,300,2
312,368,311,290,2
315,367,308,281,2
317,366,305,275,2
319,366,303,277,2
320,366,302,284,2
319,361,300,294,2
317,344,300,304,2
314,314,301,312,2
311,275,302,318,2
309,242,303,322,2
309,233,304,324,2
310,246,306,325,2
311,271,308,323,2
310,298,309,322,2
307,316,309,321,2
304,321,308,320,2
301,315,308,319,2
299,308,311,318,2
299,307,316,318,2
301,312,322,318,2
303,317,327,320,2
305,316,328,320,2
306,313,325,318,2
307,319,317,314,2
307,333,309,308,2
306,344,302,300,2
305,347,298,292,2
303,345,296,287,2
302,342,296,284,2
303,341,296,283,2
303,344,297,282,2
304,348,298,283,2
303,349,299,288,2
303,346,301,297,2
302,340,303,307,2
302,332,305,316,2
301,320,307,321,2
302,305,310,323,2
303,290,313,324,2
304,276,315,321,2
306,265,312,317,2
308,263,307,312,2
310,271,303,308,2
312,286,301,307,2
312,302,298,306,2
310,316,297,306,2
310,325,298,305,2
310,331,300,304,2
310,335,302,300,2
310,339,303,296,2
307,339,303,292,2
305,333,304,293,2
303,326,305,297,2
303,321,306,304,2
302,319,306,311,2
303,317,307,318,2
304,313,309,322,2
303,305,312,321,2
303,295,315,317,2
302,287,316,312,2
301,281,314,310,2
302,280,313,312,2
303,278,311,316,2
302,274,309,320,2
300,270,307,323,2
300,270,306,323,2
301,277,304,320,2
303,290,302,313,2
304,307,298,307,2
306,320,295,302,2
307,325,295,298,2
307,321,295,298,2
305,311,296,300,2
303,300,298,303,2
303,286,301,307,2
303,265,304,313,2
304,239,306,318,2
304,218,307,319,2
305,212,308,319,2
307,225,306,318,2
309,248,303,317,2
311,266,300,316,2
312,275,297,314,2
313,279,296,314,2
314,283,296,314,2
314,288,298,315,2
317,297,300,315,2
322,313,302,315,2
325,332,303,314,2
327,348,303,313,2
327,356,304,313,2
323,354,304,313,2
318,343,305,312,2
312,328,308,312,2
306,309,310,312,2
300,291,312,313,2
296,282,313,314,2
294,280,312,312,2
293,281,308,309,2
293,279,304,304,2
294,273,300,300,2
294,266,298,298,2
296,267,298,299,2
297,279,298,301,2
299,296,298,301,2
300,308,298,299,2
300,313,299,297,2
301,320,301,296,2
302,333,303,294,2
305,350,305,294,2
309,363,307,296,2
310,369,308,300,2
309,368,309,305,2
306,368,311,309,2
304,370,313,311,2
303,372,315,312,2
303,372,317,309,2
303,367,320,304,2
303,359,323,296,2
303,351,325,289,2
303,343,325,282,2
304,336,324,278,2
304,330,322,280,2
305,325,321,286,2
305,321,322,294,2
305,318,321,302,2
303,315,318,308,2
301,307,312,313,2
300,293,307,316,2
298,277,303,318,2
297,265,301,320,2
297,263,300,320,2
298,269,299,317,2
299,279,298,312,2
300,288,297,307,2
301,294,297,302,2
301,296,299,299,2
301,295,301,299,2
301,293,304,301,2
301,293,306,303,2
301,296,308,306,2
302,298,311,310,2
303,297,313,311,2
304,293,316,310,2
304,290,317,309,2
305,291,317,307,2
307,299,317,304,2
308,311,315,301,2
308,319,311,300,2
303,320,307,301,2
298,316,303,303,2
293,311,300,307,2
289,307,299,309,2
288,306,298,309,2
289,307,298,307,2
293,307,297,301,2
298,308,297,291,2
301,307,296,281,2
304,307,296,274,2
305,305,295,270,2
305,302,296,272,2
304,303,296,280,2
303,305,299,293,2
304,309,301,304,2
305,312,302,311,2
306,311,303,311,2
307,308,303,307,2
307,304,304,302,2
307,300,305,299,2
306,298,306,296,2
305,296,306,295,2
303,290,306,298,2
300,273,305,303,2
297,252,305,311,2
295,232,306,318,2
294,223,306,324,2
295,228,304,325,2
297,240,302,324,2
299,258,300,323,2
300,281,297,322,2
301,302,296,321,2
302,320,298,320,2
302,334,301,318,2
302,340,303,317,2
300,338,304,317,2
298,335,305,317,2
298,331,305,318,2
298,321,306,320,2
298,311,307,321,2
298,303,308,322,2
297,301,307,322,2
296,303,307,322,2
296,306,308,322,2
297,314,309,322,2
298,325,311,321,2
298,334,312,320,2
297,337,312,320,2
297,333,312,319,2
297,325,313,320,2
298,319,314,321,2
299,314,314,322,2
300,308,314,323,2
301,298,313,322,2
301,280,312,321,2
301,258,311,319,2
302,245,309,317,2
304,249,308,314,2
306,268,309,312,2
309,292,310,310,2
312,313,311,307,2
313,329,311,303,2
313,343,310,299,2
311,350,307,295,2
309,347,306,292,2
306,332,306,290,2
303,309,307,291,2
301,287,309,293,2
300,278,313,298,2
303,284,317,303,2
305,297,318,306,2
307,313,318,306,2
309,328,315,305,2
309,337,312,304,2
309,340,308,302,2
309,341,305,301,2
309,339,302,301,2
310,336,301,300,2
309,331,300,299,2
309,322,299,297,2
307,312,298,292,2
305,303,297,285,2
303,302,296,276,2
299,307,295,265,2
296,311,294,254,2
294,311,295,249,2
294,305,297,252,2
294,299,299,257,2
295,294,302,267,2
296,289,305,280,2
297,288,307,296,2
298,288,309,312,2
300,291,313,327,2
304,293,317,338,2
307,291,320,346,2
310,290,321,348,2
311,293,320,347,2
312,302,317,344,2
311,309,314,340,2
310,312,312,336,2
309,313,312,332,2
308,313,311,328,2
307,316,309,323,2
306,325,307,315,2
305,337,307,304,2
303,346,307,292,2
301,351,308,280,2
298,349,307,270,2
296,342,305,265,2
295,332,303,266,2
295,322,300,272,2
296,310,299,281,2
297,297,298,290,2
299,284,298,299,2
300,272,299,309,2
301,264,300,319,2
302,258,299,326,2
300,249,299,327,2
298,241,299,324,2
297,241,301,320,2
297,251,305,315,2
300,267,308,309,2
303,276,312,305,2
304,277,313,305,2
304,279,313,306,2
303,291,313,308,2
304,313,313,309,2
305,334,314,308,2
306,350,313,304,2
306,355,311,301,2
305,351,309,299,2
305,342,307,301,2
305,331,306,305,2
306,323,306,310,2
307,320,306,313,2
308,323,307,316,2
310,328,308,319,2
310,332,309,321,2
312,335,309,324,2
312,336,310,327,2
312,335,311,328,2
312,332,312,328,2
312,330,313,327,2
312,330,314,324,2
312,331,314,320,2
312,333,313,314,2
312,331,313,312,2
311,324,313,311,2
310,306,312,311,2
307,277,307,311,2
304,245,303,312,2
299,217,301,314,2
297,206,302,315,2
297,219,304,316,2
299,247,304,316,2
300,280,303,311,2
301,308,300,303,2
301,327,298,293,2
301,334,297,279,2
302,333,296,269,2
303,331,296,266,2
302,330,298,272,2
302,328,300,285,2
303,324,304,299,2
305,322,307,312,2
308,326,309,321,2
311,333,309,327,2
311,336,307,330,2
310,333,304,330,2
308,328,302,329,2
305,325,300,326,2
304,329,300,321,2
304,334,302,316,2
305,335,305,309,2
306,330,308,303,2
306,321,310,299,2
305,312,311,298,2
305,309,312,298,2
305,312,312,298,2
305,315,312,298,2
303,312,311,298,2
302,303,312,301,2
301,292,312,306,2
299,286,312,313,2
299,285,311,320,2
298,289,309,325,2
298,294,308,328,2
300,303,308,330,2
302,314,308,329,2
304,324,309,326,2
304,332,310,322,2
305,338,310,315,2
305,339,311,307,2
304,335,311,300,2
303,326,312,296,2
302,315,312,295,2
301,304,312,297,2
301,292,313,302,2
302,281,315,308,2
302,272,316,312,2
302,267,314,316,2
302,269,313,319,2
304,281,310,320,2
305,298,306,319,2
305,318,303,317,2
304,331,300,314,2
304,334,298,311,2
303,329,297,309,2
303,318,297,307,2
302,307,297,305,2
302,299,297,304,2
303,294,297,302,2
303,288,297,300,2
304,280,299,296,2
305,270,301,290,2
307,263,303,285,2
308,269,304,284,2
311,285,303,290,2
314,304,303,298,2
315,321,302,304,2
315,332,301,307,2
313,336,300,305,2
310,333,301,296,2
306,326,301,284,2
303,315,302,273,2
300,304,304,269,2
300,299,305,273,2
300,298,305,282,2
300,298,305,291,2
300,295,306,298,2
299,283,307,302,2
298,268,310,302,2
298,259,312,303,2
298,262,314,305,2
300,279,317,311,2
303,301,319,316,2
305,318,323,322,2
308,328,325,325,2
309,334,325,326,2
308,337,321,326,2
306,332,315,324,2
302,321,307,320,2
298,306,302,315,2
294,297,301,312,2
292,298,300,311,2
292,309,300,313,2
293,325,299,317,2
295,338,296,320,2
297,342,293,323,2
300,335,290,325,2
302,321,288,324,2
302,305,288,321,2
301,291,289,319,2
300,277,292,315,2
298,263,294,313,2
298,257,296,312,2
299,260,300,313,2
302,272,303,315,2
306,286,305,314,2
308,303,307,309,2
311,321,308,304,2
312,340,310,299,2
312,355,310,296,2
310,363,309,296,2
307,364,309,299,2
305,357,308,303,2
304,347,308,308,2
303,338,309,311,2
302,327,308,312,2
302,314,308,310,2
303,301,308,306,2
303,291,308,302,2
302,284,308,302,2
303,280,306,306,2
303,281,303,310,2
303,288,302,313,2
304,298,301,315,2
304,307,301,316,2
305,314,301,315,2
306,319,301,313,2
307,321,302,312,2
307,322,303,308,2
305,320,304,302,2
304,312,303,295,2
301,300,302,287,2
299,292,301,282,2
300,294,301,282,2
302,302,303,289,2
304,310,305,300,2
306,314,307,309,2
307,314,308,315,2
308,309,310,317,2
309,303,311,317,2
310,300,312,315,2
311,301,311,313,2
311,309,310,312,2
310,319,309,312,2
310,327,309,313,2
309,331,308,314,2
308,334,306,314,2
306,336,305,313,2
305,338,306,311,2
305,340,308,311,2
304,341,310,310,2
304,342,312,309,2
306,343,311,305,2
306,341,307,301,2
307,335,302,297,2
307,326,297,292,2
306,317,293,289,2
306,308,290,291,2
307,304,290,295,2
306,300,292,302,2
305,296,293,309,2
303,291,296,316,2
301,284,299,320,2
300,276,302,324,2
299,267,304,325,2
299,258,307,326,2
299,251,308,325,2
298,246,307,324,2
296,248,305,323,2
296,258,305,322,2
296,268,305,322,2
295,274,303,321,2
293,275,300,318,2
291,271,299,314,2
289,264,301,309,2
290,265,305,305,2
292,274,309,300,2
295,289,312,296,2
298,309,312,292,2
301,329,310,292,2
304,342,308,295,2
306,346,305,299,2
307,344,301,303,2
308,338,295,307,2
307,333,290,310,2
307,330,288,312,2
306,330,288,311,2
305,330,290,310,2
305,327,294,307,2
305,320,299,305,2
305,317,304,304,2
306,318,310,305,2
306,317,314,308,2
304,311,316,309,2
300,302,317,310,2
296,293,315,309,2
291,284,312,307,2
287,275,309,305,2
287,263,305,305,2
291,247,304,308,2
296,233,305,311,2
304,236,309,314,2
312,254,311,314,2
316,275,309,308,2
316,293,306,297,2
313,306,301,287,2
309,316,297,276,2
306,325,294,271,2
303,332,293,272,2
301,334,294,278,2
300,329,295,286,2
300,327,297,293,2
302,328,299,300,2
304,331,299,305,2
305,331,299,310,2
306,327,300,314,2
306,322,300,316,2
304,318,302,317,2
304,315,304,315,2
303,310,305,311,2
302,298,306,304,2
302,280,307,294,2
300,263,308,287,2
300,255,311,286,2
303,263,313,291,2
305,281,314,298,2
307,303,314,305,2
308,321,312,311,2
308,330,310,315,2
306,333,308,320,2
305,330,307,325,2
304,323,308,329,2
305,319,310,331,2
308,322,312,331,2
311,329,313,330,2
314,334,314,327,2
315,340,316,324,2
316,345,316,322,2
316,346,316,321,2
313,342,316,320,2
310,334,316,316,2
306,327,315,310,2
304,321,314,303,2
303,318,312,298,2
303,317,310,294,2
304,316,309,291,2
307,317,308,292,2
309,320,308,295,2
310,325,307,301,2
309,329,307,306,2
307,331,305,310,2
305,332,302,310,2
304,331,299,305,2
303,328,296,297,2
302,320,293,287,2
301,308,290,277,2
299,294,290,272,2
297,282,292,274,2
295,275,296,283,2
295,275,300,289,2
295,276,304,289,2
295,275,307,283,2
296,273,309,279,2
298,273,312,282,2
303,273,315,292,2
307,270,317,304,2
310,264,317,316,2
311,260,316,326,2
312,265,315,336,2
313,280,315,343,2
313,299,314,347,2
313,318,312,347,2
311,332,310,345,2
310,343,309,341,2
309,349,308,336,2
309,352,308,331,2
308,351,308,326,2
307,344,307,321,2
307,329,307,318,2
308,309,307,317,2
308,286,307,317,2
310,271,308,318,2
312,273,310,320,2
315,294,311,321,2
317,324,312,322,2
316,349,311,320,2
313,360,311,317,2
311,356,311,313,2
310,345,311,309,2
309,333,312,307,2
308,325,313,307,2
307,321,313,309,2
304,315,311,313,2
302,307,308,317,2
300,299,307,320,2
299,293,306,322,2
298,289,305,320,2
297,287,305,317,2
296,284,305,312,2
297,286,305,309,2
298,293,305,306,2
300,303,305,303,2
303,317,305,303,2
306,331,305,305,2
308,343,305,308,2
310,350,305,308,2
311,353,305,307,2
311,353,306,303,2
309,353,307,299,2
308,353,308,296,2
306,349,310,296,2
305,339,311,300,2
304,324,311,305,2
304,311,311,310,2
305,307,312,313,2
307,308,311,311,2
307,308,310,304,2
305,299,309,296,2
301,280,308,286,2
297,255,307,277,2
294,238,307,271,2
294,242,307,270,2
296,261,306,272,2
301,286,306,272,2
305,307,306,268,2
307,318,305,269,2
308,322,303,278,2
309,320,303,293,2
308,316,303,308,2
308,315,305,322,2
308,318,308,333,2
307,322,309,338,2
306,326,309,339,2
304,325,309,338,2
304,322,310,336,2
304,322,311,333,2
305,326,313,329,2
308,333,313,326,2
310,335,313,323,2
312,333,312,320,2
312,327,311,316,2
311,322,310,315,2
311,321,311,314,2
311,324,312,315,2
311,328,314,314,2
310,329,315,313,2
308,326,315,310,2
306,320,313,307,2
302,309,309,306,2
299,293,305,308,2
296,274,301,312,2
295,260,299,315,2
296,259,298,317,2
298,272,299,318,2
301,290,300,319,2
304,305,300,317,2
305,315,300,313,2
304,315,301,306,2
303,308,303,299,2
303,296,305,293,2
304,283,308,287,2
305,272,312,284,2
307,273,315,284,2
308,287,317,286,2
309,304,317,289,2
308,319,316,294,2
306,327,312,297,2
304,328,308,298,2
304,325,305,297,2
304,320,304,297,2
305,315,303,297,2
306,313,303,298,2
307,314,303,298,2
308,319,302,300,2
309,322,302,303,2
312,323,302,307,2
315,319,304,312,2
318,310,305,317,2
319,296,307,321,2
319,286,310,325,2
319,282,312,328,2
318,279,312,329,2
315,274,313,329,2
312,270,315,329,2
309,266,318,328,2
306,267,319,327,2
304,278,318,324,2
303,297,314,320,2
301,315,306,316,2
297,327,299,312,2
294,331,293,310,2
292,326,292,309,2
292,316,295,309,2
291,305,300,310,2
290,299,305,310,2
289,301,308,308,2
289,311,311,307,2
291,323,312,305,2
293,328,312,304,2
296,324,313,304,2
299,315,315,306,2
301,305,316,308,2
303,297,315,309,2
303,296,315,309,2
305,303,313,308,2
304,316,312,307,2
304,331,311,307,2
305,345,310,307,2
306,353,309,307,2
307,356,308,307,2
309,357,307,309,2
311,356,307,311,2
311,349,306,312,2
310,337,306,311,2
306,322,307,308,2
301,310,306,303,2
296,303,306,297,2
292,299,306,293,2
290,295,307,294,2
288,287,308,297,2
287,275,310,303,2
287,265,312,306,2
289,261,314,306,2
291,269,316,303,2
294,286,317,297,2
297,302,315,290,2
299,313,312,285,2
301,319,311,283,2
303,323,309,287,2
304,326,307,297,2
304,327,305,309,2
304,326,305,319,2
304,325,304,325,2
304,324,304,327,2
305,322,305,327,2
305,323,307,325,2
306,327,310,321,2
306,327,314,317,2
306,319,317,313,2
305,305,319,309,2
304,295,320,308,2
304,295,319,310,2
304,299,316,312,2
305,303,313,312,2
305,306,309,309,2
304,303,305,306,2
302,297,300,305,2
302,288,297,306,2
302,282,295,308,2
303,281,296,310,2
304,287,297,310,2
304,297,298,310,2
303,309,299,309,2
302,317,299,308,2
301,318,300,307,2
300,312,300,308,2
300,304,301,310,2
303,298,302,313,2
306,299,303,315,2
311,305,303,316,2
314,312,302,314,2
315,315,301,311,2
316,312,302,309,2
314,302,303,308,2
311,288,305,309,2
308,269,308,312,2
308,254,311,317,2
308,247,314,320,2
309,252,314,322,2
312,267,313,319,2
315,289,311,312,2
316,308,306,301,2
313,321,300,292,2
309,327,294,284,2
305,331,292,278,2
302,334,291,274,2
300,336,290,272,2
299,337,289,272,2
298,333,288,274,2
296,322,289,281,2
295,309,291,291,2
294,298,296,302,2
295,293,301,313,2
298,292,308,320,2
301,291,314,325,2
303,289,318,326,2
303,288,320,325,2
302,286,320,324,2
300,281,319,323,2
299,277,317,321,2
298,275,316,320,2
299,277,315,318,2
299,286,314,316,2
301,301,315,315,2
303,319,316,316,2
307,336,317,316,2
309,344,316,316,2
310,345,314,314,2
311,337,312,313,2
311,324,312,312,2
312,313,313,312,2
314,310,314,313,2
316,316,315,313,2
316,325,313,313,2
315,334,311,313,2
314,339,309,313,2
311,339,308,312,2
309,338,307,310,2
306,335,307,309,2
304,331,306,308,2
303,326,307,307,2
303,319,308,307,2
302,308,309,305,2
299,297,308,298,2
298,289,307,291,2
297,285,306,285,2
298,287,306,281,2
300,292,305,281,2
302,295,305,284,2
302,296,305,290,2
302,301,305,297,2
301,307,304,302,2
301,312,303,305,2
301,313,303,307,2
301,312,304,308,2
300,306,304,308,2
301,303,305,310,2
302,305,306,311,2
303,311,306,311,2
305,315,307,313,2
307,310,308,312,2
309,294,308,306,2
309,277,306,296,2
309,267,304,284,2
310,272,302,271,2
314,287,302,265,2
317,306,303,265,2
320,322,304,271,2
320,334,304,279,2
319,340,304,290,2
316,339,304,302,2
314,333,306,313,2
312,324,309,320,2
310,317,311,323,2
307,311,312,323,2
303,306,312,320,2
299,300,311,316,2
297,291,311,314,2
296,282,310,315,2
296,278,310,319,2
298,280,309,323,2
298,285,308,326,2
298,293,305,327,2
297,300,302,327,2
297,305,299,327,2
298,310,296,327,2
300,312,297,328,2
303,313,298,328,2
304,313,301,326,2
305,314,302,323,2
304,318,303,319,2
302,322,305,315,2
302,325,306,313,2
302,328,307,312,2
303,330,308,312,2
304,330,307,312,2
305,323,306,312,2
305,309,305,311,2
303,289,304,310,2
302,265,306,310,2
301,253,308,310,2
300,255,310,309,2
299,263,309,306,2
298,270,307,301,2
298,274,307,293,2
301,276,308,287,2
304,279,308,285,2
307,284,306,289,2
308,294,304,296,2
309,304,302,302,2
308,308,301,306,2
305,307,303,310,2
303,306,305,311,2
302,307,309,311,2
302,311,312,310,2
302,317,310,307,2
302,322,306,303,2
302,327,303,300,2
303,331,301,298,2
304,334,302,299,2
304,336,304,300,2
305,335,307,300,2
305,334,308,299,2
306,329,308,299,2
306,322,306,301,2
306,313,304,305,2
305,305,302,306,2
304,299,300,308,2
304,289,299,312,2
304,272,299,318,2
304,253,300,323,2
304,240,303,327,2
305,237,305,330,2
306,244,306,330,2
307,258,305,330,2
308,268,304,328,2
307,275,301,325,2
305,280,299,322,2
303,285,297,319,2
301,296,296,317,2
299,309,296,315,2
298,323,296,315,2
298,337,299,314,2
300,349,304,314,2
302,355,308,313,2
305,356,312,312,2
307,353,313,310,2
308,345,312,307,2
308,338,310,304,2
307,331,308,302,2
305,323,305,302,2
301,313,304,304,2
297,301,305,308,2
295,293,309,311,2
293,287,312,314,2
293,285,313,315,2
295,290,312,316,2
298,298,309,316,2
301,307,305,315,2
304,318,301,315,2
306,333,300,314,2
308,347,299,314,2
308,353,299,313,2
307,350,299,313,2
307,341,301,313,2
306,332,301,312,2
305,325,301,310,2
304,319,301,307,2
305,314,303,305,2
306,310,305,302,2
307,309,308,299,2
307,308,310,297,2
305,305,311,295,2
302,298,313,290,2
300,292,314,279,2
299,290,314,266,2
298,297,314,254,2
298,304,313,245,2
298,307,309,240,2
297,297,305,246,2
295,281,302,263,2
294,269,300,283,2
294,271,300,303,2
297,283,300,318,2
300,296,301,326,2
304,304,301,330,2
308,307,301,330,2
312,305,303,327,2
317,303,306,321,2
321,300,309,315,2
324,295,312,308,2
326,290,314,304,2
326,290,316,304,2
325,294,315,308,2
321,303,313,312,2
314,312,309,314,2
307,321,305,314,2
299,329,302,314,2
293,332,299,314,2
289,331,297,316,2
289,328,297,318,2
291,324,299,319,2
292,318,299,320,2
292,307,300,321,2
292,296,301,322,2
292,287,303,323,2
294,282,306,325,2
296,281,309,327,2
298,284,311,328,2
300,287,314,328,2
303,284,317,326,2
304,282,318,322,2
304,285,316,315,2
304,293,313,309,2
304,307,309,303,2
305,317,304,295,2
304,319,300,288,2
303,314,297,283,2
301,303,295,280,2
299,294,295,280,2
297,291,295,280,2
296,292,296,282,2
296,298,299,286,2
298,305,302,292,2
301,306,304,300,2
303,300,306,309,2
305,291,308,317,2
306,286,309,323,2
305,285,309,325,2
303,291,307,324,2
303,306,305,321,2
304,321,304,316,2
305,335,301,309,2
307,345,299,299,2
308,348,297,291,2
308,345,296,289,2
306,340,296,292,2
305,335,298,298,2
303,331,300,306,2
302,328,301,314,2
300,323,302,320,2
299,316,304,326,2
298,304,305,331,2
298,287,308,334,2
297,265,309,334,2
295,245,309,332,2
295,230,310,331,2
298,227,313,329,2
302,241,316,329,2
306,270,316,327,2
310,301,316,325,2
312,328,314,322,2
314,349,313,320,2
314,362,314,317,2
313,368,314,315,2
310,365,315,313,2
308,352,315,311,2
305,334,316,307,2
302,315,317,303,2
300,302,318,300,2
298,294,318,299,2
298,289,317,298,2
299,285,315,299,2
302,283,312,300,2
306,280,309,301,2
310,282,308,305,2
314,292,307,309,2
316,306,306,312,2
316,318,305,314,2
314,324,304,314,2
311,324,305,313,2
308,319,306,312,2
305,313,306,311,2
304,307,306,310,2
304,306,306,309,2
306,313,307,309,2
308,327,309,309,2
309,340,310,308,2
309,349,310,306,2
307,354,308,302,2
305,356,307,296,2
304,354,306,291,2
302,346,306,287,2
301,336,307,286,2
299,327,307,289,2
299,320,308,294,2
299,314,308,298,2
300,310,307,295,2
301,308,304,291,2
302,307,302,286,2
303,304,300,285,2
304,298,298,287,2
306,288,298,294,2
307,280,298,303,2
309,278,300,313,2
310,281,302,320,2
310,286,302,322,2
308,288,302,321,2
306,290,302,318,2
304,295,302,315,2
303,302,303,313,2
302,307,305,312,2
302,309,307,309,2
303,310,308,303,2
304,312,308,296,2
305,314,308,288,2
306,312,307,282,2
307,305,305,283,2
307,294,305,290,2
307,285,305,301,2
307,281,305,312,2
307,281,305,321,2
307,283,305,327,2
307,285,306,330,2
307,288,306,331,2
307,292,306,328,2
306,293,305,323,2
305,294,304,319,2
305,291,303,316,2
303,285,302,312,2
300,278,301,306,2
297,276,302,302,2
295,279,303,301,2
295,287,304,303,2
296,296,305,306,2
297,306,304,308,2
299,315,304,310,2
301,323,305,311,2
303,329,306,312,2
305,327,307,313,2
306,312,308,313,2
306,283,310,313,2
307,253,312,315,2
307,231,313,317,2
308,225,315,319,2
310,241,316,319,2
314,268,317,319,2
319,302,317,316,2
322,334,316,309,2
322,356,313,301,2
320,364,311,292,2
316,360,307,287,2
311,352,305,286,2
306,344,304,286,2
302,338,302,289,2
300,329,301,294,2
297,318,302,301,2
297,312,306,308,2
297,310,309,311,2
298,307,312,310,2
298,297,314,308,2
299,284,316,307,2
301,276,317,307,2
304,283,320,306,2
307,299,324,306,2
310,316,326,306,2
312,328,328,308,2
313,335,329,308,2
314,338,330,308,2
315,339,329,305,2
317,338,327,299,2
319,338,324,290,2
319,340,322,283,2
318,340,319,280,2
316,337,315,282,2
313,329,310,290,2
308,321,307,301,2
304,311,304,312,2
301,303,303,321,2
300,304,304,327,2
300,314,303,329,2
300,323,302,329,2
300,326,300,327,2
300,324,298,325,2
300,322,298,323,2
301,325,299,320,2
304,331,302,319,2
307,335,305,317,2
310,332,307,316,2
311,321,307,315,2
310,307,307,313,2
307,294,307,311,2
304,290,306,309,2
303,293,306,310,2
302,302,305,311,2
301,310,304,310,2
301,318,304,307,2
302,323,307,304,2
303,326,310,302,2
305,326,313,303,2
305,322,314,305,2
304,312,314,309,2
304,300,314,312,2
303,290,313,313,2
302,288,311,312,2
301,294,307,311,2
301,300,303,310,2
302,303,299,311,2
301,303,296,310,2
300,302,294,306,2
297,299,294,300,2
293,290,296,296,2
289,275,299,294,2
286,262,301,292,2
285,252,301,289,2
287,245,300,284,2
290,240,297,279,2
293,239,295,277,2
297,244,293,281,2
302,256,294,290,2
310,275,298,301,2
317,292,300,309,2
322,302,302,314,2
325,309,303,316,2
327,319,305,317,2
327,335,306,318,2
325,348,307,319,2
320,353,307,319,2
315,351,307,319,2
310,342,306,316,2
305,331,304,313,2
301,320,303,309,2
298,311,303,306,2
296,302,304,303,2
295,293,306,301,2
295,284,308,300,2
297,279,311,298,2
299,281,313,294,2
303,287,314,291,2
307,297,315,291,2
311,310,315,296,2
314,321,313,302,2
314,326,313,308,2
313,325,312,312,2
312,322,311,313,2
310,323,311,311,2
308,327,310,306,2
307,334,309,303,2
306,336,307,302,2
305,332,305,305,2
304,321,303,309,2
301,307,303,312,2
298,296,302,312,2
295,287,303,309,2
293,280,303,306,2
291,274,303,303,2
291,272,305,302,2
292,274,307,304,2
295,282,309,309,2
297,292,310,313,2
299,300,310,315,2
300,302,309,316,2
300,303,309,316,2
300,301,308,316,2
299,296,307,316,2
299,292,306,315,2
300,293,305,313,2
302,299,303,308,2
303,306,301,303,2
303,314,299,297,2
302,318,298,292,2
301,318,298,291,2
300,311,297,293,2
301,302,298,294,2
302,299,298,292,2
302,303,298,292,2
303,308,298,294,2
304,313,298,298,2
305,318,297,303,2
305,320,297,309,2
306,320,298,314,2
305,314,300,318,2
306,304,301,321,2
307,296,301,323,2
308,292,301,323,2
309,287,299,322,2
310,281,298,320,2
311,273,296,318,2
312,270,296,315,2
312,272,298,313,2
313,277,302,311,2
314,283,305,308,2
313,288,306,304,2
312,288,305,302,2
310,287,303,302,2
305,291,303,303,2
302,298,304,303,2
299,307,308,303,2
298,315,315,301,2
298,325,319,296,2
298,340,319,289,2
300,352,317,282,2
305,358,313,276,2
311,360,310,273,2
315,357,308,273,2
316,353,306,279,2
316,348,304,286,2
315,338,303,294,2
312,324,302,300,2
307,304,302,302,2
301,282,303,301,2
295,258,304,299,2
291,241,307,302,2
289,236,310,307,2
291,244,313,315,2
293,259,312,321,2
294,273,310,325,2
295,283,308,326,2
295,288,307,324,2
295,292,305,319,2
294,296,304,316,2
295,299,304,316,2
296,301,304,317,2
297,302,305,320,2
299,305,307,321,2
301,305,308,321,2
302,306,309,320,2
303,308,309,317,2
303,311,307,315,2
303,317,305,313,2
304,323,305,314,2
304,329,305,315,2
305,335,305,316,2
307,342,305,316,2
308,348,304,317,2
310,347,303,316,2
312,343,301,316,2
311,339,298,314,2
309,340,295,312,2
307,346,294,310,2
306,351,294,309,2
305,351,294,307,2
306,348,294,305,2
306,345,294,303,2
306,341,294,299,2
306,335,296,296,2
305,327,298,294,2
304,321,299,295,2
303,318,300,297,2
302,315,301,302,2
302,308,304,308,2
301,297,306,313,2
301,285,309,315,2
301,281,311,316,2
303,288,312,315,2
304,296,311,312,2
304,298,308,307,2
304,294,305,304,2
303,285,302,302,2
302,273,301,303,2
301,265,301,306,2
301,264,303,308,2
301,267,305,310,2
303,275,307,309,2
304,284,307,307,2
307,290,306,304,2
310,296,307,299,2
313,301,308,292,2
315,307,309,286,2
318,318,309,281,2
320,330,308,279,2
323,337,307,281,2
325,339,307,288,2
324,336,306,297,2
318,332,304,305,2
312,328,300,310,2
307,328,297,311,2
304,333,295,306,2
303,337,294,297,2
304,338,295,285,2
304,337,297,275,2
303,335,299,271,2
302,332,301,272,2
302,329,303,277,2
302,327,303,285,2
302,324,302,296,2
302,321,300,306,2
301,318,298,316,2
300,314,297,324,2
300,309,297,329,2
300,302,298,332,2
300,290,300,332,2
300,270,303,330,2
299,246,307,328,2
299,232,311,326,2
298,237,313,324,2
297,260,312,324,2
297,284,311,325,2
299,300,311,325,2
301,308,313,323,2
303,312,313,319,2
304,312,313,314,2
305,312,311,307,2
306,315,309,303,2
308,322,308,302,2
311,330,307,303,2
312,335,305,303,2
311,334,303,303,2
310,328,302,302,2
310,322,302,302,2
310,317,303,304,2
310,312,303,306,2
310,306,305,310,2
311,304,307,316,2
313,302,311,322,2
314,301,312,325,2
313,304,312,325,2
311,308,309,323,2
309,310,307,320,2
307,310,306,317,2
307,303,305,315,2
307,293,306,313,2
307,283,306,313,2
307,281,307,312,2
307,291,309,311,2
308,306,311,312,2
308,320,312,313,2
307,326,311,313,2
305,326,311,313,2
303,320,312,313,2
301,310,312,309,2
300,300,312,303,2
299,288,312,296,2
298,271,310,285,2
296,257,310,272,2
296,252,310,263,2
298,261,311,260,2
303,286,313,264,2
310,314,313,275,2
317,336,311,289,2
319,348,309,300,2
319,350,307,310,2
319,346,306,317,2
318,341,306,322,2
318,338,306,324,2
318,336,306,324,2
316,330,305,324,2
313,318,304,323,2
309,304,303,322,2
305,295,303,321,2
303,297,305,321,2
302,310,306,318,2
302,328,307,314,2
304,342,306,309,2
304,349,305,303,2
305,351,303,300,2
304,344,303,298,2
303,326,304,296,2
302,299,305,294,2
300,269,306,293,2
300,248,308,294,2
302,242,309,295,2
305,253,309,299,2
309,272,309,306,2
313,294,309,314,2
315,312,308,320,2
316,322,306,321,2
315,327,305,320,2
314,329,304,314,2
311,330,304,307,2
309,328,303,302,2
306,324,303,302,2
305,322,304,306,2
305,327,306,312,2
306,338,307,317,2
309,350,308,320,2
311,359,307,320,2
313,363,307,318,2
316,365,307,315,2
318,363,307,311,2
319,356,307,308,2
320,346,307,305,2
320,332,308,305,2
320,318,308,307,2
320,303,310,312,2
321,287,312,319,2
321,275,314,324,2
320,266,315,328,2
318,263,314,330,2
317,262,313,327,2
312,257,311,319,2
304,249,308,308,2
297,246,306,296,2
295,256,306,287,2
296,273,306,282,2
298,285,306,282,2
301,288,306,288,2
304,287,306,295,2
305,291,306,301,2
305,303,304,307,2
304,317,303,311,2
302,325,303,314,2
299,324,302,315,2
296,320,302,315,2
294,320,302,314,2
295,328,302,313,2
298,339,305,315,2
302,346,307,316,2
305,350,308,317,2
307,353,306,317,2
307,354,304,317,2
305,355,301,317,2
303,354,299,316,2
300,347,297,315,2
296,335,295,313,2
292,320,294,310,2
288,305,295,308,2
286,293,297,305,2
287,280,303,301,2
289,267,308,298,2
291,258,310,298,2
293,255,310,299,2
293,258,311,302,2
294,261,310,304,2
293,260,308,306,2
293,260,307,308,2
292,266,306,310,2
293,284,307,312,2
295,309,307,314,2
296,332,308,315,2
298,347,308,316,2
299,351,310,318,2
302,341,311,319,2
304,327,311,319,2
306,315,311,319,2
308,310,310,318,2
310,314,309,316,2
310,323,308,314,2
309,333,308,311,2
307,340,309,308,2
305,345,311,305,2
303,346,312,302,2
301,346,312,298,2
299,342,313,294,2
298,334,311,289,2
297,323,308,283,2
296,311,304,280,2
295,298,302,280,2
294,288,300,286,2
294,285,300,295,2
295,285,301,303,2
295,286,300,307,2
294,284,300,306,2
294,280,300,304,2
296,276,300,302,2
300,276,300,303,2
306,281,300,308,2
312,287,301,313,2
316,296,303,316,2
320,310,305,316,2
321,324,306,314,2
322,336,306,312,2
323,347,307,308,2
324,358,307,302,2
325,363,307,297,2
327,362,308,294,2
331,353,310,293,2
334,342,312,293,2
336,330,314,297,2
336,320,316,303,2
336,316,316,309,2
333,317,316,314,2
329,320,313,316,2
323,321,309,314,2
316,317,305,311,2
308,310,301,309,2
299,300,299,307,2
291,287,299,306,2
285,271,298,306,2
283,251,299,307,2
281,228,300,308,2
280,207,302,308,2
280,194,304,307,2
280,195,304,305,2
281,211,304,303,2
282,236,303,301,2
285,268,302,301,2
290,301,301,303,2
295,329,299,305,2
299,347,296,307,2
303,353,295,310,2
306,345,295,312,2
306,326,296,314,2
306,305,299,316,2
307,291,305,319,2
308,292,312,322,2
308,305,318,323,2
309,320,323,324,2
310,333,326,326,2
311,341,326,327,2
314,344,326,329,2
316,343,326,329,2
318,341,326,327,2
317,340,325,321,2
314,342,322,312,2
308,341,318,302,2
303,338,315,294,2
299,333,311,291,2
298,329,309,291,2
299,327,307,297,2
301,324,308,304,2
304,318,309,311,2
307,313,308,313,2
306,304,306,312,2
305,292,304,311,2
303,277,303,310,2
302,266,303,308,2
302,264,304,307,2
303,267,304,308,2
305,269,304,308,2
307,265,305,308,2
308,257,305,307,2
310,260,306,307,2
312,275,306,308,2
315,297,306,312,2
319,320,307,316,2
323,336,307,319,2
324,346,307,319,2
323,351,306,317,2
320,352,306,313,2
317,353,306,306,2
314,352,305,299,2
311,349,304,290,2
308,342,304,280,2
305,332,305,271,2
301,319,306,263,2
296,302,307,262,2
291,283,309,270,2
288,269,311,286,2
287,265,313,300,2
288,267,312,311,2
289,269,311,318,2
290,270,309,321,2
291,269,308,320,2
292,270,308,319,2
295,274,308,319,2
299,280,309,320,2
303,288,309,323,2
305,295,309,325,2
305,300,309,327,2
305,303,308,328,2
304,302,307,328,2
302,293,306,327,2
300,278,304,326,2
298,263,304,325,2
297,249,304,326,2
298,242,305,326,2
302,241,306,325,2
304,248,304,321,2
308,268,302,316,2
312,304,301,311,2
316,345,303,306,2
319,379,305,300,2
320,393,308,296,2
319,382,311,294,2
317,358,311,294,2
314,338,309,297,2
311,330,306,301,2
308,332,304,304,2
306,341,302,306,2
305,353,302,307,2
306,359,304,307,2
306,358,306,307,2
306,350,307,306,2
306,339,308,307,2
306,328,308,308,2
306,318,309,309,2
307,308,309,309,2
307,298,307,308,2
306,289,307,306,2
304,282,308,307,2
304,278,309,311,2
304,276,310,316,2
303,271,310,319,2
302,261,309,319,2
300,254,308,316,2
300,258,308,313,2
300,273,308,309,2
300,294,308,306,2
301,314,307,305,2
300,329,306,306,2
300,335,305,308,2
300,334,305,311,2
301,327,306,313,2
303,317,308,314,2
307,306,309,314,2
310,293,310,313,2
311,278,310,311,2
311,262,307,305,2
310,253,304,296,2
310,258,304,288,2
312,276,305,286,2
316,299,308,291,2
318,321,310,297,2
318,338,310,304,2
316,350,309,310,2
314,356,307,314,2
312,356,304,312,2
309,350,302,307,2
306,342,300,301,2
305,334,300,297,2
304,329,301,296,2
305,328,302,298,2
306,329,304,306,2
307,326,307,316,2
307,316,311,325,2
306,301,315,333,2
307,285,320,338,2
310,272,321,341,2
315,263,319,342,2
320,257,315,341,2
325,256,312,338,2
329,262,307,334,2
329,275,302,327,2
325,293,299,321,2
318,307,295,315,2
311,314,291,307,2
305,316,288,297,2
302,315,287,287,2
301,314,288,277,2
301,310,288,271,2
298,297,288,271,2
293,281,288,276,2
287,274,289,287,2
284,281,293,298,2
283,296,297,306,2
284,309,300,310,2
288,318,302,310,2
292,321,303,307,2
298,318,304,303,2
302,311,304,299,2
305,307,306,298,2
308,311,309,300,2
310,318,310,303,2
311,325,311,306,2
312,329,311,306,2
313,329,311,308,2
313,325,310,310,2
312,315,310,315,2
310,301,311,321,2
309,285,313,327,2
308,272,315,329,2
307,264,317,327,2
307,257,318,322,2
306,250,317,317,2
305,243,314,314,2
303,243,311,314,2
302,255,309,314,2
303,274,310,316,2
305,290,310,319,2
305,302,310,320,2
306,313,308,319,2
306,325,307,316,2
305,337,305,312,2
305,348,304,309,2
305,356,303,307,2
304,360,301,305,2
304,359,299,304,2
303,352,298,303,2
304,339,297,302,2
304,322,296,301,2
305,306,297,301,2
306,294,296,300,2
306,284,296,299,2
308,278,297,299,2
309,278,299,302,2
308,283,301,305,2
305,287,303,308,2
303,283,305,310,2
300,271,307,310,2
298,262,309,308,2
297,259,311,307,2
298,268,312,307,2
301,285,313,309,2
304,303,313,311,2
306,320,312,310,2
306,331,312,307,2
306,336,312,303,2
305,335,312,302,2
303,331,311,303,2
302,321,310,305,2
302,309,307,308,2
300,297,306,312,2
300,291,307,316,2
301,295,310,320,2
303,305,311,321,2
305,314,310,318,2
305,323,308,314,2
307,334,308,309,2
309,345,309,305,2
312,354,310,301,2
314,358,312,299,2
315,360,313,297,2
314,359,312,296,2
313,354,311,295,2
310,347,309,297,2
309,336,309,301,2
307,324,310,306,2
305,310,312,310,2
304,299,312,308,2
303,295,311,302,2
303,295,307,294,2
303,296,305,292,2
305,299,303,295,2
307,304,302,300,2
310,307,303,307,2
315,308,304,313,2
319,306,305,316,2
321,302,305,314,2
321,299,306,311,2
322,298,306,307,2
324,300,306,305,2
326,303,306,306,2
325,303,306,307,2
321,299,305,307,2
317,289,304,305,2
312,275,302,303,2
308,261,301,301,2
306,251,301,301,2
305,248,302,299,2
303,252,303,296,2
300,267,304,295,2
297,286,303,296,2
294,302,302,298,2
292,313,301,300,2
290,317,301,303,2
290,319,302,307,2
292,321,305,311,2
294,323,307,313,2
296,322,308,312,2
299,320,309,308,2
301,320,309,304,2
304,320,309,299,2
307,317,311,296,2
309,315,311,297,2
310,314,311,301,2
310,308,312,306,2
308,297,314,308,2
306,281,315,307,2
303,272,314,306,2
302,273,313,306,2
302,277,310,307,2
301,280,307,307,2
299,281,305,308,2
296,280,305,309,2
296,280,306,310,2
296,284,306,311,2
298,290,304,312,2
298,295,300,314,2
300,294,297,314,2
302,286,294,310,2
303,270,292,307,2
305,254,292,307,2
306,244,293,308,2
307,248,295,310,2
307,265,297,313,2
308,287,301,316,2
308,307,305,318,2
307,326,307,318,2
305,342,309,318,2
304,354,308,317,2
303,363,307,314,2
302,368,306,312,2
302,368,306,311,2
303,365,308,310,2
304,361,310,311,2
306,357,312,310,2
309,353,313,310,2
311,346,313,308,2
313,337,312,306,2
315,329,313,305,2
316,325,313,305,2
316,321,312,306,2
314,316,312,309,2
312,308,311,312,2
308,298,310,313,2
304,289,310,315,2
300,277,311,316,2
299,268,312,318,2
300,259,316,319,2
305,252,320,316,2
312,250,324,309,2
319,257,325,297,2
324,266,323,281,2
325,270,320,268,2
324,271,315,262,2
321,273,311,263,2
318,280,307,269,2
317,294,303,278,2
317,313,301,289,2
318,328,301,300,2
317,340,302,310,2
314,349,302,316,2
310,351,302,317,2
305,349,301,313,2
300,342,299,305,2
296,330,297,295,2
293,317,296,288,2
293,310,298,288,2
293,314,301,294,2
293,324,303,303,2
291,333,304,313,2
289,339,304,321,2
287,343,304,326,2
287,346,304,329,2
288,348,303,329,2
289,347,302,329,2
289,344,302,326,2
289,339,302,322,2
289,334,302,317,2
289,331,303,313,2
291,329,304,311,2
292,325,305,311,2
294,320,306,312,2
294,315,307,314,2
295,310,308,317,2
296,307,308,319,2
296,306,308,320,2
296,307,307,320,2
296,308,307,320,2
296,308,306,320,2
296,308,305,319,2
297,307,305,318,2
297,306,306,317,2
298,303,306,316,2
298,295,305,316,2
298,284,305,315,2
298,268,304,315,2
298,251,304,315,2
298,233,304,316,2
298,213,304,315,2
298,195,303,312,2
299,182,302,302,2
302,181,302,286,2
305,195,303,268,2
306,219,305,250,2
306,247,308,234,2
306,275,313,226,2
306,299,322,232,2
308,318,332,247,2
312,333,339,268,2
316,344,341,289,2
322,348,338,305,2
326,343,328,314,2
327,330,316,320,2
326,313,306,326,2
323,302,299,331,2
317,300,295,336,2
310,310,293,338,2
305,328,293,340,2
303,342,294,341,2
301,348,295,339,2
300,348,297,334,2
298,348,298,328,2
297,352,300,322,2
296,357,302,318,2
296,361,304,318,2
295,360,304,321,2
295,357,303,325,2
295,352,303,328,2
295,347,303,330,2
297,343,303,330,2
299,338,303,328,2
301,333,304,327,2
302,328,304,326,2
302,320,305,325,2
301,308,304,324,2
298,294,305,323,2
297,280,306,323,2
298,273,306,323,2
299,274,307,323,2
301,278,308,322,2
302,282,308,321,2
303,287,308,320,2
303,290,307,318,2
302,290,307,316,2
301,286,308,316,2
300,280,309,315,2
299,276,310,314,2
298,276,309,313,2
298,280,307,311,2
298,284,304,311,2
298,289,301,310,2
298,295,299,310,2
299,304,297,310,2
300,312,297,310,2
302,320,295,309,2
303,329,295,307,2
306,334,296,304,2
309,336,298,299,2
311,335,300,294,2
313,335,302,291,2
314,333,305,292,2
314,328,307,296,2
313,319,310,302,2
311,309,311,306,2
308,296,312,308,2
304,286,312,309,2
302,287,313,309,2
301,295,313,309,2
303,303,311,308,2
305,306,310,309,2
309,304,310,312,2
315,297,311,316,2
319,288,312,318,2
319,285,312,318,2
317,291,313,319,2
314,304,314,318,2
311,316,314,316,2
309,322,314,313,2
309,321,313,311,2
310,316,313,310,2
312,311,313,310,2
313,311,314,312,2
312,313,316,313,2
309,313,318,314,2
305,309,318,315,2
300,304,316,315,2
296,301,312,315,2
292,300,308,313,2
291,297,305,313,2
290,291,303,313,2
291,280,304,313,2
293,268,306,313,2
294,264,307,313,2
295,270,308,311,2
295,282,309,309,2
297,294,310,309,2
299,301,309,309,2
301,304,308,308,2
302,304,306,307,2
302,308,303,305,2
302,314,301,304,2
303,322,300,303,2
303,331,299,303,2
304,338,300,303,2
305,341,301,305,2
306,337,304,308,2
307,329,307,310,2
310,320,311,311,2
314,315,314,311,2
318,313,315,311,2
321,312,316,310,2
324,310,315,311,2
328,308,315,312,2
333,306,313,313,2
335,306,311,313,2
334,306,307,312,2
329,303,303,311,2
320,290,300,309,2
311,269,302,309,2
302,247,305,308,2
294,229,309,308,2
287,221,313,308,2
284,225,315,308,2
283,235,314,307,2
285,246,311,304,2
288,257,307,301,2
294,273,303,296,2
302,295,300,289,2
308,320,296,279,2
310,339,293,268,2
309,350,292,259,2
305,354,291,253,2
300,352,292,252,2
295,347,293,256,2
291,339,295,266,2
290,330,295,279,2
289,321,296,290,2
290,314,295,298,2
291,312,295,304,2
294,315,295,309,2
296,321,296,314,2
298,328,299,319,2
300,335,301,324,2
301,342,305,327,2
301,346,309,328,2
301,346,312,328,2
299,343,314,328,2
298,333,314,326,2
296,315,313,324,2
293,290,312,322,2
292,267,311,320,2
292,255,310,316,2
292,252,308,311,2
295,254,306,306,2
298,260,306,304,2
302,268,305,304,2
307,280,306,306,2
313,296,308,311,2
319,308,311,315,2
323,318,313,318,2
324,326,313,319,2
323,332,313,317,2
320,340,312,313,2
317,345,311,309,2
315,350,310,306,2
313,353,310,304,2
313,354,310,303,2
315,352,310,304,2
320,348,310,307,2
325,343,311,311,2
331,341,311,314,2
335,338,310,316,2
336,331,310,316,2
334,320,310,314,2
328,306,311,310,2
321,294,311,302,2
313,284,312,293,2
304,277,311,286,2
295,270,309,283,2
287,265,306,284,2
283,265,304,288,2
281,268,303,294,2
283,271,304,299,2
286,272,303,299,2
287,273,302,296,2
287,274,300,291,2
285,273,298,288,2
283,269,298,289,2
283,268,302,295,2
287,281,306,301,2
291,301,310,303,2
297,321,313,301,2
301,339,314,296,2
306,351,314,291,2
309,359,314,290,2
312,361,313,294,2
314,357,311,301,2
313,348,307,306,2
312,336,304,311,2
310,326,302,313,2
306,320,302,314,2
304,317,305,316,2
302,317,309,320,2
300,316,314,323,2
297,312,317,325,2
295,301,318,327,2
295,285,317,327,2
294,265,315,328,2
295,246,315,328,2
296,235,316,329,2
298,232,319,330,2
302,237,321,329,2
304,250,322,327,2
305,261,323,325,2
307,272,324,322,2
308,287,323,318,2
311,307,320,313,2
313,325,315,308,2
316,334,311,303,2
318,337,307,299,2
322,338,304,300,2
327,340,304,303,2
333,344,303,308,2
337,347,302,313,2
342,343,299,316,2
345,335,296,318,2
349,330,296,318,2
349,328,297,315,2
344,331,298,311,2
336,339,300,307,2
327,346,305,306,2
320,350,309,308,2
314,349,311,311,2
310,345,310,313,2
307,339,309,315,2
303,334,309,315,2
300,329,313,315,2
297,321,318,315,2
293,308,321,314,2
288,290,322,312,2
283,276,321,311,2
280,274,321,311,2
280,283,320,310,2
282,295,318,309,2
283,302,315,306,2
283,304,312,303,2
285,305,310,301,2
287,307,309,301,2
288,310,310,302,2
290,315,311,305,2
290,320,311,307,2
288,317,309,307,2
283,307,306,305,2
278,296,304,304,2
274,293,304,304,2
274,297,306,305,2
278,307,308,305,2
283,319,310,302,2
288,328,311,294,2
293,331,311,281,2
297,331,311,264,2
301,331,310,246,2
304,331,307,233,2
306,331,304,230,2
307,325,301,241,2
306,313,298,260,2
304,297,297,282,2
303,280,298,301,2
302,268,301,315,2
301,261,304,322,2
301,260,306,324,2
301,262,307,322,2
303,268,309,315,2
307,281,309,307,2
311,302,309,299,2
316,323,307,290,2
319,337,304,285,2
319,344,300,284,2
316,341,299,289,2
312,332,300,298,2
307,322,303,309,2
305,315,306,319,2
305,310,309,326,2
304,308,306,329,2
304,306,301,329,2
302,299,296,328,2
303,289,291,326,2
303,276,290,325,2
305,264,290,324,2
306,254,292,323,2
306,249,294,321,2
306,250,297,320,2
306,255,298,319,2
307,261,300,317,2
310,276,304,316,2
316,302,311,316,2
324,331,316,314,2
333,354,320,311,2
341,365,320,306,2
347,366,317,304,2
351,363,314,303,2
354,356,314,305,2
354,350,314,310,2
352,347,314,315,2
345,346,311,319,2
333,344,308,320,2
319,341,304,319,2
306,335,302,319,2
296,328,302,318,2
289,322,304,318,2
286,315,306,318,2
285,308,309,318,2
286,302,310,319,2
287,295,309,318,2
286,287,306,317,2
285,275,303,315,2
285,264,300,314,2
287,257,300,314,2
290,260,301,313,2
294,270,300,312,2
297,278,298,310,2
298,283,295,306,2
298,285,290,302,2
298,289,287,297,2
299,298,285,290,2
299,307,286,284,2
301,315,288,282,2
303,322,292,286,2
307,327,296,293,2
311,332,301,302,2
317,335,307,311,2
322,334,313,319,2
326,330,317,324,2
326,321,319,326,2
321,309,319,327,2
314,296,318,325,2
306,287,316,322,2
300,280,315,320,2
295,273,314,316,2
291,268,315,313,2
291,267,316,312,2
293,277,317,313,2
297,294,317,314,2
300,306,316,314,2
302,306,314,314,2
302,297,311,313,2
301,286,308,314,2
301,280,306,315,2
301,285,304,316,2
302,295,303,317,2
304,310,303,318,2
307,326,303,319,2
311,341,302,317,2
316,351,301,314,2
320,355,302,309,2
325,356,304,305,2
329,353,307,301,2
332,351,308,299,2
331,350,310,298,2
329,348,310,300,2
323,344,309,304,2
317,339,307,306,2
311,335,304,306,2
307,333,302,303,2
304,334,302,298,2
301,332,303,289,2
299,327,304,279,2
296,320,304,272,2
294,313,305,273,2
295,304,307,278,2
297,294,309,287,2
301,286,310,299,2
303,283,309,311,2
304,286,308,319,2
304,289,306,324,2
303,290,305,326,2
300,288,305,326,2
298,284,306,327,2
299,283,307,328,2
301,282,307,328,2
305,278,304,328,2
308,268,302,328,2
312,257,304,327,2
314,251,309,326,2
315,247,316,325,2
312,246,319,323,2
307,247,317,320,2
302,250,313,317,2
298,259,310,315,2
296,275,308,313,2
295,293,308,312,2
295,306,310,313,2
296,310,310,315,2
297,304,310,318,2
300,295,310,321,2
304,294,310,324,2
310,301,309,325,2
317,312,307,326,2
322,319,306,326,2
324,318,304,325,2
323,308,301,322,2
320,302,300,318,2
317,304,299,314,2
314,313,297,307,2
312,323,296,299,2
311,330,294,292,2
310,332,294,287,2
310,333,296,286,2
310,338,300,286,2
310,347,305,287,2
308,352,308,291,2
306,348,309,296,2
305,332,309,303,2
306,310,308,310,2
308,300,307,315,2
311,308,307,318,2
313,327,307,319,2
315,348,306,318,2
315,363,306,316,2
313,369,305,311,2
312,367,305,306,2
310,358,304,299,2
308,345,302,295,2
306,331,301,295,2
307,316,301,299,2
310,304,301,305,2
315,292,302,311,2
320,278,302,314,2
324,261,302,314,2
327,248,302,312,2
327,244,304,310,2
324,249,306,308,2
320,260,309,310,2
317,272,310,312,2
313,287,311,313,2
308,303,312,310,2
303,320,312,303,2
298,335,311,294,2
296,346,310,286,2
294,351,309,283,2
295,351,309,286,2
297,350,309,293,2
299,346,308,300,2
300,339,305,304,2
300,332,302,305,2
299,326,299,305,2
298,322,299,307,2
298,317,301,312,2
300,310,303,317,2
302,296,304,321,2
304,281,305,323,2
305,267,306,322,2
307,257,308,321,2
310,257,310,321,2
312,269,312,320,2
313,286,312,319,2
312,300,311,318,2
309,309,310,318,2
306,317,310,318,2
303,321,309,318,2
300,321,308,318,2
299,315,308,318,2
299,306,307,318,2
298,296,307,317,2
297,286,307,315,2
296,274,308,313,2
295,265,311,311,2
295,264,314,310,2
296,269,316,309,2
298,280,318,309,2
300,294,319,310,2
301,306,320,311,2
302,312,321,312,2
303,317,322,312,2
304,321,319,311,2
304,327,315,310,2
305,335,312,308,2
306,339,308,306,2
308,337,305,302,2
310,332,302,298,2
312,325,301,296,2
313,319,300,293,2
312,315,301,288,2
312,312,301,284,2
311,310,301,283,2
311,308,302,286,2
310,302,302,293,2
310,290,302,303,2
310,275,301,310,2
310,261,300,316,2
311,254,300,320,2
313,258,302,324,2
316,265,303,326,2
317,267,303,328,2
316,262,303,329,2
314,255,304,332,2
311,255,306,334,2
309,263,307,333,2
307,278,308,331,2
307,301,311,326,2
309,328,313,319,2
311,350,315,311,2
313,361,316,304,2
313,358,317,300,2
312,350,318,301,2
311,341,317,305,2
310,333,316,310,2
309,324,314,316,2
309,319,313,320,2
309,315,312,321,2
310,311,310,322,2
310,307,309,320,2
309,309,307,319,2
309,319,306,316,2
312,331,307,316,2
315,337,309,314,2
316,337,311,312,2
314,335,311,310,2
309,331,311,310,2
304,327,310,311,2
301,324,309,313,2
301,324,309,315,2
303,322,310,316,2
304,314,311,316,2
305,297,311,314,2
305,272,311,312,2
306,250,313,310,2
308,236,316,309,2
309,238,318,308,2
309,256,319,303,2
306,284,318,294,2
302,312,317,283,2
300,333,314,271,2
300,344,311,260,2
302,346,308,256,2
304,338,306,260,2
306,326,305,268,2
306,314,303,275,2
305,304,302,284,2
304,297,300,295,2
302,293,299,306,2
301,293,299,316,2
302,296,301,325,2
303,298,304,331,2
305,296,308,336,2
305,295,310,337,2
304,296,312,337,2
304,298,311,336,2
303,304,310,333,2
303,315,308,329,2
303,328,306,324,2
303,338,305,320,2
302,343,309,317,2
302,342,313,316,2
302,340,318,314,2
301,336,321,312,2
300,331,319,309,2
299,326,317,307,2
300,322,313,306,2
302,316,311,306,2
304,308,311,306,2
305,301,312,307,2
307,297,313,307,2
308,298,313,305,2
308,302,309,303,2
307,309,306,301,2
304,318,305,300,2
302,325,305,301,2
300,327,306,303,2
298,326,306,305,2
298,321,305,306,2
301,312,304,305,2
305,297,302,302,2
308,279,300,298,2
311,264,298,293,2
314,254,298,288,2
318,250,300,287,2
323,251,303,291,2
329,256,306,299,2
335,265,309,307,2
337,277,310,314,2
335,287,311,317,2
327,290,311,317,2
316,286,311,315,2
305,283,310,312,2
297,284,309,309,2
292,290,307,306,2
288,302,306,305,2
286,316,306,304,2
285,328,308,307,2
287,333,312,312,2
289,331,316,316,2
291,324,317,319,2
292,316,316,320,2
293,304,313,320,2
295,289,312,319,2
298,281,312,318,2
302,280,312,316,2
305,279,311,312,2
308,275,310,309,2
310,276,309,305,2
311,288,308,300,2
310,309,306,295,2
309,333,304,292,2
309,354,304,293,2
308,370,303,297,2
307,376,303,300,2
305,372,303,301,2
305,357,301,300,2
305,337,302,299,2
307,321,302,298,2
312,312,303,299,2
320,310,304,301,2
327,313,304,304,2
330,319,305,307,2
331,328,303,309,2
329,334,301,310,2
327,337,301,312,2
326,338,302,314,2
325,337,305,316,2
323,333,308,317,2
320,325,311,317,2
317,316,313,318,2
313,308,315,318,2
310,306,317,318,2
308,306,317,317,2
306,306,316,313,2
304,308,314,309,2
302,314,311,300,2
299,322,309,285,2
296,330,307,269,2
294,341,305,255,2
295,352,305,247,2
296,356,304,247,2
297,354,303,253,2
298,348,302,265,2
298,338,302,280,2
298,327,302,293,2
297,314,302,303,2
297,303,303,310,2
298,293,304,317,2
301,283,307,322,2
304,272,310,325,2
308,260,312,324,2
311,252,315,319,2
314,249,316,315,2
316,251,318,312,2
317,257,318,309,2
315,265,316,304,2
312,276,314,299,2
307,291,312,294,2
302,305,309,290,2
299,312,306,289,2
296,312,303,293,2
295,305,302,301,2
296,294,302,310,2
298,288,303,315,2
301,289,304,315,2
306,297,305,313,2
311,306,306,313,2
316,314,305,315,2
320,318,305,318,2
323,319,305,322,2
324,320,305,323,2
324,323,306,324,2
323,327,307,322,2
321,330,308,320,2
321,333,308,316,2
322,337,306,313,2
323,340,305,312,2
324,338,307,310,2
321,329,312,308,2
315,312,315,307,2
306,290,317,308,2
297,265,316,310,2
291,239,313,313,2
288,214,310,315,2
288,197,309,318,2
290,192,309,319,2
293,201,308,318,2
296,222,305,315,2
299,247,303,313,2
304,272,302,310,2
308,294,302,306,2
312,310,302,304,2
315,322,302,303,2
316,332,301,304,2
317,341,301,307,2
316,348,302,312,2
315,352,304,316,2
314,351,305,318,2
312,348,306,318,2
309,345,306,316,2
306,341,306,315,2
303,336,307,313,2
301,333,308,312,2
301,330,310,311,2
302,329,311,310,2
305,328,311,310,2
308,330,311,309,2
311,331,312,310,2
315,330,312,310,2
318,323,312,312,2
320,311,312,313,2
321,294,311,313,2
320,276,311,313,2
319,261,311,314,2
318,250,313,314,2
315,248,315,315,2
313,249,316,316,2
309,242,317,317,2
305,232,318,317,2
302,232,319,316,2
299,245,319,314,2
297,269,318,309,2
297,295,317,303,2
298,316,317,296,2
299,328,315,286,2
300,331,313,276,2
302,333,311,266,2
305,339,312,260,2
309,348,311,257,2
313,358,310,258,2
316,363,309,260,2
318,366,309,265,2
319,365,310,274,2
319,362,313,284,2
319,358,315,295,2
317,354,314,305,2
314,351,312,313,2
309,348,310,318,2
304,347,308,321,2
300,346,307,323,2
298,345,305,324,2
298,343,303,324,2
298,339,301,324,2
298,335,301,323,2
298,330,303,323,2
297,324,305,322,2
297,318,308,319,2
297,312,311,313,2
299,308,313,305,2
300,305,312,296,2
300,304,308,286,2
300,304,305,275,2
300,304,302,269,2
300,301,301,271,2
299,298,301,280,2
298,293,303,291,2
297,286,305,301,2
299,274,307,310,2
301,256,310,317,2
304,238,312,322,2
307,221,314,323,2
312,211,317,325,2
319,211,320,329,2
325,224,320,331,2
328,251,317,332,2
328,283,312,329,2
323,313,306,323,2
318,337,301,320,2
311,349,296,317,2
305,352,292,317,2
300,351,291,317,2
296,350,291,317,2
293,348,291,317,2
289,343,292,316,2
287,334,294,316,2
288,323,297,318,2
291,312,299,320,2
294,307,301,322,2
297,307,303,323,2
298,307,304,323,2
298,306,303,322,2
297,302,303,321,2
296,297,302,320,2
296,293,302,318,2
297,290,302,317,2
298,290,302,316,2
299,291,301,315,2
300,293,300,314,2
300,295,299,313,2
301,299,299,313,2
301,303,300,313,2
302,305,300,313,2
302,304,301,312,2
302,297,301,308,2
302,288,302,302,2
301,281,302,294,2
302,277,305,286,2
304,279,308,279,2
307,279,310,277,2
311,269,312,281,2
313,253,313,290,2
316,240,314,300,2
317,235,315,308,2
320,242,318,317,2
325,258,322,325,2
329,281,324,331,2
332,309,324,333,2
331,334,321,331,2
330,350,319,327,2
328,357,317,324,2
324,361,315,318,2
317,362,312,311,2
307,361,310,305,2
298,358,306,303,2
291,352,303,304,2
286,342,299,306,2
283,332,296,309,2
283,324,295,308,2
283,320,294,306,2
286,325,295,305,2
289,334,296,304,2
292,341,296,303,2
294,347,299,304,2
295,350,302,307,2
297,351,305,313,2
299,347,307,317,2
300,338,307,318,2
301,322,305,316,2
301,303,304,313,2
303,285,304,310,2
304,271,305,307,2
307,265,303,304,2
308,262,302,303,2
309,262,302,304,2
310,271,303,305,2
310,288,305,307,2
310,309,309,310,2
308,324,313,313,2
306,330,315,314,2
304,330,317,313,2
303,333,317,312,2
304,339,317,312,2
307,346,317,312,2
309,351,317,314,2
310,355,317,316,2
310,355,318,319,2
309,353,318,320,2
308,349,317,321,2
306,345,315,321,2
305,337,313,320,2
305,324,311,320,2
303,308,308,319,2
301,292,307,318,2
299,280,306,318,2
299,275,307,317,2
298,276,310,316,2
300,280,313,315,2
302,282,316,314,2
304,282,318,313,2
306,284,317,311,2
307,287,314,306,2
310,290,311,297,2
313,293,308,281,2
316,295,305,263,2
320,298,303,249,2
323,302,301,247,2
326,307,300,258,2
326,313,299,275,2
324,311,298,294,2
319,300,298,310,2
313,284,297,322,2
307,268,295,329,2
302,253,292,331,2
299,241,291,332,2
301,234,293,333,2
304,234,296,334,2
309,241,301,335,2
313,251,305,336,2
316,268,309,336,2
317,289,312,335,2
317,310,312,331,2
314,322,312,329,2
310,329,315,325,2
305,335,320,322,2
301,343,324,317,2
297,353,328,312,2
293,363,330,306,2
291,368,326,302,2
289,367,317,299,2
288,362,306,299,2
288,353,298,299,2
288,341,291,298,2
287,325,285,294,2
285,308,281,288,2
285,293,281,284,2
285,285,283,281,2
287,284,286,281,2
288,287,288,285,2
290,290,289,291,2
291,293,291,297,2
292,297,292,302,2
295,301,294,305,2
297,308,297,307,2
300,316,300,308,2
302,322,303,308,2
301,324,305,308,2
298,324,305,309,2
295,321,305,310,2
294,316,305,312,2
294,309,306,313,2
294,303,306,313,2
296,300,307,312,2
298,299,308,313,2
299,299,308,315,2
299,296,307,318,2
299,290,306,321,2
299,285,306,324,2
300,283,306,327,2
302,280,308,329,2
305,279,309,331,2
307,274,311,331,2
309,266,313,330,2
309,261,316,329,2
311,263,321,323,2
314,275,325,313,2
315,291,325,298,2
314,302,323,277,2
312,307,319,255,2
308,313,314,243,2
305,320,310,248,2
303,326,306,263,2
303,327,303,284,2
307,330,301,303,2
313,334,301,319,2
321,338,301,330,2
330,341,302,338,2
338,343,302,342,2
341,343,304,344,2
340,341,306,343,2
336,337,309,342,2
330,333,312,340,2
323,331,314,336,2
315,329,314,331,2
307,327,313,327,2
299,324,311,322,2
291,321,309,318,2
283,321,307,313,2
278,324,304,307,2
274,326,303,300,2
271,321,301,294,2
268,311,303,288,2
267,298,305,286,2
268,288,308,285,2
270,286,309,286,2
274,291,308,288,2
280,299,306,290,2
284,305,304,291,2
289,304,301,292,2
293,298,300,295,2
297,290,301,300,2
301,280,302,306,2
303,270,301,313,2
304,262,299,319,2
303,261,299,322,2
303,268,300,325,2
305,280,301,326,2
308,292,304,326,2
311,301,306,326,2
313,307,308,325,2
311,313,309,322,2
308,319,307,319,2
304,321,304,317,2
301,320,300,314,2
298,315,297,312,2
296,311,296,311,2
296,311,296,311,2
295,313,297,311,2
295,312,299,312,2
296,309,300,314,2
298,308,300,314,2
301,312,301,314,2
303,317,301,313,2
308,317,301,312,2
313,312,302,310,2
319,305,305,308,2
324,297,308,304,2
328,287,310,299,2
328,278,310,295,2
325,272,308,292,2
319,268,306,291,2
311,270,306,293,2
305,273,309,299,2
302,273,316,306,2
300,270,321,313,2
299,271,322,316,2
296,279,318,316,2
293,292,314,314,2
292,302,310,313,2
291,304,308,312,2
290,299,308,312,2
290,291,310,312,2
291,284,309,312,2
293,277,307,312,2
297,268,307,313,2
302,261,310,313,2
309,261,314,314,2
316,271,317,315,2
323,289,314,315,2
327,311,308,314,2
327,327,300,311,2
323,337,293,308,2
319,346,289,304,2
315,356,288,299,2
311,360,290,294,2
308,355,292,291,2
304,340,294,290,2
300,316,296,292,2
296,293,297,296,2
293,279,297,299,2
293,275,300,302,2
294,279,301,305,2
293,292,301,306,2
291,306,300,307,2
288,319,301,308,2
288,330,303,310,2
288,339,307,311,2
290,345,310,313,2
292,348,312,313,2
295,350,312,312,2
298,352,310,313,2
301,353,306,313,2
303,355,304,310,2
304,356,301,306,2
304,354,299,302,2
305,351,299,300,2
306,346,300,300,2
308,338,303,302,2
310,327,305,304,2
310,310,306,306,2
309,288,306,309,2
307,268,307,310,2
305,259,307,309,2
304,263,309,306,2
306,275,312,303,2
309,286,314,299,2
312,291,316,297,2
315,291,317,298,2
318,293,316,301,2
319,297,315,304,2
320,301,313,306,2
321,305,311,307,2
320,311,308,305,2
318,321,306,301,2
317,332,304,299,2
316,339,303,297,2
317,341,302,297,2
317,338,301,299,2
318,331,300,303,2
319,322,301,307,2
320,314,303,310,2
321,307,305,311,2
321,301,306,309,2
321,296,307,308,2
321,292,306,306,2
320,290,306,304,2
320,291,304,303,2
321,299,302,302,2
321,312,300,304,2
321,325,298,309,2
319,332,297,313,2
317,333,298,317,2
312,325,301,320,2
307,310,303,320,2
300,293,306,321,2
294,284,308,321,2
291,287,311,321,2
291,297,315,324,2
293,303,318,326,2
294,299,320,327,2
296,292,321,326,2
299,289,322,324,2
303,291,321,321,2
308,295,321,318,2
314,301,321,315,2
319,311,319,312,2
321,317,317,309,2
321,315,315,305,2
319,306,312,301,2
316,297,310,296,2
312,298,309,293,2
308,309,307,292,2
305,323,305,293,2
302,333,304,296,2
299,339,303,298,2
295,343,302,301,2
292,346,303,303,2
289,347,304,305,2
286,347,304,304,2
284,345,303,304,2
284,341,302,300,2
286,335,300,295,2
289,327,298,293,2
293,320,299,294,2
297,321,300,296,2
301,330,303,296,2
303,339,305,294,2
302,338,305,291,2
300,328,305,291,2
298,313,305,297,2
298,297,306,305,2
298,284,308,313,2
299,277,309,320,2
299,276,310,324,2
300,277,311,326,2
301,283,312,326,2
302,291,313,324,2
302,299,314,321,2
300,303,315,318,2
298,301,316,316,2
296,293,313,313,2
296,281,310,306,2
299,269,308,298,2
304,260,308,291,2
309,259,309,287,2
313,267,312,288,2
316,282,315,295,2
317,297,315,304,2
317,309,313,311,2
316,317,311,316,2
316,321,309,318,2
317,321,309,319,2
319,320,309,320,2
321,319,310,322,2
323,321,308,323,2
324,324,305,322,2
323,324,302,319,2
322,321,300,316,2
322,315,298,313,2
322,309,298,309,2
323,306,298,307,2
325,305,299,305,2
324,304,298,305,2
321,304,297,306,2
315,306,295,305,2
308,310,293,304,2
302,315,293,302,2
298,320,295,301,2
295,323,298,299,2
294,324,301,299,2
295,322,302,300,2
296,317,303,302,2
296,304,303,303,2
296,286,303,303,2
295,268,303,302,2
294,249,305,303,2
292,234,307,304,2
293,229,310,306,2
296,241,314,306,2
299,264,316,307,2
301,284,315,305,2
303,297,313,303,2
304,304,309,304,2
304,308,306,307,2
304,306,302,309,2
302,298,299,308,2
301,289,298,309,2
301,286,299,312,2
302,293,302,316,2
304,302,305,319,2
305,308,307,320,2
306,307,309,322,2
306,302,309,322,2
305,298,307,322,2
306,296,304,321,2
307,297,302,319,2
308,303,302,317,2
310,311,303,315,2
312,320,306,314,2
314,327,308,312,2
316,332,310,311,2
319,334,312,311,2
321,333,313,310,2
321,331,313,309,2
319,332,312,306,2
316,334,310,304,2
314,336,308,300,2
313,335,305,296,2
312,332,302,293,2
311,325,300,292,2
310,319,298,294,2
309,316,300,298,2
308,313,304,303,2
308,310,308,307,2
309,309,313,309,2
311,313,315,306,2
312,323,316,298,2
315,331,316,288,2
316,336,315,279,2
317,336,315,276,2
315,334,314,279,2
311,326,312,289,2
305,310,310,301,2
299,288,310,311,2
294,266,312,320,2
291,251,313,325,2
289,243,313,328,2
290,243,312,329,2
293,248,311,330,2
298,251,312,330,2
303,255,311,330,2
306,260,308,328,2
307,268,305,324,2
305,278,304,321,2
303,292,303,319,2
302,314,303,318,2
303,338,304,317,2
305,354,305,317,2
307,362,305,316,2
309,364,305,314,2
311,363,306,311,2
313,361,307,309,2
315,359,310,308,2
315,353,314,308,2
314,345,318,308,2
313,334,320,308,2
310,324,317,303,2
305,314,312,297,2
300,309,307,291,2
296,309,303,286,2
293,312,300,285,2
292,317,298,287,2
291,320,297,289,2
292,322,298,291,2
294,323,299,290,2
295,325,301,286,2
296,325,303,282,2
296,323,303,282,2
294,321,303,285,2
292,319,303,291,2
292,311,303,296,2
292,299,304,300,2
293,286,305,303,2
296,275,307,303,2
299,267,308,301,2
303,264,309,301,2
307,270,311,302,2
312,283,313,306,2
315,296,313,311,2
316,307,311,316,2
316,313,308,319,2
312,313,305,320,2
307,311,303,321,2
301,310,301,322,2
297,311,301,324,2
295,312,300,326,2
293,311,299,327,2
292,306,298,327,2
293,300,297,326,2
294,292,297,326,2
297,283,297,326,2
300,271,298,325,2
301,253,299,324,2
301,232,300,324,2
301,211,303,324,2
301,199,308,325,2
304,204,314,325,2
308,223,319,325,2
311,244,323,323,2
312,267,323,320,2
312,294,320,317,2
312,325,315,314,2
312,352,310,312,2
312,372,305,310,2
312,381,301,309,2
311,381,297,308,2
311,374,295,309,2
311,367,293,308,2
312,360,293,308,2
313,358,293,308,2
315,356,295,308,2
316,351,297,308,2
315,340,299,308,2
314,328,302,307,2
314,315,306,308,2
318,304,311,309,2
323,301,313,309,2
326,305,314,308,2
326,310,312,306,2
323,315,309,304,2
319,317,305,303,2
314,317,302,303,2
309,312,301,303,2
305,301,300,304,2
303,284,300,304,2
301,266,302,304,2
300,253,305,303,2
301,250,308,301,2
303,255,311,300,2
305,268,312,300,2
306,290,312,301,2
307,315,311,304,2
306,336,311,307,2
304,351,309,308,2
302,356,309,307,2
300,354,307,303,2
296,346,305,296,2
293,333,302,289,2
291,316,301,283,2
290,297,303,283,2
291,277,305,290,2
293,257,308,300,2
294,243,311,308,2
296,238,312,313,2
297,243,312,316,2
299,253,312,315,2
301,268,310,310,2
303,290,308,305,2
305,314,305,299,2
308,336,304,294,2
311,353,303,293,2
314,363,302,297,2
316,367,302,303,2
318,366,302,310,2
319,363,302,315,2
320,356,302,319,2
321,350,303,321,2
320,345,305,321,2
317,341,305,320,2
312,336,305,318,2
306,329,304,316,2
302,322,303,313,2
298,315,301,309,2
296,310,299,304,2
294,305,299,297,2
294,297,298,288,2
293,288,299,279,2
293,279,303,275,2
293,274,307,275,2
293,271,312,279,2
293,273,317,287,2
297,284,322,296,2
302,294,326,305,2
306,298,326,312,2
309,299,323,316,2
310,299,318,317,2
310,298,315,315,2
311,301,313,314,2
312,308,312,314,2
312,312,309,314,2
311,309,304,313,2
308,294,299,313,2
306,271,295,316,2
305,248,295,320,2
305,237,297,325,2
304,237,301,330,2
304,245,304,334,2
306,259,307,336,2
311,279,308,335,2
317,304,309,332,2
326,328,310,329,2
334,343,311,326,2
338,345,311,322,2
337,338,311,318,2
330,332,311,316,2
319,335,310,315,2
309,348,311,316,2
301,361,312,316,2
296,367,312,316,2
291,366,310,314,2
288,360,309,312,2
287,353,308,310,2
287,347,307,309,2
287,341,306,308,2
287,337,305,307,2
287,333,305,305,2
287,329,307,303,2
288,322,310,300,2
289,315,313,296,2
290,306,316,291,2
291,299,314,287,2
291,295,309,284,2
291,289,304,285,2
292,281,299,288,2
295,269,297,292,2
297,256,297,295,2
301,246,300,297,2
304,244,304,300,2
306,251,307,303,2
307,268,309,308,2
307,286,309,313,2
308,300,309,317,2
308,306,308,320,2
307,309,308,319,2
307,311,307,316,2
305,312,307,311,2
305,313,307,303,2
304,317,306,295,2
303,319,307,292,2
302,320,308,295,2
302,321,310,300,2
303,324,312,306,2
303,324,313,310,2
304,321,312,312,2
305,320,311,312,2
307,325,310,310,2
307,328,310,308,2
307,326,310,307,2
307,320,309,308,2
307,316,307,309,2
306,315,305,310,2
307,320,305,312,2
309,328,306,313,2
311,334,307,313,2
311,334,307,313,2
311,331,305,312,2
311,327,304,311,2
310,324,303,309,2
309,321,302,307,2
308,319,302,304,2
307,318,303,301,2
306,317,304,296,2
306,316,307,291,2
307,314,309,287,2
308,312,311,283,2
310,310,313,281,2
311,309,315,281,2
312,308,314,284,2
312,307,311,287,2
311,306,307,288,2
309,301,304,288,2
307,293,303,286,2
305,282,305,283,2
305,269,308,283,2
307,258,312,287,2
310,248,315,298,2
314,240,317,310,2
318,240,317,320,2
321,248,318,327,2
325,260,317,331,2
329,272,316,331,2
333,285,315,328,2
338,298,313,323,2
342,312,311,319,2
346,326,310,317,2
349,339,310,317,2
349,349,310,317,2
343,355,309,317,2
332,355,308,316,2
320,348,307,314,2
310,339,306,314,2
302,333,305,313,2
296,330,303,312,2
291,325,302,311,2
288,318,301,310,2
287,310,301,309,2
287,307,302,307,2
289,311,303,305,2
291,319,304,303,2
291,322,305,302,2
290,318,308,301,2
290,315,310,301,2
290,315,311,301,2
293,314,310,300,2
295,310,308,300,2
297,304,304,301,2
298,301,300,303,2
299,300,299,305,2
302,299,299,309,2
305,298,301,313,2
308,297,304,316,2
310,291,308,318,2
311,282,311,320,2
309,272,312,321,2
307,268,314,322,2
305,273,317,323,2
304,284,318,322,2
303,296,317,319,2
301,307,313,313,2
299,317,309,307,2
298,321,304,300,2
297,322,300,293,2
296,321,298,289,2
295,321,297,289,2
295,324,296,292,2
295,327,297,296,2
297,330,298,301,2
300,331,299,306,2
302,335,301,309,2
304,340,303,311,2
305,344,304,312,2
306,343,304,313,2
307,337,304,312,2
307,327,304,313,2
307,316,304,313,2
308,307,306,315,2
309,302,308,317,2
309,298,310,318,2
307,293,310,317,2
304,287,308,316,2
302,279,305,315,2
301,269,302,314,2
301,256,300,312,2
302,241,298,309,2
302,229,296,304,2
302,226,294,298,2
303,237,298,292,2
306,255,304,284,2
310,279,311,273,2
313,306,315,266,2
315,333,317,266,2
315,354,317,273,2
316,368,316,285,2
315,373,315,294,2
314,370,314,300,2
312,359,315,301,2
311,342,317,299,2
310,323,318,296,2
312,312,320,296,2
315,315,321,300,2
320,321,319,307,2
325,322,316,315,2
330,314,314,324,2
335,301,314,331,2
339,288,315,334,2
340,281,316,334,2
339,281,316,332,2
335,283,315,329,2
328,283,314,326,2
319,285,311,319,2
310,293,308,311,2
302,306,304,301,2
297,320,302,290,2
293,330,300,277,2
289,332,299,267,2
287,329,297,262,2
285,325,297,262,2
284,323,299,268,2
286,325,301,279,2
288,327,305,293,2
292,331,308,305,2
295,335,310,316,2
299,340,311,324,2
303,342,311,328,2
307,342,310,330,2
310,338,311,331,2
314,332,311,331,2
316,324,314,331,2
315,315,314,330,2
312,307,313,329,2
306,300,310,326,2
300,296,306,323,2
296,295,303,321,2
292,298,301,319,2
291,304,301,317,2
290,309,302,315,2
291,314,305,312,2
292,317,306,308,2
293,319,306,305,2
294,321,306,304,2
295,323,305,305,2
297,322,304,308,2
297,321,304,311,2
298,315,304,314,2
298,304,304,317,2
297,290,305,319,2
297,274,307,320,2
298,258,311,322,2
299,247,316,323,2
301,246,322,323,2
303,258,325,321,2
304,277,322,318,2
304,295,315,315,2
304,305,308,314,2
302,304,303,313,2
299,294,301,312,2
296,279,299,311,2
293,265,299,311,2
292,256,301,311,2
294,256,305,312,2
297,265,309,312,2
300,277,310,312,2
303,290,310,310,2
307,303,311,309,2
312,319,311,309,2
317,335,312,308,2
320,346,313,308,2
323,349,314,308,2
324,347,316,309,2
325,341,318,308,2
326,332,319,305,2
326,317,318,303,2
324,302,315,303,2
320,292,312,304,2
316,286,310,308,2
312,284,311,312,2
310,288,312,315,2
307,298,312,317,2
305,312,309,317,2
304,323,306,316,2
303,329,303,315,2
302,330,299,314,2
301,320,295,313,2
301,302,292,313,2
300,284,289,312,2
300,274,287,310,2
300,276,286,308,2
302,288,286,307,2
306,304,288,307,2
311,320,292,307,2
317,334,296,308,2
324,340,301,309,2
329,336,305,309,2
332,330,308,309,2
331,325,309,310,2
326,324,311,311,2
321,327,316,313,2
315,326,321,315,2
310,320,326,316,2
305,310,328,315,2
300,300,326,312,2
295,292,322,307,2
292,286,317,302,2
292,287,314,299,2
294,295,312,296,2
297,309,310,295,2
300,324,308,295,2
301,334,307,298,2
300,330,308,302,2
300,312,309,307,2
300,293,311,311,2
302,284,312,313,2
304,286,313,313,2
306,296,312,307,2
304,312,309,297,2
302,326,304,283,2
298,333,302,271,2
297,333,302,260,2
296,327,302,254,2
296,322,303,254,2
297,321,302,263,2
297,322,301,275,2
298,323,299,285,2
300,326,297,293,2
303,331,297,301,2
306,335,298,307,2
309,337,298,311,2
310,334,298,311,2
309,325,299,306,2
308,313,300,300,2
306,305,301,298,2
304,304,303,300,2
303,307,305,306,2
303,306,307,314,2
302,299,306,320,2
301,289,306,324,2
302,284,307,327,2
305,282,309,330,2
309,288,310,332,2
314,303,311,333,2
319,323,312,334,2
323,340,313,333,2
326,350,313,332,2
325,351,312,328,2
324,346,312,323,2
322,336,310,316,2
321,323,308,310,2
320,307,305,306,2
319,286,305,305,2
318,265,308,307,2
317,248,313,309,2
314,239,318,310,2
310,244,320,311,2
307,259,318,313,2
303,280,315,317,2
300,301,311,320,2
297,317,308,321,2
297,323,304,321,2
298,318,302,322,2
301,308,301,323,2
306,303,302,323,2
311,307,301,320,2
315,315,301,317,2
318,322,300,312,2
319,326,299,308,2
320,331,299,306,2
318,334,299,306,2
313,332,299,306,2
308,326,299,306,2
304,318,300,304,2
301,308,300,298,2
298,297,300,291,2
296,288,300,283,2
294,284,301,276,2
292,284,301,270,2
291,289,302,270,2
293,299,303,278,2
296,310,303,291,2
299,319,302,303,2
300,326,301,313,2
301,329,302,320,2
302,325,304,324,2
302,316,307,326,2
301,306,310,328,2
301,299,312,328,2
302,297,315,329,2
303,297,316,329,2
304,296,317,328,2
305,296,316,326,2
305,304,315,323,2
306,320,311,319,2
305,336,307,315,2
305,344,302,313,2
303,342,298,310,2
302,331,296,309,2
302,317,296,308,2
303,306,298,308,2
306,305,300,308,2
310,313,303,306,2
314,322,304,301,2
317,329,305,295,2
320,333,305,288,2
321,333,303,283,2
321,332,301,282,2
318,329,300,286,2
313,327,301,292,2
308,325,304,299,2
304,320,307,305,2
300,311,310,308,2
296,300,310,309,2
295,286,309,310,2
294,272,309,311,2
295,262,311,313,2
297,258,310,313,2
297,259,308,313,2
296,262,306,312,2
296,266,305,312,2
298,271,304,311,2
300,281,304,311,2
302,296,306,312,2
305,312,307,312,2
309,324,308,312,2
313,331,310,313,2
318,335,313,313,2
324,333,315,313,2
328,327,316,311,2
331,317,315,306,2
331,304,313,302,2
329,290,310,298,2
326,283,308,296,2
320,283,306,297,2
312,291,303,300,2
303,300,302,304,2
297,308,301,308,2
294,310,301,310,2
293,310,301,312,2
295,313,302,313,2
299,323,303,313,2
302,336,303,312,2
304,345,304,311,2
306,350,304,308,2
305,351,305,304,2
304,350,305,301,2
302,347,306,299,2
302,344,306,300,2
303,339,306,301,2
303,333,306,300,2
303,327,305,295,2
303,322,305,287,2
303,319,304,278,2
303,314,304,271,2
303,301,304,268,2
302,275,306,272,2
299,240,308,281,2
298,205,310,292,2
298,184,311,302,2
302,193,311,306,2
308,227,310,305,2
313,270,308,298,2
315,309,305,291,2
316,336,303,288,2
315,350,301,292,2
315,356,300,301,2
315,355,299,310,2
316,352,299,317,2
317,347,299,320,2
316,341,300,322,2
314,333,302,322,2
311,326,304,323,2
308,322,306,324,2
304,320,309,326,2
302,319,312,328,2
300,318,314,328,2
298,312,314,328,2
297,303,311,325,2
297,294,307,322,2
300,289,304,318,2
302,288,303,312,2
306,292,304,308,2
310,296,306,308,2
315,296,310,311,2
318,292,313,315,2
320,289,315,318,2
323,289,316,320,2
324,293,316,321,2
325,295,314,320,2
324,288,314,319,2
322,275,315,318,2
319,262,316,319,2
317,255,318,321,2
315,257,319,321,2
314,271,318,318,2
310,297,314,313,2
306,326,311,309,2
304,352,308,307,2
303,368,306,307,2
302,374,305,308,2
304,373,304,311,2
307,367,304,312,2
314,361,304,314,2
322,355,305,315,2
331,352,306,316,2
335,350,306,316,2
334,349,306,316,2
327,347,305,315,2
315,342,305,313,2
304,336,305,311,2
295,329,305,309,2
289,323,306,308,2
286,316,307,307,2
285,308,307,307,2
285,299,307,306,2
286,294,308,305,2
286,291,307,304,2
286,288,306,302,2
286,283,305,301,2
286,276,304,302,2
287,268,304,303,2
288,259,304,306,2
290,250,304,309,2
291,242,304,311,2
294,240,304,312,2
298,248,306,314,2
304,260,310,314,2
309,274,312,312,2
311,287,313,309,2
310,294,312,306,2
308,295,311,303,2
306,295,312,301,2
306,298,313,300,2
306,308,315,297,2
308,326,315,292,2
309,343,311,281,2
308,355,306,269,2
306,357,301,262,2
303,352,297,261,2
300,346,296,266,2
298,344,298,274,2
298,342,301,284,2
300,338,303,292,2
301,333,303,297,2
303,325,304,298,2
305,316,305,298,2
307,309,307,298,2
310,308,308,299,2
313,311,308,303,2
315,313,308,308,2
315,312,306,311,2
313,311,305,315,2
310,310,302,319,2
307,309,299,322,2
304,308,296,323,2
303,307,293,322,2
303,307,292,322,2
306,309,295,321,2
311,313,299,322,2
316,320,302,324,2
318,326,304,324,2
319,326,305,321,2
320,322,305,318,2
320,316,307,316,2
320,313,308,315,2
320,311,310,314,2
319,311,311,311,2
317,309,313,308,2
316,308,314,306,2
315,308,313,306,2
314,305,311,307,2
314,301,309,311,2
313,297,307,314,2
312,297,306,317,2
311,298,305,319,2
309,296,305,321,2
305,288,305,322,2
301,279,305,322,2
297,269,307,321,2
296,269,310,321,2
297,282,312,321,2
302,297,313,320,2
306,299,314,316,2
308,282,315,311,2
308,252,317,301,2
307,219,321,291,2
309,199,326,285,2
312,205,326,284,2
315,234,319,284,2
316,271,308,284,2
313,305,299,287,2
310,331,295,291,2
307,348,295,296,2
305,360,295,298,2
304,367,296,301,2
304,368,298,303,2
303,364,300,306,2
301,356,302,311,2
298,345,303,316,2
294,334,304,320,2
292,324,304,323,2
291,317,304,324,2
293,314,304,325,2
296,314,304,325,2
298,315,303,325,2
300,316,304,325,2
302,315,306,326,2
304,307,309,327,2
306,292,313,329,2
306,270,317,329,2
308,249,321,327,2
309,238,322,322,2
311,241,322,313,2
312,256,321,303,2
312,272,319,292,2
312,283,315,283,2
312,291,309,275,2
310,296,303,270,2
308,296,298,271,2
306,296,296,278,2
306,298,299,290,2
307,304,302,304,2
308,315,307,317,2
308,324,311,325,2
307,330,313,329,2
306,332,314,329,2
306,333,316,327,2
307,336,318,326,2
308,342,321,325,2
311,347,323,326,2
312,346,323,327,2
312,341,319,327,2
310,336,313,326,2
308,331,308,324,2
306,325,304,323,2
303,319,302,322,2
301,314,301,321,2
299,311,301,319,2
297,310,302,318,2
295,311,304,317,2
293,311,306,316,2
293,313,308,315,2
294,314,310,315,2
297,314,310,315,2
300,312,308,315,2
303,306,305,314,2
306,298,301,313,2
309,291,298,311,2
312,287,297,305,2
315,288,297,297,2
317,289,297,288,2
318,288,299,281,2
317,282,301,279,2
317,278,303,284,2
316,278,305,294,2
316,281,307,304,2
314,285,308,312,2
310,290,307,317,2
308,297,305,320,2
306,303,304,320,2
306,309,303,319,2
305,314,304,317,2
304,317,305,314,2
304,318,307,311,2
305,314,309,310,2
307,306,310,310,2
309,300,311,310,2
312,301,312,308,2
314,311,311,303,2
314,320,309,297,2
311,326,308,291,2
308,326,306,289,2
304,322,304,292,2
300,316,304,298,2
299,311,305,306,2
298,308,306,313,2
298,302,308,318,2
297,292,309,320,2
294,277,308,320,2
292,261,306,318,2
292,251,304,315,2
293,256,302,313,2
296,272,301,311,2
299,285,301,309,2
300,287,300,306,2
301,283,298,303,2
300,284,297,301,2
303,294,299,303,2
307,308,302,308,2
311,316,306,313,2
314,310,308,318,2
315,292,310,321,2
315,270,312,322,2
317,257,314,323,2
319,258,316,323,2
319,271,315,322,2
319,289,312,320,2
317,307,308,318,2
315,321,304,317,2
312,331,301,317,2
311,339,300,318,2
310,347,300,318,2
309,354,301,318,2
308,358,301,317,2
306,355,302,314,2
303,347,302,312,2
300,333,303,309,2
297,312,303,307,2
295,287,304,307,2
293,263,306,308,2
292,252,308,308,2
293,257,308,306,2
295,275,308,303,2
299,298,308,299,2
302,321,308,297,2
305,342,309,297,2
306,353,310,302,2
308,352,310,307,2
308,337,310,313,2
308,313,309,315,2
307,291,308,313,2
307,282,306,308,2
307,290,305,304,2
307,305,304,300,2
306,319,304,297,2
303,326,305,292,2
301,330,309,288,2
301,331,315,287,2
302,332,319,290,2
303,334,318,296,2
305,335,313,303,2
305,336,308,309,2
307,338,303,315,2
309,342,301,320,2
310,346,299,324,2
310,347,299,325,2
310,344,300,324,2
308,341,301,322,2
307,336,302,318,2
306,330,304,314,2
306,321,306,310,2
309,313,309,308,2
313,308,313,307,2
320,311,315,308,2
326,319,318,310,2
332,326,318,310,2
335,329,318,310,2
337,329,318,307,2
336,327,317,302,2
332,324,315,295,2
326,322,314,286,2
317,321,313,276,2
309,320,313,270,2
302,318,313,273,2
298,315,315,282,2
295,310,316,294,2
294,303,316,306,2
293,296,313,317,2
292,287,307,326,2
291,277,303,332,2
292,267,302,336,2
292,259,302,338,2
293,253,303,338,2
295,250,304,338,2
300,246,306,337,2
306,246,307,334,2
314,250,307,330,2
322,260,305,325,2
328,269,305,321,2
332,273,304,317,2
330,273,304,314,2
323,275,303,312,2
312,279,302,311,2
300,283,302,311,2
289,280,302,313,2
281,267,303,315,2
275,253,303,317,2
273,243,304,319,2
275,238,304,320,2
278,240,305,319,2
281,252,306,314,2
285,272,307,307,2
289,296,307,298,2
294,316,309,289,2
300,330,312,282,2
306,342,316,282,2
311,352,318,288,2
313,361,318,294,2
312,367,316,301,2
311,367,313,306,2
308,361,311,311,2
306,352,308,314,2
304,342,306,316,2
303,332,302,314,2
303,326,298,309,2
303,321,295,306,2
304,320,293,305,2
305,322,294,308,2
306,326,297,311,2
307,331,300,314,2
307,337,304,318,2
307,341,307,320,2
307,342,309,321,2
305,335,312,322,2
305,325,315,320,2
304,318,317,317,2
304,315,317,312,2
305,314,317,307,2
306,313,316,303,2
306,309,315,301,2
305,300,315,301,2
304,292,316,302,2
304,290,318,302,2
306,291,318,301,2
307,291,314,298,2
308,290,309,296,2
309,284,305,291,2
310,282,303,284,2
311,286,302,278,2
311,295,303,276,2
310,305,306,280,2
310,315,309,287,2
308,322,312,298,2
306,326,313,309,2
303,326,314,320,2
301,322,313,327,2
302,316,312,331,2
304,309,310,333,2
307,305,308,332,2
309,305,306,330,2
310,309,304,327,2
310,315,303,325,2
309,321,303,324,2
307,325,303,323,2
305,325,302,322,2
303,321,300,320,2
301,312,298,318,2
300,300,296,316,2
300,290,296,315,2
301,281,299,316,2
304,274,303,318,2
306,271,306,320,2
307,274,308,321,2
307,280,307,320,2
308,287,307,318,2
309,291,306,316,2
310,293,305,315,2
312,298,304,313,2
313,310,303,313,2
315,323,303,314,2
317,333,305,315,2
318,336,307,315,2
315,334,308,313,2
311,328,306,309,2
306,319,306,305,2
300,306,308,302,2
295,291,311,301,2
291,280,314,300,2
290,278,313,300,2
289,286,310,301,2
289,299,307,300,2
290,308,305,296,2
291,313,305,292,2
292,314,304,291,2
293,319,306,294,2
295,325,307,298,2
297,331,308,303,2
299,334,307,305,2
300,335,306,305,2
300,332,305,303,2
300,329,304,299,2
299,323,302,296,2
298,315,301,297,2
298,305,300,301,2
298,294,300,307,2
299,285,301,313,2
299,277,302,317,2
301,272,302,317,2
303,269,302,314,2
306,268,301,310,2
310,266,300,306,2
313,265,299,301,2
315,263,298,295,2
317,255,297,289,2
317,242,297,283,2
317,233,298,282,2
318,236,302,286,2
319,256,305,292,2
319,285,306,299,2
317,311,307,305,2
315,325,308,311,2
312,330,309,318,2
309,337,309,322,2
307,349,309,324,2
307,364,311,322,2
307,376,314,318,2
307,380,317,313,2
306,375,318,309,2
304,364,316,308,2
303,349,311,310,2
302,334,307,315,2
301,322,304,320,2
301,316,302,323,2
301,313,299,326,2
301,311,297,326,2
302,308,296,327,2
303,303,296,326,2
305,297,295,325,2
306,292,295,325,2
308,290,296,324,2
309,290,296,322,2
308,291,295,320,2
308,294,295,319,2
308,296,295,318,2
310,294,296,318,2
311,288,298,318,2
312,276,299,317,2
312,262,301,316,2
313,249,303,313,2
316,239,306,311,2
319,239,310,309,2
321,249,312,308,2
322,262,312,309,2
322,280,312,310,2
321,302,312,312,2
320,321,311,313,2
317,336,310,313,2
313,348,309,311,2
311,355,309,310,2
309,358,308,306,2
309,358,307,300,2
309,358,307,296,2
310,358,309,294,2
310,359,313,292,2
309,360,316,291,2
305,358,318,291,2
301,350,317,293,2
297,338,314,295,2
292,322,310,298,2
289,304,306,300,2
288,289,304,300,2
289,280,306,297,2
291,281,308,291,2
294,290,310,286,2
298,300,312,281,2
302,307,311,277,2
304,309,308,277,2
305,309,304,279,2
305,305,302,283,2
307,298,302,287,2
310,286,302,291,2
312,273,305,295,2
313,266,307,300,2
314,266,308,304,2
315,273,308,310,2
315,285,308,316,2
314,298,309,321,2
313,307,310,325,2
311,313,311,327,2
310,319,311,327,2
309,325,309,325,2
307,331,306,322,2
305,337,304,319,2
304,342,302,318,2
304,345,301,319,2
303,344,300,319,2
300,339,300,317,2
298,330,300,313,2
297,320,299,309,2
298,311,299,306,2
300,305,298,303,2
302,303,298,303,2
305,304,298,305,2
307,305,298,309,2
307,301,297,313,2
305,291,296,315,2
301,275,295,317,2
298,259,295,318,2
295,244,296,318,2
293,233,298,318,2
294,229,301,320,2
296,235,304,320,2
299,254,306,318,2
302,278,307,315,2
303,299,308,312,2
304,310,308,311,2
306,314,309,312,2
308,316,310,314,2
310,321,311,315,2
311,332,312,316,2
311,340,313,316,2
309,340,313,316,2
307,333,313,316,2
304,326,312,315,2
302,323,311,314,2
301,325,310,313,2
301,326,308,313,2
302,328,308,312,2
303,327,309,312,2
303,325,312,311,2
304,320,315,311,2
304,314,316,310,2
303,309,314,309,2
303,304,309,308,2
304,298,305,308,2
307,291,303,307,2
308,286,302,305,2
307,285,302,302,2
306,288,304,299,2
304,292,307,297,2
304,296,308,297,2
304,294,305,297,2
304,289,302,298,2
304,282,298,300,2
305,274,297,303,2
309,269,298,306,2
315,270,300,309,2
322,278,304,311,2
328,293,307,312,2
332,309,310,313,2
333,319,311,312,2
332,318,311,307,2
328,308,312,303,2
324,298,313,302,2
319,299,315,302,2
314,310,316,301,2
309,323,316,298,2
306,335,317,295,2
304,341,316,290,2
304,344,315,285,2
305,344,312,278,2
308,346,310,270,2
312,348,308,262,2
315,349,305,254,2
315,347,302,250,2
312,344,299,254,2
306,340,298,267,2
300,336,298,284,2
295,333,299,299,2
291,330,300,311,2
290,328,301,315,2
289,323,301,312,2
290,317,301,308,2
292,310,301,306,2
295,304,302,306,2
298,297,304,309,2
301,293,307,314,2
304,292,310,319,2
305,292,312,323,2
307,293,314,324,2
308,292,316,325,2
309,287,317,324,2
310,273,317,323,2
310,254,315,321,2
310,238,311,319,2
310,234,309,317,2
310,242,307,316,2
309,256,306,314,2
307,272,306,313,2
305,286,306,312,2
305,297,306,314,2
306,304,306,316,2
306,307,306,316,2
305,308,304,313,2
301,305,302,310,2
298,304,300,307,2
296,312,299,306,2
295,323,299,306,2
295,331,298,306,2
295,330,298,306,2
295,324,299,307,2
295,316,303,309,2
295,311,307,310,2
296,308,313,312,2
297,307,318,313,2
297,309,321,314,2
299,316,321,315,2
300,324,319,315,2
301,332,316,314,2
301,340,313,314,2
302,345,311,314,2
305,345,308,313,2
308,339,306,313,2
314,332,304,312,2
319,326,304,313,2
325,325,304,313,2
328,328,304,312,2
328,332,303,310,2
326,330,302,308,2
321,319,299,306,2
318,301,297,305,2
314,281,294,304,2
311,268,291,303,2
309,272,291,299,2
306,285,292,293,2
303,299,294,288,2
298,311,299,286,2
295,317,303,288,2
292,318,305,292,2
291,314,304,297,2
291,310,303,302,2
292,310,303,306,2
294,312,302,309,2
296,315,302,311,2
300,315,304,311,2
302,314,307,311,2
305,311,309,312,2
306,310,311,313,2
304,308,312,314,2
302,303,313,314,2
299,295,313,314,2
297,284,314,313,2
295,279,314,312,2
295,283,313,310,2
295,287,312,306,2
295,288,311,299,2
295,287,310,290,2
296,286,310,279,2
297,290,311,268,2
297,298,311,259,2
296,307,312,257,2
296,312,313,262,2
296,313,315,270,2
298,313,315,277,2
299,313,315,281,2
302,313,314,280,2
303,311,312,275,2
303,308,310,274,2
304,308,308,280,2
303,309,306,288,2
301,304,305,297,2
299,294,303,305,2
298,281,303,312,2
298,270,303,318,2
300,263,304,324,2
302,261,304,330,2
303,270,303,333,2
304,288,301,334,2
305,313,300,333,2
306,337,299,331,2
308,356,300,330,2
311,369,301,329,2
313,373,303,329,2
316,370,305,329,2
319,361,309,329,2
322,349,312,329,2
322,334,313,327,2
322,318,313,324,2
322,304,313,320,2
323,294,314,319,2
324,289,316,320,2
325,290,317,319,2
323,291,317,317,2
319,290,318,315,2
316,286,321,315,2
314,286,325,317,2
312,292,326,318,2
311,305,320,318,2
308,318,310,316,2
304,325,301,313,2
302,325,296,308,2
303,319,294,304,2
306,315,295,302,2
311,319,296,302,2
314,329,297,304,2
316,341,299,307,2
316,346,299,308,2
312,344,299,309,2
307,331,297,310,2
302,308,294,310,2
297,282,293,310,2
294,265,291,309,2
291,259,290,308,2
290,261,290,307,2
290,267,292,306,2
293,275,295,306,2
297,286,298,305,2
303,298,301,304,2
308,314,304,302,2
314,327,307,301,2
316,334,308,301,2
316,336,308,302,2
315,338,308,303,2
313,339,308,304,2
312,337,308,304,2
309,332,306,303,2
307,326,304,302,2
305,323,303,304,2
304,323,304,304,2
304,322,306,304,2
305,319,307,301,2
304,315,307,297,2
303,311,307,293,2
302,309,307,290,2
302,311,307,289,2
302,314,308,291,2
301,315,308,297,2
300,314,308,303,2
299,313,308,308,2
297,313,307,311,2
296,309,307,308,2
294,298,307,301,2
293,283,308,290,2
293,269,309,280,2
296,262,312,273,2
301,264,316,272,2
306,274,317,278,2
310,290,317,288,2
312,309,315,300,2
314,326,312,311,2
314,335,309,320,2
314,334,305,326,2
312,324,302,329,2
309,311,299,329,2
306,303,298,328,2
304,300,298,327,2
303,300,298,325,2
303,302,298,323,2
303,304,297,321,2
303,306,298,320,2
304,309,298,321,2
305,316,300,322,2
305,324,302,323,2
305,328,303,323,2
305,323,304,324,2
304,314,305,323,2
304,301,306,322,2
306,291,308,322,2
309,288,310,321,2
314,288,312,321,2
319,288,312,319,2
323,291,311,318,2
327,294,309,315,2
330,293,308,314,2
332,283,308,313,2
332,270,308,312,2
330,262,309,310,2
326,264,309,306,2
319,276,307,303,2
313,287,305,301,2
307,291,303,301,2
302,284,300,300,2
299,275,297,300,2
298,274,297,301,2
299,284,296,303,2
301,301,297,304,2
302,320,299,306,2
303,336,303,307,2
303,347,308,306,2
303,344,311,305,2
301,329,313,302,2
300,310,314,297,2
300,298,313,290,2
301,295,311,284,2
302,296,309,284,2
303,293,306,288,2
304,288,303,294,2
304,285,302,301,2
302,286,301,307,2
300,296,301,311,2
300,309,303,314,2
301,322,305,317,2
304,332,307,318,2
307,337,309,318,2
311,336,310,318,2
316,333,311,317,2
320,328,313,316,2
324,322,313,312,2
327,314,311,306,2
329,306,310,302,2
330,299,309,298,2
330,297,307,295,2
330,297,305,291,2
329,301,304,287,2
326,309,303,283,2
320,317,301,280,2
312,324,299,279,2
305,332,299,279,2
300,343,298,281,2
297,352,299,288,2
297,357,300,295,2
297,355,302,302,2
298,349,303,306,2
299,345,306,311,2
302,345,310,316,2
304,345,315,319,2
305,344,318,319,2
305,338,319,316,2
304,327,318,310,2
302,313,316,304,2
300,298,314,297,2
297,290,313,293,2
296,291,313,294,2
297,301,313,298,2
299,315,311,304,2
301,326,308,308,2
302,332,304,313,2
303,332,299,315,2
303,327,295,312,2
302,320,292,306,2
301,313,292,301,2
300,305,291,297,2
300,298,292,297,2
301,293,293,302,2
304,292,296,309,2
305,293,299,317,2
307,293,302,323,2
309,290,304,328,2
311,287,306,331,2
314,282,304,334,2
316,274,301,334,2
317,262,298,334,2
316,252,296,332,2
316,246,297,331,2
315,245,298,330,2
312,249,301,328,2
308,249,303,327,2
304,245,307,327,2
302,244,309,325,2
303,251,312,323,2
304,268,312,320,2
305,290,310,316,2
305,313,308,313,2
306,336,306,310,2
308,356,304,308,2
310,368,303,308,2
313,369,301,308,2
315,362,300,308,2
317,353,298,307,2
316,344,297,306,2
314,337,296,305,2
311,334,297,304,2
309,335,299,304,2
307,334,303,305,2
306,329,307,306,2
304,322,311,306,2
304,319,315,306,2
304,322,316,304,2
304,329,315,300,2
304,335,313,296,2
305,339,311,293,2
306,342,309,292,2
307,339,309,293,2
307,334,308,294,2
308,326,307,298,2
310,319,306,303,2
311,314,306,308,2
311,314,307,313,2
310,321,308,316,2
309,328,309,317,2
308,330,309,317,2
306,323,311,317,2
305,305,311,316,2
305,285,309,313,2
306,270,308,311,2
310,264,306,310,2
314,264,305,310,2
318,267,304,310,2
321,272,304,311,2
322,276,304,313,2
321,280,306,315,2
320,283,307,317,2
316,289,309,318,2
312,302,311,319,2
308,315,312,318,2
304,326,312,317,2
300,333,311,313,2
297,335,311,308,2
296,335,312,303,2
296,333,313,298,2
297,329,314,292,2
298,319,314,286,2
297,304,312,282,2
297,287,310,281,2
299,271,309,280,2
302,257,309,284,2
306,247,309,290,2
308,241,308,295,2
308,239,306,297,2
307,246,306,297,2
305,262,307,298,2
303,279,307,301,2
300,294,307,306,2
299,306,307,314,2
298,315,309,321,2
300,321,311,326,2
303,325,313,329,2
306,329,313,329,2
308,332,311,329,2
310,336,308,329,2
312,340,307,328,2
314,344,305,328,2
316,346,305,328,2
318,345,304,327,2
317,344,302,324,2
315,343,300,320,2
313,343,298,316,2
310,342,297,312,2
308,341,297,309,2
307,341,298,309,2
308,341,302,310,2
309,337,307,311,2
310,328,312,311,2
308,314,315,310,2
305,298,315,309,2
301,279,310,308,2
296,261,304,308,2
293,249,299,310,2
292,245,296,312,2
293,250,293,314,2
295,262,291,315,2
297,276,289,314,2
298,289,288,312,2
300,300,288,310,2
301,310,290,307,2
303,317,292,305,2
305,322,295,301,2
307,326,297,297,2
308,327,299,294,2
307,325,301,290,2
304,317,301,288,2
302,309,301,289,2
301,304,302,293,2
302,303,302,300,2
305,307,301,306,2
307,310,300,310,2
309,312,299,312,2
309,310,298,312,2
307,305,299,313,2
305,298,301,314,2
304,291,303,317,2
303,288,305,320,2
304,290,308,322,2
305,294,310,325,2
305,296,312,325,2
304,291,313,325,2
303,281,313,323,2
301,271,312,321,2
301,269,312,320,2
302,277,311,319,2
304,288,310,317,2
306,299,309,315,2
307,309,307,313,2
309,319,306,310,2
309,327,305,306,2
309,332,304,302,2
309,333,304,300,2
309,331,304,299,2
309,326,304,301,2
309,317,303,303,2
309,305,303,306,2
308,288,302,309,2
307,268,302,310,2
305,251,302,311,2
304,243,302,310,2
305,246,303,307,2
306,261,303,307,2
309,282,306,309,2
312,304,312,313,2
314,321,320,316,2
315,332,330,318,2
316,336,337,319,2
316,336,336,316,2
317,335,329,310,2
318,335,319,306,2
320,333,312,302,2
322,326,306,299,2
323,316,303,297,2
322,306,301,297,2
322,304,300,294,2
319,307,300,290,2
317,310,301,288,2
315,312,302,290,2
313,313,302,295,2
313,310,303,302,2
316,306,303,309,2
319,304,303,314,2
323,303,304,319,2
325,305,303,323,2
327,309,301,326,2
328,313,299,327,2
326,313,296,326,2
321,313,293,322,2
313,315,290,317,2
304,320,288,310,2
297,324,285,304,2
290,324,284,299,2
285,322,284,293,2
283,318,286,288,2
282,314,290,282,2
283,307,295,278,2
284,295,300,277,2
285,281,305,281,2
287,270,310,290,2
290,267,314,301,2
294,271,316,312,2
296,278,315,320,2
298,288,313,324,2
299,298,312,326,2
300,308,312,326,2
302,316,312,324,2
302,325,311,322,2
302,330,310,318,2
300,330,309,312,2
299,329,309,306,2
300,331,308,303,2
302,333,307,302,2
302,334,304,302,2
302,332,303,305,2
303,328,304,309,2
305,322,305,311,2
306,317,303,312,2
308,315,302,313,2
310,317,301,314,2
310,323,301,313,2
309,329,300,310,2
307,335,299,308,2
306,340,299,307,2
305,341,299,307,2
303,337,298,309,2
301,331,298,311,2
299,324,299,313,2
299,319,300,315,2
299,318,302,316,2
299,318,302,316,2
300,319,303,315,2
301,319,303,314,2
304,316,304,311,2
307,312,304,308,2
311,310,305,307,2
316,309,306,306,2
318,302,306,304,2
318,286,304,302,2
315,267,303,300,2
311,254,303,299,2
307,253,305,300,2
303,260,308,301,2
301,269,310,303,2
299,273,311,302,2
297,277,313,299,2
297,282,314,296,2
298,289,315,293,2
300,298,315,290,2
302,308,316,291,2
307,315,317,296,2
313,317,319,303,2
320,312,321,310,2
324,301,321,315,2
326,289,321,318,2
325,281,321,319,2
324,276,323,320,2
324,280,324,322,2
323,292,323,322,2
321,307,319,321,2
319,320,313,318,2
316,329,310,313,2
313,336,308,306,2
309,341,308,298,2
306,343,310,292,2
304,344,312,289,2
302,343,314,291,2
300,339,314,296,2
298,335,313,303,2
296,330,313,310,2
296,324,312,313,2
296,318,311,314,2
297,314,308,312,2
297,311,306,307,2
298,310,305,300,2
299,311,306,293,2
299,313,308,287,2
300,317,308,283,2
299,321,308,281,2
298,321,308,284,2
297,317,307,291,2
297,313,305,300,2
296,310,304,307,2
296,310,303,311,2
296,312,302,313,2
297,312,302,315,2
297,306,302,317,2
297,295,303,319,2
297,285,304,320,2
298,281,306,321,2
300,283,307,321,2
302,289,308,320,2
304,292,307,318,2
305,291,306,316,2
305,284,305,315,2
306,281,305,315,2
306,282,306,315,2
306,286,306,316,2
306,291,307,316,2
306,293,308,317,2
305,293,307,318,2
303,289,308,319,2
303,286,309,320,2
304,287,313,321,2
307,292,317,322,2
310,294,321,323,2
313,291,321,322,2
315,281,317,321,2
315,270,314,318,2
316,265,311,314,2
317,263,308,309,2
317,264,305,305,2
318,271,303,305,2
319,283,303,306,2
319,297,302,305,2
318,308,301,302,2
315,311,300,298,2
314,306,298,296,2
313,296,297,295,2
312,285,297,293,2
312,279,297,291,2
311,279,298,291,2
311,287,301,296,2
309,301,304,303,2
307,318,308,309,2
303,333,310,313,2
298,341,312,317,2
295,340,314,319,2
294,333,314,321,2
294,328,313,321,2
296,329,311,320,2
299,333,310,319,2
303,334,309,318,2
305,331,308,315,2
306,323,306,311,2
305,314,304,306,2
303,309,304,303,2
302,310,305,302,2
303,317,306,303,2
304,324,307,306,2
304,329,308,307,2
304,332,308,309,2
303,329,307,310,2
303,322,307,312,2
303,311,306,312,2
302,300,305,312,2
303,291,305,312,2
304,285,307,310,2
307,289,309,310,2
311,301,310,310,2
315,313,311,310,2
319,315,309,311,2
319,304,307,311,2
319,287,303,310,2
316,270,302,310,2
314,260,302,309,2
312,262,305,307,2
311,277,309,302,2
310,300,311,293,2
308,320,312,283,2
306,329,313,276,2
304,327,314,274,2
302,320,316,277,2
300,318,315,285,2
298,322,314,293,2
296,326,312,301,2
295,329,309,308,2
295,330,309,315,2
297,328,310,320,2
299,325,310,323,2
300,324,308,322,2
299,322,306,321,2
299,320,306,319,2
300,318,306,319,2
301,314,308,319,2
303,307,311,320,2
305,301,316,320,2
306,300,320,319,2
306,303,323,318,2
306,306,326,317,2
305,305,324,315,2
303,301,319,314,2
302,296,314,313,2
301,293,311,313,2
302,295,309,313,2
303,296,307,313,2
304,296,306,311,2
304,294,305,311,2
305,294,304,310,2
305,299,303,309,2
307,305,303,308,2
308,315,305,306,2
310,325,309,302,2
311,333,313,296,2
312,338,316,290,2
310,338,317,282,2
308,333,317,274,2
306,322,314,270,2
304,307,312,272,2
303,290,309,281,2
304,276,306,292,2
306,268,306,304,2
308,265,305,313,2
309,264,305,321,2
309,262,303,326,2
309,262,303,331,2
311,267,304,334,2
315,274,304,336,2
319,286,304,335,2
323,298,302,332,2
323,303,298,327,2
321,300,295,321,2
318,290,292,316,2
312,275,289,312,2
305,266,288,310,2
300,266,291,309,2
299,278,296,311,2
300,298,302,312,2
303,320,308,314,2
306,339,313,314,2
308,351,317,314,2
310,355,318,313,2
309,351,315,310,2
308,343,312,307,2
307,333,307,306,2
308,326,304,306,2
308,321,301,306,2
307,314,299,306,2
304,301,298,305,2
301,288,298,304,2
297,277,302,304,2
297,271,306,305,2
297,265,311,307,2
298,260,314,309,2
300,258,315,311,2
301,257,314,312,2
301,261,313,313,2
302,270,312,312,2
303,279,312,312,2
305,292,312,311,2
308,306,314,309,2
313,321,316,307,2
318,339,319,305,2
322,360,321,306,2
324,377,322,304,2
322,388,321,299,2
318,391,318,294,2
314,389,315,291,2
312,386,312,291,2
312,381,309,293,2
310,371,305,294,2
305,353,300,296,2
299,331,294,300,2
295,310,290,303,2
294,296,289,308,2
295,288,290,312,2
297,284,295,316,2
301,282,303,321,2
304,283,311,323,2
304,285,316,324,2
303,285,317,322,2
300,283,315,320,2
298,283,314,318,2
297,286,313,318,2
296,288,314,317,2
296,293,316,317,2
298,305,318,316,2
301,325,320,317,2
305,346,321,317,2
310,361,320,317,2
315,369,319,316,2
321,369,319,314,2
325,365,320,311,2
329,359,324,305,2
331,354,329,300,2
330,352,333,295,2
326,351,331,290,2
321,349,323,287,2
315,344,314,287,2
311,335,306,287,2
306,324,299,285,2
301,312,295,284,2
297,303,292,284,2
