301,307,314,303,1
299,299,313,304,1
300,290,311,304,1
301,283,312,302,1
301,278,312,299,1
301,278,310,298,1
303,282,308,299,1
307,290,308,302,1
313,302,309,304,1
318,313,312,305,1
321,323,315,305,1
320,331,317,305,1
317,335,319,305,1
314,338,321,307,1
312,340,322,308,1
311,339,321,309,1
310,335,317,309,1
309,324,312,308,1
308,311,305,306,1
306,297,298,303,1
305,285,292,300,1
304,275,290,298,1
304,269,290,296,1
304,268,293,294,1
304,270,295,292,1
304,273,293,292,1
305,274,291,292,1
307,274,290,292,1
308,275,291,293,1
310,280,294,295,1
312,287,299,298,1
317,297,306,303,1
323,306,314,308,1
327,312,324,312,1
328,317,332,314,1
326,321,335,315,1
320,322,332,314,1
312,322,327,312,1
304,319,320,310,1
296,315,315,307,1
293,311,311,304,1
293,308,309,304,1
298,309,311,305,1
305,312,313,307,1
310,313,314,308,1
313,310,310,307,1
315,305,303,306,1
316,300,297,304,1
314,297,294,302,1
313,297,297,302,1
314,302,304,303,1
318,311,313,304,1
322,320,317,305,1
328,330,318,304,1
334,338,318,303,1
338,343,317,302,1
340,343,315,301,1
340,340,315,300,1
338,337,316,301,1
334,333,316,303,1
328,330,313,303,1
320,328,309,304,1
318,328,305,306,1
320,328,306,306,1
324,325,308,306,1
326,321,310,305,1
325,315,311,304,1
321,309,309,303,1
316,303,308,304,1
309,299,309,306,1
302,297,309,308,1
298,296,310,309,1
297,297,312,311,1
296,300,314,312,1
296,304,313,312,1
297,309,311,310,1
297,314,307,309,1
298,317,304,309,1
299,318,303,308,1
302,316,303,308,1
307,312,308,310,1
311,308,317,313,1
313,304,328,314,1
312,300,333,315,1
308,295,326,313,1
305,288,310,309,1
303,278,295,306,1
303,272,284,305,1
306,272,280,304,1
311,275,282,303,1
318,280,286,302,1
325,285,291,303,1
329,290,295,304,1
330,293,299,304,1
328,294,301,302,1
322,291,299,298,1
314,285,295,295,1
306,281,288,294,1
301,276,282,294,1
301,273,277,295,1
302,275,276,299,1
304,282,280,302,1
307,291,286,306,1
310,301,292,308,1
312,308,298,310,1
315,312,303,311,1
319,313,307,312,1
326,314,311,313,1
336,317,316,314,1
346,322,320,315,1
354,326,323,315,1
356,329,324,314,1
353,331,325,314,1
345,331,328,313,1
335,330,333,313,1
325,328,336,313,1
313,324,332,310,1
301,319,324,307,1
293,313,318,307,1
292,307,316,308,1
295,302,316,310,1
299,295,317,310,1
302,287,316,308,1
303,281,313,306,1
303,279,311,303,1
304,284,313,302,1
307,295,316,302,1
310,311,318,303,1
310,325,315,303,1
308,332,311,304,1
308,334,308,305,1
308,332,305,307,1
309,327,302,307,1
309,319,298,306,1
310,311,293,305,1
309,304,289,303,1
307,299,286,301,1
303,297,284,298,1
300,296,285,296,1
297,297,288,294,1
296,301,293,293,1
297,305,298,293,1
300,308,302,294,1
305,309,304,296,1
308,308,304,296,1
308,306,305,295,1
307,303,307,295,1
306,299,310,295,1
307,297,312,295,1
308,294,313,295,1
310,291,313,295,1
312,288,309,295,1
316,286,304,297,1
318,283,297,299,1
320,278,289,301,1
319,272,283,303,1
318,270,282,305,1
319,274,287,309,1
322,284,296,312,1
324,295,305,314,1
324,305,313,315,1
323,313,317,314,1
323,318,321,315,1
326,321,323,315,1
328,322,325,312,1
332,321,326,309,1
334,318,325,304,1
334,314,323,299,1
332,309,318,296,1
329,304,315,298,1
327,300,312,302,1
323,297,310,306,1
318,295,310,309,1
312,294,309,310,1
307,293,310,310,1
306,294,310,309,1
307,295,310,307,1
307,296,308,304,1
307,298,306,301,1
304,300,307,298,1
299,301,310,297,1
292,300,314,297,1
290,298,316,300,1
291,294,316,304,1
292,290,315,310,1
294,288,313,313,1
296,291,311,312,1
298,298,308,312,1
300,308,305,313,1
301,316,305,314,1
301,323,308,311,1
302,328,311,306,1
302,330,315,302,1
301,326,318,298,1
301,319,320,297,1
305,313,320,300,1
311,309,318,303,1
315,309,316,305,1
317,310,315,306,1
318,311,313,305,1
317,311,311,304,1
315,311,308,302,1
315,311,306,300,1
316,311,303,299,1
318,311,300,300,1
321,310,299,299,1
324,305,300,298,1
327,296,304,298,1
332,286,308,300,1
332,277,311,302,1
326,273,310,303,1
315,271,307,301,1
307,272,304,299,1
303,277,303,299,1
304,286,303,299,1
309,293,304,300,1
315,298,305,300,1
321,300,307,300,1
326,302,309,299,1
331,303,309,301,1
334,306,308,303,1
336,309,308,306,1
337,312,308,311,1
335,312,308,313,1
331,311,309,313,1
325,312,310,313,1
320,312,313,312,1
314,312,319,309,1
311,310,326,305,1
310,307,332,302,1
311,304,331,301,1
313,302,324,302,1
315,302,317,304,1
317,304,313,307,1
317,309,313,310,1
315,315,316,311,1
314,320,321,313,1
313,323,327,315,1
313,323,332,317,1
313,325,333,318,1
313,324,327,317,1
312,320,317,314,1
309,311,305,308,1
305,298,294,302,1
301,287,284,296,1
296,282,279,293,1
294,284,282,292,1
295,292,290,295,1
303,302,299,299,1
313,311,303,301,1
319,314,304,301,1
321,312,302,301,1
319,308,298,300,1
317,303,294,300,1
315,299,291,299,1
313,297,290,297,1
313,298,291,295,1
313,299,292,294,1
313,300,294,294,1
313,301,300,295,1
313,302,308,299,1
313,304,314,303,1
313,308,318,305,1
315,315,322,307,1
318,323,328,311,1
323,329,334,314,1
329,331,340,315,1
331,331,343,313,1
330,328,343,310,1
325,325,338,305,1
319,322,329,300,1
314,319,320,298,1
311,314,311,298,1
311,310,306,301,1
313,307,304,303,1
316,307,305,306,1
320,308,305,309,1
321,310,304,310,1
320,313,301,309,1
316,313,298,308,1
309,311,295,306,1
304,306,293,305,1
300,302,291,305,1
299,298,289,306,1
298,292,288,306,1
298,286,289,305,1
297,284,293,303,1
297,285,299,299,1
298,289,306,296,1
300,296,310,292,1
303,303,311,289,1
305,310,312,290,1
307,316,313,294,1
309,323,313,299,1
309,329,313,303,1
307,332,310,305,1
304,332,308,306,1
302,328,305,306,1
300,324,304,307,1
302,320,305,309,1
305,319,305,309,1
308,316,306,308,1
310,310,305,307,1
312,303,304,307,1
314,299,303,308,1
317,297,304,309,1
319,296,305,313,1
320,296,305,317,1
318,295,305,319,1
319,293,304,319,1
320,293,303,315,1
320,294,302,310,1
319,296,299,305,1
315,298,297,301,1
313,298,296,299,1
314,300,297,297,1
318,304,300,297,1
324,308,307,297,1
330,312,313,300,1
332,314,317,303,1
332,313,316,306,1
330,312,313,309,1
328,310,310,312,1
324,307,309,315,1
320,304,311,315,1
316,300,317,316,1
313,296,326,316,1
312,293,334,315,1
311,290,334,313,1
309,289,325,311,1
309,290,312,310,1
308,294,301,309,1
308,300,297,310,1
308,307,297,311,1
308,313,299,312,1
306,316,300,311,1
301,317,301,310,1
296,317,302,310,1
289,313,302,307,1
282,307,303,304,1
279,300,304,303,1
281,297,305,304,1
289,296,304,306,1
301,297,303,307,1
312,300,303,309,1
320,304,304,311,1
322,303,304,310,1
320,298,300,308,1
315,288,296,305,1
311,275,291,303,1
309,266,288,302,1
309,264,288,302,1
311,267,292,303,1
314,274,296,306,1
317,284,301,310,1
323,298,307,313,1
329,315,312,315,1
333,329,315,316,1
333,335,316,317,1
331,335,316,316,1
327,333,316,313,1
323,327,314,309,1
318,321,312,305,1
314,314,309,304,1
312,310,306,303,1
313,307,305,304,1
314,305,306,304,1
315,305,309,304,1
316,306,313,305,1
315,307,317,306,1
314,309,319,306,1
313,310,320,305,1
311,311,322,305,1
310,311,324,306,1
309,311,327,307,1
311,310,328,310,1
314,310,327,312,1
318,311,326,314,1
322,312,323,317,1
324,311,318,318,1
320,305,309,316,1
315,296,299,313,1
313,286,289,309,1
316,278,283,305,1
323,276,283,303,1
332,280,287,304,1
339,286,293,305,1
343,291,299,307,1
342,295,306,308,1
336,301,313,309,1
327,307,318,309,1
318,312,321,307,1
311,316,323,308,1
306,319,325,308,1
302,320,324,308,1
299,322,321,307,1
296,324,316,307,1
295,326,311,306,1
295,325,308,306,1
295,324,306,307,1
296,321,306,307,1
297,318,305,307,1
296,317,305,306,1
296,316,304,304,1
297,314,304,304,1
299,311,305,304,1
303,307,306,305,1
306,303,309,307,1
308,298,309,307,1
308,295,308,307,1
305,294,305,305,1
303,295,304,304,1
303,297,303,304,1
304,298,302,304,1
307,299,301,303,1
309,302,299,298,1
307,304,296,293,1
301,304,291,287,1
295,304,287,281,1
288,302,284,277,1
283,302,283,278,1
281,304,287,286,1
283,309,294,295,1
286,314,305,302,1
293,317,320,309,1
306,318,334,313,1
324,318,342,317,1
344,317,342,319,1
358,316,337,319,1
365,314,327,316,1
365,313,316,314,1
361,314,307,312,1
352,318,302,311,1
338,319,299,311,1
324,317,299,311,1
314,315,302,313,1
309,314,306,316,1
306,314,310,317,1
304,315,312,317,1
303,317,312,315,1
303,319,310,312,1
304,320,309,309,1
307,321,308,307,1
310,319,308,305,1
312,315,308,305,1
314,309,308,307,1
315,304,307,308,1
316,300,307,309,1
315,295,304,308,1
313,291,301,307,1
315,291,298,304,1
319,293,297,302,1
326,295,298,299,1
331,293,297,295,1
331,288,295,292,1
326,284,295,290,1
318,283,297,291,1
309,285,302,293,1
298,287,307,296,1
289,288,310,297,1
284,291,311,298,1
284,295,311,301,1
288,300,313,305,1
292,305,316,309,1
297,310,318,312,1
300,315,318,313,1
303,318,319,314,1
307,320,320,314,1
311,319,320,313,1
315,316,319,312,1
317,312,319,311,1
318,309,318,309,1
318,306,318,308,1
316,305,318,307,1
313,307,318,307,1
310,311,316,305,1
309,315,313,303,1
310,319,310,302,1
312,319,306,301,1
312,317,303,301,1
310,311,301,301,1
307,305,300,301,1
305,302,300,300,1
302,301,302,298,1
299,302,304,295,1
297,305,306,291,1
296,311,309,289,1
296,317,314,290,1
298,323,320,293,1
301,329,324,297,1
306,334,323,303,1
313,334,318,308,1
322,331,311,314,1
333,325,304,318,1
344,318,299,320,1
350,313,295,321,1
351,312,292,320,1
347,312,289,316,1
338,312,288,312,1
329,309,288,309,1
320,302,288,307,1
311,295,287,306,1
301,289,287,304,1
292,286,288,301,1
288,289,292,301,1
290,297,296,303,1
296,305,302,306,1
303,310,306,309,1
311,313,309,311,1
316,314,310,311,1
318,316,309,310,1
318,317,310,310,1
318,317,312,309,1
316,315,313,310,1
313,313,312,309,1
309,312,311,307,1
304,310,308,304,1
301,307,306,303,1
301,305,305,305,1
302,304,308,308,1
302,306,312,308,1
301,306,315,305,1
299,305,321,303,1
299,303,332,302,1
301,304,347,304,1
304,307,355,304,1
306,308,351,304,1
308,307,340,304,1
309,303,328,304,1
311,299,318,305,1
313,295,310,307,1
315,293,304,310,1
314,292,299,312,1
310,292,295,312,1
308,295,293,312,1
306,300,292,311,1
304,307,293,309,1
303,315,294,308,1
303,322,295,307,1
304,329,296,307,1
306,334,299,308,1
309,334,301,307,1
312,327,303,306,1
314,314,306,306,1
317,301,309,307,1
320,293,311,308,1
321,289,312,309,1
319,287,311,308,1
313,285,309,306,1
306,283,306,304,1
300,280,303,303,1
297,280,302,302,1
298,282,300,302,1
301,287,299,303,1
306,295,299,304,1
310,301,300,307,1
313,308,301,311,1
315,315,304,313,1
314,321,307,314,1
312,324,309,314,1
310,323,309,314,1
308,321,308,313,1
310,318,306,312,1
311,314,303,311,1
313,309,302,311,1
313,305,302,311,1
311,302,303,310,1
306,298,304,309,1
299,294,304,307,1
293,290,304,305,1
292,290,303,304,1
294,293,303,303,1
301,297,304,302,1
308,302,305,300,1
315,307,306,298,1
318,311,308,298,1
316,314,310,298,1
313,316,312,298,1
310,318,312,299,1
305,318,313,299,1
299,315,311,298,1
294,310,309,297,1
292,304,306,299,1
294,297,305,303,1
300,290,305,308,1
307,284,307,310,1
315,281,310,307,1
323,281,309,302,1
328,279,307,298,1
330,276,305,297,1
329,274,304,300,1
331,277,306,305,1
333,283,309,312,1
334,290,311,317,1
330,296,312,321,1
323,298,313,322,1
316,300,313,323,1
309,302,314,323,1
300,304,316,321,1
293,308,316,318,1
290,315,319,317,1
292,323,322,316,1
295,330,323,314,1
296,332,320,312,1
296,331,316,310,1
294,327,311,308,1
292,321,308,306,1
290,316,306,305,1
289,314,305,304,1
288,312,305,302,1
287,313,304,302,1
288,313,305,302,1
295,315,304,304,1
304,317,304,306,1
314,319,303,308,1
320,319,301,308,1
324,320,298,308,1
324,321,297,307,1
320,322,298,306,1
316,321,299,305,1
310,316,301,303,1
307,310,301,302,1
304,304,300,302,1
303,299,300,302,1
303,300,302,304,1
307,305,305,305,1
313,312,309,306,1
318,317,313,308,1
320,318,317,310,1
320,316,318,310,1
318,310,316,310,1
315,302,312,309,1
311,295,307,307,1
308,295,302,306,1
305,300,299,306,1
302,307,298,304,1
301,315,300,302,1
302,321,304,301,1
305,323,311,301,1
308,321,320,302,1
311,317,328,303,1
314,311,330,303,1
315,305,325,303,1
316,302,318,304,1
314,301,311,304,1
308,301,303,302,1
300,297,293,298,1
296,293,287,296,1
298,292,286,296,1
303,297,292,297,1
306,302,301,299,1
308,305,312,303,1
309,307,321,306,1
308,307,326,308,1
305,305,325,309,1
302,300,323,309,1
302,295,319,312,1
305,292,318,316,1
309,294,319,321,1
311,301,319,325,1
308,309,317,325,1
305,314,311,322,1
303,317,306,318,1
302,317,300,313,1
303,315,295,309,1
305,309,290,307,1
307,304,288,307,1
310,300,289,309,1
312,296,292,312,1
313,294,297,316,1
315,295,302,319,1
318,298,306,321,1
319,301,309,321,1
317,302,310,319,1
314,301,310,317,1
312,300,308,316,1
312,300,306,316,1
312,301,302,316,1
312,301,298,316,1
312,303,295,315,1
311,304,292,313,1
310,305,290,311,1
309,307,290,309,1
309,309,292,309,1
310,312,297,311,1
311,314,302,312,1
311,312,308,311,1
309,306,312,309,1
306,299,314,307,1
305,294,315,306,1
304,290,315,305,1
304,289,314,304,1
305,293,312,304,1
307,299,309,304,1
309,304,306,304,1
309,303,303,303,1
306,294,299,301,1
301,282,294,299,1
297,274,292,300,1
297,273,297,304,1
300,279,309,313,1
306,290,324,320,1
310,302,333,325,1
312,312,333,326,1
314,318,328,325,1
316,322,321,324,1
318,324,317,323,1
320,325,315,323,1
320,326,316,321,1
318,327,315,318,1
313,330,313,314,1
306,332,309,310,1
299,329,306,308,1
296,325,303,307,1
297,323,303,308,1
299,323,303,311,1
303,324,304,315,1
306,325,304,317,1
308,325,303,318,1
306,324,301,317,1
302,321,299,317,1
299,317,298,316,1
301,313,298,316,1
309,311,299,316,1
317,310,301,317,1
324,310,303,316,1
328,311,307,316,1
327,313,310,313,1
323,314,309,310,1
318,315,305,307,1
315,315,301,305,1
315,314,299,304,1
316,311,297,303,1
317,306,295,304,1
317,302,295,304,1
313,300,294,304,1
309,301,295,305,1
305,304,297,307,1
302,308,300,311,1
300,310,303,313,1
297,310,305,314,1
294,310,306,314,1
294,309,305,315,1
297,308,305,314,1
300,306,304,314,1
304,303,303,313,1
307,298,303,313,1
309,293,303,314,1
309,286,302,314,1
309,281,301,313,1
308,282,301,313,1
307,286,302,312,1
307,290,304,313,1
307,295,307,313,1
305,298,309,313,1
303,300,308,311,1
301,304,307,308,1
300,309,305,307,1
298,312,304,305,1
296,312,303,303,1
293,308,303,301,1
290,304,306,300,1
287,297,309,300,1
285,290,310,300,1
284,286,310,301,1
285,285,311,301,1
290,289,318,302,1
296,296,328,305,1
303,303,339,307,1
307,308,344,308,1
309,310,341,308,1
312,312,331,309,1
318,313,318,310,1
324,313,304,310,1
328,312,293,310,1
329,311,286,311,1
323,308,281,312,1
315,305,279,311,1
306,302,280,311,1
298,302,284,310,1
295,305,291,310,1
298,308,297,310,1
307,311,304,312,1
317,312,309,316,1
324,314,314,319,1
329,317,317,322,1
332,320,318,324,1
330,321,318,324,1
325,320,317,323,1
318,317,316,321,1
313,314,314,319,1
310,312,313,317,1
309,310,313,316,1
309,309,314,316,1
308,308,314,316,1
306,307,313,315,1
304,307,313,315,1
302,307,312,314,1
302,310,311,314,1
305,312,310,314,1
311,314,308,314,1
318,313,306,314,1
324,309,303,314,1
327,304,301,313,1
328,299,300,313,1
328,295,302,311,1
326,291,308,309,1
322,288,316,307,1
317,287,323,306,1
309,287,325,305,1
303,290,322,305,1
300,297,317,305,1
299,307,314,306,1
299,319,313,307,1
298,331,312,307,1
298,338,310,308,1
298,341,306,308,1
298,339,301,309,1
298,333,299,309,1
298,325,299,310,1
299,316,302,313,1
300,309,304,317,1
301,303,305,320,1
301,300,304,320,1
302,299,304,320,1
303,298,303,318,1
303,296,301,317,1
303,292,298,315,1
302,289,296,312,1
302,284,293,309,1
301,280,289,305,1
299,277,287,301,1
294,274,285,295,1
287,270,283,289,1
280,267,283,284,1
275,265,285,282,1
278,268,290,286,1
289,274,297,294,1
304,282,304,305,1
317,289,309,314,1
328,295,312,322,1
333,301,314,326,1
334,308,314,327,1
331,314,313,326,1
326,317,312,324,1
321,318,311,322,1
318,319,310,319,1
315,321,311,317,1
312,325,314,314,1
310,328,317,312,1
308,327,320,311,1
307,323,321,310,1
306,319,320,310,1
307,315,319,310,1
309,314,316,309,1
309,313,314,308,1
308,313,312,304,1
305,313,312,301,1
304,313,313,299,1
303,313,313,297,1
303,315,310,296,1
303,320,308,298,1
304,325,309,302,1
304,331,313,307,1
303,335,316,311,1
301,337,320,313,1
301,337,321,314,1
302,336,320,314,1
305,331,318,314,1
308,324,315,315,1
313,315,310,315,1
317,306,305,314,1
320,300,302,314,1
322,296,299,313,1
322,294,298,312,1
321,294,299,312,1
320,297,302,313,1
320,301,308,317,1
321,305,314,320,1
323,308,317,321,1
324,309,316,320,1
324,309,313,318,1
325,307,310,317,1
326,307,309,318,1
325,306,309,320,1
323,306,308,320,1
319,304,308,320,1
314,302,307,320,1
308,299,305,318,1
302,295,303,317,1
297,292,302,315,1
295,290,300,313,1
295,289,299,310,1
297,288,297,307,1
299,288,295,303,1
301,288,294,300,1
302,288,293,297,1
303,287,293,294,1
303,286,295,293,1
304,285,297,294,1
306,286,299,297,1
305,288,301,301,1
301,291,303,304,1
295,295,306,304,1
291,301,307,303,1
290,309,309,303,1
293,316,312,304,1
300,324,315,308,1
307,332,318,312,1
312,338,318,313,1
313,337,317,312,1
313,333,315,311,1
310,328,313,309,1
306,325,311,305,1
302,324,309,301,1
300,327,307,298,1
300,331,307,296,1
298,331,309,298,1
298,327,317,302,1
299,324,331,307,1
303,321,347,311,1
307,320,358,313,1
309,322,359,312,1
309,324,351,310,1
307,323,336,307,1
307,319,319,304,1
307,314,305,303,1
309,309,296,306,1
311,305,292,309,1
313,301,290,311,1
315,296,287,311,1
316,291,284,311,1
316,286,282,309,1
316,284,281,307,1
316,285,284,305,1
315,288,287,305,1
313,291,291,306,1
311,295,296,306,1
308,299,299,307,1
307,302,303,307,1
308,306,309,308,1
310,310,313,310,1
309,314,314,311,1
304,316,313,311,1
299,316,312,311,1
296,314,311,312,1
295,312,311,313,1
298,310,311,314,1
305,307,310,314,1
312,304,308,314,1
316,301,307,314,1
320,296,307,313,1
322,290,306,313,1
320,284,305,310,1
315,279,302,307,1
309,276,295,304,1
302,275,288,301,1
297,277,282,300,1
296,282,281,300,1
298,288,285,301,1
307,296,289,301,1
318,305,293,303,1
328,312,297,305,1
333,315,301,307,1
333,318,305,309,1
330,322,309,311,1
322,325,313,311,1
314,327,315,311,1
306,327,316,311,1
302,328,316,311,1
299,326,315,311,1
298,323,314,310,1
298,319,313,311,1
298,316,313,312,1
298,313,313,313,1
299,311,314,313,1
299,312,315,311,1
299,313,316,310,1
299,314,318,309,1
298,314,320,308,1
295,312,321,306,1
293,310,320,305,1
292,308,317,306,1
293,308,314,308,1
296,307,311,309,1
299,303,307,308,1
302,299,304,307,1
305,295,302,305,1
308,292,302,304,1
312,291,305,305,1
318,293,309,308,1
325,296,312,311,1
332,297,312,313,1
335,298,313,314,1
333,299,315,314,1
324,303,314,312,1
313,308,311,310,1
303,316,307,309,1
297,324,304,308,1
296,331,300,307,1
296,333,296,305,1
297,330,293,304,1
297,327,292,302,1
297,322,294,300,1
297,318,296,299,1
298,313,298,300,1
299,310,301,301,1
302,310,304,301,1
305,310,305,300,1
308,310,305,299,1
309,310,304,299,1
310,311,303,300,1
310,311,302,301,1
307,311,302,303,1
302,313,303,306,1
298,315,305,308,1
296,317,307,310,1
300,318,308,310,1
307,319,307,311,1
316,319,304,311,1
325,318,302,311,1
331,315,298,309,1
333,311,296,306,1
330,308,295,302,1
324,306,295,299,1
317,308,297,299,1
313,312,302,302,1
312,319,309,306,1
315,325,319,309,1
319,327,327,310,1
319,324,331,310,1
315,319,332,309,1
309,313,328,308,1
303,307,320,306,1
298,301,311,305,1
295,299,304,305,1
292,300,300,303,1
288,301,299,301,1
286,302,298,301,1
287,302,298,301,1
287,300,297,300,1
287,298,295,300,1
289,296,296,302,1
292,295,297,303,1
294,295,300,304,1
297,296,304,305,1
302,298,308,307,1
308,301,310,310,1
313,304,310,313,1
317,306,310,315,1
318,309,310,315,1
318,311,309,315,1
316,312,308,314,1
313,311,307,314,1
309,309,307,313,1
306,308,308,310,1
304,306,309,307,1
301,302,309,303,1
298,298,309,299,1
296,294,307,297,1
298,292,304,296,1
302,292,299,295,1
306,294,294,294,1
309,297,291,295,1
313,301,294,297,1
318,307,299,302,1
322,312,306,307,1
322,314,309,310,1
318,310,309,313,1
314,302,307,315,1
310,294,306,315,1
309,287,307,316,1
310,284,309,317,1
314,286,311,317,1
318,289,313,316,1
321,293,314,314,1
322,297,315,313,1
320,298,313,310,1
315,297,309,308,1
310,296,304,306,1
307,299,301,306,1
305,305,299,306,1
304,312,298,307,1
304,318,299,307,1
305,323,302,307,1
309,327,306,309,1
314,329,309,311,1
318,330,313,313,1
322,330,315,315,1
324,329,316,315,1
325,326,317,315,1
323,322,317,315,1
319,314,317,314,1
313,305,316,313,1
306,297,316,311,1
299,291,314,308,1
294,288,311,303,1
291,289,311,298,1
291,294,311,295,1
293,299,313,292,1
296,303,314,291,1
296,306,314,288,1
293,307,313,286,1
291,305,312,285,1
291,304,314,289,1
298,306,316,297,1
306,313,317,305,1
311,322,316,311,1
313,328,313,315,1
313,328,311,317,1
311,322,309,317,1
308,314,308,314,1
306,307,307,310,1
303,300,306,307,1
301,296,306,306,1
302,293,306,305,1
306,291,305,305,1
309,290,302,306,1
311,291,302,308,1
313,293,303,311,1
314,299,307,314,1
314,308,311,316,1
315,319,314,317,1
316,326,314,318,1
317,329,313,317,1
317,326,311,316,1
316,320,309,315,1
315,313,306,314,1
313,305,304,313,1
313,300,305,313,1
315,296,309,315,1
316,294,312,315,1
314,293,313,315,1
312,293,310,312,1
310,293,304,308,1
310,291,299,306,1
310,289,294,306,1
310,287,292,308,1
308,287,292,310,1
305,288,295,313,1
301,291,298,315,1
298,298,301,316,1
295,307,303,316,1
292,316,304,314,1
289,322,306,313,1
288,327,311,313,1
290,333,317,313,1
293,338,322,313,1
296,338,322,312,1
298,329,321,310,1
299,318,319,308,1
301,307,317,306,1
304,298,312,304,1
308,295,307,303,1
312,297,306,302,1
315,303,306,302,1
316,311,308,302,1
314,315,309,301,1
311,316,311,304,1
310,314,312,307,1
311,310,313,310,1
313,306,313,313,1
315,302,311,314,1
317,300,310,314,1
319,299,309,313,1
318,299,307,311,1
314,302,306,309,1
308,306,306,306,1
301,309,305,301,1
297,312,302,295,1
295,313,300,291,1
296,316,300,292,1
298,319,303,296,1
301,321,307,301,1
303,319,310,305,1
304,317,311,307,1
303,314,310,309,1
302,310,310,312,1
300,306,311,314,1
299,304,313,316,1
301,304,312,316,1
303,303,311,315,1
306,303,311,314,1
310,303,314,315,1
312,302,318,316,1
313,302,322,316,1
313,301,324,316,1
311,300,322,316,1
308,301,319,315,1
305,300,316,313,1
302,300,314,311,1
299,297,312,310,1
297,295,310,309,1
295,291,307,308,1
295,288,304,307,1
295,286,301,305,1
295,285,300,303,1
297,288,302,302,1
298,294,306,303,1
300,300,311,305,1
301,305,315,308,1
304,311,316,311,1
306,316,317,314,1
308,320,315,314,1
310,320,311,313,1
312,315,306,311,1
312,306,300,309,1
309,294,295,307,1
307,283,291,306,1
307,276,289,305,1
308,276,290,306,1
310,282,294,307,1
312,288,296,306,1
310,291,298,305,1
306,293,301,304,1
301,295,306,304,1
297,301,311,304,1
296,312,315,306,1
300,326,316,309,1
306,340,316,313,1
314,350,316,315,1
323,355,317,316,1
331,352,317,318,1
337,345,317,318,1
336,335,315,316,1
330,325,315,313,1
321,318,316,308,1
314,313,320,306,1
309,309,324,306,1
308,307,326,307,1
306,305,327,309,1
305,302,326,310,1
303,298,322,309,1
302,295,315,308,1
303,294,309,306,1
306,292,305,305,1
307,291,303,304,1
305,289,300,302,1
304,288,298,301,1
303,289,298,302,1
304,292,298,303,1
307,295,299,305,1
310,298,301,307,1
313,299,300,307,1
312,298,298,306,1
308,296,295,305,1
303,294,293,304,1
299,293,293,305,1
296,294,294,305,1
295,295,296,304,1
294,297,299,304,1
293,299,301,305,1
291,301,303,305,1
289,302,302,304,1
287,302,299,304,1
283,302,294,305,1
278,301,289,304,1
272,300,285,303,1
266,298,283,301,1
264,298,284,301,1
269,302,289,305,1
278,308,298,310,1
288,314,308,314,1
298,316,314,316,1
305,314,314,315,1
308,311,311,313,1
308,307,308,311,1
308,302,306,310,1
309,297,305,310,1
310,296,307,311,1
313,297,310,313,1
314,303,313,313,1
316,309,315,313,1
318,316,316,313,1
319,321,317,313,1
319,326,317,314,1
318,330,317,315,1
315,334,319,314,1
312,336,322,313,1
310,337,323,313,1
310,336,321,313,1
310,334,318,311,1
311,331,315,308,1
312,329,312,306,1
313,329,311,305,1
312,326,310,304,1
309,323,309,303,1
306,318,308,301,1
302,311,305,299,1
298,303,300,294,1
294,296,296,288,1
292,292,294,282,1
288,290,296,277,1
286,287,300,273,1
287,285,305,272,1
294,283,311,278,1
305,282,315,289,1
315,283,316,300,1
320,286,312,310,1
324,293,308,316,1
327,303,304,320,1
330,313,302,322,1
332,321,303,323,1
333,326,306,322,1
332,328,308,320,1
330,327,309,317,1
326,325,308,314,1
320,323,306,311,1
314,322,305,310,1
310,320,305,310,1
308,317,305,311,1
307,314,304,311,1
306,312,304,311,1
303,310,304,311,1
297,309,305,309,1
289,308,305,307,1
282,308,304,303,1
277,307,305,300,1
275,308,311,298,1
276,309,319,297,1
278,311,327,299,1
278,314,331,303,1
280,318,328,307,1
283,320,322,310,1
285,318,316,311,1
286,310,313,311,1
290,300,312,311,1
295,290,312,311,1
301,282,308,311,1
307,276,303,311,1
314,273,298,311,1
320,274,295,311,1
325,278,296,311,1
328,283,298,311,1
328,289,300,311,1
326,293,303,312,1
322,296,305,312,1
318,297,306,312,1
314,299,306,312,1
311,303,308,313,1
310,308,310,314,1
311,315,313,314,1
313,322,315,314,1
314,326,314,311,1
314,329,311,308,1
312,328,307,306,1
309,327,306,303,1
305,326,307,301,1
302,326,310,299,1
300,325,313,298,1
299,323,317,298,1
299,315,320,300,1
300,302,322,302,1
301,287,319,305,1
302,275,313,306,1
303,268,306,306,1
304,266,300,306,1
307,267,295,306,1
308,273,291,304,1
308,279,289,302,1
308,284,287,301,1
310,289,286,301,1
313,294,285,303,1
317,299,287,305,1
318,303,289,307,1
317,305,292,308,1
314,307,296,307,1
311,310,300,306,1
308,315,305,307,1
308,321,309,308,1
308,324,312,308,1
308,325,313,308,1
306,325,314,307,1
304,322,312,305,1
302,317,308,304,1
300,312,304,302,1
298,306,300,301,1
296,299,296,299,1
294,294,294,297,1
292,293,295,296,1
292,296,298,296,1
293,300,302,298,1
294,304,306,301,1
296,306,309,305,1
298,308,312,310,1
300,310,314,313,1
302,312,317,314,1
304,313,319,315,1
306,315,321,316,1
307,316,321,318,1
308,315,319,320,1
308,315,317,319,1
307,313,313,318,1
306,309,309,316,1
305,305,306,313,1
304,302,305,312,1
303,300,304,311,1
303,297,302,310,1
304,294,300,310,1
305,293,300,310,1
307,294,301,310,1
309,297,306,311,1
311,300,312,314,1
314,302,316,317,1
315,304,319,320,1
315,305,320,320,1
312,307,318,316,1
307,309,314,308,1
302,309,310,299,1
299,307,308,292,1
297,307,308,287,1
295,308,307,284,1
295,310,307,284,1
296,314,308,287,1
296,318,309,291,1
298,322,310,297,1
299,324,310,302,1
300,322,310,305,1
299,317,311,309,1
300,310,311,313,1
301,304,311,316,1
302,300,311,318,1
303,300,312,321,1
307,307,316,323,1
314,314,317,324,1
323,317,316,323,1
334,315,313,321,1
348,312,311,320,1
360,310,311,320,1
363,309,311,320,1
357,308,311,320,1
346,308,310,318,1
333,308,310,315,1
321,308,310,313,1
313,309,311,311,1
305,311,311,310,1
300,311,309,310,1
296,312,307,309,1
294,313,306,310,1
293,314,305,311,1
293,314,306,311,1
293,313,310,310,1
294,315,317,308,1
297,317,325,306,1
300,319,330,301,1
303,319,330,296,1
304,320,329,292,1
305,323,325,292,1
305,325,320,295,1
305,322,313,300,1
305,315,309,305,1
303,305,305,309,1
301,293,302,311,1
300,283,299,312,1
300,277,294,312,1
301,275,290,312,1
302,276,286,312,1
301,278,283,312,1
301,279,281,312,1
301,281,282,313,1
304,285,286,314,1
308,291,289,316,1
309,298,292,316,1
308,304,295,316,1
308,311,299,315,1
310,316,302,313,1
313,318,304,311,1
315,316,304,308,1
315,314,303,306,1
313,312,302,306,1
309,309,301,307,1
305,305,300,307,1
302,300,299,307,1
300,297,300,305,1
300,294,300,305,1
301,293,299,304,1
302,292,298,304,1
302,294,299,304,1
303,298,303,306,1
307,304,306,310,1
312,311,309,312,1
317,317,310,312,1
322,320,310,312,1
326,319,309,311,1
331,316,308,310,1
333,311,307,308,1
333,308,303,306,1
330,308,300,306,1
328,312,299,306,1
326,316,301,308,1
322,319,305,309,1
317,322,309,311,1
310,325,311,310,1
305,326,309,309,1
299,326,306,307,1
296,325,303,307,1
295,324,303,308,1
295,322,305,311,1
294,320,307,313,1
292,316,309,314,1
289,311,309,312,1
287,309,308,310,1
285,307,307,308,1
283,306,306,304,1
282,306,304,300,1
281,308,303,298,1
281,309,304,298,1
282,309,308,299,1
283,308,314,300,1
286,306,321,302,1
292,304,326,304,1
299,303,328,307,1
309,302,325,310,1
320,302,321,312,1
330,302,318,315,1
338,303,316,318,1
338,305,315,319,1
331,309,314,319,1
318,314,315,317,1
304,317,315,314,1
292,319,313,308,1
285,317,309,302,1
281,315,307,298,1
282,313,309,297,1
290,312,313,299,1
302,311,319,303,1
313,311,324,307,1
318,310,324,308,1
319,306,319,308,1
318,300,314,308,1
316,294,309,307,1
314,290,305,306,1
314,288,302,306,1
313,288,300,306,1
312,290,298,306,1
311,293,296,306,1
309,295,295,304,1
308,299,294,303,1
307,303,296,303,1
308,307,299,303,1
309,310,301,304,1
311,312,303,306,1
312,314,305,307,1
313,317,307,308,1
315,319,309,307,1
319,320,310,306,1
326,321,310,305,1
334,321,309,304,1
342,323,308,304,1
347,323,307,303,1
346,322,305,303,1
340,321,305,303,1
333,322,306,304,1
326,324,311,307,1
319,323,318,308,1
311,315,323,308,1
303,302,325,307,1
296,286,321,305,1
290,275,315,303,1
286,271,310,303,1
285,276,305,302,1
288,285,303,303,1
296,296,301,304,1
305,309,300,306,1
314,318,299,306,1
319,323,299,306,1
320,323,300,306,1
318,322,303,307,1
316,321,307,307,1
311,319,310,306,1
305,316,312,305,1
300,314,312,304,1
296,312,311,304,1
295,310,309,304,1
294,308,306,303,1
294,306,303,303,1
294,306,303,303,1
294,309,307,303,1
295,313,314,304,1
295,315,322,305,1
295,315,328,305,1
293,313,330,305,1
292,310,329,305,1
292,307,324,304,1
291,304,316,303,1
292,301,307,301,1
293,297,300,301,1
295,293,295,301,1
297,290,295,302,1
299,288,295,304,1
300,288,295,305,1
299,286,294,305,1
296,282,292,305,1
294,278,290,304,1
293,277,288,305,1
293,279,289,306,1
293,287,292,308,1
296,295,297,311,1
300,304,302,315,1
305,312,308,317,1
310,320,312,318,1
316,326,314,319,1
320,332,316,318,1
324,334,318,317,1
327,333,319,315,1
328,328,317,314,1
329,322,315,314,1
331,317,316,316,1
335,315,321,318,1
338,316,325,319,1
338,317,329,319,1
336,318,328,317,1
332,317,325,314,1
326,315,321,312,1
319,312,319,309,1
312,310,317,308,1
307,309,312,307,1
304,309,305,306,1
302,311,299,304,1
300,313,296,303,1
298,314,296,302,1
295,315,298,301,1
293,313,297,298,1
291,309,295,295,1
291,304,292,294,1
294,300,291,293,1
299,297,291,294,1
304,296,293,296,1
307,296,294,297,1
307,295,293,299,1
307,295,291,300,1
305,297,290,301,1
301,299,290,303,1
296,300,292,305,1
293,300,294,307,1
291,299,296,309,1
293,295,296,310,1
299,294,295,312,1
306,294,296,312,1
313,295,297,312,1
318,297,298,310,1
319,298,301,309,1
316,301,304,309,1
312,303,307,309,1
309,305,309,309,1
308,307,311,311,1
308,309,311,313,1
308,308,309,312,1
309,306,305,310,1
312,303,301,308,1
318,301,298,308,1
325,301,297,310,1
331,302,298,313,1
334,304,299,316,1
333,304,299,317,1
328,304,299,316,1
318,306,299,315,1
306,309,301,314,1
295,314,302,312,1
288,318,302,310,1
285,322,304,310,1
285,327,309,310,1
288,330,316,310,1
290,329,321,310,1
291,323,322,310,1
290,316,319,310,1
291,309,314,311,1
292,304,311,312,1
295,304,308,312,1
298,306,307,311,1
301,309,304,309,1
302,307,300,307,1
304,302,295,305,1
305,293,291,303,1
305,283,286,300,1
304,276,284,299,1
303,274,285,299,1
303,278,290,301,1
303,285,296,303,1
302,292,301,304,1
301,295,304,304,1
300,296,306,305,1
301,295,306,307,1
303,296,306,308,1
305,298,308,311,1
306,301,311,313,1
307,304,313,316,1
308,308,314,317,1
309,312,314,317,1
308,317,314,317,1
307,326,315,316,1
306,336,316,315,1
306,346,316,314,1
307,353,316,313,1
309,356,315,313,1
309,355,311,310,1
306,351,308,308,1
303,345,305,305,1
298,337,304,303,1
293,330,303,300,1
290,324,305,297,1
289,321,307,296,1
291,322,310,295,1
296,322,313,295,1
301,321,315,297,1
306,318,318,300,1
312,315,320,305,1
318,312,323,309,1
323,308,323,311,1
324,303,320,310,1
322,300,313,309,1
318,300,308,308,1
315,302,307,308,1
313,306,307,307,1
314,309,307,304,1
320,310,305,301,1
324,310,304,299,1
327,309,302,298,1
328,307,301,299,1
328,303,301,301,1
327,299,301,303,1
324,296,301,305,1
321,293,302,309,1
320,292,303,312,1
317,292,304,313,1
313,293,304,312,1
311,297,304,311,1
310,301,304,311,1
309,303,303,310,1
306,304,304,310,1
302,304,305,310,1
299,305,307,310,1
296,305,310,309,1
293,304,310,309,1
292,303,309,309,1
291,303,307,308,1
291,302,306,307,1
291,299,306,308,1
292,296,307,309,1
292,292,308,310,1
294,289,306,310,1
296,287,302,310,1
298,290,300,309,1
302,296,300,309,1
305,304,305,309,1
308,310,309,309,1
310,313,311,309,1
311,313,313,309,1
312,313,314,308,1
311,313,314,307,1
310,312,313,306,1
306,309,312,306,1
303,308,312,307,1
300,309,310,310,1
300,312,308,313,1
302,317,308,315,1
307,325,310,318,1
310,333,314,319,1
310,335,315,318,1
310,333,315,318,1
309,328,314,319,1
308,321,313,320,1
308,314,310,320,1
311,306,308,318,1
315,302,307,316,1
321,301,307,314,1
327,300,308,313,1
329,299,308,311,1
326,299,308,311,1
318,298,310,308,1
309,298,313,306,1
303,297,315,305,1
299,296,317,305,1
296,295,314,305,1
295,294,310,304,1
295,293,304,304,1
298,294,300,303,1
301,297,297,304,1
302,301,296,304,1
301,305,296,304,1
297,311,297,304,1
293,313,297,303,1
288,311,296,302,1
285,305,295,302,1
285,299,294,302,1
287,294,293,303,1
290,292,294,304,1
294,293,296,306,1
299,299,301,307,1
304,305,305,308,1
307,310,309,308,1
310,312,312,307,1
312,310,311,305,1
314,306,309,305,1
316,303,307,306,1
321,301,306,307,1
324,302,304,308,1
325,306,304,309,1
323,312,305,309,1
320,317,308,311,1
319,321,310,311,1
317,324,311,312,1
315,325,311,310,1
310,323,309,307,1
303,319,306,304,1
296,312,304,302,1
291,305,305,301,1
289,301,307,300,1
289,298,310,300,1
291,297,309,300,1
291,295,304,299,1
290,293,297,298,1
289,292,290,299,1
288,290,287,301,1
289,291,290,303,1
295,295,297,308,1
303,303,304,312,1
310,310,307,315,1
313,317,309,316,1
313,325,313,317,1
314,332,317,316,1
314,336,318,314,1
314,335,317,313,1
313,331,316,312,1
313,323,315,312,1
312,315,315,313,1
311,309,316,313,1
308,304,317,313,1
305,301,317,313,1
302,298,317,312,1
300,296,315,311,1
299,294,314,312,1
301,293,313,313,1
303,294,313,314,1
308,297,313,316,1
315,303,313,316,1
321,311,313,316,1
325,319,314,316,1
325,326,314,317,1
321,328,314,317,1
315,324,312,317,1
307,317,310,317,1
298,309,310,316,1
293,300,310,316,1
292,294,310,315,1
292,289,311,313,1
294,285,313,312,1
295,284,315,310,1
296,284,315,308,1
297,288,313,308,1
298,292,309,307,1
300,297,305,308,1
305,305,304,309,1
312,313,303,311,1
319,320,303,313,1
324,324,303,315,1
325,324,303,314,1
323,320,303,314,1
320,316,305,314,1
315,313,310,315,1
310,309,315,313,1
304,306,320,312,1
299,304,321,310,1
296,301,319,308,1
295,297,312,307,1
294,292,304,305,1
295,289,297,303,1
294,286,294,301,1
294,284,292,300,1
293,283,290,299,1
293,281,289,299,1
295,280,289,300,1
298,283,291,303,1
300,287,293,306,1
301,290,294,308,1
299,289,293,310,1
297,287,292,311,1
295,287,292,312,1
294,292,295,313,1
296,301,301,315,1
299,311,306,316,1
303,322,311,317,1
306,331,315,317,1
309,338,320,316,1
310,340,323,314,1
308,337,323,311,1
304,331,318,305,1
299,323,313,300,1
299,316,312,296,1
303,311,312,295,1
311,308,313,295,1
322,308,315,296,1
333,309,317,299,1
338,311,318,301,1
336,313,316,302,1
329,314,311,304,1
319,312,303,305,1
309,306,297,306,1
300,302,294,307,1
294,301,294,309,1
289,301,295,311,1
288,303,297,312,1
287,307,299,313,1
288,313,300,314,1
290,318,303,315,1
293,322,304,315,1
297,324,305,315,1
301,323,305,316,1
304,318,303,315,1
307,311,302,316,1
309,306,303,318,1
309,304,305,319,1
308,306,306,320,1
307,309,308,320,1
307,313,308,319,1
306,315,308,317,1
305,315,308,315,1
304,314,308,314,1
303,313,308,313,1
303,312,307,312,1
302,309,307,312,1
302,307,307,312,1
303,305,308,313,1
304,304,308,313,1
306,301,307,313,1
308,298,304,312,1
309,295,301,310,1
310,292,298,307,1
309,290,296,304,1
306,291,295,300,1
304,292,294,297,1
304,296,294,295,1
307,300,295,296,1
312,307,298,299,1
316,312,304,303,1
318,313,309,306,1
317,308,311,308,1
314,301,311,309,1
311,296,310,308,1
308,297,308,310,1
307,301,305,312,1
305,305,304,315,1
303,305,306,316,1
300,302,312,315,1
297,298,318,315,1
295,297,321,316,1
294,298,323,318,1
294,300,322,319,1
294,304,320,319,1
294,307,318,318,1
296,310,316,317,1
299,311,314,315,1
303,312,312,313,1
306,312,309,312,1
310,311,305,310,1
311,308,302,309,1
311,304,298,309,1
309,301,295,309,1
306,299,294,309,1
304,298,293,310,1
302,299,294,309,1
302,301,296,310,1
304,304,299,311,1
306,307,303,312,1
309,308,305,313,1
312,309,307,313,1
314,308,307,312,1
316,306,307,311,1
316,303,307,311,1
314,299,306,310,1
311,297,305,309,1
310,295,303,308,1
310,292,302,307,1
314,289,300,307,1
318,287,298,307,1
324,288,298,307,1
329,293,299,307,1
331,299,304,308,1
329,306,310,309,1
320,311,314,309,1
308,312,316,308,1
298,311,317,306,1
292,306,317,303,1
291,301,318,301,1
291,296,319,298,1
293,295,318,296,1
296,297,314,296,1
300,304,311,298,1
303,312,309,300,1
305,320,308,303,1
307,326,307,305,1
307,331,306,306,1
304,334,307,305,1
302,336,308,304,1
302,336,308,305,1
303,335,310,307,1
303,332,316,309,1
302,325,323,310,1
299,318,328,310,1
295,311,324,310,1
291,307,315,310,1
290,306,304,311,1
291,305,295,311,1
291,302,288,311,1
291,296,282,309,1
292,289,280,308,1
293,283,280,308,1
295,282,283,308,1
298,284,288,309,1
301,289,294,310,1
303,295,301,311,1
305,302,305,312,1
306,306,308,313,1
307,309,309,314,1
307,310,308,313,1
306,310,306,313,1
306,310,304,312,1
306,310,302,312,1
305,311,301,311,1
304,312,302,310,1
302,312,304,309,1
301,313,306,308,1
303,313,309,308,1
309,313,311,308,1
315,312,312,308,1
321,311,311,308,1
327,308,310,310,1
329,303,307,311,1
325,298,305,312,1
315,294,304,311,1
305,293,303,309,1
298,295,305,308,1
295,300,306,308,1
295,306,307,308,1
298,311,307,308,1
301,315,305,308,1
303,317,302,307,1
303,316,299,306,1
301,313,296,305,1
299,309,296,304,1
297,306,298,304,1
297,305,303,305,1
298,306,308,306,1
300,307,312,306,1
305,307,315,306,1
310,306,319,305,1
315,306,323,303,1
316,307,329,303,1
315,308,334,303,1
314,308,335,303,1
313,307,333,303,1
314,307,329,305,1
314,308,325,308,1
312,311,323,312,1
309,312,322,315,1
305,312,318,316,1
302,310,313,316,1
299,308,306,316,1
297,304,299,314,1
297,299,294,313,1
298,295,291,312,1
300,292,292,313,1
303,290,296,313,1
305,289,303,314,1
306,288,309,313,1
306,287,312,311,1
304,287,310,308,1
300,286,305,303,1
296,284,300,300,1
293,284,295,297,1
293,285,291,297,1
296,287,290,299,1
301,292,293,302,1
306,298,296,305,1
312,305,298,306,1
318,310,297,306,1
322,314,296,307,1
324,316,296,309,1
324,319,297,311,1
322,320,299,312,1
316,318,301,313,1
311,316,306,313,1
307,314,310,313,1
305,315,312,312,1
304,316,313,310,1
305,315,312,309,1
305,313,311,307,1
305,309,309,305,1
306,306,308,305,1
308,304,309,305,1
309,304,311,305,1
309,305,315,306,1
310,308,319,308,1
312,312,321,309,1
311,314,320,306,1
309,315,316,303,1
307,315,312,301,1
307,315,309,301,1
307,314,309,301,1
307,314,308,302,1
306,314,306,302,1
304,313,301,302,1
302,312,297,302,1
299,311,292,300,1
297,308,288,297,1
296,304,285,295,1
298,301,284,296,1
303,298,287,298,1
309,297,292,302,1
315,299,298,307,1
319,301,304,311,1
323,304,309,314,1
326,309,312,315,1
326,313,312,315,1
324,316,311,314,1
319,315,309,312,1
314,313,308,310,1
309,310,308,309,1
305,307,310,309,1
302,306,312,309,1
299,307,312,309,1
297,310,313,310,1
298,312,313,310,1
298,311,312,311,1
299,306,312,311,1
302,301,311,311,1
305,296,309,310,1
308,292,305,310,1
311,292,303,308,1
312,294,302,306,1
312,298,303,305,1
311,303,304,303,1
310,307,304,302,1
311,310,302,302,1
312,312,299,301,1
313,314,296,301,1
314,317,295,302,1
312,318,296,304,1
309,318,298,305,1
306,317,301,307,1
304,315,304,310,1
303,314,306,312,1
302,313,308,313,1
301,312,310,313,1
299,310,311,312,1
299,307,313,312,1
302,304,316,311,1
307,301,320,311,1
313,298,323,310,1
320,294,323,310,1
326,292,323,309,1
330,294,325,308,1
330,299,325,306,1
327,306,325,306,1
323,312,324,306,1
318,318,321,306,1
312,320,315,306,1
305,320,306,307,1
298,318,300,306,1
293,316,294,306,1
290,312,292,307,1
290,309,291,307,1
291,306,291,306,1
295,305,293,306,1
300,305,295,306,1
304,305,297,306,1
304,305,299,304,1
300,304,300,302,1
293,302,300,300,1
286,301,301,299,1
281,300,303,301,1
279,300,306,303,1
282,302,309,308,1
288,306,311,312,1
296,308,309,314,1
304,310,307,313,1
311,311,305,312,1
318,315,307,309,1
322,319,311,308,1
324,320,315,307,1
322,319,316,308,1
316,314,313,308,1
309,307,310,309,1
302,301,306,310,1
296,296,303,311,1
293,293,302,311,1
293,291,304,311,1
292,289,305,310,1
292,289,303,309,1
294,289,299,307,1
296,289,294,304,1
297,288,290,301,1
297,289,288,297,1
297,290,291,296,1
297,294,297,295,1
299,298,303,296,1
302,303,309,297,1
302,309,311,299,1
302,313,310,300,1
301,314,307,301,1
302,314,304,304,1
306,315,302,307,1
312,315,304,312,1
319,314,308,316,1
324,311,314,318,1
326,308,320,317,1
326,307,321,315,1
323,308,320,313,1
320,311,317,312,1
317,313,313,312,1
314,311,308,310,1
310,306,304,308,1
307,302,301,305,1
306,302,300,303,1
307,305,300,303,1
308,309,300,303,1
309,310,301,304,1
307,308,302,304,1
304,304,302,303,1
300,302,303,303,1
296,300,304,301,1
293,300,306,300,1
292,299,307,299,1
292,300,307,299,1
292,302,308,299,1
293,302,308,300,1
296,302,309,300,1
300,302,310,298,1
307,302,309,299,1
313,302,309,300,1
320,301,309,303,1
322,300,310,304,1
319,298,309,303,1
313,295,307,302,1
307,293,302,301,1
303,292,295,301,1
301,294,288,301,1
300,300,284,302,1
301,306,283,304,1
300,310,285,305,1
299,313,288,306,1
298,318,294,308,1
298,326,301,311,1
299,331,307,313,1
300,333,311,315,1
301,330,313,315,1
302,326,312,314,1
304,322,311,313,1
307,319,310,312,1
312,318,310,312,1
317,318,310,312,1
319,320,310,312,1
319,322,311,313,1
317,324,313,314,1
312,326,317,315,1
305,327,320,314,1
298,329,322,313,1
293,329,318,311,1
291,327,312,310,1
289,321,306,309,1
288,315,301,308,1
286,308,297,308,1
287,303,297,308,1
290,299,301,310,1
295,297,307,311,1
302,297,311,311,1
307,299,312,311,1
311,302,310,309,1
312,304,307,309,1
312,306,305,308,1
311,307,304,307,1
311,307,304,306,1
312,306,303,306,1
310,305,301,306,1
306,304,300,306,1
302,303,301,307,1
299,303,301,308,1
298,303,303,309,1
299,302,305,311,1
302,303,309,313,1
304,305,313,316,1
305,306,314,318,1
307,306,313,319,1
310,306,311,320,1
314,304,309,319,1
318,302,306,319,1
322,301,304,318,1
323,299,304,317,1
322,296,305,316,1
317,293,305,315,1
311,292,305,313,1
305,293,303,311,1
301,294,301,309,1
299,295,300,309,1
299,298,301,310,1
298,303,303,310,1
296,306,304,310,1
294,307,303,309,1
293,305,304,309,1
296,302,305,310,1
301,299,306,311,1
305,297,305,311,1
308,296,303,312,1
308,297,302,312,1
304,300,303,312,1
300,305,305,312,1
297,310,307,311,1
297,313,309,310,1
300,315,310,310,1
305,315,311,310,1
311,316,310,309,1
316,316,309,309,1
320,315,308,309,1
322,314,308,312,1
317,312,308,314,1
308,310,308,315,1
300,310,307,315,1
294,312,308,314,1
292,315,310,314,1
294,319,310,314,1
297,320,309,314,1
299,319,305,313,1
299,317,302,311,1
298,313,298,309,1
297,309,294,307,1
296,306,293,306,1
295,305,293,306,1
295,307,297,305,1
296,310,302,305,1
296,314,308,306,1
297,318,314,306,1
297,317,319,305,1
299,315,323,305,1
303,314,326,306,1
308,313,326,308,1
313,312,321,309,1
316,311,314,309,1
316,311,307,310,1
314,311,303,312,1
312,310,301,313,1
309,305,301,313,1
307,300,301,314,1
307,297,303,314,1
308,297,308,314,1
308,300,313,312,1
307,304,315,310,1
304,308,315,308,1
302,312,314,306,1
302,313,312,306,1
304,314,310,307,1
305,313,308,307,1
304,310,306,308,1
303,308,304,308,1
303,307,303,309,1
303,308,303,311,1
303,311,304,311,1
304,314,305,312,1
304,317,305,312,1
304,318,305,313,1
305,316,303,313,1
307,313,301,314,1
310,309,298,315,1
311,306,296,315,1
312,304,294,315,1
314,304,294,315,1
315,303,295,315,1
313,302,296,314,1
309,301,299,313,1
305,299,300,313,1
300,298,301,312,1
296,297,302,311,1
294,297,302,310,1
294,299,304,310,1
295,303,306,311,1
297,309,311,311,1
300,313,317,312,1
303,316,321,312,1
305,316,323,310,1
306,313,322,308,1
306,310,320,310,1
306,308,316,312,1
304,309,314,314,1
302,312,315,316,1
299,316,317,316,1
298,318,319,316,1
300,319,322,316,1
303,319,322,316,1
307,318,319,316,1
311,316,315,315,1
314,314,311,314,1
316,314,308,313,1
316,313,305,311,1
312,312,302,309,1
308,310,300,308,1
304,309,299,307,1
301,310,300,307,1
300,310,300,306,1
299,309,301,305,1
299,307,302,305,1
301,307,304,305,1
305,308,307,305,1
311,310,312,307,1
316,312,316,309,1
320,312,316,311,1
322,308,312,311,1
320,303,305,311,1
315,295,299,309,1
308,289,295,305,1
300,287,292,301,1
292,289,292,297,1
286,293,295,295,1
280,299,301,294,1
275,304,307,294,1
273,310,313,295,1
276,312,315,298,1
284,312,313,301,1
295,309,310,306,1
306,305,309,311,1
316,302,311,314,1
322,298,314,316,1
324,294,316,317,1
323,291,316,317,1
320,290,312,315,1
316,291,308,313,1
313,295,306,312,1
312,302,305,309,1
313,308,304,307,1
317,313,304,306,1
322,316,302,306,1
323,317,303,306,1
322,316,303,307,1
319,313,304,308,1
315,308,305,309,1
310,303,308,311,1
306,300,313,313,1
303,301,317,314,1
302,305,319,315,1
299,311,317,316,1
298,315,312,317,1
296,316,306,318,1
294,313,301,316,1
292,306,296,315,1
291,298,293,313,1
290,293,294,311,1
289,291,295,309,1
288,292,296,306,1
288,294,299,304,1
290,297,302,303,1
291,299,306,302,1
292,299,310,301,1
294,298,311,301,1
298,300,312,302,1
302,306,309,304,1
306,315,306,307,1
311,323,305,311,1
316,327,305,315,1
319,326,305,317,1
320,322,305,319,1
319,317,306,320,1
317,313,308,320,1
315,312,311,321,1
314,313,315,322,1
315,314,320,322,1
317,316,324,322,1
318,317,325,320,1
317,318,323,319,1
314,316,318,317,1
310,311,313,314,1
306,306,309,311,1
301,300,307,308,1
297,296,307,306,1
294,294,310,306,1
293,294,313,306,1
292,296,312,305,1
292,299,310,304,1
292,300,308,304,1
293,300,307,304,1
294,298,306,306,1
297,296,306,307,1
301,294,305,308,1
305,293,304,310,1
308,294,303,311,1
307,295,303,311,1
304,295,303,311,1
301,296,304,309,1
298,298,306,308,1
296,301,308,307,1
297,305,311,307,1
302,309,315,307,1
308,313,317,306,1
314,316,314,305,1
317,319,307,303,1
317,321,302,302,1
316,321,298,302,1
313,320,294,300,1
309,318,291,300,1
304,316,289,301,1
301,315,289,303,1
298,314,289,304,1
296,311,290,306,1
295,307,291,307,1
296,303,293,308,1
299,302,295,311,1
301,303,299,313,1
301,304,303,314,1
300,305,306,315,1
299,305,310,314,1
298,307,313,314,1
299,311,316,314,1
299,316,317,314,1
300,320,320,314,1
301,321,322,313,1
303,321,325,313,1
304,320,327,311,1
305,319,326,311,1
306,316,324,311,1
306,313,321,309,1
304,309,317,308,1
301,306,315,307,1
297,303,314,306,1
294,303,314,306,1
293,304,315,308,1
292,305,315,309,1
291,306,314,311,1
291,304,313,311,1
293,300,311,311,1
294,294,309,312,1
296,289,309,313,1
300,286,310,314,1
307,283,309,315,1
315,284,307,315,1
322,287,306,314,1
327,291,306,313,1
332,294,306,311,1
337,297,306,309,1
340,299,305,307,1
340,302,304,305,1
335,306,305,303,1
329,311,306,301,1
323,316,309,301,1
318,320,310,301,1
315,321,308,304,1
314,320,305,306,1
312,317,303,308,1
309,312,302,309,1
306,308,302,309,1
303,306,303,309,1
302,307,304,308,1
304,308,305,308,1
307,309,305,308,1
310,308,306,307,1
311,306,308,307,1
310,305,312,308,1
306,306,317,309,1
301,309,320,309,1
296,312,319,310,1
293,315,316,310,1
293,316,312,311,1
295,315,308,310,1
296,314,304,309,1
297,311,301,308,1
297,308,299,307,1
295,305,296,305,1
293,304,295,304,1
292,302,296,304,1
295,301,297,305,1
299,298,297,305,1
301,294,296,305,1
303,290,297,304,1
304,285,297,304,1
305,281,296,304,1
304,279,296,303,1
305,281,295,303,1
304,284,296,303,1
304,289,297,304,1
305,296,300,306,1
305,305,304,308,1
305,313,307,310,1
304,319,310,311,1
303,320,312,312,1
301,316,313,312,1
300,313,312,312,1
302,313,312,312,1
303,316,313,311,1
303,320,313,309,1
302,324,312,306,1
305,325,312,306,1
309,323,313,306,1
313,320,314,307,1
316,314,314,308,1
318,309,314,309,1
318,307,313,310,1
318,306,313,310,1
317,306,311,310,1
314,308,308,309,1
310,309,306,308,1
308,309,305,307,1
306,310,305,307,1
305,311,305,307,1
304,312,306,307,1
304,313,306,307,1
306,314,305,308,1
309,314,304,308,1
313,313,303,307,1
318,311,302,307,1
321,307,301,307,1
320,303,302,306,1
315,299,304,305,1
309,296,306,304,1
302,295,308,302,1
296,294,308,301,1
293,292,307,301,1
294,290,305,302,1
295,288,302,302,1
297,287,299,303,1
299,286,299,302,1
300,286,302,302,1
301,288,305,301,1
299,288,304,300,1
297,290,301,298,1
296,294,302,299,1
296,303,306,302,1
296,314,312,304,1
296,324,315,306,1
297,331,317,307,1
298,332,319,307,1
298,330,323,306,1
298,325,326,305,1
298,321,323,303,1
296,317,317,301,1
295,313,312,300,1
296,309,309,301,1
300,305,308,302,1
304,301,307,303,1
307,298,305,303,1
309,296,302,303,1
309,294,299,301,1
308,292,297,300,1
305,291,297,299,1
302,293,299,299,1
300,297,300,301,1
300,301,303,303,1
300,303,304,304,1
300,303,304,304,1
297,301,304,304,1
293,299,304,301,1
288,298,303,298,1
286,297,304,297,1
288,298,305,297,1
294,300,308,298,1
302,304,309,299,1
311,310,309,300,1
318,318,308,302,1
322,328,309,304,1
322,334,311,307,1
319,336,312,309,1
313,333,312,310,1
307,329,309,309,1
305,324,306,308,1
305,319,304,307,1
306,315,304,308,1
306,312,304,309,1
305,309,304,309,1
305,306,304,309,1
304,304,305,309,1
304,302,307,309,1
304,301,307,309,1
306,298,307,310,1
308,296,306,311,1
310,294,305,311,1
311,292,304,311,1
312,290,302,310,1
313,289,300,309,1
315,291,300,309,1
319,295,301,309,1
324,298,302,310,1
328,301,302,311,1
331,303,302,312,1
332,306,301,312,1
328,311,302,313,1
320,318,303,313,1
312,325,305,313,1
306,331,307,311,1
304,333,308,310,1
306,332,309,307,1
309,328,310,305,1
313,323,311,303,1
317,317,312,301,1
319,310,310,300,1
319,303,307,300,1
318,297,305,301,1
316,293,305,304,1
315,291,306,308,1
313,292,306,310,1
308,293,305,310,1
302,290,302,310,1
296,287,301,309,1
292,283,303,308,1
291,284,308,309,1
291,290,312,310,1
294,298,314,311,1
298,306,315,312,1
304,311,314,311,1
306,312,310,309,1
305,308,304,306,1
303,305,301,304,1
303,303,300,304,1
304,303,303,304,1
306,305,306,305,1
308,308,307,305,1
310,310,305,305,1
312,310,302,305,1
311,308,301,304,1
310,307,301,303,1
308,308,303,302,1
307,312,304,302,1
308,317,304,303,1
310,320,303,304,1
311,321,304,304,1
312,322,305,304,1
313,325,306,304,1
315,326,306,305,1
317,325,305,305,1
320,321,305,305,1
322,318,306,305,1
325,316,310,305,1
330,316,315,306,1
334,316,318,307,1
337,316,319,308,1
333,315,316,306,1
326,315,309,305,1
316,315,302,302,1
307,316,298,301,1
299,316,297,301,1
293,315,299,303,1
290,314,303,304,1
290,315,306,306,1
291,315,308,308,1
293,315,309,311,1
295,315,309,312,1
297,314,308,313,1
297,312,307,313,1
297,309,305,311,1
296,308,304,309,1
295,308,301,307,1
292,308,298,305,1
293,306,296,304,1
296,303,296,304,1
302,302,297,307,1
309,305,301,311,1
314,308,305,313,1
317,313,307,315,1
316,318,310,315,1
314,322,313,316,1
314,324,315,315,1
316,323,316,315,1
319,320,316,314,1
319,317,313,313,1
315,315,311,312,1
309,313,308,310,1
304,309,305,309,1
301,303,301,308,1
300,297,298,308,1
300,290,294,308,1
300,284,291,309,1
301,280,290,311,1
303,278,291,313,1
305,281,295,315,1
307,287,301,316,1
309,293,307,315,1
310,299,310,314,1
310,305,310,311,1
310,310,307,309,1
308,312,303,306,1
306,312,298,305,1
304,311,293,304,1
302,308,289,303,1
299,305,286,303,1
297,303,286,302,1
293,303,287,302,1
289,303,289,303,1
287,302,294,306,1
287,301,300,310,1
289,301,306,313,1
296,304,311,316,1
304,311,314,316,1
312,318,315,316,1
318,325,313,315,1
318,329,311,313,1
316,329,308,310,1
312,326,307,308,1
309,320,308,307,1
310,313,309,307,1
313,307,308,307,1
317,302,306,308,1
321,299,305,311,1
323,297,304,314,1
321,297,304,316,1
316,299,303,316,1
311,307,303,315,1
306,316,306,316,1
304,324,310,316,1
306,328,315,318,1
310,329,321,318,1
315,328,328,317,1
318,324,334,316,1
320,318,335,315,1
318,312,332,313,1
314,308,326,312,1
309,308,321,312,1
307,310,316,311,1
306,311,313,310,1
305,311,309,308,1
301,310,304,304,1
296,308,299,300,1
288,305,296,297,1
280,302,295,296,1
275,300,296,296,1
273,299,298,299,1
275,298,300,304,1
280,300,303,308,1
285,302,306,312,1
290,303,307,314,1
293,303,307,315,1
297,303,308,316,1
299,303,310,315,1
301,301,312,313,1
302,300,312,310,1
302,297,311,308,1
302,293,308,306,1
301,289,304,305,1
301,286,297,303,1
300,285,293,303,1
300,287,292,304,1
300,291,295,306,1
302,298,301,309,1
305,304,308,312,1
309,309,311,314,1
311,311,311,315,1
311,311,310,315,1
310,311,310,314,1
308,310,312,311,1
306,308,314,310,1
305,307,314,308,1
304,307,312,306,1
305,307,309,306,1
306,306,307,308,1
307,306,307,310,1
309,305,308,312,1
313,307,311,314,1
318,309,313,315,1
320,313,315,315,1
320,315,315,315,1
319,317,314,314,1
318,317,311,313,1
318,317,307,312,1
319,317,304,312,1
320,315,302,312,1
320,313,302,312,1
317,312,304,312,1
312,314,307,312,1
308,318,311,311,1
306,321,314,311,1
305,322,316,311,1
306,321,316,309,1
307,320,316,308,1
309,319,314,308,1
311,317,312,308,1
311,315,310,308,1
307,312,311,309,1
303,309,312,313,1
301,308,314,316,1
298,308,316,317,1
296,307,317,317,1
294,306,319,316,1
292,306,317,314,1
291,308,312,312,1
292,309,307,310,1
296,309,304,309,1
300,309,302,308,1
303,309,302,307,1
305,310,301,306,1
306,310,302,305,1
307,311,304,305,1
308,311,305,305,1
307,310,304,305,1
305,306,304,304,1
304,302,304,303,1
304,300,309,303,1
305,300,319,305,1
308,304,333,310,1
311,311,341,315,1
312,318,339,316,1
310,320,328,314,1
308,318,314,311,1
305,311,301,309,1
303,303,291,308,1
302,299,285,309,1
305,299,284,311,1
310,302,285,313,1
315,305,288,314,1
320,307,290,314,1
323,308,294,316,1
323,306,297,317,1
320,303,302,320,1
316,301,306,322,1
312,301,312,323,1
309,301,317,322,1
307,303,321,320,1
305,307,324,316,1
304,313,326,312,1
303,317,324,308,1
303,319,321,305,1
303,317,317,303,1
305,314,314,303,1
309,311,313,306,1
313,309,312,310,1
318,307,311,314,1
320,306,310,318,1
319,305,310,324,1
317,304,311,328,1
313,303,312,329,1
308,303,314,328,1
303,303,317,325,1
296,302,318,318,1
288,299,314,312,1
282,296,307,307,1
280,296,302,305,1
282,299,301,306,1
289,304,305,309,1
299,310,311,312,1
310,315,317,314,1
316,317,320,314,1
317,316,320,312,1
313,314,315,309,1
308,315,311,307,1
303,320,309,306,1
300,326,309,307,1
297,330,313,309,1
297,330,319,310,1
296,327,324,312,1
297,324,325,313,1
297,322,321,313,1
297,320,316,314,1
297,316,311,314,1
297,311,307,314,1
299,305,305,313,1
300,299,303,311,1
301,293,302,311,1
302,287,301,310,1
302,283,301,310,1
302,281,301,307,1
302,281,299,303,1
302,284,298,300,1
304,291,300,298,1
307,299,304,298,1
311,306,307,300,1
312,311,309,302,1
313,315,311,305,1
314,318,310,309,1
317,319,308,312,1
319,319,306,315,1
323,317,304,317,1
329,313,302,317,1
334,308,301,316,1
337,302,300,315,1
338,297,301,314,1
337,295,303,314,1
332,294,304,313,1
325,295,303,311,1
316,298,302,309,1
308,302,302,307,1
303,306,304,306,1
299,311,306,305,1
297,314,308,304,1
297,316,311,303,1
300,317,314,303,1
306,318,315,303,1
314,318,315,302,1
321,318,315,302,1
324,319,315,301,1
324,317,314,301,1
320,316,313,302,1
312,314,310,302,1
302,313,309,302,1
293,312,311,302,1
288,311,314,302,1
285,310,316,302,1
285,307,316,303,1
286,306,315,303,1
288,304,314,304,1
293,305,311,306,1
299,308,309,308,1
303,310,307,309,1
306,312,307,310,1
307,313,308,312,1
307,313,308,313,1
306,311,308,314,1
304,308,306,313,1
303,305,305,312,1
302,302,302,310,1
301,300,300,307,1
299,299,298,305,1
297,299,298,305,1
298,300,299,306,1
300,300,300,308,1
299,298,301,310,1
296,293,301,310,1
294,288,300,309,1
294,285,299,307,1
297,285,298,306,1
299,287,297,305,1
302,291,295,304,1
305,295,294,304,1
307,302,295,305,1
311,311,298,306,1
315,319,301,309,1
317,324,305,310,1
317,325,309,311,1
315,326,313,311,1
311,328,315,310,1
307,330,317,308,1
304,331,315,307,1
302,329,311,307,1
302,323,307,309,1
302,313,304,310,1
300,302,301,310,1
298,292,298,309,1
296,287,297,307,1
295,288,298,307,1
294,291,300,306,1
293,291,300,305,1
292,290,299,304,1
292,288,297,304,1
292,286,296,305,1
294,287,295,308,1
298,292,297,313,1
305,303,303,317,1
315,313,311,319,1
325,318,318,321,1
334,319,324,322,1
341,317,330,323,1
343,313,334,323,1
339,306,334,320,1
330,298,331,316,1
322,291,328,313,1
313,288,325,311,1
307,287,318,308,1
303,289,309,306,1
299,293,303,304,1
297,297,299,301,1
293,301,297,299,1
291,305,296,297,1
288,308,296,297,1
287,308,297,297,1
286,308,301,299,1
287,308,306,302,1
290,308,311,306,1
295,309,312,309,1
302,309,311,311,1
309,309,307,312,1
315,308,304,314,1
319,307,302,315,1
320,306,301,316,1
316,304,301,316,1
310,303,300,315,1
304,302,299,314,1
298,302,296,312,1
294,302,293,309,1
292,303,291,307,1
290,305,290,305,1
289,306,292,303,1
291,309,296,302,1
295,312,302,303,1
301,316,308,305,1
308,321,313,308,1
312,324,318,311,1
314,327,321,311,1
313,328,320,311,1
309,326,315,309,1
305,321,310,307,1
303,316,305,307,1
302,312,302,308,1
301,307,300,309,1
298,303,299,308,1
297,300,298,307,1
296,299,298,306,1
296,301,299,305,1
297,305,301,305,1
299,308,304,306,1
301,311,305,306,1
302,313,305,306,1
302,315,304,306,1
300,315,302,306,1
299,314,299,307,1
298,312,298,308,1
298,310,298,310,1
300,313,300,312,1
306,318,305,315,1
313,320,310,318,1
319,321,314,319,1
324,319,316,320,1
326,317,317,320,1
325,315,319,319,1
323,313,321,318,1
319,310,322,318,1
316,307,323,317,1
312,302,322,316,1
309,296,320,314,1
306,292,315,312,1
304,289,308,311,1
302,289,302,309,1
302,289,298,307,1
302,290,299,307,1
303,292,305,309,1
306,297,313,311,1
310,304,318,312,1
315,309,316,312,1
319,311,311,312,1
320,311,305,310,1
320,310,299,309,1
320,309,297,308,1
320,310,299,308,1
319,311,303,308,1
316,311,305,309,1
311,312,304,308,1
307,313,301,306,1
306,313,298,305,1
304,313,295,303,1
300,313,293,303,1
297,314,292,304,1
296,316,292,304,1
298,318,291,305,1
300,320,291,305,1
301,320,292,305,1
301,320,295,305,1
301,319,299,306,1
300,316,304,307,1
300,310,307,308,1
301,305,308,309,1
300,301,307,309,1
298,299,304,307,1
295,299,302,304,1
293,300,300,304,1
293,304,300,304,1
293,307,302,306,1
294,310,303,309,1
297,312,304,312,1
301,313,303,313,1
303,311,302,313,1
306,308,303,313,1
306,305,303,312,1
305,303,303,311,1
304,302,301,310,1
302,304,300,310,1
301,307,300,309,1
301,308,301,309,1
301,309,303,309,1
300,307,305,308,1
300,304,307,307,1
299,302,307,306,1
298,301,306,304,1
298,300,303,302,1
298,299,300,301,1
300,300,299,303,1
305,303,300,305,1
309,305,300,307,1
312,308,299,309,1
311,309,298,309,1
308,309,298,308,1
303,309,299,307,1
303,310,301,308,1
306,314,306,310,1
312,319,311,312,1
315,323,316,313,1
318,324,322,313,1
317,322,328,313,1
314,317,333,313,1
309,311,332,311,1
305,304,326,310,1
304,298,316,308,1
305,294,308,307,1
309,294,304,307,1
313,297,304,307,1
316,300,306,308,1
316,303,306,307,1
315,305,303,305,1
311,305,298,303,1
308,304,295,301,1
306,304,293,301,1
304,304,292,301,1
303,304,291,301,1
302,302,290,300,1
300,299,291,300,1
300,297,295,300,1
302,297,302,301,1
306,299,307,303,1
311,302,309,305,1
314,304,309,308,1
316,306,308,310,1
316,309,307,312,1
317,312,306,312,1
318,316,304,312,1
320,319,304,312,1
322,319,303,310,1
323,318,304,308,1
324,317,305,305,1
322,314,306,304,1
316,310,305,303,1
309,306,304,304,1
302,303,303,304,1
297,300,302,304,1
293,297,301,305,1
290,295,299,305,1
289,293,297,305,1
290,294,298,306,1
293,298,302,307,1
297,301,307,306,1
299,302,311,305,1
301,301,312,304,1
303,303,310,304,1
306,306,310,305,1
309,312,310,308,1
311,318,311,310,1
312,324,310,312,1
312,326,310,313,1
314,325,308,313,1
317,320,307,313,1
322,314,306,313,1
327,307,305,313,1
327,299,304,313,1
324,294,303,312,1
319,293,303,310,1
313,296,302,308,1
309,302,301,306,1
305,308,299,303,1
300,310,297,300,1
295,309,297,299,1
296,307,298,301,1
299,305,299,304,1
303,303,300,305,1
304,301,300,306,1
303,298,302,308,1
303,297,308,310,1
302,297,318,311,1
302,297,329,311,1
301,297,331,308,1
300,298,324,304,1
299,299,312,299,1
297,300,301,295,1
296,300,295,292,1
296,301,292,290,1
297,303,292,291,1
300,306,293,293,1
303,309,293,295,1
304,311,293,297,1
304,313,293,299,1
303,314,291,300,1
302,312,289,301,1
303,308,288,303,1
306,305,288,307,1
310,304,290,310,1
313,303,293,314,1
316,304,297,317,1
316,306,298,318,1
313,308,298,318,1
310,309,297,316,1
309,307,296,315,1
309,306,296,313,1
310,304,297,311,1
310,304,299,310,1
308,305,303,309,1
307,307,306,310,1
306,309,310,311,1
305,310,313,312,1
304,312,316,311,1
303,312,317,309,1
302,312,318,307,1
302,312,316,304,1
301,312,312,303,1
300,311,309,301,1
301,310,307,302,1
304,309,308,304,1
308,308,313,307,1
313,307,317,309,1
315,307,317,311,1
316,308,314,312,1
314,311,311,312,1
311,313,308,312,1
309,314,306,313,1
308,314,306,314,1
310,315,306,315,1
316,315,305,316,1
322,314,304,316,1
327,312,304,316,1
329,311,306,315,1
328,311,308,315,1
326,312,311,315,1
322,313,311,314,1
316,314,307,313,1
311,314,301,312,1
307,312,297,310,1
304,308,295,309,1
303,307,296,309,1
304,306,298,310,1
305,306,302,310,1
306,305,303,311,1
307,303,305,311,1
307,301,305,310,1
307,298,304,309,1
306,296,302,307,1
305,294,301,305,1
304,294,299,302,1
301,293,297,300,1
298,292,296,298,1
294,293,296,297,1
290,293,295,295,1
288,295,295,294,1
286,299,296,295,1
286,304,298,297,1
290,310,301,298,1
295,314,303,301,1
301,314,307,304,1
307,311,311,307,1
311,305,315,310,1
313,297,317,311,1
310,289,313,311,1
307,284,308,310,1
304,283,304,310,1
302,286,300,311,1
299,290,299,312,1
297,292,299,314,1
295,294,300,315,1
293,294,301,315,1
294,295,301,315,1
297,298,302,316,1
302,304,302,317,1
305,312,302,318,1
309,319,302,318,1
310,323,301,318,1
309,323,299,316,1
308,321,298,314,1
306,318,296,312,1
305,315,296,311,1
306,313,297,310,1
307,313,298,311,1
309,314,299,311,1
311,316,298,310,1
311,316,296,308,1
309,316,293,305,1
306,316,291,302,1
303,320,293,299,1
300,326,298,298,1
298,331,301,297,1
297,333,300,297,1
297,331,300,299,1
299,327,300,302,1
303,322,301,305,1
306,317,303,308,1
310,314,304,311,1
311,313,305,312,1
312,313,306,314,1
314,317,307,316,1
314,323,309,318,1
314,328,310,318,1
314,330,312,318,1
315,327,312,316,1
316,322,312,315,1
317,315,309,314,1
318,308,305,312,1
319,302,302,310,1
319,298,299,307,1
318,293,298,306,1
318,289,299,304,1
319,288,301,304,1
318,290,302,304,1
316,295,304,306,1
314,301,305,308,1
310,306,307,309,1
306,308,307,309,1
301,308,307,309,1
297,307,306,308,1
294,305,305,304,1
292,304,303,301,1
291,303,301,297,1
291,302,299,295,1
292,301,297,294,1
294,301,296,294,1
297,301,296,296,1
304,302,297,300,1
314,305,300,304,1
323,309,304,307,1
331,314,309,309,1
334,317,316,311,1
330,317,322,311,1
321,317,326,311,1
310,316,329,310,1
300,315,330,310,1
291,313,326,310,1
284,313,318,310,1
280,311,311,310,1
276,307,308,310,1
276,302,308,309,1
278,297,308,309,1
282,294,306,308,1
287,293,302,308,1
292,294,299,309,1
297,299,297,308,1
301,304,295,307,1
305,308,293,304,1
307,309,291,303,1
308,309,291,301,1
308,309,292,301,1
307,308,291,303,1
307,308,290,305,1
306,308,289,306,1
307,306,288,307,1
307,304,288,307,1
308,300,288,307,1
308,296,290,306,1
306,293,292,306,1
304,291,295,307,1
302,290,298,307,1
301,291,301,308,1
302,292,303,308,1
302,294,305,307,1
301,295,306,305,1
300,299,307,304,1
298,304,308,304,1
297,308,309,304,1
297,308,309,304,1
300,308,310,305,1
305,308,311,306,1
310,309,312,307,1
315,310,313,308,1
320,311,312,309,1
324,313,311,311,1
327,315,309,313,1
327,318,307,315,1
324,319,305,316,1
318,318,303,315,1
313,314,302,314,1
311,311,303,314,1
311,309,306,313,1
312,308,310,313,1
314,308,313,313,1
313,307,313,311,1
308,302,310,308,1
301,295,306,304,1
295,289,302,301,1
292,288,299,300,1
290,289,298,299,1
289,292,299,299,1
289,294,301,300,1
291,299,306,302,1
295,303,311,305,1
300,305,314,307,1
303,307,314,308,1
307,310,313,310,1
310,313,311,312,1
310,312,309,312,1
306,311,308,311,1
301,307,310,310,1
297,302,312,309,1
294,297,310,308,1
294,296,305,307,1
298,300,302,307,1
304,308,302,308,1
308,315,303,308,1
308,319,304,307,1
306,321,303,305,1
303,319,302,303,1
301,315,302,301,1
298,310,303,302,1
296,306,303,304,1
294,305,302,309,1
294,308,301,313,1
296,314,301,317,1
298,319,304,318,1
300,322,309,317,1
303,322,313,315,1
307,321,315,315,1
313,319,314,315,1
318,317,312,313,1
321,312,308,311,1
320,307,306,308,1
317,303,306,307,1
312,300,307,308,1
307,300,309,309,1
301,301,311,310,1
296,302,313,310,1
294,303,315,310,1
294,304,315,310,1
296,304,313,310,1
299,305,310,310,1
303,307,307,309,1
307,311,305,309,1
311,315,305,310,1
315,318,307,312,1
319,319,308,314,1
323,317,309,315,1
327,316,308,316,1
326,315,307,314,1
322,313,304,313,1
316,311,302,311,1
311,311,301,311,1
305,311,300,311,1
300,310,298,310,1
297,306,296,309,1
295,301,294,307,1
294,298,293,305,1
293,296,293,303,1
293,294,295,303,1
293,294,297,303,1
295,293,298,305,1
296,293,300,306,1
299,294,302,307,1
301,294,305,309,1
304,294,306,310,1
307,293,306,311,1
312,293,304,312,1
317,294,304,313,1
322,294,304,314,1
325,296,303,315,1
325,297,304,315,1
317,296,305,313,1
304,294,305,308,1
292,294,303,304,1
284,297,301,302,1
281,301,299,301,1
280,304,297,301,1
281,303,297,301,1
282,301,297,300,1
283,299,298,300,1
284,298,300,301,1
285,300,304,302,1
287,304,307,304,1
288,309,306,305,1
287,311,302,306,1
286,312,297,307,1
287,311,293,307,1
289,310,291,308,1
292,310,292,309,1
297,314,296,311,1
303,319,302,313,1
308,320,306,315,1
309,319,309,315,1
310,317,311,314,1
309,313,315,313,1
309,309,320,313,1
311,309,323,312,1
312,311,323,311,1
314,314,319,308,1
317,315,313,306,1
318,315,308,303,1
316,314,305,300,1
313,314,304,298,1
309,313,305,298,1
307,312,306,299,1
306,311,308,302,1
306,311,308,303,1
305,313,306,304,1
304,315,304,303,1
304,317,303,304,1
304,317,303,305,1
306,317,303,306,1
308,315,303,306,1
309,314,302,306,1
309,311,302,304,1
308,309,302,301,1
306,308,302,299,1
305,310,302,299,1
305,313,302,301,1
306,317,303,303,1
306,317,303,305,1
305,315,303,307,1
304,310,303,309,1
303,305,305,313,1
303,300,308,315,1
300,297,308,315,1
298,296,306,314,1
297,296,303,313,1
299,297,301,312,1
301,299,301,312,1
304,301,301,313,1
309,303,301,313,1
314,305,301,312,1
320,308,301,311,1
326,310,301,308,1
331,313,300,305,1
335,317,301,305,1
335,321,302,306,1
332,323,304,308,1
327,321,304,309,1
321,315,303,311,1
314,306,300,310,1
306,296,296,308,1
297,289,293,306,1
288,286,291,304,1
282,285,291,303,1
279,286,292,303,1
280,288,295,304,1
282,292,298,305,1
285,295,300,305,1
288,297,302,306,1
288,297,303,305,1
288,296,303,305,1
287,296,302,305,1
289,297,303,305,1
294,300,305,306,1
300,301,306,307,1
306,301,306,306,1
309,300,304,306,1
310,298,303,306,1
310,298,303,306,1
311,299,303,308,1
312,300,304,309,1
313,300,305,311,1
311,300,305,312,1
309,301,307,312,1
306,305,307,311,1
303,312,309,311,1
301,317,309,309,1
300,319,310,307,1
301,318,310,306,1
302,316,310,305,1
306,314,311,305,1
311,313,311,307,1
314,313,311,308,1
316,312,310,308,1
315,312,309,306,1
313,311,308,305,1
311,310,306,304,1
309,310,305,303,1
307,308,304,303,1
305,307,305,303,1
304,305,306,304,1
302,306,308,306,1
303,307,310,308,1
303,310,310,309,1
305,313,309,309,1
308,313,307,309,1
311,313,308,309,1
314,313,309,309,1
315,313,310,309,1
314,312,310,309,1
313,314,311,309,1
313,316,311,310,1
312,317,310,309,1
310,317,309,307,1
308,316,309,307,1
307,315,309,308,1
307,314,310,310,1
306,313,310,311,1
306,313,310,312,1
306,313,309,311,1
305,313,309,311,1
304,314,308,310,1
302,314,306,310,1
301,313,306,310,1
300,312,307,310,1
301,312,308,311,1
303,312,310,311,1
305,313,312,312,1
306,313,311,312,1
305,310,309,310,1
304,307,307,308,1
305,305,308,306,1
307,304,313,306,1
312,305,321,307,1
317,305,331,309,1
319,305,339,310,1
319,305,339,311,1
317,306,330,312,1
312,306,319,310,1
305,307,310,308,1
299,308,304,307,1
294,309,301,305,1
291,310,299,305,1
289,311,301,305,1
287,310,304,304,1
287,308,303,303,1
288,304,299,301,1
291,301,295,301,1
297,298,294,302,1
304,295,294,304,1
309,292,294,305,1
312,292,296,306,1
313,293,297,306,1
312,296,299,306,1
308,298,299,305,1
303,300,300,304,1
299,300,300,301,1
298,301,303,298,1
299,303,307,296,1
300,304,312,296,1
302,305,313,299,1
305,308,311,303,1
309,313,310,307,1
316,317,310,312,1
320,320,311,315,1
318,321,312,316,1
310,320,310,314,1
301,317,308,312,1
294,312,307,310,1
289,305,305,308,1
288,298,305,306,1
289,294,305,306,1
291,293,304,306,1
295,293,303,308,1
297,295,302,309,1
299,295,301,309,1
301,293,300,308,1
301,288,298,307,1
300,282,293,305,1
301,276,288,303,1
302,274,284,301,1
304,277,285,300,1
306,284,289,300,1
310,291,294,301,1
313,297,298,301,1
316,301,301,303,1
319,304,304,305,1
323,306,308,308,1
328,309,310,310,1
330,310,311,312,1
329,309,310,313,1
323,308,308,312,1
317,308,307,312,1
314,311,308,312,1
313,316,310,312,1
314,320,312,311,1
315,322,313,310,1
315,321,313,308,1
313,318,311,306,1
310,313,308,304,1
306,307,304,303,1
303,302,302,302,1
300,298,299,302,1
297,297,298,302,1
295,299,299,303,1
295,304,302,305,1
295,310,307,307,1
296,315,311,307,1
299,320,315,309,1
304,323,318,310,1
309,324,318,310,1
314,321,316,309,1
318,316,314,307,1
319,310,311,305,1
318,304,309,304,1
315,301,310,303,1
310,299,316,304,1
306,299,324,303,1
302,300,328,302,1
299,303,326,301,1
299,305,319,300,1
299,307,312,300,1
300,308,306,300,1
301,307,304,300,1
302,306,303,300,1
302,303,302,299,1
300,302,299,299,1
298,302,297,299,1
294,304,295,299,1
290,305,296,299,1
286,304,298,299,1
283,303,300,300,1
284,303,303,302,1
288,304,307,304,1
295,306,311,306,1
303,305,312,307,1
310,304,311,307,1
315,304,310,307,1
319,306,309,306,1
322,309,310,304,1
323,313,310,303,1
321,315,310,301,1
317,315,308,298,1
312,313,305,295,1
308,310,304,295,1
306,309,304,297,1
307,308,305,301,1
309,306,305,303,1
312,304,305,304,1
313,304,305,305,1
314,305,309,307,1
315,307,314,309,1
317,309,321,310,1
317,311,328,310,1
314,312,329,309,1
309,313,326,307,1
305,314,322,307,1
304,313,320,308,1
304,312,319,309,1
307,311,320,312,1
310,310,319,315,1
310,310,316,317,1
307,310,311,316,1
303,312,307,314,1
300,314,304,311,1
299,317,301,308,1
300,318,300,307,1
304,320,299,306,1
309,322,299,306,1
314,325,300,306,1
317,326,300,307,1
319,326,301,307,1
321,324,302,308,1
321,320,302,308,1
320,316,302,308,1
317,312,303,308,1
314,308,304,308,1
308,306,306,307,1
301,303,306,305,1
295,300,305,303,1
291,298,304,301,1
289,297,304,300,1
290,299,305,300,1
293,302,305,299,1
298,304,306,299,1
303,303,307,299,1
305,300,308,301,1
306,296,310,303,1
303,293,309,304,1
298,291,306,304,1
293,288,303,303,1
289,285,302,301,1
288,285,301,301,1
291,289,301,302,1
295,294,302,303,1
300,297,301,305,1
305,299,299,305,1
309,300,298,306,1
311,303,297,306,1
311,307,301,307,1
310,309,305,307,1
307,310,307,307,1
303,310,306,308,1
296,309,307,308,1
291,309,309,310,1
287,311,312,313,1
287,314,317,316,1
289,318,322,318,1
294,318,325,318,1
299,316,327,318,1
302,313,326,318,1
304,309,324,317,1
306,306,320,316,1
307,305,317,313,1
308,307,315,310,1
311,310,313,308,1
313,313,312,306,1
315,315,312,306,1
315,315,310,306,1
312,314,307,305,1
307,311,302,304,1
302,308,297,302,1
299,305,292,301,1
298,306,290,302,1
301,310,293,304,1
307,316,299,308,1
314,321,307,312,1
321,325,314,316,1
328,328,319,318,1
333,329,322,319,1
334,328,324,320,1
334,325,325,320,1
332,321,326,320,1
328,317,323,319,1
320,313,320,317,1
311,307,316,315,1
302,304,311,313,1
294,302,308,311,1
287,302,306,310,1
280,303,306,308,1
276,305,309,307,1
275,307,314,305,1
276,308,318,305,1
279,307,317,304,1
283,304,314,306,1
290,301,310,308,1
298,297,308,310,1
305,292,306,311,1
309,289,305,313,1
311,287,304,313,1
310,287,302,313,1
308,288,300,312,1
304,290,301,310,1
302,292,301,308,1
299,295,301,306,1
297,298,299,305,1
295,300,298,302,1
294,301,297,300,1
293,301,298,298,1
291,301,301,297,1
291,301,305,297,1
291,304,308,297,1
290,306,307,298,1
291,309,305,299,1
292,313,305,303,1
295,316,306,306,1
298,319,307,309,1
302,320,308,311,1
306,320,308,313,1
310,317,307,314,1
314,312,306,315,1
317,307,307,315,1
321,304,311,314,1
324,301,317,312,1
325,300,320,309,1
323,298,319,306,1
319,299,314,304,1
314,303,312,303,1
308,309,312,303,1
303,316,315,304,1
301,323,318,308,1
302,332,320,310,1
304,337,318,312,1
303,337,314,312,1
302,333,310,313,1
301,327,308,315,1
300,320,306,316,1
303,316,306,317,1
309,312,306,318,1
317,310,306,317,1
325,311,308,315,1
330,314,308,313,1
330,318,308,310,1
328,319,307,307,1
322,317,305,305,1
316,314,305,303,1
309,312,306,303,1
304,311,307,304,1
299,310,310,305,1
297,311,314,307,1
298,311,318,309,1
301,312,321,311,1
305,313,320,311,1
308,313,316,311,1
309,314,311,311,1
309,314,307,310,1
306,316,305,309,1
303,317,303,309,1
302,316,302,308,1
302,315,300,306,1
303,314,299,305,1
305,314,298,304,1
306,315,300,304,1
307,316,302,304,1
305,314,304,305,1
304,310,306,306,1
303,305,307,307,1
302,301,306,307,1
301,298,304,308,1
302,298,301,309,1
303,299,298,309,1
303,300,294,308,1
304,299,292,307,1
306,298,293,306,1
308,298,298,306,1
312,299,305,307,1
314,302,312,310,1
316,304,317,311,1
314,305,319,312,1
310,303,319,311,1
306,299,319,310,1
302,293,317,309,1
301,290,314,308,1
300,290,311,308,1
300,293,309,309,1
302,299,307,311,1
303,305,306,314,1
303,308,305,315,1
302,307,306,314,1
301,305,307,315,1
301,304,309,316,1
301,303,309,317,1
301,301,306,316,1
302,300,303,314,1
302,302,301,313,1
302,308,301,311,1
303,314,303,309,1
304,316,305,307,1
305,315,307,306,1
305,310,308,306,1
303,304,309,306,1
302,299,308,307,1
302,294,308,307,1
304,291,308,308,1
308,291,308,308,1
312,293,307,309,1
316,297,305,308,1
318,300,304,308,1
316,303,302,308,1
313,307,301,308,1
309,313,300,309,1
307,321,300,310,1
308,328,301,311,1
310,332,302,312,1
311,332,302,313,1
310,329,302,312,1
309,326,305,311,1
308,324,307,309,1
308,323,308,307,1
309,324,308,306,1
311,325,309,307,1
313,326,311,308,1
312,325,314,309,1
311,322,316,310,1
310,320,315,310,1
310,317,313,310,1
311,314,309,310,1
311,310,307,311,1
312,309,306,312,1
312,309,308,313,1
312,309,310,313,1
311,309,309,313,1
310,309,306,311,1
309,307,302,311,1
308,304,300,311,1
309,303,298,311,1
310,301,297,311,1
310,299,297,311,1
311,296,296,310,1
315,293,296,311,1
318,292,295,311,1
318,294,296,311,1
314,297,300,311,1
308,298,305,309,1
301,298,309,309,1
297,297,312,308,1
294,297,312,307,1
294,299,312,306,1
293,301,312,305,1
294,304,310,304,1
294,308,308,305,1
294,314,306,305,1
295,320,306,306,1
298,325,309,308,1
302,329,315,308,1
305,328,321,309,1
309,325,326,309,1
311,319,327,309,1
312,314,323,308,1
310,311,317,306,1
306,309,313,303,1
302,307,309,301,1
299,304,305,300,1
296,300,302,298,1
292,297,300,296,1
291,297,300,297,1
292,301,301,300,1
295,309,304,303,1
297,315,305,304,1
299,318,303,304,1
302,318,300,303,1
304,315,297,302,1
306,311,295,302,1
304,306,295,301,1
302,302,296,302,1
299,301,300,304,1
299,301,304,307,1
300,301,307,310,1
302,301,310,313,1
305,301,313,315,1
310,302,316,317,1
313,304,317,319,1
317,308,317,319,1
319,313,317,319,1
318,317,316,318,1
316,318,313,315,1
312,317,311,313,1
310,314,310,312,1
309,313,309,311,1
309,312,309,312,1
309,311,309,312,1
310,310,309,313,1
311,309,309,313,1
310,308,308,313,1
310,307,308,313,1
310,307,309,312,1
310,307,309,313,1
311,307,310,313,1
311,306,310,314,1
311,306,310,314,1
312,306,310,314,1
313,307,311,313,1
315,308,311,312,1
318,309,311,310,1
321,309,310,310,1
322,309,309,310,1
324,310,307,311,1
324,311,306,311,1
323,311,305,311,1
321,312,304,311,1
318,314,304,310,1
314,316,305,310,1
309,316,305,309,1
304,313,304,309,1
300,310,304,308,1
298,307,303,308,1
297,306,303,308,1
297,304,303,307,1
298,302,304,307,1
298,299,304,307,1
299,294,304,307,1
299,288,304,306,1
299,283,304,306,1
299,280,304,307,1
300,280,306,308,1
301,282,310,310,1
304,285,313,311,1
306,289,316,311,1
307,293,314,310,1
307,296,310,309,1
306,298,306,308,1
304,300,307,309,1
303,302,312,310,1
303,303,316,311,1
303,303,318,310,1
303,301,315,309,1
303,298,310,307,1
305,293,308,307,1
306,290,309,307,1
308,288,313,307,1
309,289,315,306,1
309,291,313,304,1
307,295,309,304,1
307,299,306,304,1
308,302,304,305,1
308,304,303,305,1
308,306,299,302,1
307,308,296,300,1
305,311,293,298,1
304,314,292,298,1
303,318,293,300,1
304,321,296,302,1
307,324,298,304,1
311,327,301,306,1
313,328,302,308,1
313,328,302,309,1
314,325,301,310,1
314,322,298,309,1
312,319,296,307,1
310,316,296,306,1
305,315,297,304,1
301,314,300,303,1
297,312,302,301,1
295,307,303,299,1
294,303,305,297,1
295,300,309,297,1
298,300,314,300,1
304,305,317,306,1
313,316,314,312,1
321,326,308,316,1
327,331,302,317,1
327,332,297,316,1
323,329,296,314,1
318,324,298,312,1
312,319,301,312,1
306,315,303,313,1
300,312,302,313,1
294,309,302,313,1
290,306,302,312,1
289,304,303,312,1
293,300,303,312,1
299,297,304,311,1
306,292,304,311,1
312,288,305,311,1
317,285,305,310,1
320,284,305,310,1
321,288,304,309,1
319,294,304,308,1
316,302,303,306,1
312,310,303,304,1
308,315,302,304,1
304,317,302,304,1
302,316,301,304,1
299,312,301,304,1
298,306,300,303,1
297,301,298,303,1
297,297,296,303,1
298,293,294,302,1
300,290,292,301,1
304,287,293,301,1
308,287,294,301,1
314,289,298,301,1
318,291,303,302,1
319,291,305,302,1
316,287,306,302,1
310,284,307,302,1
306,283,308,303,1
304,286,310,305,1
304,291,312,307,1
304,298,314,308,1
303,305,314,308,1
301,312,315,308,1
299,319,314,307,1
297,323,313,306,1
295,324,310,305,1
292,322,306,304,1
290,317,302,303,1
289,312,299,302,1
292,308,297,302,1
296,306,296,301,1
300,304,296,300,1
301,303,296,298,1
299,304,299,297,1
297,307,304,298,1
295,310,311,300,1
296,314,316,304,1
297,316,317,307,1
297,318,315,310,1
297,319,314,310,1
298,322,314,310,1
299,325,316,310,1
300,328,317,311,1
301,332,317,310,1
302,334,319,307,1
305,335,321,305,1
309,334,323,304,1
313,332,322,304,1
315,328,319,305,1
316,324,315,305,1
317,317,310,306,1
317,308,307,306,1
318,300,305,307,1
318,295,306,309,1
317,292,312,311,1
314,293,319,312,1
311,295,323,313,1
308,299,323,311,1
305,304,318,308,1
302,307,310,306,1
300,308,301,303,1
299,307,293,302,1
300,306,288,302,1
301,305,285,303,1
302,305,285,304,1
303,307,287,306,1
304,309,291,308,1
304,310,295,310,1
305,310,298,312,1
307,309,301,312,1
309,308,303,313,1
311,307,305,312,1
313,306,306,312,1
316,306,307,312,1
318,307,308,312,1
321,308,310,312,1
321,309,311,311,1
319,312,314,309,1
314,314,316,307,1
308,315,317,306,1
301,314,314,305,1
295,312,310,305,1
293,308,307,306,1
294,306,307,308,1
298,304,309,310,1
304,304,309,312,1
311,304,308,313,1
319,307,306,314,1
325,310,305,315,1
329,314,304,315,1
330,318,304,314,1
328,319,304,314,1
323,318,304,313,1
317,313,304,311,1
311,305,304,308,1
305,297,304,305,1
301,292,305,304,1
298,292,309,303,1
296,297,314,303,1
296,306,316,303,1
294,315,315,303,1
293,319,314,303,1
292,318,313,303,1
293,312,312,303,1
292,306,312,302,1
291,300,312,301,1
290,297,313,301,1
291,299,318,302,1
293,303,320,302,1
296,307,319,301,1
299,311,316,299,1
302,312,312,297,1
304,312,309,297,1
306,312,307,297,1
304,313,307,298,1
302,313,308,300,1
300,313,308,301,1
297,312,308,302,1
295,309,307,303,1
293,306,307,302,1
291,303,308,301,1
292,301,309,300,1
294,300,309,300,1
296,303,309,299,1
298,305,309,300,1
303,307,311,301,1
309,305,314,303,1
314,303,316,306,1
319,301,315,309,1
322,297,313,310,1
324,294,312,311,1
323,289,311,311,1
320,287,310,311,1
315,285,309,310,1
311,287,308,309,1
308,291,307,307,1
308,297,307,306,1
308,303,305,305,1
308,307,302,305,1
308,308,298,304,1
308,308,295,304,1
309,310,293,304,1
309,313,294,305,1
311,318,296,307,1
311,322,298,308,1
311,324,302,310,1
312,326,304,312,1
312,325,306,312,1
312,322,307,312,1
310,317,308,311,1
309,311,307,310,1
308,307,307,309,1
308,306,309,309,1
308,308,315,310,1
309,312,323,312,1
307,315,331,311,1
303,315,334,309,1
299,311,330,306,1
297,306,319,304,1
298,299,306,303,1
300,295,294,301,1
303,294,287,298,1
306,296,284,296,1
307,300,285,296,1
307,303,289,296,1
304,306,292,297,1
300,308,295,299,1
297,309,296,301,1
296,310,298,304,1
297,311,300,306,1
300,311,302,308,1
304,311,303,310,1
307,312,303,310,1
309,311,303,311,1
310,310,302,311,1
311,308,301,311,1
310,307,300,311,1
310,304,300,311,1
309,303,301,312,1
308,302,303,311,1
307,302,305,311,1
308,302,306,310,1
310,304,307,310,1
313,305,308,309,1
313,303,306,307,1
313,299,304,306,1
312,295,303,306,1
312,291,303,305,1
313,287,303,304,1
312,286,303,303,1
311,290,304,303,1
311,296,307,304,1
311,303,310,304,1
312,309,311,306,1
311,311,310,307,1
311,312,307,307,1
312,313,305,306,1
316,312,305,305,1
321,312,304,305,1
325,313,304,305,1
329,316,305,306,1
332,319,306,308,1
333,320,307,309,1
330,321,308,311,1
325,320,309,312,1
317,319,313,313,1
310,317,319,313,1
304,315,326,313,1
299,312,331,312,1
296,309,333,311,1
296,306,329,310,1
298,304,321,309,1
303,302,312,308,1
307,301,304,306,1
307,299,296,303,1
305,298,290,300,1
301,299,289,297,1
298,303,291,296,1
296,308,293,295,1
295,312,294,294,1
295,315,293,294,1
297,315,293,296,1
302,314,294,299,1
306,312,297,303,1
310,311,301,305,1
310,312,307,307,1
311,313,313,309,1
311,314,319,310,1
309,313,321,312,1
308,312,321,313,1
307,313,321,315,1
308,316,319,314,1
307,317,315,311,1
305,316,311,310,1
303,314,308,309,1
302,313,306,309,1
303,310,304,309,1
304,309,304,310,1
305,309,304,310,1
304,310,306,309,1
302,310,308,309,1
300,310,310,310,1
299,310,310,309,1
299,311,309,308,1
299,311,307,307,1
301,310,308,307,1
304,309,310,308,1
308,306,312,309,1
311,304,312,309,1
313,302,312,309,1
315,301,311,307,1
316,302,309,306,1
317,303,306,304,1
318,304,304,302,1
318,304,302,301,1
319,305,302,302,1
319,306,303,303,1
318,306,305,304,1
316,306,308,305,1
313,304,309,304,1
310,302,308,302,1
307,301,305,300,1
306,300,303,301,1
306,299,303,302,1
305,299,304,304,1
306,301,307,307,1
307,306,310,309,1
310,310,310,309,1
314,314,309,309,1
317,315,307,309,1
320,311,306,309,1
324,306,306,309,1
327,302,306,309,1
328,297,306,309,1
328,295,305,309,1
326,295,305,309,1
322,297,306,310,1
317,301,308,310,1
310,303,309,310,1
303,306,309,311,1
297,309,308,311,1
294,313,307,312,1
291,317,305,311,1
290,320,303,311,1
289,318,301,309,1
289,312,302,308,1
289,307,304,307,1
290,302,308,307,1
291,299,310,308,1
293,298,310,307,1
295,297,309,306,1
298,298,308,305,1
302,299,307,306,1
307,299,307,307,1
311,301,308,308,1
316,304,312,310,1
319,309,318,312,1
320,311,322,312,1
318,311,323,310,1
315,312,319,308,1
315,315,313,306,1
317,318,308,305,1
319,321,305,306,1
317,321,304,306,1
313,320,304,306,1
308,318,303,306,1
304,317,302,306,1
302,318,303,308,1
302,319,306,308,1
303,318,310,309,1
305,316,312,309,1
307,312,315,308,1
309,309,315,309,1
312,307,315,309,1
314,307,313,309,1
313,308,313,308,1
312,310,317,308,1
309,311,323,307,1
303,310,326,305,1
295,309,323,302,1
286,307,316,299,1
282,303,308,300,1
281,299,302,303,1
285,295,297,306,1
292,293,293,308,1
300,294,292,309,1
305,296,293,311,1
308,297,295,311,1
308,297,298,311,1
309,296,302,311,1
309,295,305,311,1
309,294,308,310,1
307,294,309,309,1
306,295,309,308,1
306,299,310,308,1
306,303,311,309,1
308,308,312,309,1
310,311,312,309,1
311,313,311,308,1
313,313,311,308,1
315,311,310,307,1
317,308,308,307,1
320,306,306,309,1
323,305,304,312,1
325,305,303,313,1
323,305,303,314,1
317,303,303,313,1
309,299,304,311,1
301,295,304,309,1
295,293,305,307,1
294,293,306,306,1
296,296,307,306,1
300,302,308,307,1
305,307,308,305,1
307,310,306,304,1
306,309,302,301,1
301,305,299,299,1
296,303,297,298,1
291,302,296,297,1
290,303,297,299,1
289,308,300,300,1
291,316,304,302,1
294,325,309,303,1
298,330,313,305,1
303,332,315,306,1
310,329,316,308,1
316,326,317,309,1
320,323,317,309,1
321,321,316,310,1
319,321,316,310,1
317,322,317,310,1
315,325,318,309,1
315,326,321,309,1
313,326,325,309,1
309,325,329,308,1
305,324,331,306,1
301,321,329,305,1
301,318,324,305,1
302,315,319,305,1
306,310,316,306,1
310,308,315,308,1
310,305,315,309,1
308,302,313,311,1
304,299,309,312,1
299,298,305,310,1
295,301,300,308,1
293,305,296,306,1
291,310,296,303,1
289,314,299,301,1
288,314,305,300,1
288,312,310,300,1
289,309,312,300,1
290,308,310,298,1
292,308,308,298,1
295,309,309,299,1
298,309,312,301,1
302,306,316,303,1
304,304,319,305,1
305,303,318,307,1
305,301,315,307,1
304,301,312,308,1
303,302,310,308,1
302,304,311,308,1
303,309,314,310,1
304,312,316,311,1
305,314,315,311,1
306,313,313,310,1
307,311,312,308,1
307,308,311,305,1
306,304,311,304,1
306,301,310,304,1
306,298,309,304,1
306,296,307,304,1
305,293,305,303,1
303,289,303,304,1
303,288,302,304,1
304,290,302,305,1
305,294,303,305,1
308,299,304,306,1
310,305,305,307,1
313,310,304,307,1
315,314,305,308,1
317,318,306,309,1
318,320,307,310,1
316,320,308,310,1
313,319,309,310,1
312,318,310,310,1
314,318,311,310,1
318,318,310,311,1
325,317,310,311,1
330,317,310,311,1
332,318,311,310,1
330,318,312,310,1
324,318,313,311,1
317,316,315,311,1
311,313,317,310,1
306,309,318,309,1
302,305,316,308,1
299,305,313,307,1
297,306,309,306,1
296,308,307,306,1
297,310,306,306,1
299,313,304,306,1
303,319,304,306,1
306,324,304,306,1
309,327,305,306,1
312,328,306,306,1
315,326,306,307,1
318,322,308,309,1
317,316,309,311,1
313,310,310,311,1
305,306,313,311,1
298,301,315,311,1
292,297,314,310,1
290,292,311,310,1
293,289,307,310,1
295,286,302,310,1
296,283,298,308,1
295,280,294,306,1
293,280,293,302,1
290,284,295,299,1
288,290,298,298,1
287,295,299,296,1
288,298,300,295,1
291,298,300,296,1
295,300,301,300,1
301,303,304,304,1
306,310,307,307,1
311,317,308,309,1
314,321,308,309,1
316,323,306,309,1
315,321,305,309,1
314,318,304,310,1
311,316,304,310,1
307,316,305,310,1
305,318,308,308,1
305,321,312,308,1
306,323,315,307,1
307,322,318,306,1
307,320,319,306,1
306,317,322,307,1
306,314,322,308,1
306,312,320,308,1
305,310,317,308,1
305,310,313,307,1
304,310,308,307,1
305,309,304,306,1
305,309,302,304,1
304,306,298,302,1
302,302,294,299,1
303,297,291,298,1
306,293,290,300,1
311,290,291,303,1
315,290,292,306,1
319,292,294,307,1
319,295,296,309,1
318,298,299,309,1
316,300,301,308,1
312,303,304,309,1
311,307,307,310,1
313,312,310,311,1
318,318,312,313,1
323,324,313,314,1
325,327,315,314,1
321,327,318,313,1
313,325,319,311,1
303,321,318,309,1
295,316,315,308,1
289,309,310,306,1
286,304,306,303,1
286,301,303,301,1
287,300,302,300,1
288,298,301,299,1
290,296,300,298,1
294,293,300,299,1
298,291,301,300,1
303,291,303,301,1
308,293,307,302,1
310,296,313,303,1
310,299,316,305,1
309,303,315,307,1
305,304,310,309,1
301,303,306,310,1
297,300,302,311,1
292,295,298,311,1
291,290,296,309,1
294,287,294,309,1
299,285,292,308,1
304,284,289,308,1
306,284,287,307,1
307,286,286,306,1
307,291,288,305,1
307,298,293,305,1
307,306,299,305,1
307,311,303,306,1
306,312,306,306,1
307,312,308,307,1
310,311,310,308,1
312,312,310,309,1
314,315,309,310,1
316,316,307,311,1
317,318,306,312,1
317,320,304,311,1
314,323,303,311,1
310,326,301,310,1
306,325,301,309,1
304,321,301,310,1
303,316,302,310,1
303,313,302,310,1
302,310,301,308,1
300,308,300,306,1
299,304,299,306,1
298,299,299,306,1
299,295,300,306,1
301,294,302,307,1
303,297,305,306,1
306,303,310,306,1
309,310,316,305,1
312,315,319,303,1
316,316,316,301,1
319,315,310,300,1
320,314,304,300,1
319,314,300,302,1
315,316,298,303,1
310,315,298,305,1
306,313,300,305,1
303,309,303,306,1
302,305,304,306,1
303,300,304,305,1
306,297,303,304,1
310,295,302,304,1
314,293,303,304,1
317,292,306,305,1
320,291,309,308,1
320,292,311,310,1
319,295,313,312,1
315,301,313,313,1
310,308,312,312,1
305,314,311,312,1
301,316,309,312,1
296,316,308,312,1
293,314,306,312,1
290,312,305,312,1
289,311,303,313,1
290,309,302,316,1
292,308,302,317,1
293,306,305,316,1
297,305,313,313,1
302,305,321,312,1
308,303,324,310,1
311,300,317,306,1
311,296,304,303,1
308,293,292,301,1
303,293,287,301,1
301,298,287,301,1
300,306,291,304,1
302,312,298,307,1
304,317,304,309,1
308,319,307,312,1
312,320,310,313,1
315,321,312,316,1
317,324,313,317,1
315,326,314,317,1
312,329,314,316,1
310,331,313,315,1
308,331,311,315,1
308,329,308,315,1
309,325,307,314,1
309,320,306,313,1
308,313,305,312,1
307,306,304,310,1
306,301,304,309,1
305,297,305,308,1
305,295,308,308,1
306,295,312,310,1
306,297,313,311,1
306,302,314,312,1
306,307,315,312,1
306,312,314,311,1
305,315,312,310,1
304,316,307,309,1
302,314,300,307,1
300,311,295,305,1
297,308,292,303,1
296,306,291,302,1
297,304,292,302,1
300,301,294,302,1
306,297,296,303,1
313,293,298,304,1
318,289,301,305,1
321,287,305,306,1
322,287,310,307,1
320,288,313,308,1
314,290,315,308,1
307,295,316,308,1
302,300,315,307,1
300,305,313,306,1
298,307,312,306,1
298,308,311,305,1
298,308,310,304,1
298,306,310,305,1
298,306,309,306,1
298,308,310,307,1
297,311,311,308,1
297,311,313,309,1
300,311,315,310,1
304,311,316,309,1
308,310,315,306,1
311,309,312,304,1
314,309,310,303,1
317,309,311,302,1
316,309,314,301,1
313,308,316,300,1
308,309,314,299,1
305,310,312,298,1
303,311,311,299,1
302,311,310,299,1
300,311,309,300,1
298,310,307,301,1
296,308,304,301,1
294,306,301,299,1
294,304,296,298,1
296,303,291,298,1
301,301,286,299,1
306,299,281,299,1
309,296,277,298,1
309,293,274,298,1
308,294,276,301,1
307,299,282,304,1
307,305,292,307,1
306,311,303,309,1
305,316,314,311,1
304,321,321,312,1
303,321,323,313,1
301,318,320,313,1
299,311,316,312,1
297,305,312,311,1
295,302,310,309,1
295,304,309,309,1
295,310,312,307,1
295,316,317,306,1
296,321,323,304,1
297,324,325,303,1
297,324,321,303,1
296,322,313,302,1
295,318,304,302,1
296,315,299,304,1
300,314,298,308,1
302,315,300,312,1
304,315,303,315,1
304,314,307,317,1
305,314,311,318,1
309,312,314,318,1
313,308,316,318,1
318,303,319,318,1
322,297,323,318,1
326,293,325,319,1
328,291,322,319,1
323,292,315,318,1
315,295,306,316,1
307,300,298,314,1
301,304,292,312,1
298,308,289,311,1
298,311,289,312,1
300,312,291,315,1
304,313,293,317,1
308,314,296,318,1
312,315,300,320,1
317,316,304,321,1
320,317,309,322,1
321,317,315,323,1
320,319,319,323,1
318,322,322,322,1
314,322,320,321,1
310,319,315,318,1
305,314,310,316,1
303,309,306,314,1
303,305,304,313,1
304,302,302,313,1
304,299,300,313,1
301,297,298,311,1
298,292,297,309,1
294,286,296,307,1
290,279,294,305,1
286,274,293,304,1
283,273,294,303,1
281,276,297,303,1
282,281,299,305,1
285,287,302,308,1
291,292,302,310,1
298,297,303,311,1
305,302,304,312,1
310,307,306,312,1
315,312,308,312,1
320,317,311,313,1
324,321,314,313,1
328,322,315,314,1
328,317,314,314,1
327,310,313,314,1
325,304,313,314,1
321,302,313,314,1
318,302,316,314,1
317,306,321,313,1
317,312,325,313,1
317,317,327,311,1
314,320,325,310,1
310,320,319,309,1
305,318,313,308,1
302,314,308,307,1
299,310,307,307,1
298,310,312,307,1
297,312,319,308,1
297,316,325,310,1
299,319,326,311,1
300,321,322,311,1
298,321,316,309,1
295,318,311,306,1
292,314,308,304,1
292,310,308,304,1
296,309,309,305,1
300,310,311,308,1
306,313,312,312,1
311,316,313,314,1
316,320,313,317,1
319,325,314,317,1
317,329,316,317,1
314,334,320,316,1
311,335,321,314,1
307,334,319,312,1
303,330,314,309,1
299,323,309,305,1
295,317,306,303,1
294,313,307,301,1
293,310,311,300,1
293,308,313,299,1
295,308,314,299,1
297,308,312,300,1
301,307,309,300,1
305,307,305,301,1
308,308,302,303,1
308,310,299,304,1
307,312,298,305,1
305,315,296,306,1
303,318,296,306,1
302,319,297,307,1
304,318,299,308,1
306,315,300,309,1
308,310,300,309,1
309,305,299,309,1
309,299,297,308,1
309,294,296,307,1
310,291,296,306,1
311,289,296,304,1
313,287,297,303,1
318,287,300,304,1
321,286,303,307,1
323,285,304,310,1
322,284,306,312,1
320,285,308,312,1
314,289,311,312,1
307,294,315,312,1
302,301,318,311,1
297,305,318,311,1
296,308,317,310,1
296,310,315,310,1
298,313,313,310,1
302,316,312,309,1
307,317,311,309,1
313,318,309,309,1
320,318,307,310,1
327,316,305,311,1
332,312,302,312,1
332,306,299,311,1
328,300,297,310,1
322,296,299,309,1
315,295,303,308,1
311,298,309,309,1
308,303,313,310,1
307,309,314,312,1
306,315,313,313,1
306,318,310,314,1
306,319,308,315,1
305,318,310,316,1
305,316,314,317,1
306,314,318,317,1
306,312,319,317,1
305,311,319,316,1
302,311,316,315,1
299,310,312,313,1
296,308,307,310,1
293,307,304,308,1
291,307,303,307,1
289,307,303,306,1
288,306,303,304,1
287,304,303,303,1
288,303,303,303,1
289,303,302,303,1
290,305,302,304,1
291,306,302,306,1
292,308,302,309,1
292,310,303,311,1
293,311,304,313,1
296,313,306,314,1
299,316,310,315,1
302,318,313,315,1
303,318,314,314,1
304,314,311,312,1
302,308,305,309,1
301,300,299,307,1
300,293,295,306,1
301,289,297,308,1
303,288,302,310,1
303,288,308,311,1
304,289,309,312,1
303,289,306,312,1
302,291,304,312,1
303,295,305,311,1
305,301,308,311,1
309,307,313,311,1
313,312,318,311,1
316,314,319,312,1
318,316,319,312,1
320,316,318,313,1
318,316,317,313,1
312,318,317,311,1
306,320,316,310,1
304,323,316,311,1
305,324,313,314,1
307,321,307,314,1
308,315,301,314,1
309,308,297,314,1
309,302,296,313,1
308,297,295,313,1
305,295,298,311,1
301,295,301,310,1
299,299,305,309,1
299,303,308,310,1
301,305,311,311,1
304,306,312,312,1
306,305,312,312,1
308,305,312,312,1
311,304,312,312,1
315,305,311,311,1
319,307,308,311,1
322,310,306,310,1
326,314,304,310,1
329,316,304,310,1
331,317,303,310,1
331,314,302,312,1
330,309,300,313,1
329,302,297,315,1
326,295,295,316,1
322,289,292,314,1
317,285,290,311,1
315,286,291,308,1
315,294,296,307,1
316,303,303,307,1
317,310,311,307,1
315,314,319,307,1
311,315,326,308,1
305,313,326,309,1
299,311,323,309,1
294,310,319,309,1
290,310,316,308,1
288,310,314,308,1
287,310,312,307,1
287,309,311,306,1
289,307,311,306,1
290,303,311,307,1
290,298,311,307,1
289,293,311,308,1
288,290,311,308,1
288,289,309,309,1
287,289,307,309,1
289,289,305,309,1
290,290,302,308,1
291,289,299,308,1
293,288,297,307,1
295,288,297,307,1
298,292,298,307,1
299,296,302,309,1
302,302,305,310,1
304,308,306,311,1
306,314,306,311,1
309,318,305,309,1
311,319,302,307,1
314,319,299,305,1
316,317,298,302,1
315,312,296,299,1
312,306,296,295,1
308,299,295,293,1
302,294,296,291,1
297,289,298,291,1
294,286,301,293,1
295,285,306,295,1
300,288,313,298,1
308,295,320,302,1
316,305,325,306,1
321,313,327,310,1
326,318,326,313,1
331,321,324,314,1
335,323,323,315,1
337,324,322,315,1
335,325,321,315,1
329,327,320,314,1
323,330,319,313,1
319,331,317,311,1
315,330,315,308,1
314,325,314,306,1
314,320,314,305,1
313,314,314,304,1
310,310,313,303,1
309,308,314,303,1
310,308,315,303,1
309,311,314,301,1
304,313,312,298,1
297,314,312,297,1
292,314,314,296,1
288,312,315,294,1
286,308,314,293,1
287,303,311,294,1
291,298,307,297,1
296,294,304,300,1
301,294,299,302,1
304,299,296,304,1
308,306,295,306,1
311,314,295,309,1
315,321,297,312,1
318,329,300,313,1
319,334,303,313,1
318,334,304,311,1
315,329,305,310,1
310,322,306,310,1
305,316,309,309,1
301,310,312,309,1
300,308,314,309,1
302,308,314,309,1
303,309,311,310,1
304,310,308,310,1
302,310,306,308,1
299,310,304,306,1
296,310,302,304,1
294,308,300,302,1
293,304,299,301,1
292,300,299,302,1
294,297,301,305,1
297,295,305,309,1
300,295,309,313,1
303,295,312,315,1
306,297,313,316,1
308,299,312,316,1
311,300,310,315,1
312,300,307,314,1
313,299,303,313,1
313,298,300,312,1
313,299,298,312,1
313,301,295,311,1
312,302,293,309,1
311,302,291,307,1
309,301,288,305,1
305,300,286,303,1
303,299,284,301,1
301,299,284,300,1
301,300,284,301,1
302,301,286,303,1
303,302,289,306,1
304,304,293,309,1
306,304,297,313,1
311,304,302,316,1
318,305,306,317,1
325,306,311,318,1
333,309,314,319,1
339,313,317,319,1
338,314,317,319,1
333,312,316,317,1
324,308,315,316,1
315,304,314,314,1
307,302,312,313,1
303,302,312,311,1
302,306,311,309,1
302,313,311,307,1
301,318,311,306,1
300,321,311,304,1
298,320,311,304,1
296,319,310,302,1
294,316,309,300,1
293,312,307,298,1
293,309,308,296,1
294,308,309,296,1
295,307,311,296,1
299,305,310,298,1
305,303,307,300,1
311,300,302,303,1
318,298,298,305,1
324,297,296,308,1
327,298,296,310,1
326,301,298,312,1
321,303,301,313,1
314,305,303,313,1
306,307,304,312,1
301,310,306,310,1
296,310,308,308,1
292,306,309,306,1
289,300,310,305,1
287,295,310,306,1
287,293,309,307,1
288,294,307,308,1
291,298,305,308,1
295,304,307,308,1
300,311,315,307,1
306,315,325,306,1
310,314,334,304,1
311,310,334,301,1
309,303,325,297,1
306,296,311,295,1
305,292,300,294,1
307,293,295,295,1
311,296,295,297,1
315,301,298,300,1
318,306,303,304,1
318,312,308,307,1
315,317,310,310,1
310,321,310,313,1
306,323,308,314,1
303,325,307,315,1
302,324,307,313,1
302,322,307,312,1
303,320,308,312,1
306,319,309,312,1
309,319,309,311,1
313,319,310,310,1
318,317,310,309,1
323,315,309,308,1
327,311,309,307,1
328,309,309,306,1
326,308,309,307,1
324,311,311,309,1
321,315,313,311,1
318,319,314,313,1
316,322,315,313,1
313,322,315,313,1
308,321,313,312,1
304,318,311,311,1
302,316,309,310,1
302,314,308,309,1
301,314,307,308,1
300,314,310,308,1
298,313,315,307,1
297,311,321,307,1
296,307,323,307,1
294,304,322,307,1
294,301,319,305,1
293,298,314,303,1
294,296,309,302,1
296,293,305,302,1
298,288,301,302,1
298,284,298,303,1
299,282,295,304,1
300,285,292,306,1
303,293,291,308,1
306,302,292,310,1
307,310,294,311,1
308,315,295,312,1
308,313,295,311,1
306,306,293,311,1
304,297,291,311,1
304,289,290,312,1
306,283,290,314,1
311,284,292,316,1
318,289,297,319,1
323,297,302,320,1
325,305,308,321,1
325,314,312,320,1
322,320,315,319,1
317,321,315,316,1
311,318,312,313,1
304,312,310,311,1
300,306,309,308,1
297,302,310,307,1
295,300,311,306,1
295,302,313,306,1
296,303,314,306,1
297,304,314,305,1
299,303,312,304,1
301,299,309,304,1
303,297,308,305,1
305,297,311,307,1
306,298,319,308,1
305,300,330,308,1
306,302,338,308,1
307,303,337,305,1
309,302,330,304,1
314,300,322,304,1
318,299,315,306,1
320,299,311,308,1
318,300,309,310,1
314,302,308,312,1
310,305,308,312,1
306,307,307,311,1
304,310,306,309,1
304,312,306,308,1
305,315,307,308,1
309,317,310,308,1
311,316,311,308,1
311,314,310,309,1
309,310,308,310,1
306,306,306,311,1
304,303,305,312,1
303,302,305,313,1
303,301,308,314,1
307,299,312,315,1
312,297,314,315,1
317,296,313,313,1
320,297,309,310,1
322,301,307,308,1
321,305,306,307,1
319,308,305,306,1
316,312,305,305,1
312,315,303,304,1
308,318,300,304,1
304,321,298,303,1
302,321,295,302,1
299,320,294,301,1
296,317,292,300,1
293,314,291,299,1
290,310,291,300,1
289,306,292,299,1
290,302,294,300,1
293,298,296,302,1
298,297,298,305,1
303,298,298,308,1
306,300,299,309,1
306,303,300,310,1
306,306,300,310,1
307,309,301,310,1
309,312,303,311,1
312,314,303,311,1
318,318,304,312,1
325,323,307,314,1
331,327,311,316,1
335,329,318,318,1
336,327,324,318,1
335,324,326,317,1
333,321,322,315,1
329,318,317,314,1
322,315,312,313,1
313,312,309,312,1
303,309,308,311,1
296,305,309,310,1
292,300,309,309,1
291,293,307,308,1
292,285,302,307,1
293,278,297,306,1
294,272,294,305,1
295,270,291,305,1
295,273,291,306,1
296,279,292,305,1
296,286,294,303,1
295,291,297,302,1
294,296,300,302,1
293,300,304,304,1
293,302,307,307,1
295,304,308,311,1
297,307,308,315,1
301,310,306,318,1
304,311,304,318,1
306,309,304,318,1
309,306,305,316,1
311,302,306,315,1
312,297,304,314,1
312,292,300,312,1
309,287,295,310,1
305,284,293,309,1
302,283,294,310,1
301,289,296,311,1
300,297,301,313,1
301,305,304,315,1
302,310,306,316,1
303,312,306,317,1
303,311,306,316,1
302,310,307,317,1
301,308,308,317,1
300,307,309,318,1
299,307,311,319,1
298,308,312,319,1
299,310,313,318,1
300,312,315,318,1
302,317,318,317,1
303,323,322,315,1
305,328,324,314,1
308,331,323,312,1
309,331,320,309,1
308,327,316,304,1
306,320,311,300,1
303,313,307,296,1
300,307,305,294,1
297,301,302,293,1
295,298,299,294,1
293,296,297,295,1
292,295,296,297,1
294,295,297,300,1
297,296,300,304,1
302,295,304,307,1
309,294,308,310,1
316,292,310,313,1
324,293,309,315,1
331,297,308,316,1
335,302,306,318,1
338,307,306,319,1
337,310,306,320,1
333,314,306,321,1
327,316,307,321,1
320,317,308,320,1
312,315,309,318,1
306,314,310,316,1
302,312,310,314,1
300,310,308,313,1
299,310,308,311,1
298,313,309,309,1
298,317,311,306,1
298,321,313,304,1
297,325,314,301,1
296,326,315,299,1
294,325,318,298,1
293,322,320,298,1
293,320,321,298,1
293,317,320,298,1
296,314,318,298,1
299,312,316,299,1
302,310,312,300,1
305,307,306,300,1
309,304,300,301,1
313,298,293,303,1
314,290,286,304,1
315,281,281,304,1
315,275,278,306,1
315,272,278,308,1
314,274,282,309,1
311,281,286,310,1
308,289,292,311,1
307,297,296,311,1
307,302,301,312,1
308,302,303,312,1
307,301,304,312,1
305,300,305,312,1
304,299,306,311,1
303,301,308,312,1
304,304,310,311,1
305,307,311,311,1
304,310,312,309,1
303,312,314,307,1
300,314,314,304,1
298,314,315,302,1
298,313,315,299,1
298,313,314,297,1
298,313,313,296,1
300,313,312,295,1
300,312,312,296,1
299,309,312,298,1
296,305,310,299,1
294,301,305,301,1
292,297,300,300,1
293,293,296,300,1
297,291,297,302,1
307,292,304,304,1
318,295,313,307,1
327,299,320,310,1
334,302,324,312,1
336,307,324,313,1
332,314,322,314,1
326,323,319,313,1
318,331,316,311,1
313,335,312,309,1
309,332,308,306,1
305,325,305,303,1
303,318,304,301,1
302,311,304,300,1
302,305,304,299,1
305,302,305,301,1
307,300,307,304,1
309,297,311,306,1
311,295,316,308,1
314,295,322,310,1
315,295,326,310,1
314,295,325,310,1
313,295,321,309,1
312,296,315,309,1
311,297,310,309,1
309,299,306,308,1
307,299,302,307,1
306,300,298,306,1
305,301,297,305,1
304,302,295,304,1
301,302,295,302,1
298,302,294,300,1
295,301,295,298,1
292,299,298,297,1
291,298,305,299,1
292,297,313,302,1
293,296,317,305,1
295,292,314,308,1
298,286,307,311,1
301,281,302,312,1
305,280,301,313,1
311,283,304,315,1
317,291,307,317,1
320,301,311,318,1
320,312,314,318,1
319,320,315,317,1
317,326,315,316,1
315,329,314,315,1
311,329,313,315,1
309,328,311,313,1
307,326,310,310,1
306,322,309,307,1
305,320,307,305,1
305,317,308,304,1
306,317,309,303,1
306,319,312,304,1
306,321,311,304,1
305,321,310,304,1
305,322,308,305,1
306,322,307,306,1
310,325,306,308,1
315,327,307,310,1
322,330,309,312,1
328,332,313,314,1
330,330,318,315,1
328,326,321,314,1
321,320,322,311,1
312,315,320,307,1
304,311,318,304,1
299,307,314,302,1
298,303,310,301,1
296,300,306,301,1
296,297,302,300,1
295,296,300,299,1
293,298,299,299,1
292,304,299,299,1
290,310,302,302,1
289,314,304,304,1
289,315,306,306,1
290,313,308,308,1
292,309,311,308,1
296,305,313,308,1
300,301,314,308,1
302,299,313,309,1
304,300,313,312,1
306,303,312,314,1
310,306,310,317,1
316,308,306,318,1
323,310,304,318,1
331,311,303,317,1
337,311,305,317,1
339,310,307,317,1
336,306,310,316,1
329,299,309,315,1
318,293,307,314,1
307,288,306,314,1
299,287,307,314,1
293,285,309,314,1
291,284,311,314,1
291,286,312,314,1
291,289,311,313,1
290,293,309,311,1
287,295,306,309,1
285,295,304,309,1
285,296,302,308,1
287,297,303,308,1
290,299,305,306,1
292,302,310,304,1
294,304,314,304,1
297,306,314,303,1
299,306,311,302,1
301,306,308,301,1
303,306,308,302,1
302,305,309,301,1
301,305,310,301,1
301,304,310,300,1
300,303,309,300,1
301,301,308,302,1
304,300,305,303,1
307,299,303,303,1
308,300,303,303,1
307,300,306,303,1
303,302,309,305,1
298,305,312,307,1
294,308,313,309,1
294,311,313,311,1
296,313,313,313,1
300,315,312,314,1
305,316,312,315,1
310,317,312,316,1
313,319,312,316,1
316,322,313,316,1
317,325,313,316,1
318,326,311,316,1
316,325,309,314,1
313,324,307,313,1
309,323,306,312,1
306,321,305,312,1
302,317,303,311,1
297,311,301,309,1
293,304,300,307,1
289,299,297,305,1
286,295,295,302,1
283,290,293,298,1
280,285,292,295,1
277,278,293,292,1
275,272,298,290,1
273,268,303,288,1
273,265,306,289,1
276,265,305,290,1
284,270,302,295,1
297,280,301,302,1
312,295,301,310,1
322,312,304,317,1
328,327,308,323,1
331,336,311,327,1
332,339,313,329,1
331,338,314,331,1
330,336,313,331,1
329,332,310,330,1
328,327,306,328,1
324,322,302,324,1
319,317,298,320,1
313,313,297,318,1
308,311,297,315,1
305,312,300,313,1
303,314,304,312,1
303,317,307,311,1
303,318,310,311,1
303,317,311,311,1
303,316,311,309,1
303,314,310,308,1
302,311,309,306,1
301,306,308,304,1
300,302,308,303,1
298,301,307,302,1
296,303,308,301,1
294,308,313,301,1
293,313,320,301,1
291,315,327,299,1
291,314,330,299,1
294,311,325,300,1
301,309,317,302,1
311,307,312,306,1
322,308,310,310,1
329,309,308,314,1
330,311,305,316,1
324,313,304,317,1
315,314,302,317,1
306,315,301,315,1
301,315,302,315,1
300,313,303,314,1
301,311,302,314,1
303,308,301,313,1
304,307,300,312,1
306,306,301,310,1
305,307,302,308,1
303,307,304,307,1
300,309,308,305,1
298,311,312,304,1
294,313,313,302,1
291,314,313,301,1
289,313,312,301,1
289,311,310,303,1
288,305,307,305,1
288,297,304,307,1
288,287,301,306,1
288,277,299,305,1
289,272,298,304,1
293,272,298,304,1
299,280,298,305,1
306,292,298,305,1
311,306,297,305,1
312,313,295,304,1
310,312,293,302,1
307,306,290,301,1
306,298,289,301,1
305,293,288,302,1
304,288,287,303,1
303,285,286,303,1
303,286,287,304,1
304,289,291,305,1
305,296,297,306,1
306,302,304,308,1
306,307,308,308,1
305,308,310,308,1
305,307,310,307,1
304,307,311,307,1
305,310,310,307,1
305,313,310,307,1
304,315,309,306,1
303,315,311,306,1
302,314,314,307,1
302,312,320,308,1
302,310,327,309,1
303,310,333,310,1
303,309,334,310,1
303,310,332,310,1
301,311,328,310,1
302,312,323,311,1
304,313,319,312,1
310,312,315,313,1
319,310,313,313,1
329,308,313,313,1
338,307,314,313,1
342,311,316,311,1
340,315,316,310,1
333,320,315,309,1
325,323,313,308,1
319,325,310,308,1
315,326,308,308,1
315,326,307,308,1
316,326,307,308,1
316,324,306,309,1
314,323,306,309,1
310,324,306,308,1
305,326,308,307,1
300,328,309,305,1
294,327,310,302,1
287,323,308,299,1
280,317,305,298,1
278,311,303,298,1
282,306,302,300,1
290,302,299,302,1
297,298,297,302,1
303,297,295,303,1
308,297,294,305,1
311,298,294,307,1
312,300,296,309,1
312,301,299,311,1
312,300,302,312,1
311,300,304,313,1
311,300,304,313,1
309,301,304,312,1
307,299,303,311,1
306,297,301,309,1
305,294,300,307,1
305,292,298,305,1
306,292,297,304,1
306,294,299,304,1
306,295,302,305,1
303,296,306,306,1
297,296,310,306,1
293,296,312,305,1
291,299,315,304,1
292,303,320,303,1
294,306,322,304,1
296,306,320,304,1
297,306,315,305,1
298,306,313,307,1
299,309,311,309,1
300,311,309,311,1
302,311,306,310,1
303,309,303,309,1
305,308,301,308,1
308,308,303,307,1
311,311,307,308,1
312,315,310,310,1
310,319,311,310,1
306,320,309,310,1
303,318,306,310,1
301,315,303,309,1
301,313,302,308,1
302,314,302,309,1
304,316,303,309,1
305,317,305,309,1
307,316,305,308,1
307,314,306,307,1
308,312,310,306,1
309,308,315,307,1
311,304,319,308,1
313,302,319,309,1
314,300,316,310,1
315,299,313,311,1
315,299,310,312,1
318,302,308,314,1
323,308,308,315,1
330,314,306,315,1
335,320,306,314,1
336,322,304,314,1
334,323,305,313,1
329,323,306,313,1
322,322,310,313,1
314,319,314,313,1
306,315,316,312,1
298,311,314,310,1
291,309,312,309,1
285,309,309,309,1
282,310,307,309,1
282,309,304,310,1
285,306,302,310,1
288,303,299,310,1
291,298,297,309,1
295,293,295,308,1
299,289,295,308,1
303,284,293,307,1
307,280,289,305,1
309,275,285,303,1
311,272,283,303,1
311,272,284,305,1
311,274,289,308,1
312,280,294,310,1
311,288,299,311,1
306,297,305,311,1
299,305,311,311,1
294,312,315,314,1
293,317,317,317,1
295,321,318,318,1
298,325,319,319,1
301,327,319,318,1
304,329,320,316,1
307,328,320,315,1
311,327,319,313,1
313,325,320,312,1
315,324,322,311,1
315,323,323,310,1
313,323,320,309,1
309,324,317,308,1
304,325,314,306,1
299,326,312,305,1
296,327,311,305,1
294,326,309,305,1
294,323,307,304,1
295,318,304,302,1
296,311,302,299,1
297,303,300,297,1
299,296,299,296,1
303,291,297,296,1
307,288,296,296,1
311,288,295,297,1
313,290,294,300,1
312,294,295,302,1
309,299,295,301,1
307,304,296,300,1
307,307,297,301,1
306,310,298,302,1
305,312,301,303,1
304,313,304,305,1
304,313,307,308,1
304,312,307,310,1
304,310,306,311,1
305,308,305,312,1
308,308,304,315,1
311,310,306,318,1
313,313,308,319,1
313,315,310,320,1
312,314,311,319,1
312,313,312,317,1
313,312,313,316,1
314,313,313,314,1
314,313,314,312,1
313,312,314,309,1
312,311,313,309,1
309,311,314,308,1
309,310,313,309,1
310,310,313,311,1
309,310,314,313,1
308,310,315,314,1
307,310,316,314,1
305,310,315,314,1
303,308,314,313,1
303,305,312,311,1
305,301,311,309,1
309,296,309,307,1
315,290,304,307,1
321,285,301,307,1
325,280,301,308,1
325,275,301,307,1
321,271,300,306,1
314,269,296,304,1
305,270,290,301,1
299,276,286,300,1
296,285,286,302,1
296,296,289,305,1
296,307,293,309,1
298,315,298,313,1
299,319,301,314,1
299,319,305,314,1
297,318,308,314,1
297,318,309,315,1
297,319,310,315,1
299,322,310,316,1
303,325,310,316,1
307,324,309,316,1
310,320,308,315,1
312,314,306,314,1
313,309,305,314,1
313,307,306,314,1
313,309,308,316,1
314,311,310,316,1
314,312,313,315,1
314,313,313,314,1
311,313,312,313,1
308,310,309,311,1
305,307,305,310,1
305,304,302,311,1
306,303,298,311,1
306,304,295,310,1
307,308,293,311,1
307,314,293,312,1
309,321,295,313,1
311,327,298,313,1
313,329,298,313,1
314,327,297,312,1
315,323,295,312,1
316,318,296,312,1
315,314,300,313,1
312,309,305,313,1
307,306,308,312,1
304,305,308,312,1
303,307,307,311,1
303,310,307,312,1
304,314,307,312,1
306,318,307,312,1
307,321,306,312,1
309,322,305,311,1
310,322,304,309,1
312,320,302,308,1
313,318,301,306,1
313,315,298,305,1
311,311,297,303,1
307,305,295,301,1
301,300,294,300,1
297,296,293,300,1
296,295,293,302,1
296,297,295,303,1
296,301,298,304,1
296,307,302,304,1
298,312,306,305,1
300,315,308,305,1
301,315,309,306,1
302,314,308,306,1
305,311,307,307,1
308,309,307,308,1
310,308,307,309,1
313,310,307,310,1
316,314,306,310,1
321,318,306,311,1
328,321,306,311,1
334,322,307,312,1
339,322,307,313,1
341,320,308,314,1
338,319,307,313,1
333,315,306,313,1
327,313,305,312,1
323,311,304,312,1
320,309,304,311,1
319,308,304,311,1
319,306,304,311,1
319,305,305,311,1
317,304,305,309,1
312,302,306,309,1
306,301,307,309,1
302,300,307,309,1
298,300,307,308,1
293,302,307,308,1
290,305,307,307,1
288,309,308,307,1
288,310,307,306,1
290,309,304,304,1
292,305,301,302,1
294,303,300,301,1
295,301,300,300,1
294,299,300,299,1
294,298,300,299,1
296,298,300,300,1
297,298,301,301,1
298,298,302,303,1
299,299,304,305,1
300,302,307,308,1
304,306,309,311,1
308,312,310,312,1
312,319,313,314,1
314,326,316,314,1
312,329,320,315,1
307,328,325,314,1
300,322,330,313,1
294,317,333,312,1
291,311,332,310,1
293,307,327,308,1
296,304,318,306,1
298,300,310,304,1
298,295,302,302,1
298,290,296,301,1
299,286,291,300,1
302,284,287,299,1
303,285,286,300,1
306,288,288,303,1
308,293,292,306,1
309,297,297,307,1
308,299,300,307,1
310,298,301,308,1
314,295,300,309,1
319,292,298,310,1
326,290,298,312,1
334,291,299,315,1
340,293,302,316,1
342,297,306,318,1
340,300,311,319,1
335,302,317,319,1
329,306,322,317,1
323,309,323,315,1
316,310,320,313,1
308,307,317,310,1
298,302,314,307,1
289,297,312,304,1
282,293,310,302,1
281,293,312,302,1
285,297,317,304,1
292,304,321,306,1
299,311,322,307,1
304,315,318,306,1
307,318,313,306,1
309,319,308,305,1
310,319,305,305,1
312,320,303,305,1
314,321,302,304,1
317,320,302,304,1
321,319,302,304,1
325,316,301,305,1
326,312,301,305,1
324,308,302,305,1
319,305,305,305,1
312,304,307,305,1
306,302,308,305,1
303,302,308,305,1
302,302,310,305,1
304,305,312,306,1
307,310,314,306,1
311,317,315,307,1
313,322,315,309,1
314,324,314,310,1
312,324,312,310,1
309,323,310,310,1
306,323,307,310,1
303,323,306,310,1
302,322,304,309,1
299,318,302,307,1
297,313,299,305,1
297,308,298,304,1
299,306,299,304,1
302,304,299,304,1
303,304,300,303,1
304,305,301,302,1
305,307,303,301,1
310,309,304,301,1
315,309,305,300,1
318,308,306,300,1
318,307,306,299,1
313,304,308,298,1
307,300,309,297,1
302,295,309,297,1
299,288,307,297,1
298,283,305,297,1
298,280,304,299,1
300,282,304,301,1
302,286,306,303,1
303,292,309,304,1
303,298,312,305,1
303,304,316,306,1
301,307,318,306,1
299,310,319,305,1
298,311,320,304,1
298,312,321,304,1
299,313,323,304,1
302,314,327,305,1
307,316,333,306,1
312,319,336,305,1
316,318,334,303,1
319,316,326,301,1
322,315,317,301,1
325,315,310,304,1
328,315,306,308,1
327,315,303,311,1
323,315,302,313,1
318,317,302,314,1
313,319,302,313,1
309,320,301,311,1
305,322,300,308,1
302,321,299,306,1
301,318,298,307,1
302,314,298,307,1
304,309,298,309,1
305,303,298,310,1
306,297,298,311,1
307,294,298,312,1
311,293,299,313,1
314,295,301,314,1
316,299,304,315,1
317,303,307,313,1
315,307,308,311,1
312,309,306,308,1
309,312,302,305,1
306,312,299,302,1
304,311,296,300,1
300,307,297,299,1
298,303,301,299,1
297,300,307,302,1
296,298,309,304,1
296,296,306,305,1
296,294,301,308,1
298,295,297,311,1
302,299,296,314,1
308,303,298,315,1
312,306,301,315,1
315,305,302,312,1
315,303,300,309,1
312,298,298,307,1
308,294,296,306,1
305,291,295,306,1
303,292,297,307,1
303,298,301,309,1
304,304,305,311,1
304,308,306,312,1
303,311,307,312,1
302,312,307,311,1
303,312,308,312,1
307,312,309,313,1
311,312,310,313,1
313,311,311,313,1
314,309,311,312,1
314,308,312,313,1
316,310,313,314,1
318,311,314,316,1
320,308,314,317,1
320,303,312,316,1
319,298,310,314,1
315,296,307,312,1
310,295,304,309,1
306,295,302,307,1
303,297,300,306,1
302,301,302,307,1
304,306,304,308,1
305,310,306,307,1
305,313,306,306,1
303,314,304,304,1
303,316,303,303,1
303,319,303,302,1
304,323,304,301,1
303,326,305,301,1
303,329,306,301,1
303,330,308,301,1
305,331,311,301,1
307,332,313,299,1
307,331,314,296,1
306,330,315,295,1
308,329,315,298,1
313,328,315,301,1
318,325,316,305,1
321,321,315,308,1
322,314,312,309,1
319,307,308,310,1
313,301,305,310,1
307,297,304,311,1
303,297,304,312,1
299,299,304,313,1
297,303,303,312,1
296,305,302,311,1
295,304,300,309,1
295,303,300,309,1
296,302,302,310,1
298,301,304,310,1
300,300,307,309,1
302,299,310,309,1
304,299,315,309,1
306,300,319,309,1
307,301,321,309,1
308,301,320,309,1
308,299,319,308,1
308,296,318,306,1
307,292,314,304,1
306,289,310,301,1
303,290,307,299,1
301,293,306,299,1
299,299,305,300,1
299,303,303,301,1
301,306,302,302,1
305,308,302,303,1
311,308,301,304,1
318,307,302,307,1
320,306,302,308,1
318,307,305,309,1
316,309,310,309,1
313,312,315,311,1
310,314,319,314,1
304,316,320,315,1
298,315,317,315,1
291,311,313,313,1
288,306,309,311,1
289,301,307,308,1
295,298,306,307,1
303,295,304,307,1
311,293,305,308,1
318,294,305,310,1
322,297,304,311,1
322,301,303,312,1
318,305,301,312,1
311,309,298,311,1
305,312,296,309,1
300,315,296,307,1
298,316,295,306,1
296,315,295,305,1
296,312,295,305,1
296,310,297,305,1
298,308,301,306,1
300,307,306,307,1
301,307,313,307,1
301,308,314,307,1
302,309,312,307,1
305,311,307,306,1
309,312,303,305,1
312,313,300,305,1
314,312,299,304,1
314,312,300,304,1
313,311,301,304,1
310,307,303,304,1
306,303,305,303,1
302,298,305,304,1
299,296,303,306,1
298,297,301,309,1
300,301,299,312,1
301,307,299,313,1
303,311,299,313,1
304,312,299,313,1
306,309,297,312,1
308,305,296,311,1
310,300,297,309,1
311,297,299,308,1
312,297,304,308,1
312,302,312,308,1
310,307,316,306,1
308,311,317,305,1
305,314,313,305,1
304,315,310,307,1
303,314,307,308,1
302,314,306,310,1
302,312,305,312,1
301,310,303,312,1
301,307,300,311,1
300,303,297,310,1
300,301,297,310,1
301,301,299,312,1
302,302,301,313,1
303,304,304,315,1
304,305,307,316,1
305,306,311,316,1
307,306,314,316,1
308,306,317,315,1
309,305,319,314,1
309,302,319,313,1
309,298,318,311,1
309,294,315,309,1
307,290,311,307,1
305,286,307,305,1
304,284,304,305,1
305,286,302,305,1
306,293,302,305,1
307,303,302,305,1
309,314,303,304,1
311,322,303,304,1
312,327,304,303,1
313,330,305,303,1
316,331,306,304,1
317,332,307,305,1
317,335,309,308,1
314,336,310,310,1
308,335,311,310,1
300,331,311,310,1
292,326,311,310,1
286,320,312,309,1
285,315,314,310,1
287,312,314,311,1
293,309,312,313,1
299,308,310,314,1
305,308,310,314,1
310,309,312,315,1
313,310,312,314,1
311,309,309,312,1
307,306,305,310,1
303,304,302,308,1
301,302,300,308,1
299,302,300,308,1
298,302,300,307,1
297,300,300,305,1
296,296,299,303,1
296,292,297,301,1
296,289,297,299,1
299,289,299,300,1
303,291,301,301,1
308,296,303,302,1
311,302,305,304,1
312,306,306,305,1
311,309,306,307,1
310,311,305,308,1
310,312,305,309,1
311,312,305,309,1
313,312,305,310,1
316,308,303,311,1
319,303,300,310,1
318,295,297,309,1
314,287,295,307,1
307,282,295,305,1
300,280,297,303,1
295,281,299,301,1
292,284,302,299,1
290,286,305,297,1
291,289,311,298,1
293,293,316,299,1
294,296,320,299,1
296,298,319,298,1
296,299,314,297,1
297,298,308,297,1
299,300,305,299,1
302,303,307,301,1
307,307,309,304,1
311,312,311,305,1
315,315,311,307,1
319,315,309,309,1
323,312,308,310,1
326,306,307,311,1
328,300,307,312,1
328,294,306,311,1
326,292,307,311,1
323,293,309,313,1
319,298,314,315,1
318,305,321,317,1
319,313,327,319,1
318,319,329,318,1
316,320,329,316,1
314,319,326,314,1
312,316,322,311,1
309,313,318,308,1
306,308,311,306,1
302,304,305,304,1
301,302,300,302,1
300,301,297,299,1
300,301,296,297,1
300,301,295,294,1
300,303,297,292,1
300,305,302,294,1
299,307,306,295,1
296,308,307,296,1
292,307,303,296,1
287,305,297,297,1
284,305,294,299,1
284,306,294,302,1
289,306,296,305,1
296,306,299,307,1
300,304,300,307,1
301,301,299,306,1
299,298,298,305,1
297,298,300,306,1
296,300,302,306,1
296,301,304,306,1
297,304,305,307,1
298,308,306,308,1
300,312,308,309,1
302,314,309,311,1
305,315,310,312,1
306,315,311,313,1
306,313,313,314,1
306,310,314,314,1
306,307,317,314,1
306,305,320,313,1
307,304,322,311,1
307,302,321,309,1
307,300,318,305,1
308,297,313,302,1
308,297,309,301,1
309,298,307,302,1
312,299,305,303,1
314,301,303,303,1
316,303,301,303,1
318,305,300,303,1
319,307,301,304,1
320,309,302,305,1
320,311,301,306,1
318,310,299,305,1
314,308,295,305,1
310,306,293,306,1
307,307,295,308,1
304,311,299,311,1
302,312,304,313,1
301,310,307,314,1
301,306,309,314,1
301,300,310,314,1
301,295,310,314,1
302,293,311,313,1
304,293,312,314,1
307,296,313,314,1
312,300,314,315,1
318,306,316,315,1
325,311,318,315,1
332,317,319,316,1
337,323,321,316,1
339,326,320,315,1
337,327,319,312,1
334,326,318,309,1
328,323,320,306,1
321,321,323,305,1
314,320,323,305,1
307,320,319,305,1
301,320,313,305,1
297,319,309,306,1
295,317,306,308,1
293,313,305,308,1
294,308,304,309,1
297,303,302,308,1
299,298,299,307,1
301,293,295,306,1
301,289,291,306,1
300,289,289,306,1
298,289,289,305,1
298,290,290,306,1
300,293,291,306,1
302,297,293,307,1
304,301,297,307,1
301,303,301,308,1
297,305,304,308,1
293,306,306,308,1
289,306,307,308,1
288,306,307,307,1
289,307,307,308,1
292,310,307,308,1
296,315,309,308,1
301,320,311,307,1
307,324,314,306,1
313,326,317,307,1
316,324,321,308,1
317,320,328,310,1
316,315,335,311,1
314,309,340,312,1
312,305,339,312,1
307,304,333,311,1
302,304,323,310,1
297,306,315,309,1
293,306,308,309,1
292,305,303,309,1
291,302,300,309,1
293,300,299,309,1
294,300,301,309,1
297,302,303,310,1
299,303,304,310,1
300,302,303,310,1
301,298,301,309,1
301,292,297,308,1
300,286,291,306,1
299,280,286,304,1
298,276,282,302,1
296,274,282,301,1
294,277,286,300,1
292,282,293,300,1
291,289,300,301,1
293,296,304,302,1
298,305,306,303,1
304,316,307,306,1
309,327,307,308,1
313,335,308,310,1
314,336,308,312,1
313,331,308,313,1
310,322,307,312,1
306,314,306,311,1
304,309,305,311,1
304,308,303,311,1
305,309,303,310,1
310,311,304,310,1
316,313,307,309,1
322,314,309,309,1
325,314,312,308,1
327,313,314,308,1
326,314,315,307,1
323,316,315,307,1
317,317,314,306,1
312,318,312,305,1
309,319,310,304,1
308,318,307,303,1
307,315,305,303,1
305,313,304,302,1
304,311,303,302,1
302,308,301,301,1
300,305,300,302,1
299,302,300,303,1
299,299,302,304,1
300,298,303,305,1
300,299,304,305,1
300,301,306,305,1
300,302,308,305,1
298,304,310,306,1
298,307,311,307,1
299,311,313,309,1
301,314,315,310,1
302,316,317,310,1
301,315,317,309,1
301,314,315,308,1
301,312,311,308,1
301,309,306,309,1
301,307,303,309,1
301,305,302,310,1
300,305,304,311,1
300,306,307,312,1
300,308,313,312,1
299,308,320,312,1
298,306,326,310,1
297,304,326,307,1
295,303,322,305,1
294,305,319,305,1
296,307,316,306,1
298,311,315,307,1
300,313,313,308,1
302,315,311,308,1
304,316,310,309,1
306,317,311,311,1
308,317,314,312,1
310,318,318,313,1
311,319,320,314,1
311,320,318,314,1
309,319,313,314,1
307,315,308,316,1
305,310,304,317,1
304,305,304,316,1
303,301,306,315,1
303,297,305,312,1
304,295,302,310,1
306,293,297,306,1
308,291,290,302,1
309,287,282,298,1
310,286,277,295,1
313,291,280,294,1
318,301,286,296,1
323,311,293,301,1
327,315,299,306,1
329,313,301,309,1
329,306,302,311,1
327,299,302,312,1
321,293,301,313,1
313,292,301,313,1
305,295,302,313,1
300,301,303,313,1
298,308,304,311,1
298,312,303,310,1
300,314,303,309,1
301,317,302,308,1
302,318,302,309,1
304,320,303,309,1
307,321,305,310,1
310,322,308,312,1
312,322,309,313,1
311,319,310,314,1
310,316,310,313,1
309,313,309,312,1
307,312,308,310,1
306,312,307,309,1
306,311,306,308,1
305,310,304,307,1
304,308,304,306,1
304,306,304,306,1
306,303,305,307,1
308,302,307,308,1
311,303,309,309,1
313,305,310,308,1
311,308,311,306,1
308,313,311,304,1
304,315,311,303,1
300,313,310,302,1
297,310,309,302,1
296,307,310,303,1
296,306,312,304,1
296,304,314,305,1
298,305,318,307,1
301,308,324,310,1
304,311,329,313,1
307,313,333,314,1
309,313,332,315,1
309,312,327,314,1
309,310,321,312,1
308,308,317,310,1
309,308,315,310,1
310,310,314,311,1
312,314,315,313,1
314,317,316,313,1
314,319,315,313,1
313,317,312,313,1
311,315,308,313,1
309,311,302,312,1
306,308,299,312,1
305,305,297,312,1
307,304,298,313,1
309,304,301,314,1
310,303,303,314,1
311,303,304,314,1
311,304,305,313,1
310,307,306,311,1
310,311,306,310,1
309,314,304,309,1
309,315,302,308,1
308,312,300,306,1
308,308,297,303,1
308,304,294,302,1
308,301,293,300,1
308,299,293,300,1
310,298,294,303,1
312,298,296,304,1
315,299,299,306,1
319,303,303,308,1
324,307,307,310,1
327,310,311,312,1
328,311,314,312,1
326,310,314,311,1
319,305,313,310,1
310,301,312,310,1
301,300,313,310,1
294,302,316,309,1
289,305,319,308,1
285,311,319,307,1
284,317,317,306,1
286,323,316,305,1
289,328,316,303,1
294,332,314,302,1
301,333,311,303,1
307,334,309,305,1
310,334,307,307,1
309,333,305,308,1
305,330,304,309,1
301,325,302,309,1
297,318,299,308,1
297,310,297,307,1
298,303,296,307,1
301,299,297,307,1
305,299,300,309,1
310,302,302,311,1
314,304,304,313,1
317,306,304,315,1
316,307,303,315,1
313,305,302,314,1
309,304,299,312,1
304,303,296,311,1
301,303,294,309,1
299,304,293,308,1
298,306,292,307,1
298,306,292,306,1
298,306,292,305,1
298,304,292,306,1
299,301,292,306,1
300,296,292,305,1
300,291,292,304,1
300,290,294,304,1
301,293,299,305,1
299,297,304,305,1
