333,341,315,312,0
331,337,313,312,0
328,324,312,311,0
326,307,312,312,0
323,289,312,312,0
322,277,311,313,0
322,272,311,314,0
325,272,311,316,0
329,275,311,319,0
333,286,313,321,0
338,302,315,323,0
343,318,317,323,0
346,328,317,322,0
348,334,317,322,0
348,336,316,321,0
347,337,314,319,0
344,336,313,316,0
340,334,311,314,0
335,333,309,312,0
330,329,308,310,0
327,325,308,308,0
326,322,309,309,0
327,319,311,311,0
328,320,312,314,0
330,324,312,316,0
330,328,309,315,0
327,324,305,313,0
324,316,301,311,0
324,307,300,311,0
324,300,300,310,0
325,294,301,309,0
326,288,302,310,0
327,281,303,310,0
326,275,303,309,0
326,274,303,308,0
326,277,304,308,0
328,286,304,308,0
329,299,304,306,0
331,312,303,305,0
332,320,302,303,0
332,320,301,301,0
331,313,302,298,0
331,306,303,297,0
333,300,305,298,0
334,296,308,298,0
334,296,311,300,0
335,297,314,302,0
334,298,317,305,0
332,294,318,308,0
330,283,317,311,0
327,270,316,313,0
325,261,314,316,0
325,263,313,317,0
325,274,313,317,0
326,289,313,316,0
326,304,313,314,0
327,318,313,314,0
328,330,313,313,0
332,340,314,314,0
336,347,314,314,0
340,348,315,314,0
341,342,315,313,0
339,334,316,313,0
336,329,317,312,0
333,326,317,312,0
331,323,316,311,0
329,314,316,309,0
326,299,315,308,0
324,285,314,306,0
324,283,315,306,0
326,294,315,305,0
328,305,314,303,0
328,308,310,302,0
328,305,307,302,0
328,301,306,303,0
329,301,307,306,0
330,301,309,308,0
329,296,309,309,0
327,289,308,309,0
325,285,307,308,0
323,283,306,306,0
322,283,307,304,0
323,282,307,303,0
324,277,308,304,0
327,277,308,306,0
330,288,309,309,0
334,302,312,311,0
336,314,313,311,0
335,326,313,310,0
334,339,312,309,0
334,349,312,309,0
333,352,311,308,0
332,348,310,308,0
331,340,307,307,0
329,331,305,309,0
327,321,303,310,0
324,306,301,312,0
322,293,300,314,0
322,284,300,316,0
323,278,303,319,0
325,277,306,321,0
327,276,308,322,0
329,275,310,322,0
331,276,311,320,0
333,280,312,316,0
331,278,310,311,0
326,275,308,306,0
322,281,307,303,0
320,293,308,301,0
320,305,309,301,0
320,314,309,302,0
319,322,310,302,0
320,327,311,304,0
321,329,312,306,0
323,326,312,309,0
325,321,312,312,0
327,315,313,315,0
329,310,314,317,0
331,309,315,320,0
332,315,317,321,0
331,323,318,321,0
329,326,316,321,0
326,319,312,319,0
322,307,308,318,0
321,296,305,317,0
321,288,303,315,0
322,289,303,315,0
322,295,303,315,0
322,299,303,314,0
322,294,303,312,0
322,283,304,310,0
323,281,306,308,0
323,288,307,307,0
323,302,307,306,0
321,319,306,306,0
319,329,306,305,0
318,328,306,305,0
318,322,305,305,0
319,317,304,304,0
321,311,305,305,0
323,305,305,307,0
324,297,305,307,0
325,292,306,308,0
325,291,307,308,0
324,297,307,308,0
321,304,307,308,0
319,311,307,308,0
318,315,308,308,0
319,318,308,307,0
321,321,307,305,0
326,328,307,305,0
330,332,307,306,0
334,330,308,308,0
337,326,310,311,0
337,320,311,314,0
335,312,313,315,0
330,306,316,316,0
326,302,319,317,0
324,303,321,317,0
321,307,320,315,0
320,312,316,313,0
319,313,312,311,0
319,307,308,311,0
319,298,305,310,0
319,288,304,310,0
317,279,303,309,0
317,279,304,308,0
318,289,304,308,0
320,303,302,307,0
321,312,300,306,0
324,313,300,305,0
327,313,299,305,0
329,313,300,305,0
328,311,300,304,0
325,306,302,304,0
323,300,303,306,0
321,295,305,307,0
322,288,307,309,0
323,281,310,312,0
324,278,310,314,0
324,278,310,315,0
323,279,310,315,0
323,278,310,314,0
322,273,310,312,0
322,265,309,311,0
322,256,308,309,0
323,255,309,308,0
324,260,310,308,0
325,269,312,309,0
325,282,315,310,0
324,299,315,311,0
322,310,315,312,0
320,312,313,313,0
318,310,312,314,0
316,306,310,313,0
316,304,307,312,0
316,303,306,310,0
318,304,307,309,0
322,307,310,309,0
326,313,312,308,0
328,318,310,307,0
326,322,307,306,0
324,321,306,306,0
323,319,307,307,0
323,322,309,308,0
324,326,310,308,0
325,327,312,310,0
325,324,311,310,0
324,319,309,311,0
323,314,305,311,0
321,311,302,311,0
320,311,300,312,0
318,313,300,312,0
316,317,301,312,0
316,318,302,312,0
317,317,305,313,0
320,315,307,313,0
324,310,308,314,0
327,306,308,313,0
329,303,308,313,0
330,301,308,312,0
329,298,309,310,0
326,289,308,308,0
321,277,307,305,0
318,269,307,304,0
316,273,308,303,0
316,289,310,303,0
315,308,310,303,0
316,325,310,303,0
317,337,311,304,0
320,344,311,305,0
322,343,311,305,0
321,332,309,305,0
320,320,307,304,0
321,309,307,305,0
323,302,309,308,0
326,304,312,310,0
329,310,313,311,0
329,314,312,311,0
328,314,309,310,0
326,309,305,308,0
324,304,304,307,0
323,303,303,307,0
322,307,304,307,0
320,312,303,306,0
316,314,301,305,0
315,312,301,305,0
317,307,302,307,0
320,301,304,308,0
323,291,307,309,0
327,283,309,308,0
328,281,309,307,0
327,288,308,305,0
324,299,305,304,0
320,308,304,304,0
317,312,303,305,0
315,312,303,307,0
314,313,304,309,0
315,315,305,310,0
316,317,305,311,0
318,320,304,311,0
320,322,304,311,0
320,319,303,312,0
320,312,303,311,0
318,301,303,311,0
317,290,305,311,0
318,281,307,311,0
320,277,310,310,0
322,283,313,310,0
326,301,317,310,0
330,326,320,309,0
333,344,321,308,0
333,349,320,307,0
330,345,318,305,0
326,337,316,303,0
320,331,312,302,0
316,324,310,302,0
315,317,309,305,0
315,306,309,308,0
312,293,309,309,0
308,279,309,311,0
306,271,309,313,0
306,271,311,317,0
310,278,313,319,0
315,285,312,319,0
319,292,309,317,0
322,297,307,316,0
323,307,307,315,0
323,322,306,313,0
321,340,305,310,0
321,355,306,308,0
320,358,305,306,0
316,345,304,303,0
313,328,303,304,0
311,316,305,305,0
313,308,308,307,0
314,302,309,308,0
314,295,310,309,0
313,287,309,309,0
311,280,309,310,0
311,276,310,312,0
311,274,311,314,0
313,276,311,316,0
315,283,311,316,0
317,292,311,315,0
318,302,310,314,0
319,310,311,314,0
319,314,312,313,0
319,314,313,313,0
318,312,313,313,0
318,311,312,313,0
318,308,310,312,0
317,304,307,311,0
315,299,304,309,0
313,290,301,308,0
312,281,300,308,0
311,272,300,308,0
312,265,301,310,0
314,265,302,311,0
317,272,304,312,0
320,282,306,313,0
323,291,307,314,0
323,298,307,314,0
322,301,306,314,0
318,300,305,312,0
314,299,304,311,0
312,301,303,310,0
312,309,303,308,0
313,319,304,308,0
314,327,306,307,0
314,331,307,307,0
313,333,308,305,0
313,331,309,306,0
313,324,308,308,0
312,315,309,310,0
312,309,309,312,0
313,309,309,313,0
315,313,309,315,0
318,316,309,315,0
321,314,307,314,0
324,307,305,314,0
326,295,304,312,0
327,283,302,310,0
326,276,301,308,0
323,275,300,305,0
321,272,300,304,0
318,265,303,303,0
316,260,306,304,0
315,258,309,304,0
314,260,310,304,0
316,267,309,306,0
320,280,309,308,0
323,294,308,310,0
324,306,308,311,0
321,314,307,310,0
319,320,306,309,0
317,325,307,309,0
316,326,306,309,0
316,325,306,309,0
318,328,306,309,0
321,338,306,309,0
324,345,306,308,0
325,344,305,307,0
324,339,304,305,0
324,335,303,304,0
323,335,303,304,0
322,339,303,305,0
321,343,303,306,0
322,343,304,308,0
325,341,306,310,0
328,336,308,312,0
326,328,309,313,0
323,318,311,314,0
321,307,313,315,0
319,297,314,315,0
317,284,314,315,0
315,269,313,314,0
313,259,314,312,0
313,258,316,311,0
315,268,319,310,0
316,284,319,307,0
316,302,316,305,0
315,319,312,303,0
313,327,310,301,0
312,327,309,301,0
312,327,308,301,0
313,329,307,302,0
315,335,304,303,0
319,340,302,303,0
322,340,302,304,0
323,334,303,306,0
323,327,305,308,0
322,321,306,311,0
321,313,306,314,0
318,304,304,314,0
317,300,300,314,0
318,300,298,313,0
320,301,298,312,0
322,302,300,311,0
322,299,300,309,0
321,294,301,308,0
321,290,302,308,0
322,287,304,309,0
323,288,305,310,0
322,294,304,310,0
319,304,303,308,0
316,313,302,306,0
315,318,302,305,0
314,315,302,305,0
312,306,302,305,0
309,291,302,306,0
305,276,302,308,0
304,270,303,310,0
306,275,303,311,0
310,286,303,312,0
315,297,303,312,0
318,302,303,311,0
318,299,303,310,0
314,292,303,309,0
311,288,304,310,0
311,293,306,311,0
311,305,308,312,0
313,318,309,312,0
314,326,310,311,0
316,330,311,312,0
319,334,312,312,0
322,339,314,313,0
323,341,313,312,0
321,333,312,311,0
316,324,309,310,0
312,323,307,309,0
310,329,307,308,0
309,336,308,308,0
311,336,309,307,0
313,327,310,306,0
315,308,311,305,0
317,288,310,304,0
317,274,309,303,0
315,266,306,300,0
314,265,304,298,0
313,267,302,298,0
314,272,302,301,0
315,279,304,305,0
316,286,306,308,0
317,293,305,310,0
316,298,304,311,0
316,306,303,311,0
317,312,303,311,0
317,314,303,311,0
316,311,303,312,0
313,305,304,311,0
309,296,306,312,0
307,292,308,314,0
307,300,311,315,0
308,310,311,315,0
309,319,310,314,0
312,333,308,313,0
317,351,306,310,0
320,362,306,309,0
322,356,305,308,0
322,333,304,308,0
321,309,302,309,0
321,290,300,308,0
320,281,297,307,0
319,278,296,305,0
317,279,296,304,0
317,283,297,303,0
316,290,299,302,0
316,300,302,301,0
316,311,305,300,0
315,323,307,300,0
315,333,308,301,0
316,338,308,303,0
316,333,306,304,0
315,317,303,306,0
313,297,302,307,0
311,277,302,308,0
310,266,303,310,0
310,265,305,310,0
311,272,307,311,0
310,280,308,311,0
310,288,309,310,0
312,295,310,310,0
314,301,311,309,0
317,302,312,309,0
319,299,312,308,0
319,292,311,306,0
317,289,310,305,0
315,292,309,306,0
316,298,310,307,0
318,303,310,308,0
321,304,311,309,0
323,303,311,309,0
325,305,312,308,0
324,310,313,307,0
322,314,313,306,0
319,316,313,305,0
317,314,311,305,0
314,304,309,304,0
311,286,306,304,0
308,266,306,305,0
307,254,305,308,0
307,256,307,311,0
309,268,308,313,0
313,282,309,314,0
319,296,310,314,0
325,310,311,313,0
329,323,311,312,0
329,330,309,310,0
324,328,305,307,0
317,320,302,305,0
310,309,300,303,0
307,302,300,302,0
305,296,300,300,0
303,291,299,297,0
302,286,298,297,0
301,281,299,299,0
302,277,302,303,0
303,276,304,307,0
305,282,306,311,0
307,295,307,313,0
309,312,308,313,0
310,321,307,311,0
311,321,304,308,0
312,320,301,305,0
314,317,300,305,0
316,317,300,306,0
317,322,301,307,0
320,334,303,308,0
322,343,306,309,0
323,342,309,309,0
322,334,311,309,0
320,320,312,309,0
319,305,312,310,0
318,291,312,309,0
317,280,310,308,0
317,272,309,307,0
317,267,308,305,0
316,259,308,304,0
315,253,308,304,0
315,256,309,306,0
316,268,309,307,0
317,286,309,308,0
318,306,309,309,0
318,325,311,310,0
318,338,312,311,0
317,342,312,311,0
315,333,311,310,0
312,316,309,309,0
308,298,306,308,0
306,284,303,308,0
306,274,301,308,0
306,267,300,308,0
307,264,300,308,0
309,265,302,308,0
311,270,305,309,0
314,279,308,310,0
318,291,311,310,0
321,302,312,311,0
323,313,313,311,0
325,321,313,311,0
325,326,313,310,0
323,329,312,308,0
321,331,309,306,0
319,333,306,305,0
317,336,302,305,0
317,338,300,306,0
317,338,298,308,0
318,334,298,310,0
318,326,299,311,0
318,314,299,312,0
317,301,299,311,0
314,288,300,310,0
311,276,301,308,0
308,271,301,307,0
306,271,301,304,0
306,272,300,303,0
307,279,299,304,0
308,288,298,304,0
308,295,298,303,0
307,298,299,303,0
306,301,302,303,0
306,306,305,304,0
307,310,309,306,0
307,312,312,309,0
307,314,314,311,0
306,311,316,313,0
306,305,317,314,0
308,302,320,316,0
312,309,322,319,0
316,319,324,321,0
320,321,325,322,0
321,315,323,322,0
321,308,320,319,0
320,304,317,316,0
318,302,314,313,0
316,296,311,309,0
314,293,309,306,0
313,292,308,304,0
315,295,308,304,0
318,299,309,305,0
321,306,311,307,0
323,319,313,309,0
326,336,314,311,0
325,349,313,312,0
321,350,310,310,0
316,338,306,307,0
311,320,302,305,0
310,305,301,303,0
309,295,301,302,0
308,288,301,300,0
307,284,301,299,0
306,282,302,299,0
308,287,304,301,0
311,297,306,303,0
314,308,307,306,0
318,315,309,308,0
322,313,311,311,0
324,302,311,312,0
325,285,309,312,0
323,270,307,310,0
320,261,304,308,0
316,257,302,306,0
313,257,300,304,0
310,261,298,302,0
310,271,297,301,0
311,286,297,301,0
312,300,297,301,0
312,309,296,300,0
310,313,295,300,0
308,316,296,302,0
307,319,298,304,0
306,322,301,306,0
305,322,303,307,0
305,318,305,306,0
306,315,306,306,0
307,315,306,306,0
308,316,305,309,0
311,316,305,312,0
313,313,305,313,0
314,309,306,314,0
314,305,307,314,0
313,301,307,313,0
310,298,306,309,0
310,297,306,307,0
311,294,307,305,0
313,290,309,304,0
315,289,310,304,0
317,292,312,305,0
319,301,312,307,0
321,315,313,309,0
321,327,313,310,0
319,332,312,309,0
316,331,311,308,0
312,324,309,306,0
308,310,308,305,0
305,291,308,304,0
303,276,308,305,0
303,272,309,306,0
306,279,308,306,0
310,287,305,305,0
312,291,302,304,0
311,292,297,303,0
309,288,295,301,0
306,283,293,300,0
304,280,295,302,0
303,278,300,305,0
304,277,305,309,0
308,283,311,314,0
312,291,316,318,0
314,296,318,319,0
315,303,318,319,0
316,316,318,318,0
318,334,317,316,0
319,350,318,314,0
317,357,317,312,0
313,350,314,309,0
308,332,311,305,0
304,315,308,301,0
301,309,305,298,0
300,309,303,297,0
301,312,303,296,0
303,314,303,297,0
305,314,304,299,0
307,311,304,302,0
308,306,305,303,0
309,302,306,305,0
310,302,305,306,0
310,300,305,307,0
311,303,306,308,0
313,314,306,309,0
315,327,306,310,0
314,333,305,310,0
312,325,304,311,0
309,315,303,311,0
306,309,304,311,0
306,307,306,311,0
306,307,307,311,0
305,305,306,310,0
304,304,305,308,0
305,305,304,307,0
308,311,305,307,0
310,318,305,307,0
309,322,305,305,0
307,320,305,304,0
305,313,305,304,0
304,301,304,304,0
302,287,304,304,0
304,273,305,307,0
309,261,307,310,0
313,252,307,312,0
317,252,307,313,0
319,263,307,314,0
320,285,307,314,0
320,310,308,313,0
318,329,310,311,0
315,335,311,308,0
312,330,311,304,0
308,321,308,300,0
305,313,305,297,0
303,309,301,295,0
303,312,298,294,0
302,316,296,293,0
302,320,296,292,0
304,322,297,292,0
307,324,298,293,0
311,328,301,294,0
316,332,305,297,0
320,335,307,300,0
320,335,308,302,0
318,334,308,304,0
314,331,307,304,0
310,329,306,305,0
308,330,306,305,0
306,334,306,305,0
306,337,307,304,0
305,338,306,304,0
304,333,306,304,0
304,324,308,305,0
305,312,311,307,0
307,300,314,310,0
309,286,315,312,0
308,269,313,312,0
306,256,313,311,0
306,249,312,311,0
309,251,312,309,0
312,260,312,306,0
316,275,313,304,0
319,290,314,303,0
317,301,314,301,0
314,311,312,300,0
309,317,309,300,0
305,315,307,302,0
302,305,304,303,0
300,294,302,305,0
298,287,301,305,0
297,286,299,305,0
297,290,300,307,0
300,295,303,310,0
303,302,305,311,0
304,305,305,311,0
306,307,305,309,0
308,312,305,307,0
309,315,303,304,0
308,314,302,302,0
308,313,302,302,0
307,312,302,302,0
307,313,303,304,0
308,316,303,307,0
311,319,303,309,0
314,322,304,310,0
317,323,305,311,0
319,323,306,312,0
321,326,308,313,0
323,331,309,313,0
323,335,309,312,0
320,336,309,310,0
317,334,310,310,0
318,337,313,312,0
321,349,317,315,0
325,356,322,317,0
326,346,322,318,0
323,320,319,315,0
318,290,313,312,0
312,264,307,310,0
310,251,305,310,0
311,254,306,310,0
311,264,308,310,0
312,274,308,309,0
312,283,308,307,0
313,290,306,306,0
312,294,306,305,0
309,295,307,304,0
306,298,308,304,0
304,305,310,304,0
302,310,309,303,0
300,311,308,302,0
299,311,306,302,0
297,310,305,301,0
296,304,304,300,0
295,296,302,299,0
295,288,301,298,0
296,280,299,300,0
298,275,299,302,0
301,278,299,303,0
303,287,299,304,0
304,295,298,304,0
305,303,299,303,0
306,308,299,302,0
306,311,299,301,0
307,313,300,301,0
308,318,302,302,0
309,324,303,303,0
308,333,305,306,0
308,341,307,308,0
307,347,309,310,0
308,350,311,311,0
310,349,313,312,0
312,344,313,311,0
312,337,312,309,0
312,333,311,307,0
312,330,310,305,0
312,327,310,305,0
312,324,311,306,0
312,319,312,307,0
311,314,312,309,0
310,309,312,310,0
311,308,314,313,0
312,309,315,315,0
314,309,316,317,0
315,308,317,318,0
316,309,317,318,0
315,310,315,317,0
312,309,313,314,0
307,298,309,313,0
301,282,305,311,0
295,268,304,308,0
293,264,306,306,0
296,273,309,305,0
302,292,312,305,0
307,311,314,304,0
309,323,314,302,0
307,322,309,300,0
303,317,304,299,0
301,313,302,301,0
300,304,299,304,0
299,291,297,304,0
298,277,297,305,0
298,268,298,305,0
297,265,299,304,0
296,267,301,305,0
296,272,302,306,0
297,276,303,308,0
297,277,304,308,0
297,279,304,309,0
299,284,304,308,0
301,296,305,309,0
305,311,306,309,0
307,323,306,309,0
307,332,306,309,0
307,337,306,309,0
309,341,307,309,0
312,346,308,311,0
314,348,309,312,0
316,348,308,312,0
316,346,307,312,0
316,346,307,311,0
315,341,307,310,0
313,329,307,309,0
311,316,307,310,0
311,304,307,310,0
311,293,308,312,0
310,284,308,314,0
310,280,308,316,0
308,279,308,316,0
305,281,308,316,0
302,285,307,315,0
300,284,305,314,0
298,281,304,312,0
297,282,303,311,0
297,285,302,309,0
296,285,301,307,0
295,286,299,306,0
294,288,299,304,0
293,291,301,303,0
293,294,304,304,0
295,299,306,305,0
296,304,308,305,0
299,311,309,305,0
302,320,309,305,0
305,331,309,304,0
308,346,308,303,0
310,359,306,301,0
311,365,304,301,0
312,365,303,302,0
313,358,303,302,0
314,345,303,302,0
314,331,303,303,0
314,317,303,305,0
313,304,304,305,0
312,299,305,306,0
312,299,306,307,0
312,301,307,307,0
310,301,306,307,0
308,304,304,307,0
305,309,302,308,0
303,315,300,309,0
303,321,299,311,0
305,325,299,312,0
310,321,301,313,0
313,310,303,314,0
314,294,305,314,0
311,279,308,314,0
306,274,310,313,0
302,283,309,311,0
299,297,307,309,0
298,309,304,308,0
297,313,304,308,0
296,307,304,310,0
296,298,306,312,0
297,287,309,315,0
300,282,310,318,0
305,285,310,318,0
308,293,309,317,0
310,304,306,315,0
310,315,305,313,0
311,323,304,312,0
310,327,304,312,0
309,330,304,313,0
308,330,306,314,0
308,324,308,315,0
307,315,308,315,0
305,308,308,314,0
305,305,307,314,0
304,306,305,313,0
302,306,305,312,0
300,302,305,311,0
301,301,306,311,0
303,302,306,311,0
306,301,306,311,0
309,299,306,312,0
312,296,307,311,0
311,290,306,310,0
308,284,305,308,0
305,285,304,307,0
304,294,303,307,0
303,306,302,306,0
303,316,301,305,0
303,321,301,304,0
302,324,301,303,0
301,329,302,303,0
302,333,303,303,0
303,332,304,304,0
304,325,306,308,0
305,316,309,313,0
308,312,311,318,0
311,315,313,320,0
313,320,312,320,0
314,324,310,317,0
311,323,308,313,0
306,318,305,310,0
303,313,304,308,0
301,310,303,308,0
302,309,303,309,0
302,309,304,310,0
303,310,304,310,0
302,307,304,309,0
302,299,304,308,0
302,290,305,308,0
303,287,307,307,0
306,292,308,307,0
310,301,309,308,0
314,311,309,307,0
318,321,307,307,0
319,329,306,305,0
318,330,306,304,0
314,329,307,304,0
312,323,309,304,0
308,310,309,305,0
304,299,308,305,0
301,291,308,305,0
298,287,307,306,0
297,286,307,306,0
298,291,307,306,0
300,297,308,307,0
302,303,308,307,0
303,305,307,307,0
303,301,306,306,0
302,293,306,306,0
300,285,306,306,0
300,280,307,306,0
301,283,309,306,0
302,291,309,306,0
302,300,308,306,0
303,306,307,306,0
305,308,306,307,0
306,309,306,307,0
308,311,307,307,0
310,314,307,306,0
312,319,308,305,0
312,323,309,305,0
312,324,309,305,0
310,322,308,305,0
309,316,306,305,0
310,309,304,305,0
310,306,301,304,0
310,305,297,304,0
309,303,294,304,0
308,304,291,304,0
306,304,290,305,0
303,301,289,305,0
299,297,290,304,0
297,293,291,305,0
296,288,293,305,0
295,285,296,307,0
296,284,299,308,0
298,286,301,309,0
300,287,304,310,0
303,286,307,311,0
305,287,311,311,0
308,289,315,312,0
309,290,318,312,0
310,295,321,313,0
312,306,323,315,0
314,318,324,316,0
317,331,324,317,0
319,345,320,315,0
318,355,315,311,0
314,355,310,308,0
309,348,307,305,0
306,334,306,304,0
303,314,306,304,0
301,292,307,303,0
299,275,307,304,0
298,270,306,305,0
299,278,308,307,0
302,291,311,309,0
303,295,311,309,0
300,290,308,306,0
298,283,306,304,0
297,280,304,302,0
297,279,303,301,0
299,283,304,302,0
301,291,305,303,0
303,303,306,304,0
308,317,308,307,0
312,331,311,309,0
314,338,311,312,0
313,338,310,312,0
312,333,307,312,0
311,327,306,313,0
311,321,306,313,0
311,313,306,313,0
312,301,306,313,0
312,288,306,313,0
313,279,306,313,0
314,282,307,312,0
311,293,308,311,0
306,305,309,309,0
301,314,309,307,0
299,320,310,306,0
298,323,310,305,0
298,325,310,304,0
299,327,307,303,0
302,331,305,302,0
304,337,302,303,0
304,340,300,303,0
303,339,297,303,0
301,333,296,304,0
300,326,297,307,0
300,321,298,309,0
301,318,300,311,0
300,313,301,311,0
298,305,302,311,0
297,297,303,311,0
296,292,305,312,0
297,288,307,314,0
299,283,308,315,0
301,279,308,315,0
302,272,306,314,0
304,263,305,312,0
306,260,306,311,0
308,267,307,311,0
308,277,308,310,0
310,289,308,310,0
311,305,308,309,0
314,325,309,309,0
317,344,311,310,0
320,358,312,310,0
320,367,313,310,0
317,369,313,309,0
312,364,310,307,0
307,355,307,305,0
303,348,304,305,0
301,345,302,304,0
300,344,300,304,0
299,340,299,303,0
298,327,298,303,0
298,307,298,304,0
297,281,298,305,0
297,255,298,308,0
298,235,299,310,0
300,224,302,313,0
302,224,305,316,0
305,230,306,317,0
307,240,307,317,0
308,255,307,316,0
308,274,306,314,0
307,292,306,312,0
304,305,304,310,0
300,310,302,308,0
297,309,300,306,0
295,309,298,305,0
294,312,297,304,0
295,314,296,304,0
297,317,296,305,0
299,319,297,307,0
300,320,298,307,0
300,322,299,307,0
300,327,300,307,0
302,336,302,307,0
305,348,303,306,0
309,357,304,304,0
310,354,302,302,0
309,341,298,299,0
307,321,294,297,0
305,303,292,297,0
305,291,292,298,0
306,287,293,300,0
307,287,297,302,0
308,286,300,304,0
307,284,304,306,0
305,279,307,308,0
303,267,309,309,0
301,250,310,309,0
299,236,310,310,0
299,235,311,311,0
301,249,312,312,0
303,268,311,313,0
304,287,310,312,0
302,299,307,309,0
301,304,304,307,0
301,305,303,305,0
305,307,303,304,0
309,309,305,303,0
313,312,308,302,0
316,318,310,302,0
318,327,312,303,0
317,337,312,304,0
314,345,311,305,0
310,351,311,306,0
308,355,310,308,0
305,352,310,309,0
301,343,308,310,0
297,334,305,310,0
295,330,303,310,0
296,329,303,311,0
297,329,304,312,0
301,325,304,312,0
305,317,305,311,0
307,304,305,310,0
306,293,303,308,0
303,290,303,305,0
301,295,304,304,0
300,302,304,304,0
299,307,307,305,0
299,305,310,307,0
300,299,312,309,0
300,296,313,310,0
302,299,313,311,0
303,309,312,310,0
305,318,310,309,0
305,317,308,308,0
303,307,306,306,0
298,289,303,305,0
293,267,302,304,0
290,252,303,307,0
290,246,304,311,0
292,250,304,314,0
293,258,304,316,0
295,269,304,318,0
298,279,305,318,0
302,285,305,318,0
306,290,306,318,0
311,300,307,317,0
314,309,306,315,0
314,314,303,312,0
311,315,300,309,0
308,310,298,306,0
303,304,296,304,0
299,301,296,303,0
297,302,297,304,0
296,306,299,305,0
297,310,298,306,0
297,312,297,306,0
298,313,297,307,0
298,313,298,308,0
298,310,300,309,0
298,307,303,311,0
298,306,306,311,0
300,309,308,312,0
303,319,310,313,0
307,333,309,313,0
310,345,307,313,0
310,350,303,311,0
309,350,298,309,0
307,344,296,308,0
306,336,296,308,0
305,330,296,308,0
305,329,298,309,0
306,333,299,309,0
308,339,302,308,0
309,340,304,308,0
308,333,306,308,0
306,321,307,307,0
306,309,309,307,0
307,303,311,308,0
308,303,312,309,0
307,304,311,309,0
306,304,309,308,0
303,303,306,307,0
301,303,304,306,0
299,304,302,305,0
296,306,301,305,0
295,311,302,306,0
294,310,303,308,0
295,301,304,310,0
295,288,304,311,0
296,273,304,310,0
297,261,304,309,0
299,256,305,309,0
302,260,307,309,0
307,269,309,311,0
312,280,312,314,0
316,290,315,316,0
318,299,316,319,0
318,305,316,319,0
316,303,314,317,0
311,294,312,315,0
306,285,311,312,0
303,281,310,310,0
302,281,310,307,0
302,287,310,305,0
303,297,308,301,0
302,309,306,298,0
300,320,304,294,0
297,328,302,292,0
293,330,301,292,0
289,329,302,293,0
288,323,304,297,0
287,313,305,300,0
287,302,304,302,0
288,292,303,304,0
291,285,301,304,0
293,284,301,304,0
296,287,302,304,0
299,291,303,304,0
302,296,305,305,0
305,304,307,306,0
308,315,309,308,0
311,328,310,310,0
313,339,310,311,0
314,347,309,311,0
313,348,308,311,0
310,343,307,310,0
307,337,307,310,0
305,332,307,309,0
305,331,308,309,0
307,333,309,309,0
311,338,310,310,0
316,345,311,311,0
320,351,312,312,0
321,349,313,313,0
319,337,314,312,0
314,320,315,313,0
307,303,314,312,0
301,292,314,312,0
297,286,314,312,0
294,284,313,311,0
292,285,310,309,0
290,291,307,308,0
290,297,305,308,0
292,297,305,309,0
295,290,306,310,0
298,287,307,310,0
300,287,309,309,0
302,290,310,307,0
302,292,311,306,0
301,296,312,304,0
301,300,313,302,0
303,304,312,302,0
304,303,310,303,0
304,296,309,303,0
304,286,307,304,0
304,278,306,305,0
304,278,305,305,0
303,281,304,306,0
303,281,304,309,0
302,275,305,312,0
301,264,308,315,0
301,254,311,318,0
300,247,313,318,0
299,252,315,317,0
300,269,314,315,0
301,289,311,313,0
302,304,309,311,0
303,311,307,310,0
304,312,306,311,0
306,313,305,311,0
307,316,304,310,0
305,319,303,308,0
303,323,302,307,0
302,328,301,306,0
303,334,301,306,0
304,336,301,306,0
305,335,302,307,0
304,326,302,308,0
303,312,302,309,0
302,300,302,308,0
300,296,301,307,0
297,294,298,304,0
293,289,295,301,0
292,283,292,300,0
291,277,289,300,0
290,271,288,299,0
290,270,290,300,0
292,279,292,300,0
294,296,296,301,0
296,311,300,301,0
299,321,303,300,0
301,326,305,299,0
302,329,307,298,0
304,333,310,299,0
306,338,312,301,0
306,341,313,304,0
305,341,314,306,0
303,336,315,308,0
300,327,314,309,0
299,314,313,310,0
300,302,312,311,0
302,296,311,313,0
304,296,310,314,0
307,300,310,315,0
309,304,310,314,0
310,307,308,313,0
311,311,307,311,0
311,315,306,308,0
311,321,306,306,0
310,327,306,304,0
309,332,307,304,0
308,331,306,304,0
305,321,306,305,0
301,305,304,305,0
297,290,303,305,0
295,282,302,305,0
295,282,301,307,0
295,287,300,308,0
296,291,301,309,0
297,289,301,309,0
299,283,302,309,0
301,277,302,311,0
303,273,303,312,0
305,278,305,315,0
310,291,309,318,0
316,305,312,319,0
318,313,312,318,0
316,312,309,314,0
312,308,304,310,0
306,298,301,305,0
299,283,299,303,0
294,266,298,302,0
290,257,301,302,0
290,261,306,305,0
292,277,309,307,0
294,294,311,309,0
296,306,311,310,0
297,314,310,310,0
299,318,309,310,0
299,319,308,309,0
300,317,306,309,0
302,316,307,309,0
305,320,307,310,0
308,329,307,312,0
311,335,307,313,0
312,336,307,314,0
311,330,307,315,0
309,323,307,315,0
307,318,306,315,0
304,315,306,315,0
303,315,305,314,0
302,313,305,312,0
301,310,305,311,0
301,304,304,309,0
300,298,303,308,0
301,297,303,307,0
303,300,305,307,0
306,307,305,307,0
308,312,306,306,0
309,316,305,306,0
310,320,305,305,0
311,325,305,306,0
313,330,307,306,0
313,335,309,306,0
312,336,311,307,0
310,330,312,307,0
307,319,311,306,0
305,309,309,305,0
303,302,308,304,0
302,299,308,303,0
302,300,308,303,0
303,305,309,304,0
304,310,309,304,0
305,312,308,305,0
306,312,307,306,0
306,313,305,306,0
307,315,305,306,0
310,317,304,306,0
311,316,304,306,0
311,312,303,306,0
311,309,303,306,0
311,308,301,306,0
311,308,299,306,0
310,305,298,306,0
309,300,297,307,0
310,297,297,308,0
310,295,298,310,0
311,290,300,311,0
311,289,302,312,0
310,290,304,312,0
307,292,304,310,0
303,295,304,307,0
300,296,303,305,0
298,296,302,303,0
298,300,302,302,0
298,306,303,302,0
299,314,305,303,0
301,320,307,304,0
303,318,308,305,0
303,313,310,307,0
304,309,311,310,0
305,306,312,311,0
304,301,310,312,0
302,295,308,311,0
299,295,307,311,0
298,300,307,311,0
299,307,308,311,0
300,309,311,312,0
301,309,313,312,0
301,306,316,312,0
300,299,316,311,0
298,288,314,309,0
297,278,314,308,0
297,272,313,309,0
299,272,314,310,0
303,277,316,311,0
307,288,317,312,0
308,303,318,310,0
307,314,316,308,0
305,325,313,306,0
303,333,310,305,0
303,339,307,305,0
305,342,305,306,0
308,343,305,306,0
311,343,305,307,0
312,341,306,308,0
310,335,307,307,0
307,327,306,305,0
303,319,305,304,0
301,311,303,304,0
300,304,302,304,0
299,299,302,306,0
299,295,304,307,0
299,295,305,307,0
297,295,305,306,0
297,294,305,306,0
297,296,305,304,0
297,301,305,305,0
299,307,307,306,0
300,314,308,308,0
301,319,308,309,0
301,320,309,310,0
302,318,308,311,0
301,312,308,312,0
301,305,307,312,0
303,300,308,313,0
305,298,309,314,0
308,299,310,315,0
308,300,310,313,0
306,300,309,312,0
305,300,307,311,0
303,299,307,311,0
300,298,307,311,0
297,298,307,312,0
295,300,307,312,0
294,300,308,314,0
295,302,309,315,0
295,303,310,315,0
296,306,310,315,0
298,309,310,315,0
299,308,309,314,0
300,307,307,313,0
301,305,305,310,0
301,304,303,309,0
301,305,302,307,0
302,307,302,305,0
302,306,301,304,0
302,302,301,303,0
303,296,302,303,0
305,290,303,304,0
306,286,306,306,0
307,286,307,309,0
306,289,308,310,0
304,293,309,310,0
303,299,309,310,0
303,309,309,309,0
302,316,308,307,0
302,320,306,307,0
302,322,304,306,0
302,325,303,306,0
301,327,304,307,0
300,327,304,307,0
298,323,304,307,0
297,319,304,308,0
295,317,304,309,0
294,317,304,310,0
295,320,304,310,0
296,325,304,310,0
297,329,303,309,0
300,332,302,308,0
303,327,302,309,0
306,319,300,309,0
308,313,297,308,0
308,312,295,308,0
307,311,294,308,0
305,306,293,309,0
302,294,293,310,0
299,277,292,310,0
296,261,292,311,0
294,253,292,313,0
294,254,295,315,0
295,261,297,315,0
297,272,298,314,0
299,287,300,313,0
302,299,303,312,0
305,310,306,311,0
308,319,309,310,0
308,323,311,308,0
305,322,311,306,0
301,319,310,305,0
298,317,310,304,0
296,316,311,304,0
295,313,311,304,0
295,309,311,303,0
293,305,310,303,0
294,304,310,304,0
295,305,311,305,0
296,306,311,306,0
297,309,309,306,0
298,314,307,307,0
300,318,306,307,0
300,315,305,306,0
299,307,306,306,0
299,295,307,307,0
300,280,308,308,0
301,261,308,308,0
301,245,307,307,0
301,236,307,305,0
300,239,307,302,0
299,253,307,300,0
299,282,306,300,0
302,321,306,302,0
304,350,305,304,0
303,359,303,306,0
298,351,302,306,0
294,337,301,307,0
290,324,302,309,0
288,314,301,310,0
289,309,301,312,0
293,311,302,314,0
297,316,304,316,0
300,323,305,316,0
302,329,306,317,0
302,330,307,317,0
301,326,309,317,0
300,318,312,318,0
299,308,314,319,0
299,295,317,319,0
300,282,319,318,0
302,278,319,316,0
303,284,318,313,0
307,295,315,310,0
313,306,314,308,0
319,311,311,308,0
320,310,309,307,0
319,306,307,306,0
318,304,305,307,0
317,309,305,306,0
314,315,305,306,0
309,319,304,306,0
303,321,305,306,0
299,326,305,306,0
298,332,306,306,0
299,334,306,305,0
301,332,307,307,0
303,330,308,308,0
305,330,308,309,0
305,326,308,309,0
303,319,307,309,0
300,312,307,309,0
298,305,307,308,0
297,299,307,308,0
295,293,306,308,0
294,289,305,308,0
292,288,304,309,0
290,286,305,310,0
289,284,306,311,0
290,284,306,312,0
292,285,306,312,0
293,284,307,311,0
294,283,306,310,0
295,284,307,309,0
297,289,308,309,0
300,296,307,309,0
303,307,307,308,0
305,324,307,308,0
308,339,309,309,0
311,350,311,309,0
313,359,312,309,0
313,361,311,308,0
310,356,310,307,0
308,343,309,306,0
308,329,310,307,0
308,315,311,307,0
307,302,310,306,0
306,293,308,305,0
306,287,306,303,0
306,285,304,301,0
305,285,301,299,0
303,287,299,299,0
303,292,299,300,0
302,299,300,303,0
302,303,302,306,0
303,306,305,309,0
304,314,310,311,0
304,318,313,312,0
303,315,313,312,0
301,306,310,311,0
299,297,307,309,0
297,290,303,307,0
297,285,301,306,0
298,281,299,305,0
298,277,298,306,0
298,273,296,306,0
298,276,295,306,0
299,286,294,307,0
301,297,295,307,0
303,307,296,307,0
305,315,297,308,0
307,322,299,308,0
309,328,301,308,0
310,329,303,307,0
308,326,305,304,0
305,321,306,302,0
302,315,305,301,0
301,309,305,302,0
302,307,305,303,0
306,308,306,306,0
310,309,305,309,0
310,308,303,311,0
307,304,300,312,0
302,300,299,312,0
298,296,299,312,0
297,293,302,314,0
298,292,306,316,0
301,293,309,318,0
306,297,312,319,0
311,299,313,319,0
312,298,314,319,0
308,294,314,317,0
303,287,314,316,0
299,278,314,315,0
297,270,314,315,0
298,271,316,315,0
300,280,316,315,0
303,296,315,315,0
305,308,314,313,0
306,315,313,312,0
308,322,312,311,0
308,331,311,309,0
308,342,310,308,0
307,346,308,306,0
303,342,306,304,0
299,335,304,303,0
297,329,302,302,0
295,327,301,302,0
295,327,302,303,0
297,329,303,305,0
301,332,304,306,0
303,335,305,307,0
307,336,306,307,0
309,335,307,308,0
311,332,309,309,0
310,327,310,309,0
308,319,311,309,0
305,308,311,309,0
301,293,310,309,0
299,277,310,309,0
297,267,309,308,0
297,266,307,307,0
298,273,305,307,0
300,286,304,306,0
302,298,304,305,0
303,304,303,305,0
303,306,303,306,0
303,307,303,307,0
303,306,303,308,0
301,304,302,308,0
300,305,302,308,0
301,313,302,309,0
303,325,302,309,0
305,336,303,309,0
306,341,305,309,0
307,338,306,308,0
307,329,306,306,0
305,316,305,304,0
304,304,305,302,0
303,297,304,300,0
301,293,303,299,0
298,290,303,299,0
295,288,304,299,0
294,285,305,300,0
294,283,307,304,0
295,283,310,307,0
296,284,311,310,0
297,288,311,311,0
297,291,311,312,0
298,297,310,312,0
299,301,310,311,0
300,304,310,309,0
300,305,308,307,0
300,308,306,305,0
300,313,305,302,0
302,317,304,300,0
305,320,304,299,0
309,324,304,298,0
312,330,302,298,0
312,336,299,297,0
309,335,295,296,0
305,330,292,295,0
301,323,290,296,0
299,315,289,298,0
298,309,291,302,0
297,301,293,305,0
297,292,296,307,0
295,286,298,307,0
292,281,299,306,0
291,283,299,305,0
293,294,301,306,0
296,310,303,309,0
300,324,308,312,0
304,330,311,315,0
307,328,316,316,0
311,317,320,317,0
314,305,323,317,0
315,293,325,316,0
315,284,325,314,0
313,280,323,313,0
309,284,323,311,0
305,293,321,311,0
302,304,320,311,0
299,311,318,311,0
298,312,317,311,0
297,305,316,313,0
297,292,316,314,0
297,281,317,317,0
298,271,318,320,0
297,262,316,320,0
294,252,312,318,0
291,244,308,315,0
290,244,306,313,0
292,253,306,313,0
294,273,306,312,0
296,304,306,310,0
299,342,306,309,0
302,369,307,308,0
304,382,309,307,0
305,384,310,307,0
305,378,311,307,0
305,365,311,307,0
305,352,311,307,0
304,342,310,307,0
303,336,309,306,0
302,331,308,305,0
299,327,308,304,0
297,324,308,304,0
296,319,308,305,0
296,312,308,306,0
298,303,310,308,0
302,297,312,311,0
305,294,314,313,0
305,293,314,313,0
304,296,313,313,0
303,299,312,312,0
301,302,311,311,0
300,306,309,311,0
300,312,308,310,0
300,316,308,310,0
301,316,306,309,0
301,312,304,309,0
300,308,302,309,0
299,306,300,309,0
299,307,299,308,0
299,307,298,307,0
298,304,297,306,0
297,300,297,304,0
296,295,298,302,0
296,290,300,302,0
298,290,302,302,0
300,297,305,302,0
303,308,308,302,0
305,319,310,302,0
307,328,312,303,0
307,328,312,303,0
305,317,310,303,0
303,302,308,305,0
301,288,306,308,0
300,280,307,310,0
301,279,309,313,0
301,281,312,315,0
302,283,313,315,0
301,280,312,313,0
300,271,310,311,0
300,265,309,310,0
301,269,310,310,0
302,280,309,310,0
302,296,308,311,0
303,312,307,311,0
303,325,306,311,0
303,331,306,310,0
303,332,305,310,0
303,329,303,309,0
302,323,302,309,0
301,314,301,308,0
301,305,302,310,0
302,301,304,311,0
304,305,306,312,0
305,314,307,311,0
306,327,309,310,0
305,337,310,308,0
303,342,309,305,0
300,339,304,302,0
299,334,300,301,0
301,330,298,302,0
303,327,298,303,0
304,324,298,304,0
304,319,297,307,0
302,310,295,309,0
300,300,295,311,0
298,291,295,313,0
297,286,295,313,0
296,283,296,313,0
295,279,298,312,0
293,272,301,312,0
291,267,305,313,0
290,271,309,314,0
292,285,312,314,0
296,306,314,314,0
300,325,314,313,0
303,333,312,310,0
303,335,310,309,0
304,332,308,308,0
305,327,307,308,0
304,322,306,308,0
303,318,305,307,0
303,312,303,306,0
304,307,302,306,0
306,301,303,305,0
308,297,305,305,0
310,297,309,304,0
311,300,311,303,0
310,303,314,302,0
309,305,315,302,0
305,303,315,303,0
302,301,315,304,0
300,301,315,306,0
299,303,316,309,0
300,305,316,310,0
300,305,315,310,0
300,299,313,308,0
299,296,309,306,0
298,299,306,304,0
299,306,304,304,0
301,313,302,303,0
303,317,301,302,0
304,314,299,301,0
304,307,299,302,0
303,296,299,303,0
301,285,300,303,0
299,275,303,304,0
297,267,306,306,0
297,266,311,307,0
298,275,315,308,0
300,295,318,308,0
304,319,319,307,0
306,334,317,305,0
308,337,315,304,0
310,335,314,304,0
312,336,312,304,0
314,341,309,302,0
315,346,306,301,0
313,350,303,298,0
310,352,301,296,0
306,349,300,294,0
303,344,299,293,0
302,340,299,292,0
303,334,301,292,0
305,328,303,294,0
307,323,306,297,0
308,319,310,300,0
309,316,311,303,0
308,312,311,306,0
304,306,308,306,0
301,303,305,306,0
299,302,302,306,0
298,301,301,306,0
298,297,300,307,0
298,294,298,307,0
297,293,297,307,0
298,291,297,307,0
298,290,296,307,0
299,289,297,307,0
301,291,298,308,0
301,296,301,307,0
302,298,303,307,0
302,294,305,307,0
300,286,306,308,0
300,277,309,310,0
302,273,311,313,0
305,278,313,316,0
308,291,314,318,0
309,304,315,318,0
308,312,313,316,0
308,312,310,312,0
306,304,305,307,0
305,294,301,303,0
305,283,299,300,0
306,274,299,297,0
305,269,299,295,0
303,267,299,294,0
299,265,297,294,0
297,264,295,296,0
296,268,294,300,0
298,280,293,304,0
302,304,294,308,0
305,327,296,309,0
308,342,297,309,0
309,346,299,308,0
310,343,300,306,0
310,339,302,306,0
310,336,304,305,0
308,333,305,305,0
306,330,307,306,0
303,326,309,307,0
302,323,310,308,0
302,322,311,308,0
302,324,311,309,0
302,326,312,310,0
303,324,313,310,0
305,320,313,311,0
307,316,313,312,0
308,317,315,313,0
308,320,316,313,0
304,320,318,313,0
301,320,319,314,0
300,320,318,314,0
301,315,318,314,0
304,307,316,315,0
306,299,314,314,0
308,296,313,314,0
309,297,313,316,0
310,299,314,317,0
310,298,314,318,0
310,297,314,318,0
309,298,314,317,0
308,300,314,315,0
305,299,313,313,0
302,297,312,311,0
299,293,310,310,0
296,289,307,308,0
294,290,305,307,0
295,301,305,306,0
297,314,306,306,0
299,323,306,306,0
300,327,306,306,0
298,323,304,304,0
295,316,302,303,0
293,312,302,302,0
294,310,303,302,0
296,309,305,303,0
300,313,308,305,0
303,318,310,307,0
303,318,309,309,0
302,312,306,310,0
300,304,304,310,0
300,297,302,311,0
302,295,302,312,0
303,298,302,312,0
304,306,303,312,0
302,313,302,311,0
298,316,300,309,0
294,316,299,307,0
292,316,299,306,0
292,317,299,304,0
292,317,298,302,0
293,320,297,300,0
294,326,296,298,0
294,334,296,298,0
294,338,297,299,0
296,335,298,301,0
297,325,299,302,0
299,318,299,302,0
300,314,299,302,0
301,313,298,300,0
301,311,298,298,0
300,306,299,299,0
300,298,302,300,0
300,289,303,303,0
299,283,305,306,0
300,284,306,309,0
302,292,309,312,0
305,302,311,314,0
307,308,314,315,0
308,308,316,317,0
308,304,317,319,0
307,301,316,320,0
307,299,315,322,0
308,299,314,322,0
310,301,313,322,0
312,304,312,321,0
312,304,310,320,0
309,297,309,319,0
304,286,308,317,0
298,274,308,317,0
294,269,309,316,0
293,279,309,315,0
293,297,308,313,0
294,308,305,311,0
294,316,304,309,0
296,321,302,308,0
297,321,300,307,0
297,314,298,307,0
298,304,296,308,0
300,295,296,310,0
302,292,298,312,0
304,293,300,313,0
305,297,300,314,0
305,298,300,315,0
303,296,300,315,0
300,293,301,315,0
299,296,303,314,0
299,303,306,313,0
302,313,307,311,0
304,323,307,308,0
306,328,306,306,0
306,325,305,304,0
305,319,306,304,0
304,315,307,304,0
304,314,309,304,0
303,315,311,305,0
303,319,312,306,0
304,321,314,308,0
305,319,316,309,0
307,313,317,311,0
308,306,318,312,0
310,302,318,312,0
310,303,317,312,0
310,308,315,311,0
310,317,314,310,0
310,326,312,307,0
307,329,308,303,0
304,327,305,300,0
302,327,303,297,0
303,330,301,297,0
304,330,301,298,0
305,322,301,299,0
304,310,302,301,0
304,302,302,302,0
302,296,303,302,0
299,291,302,302,0
295,290,301,301,0
292,294,301,300,0
291,301,302,300,0
291,308,302,299,0
292,312,303,299,0
293,310,304,299,0
292,302,306,300,0
291,291,307,301,0
289,281,308,303,0
288,273,310,304,0
289,270,312,306,0
292,271,314,308,0
295,275,314,308,0
298,285,314,309,0
303,300,313,310,0
307,317,313,311,0
311,330,312,312,0
314,336,311,312,0
315,337,310,312,0
313,335,309,311,0
310,333,307,308,0
307,338,307,305,0
306,346,307,304,0
306,351,308,304,0
308,350,310,306,0
311,344,312,308,0
314,333,314,311,0
315,322,314,312,0
312,312,313,311,0
307,304,311,309,0
302,300,308,305,0
297,299,306,301,0
294,299,304,298,0
293,301,304,296,0
294,302,305,295,0
295,303,307,296,0
297,305,309,298,0
300,305,312,301,0
302,303,312,304,0
302,299,311,306,0
300,295,308,308,0
299,292,307,310,0
298,292,306,310,0
299,294,305,311,0
298,295,304,311,0
296,296,303,311,0
295,299,303,312,0
297,303,302,314,0
300,309,303,315,0
304,315,303,316,0
308,317,304,316,0
311,308,304,316,0
312,290,304,315,0
311,269,303,314,0
307,249,302,314,0
302,232,302,314,0
298,226,302,314,0
296,238,304,314,0
297,264,308,314,0
298,293,310,313,0
297,315,311,311,0
295,331,311,308,0
294,346,312,307,0
295,362,312,306,0
297,372,313,306,0
299,371,314,306,0
302,365,315,308,0
305,359,318,308,0
310,354,320,309,0
311,349,320,308,0
309,339,318,307,0
306,327,315,306,0
302,316,312,306,0
298,307,309,305,0
296,300,307,306,0
296,296,305,307,0
297,295,304,308,0
298,296,303,308,0
298,300,302,307,0
299,303,300,305,0
299,305,299,303,0
300,305,300,303,0
302,304,301,303,0
303,302,303,304,0
303,298,305,305,0
303,296,306,306,0
303,297,307,307,0
304,295,308,308,0
303,289,308,309,0
303,282,308,309,0
303,278,309,310,0
306,282,310,310,0
309,290,312,311,0
312,298,312,312,0
314,303,311,311,0
314,308,310,310,0
313,314,307,308,0
310,321,306,306,0
308,330,305,304,0
307,338,306,303,0
305,342,308,302,0
301,339,308,299,0
295,330,305,298,0
288,317,303,296,0
283,304,302,297,0
282,300,302,300,0
282,296,302,302,0
284,286,302,304,0
287,278,302,305,0
290,277,303,305,0
294,282,305,306,0
297,289,306,307,0
298,293,306,307,0
299,300,306,307,0
301,310,306,308,0
302,320,305,309,0
304,329,305,310,0
306,334,305,311,0
307,334,304,311,0
307,327,303,310,0
305,319,302,308,0
304,313,300,307,0
304,308,300,306,0
305,308,302,305,0
307,313,304,305,0
308,322,305,303,0
307,331,307,302,0
305,337,309,302,0
303,337,309,300,0
300,330,309,299,0
299,320,308,299,0
300,312,307,299,0
303,308,307,301,0
307,310,307,303,0
308,311,306,305,0
307,312,304,305,0
303,309,302,305,0
299,306,299,305,0
295,302,295,305,0
291,298,292,305,0
289,292,290,304,0
288,284,291,305,0
289,280,293,306,0
292,281,297,306,0
296,288,301,307,0
298,296,304,306,0
299,303,306,306,0
300,307,307,306,0
301,307,308,307,0
303,302,310,308,0
305,298,312,312,0
305,299,315,314,0
304,301,317,315,0
302,302,317,316,0
301,305,318,316,0
301,311,318,316,0
303,322,318,316,0
304,332,317,314,0
303,336,314,312,0
302,334,310,310,0
300,329,306,308,0
300,324,303,307,0
301,321,302,308,0
302,317,302,308,0
304,314,303,310,0
305,311,304,311,0
305,302,307,313,0
307,288,311,316,0
308,278,314,317,0
309,275,317,317,0
309,283,317,316,0
311,299,318,316,0
313,317,320,317,0
315,333,322,316,0
315,341,320,315,0
312,340,317,312,0
308,334,313,310,0
306,328,311,309,0
303,324,309,309,0
301,321,307,308,0
298,321,304,308,0
296,319,302,307,0
295,316,300,305,0
293,308,300,304,0
293,299,301,304,0
292,293,304,305,0
292,292,307,307,0
293,297,311,309,0
295,304,314,311,0
297,309,315,312,0
297,304,314,312,0
296,289,313,313,0
297,273,311,315,0
298,262,309,315,0
299,256,307,313,0
300,256,305,311,0
300,258,304,309,0
299,264,304,307,0
297,274,303,306,0
297,290,302,305,0
297,306,302,305,0
298,316,301,305,0
299,319,301,305,0
299,320,301,304,0
300,325,302,304,0
303,337,303,303,0
307,353,305,304,0
313,366,307,306,0
318,371,309,309,0
321,368,310,311,0
320,356,308,311,0
315,341,305,310,0
309,325,299,306,0
304,311,296,303,0
300,301,294,301,0
299,293,293,300,0
298,287,292,298,0
298,285,291,297,0
299,286,293,297,0
302,293,294,295,0
305,303,297,293,0
306,311,300,292,0
304,316,304,293,0
301,318,307,297,0
300,320,310,303,0
301,319,311,309,0
302,316,310,313,0
303,313,307,315,0
302,312,305,316,0
302,312,304,317,0
302,311,302,317,0
301,309,300,315,0
299,307,298,314,0
298,306,296,312,0
297,306,294,311,0
297,304,294,310,0
296,301,296,310,0
297,298,299,311,0
299,295,302,312,0
299,290,305,312,0
298,285,306,312,0
299,284,307,311,0
300,287,309,311,0
301,293,310,311,0
303,301,311,312,0
304,307,313,313,0
305,305,315,314,0
304,296,317,316,0
302,282,318,318,0
301,272,317,319,0
300,268,315,318,0
301,264,312,318,0
302,262,310,318,0
302,264,308,317,0
302,267,307,315,0
301,272,306,313,0
300,276,305,311,0
300,279,304,310,0
300,286,305,310,0
301,295,308,310,0
301,300,309,309,0
298,303,309,308,0
297,307,309,308,0
297,315,308,307,0
300,324,309,307,0
302,334,309,307,0
303,341,308,306,0
301,343,306,305,0
300,340,304,305,0
299,334,303,304,0
300,328,303,304,0
302,326,303,305,0
303,324,303,306,0
303,319,304,306,0
302,315,304,307,0
301,311,305,308,0
301,306,306,308,0
301,299,307,308,0
299,291,307,309,0
299,285,308,311,0
300,285,310,313,0
302,290,310,314,0
304,295,310,315,0
305,299,309,316,0
304,302,309,316,0
303,304,309,315,0
301,305,309,314,0
300,306,308,313,0
301,305,307,310,0
304,306,307,308,0
308,307,308,306,0
310,308,308,304,0
311,309,309,303,0
310,312,307,301,0
309,314,304,300,0
308,316,301,299,0
306,316,298,298,0
304,315,297,298,0
303,313,298,300,0
302,310,300,302,0
301,306,303,304,0
299,300,305,304,0
298,295,306,305,0
298,294,307,304,0
300,299,308,304,0
303,308,309,304,0
306,318,310,304,0
309,323,311,304,0
311,321,310,304,0
311,316,310,305,0
310,310,307,305,0
307,305,305,304,0
304,302,303,303,0
302,297,303,303,0
300,289,304,302,0
297,278,305,302,0
294,270,305,303,0
292,270,305,304,0
292,279,304,304,0
294,287,302,303,0
296,291,302,303,0
300,292,304,304,0
303,291,307,306,0
305,293,311,310,0
307,297,313,314,0
307,307,314,316,0
307,317,312,316,0
305,327,310,315,0
305,337,307,313,0
304,346,306,312,0
304,352,305,311,0
303,346,303,309,0
301,333,300,307,0
300,320,296,305,0
301,308,295,304,0
304,301,294,303,0
307,296,295,302,0
310,293,297,302,0
312,292,297,301,0
311,291,297,299,0
307,289,297,299,0
303,291,298,298,0
300,296,299,299,0
299,304,301,300,0
298,314,303,302,0
298,322,305,305,0
301,327,307,309,0
304,329,311,313,0
306,330,315,315,0
307,331,316,316,0
306,330,316,316,0
304,329,315,316,0
303,329,313,315,0
301,329,312,314,0
300,328,311,314,0
301,329,309,313,0
302,331,309,311,0
305,334,308,309,0
306,337,306,307,0
306,337,304,305,0
303,331,303,305,0
300,310,302,306,0
295,286,302,308,0
293,272,303,310,0
294,271,304,312,0
295,275,305,315,0
298,280,306,316,0
299,283,308,317,0
301,284,309,317,0
301,284,309,317,0
301,286,310,316,0
301,287,310,315,0
301,285,309,315,0
301,281,307,313,0
301,275,305,313,0
302,273,304,312,0
303,276,304,312,0
305,291,305,313,0
308,311,306,313,0
308,327,306,312,0
308,336,305,311,0
307,335,304,310,0
307,326,304,309,0
307,316,306,309,0
307,309,308,308,0
307,310,310,308,0
306,311,310,308,0
302,303,308,308,0
298,284,306,308,0
295,261,304,309,0
297,244,305,312,0
304,245,309,315,0
311,265,314,316,0
315,293,314,315,0
313,318,312,312,0
308,333,308,307,0
302,337,303,303,0
297,331,299,301,0
294,321,296,299,0
293,311,296,298,0
294,307,298,298,0
296,310,300,298,0
298,317,301,299,0
301,325,301,300,0
303,330,301,299,0
305,331,301,299,0
306,329,300,298,0
307,323,300,298,0
307,317,301,300,0
307,310,303,302,0
308,302,305,305,0
308,296,306,307,0
307,291,306,306,0
307,287,304,305,0
307,283,303,304,0
307,277,303,304,0
306,272,301,305,0
305,276,300,305,0
304,285,299,305,0
303,298,298,303,0
300,313,297,301,0
299,329,297,299,0
299,342,300,298,0
302,350,304,299,0
304,355,307,300,0
304,357,309,300,0
302,356,310,301,0
301,353,311,302,0
300,347,311,304,0
299,337,310,305,0
299,326,308,306,0
300,315,306,306,0
302,310,305,306,0
303,308,305,305,0
304,305,306,304,0
303,292,306,303,0
303,273,305,303,0
303,258,306,304,0
305,249,308,308,0
307,242,310,311,0
307,237,313,314,0
307,235,314,317,0
307,238,314,318,0
307,247,313,318,0
307,266,312,318,0
310,291,311,318,0
312,314,311,318,0
314,332,311,317,0
315,342,311,316,0
315,346,311,315,0
314,341,309,315,0
312,333,308,314,0
311,325,308,314,0
310,316,306,313,0
307,308,302,310,0
303,304,297,307,0
302,309,295,304,0
302,320,294,301,0
302,329,294,300,0
300,333,295,298,0
298,331,296,297,0
296,329,298,297,0
297,327,300,298,0
299,327,303,300,0
302,329,305,302,0
304,333,307,304,0
304,338,309,304,0
303,346,310,304,0
301,349,311,304,0
301,344,310,304,0
301,333,310,304,0
300,320,310,305,0
299,310,310,306,0
298,305,310,306,0
297,309,311,306,0
298,315,310,306,0
299,321,310,306,0
302,324,309,307,0
306,326,307,306,0
309,328,306,305,0
311,328,304,304,0
312,325,302,303,0
310,320,299,301,0
306,308,296,299,0
302,291,295,299,0
300,273,296,300,0
301,264,298,302,0
302,263,300,302,0
303,269,301,302,0
303,278,303,302,0
303,286,304,304,0
303,289,306,306,0
302,289,308,308,0
302,290,310,310,0
302,292,311,312,0
302,291,311,312,0
301,289,310,312,0
302,287,310,313,0
303,289,311,314,0
304,293,311,314,0
303,291,311,314,0
303,279,310,315,0
303,265,311,316,0
305,257,313,317,0
306,258,314,317,0
306,265,313,314,0
304,277,312,312,0
303,293,310,309,0
302,309,308,307,0
301,321,308,306,0
301,330,307,305,0
301,335,306,303,0
301,334,304,302,0
301,329,302,301,0
300,323,299,302,0
301,318,298,303,0
302,317,298,304,0
305,317,299,305,0
308,316,300,305,0
310,315,302,306,0
312,312,303,307,0
312,309,304,308,0
311,314,305,309,0
310,317,307,309,0
306,315,306,309,0
299,308,305,308,0
292,301,304,307,0
289,296,304,307,0
290,291,306,308,0
293,285,308,309,0
297,284,308,310,0
301,288,306,310,0
304,293,304,310,0
306,298,304,309,0
308,303,304,309,0
309,309,304,310,0
309,317,304,311,0
310,322,304,312,0
311,324,305,313,0
310,323,305,313,0
307,319,305,312,0
304,315,305,312,0
301,314,305,311,0
299,312,306,311,0
298,306,307,312,0
298,302,308,313,0
300,299,310,314,0
302,297,311,314,0
302,297,311,313,0
302,299,309,312,0
302,306,308,310,0
303,314,307,308,0
304,319,306,307,0
305,320,305,306,0
305,320,303,305,0
305,320,302,305,0
304,320,301,305,0
304,319,301,307,0
303,318,300,308,0
302,317,300,309,0
300,315,299,310,0
298,309,300,310,0
297,302,301,311,0
296,298,304,311,0
296,294,307,311,0
297,288,308,311,0
297,285,310,311,0
298,285,310,311,0
298,286,311,311,0
297,284,311,311,0
296,281,312,311,0
296,280,312,311,0
298,283,313,311,0
301,287,312,311,0
305,293,312,310,0
310,300,313,310,0
313,303,313,309,0
313,305,311,308,0
312,307,309,306,0
311,310,307,304,0
311,314,306,303,0
310,316,306,302,0
308,313,306,301,0
308,308,305,301,0
309,300,306,302,0
310,290,306,303,0
312,282,305,304,0
314,280,305,305,0
313,283,305,306,0
312,288,307,307,0
310,295,309,307,0
308,300,310,306,0
308,305,311,306,0
308,313,311,305,0
308,324,310,304,0
306,333,309,301,0
305,339,305,300,0
303,340,302,298,0
300,337,300,297,0
297,331,298,296,0
294,324,298,297,0
294,318,299,298,0
295,312,301,300,0
296,307,305,303,0
297,304,307,305,0
299,305,309,306,0
301,310,310,307,0
306,318,312,308,0
311,325,315,310,0
313,329,315,310,0
310,325,314,310,0
306,316,312,311,0
303,303,310,312,0
300,290,309,313,0
298,281,308,313,0
298,276,307,312,0
298,279,307,311,0
297,291,306,309,0
297,311,304,307,0
296,331,301,306,0
297,348,300,306,0
298,359,300,306,0
301,356,301,308,0
304,339,301,310,0
305,320,301,310,0
305,304,300,309,0
305,295,299,308,0
305,289,298,306,0
304,288,298,304,0
303,290,298,304,0
303,290,299,303,0
302,288,300,303,0
301,285,300,303,0
300,284,300,303,0
300,286,302,304,0
301,290,303,304,0
302,295,305,305,0
304,298,306,306,0
304,300,307,305,0
305,304,307,305,0
305,310,306,304,0
303,310,304,301,0
302,307,303,299,0
301,308,303,297,0
300,311,302,296,0
299,315,301,295,0
298,318,302,296,0
298,315,303,298,0
297,311,304,301,0
297,306,306,304,0
298,306,309,306,0
300,311,311,308,0
302,318,312,310,0
304,322,314,311,0
306,323,314,312,0
309,323,314,313,0
312,327,314,315,0
314,334,312,315,0
313,340,309,314,0
310,341,305,313,0
305,336,302,311,0
301,328,300,309,0
298,319,299,307,0
296,309,297,306,0
293,299,297,304,0
291,289,298,304,0
291,280,300,305,0
291,275,303,305,0
293,272,307,305,0
296,274,311,304,0
297,280,313,302,0
298,288,312,302,0
298,298,311,301,0
299,306,308,302,0
299,312,305,304,0
299,314,304,305,0
300,315,303,307,0
300,313,304,308,0
300,308,308,311,0
300,299,310,312,0
298,285,312,312,0
297,269,313,310,0
296,260,313,309,0
297,260,313,308,0
299,271,314,308,0
301,288,314,309,0
303,305,313,310,0
304,320,311,311,0
305,331,310,311,0
305,336,309,311,0
305,340,307,311,0
305,342,308,310,0
306,340,309,310,0
307,336,310,311,0
309,331,311,312,0
308,326,310,312,0
308,319,308,313,0
307,315,306,313,0
305,315,304,313,0
303,315,302,313,0
299,312,300,313,0
296,308,298,312,0
294,308,298,312,0
295,315,299,313,0
296,328,301,314,0
299,340,304,314,0
302,345,307,315,0
304,339,308,315,0
304,329,307,315,0
304,324,307,313,0
305,321,308,313,0
306,318,309,312,0
306,314,311,312,0
307,307,311,312,0
307,301,312,312,0
306,297,313,311,0
303,291,312,310,0
299,285,311,308,0
295,281,310,308,0
292,281,308,308,0
290,283,306,307,0
290,288,304,307,0
291,296,302,306,0
294,305,302,306,0
297,313,301,306,0
301,321,301,306,0
305,326,303,306,0
308,326,304,307,0
309,317,305,307,0
307,302,306,306,0
306,286,306,305,0
304,271,307,304,0
302,259,308,303,0
300,250,309,303,0
299,245,310,302,0
299,249,310,303,0
299,267,309,304,0
301,293,309,306,0
302,315,308,306,0
303,328,307,306,0
301,333,305,305,0
299,333,304,304,0
296,325,303,303,0
294,314,303,303,0
293,304,305,303,0
294,302,307,304,0
296,306,309,306,0
298,311,311,306,0
299,316,311,306,0
300,322,312,306,0
302,332,312,305,0
304,343,312,304,0
307,351,312,304,0
309,352,313,305,0
309,348,313,305,0
308,337,313,306,0
307,324,312,306,0
306,314,311,306,0
306,311,310,306,0
305,312,307,306,0
304,315,306,306,0
302,323,305,306,0
301,332,305,305,0
300,339,304,305,0
299,343,303,304,0
300,342,302,305,0
300,336,301,306,0
301,326,301,307,0
303,313,302,309,0
306,300,304,309,0
310,292,306,309,0
311,287,307,307,0
310,289,307,304,0
307,296,307,301,0
306,304,306,298,0
304,307,305,296,0
300,305,304,294,0
297,302,305,295,0
295,301,306,297,0
297,301,307,300,0
299,303,309,303,0
302,306,311,306,0
304,312,311,308,0
305,315,311,309,0
304,310,309,309,0
302,299,308,307,0
300,286,308,307,0
298,273,307,307,0
297,266,307,306,0
298,264,307,307,0
299,267,306,307,0
300,274,306,306,0
301,286,306,306,0
301,298,305,305,0
302,304,304,304,0
303,303,303,303,0
303,296,303,302,0
303,284,303,302,0
302,271,303,301,0
301,259,302,301,0
301,252,303,303,0
301,249,306,304,0
301,249,308,306,0
301,253,310,308,0
302,263,312,311,0
303,279,315,313,0
304,296,315,314,0
303,309,314,314,0
303,320,313,313,0
301,331,312,311,0
300,342,310,310,0
300,353,308,309,0
301,361,307,308,0
303,364,306,308,0
304,362,304,308,0
305,356,303,308,0
306,349,304,308,0
308,338,306,310,0
310,323,308,311,0
310,308,309,312,0
310,295,309,313,0
309,290,308,313,0
308,292,308,313,0
306,299,307,313,0
304,307,305,312,0
302,315,304,311,0
300,316,303,310,0
298,312,303,310,0
297,305,303,310,0
296,300,304,310,0
297,300,305,310,0
299,307,304,309,0
300,319,304,308,0
302,330,304,308,0
303,336,304,309,0
305,329,304,310,0
307,318,305,311,0
309,312,306,312,0
311,312,308,313,0
310,316,309,312,0
308,323,308,310,0
307,329,308,310,0
308,332,309,309,0
309,329,309,309,0
308,324,309,307,0
305,318,308,303,0
301,315,307,300,0
298,312,304,297,0
294,306,303,295,0
293,297,302,295,0
295,288,303,296,0
297,282,305,298,0
301,276,307,301,0
304,271,308,304,0
305,266,308,306,0
305,263,309,309,0
305,261,310,311,0
305,262,311,314,0
304,267,309,314,0
303,278,306,313,0
303,294,303,313,0
305,312,301,312,0
305,320,300,311,0
304,319,299,310,0
302,314,299,310,0
300,311,299,310,0
298,312,300,310,0
298,318,301,309,0
299,324,302,308,0
300,324,303,305,0
300,318,302,302,0
300,311,300,299,0
300,302,299,298,0
300,296,299,298,0
301,295,300,300,0
301,299,302,300,0
301,307,305,301,0
303,316,309,303,0
306,324,313,307,0
310,332,317,310,0
314,339,318,312,0
316,345,319,311,0
314,349,318,310,0
310,350,316,309,0
306,344,313,308,0
303,336,311,307,0
302,327,309,307,0
302,321,308,307,0
303,319,308,307,0
303,318,307,306,0
302,316,306,306,0
301,313,304,305,0
300,309,303,305,0
300,302,301,304,0
299,293,300,304,0
300,284,299,304,0
300,276,299,304,0
300,271,300,303,0
299,266,301,302,0
298,266,301,302,0
296,273,300,302,0
295,285,301,304,0
295,296,301,306,0
294,303,302,308,0
294,307,303,309,0
295,307,305,310,0
295,304,306,310,0
296,298,306,310,0
296,291,307,310,0
297,286,306,309,0
298,281,306,308,0
301,280,305,309,0
305,285,306,310,0
308,297,306,311,0
310,314,308,311,0
311,330,309,311,0
310,337,311,310,0
307,333,311,309,0
303,322,310,307,0
301,309,309,306,0
301,305,308,305,0
301,309,308,304,0
301,319,308,303,0
303,331,309,303,0
305,339,309,303,0
307,337,311,304,0
309,330,312,305,0
310,321,312,305,0
309,312,311,305,0
308,306,310,305,0
307,303,309,306,0
308,303,309,307,0
309,306,309,307,0
310,312,309,307,0
309,317,308,307,0
309,322,307,307,0
308,328,307,307,0
307,336,306,307,0
307,342,304,307,0
304,339,302,306,0
301,328,301,305,0
298,313,299,304,0
296,299,298,304,0
296,283,299,304,0
295,265,301,307,0
296,253,303,310,0
297,250,305,311,0
298,259,306,310,0
298,272,305,309,0
299,288,305,307,0
300,305,306,306,0
301,322,307,306,0
302,332,307,305,0
303,333,306,305,0
303,327,303,305,0
304,317,302,307,0
305,302,301,309,0
304,285,301,312,0
303,269,302,314,0
300,261,304,315,0
297,263,305,316,0
295,274,305,314,0
293,288,304,312,0
293,300,303,311,0
294,312,303,309,0
296,319,303,308,0
297,322,303,307,0
299,322,303,306,0
301,318,302,307,0
303,314,302,309,0
302,308,303,309,0
301,303,303,310,0
300,302,304,310,0
300,308,305,311,0
302,320,305,311,0
303,333,305,310,0
305,342,305,308,0
306,339,305,307,0
307,327,305,307,0
307,312,306,309,0
306,300,308,310,0
305,290,309,311,0
303,283,310,312,0
302,276,311,312,0
302,272,312,312,0
303,270,314,311,0
303,271,314,310,0
303,276,312,307,0
302,282,310,305,0
302,288,308,303,0
301,293,307,302,0
301,295,307,304,0
302,294,307,305,0
303,295,308,308,0
305,301,309,310,0
307,309,308,312,0
307,317,307,313,0
307,326,305,312,0
307,333,304,311,0
306,335,302,311,0
306,335,302,311,0
307,336,302,311,0
308,335,304,311,0
309,333,304,311,0
309,332,305,311,0
307,332,306,310,0
304,330,307,310,0
300,324,308,310,0
297,314,309,309,0
296,305,309,310,0
297,299,309,310,0
299,295,309,310,0
301,295,307,309,0
302,297,305,309,0
304,300,305,310,0
305,300,307,311,0
305,295,309,312,0
304,294,311,311,0
302,302,313,309,0
300,314,314,307,0
299,327,315,307,0
301,338,316,307,0
302,344,317,307,0
303,343,316,307,0
303,339,315,306,0
303,335,313,304,0
303,330,310,302,0
304,325,307,300,0
304,320,304,298,0
304,316,302,298,0
304,313,303,298,0
304,312,304,300,0
302,310,304,302,0
300,304,304,303,0
298,296,304,305,0
297,289,304,306,0
298,286,304,307,0
300,285,305,308,0
302,289,305,308,0
302,295,304,306,0
301,302,304,304,0
301,308,303,302,0
299,310,302,301,0
298,307,301,300,0
297,302,301,300,0
298,294,302,302,0
299,283,304,306,0
300,270,306,310,0
302,260,309,314,0
303,257,312,317,0
304,264,314,319,0
304,276,315,320,0
304,283,315,320,0
305,282,314,319,0
304,279,312,317,0
302,281,309,315,0
302,295,307,313,0
302,315,306,312,0
301,333,303,311,0
299,344,300,309,0
299,350,298,308,0
300,350,297,308,0
302,346,295,306,0
303,339,295,305,0
305,333,295,305,0
308,331,297,305,0
310,328,298,306,0
310,323,300,307,0
310,318,301,308,0
308,315,302,309,0
307,313,304,309,0
307,312,306,309,0
307,310,309,310,0
307,306,311,310,0
307,299,311,309,0
306,291,310,307,0
305,282,309,307,0
306,277,309,307,0
307,276,310,308,0
308,276,310,308,0
305,276,307,307,0
302,278,305,305,0
299,284,303,304,0
299,290,304,304,0
299,293,307,305,0
300,295,310,306,0
301,294,312,306,0
301,294,313,306,0
301,298,313,305,0
301,306,312,304,0
302,313,310,302,0
302,316,308,301,0
302,314,307,300,0
303,311,306,300,0
306,313,308,302,0
310,319,310,304,0
314,324,311,306,0
314,326,310,306,0
311,326,309,305,0
308,324,307,306,0
306,324,307,305,0
306,324,307,305,0
307,322,307,305,0
309,317,308,306,0
311,311,309,307,0
311,308,309,307,0
312,311,310,309,0
314,321,313,312,0
315,324,314,314,0
314,317,315,314,0
313,304,315,314,0
313,291,314,313,0
311,277,313,313,0
311,265,312,313,0
311,263,312,313,0
312,273,313,313,0
311,290,313,313,0
308,304,311,312,0
304,312,310,310,0
299,317,309,308,0
297,321,308,307,0
295,323,308,306,0
294,321,307,306,0
293,314,306,305,0
292,304,304,305,0
292,295,303,304,0
293,289,301,303,0
296,291,300,301,0
299,299,300,300,0
302,307,300,299,0
304,313,301,298,0
306,315,302,299,0
308,318,304,302,0
310,323,306,305,0
310,326,307,307,0
310,327,307,307,0
310,327,306,307,0
309,325,307,307,0
308,324,308,306,0
307,325,309,306,0
307,326,310,308,0
307,323,310,310,0
306,316,311,311,0
305,311,311,312,0
305,309,311,313,0
304,310,310,314,0
303,312,309,314,0
302,313,308,314,0
302,312,307,314,0
303,310,309,314,0
305,303,310,313,0
306,299,312,314,0
305,303,313,314,0
304,311,312,314,0
303,311,309,313,0
300,304,306,311,0
299,300,304,309,0
299,299,302,308,0
300,302,301,307,0
302,305,301,306,0
303,306,300,305,0
303,305,300,305,0
303,300,301,305,0
303,293,302,305,0
303,285,303,305,0
304,279,304,305,0
305,276,305,306,0
306,280,306,307,0
307,288,307,307,0
308,294,305,307,0
308,299,304,307,0
307,304,302,307,0
308,312,301,308,0
309,318,300,307,0
311,321,301,307,0
312,321,303,306,0
312,318,305,304,0
310,309,306,301,0
304,298,305,298,0
298,285,304,296,0
294,271,304,295,0
291,265,304,295,0
290,269,305,296,0
291,281,307,298,0
292,295,310,303,0
294,309,313,307,0
295,322,314,310,0
297,331,314,313,0
297,331,313,315,0
296,319,311,316,0
294,305,308,317,0
294,297,306,317,0
294,295,306,318,0
296,298,305,318,0
298,309,305,317,0
299,321,304,315,0
300,328,302,313,0
300,328,301,311,0
301,324,300,310,0
301,321,301,309,0
302,323,303,309,0
304,330,305,310,0
309,340,308,310,0
312,342,309,310,0
313,336,308,309,0
312,327,306,309,0
310,320,304,308,0
308,313,303,308,0
307,309,302,309,0
307,309,303,310,0
307,311,304,309,0
307,309,305,307,0
307,308,306,304,0
307,302,307,301,0
307,291,308,300,0
306,277,308,300,0
306,268,309,301,0
306,266,310,303,0
305,264,310,304,0
305,263,310,305,0
306,268,308,306,0
305,278,305,305,0
304,292,303,305,0
303,304,302,305,0
301,309,303,305,0
300,306,306,306,0
299,296,308,306,0
298,286,311,308,0
299,284,313,309,0
299,292,314,310,0
300,308,314,311,0
302,324,313,311,0
304,336,312,312,0
306,340,311,311,0
307,335,310,311,0
308,326,310,310,0
309,322,310,310,0
308,321,310,309,0
306,323,310,309,0
305,328,312,309,0
304,333,312,309,0
302,333,312,309,0
300,331,311,310,0
300,328,311,310,0
302,326,309,310,0
303,321,309,310,0
304,314,308,310,0
304,308,308,309,0
302,305,306,308,0
300,301,305,308,0
298,298,303,307,0
297,298,303,306,0
298,305,304,305,0
302,318,305,304,0
307,333,306,304,0
310,340,307,304,0
311,339,306,303,0
309,331,305,303,0
304,319,301,303,0
300,308,298,302,0
297,299,297,302,0
295,293,297,302,0
295,287,298,303,0
296,283,302,305,0
298,282,305,308,0
301,283,309,311,0
303,282,312,315,0
305,278,314,319,0
305,272,315,320,0
304,269,316,320,0
303,272,317,319,0
303,278,316,318,0
303,284,315,316,0
302,287,313,314,0
302,286,312,312,0
302,285,311,312,0
302,287,311,311,0
301,290,311,310,0
301,297,310,308,0
301,308,308,307,0
303,319,307,307,0
306,328,306,307,0
309,331,306,307,0
309,328,305,307,0
309,322,305,306,0
308,321,305,306,0
308,322,305,307,0
307,320,305,307,0
306,315,305,307,0
304,307,305,307,0
303,302,305,307,0
303,302,306,306,0
304,305,306,304,0
306,310,306,302,0
306,318,305,300,0
306,328,304,299,0
307,336,304,301,0
310,341,304,304,0
313,341,305,307,0
313,337,305,309,0
310,331,305,311,0
306,325,305,312,0
303,324,306,312,0
302,329,307,311,0
301,330,307,312,0
301,326,308,312,0
302,318,308,311,0
303,311,308,311,0
304,307,308,311,0
305,307,307,310,0
304,309,306,308,0
304,309,305,305,0
303,306,304,303,0
303,302,303,302,0
304,296,304,301,0
305,291,304,302,0
308,290,305,304,0
310,292,306,305,0
310,294,306,307,0
311,294,306,308,0
312,292,306,309,0
313,290,305,310,0
314,284,304,308,0
312,273,302,307,0
309,263,300,306,0
304,263,300,305,0
301,272,301,306,0
300,290,304,306,0
300,311,307,305,0
300,326,309,306,0
300,335,310,307,0
301,336,312,308,0
304,332,313,310,0
307,329,313,312,0
308,329,314,313,0
307,333,314,311,0
304,334,312,309,0
301,333,311,307,0
299,330,310,306,0
299,329,310,307,0
299,329,311,308,0
300,326,310,308,0
300,319,310,308,0
300,313,310,308,0
301,311,311,308,0
301,313,310,307,0
301,315,308,305,0
300,314,306,303,0
299,311,304,301,0
299,307,302,300,0
298,303,301,300,0
298,297,301,300,0
299,290,301,301,0
300,282,302,302,0
300,274,302,304,0
299,269,302,305,0
299,271,303,307,0
301,279,305,310,0
304,293,308,311,0
305,309,308,310,0
306,323,306,307,0
304,335,304,304,0
303,345,302,302,0
303,350,303,303,0
303,346,304,304,0
303,335,305,305,0
303,322,306,307,0
302,311,305,307,0
303,306,304,307,0
304,304,304,306,0
307,304,306,306,0
310,305,306,306,0
310,303,306,304,0
309,302,305,302,0
308,306,304,302,0
307,316,305,302,0
305,326,307,303,0
304,334,308,305,0
301,338,308,305,0
299,337,306,306,0
297,333,303,306,0
297,327,300,305,0
297,322,300,306,0
298,318,301,308,0
299,317,301,309,0
300,318,301,308,0
299,319,300,306,0
299,319,299,305,0
299,319,299,305,0
299,318,299,305,0
300,313,300,306,0
301,309,301,306,0
303,308,303,305,0
305,309,303,304,0
306,308,304,303,0
306,306,304,303,0
305,301,305,304,0
303,291,305,304,0
301,282,306,304,0
300,277,307,304,0
300,274,307,305,0
300,277,305,305,0
302,285,304,306,0
305,301,304,307,0
309,316,305,308,0
311,320,307,309,0
311,316,308,310,0
310,308,309,310,0
309,302,309,311,0
307,296,310,311,0
304,292,309,310,0
303,294,307,310,0
302,301,306,309,0
302,308,305,309,0
304,311,304,310,0
306,308,306,311,0
308,304,307,312,0
309,303,307,312,0
308,304,306,311,0
307,309,303,309,0
304,315,303,307,0
303,322,304,307,0
303,329,305,306,0
302,332,306,307,0
301,333,307,307,0
301,333,308,308,0
301,330,308,309,0
300,326,306,310,0
300,317,306,310,0
300,306,306,310,0
300,293,307,310,0
300,280,308,311,0
300,266,309,312,0
300,257,309,313,0
300,254,309,314,0
301,258,310,314,0
302,272,309,313,0
302,290,306,310,0
301,311,303,307,0
301,332,302,305,0
302,347,301,305,0
304,356,302,305,0
306,359,304,306,0
308,354,305,307,0
307,340,306,308,0
305,323,308,309,0
303,308,310,311,0
302,296,313,311,0
301,292,314,312,0
302,296,314,312,0
304,300,315,313,0
307,303,317,313,0
311,306,317,314,0
312,309,317,314,0
310,311,314,313,0
306,311,311,312,0
302,313,308,310,0
300,315,305,308,0
298,318,304,306,0
299,319,304,305,0
300,316,304,304,0
300,309,302,303,0
299,296,301,303,0
298,282,300,303,0
298,275,300,304,0
297,274,301,305,0
298,278,301,305,0
298,285,301,305,0
298,292,299,305,0
297,301,298,305,0
297,305,297,305,0
297,302,297,306,0
298,298,298,308,0
299,294,300,309,0
299,290,301,309,0
300,288,303,308,0
301,287,305,309,0
302,286,308,309,0
304,287,309,309,0
305,295,310,309,0
307,309,311,308,0
309,325,311,307,0
310,336,309,305,0
310,342,307,304,0
308,342,305,303,0
305,337,304,304,0
303,330,304,305,0
302,322,304,306,0
303,316,304,308,0
304,312,305,308,0
306,312,305,309,0
308,313,306,309,0
309,313,307,310,0
311,311,308,310,0
311,308,308,309,0
311,303,307,309,0
311,298,306,308,0
309,295,305,307,0
307,294,303,307,0
306,294,301,306,0
304,294,299,307,0
304,295,297,308,0
304,300,297,310,0
306,310,298,312,0
307,320,299,313,0
306,325,298,312,0
304,323,297,311,0
302,314,298,311,0
300,305,300,311,0
299,300,304,311,0
300,295,309,312,0
301,291,312,312,0
303,289,313,311,0
305,290,314,311,0
306,296,314,311,0
306,301,313,310,0
305,307,313,310,0
305,315,313,311,0
307,318,314,311,0
307,313,313,312,0
306,310,311,312,0
304,312,307,311,0
303,315,304,310,0
301,318,302,309,0
300,320,301,309,0
300,320,302,310,0
301,317,304,312,0
304,312,308,314,0
307,309,311,316,0
309,309,312,317,0
311,312,312,317,0
312,314,312,317,0
311,313,310,315,0
310,309,310,314,0
309,304,310,312,0
306,301,309,310,0
304,303,308,308,0
303,311,307,307,0
302,320,306,307,0
302,327,306,306,0
302,331,305,305,0
301,332,304,304,0
301,331,303,302,0
303,327,302,301,0
305,322,302,300,0
306,315,302,299,0
307,306,302,300,0
308,302,302,302,0
309,304,303,304,0
310,310,303,306,0
310,314,303,307,0
310,311,303,309,0
309,301,303,310,0
309,291,304,310,0
307,287,305,310,0
307,291,305,310,0
306,298,305,310,0
304,304,306,310,0
304,308,307,310,0
304,309,307,309,0
304,307,307,307,0
303,305,306,305,0
303,303,306,304,0
304,301,306,303,0
305,302,307,303,0
307,304,308,303,0
307,303,307,304,0
308,298,307,304,0
308,293,307,304,0
309,292,307,304,0
308,289,307,303,0
305,288,306,302,0
304,292,306,303,0
305,302,306,304,0
306,309,306,305,0
308,306,305,305,0
310,300,303,306,0
312,300,303,307,0
315,304,303,308,0
317,306,304,310,0
317,307,305,311,0
316,308,305,311,0
315,312,307,311,0
317,318,309,311,0
317,324,310,309,0
316,326,309,306,0
313,324,308,303,0
310,319,307,301,0
308,313,305,300,0
306,306,304,299,0
306,297,303,299,0
306,290,303,298,0
307,286,304,299,0
308,288,305,299,0
308,295,306,300,0
308,303,307,301,0
310,310,309,303,0
311,315,311,304,0
311,315,310,305,0
309,314,309,304,0
307,312,307,304,0
305,309,303,303,0
304,306,301,302,0
304,304,300,301,0
306,309,301,302,0
309,320,303,303,0
312,327,306,304,0
313,328,307,304,0
313,325,308,306,0
313,321,310,308,0
313,318,312,311,0
312,313,313,312,0
310,309,313,312,0
307,305,312,311,0
305,300,311,310,0
305,297,311,309,0
305,296,310,308,0
306,299,308,307,0
309,307,307,308,0
312,318,307,310,0
315,328,307,313,0
314,336,308,314,0
312,340,308,315,0
308,342,307,315,0
305,338,306,313,0
302,328,305,313,0
300,317,306,313,0
300,307,306,313,0
301,299,306,312,0
302,291,307,311,0
303,288,309,310,0
306,293,312,309,0
308,302,313,307,0
310,311,313,306,0
311,313,312,306,0
310,310,311,307,0
307,303,310,308,0
304,299,311,309,0
303,300,311,311,0
302,304,313,313,0
303,310,313,313,0
303,313,313,312,0
304,310,311,310,0
304,304,308,307,0
303,297,306,304,0
304,290,304,302,0
305,287,303,301,0
306,288,304,302,0
307,290,305,303,0
308,289,307,304,0
307,288,308,305,0
307,288,309,306,0
307,292,309,306,0
308,300,309,307,0
309,309,309,308,0
309,317,308,308,0
309,323,307,308,0
311,329,306,310,0
313,335,308,312,0
314,337,311,315,0
313,332,313,317,0
311,324,313,317,0
307,312,311,316,0
305,301,309,314,0
303,296,307,311,0
303,295,306,309,0
304,300,307,309,0
305,308,307,309,0
306,317,309,309,0
308,322,311,310,0
310,319,312,310,0
310,310,311,309,0
309,297,309,307,0
308,287,307,305,0
308,281,306,306,0
309,280,306,308,0
309,285,304,308,0
309,294,300,307,0
307,302,296,305,0
305,306,293,305,0
304,309,292,305,0
304,315,292,305,0
305,319,292,305,0
306,317,290,305,0
307,316,291,305,0
309,320,292,305,0
311,324,295,304,0
311,326,297,303,0
310,324,298,303,0
308,321,301,304,0
306,317,304,305,0
306,313,308,306,0
307,309,312,308,0
309,307,315,310,0
309,304,316,309,0
307,297,315,307,0
303,289,312,304,0
300,284,311,302,0
298,284,311,302,0
299,289,313,304,0
300,293,314,305,0
301,298,314,306,0
300,305,312,306,0
298,314,310,305,0
295,319,308,305,0
294,319,307,305,0
293,316,307,306,0
295,312,308,308,0
298,308,309,310,0
301,305,311,311,0
302,300,313,312,0
303,296,315,313,0
303,293,315,313,0
303,291,315,312,0
304,293,314,312,0
307,298,314,311,0
311,300,312,309,0
312,297,310,306,0
310,291,306,302,0
306,288,303,299,0
302,294,302,298,0
301,307,302,299,0
300,321,302,300,0
299,331,303,301,0
299,335,303,301,0
299,336,304,302,0
299,337,304,301,0
301,343,305,302,0
303,349,307,301,0
304,347,308,300,0
304,339,309,300,0
304,331,310,301,0
304,324,312,303,0
304,317,313,305,0
304,308,314,308,0
304,301,314,311,0
301,295,312,312,0
299,292,311,312,0
298,294,310,312,0
298,300,310,311,0
298,307,309,309,0
299,310,308,307,0
299,307,307,305,0
299,300,306,304,0
300,293,306,304,0
303,290,307,305,0
306,293,307,305,0
307,301,308,303,0
308,311,307,302,0
308,320,307,300,0
307,323,307,299,0
306,323,308,300,0
306,321,309,302,0
306,318,310,304,0
305,315,309,306,0
303,312,307,306,0
302,309,306,306,0
300,307,305,307,0
299,306,304,308,0
298,308,304,309,0
298,310,304,309,0
299,308,304,308,0
300,299,303,307,0
302,287,303,307,0
305,275,303,308,0
308,268,305,309,0
310,267,308,310,0
310,271,310,310,0
311,280,312,310,0
311,292,312,310,0
312,301,312,308,0
312,307,312,307,0
313,315,313,306,0
315,325,314,307,0
315,337,315,308,0
315,345,315,309,0
314,345,313,309,0
313,337,309,309,0
312,330,308,309,0
313,327,308,308,0
313,325,308,307,0
309,317,307,305,0
303,307,304,302,0
298,299,302,301,0
295,299,300,300,0
295,303,299,301,0
297,311,299,303,0
299,318,300,304,0
301,322,300,305,0
302,322,300,306,0
303,319,301,306,0
305,313,301,307,0
307,303,302,308,0
308,293,302,308,0
308,288,299,307,0
307,286,295,305,0
305,288,292,303,0
303,290,289,302,0
301,294,288,301,0
299,300,288,301,0
298,303,290,302,0
298,306,292,303,0
299,307,296,305,0
301,313,300,307,0
304,324,305,309,0
306,332,308,309,0
308,334,310,308,0
308,328,309,305,0
306,314,307,302,0
304,297,305,300,0
302,282,303,298,0
300,272,301,297,0
299,269,300,298,0
299,272,299,299,0
301,280,299,301,0
304,288,300,303,0
308,295,301,305,0
311,298,304,306,0
311,297,306,306,0
310,299,306,306,0
308,306,306,306,0
309,317,307,305,0
310,326,308,303,0
309,329,308,300,0
309,328,308,297,0
307,325,308,293,0
304,324,307,290,0
301,323,306,290,0
300,321,305,292,0
300,319,304,295,0
301,316,304,299,0
303,311,305,302,0
305,310,307,305,0
306,312,308,307,0
306,312,306,307,0
304,310,305,308,0
304,306,305,309,0
304,300,306,311,0
304,295,308,313,0
303,292,310,315,0
302,287,312,316,0
302,281,313,317,0
302,275,314,317,0
303,273,313,316,0
304,282,312,316,0
307,301,310,314,0
309,320,306,312,0
310,333,304,310,0
310,338,302,308,0
309,337,301,308,0
309,336,302,309,0
310,335,305,311,0
312,334,308,314,0
313,332,310,316,0
313,332,311,317,0
314,332,313,317,0
314,328,314,316,0
311,321,313,315,0
307,311,311,313,0
303,303,310,312,0
301,300,308,312,0
301,301,306,312,0
302,301,305,312,0
304,299,304,312,0
304,295,304,312,0
305,288,304,312,0
304,280,304,312,0
304,272,305,312,0
305,266,307,313,0
307,261,308,313,0
309,261,309,314,0
312,270,310,315,0
318,292,312,316,0
323,320,313,317,0
324,342,313,316,0
323,353,311,314,0
319,352,308,311,0
316,346,304,309,0
314,338,302,308,0
313,331,300,308,0
312,323,298,308,0
308,313,296,307,0
306,307,295,306,0
305,308,295,304,0
304,310,296,304,0
304,313,298,304,0
304,313,299,304,0
304,312,299,305,0
302,309,301,307,0
300,307,302,308,0
298,309,302,310,0
298,313,303,311,0
299,317,304,312,0
300,318,305,313,0
301,313,304,313,0
302,305,303,313,0
302,299,303,312,0
303,295,304,312,0
304,290,307,312,0
305,283,310,313,0
308,275,312,313,0
309,268,313,312,0
307,265,312,310,0
304,272,309,307,0
302,285,305,304,0
301,294,303,303,0
302,298,301,303,0
303,297,299,302,0
303,296,299,301,0
303,298,299,300,0
302,302,300,299,0
302,310,302,298,0
303,321,305,299,0
306,331,308,300,0
308,336,310,299,0
309,336,311,299,0
308,334,310,299,0
305,330,308,301,0
305,326,308,304,0
305,323,309,307,0
305,323,310,309,0
305,327,310,309,0
306,333,310,309,0
308,334,310,309,0
309,334,311,308,0
310,331,310,308,0
310,330,308,308,0
309,332,306,307,0
309,329,304,306,0
309,317,303,306,0
309,304,304,307,0
311,295,306,310,0
312,295,307,312,0
311,300,308,313,0
310,310,308,313,0
307,318,308,313,0
305,323,308,313,0
304,326,308,313,0
305,325,307,313,0
308,322,306,314,0
310,320,305,314,0
311,320,304,313,0
311,320,303,313,0
310,319,303,313,0
311,314,304,314,0
311,306,306,316,0
312,292,308,317,0
310,272,308,318,0
307,252,308,318,0
304,236,306,317,0
303,229,306,316,0
304,229,306,315,0
306,237,306,315,0
307,254,306,313,0
306,277,306,311,0
306,301,306,309,0
307,319,306,308,0
307,328,306,307,0
308,331,306,307,0
307,329,307,308,0
306,324,307,309,0
305,317,308,311,0
304,305,308,311,0
304,289,306,313,0
304,276,305,314,0
305,266,306,314,0
306,265,305,314,0
306,275,303,311,0
306,293,301,309,0
307,313,300,307,0
310,332,300,305,0
313,347,301,305,0
315,353,302,304,0
311,349,302,302,0
306,339,302,301,0
302,328,302,301,0
301,317,303,302,0
301,309,303,303,0
302,302,304,304,0
302,296,305,304,0
302,290,304,305,0
302,290,304,306,0
303,295,303,306,0
303,305,303,307,0
304,312,304,308,0
304,317,304,309,0
305,320,305,310,0
307,319,304,310,0
307,315,303,309,0
306,313,301,308,0
305,312,301,306,0
303,311,299,305,0
300,307,296,303,0
299,303,295,303,0
298,301,295,302,0
298,302,296,302,0
300,306,297,303,0
301,312,300,304,0
302,318,302,304,0
302,319,303,305,0
303,313,305,306,0
305,303,305,305,0
306,296,306,305,0
307,294,307,303,0
308,294,308,301,0
309,296,308,300,0
310,299,309,300,0
310,305,311,300,0
311,310,314,301,0
310,305,315,301,0
308,291,315,302,0
307,279,315,302,0
307,276,314,302,0
307,284,313,301,0
308,297,312,299,0
308,307,310,298,0
307,312,307,297,0
305,314,303,296,0
304,312,299,295,0
305,308,296,294,0
308,307,296,294,0
310,305,296,295,0
309,300,296,295,0
305,294,296,295,0
300,289,296,296,0
297,294,299,298,0
296,308,303,302,0
298,321,306,305,0
301,328,308,307,0
303,329,310,309,0
305,327,312,310,0
305,325,313,311,0
305,325,314,311,0
305,326,314,312,0
304,326,312,313,0
304,327,311,313,0
304,326,309,314,0
304,324,307,313,0
304,322,307,313,0
303,319,307,314,0
303,315,308,314,0
304,310,309,314,0
304,306,309,315,0
304,302,309,316,0
304,302,309,316,0
304,305,309,317,0
303,308,308,317,0
302,306,308,316,0
302,301,310,317,0
302,292,311,317,0
301,279,312,317,0
301,268,313,316,0
302,262,312,315,0
302,260,310,314,0
302,260,309,311,0
302,262,307,309,0
302,267,306,308,0
303,275,306,307,0
305,289,306,307,0
309,309,307,308,0
315,326,308,308,0
319,337,308,309,0
321,343,307,308,0
320,342,304,307,0
315,332,299,305,0
308,320,295,303,0
302,308,292,302,0
298,298,291,303,0
297,288,293,304,0
297,279,295,304,0
296,271,297,305,0
295,270,299,306,0
295,272,302,307,0
297,281,306,308,0
299,296,308,308,0
300,312,308,306,0
300,326,307,304,0
300,335,306,302,0
300,339,307,303,0
300,338,308,304,0
301,337,310,305,0
302,338,311,305,0
303,340,312,307,0
304,343,312,308,0
304,345,312,308,0
303,345,312,309,0
302,339,311,308,0
302,330,310,309,0
303,320,310,309,0
305,312,309,309,0
306,305,309,310,0
307,302,308,309,0
309,302,307,309,0
311,305,308,308,0
314,313,308,307,0
316,323,308,305,0
317,327,305,302,0
315,321,303,299,0
311,310,301,297,0
306,297,300,298,0
303,283,301,299,0
300,269,304,302,0
298,257,306,305,0
296,246,306,306,0
294,237,304,305,0
292,231,301,303,0
293,227,299,301,0
296,228,298,301,0
300,236,299,301,0
305,253,301,303,0
311,275,306,305,0
315,298,310,308,0
318,320,313,310,0
318,336,312,310,0
315,342,309,309,0
312,343,307,309,0
308,340,304,307,0
304,337,303,305,0
303,339,303,304,0
302,345,303,303,0
300,345,302,302,0
299,342,302,303,0
299,336,303,304,0
299,331,304,306,0
300,327,305,307,0
301,327,306,308,0
303,327,308,308,0
304,324,310,309,0
305,319,311,310,0
306,314,310,311,0
308,312,310,311,0
309,309,311,311,0
309,306,310,310,0
306,301,308,308,0
304,296,306,308,0
304,293,305,308,0
304,294,304,309,0
304,295,302,309,0
303,295,302,308,0
302,296,302,308,0
302,297,302,309,0
301,299,302,308,0
300,298,303,308,0
301,295,303,309,0
302,290,306,310,0
303,283,308,312,0
303,277,312,313,0
303,275,315,314,0
304,281,317,314,0
306,291,319,315,0
308,303,320,315,0
309,315,319,315,0
309,324,317,314,0
307,327,314,313,0
306,323,311,312,0
306,315,309,311,0
306,307,307,310,0
306,302,305,309,0
306,300,303,308,0
307,300,302,307,0
308,299,300,307,0
308,299,298,307,0
310,301,296,308,0
312,309,294,308,0
312,319,293,308,0
311,331,292,307,0
308,343,292,305,0
305,345,294,304,0
302,336,297,305,0
301,318,300,306,0
301,298,303,307,0
302,283,306,308,0
303,277,309,308,0
305,280,312,308,0
306,292,313,306,0
306,305,313,305,0
305,318,312,304,0
304,325,311,303,0
304,327,309,304,0
304,326,310,304,0
305,322,310,304,0
307,317,311,305,0
309,315,313,306,0
310,316,314,308,0
309,318,315,308,0
305,321,314,308,0
300,321,314,307,0
295,316,314,307,0
293,309,314,307,0
292,303,314,307,0
293,301,313,307,0
295,300,312,307,0
296,300,311,307,0
298,301,310,308,0
299,303,309,308,0
300,304,309,309,0
300,302,309,309,0
299,295,309,309,0
298,288,309,309,0
298,282,309,308,0
297,281,308,307,0
297,285,305,305,0
298,293,303,302,0
298,301,301,300,0
298,308,301,298,0
298,312,300,297,0
299,311,300,296,0
302,307,300,297,0
305,303,302,298,0
309,298,302,298,0
311,293,302,297,0
311,291,300,296,0
310,294,299,295,0
310,302,298,297,0
310,311,299,300,0
311,318,300,304,0
313,320,303,309,0
313,315,305,314,0
314,308,308,318,0
314,303,311,322,0
313,305,312,322,0
311,311,311,319,0
310,317,308,315,0
308,317,305,312,0
306,314,304,310,0
305,308,304,309,0
304,298,305,310,0
303,290,305,311,0
301,287,305,312,0
302,288,305,312,0
304,294,304,312,0
307,303,304,313,0
310,315,305,313,0
312,328,306,314,0
312,337,306,314,0
309,337,304,314,0
305,329,302,313,0
302,318,302,314,0
300,309,303,315,0
301,304,304,316,0
302,304,307,318,0
303,306,310,319,0
303,306,311,320,0
301,305,310,319,0
300,303,309,317,0
300,301,308,315,0
300,299,307,313,0
300,298,305,311,0
299,296,304,309,0
298,292,303,307,0
296,289,304,306,0
296,290,305,305,0
297,298,306,304,0
297,310,305,303,0
298,321,303,303,0
300,327,302,305,0
304,329,303,310,0
310,332,306,314,0
317,336,307,318,0
321,337,306,320,0
321,331,305,319,0
318,322,302,317,0
313,309,299,315,0
308,294,296,313,0
304,284,294,312,0
300,282,293,311,0
298,286,293,310,0
297,290,294,310,0
299,291,296,310,0
301,289,297,310,0
302,289,299,309,0
303,294,300,309,0
303,301,302,309,0
305,307,304,310,0
306,313,306,310,0
308,319,307,311,0
311,325,307,311,0
314,331,308,310,0
316,336,308,310,0
317,336,307,309,0
315,333,307,308,0
313,326,306,309,0
311,316,306,311,0
307,304,306,312,0
305,298,307,313,0
305,300,309,314,0
305,305,311,313,0
306,307,309,311,0
304,304,307,309,0
302,297,305,307,0
300,291,303,305,0
299,291,302,306,0
300,293,303,307,0
302,298,304,308,0
303,302,305,308,0
304,304,305,308,0
305,304,305,308,0
305,302,305,308,0
305,300,305,308,0
305,301,306,309,0
306,305,308,309,0
306,311,309,308,0
305,313,308,307,0
305,312,306,306,0
304,308,304,305,0
305,303,304,306,0
307,299,304,307,0
306,297,307,310,0
306,299,310,314,0
307,310,312,317,0
307,323,313,319,0
307,334,312,319,0
307,335,309,317,0
305,331,305,314,0
304,327,302,312,0
304,320,301,311,0
305,312,300,309,0
306,305,300,307,0
306,301,299,305,0
305,298,300,303,0
305,295,302,304,0
304,293,303,304,0
306,295,305,305,0
309,299,305,306,0
313,302,306,306,0
317,307,308,308,0
320,313,310,308,0
319,316,310,307,0
317,313,309,306,0
314,305,308,307,0
312,297,309,309,0
311,290,312,311,0
312,289,314,312,0
312,295,315,314,0
311,305,314,313,0
308,313,312,312,0
305,317,309,310,0
303,314,307,309,0
301,304,305,307,0
300,292,304,306,0
299,281,303,305,0
298,273,304,305,0
297,269,305,305,0
297,275,307,306,0
299,289,309,307,0
302,304,309,308,0
305,315,309,308,0
308,319,310,309,0
311,319,311,311,0
315,316,312,313,0
316,310,311,315,0
313,304,309,315,0
309,299,307,313,0
305,296,305,312,0
304,299,303,311,0
305,307,301,309,0
307,317,301,308,0
310,329,300,308,0
312,340,300,307,0
313,345,299,306,0
311,345,298,305,0
306,338,296,304,0
302,327,296,303,0
299,315,296,304,0
298,307,297,305,0
298,302,299,305,0
299,298,301,307,0
302,298,302,309,0
304,301,304,310,0
305,302,305,311,0
307,306,306,312,0
308,313,306,311,0
309,320,306,310,0
309,323,306,310,0
308,321,305,309,0
306,314,303,308,0
304,305,301,307,0
302,295,301,307,0
300,285,301,307,0
298,279,302,308,0
297,278,302,309,0
297,282,301,310,0
299,291,300,310,0
302,303,299,310,0
306,310,301,311,0
311,314,303,312,0
314,316,306,312,0
315,319,309,312,0
315,323,311,311,0
313,326,312,310,0
311,328,311,307,0
308,330,310,306,0
306,329,308,305,0
306,325,306,305,0
306,317,305,305,0
306,303,305,304,0
306,290,306,303,0
307,286,306,301,0
307,290,306,299,0
306,296,305,298,0
304,303,304,298,0
302,312,303,297,0
301,319,301,298,0
300,324,300,299,0
300,326,301,301,0
301,327,303,303,0
303,330,304,305,0
305,333,306,306,0
307,335,307,306,0
307,334,307,308,0
308,332,307,309,0
309,331,308,311,0
309,329,308,313,0
309,325,308,314,0
307,321,307,314,0
305,315,307,314,0
303,310,308,314,0
301,303,308,313,0
298,295,308,312,0
297,289,308,311,0
296,286,308,311,0
297,286,307,311,0
299,290,307,312,0
301,299,306,313,0
302,311,304,313,0
304,320,302,314,0
305,322,300,316,0
307,319,300,317,0
309,314,301,318,0
310,312,303,319,0
312,312,305,319,0
311,312,307,318,0
307,309,308,317,0
304,299,308,316,0
301,283,309,314,0
299,264,310,313,0
298,250,311,313,0
297,243,311,313,0
297,247,311,312,0
298,260,311,310,0
300,278,311,309,0
302,292,311,308,0
305,298,311,308,0
307,297,312,308,0
310,294,312,309,0
312,294,311,310,0
312,298,309,309,0
312,306,308,308,0
311,313,307,308,0
310,317,306,307,0
310,320,305,307,0
310,321,304,306,0
309,318,304,304,0
309,313,304,303,0
309,309,304,301,0
308,312,304,300,0
308,320,304,301,0
307,327,304,302,0
306,329,304,303,0
306,325,304,304,0
305,321,304,304,0
306,318,304,306,0
307,317,305,306,0
307,319,304,306,0
306,320,303,306,0
306,322,302,307,0
306,321,302,307,0
306,319,303,307,0
306,318,304,308,0
307,313,306,308,0
306,305,308,309,0
306,298,310,310,0
306,296,311,312,0
306,301,312,313,0
308,313,314,315,0
311,328,315,317,0
315,339,315,317,0
315,339,314,315,0
313,332,312,312,0
310,319,309,309,0
305,305,306,307,0
300,295,303,306,0
297,289,301,305,0
294,287,299,304,0
292,287,297,303,0
291,288,296,302,0
292,289,295,301,0
294,293,295,301,0
297,298,295,301,0
299,302,295,301,0
301,305,296,301,0
304,304,295,302,0
306,298,295,302,0
307,289,296,302,0
306,283,297,301,0
307,282,299,300,0
309,286,300,300,0
311,294,300,301,0
312,304,299,302,0
313,312,298,303,0
313,315,298,302,0
311,314,298,300,0
310,314,298,298,0
306,314,298,295,0
303,311,300,293,0
301,305,302,291,0
301,301,304,292,0
303,303,305,293,0
306,310,306,296,0
308,318,308,301,0
312,327,309,307,0
316,335,312,314,0
317,340,314,319,0
315,339,316,322,0
312,336,316,322,0
308,332,315,322,0
305,329,314,320,0
303,327,313,319,0
302,321,310,318,0
299,311,308,316,0
297,299,306,315,0
297,291,306,315,0
299,289,306,316,0
302,290,306,316,0
302,292,305,316,0
302,296,303,315,0
301,300,301,314,0
301,300,302,314,0
301,301,303,314,0
302,302,306,314,0
303,305,309,314,0
304,309,312,313,0
305,315,314,313,0
307,319,317,313,0
308,320,318,313,0
309,317,319,313,0
310,316,320,313,0
311,321,322,314,0
312,328,321,313,0
310,329,319,311,0
308,323,316,310,0
305,316,314,308,0
305,313,313,308,0
305,309,311,307,0
304,305,309,306,0
304,297,308,306,0
305,289,307,306,0
306,287,307,307,0
307,288,308,308,0
307,290,308,310,0
307,292,307,310,0
306,295,305,309,0
305,297,303,309,0
304,295,302,308,0
304,286,302,309,0
304,275,303,310,0
306,263,304,311,0
306,257,305,313,0
308,264,305,314,0
310,276,306,314,0
310,288,306,313,0
310,296,306,313,0
310,302,306,311,0
309,311,306,310,0
307,320,306,309,0
305,324,305,308,0
304,322,306,307,0
304,316,308,309,0
305,310,311,310,0
304,306,313,310,0
303,305,314,309,0
302,305,313,307,0
302,306,311,307,0
303,308,309,306,0
305,312,306,306,0
308,314,304,306,0
309,314,302,304,0
308,311,300,303,0
305,304,296,302,0
301,298,293,301,0
298,296,292,301,0
298,301,293,302,0
299,310,297,305,0
301,317,300,307,0
302,321,304,309,0
303,326,306,310,0
303,333,308,310,0
303,332,310,311,0
303,323,312,311,0
304,311,314,311,0
305,302,313,310,0
307,296,311,308,0
309,294,310,307,0
313,298,309,307,0
314,307,308,305,0
314,312,306,303,0
313,312,305,301,0
314,310,305,299,0
315,308,306,298,0
316,306,308,300,0
315,303,310,302,0
311,301,312,304,0
307,302,313,306,0
304,308,312,307,0
301,317,311,307,0
300,324,309,307,0
300,331,309,306,0
301,334,309,307,0
301,330,309,307,0
302,322,310,309,0
302,312,311,310,0
303,303,312,312,0
305,297,313,313,0
307,295,314,315,0
311,298,315,316,0
314,303,316,316,0
314,303,316,313,0
312,302,314,311,0
307,301,310,308,0
303,303,307,307,0
299,306,305,307,0
298,312,304,307,0
298,316,303,308,0
300,317,302,307,0
301,312,300,307,0
302,304,298,306,0
304,293,295,307,0
307,283,294,309,0
310,278,294,312,0
312,281,296,314,0
312,286,298,316,0
313,293,303,318,0
313,301,307,321,0
312,305,310,322,0
309,302,311,321,0
307,292,310,319,0
305,282,309,316,0
305,279,309,315,0
305,286,309,313,0
304,300,307,310,0
303,309,304,308,0
302,308,300,306,0
300,304,299,306,0
300,302,301,308,0
302,302,303,310,0
304,306,306,311,0
308,311,307,313,0
312,315,307,313,0
315,317,305,313,0
316,317,304,311,0
314,315,303,310,0
311,315,303,308,0
307,316,303,307,0
305,317,303,306,0
304,317,303,305,0
303,317,303,304,0
304,318,303,304,0
305,316,303,304,0
306,311,303,305,0
306,304,303,306,0
307,294,303,308,0
308,286,304,311,0
308,282,304,312,0
307,283,305,312,0
308,287,306,313,0
308,291,308,314,0
309,295,309,315,0
311,300,312,315,0
312,305,314,316,0
312,312,313,315,0
311,318,311,312,0
307,319,307,310,0
304,319,304,309,0
302,319,302,308,0
301,320,300,308,0
299,321,299,308,0
299,323,299,308,0
299,323,299,308,0
299,318,299,307,0
298,312,301,308,0
297,307,302,309,0
296,305,305,311,0
296,305,309,312,0
298,306,312,314,0
301,307,313,314,0
302,306,313,313,0
302,309,312,312,0
303,319,311,310,0
304,332,310,308,0
305,344,308,305,0
306,351,306,303,0
307,350,305,301,0
309,339,305,300,0
310,322,306,299,0
309,300,305,297,0
305,277,304,296,0
300,255,303,293,0
295,237,300,291,0
292,225,297,289,0
292,224,295,290,0
292,235,293,292,0
294,258,293,296,0
298,287,295,302,0
301,312,298,307,0
303,328,301,312,0
305,338,304,315,0
307,341,306,318,0
309,341,308,319,0
310,334,310,320,0
310,325,311,321,0
310,317,312,320,0
311,312,313,321,0
310,310,312,320,0
309,310,311,318,0
308,312,309,316,0
306,317,306,315,0
304,323,302,313,0
303,330,301,312,0
303,334,299,312,0
304,331,298,313,0
306,324,298,312,0
307,320,298,312,0
307,318,300,310,0
307,315,301,308,0
306,312,302,306,0
304,310,304,306,0
304,309,306,306,0
304,309,310,307,0
305,307,313,309,0
306,300,315,310,0
307,290,317,311,0
308,279,318,312,0
311,271,319,313,0
313,267,319,314,0
315,268,319,314,0
314,272,319,313,0
311,279,318,312,0
305,290,316,310,0
300,301,313,308,0
296,307,309,307,0
293,308,306,305,0
290,306,304,304,0
290,302,302,304,0
289,300,301,303,0
290,300,301,304,0
293,304,303,305,0
296,309,304,307,0
299,314,305,308,0
303,317,305,309,0
305,317,305,309,0
306,316,304,308,0
306,315,304,307,0
306,315,304,305,0
304,310,303,304,0
304,304,303,304,0
304,301,304,305,0
306,303,306,307,0
309,305,307,308,0
311,306,309,309,0
313,302,311,311,0
312,289,313,311,0
311,274,314,310,0
310,264,314,309,0
308,263,313,308,0
306,272,313,306,0
304,282,312,305,0
303,292,310,305,0
302,299,309,305,0
301,304,309,306,0
300,310,308,306,0
300,317,306,304,0
299,323,304,301,0
300,327,302,299,0
302,328,300,298,0
304,327,300,297,0
306,327,300,297,0
309,328,301,298,0
311,326,303,299,0
311,321,303,300,0
310,317,305,301,0
310,313,307,302,0
311,314,310,304,0
313,319,313,304,0
316,327,315,305,0
319,333,315,304,0
320,336,315,302,0
320,337,314,301,0
317,334,313,298,0
314,326,313,296,0
312,314,312,294,0
311,299,312,295,0
312,285,313,297,0
311,274,313,300,0
309,266,312,303,0
306,264,312,306,0
305,275,312,310,0
304,294,312,311,0
304,307,312,312,0
304,313,312,310,0
305,313,311,307,0
307,310,308,304,0
309,307,306,301,0
310,309,305,299,0
309,315,305,300,0
307,318,306,302,0
305,316,307,305,0
303,310,310,308,0
302,304,313,311,0
303,303,316,313,0
303,306,315,312,0
303,310,314,310,0
304,313,313,309,0
305,317,312,309,0
307,320,312,309,0
308,322,312,309,0
309,321,312,309,0
309,320,311,309,0
308,319,311,308,0
307,316,309,307,0
305,310,308,306,0
304,300,307,305,0
304,293,306,304,0
306,292,306,305,0
307,295,307,306,0
308,298,308,307,0
308,302,309,308,0
306,305,308,308,0
303,309,308,308,0
304,316,309,309,0
305,323,309,309,0
305,325,306,309,0
304,322,303,307,0
304,316,299,306,0
304,310,296,305,0
304,307,294,305,0
304,306,293,306,0
305,306,294,306,0
306,304,297,307,0
306,302,300,308,0
306,298,304,309,0
305,292,308,309,0
304,286,312,310,0
304,283,315,311,0
305,285,318,312,0
307,291,319,312,0
309,300,320,312,0
311,309,319,312,0
312,316,318,311,0
311,320,316,309,0
309,324,314,308,0
306,324,313,306,0
303,318,313,305,0
301,311,314,305,0
301,308,315,305,0
303,311,315,306,0
304,311,316,307,0
305,303,315,308,0
306,288,314,309,0
306,273,313,311,0
306,266,311,312,0
307,269,311,313,0
307,281,310,313,0
307,295,309,312,0
306,304,307,310,0
304,305,305,308,0
302,304,303,305,0
300,302,301,303,0
299,304,300,302,0
300,308,299,301,0
301,314,299,301,0
303,320,300,301,0
304,325,300,301,0
305,330,301,300,0
307,332,301,299,0
307,329,301,297,0
307,322,301,296,0
307,315,303,297,0
308,307,306,300,0
307,298,308,303,0
305,291,310,305,0
303,290,311,308,0
301,292,311,311,0
301,297,310,313,0
303,306,309,313,0
308,316,308,313,0
312,322,306,311,0
313,324,303,309,0
312,325,301,307,0
311,329,300,306,0
310,334,300,305,0
310,336,299,305,0
310,333,298,304,0
309,326,299,305,0
311,317,302,307,0
311,310,305,309,0
310,305,307,309,0
308,301,309,309,0
305,299,309,307,0
302,297,308,306,0
300,295,305,304,0
299,297,302,303,0
299,302,301,302,0
299,307,299,302,0
299,311,298,302,0
300,312,296,302,0
301,311,296,302,0
303,308,297,304,0
306,305,300,305,0
309,303,303,307,0
312,302,305,309,0
315,300,307,311,0
316,294,308,312,0
313,285,306,312,0
309,281,305,310,0
305,281,304,308,0
303,284,304,306,0
303,293,305,305,0
305,304,306,302,0
306,313,307,298,0
307,319,307,296,0
308,324,307,296,0
309,327,307,299,0
311,330,308,303,0
312,333,309,306,0
312,336,308,308,0
313,338,307,310,0
314,338,306,311,0
314,333,304,312,0
312,323,302,314,0
308,312,301,315,0
305,304,301,315,0
305,301,302,316,0
305,303,304,317,0
307,305,307,317,0
307,305,310,315,0
306,306,312,314,0
303,305,312,312,0
298,299,312,309,0
294,290,312,308,0
291,284,313,307,0
290,282,314,308,0
292,287,317,309,0
295,296,318,310,0
298,307,318,310,0
299,317,316,311,0
301,323,314,311,0
301,326,312,311,0
302,325,311,313,0
304,323,312,314,0
307,317,312,315,0
309,307,313,315,0
310,296,311,315,0
309,291,308,313,0
308,293,305,310,0
306,301,302,308,0
306,307,303,307,0
306,313,304,307,0
307,322,306,308,0
307,333,307,309,0
307,341,307,309,0
305,343,306,308,0
303,338,304,307,0
300,327,302,304,0
298,311,300,303,0
297,293,299,301,0
298,276,299,300,0
299,261,301,300,0
299,250,302,302,0
297,248,303,304,0
297,258,306,306,0
298,274,308,309,0
299,287,309,312,0
300,294,309,313,0
301,298,307,313,0
301,298,306,312,0
302,296,304,311,0
302,295,303,309,0
302,297,302,308,0
302,303,301,306,0
302,305,301,304,0
302,304,300,302,0
301,302,300,301,0
302,300,301,301,0
302,298,301,302,0
302,294,302,303,0
302,289,303,305,0
302,284,303,306,0
304,282,305,308,0
306,287,306,310,0
308,297,308,310,0
310,309,307,310,0
311,321,308,308,0
311,328,308,307,0
311,330,309,306,0
309,331,309,306,0
308,335,308,305,0
308,344,307,305,0
309,355,305,305,0
309,365,303,305,0
308,368,302,304,0
305,360,302,304,0
302,346,303,304,0
298,328,303,305,0
296,315,304,305,0
295,305,304,306,0
293,298,304,305,0
293,296,303,307,0
295,298,303,309,0
298,298,303,310,0
302,297,303,311,0
305,294,302,311,0
306,293,302,312,0
307,293,303,313,0
307,295,304,313,0
306,297,306,314,0
304,299,308,314,0
302,301,309,314,0
301,304,312,314,0
302,305,313,315,0
303,304,315,316,0
304,298,314,316,0
304,287,312,316,0
303,276,311,316,0
302,266,311,316,0
299,255,308,315,0
295,249,304,311,0
292,250,302,309,0
292,254,303,309,0
296,256,305,310,0
302,255,309,312,0
308,255,312,312,0
313,256,313,311,0
316,261,314,311,0
319,273,316,311,0
321,294,318,312,0
321,317,319,312,0
317,335,317,310,0
312,344,313,307,0
307,346,309,305,0
305,347,307,304,0
303,346,307,303,0
301,347,309,304,0
300,349,311,304,0
299,351,312,304,0
299,351,312,303,0
301,351,311,303,0
302,347,308,301,0
302,338,306,300,0
300,327,304,300,0
298,318,304,301,0
297,311,306,303,0
297,308,307,305,0
297,307,308,306,0
298,307,308,307,0
299,306,308,307,0
301,307,309,308,0
302,309,310,308,0
304,312,311,308,0
306,316,312,308,0
307,318,312,308,0
307,317,312,307,0
306,311,311,306,0
303,302,309,305,0
302,291,309,304,0
301,280,309,304,0
301,273,310,303,0
302,268,310,303,0
304,268,309,303,0
305,273,309,303,0
307,280,308,305,0
307,289,307,306,0
306,296,306,307,0
304,295,305,308,0
300,293,305,308,0
299,291,306,309,0
298,291,307,310,0
299,296,307,310,0
299,305,308,309,0
299,318,308,309,0
300,332,308,310,0
300,344,307,309,0
300,351,305,306,0
302,352,303,304,0
304,347,302,303,0
306,338,304,305,0
309,328,307,307,0
310,315,309,309,0
307,300,310,311,0
303,285,311,312,0
300,276,312,312,0
299,274,314,312,0
301,281,317,313,0
306,297,321,314,0
311,313,323,314,0
313,326,324,314,0
313,331,322,313,0
309,327,319,311,0
302,315,315,309,0
297,299,312,306,0
292,283,309,304,0
289,271,307,303,0
288,267,306,303,0
288,272,306,303,0
289,282,307,304,0
291,292,307,304,0
293,303,307,304,0
295,315,307,304,0
298,328,307,305,0
301,341,309,306,0
304,346,310,308,0
307,339,311,310,0
310,327,313,312,0
311,319,315,312,0
312,315,316,312,0
310,309,316,310,0
307,304,315,308,0
305,298,312,305,0
302,288,310,303,0
299,274,307,302,0
299,260,305,301,0
302,256,305,301,0
305,262,307,302,0
309,278,309,303,0
312,299,310,303,0
312,317,310,304,0
309,329,309,304,0
306,331,307,304,0
303,326,306,305,0
301,317,304,305,0
301,311,303,306,0
301,309,301,305,0
301,307,300,303,0
301,303,297,302,0
302,300,294,301,0
302,297,293,299,0
303,297,292,300,0
306,300,294,302,0
311,307,298,305,0
316,316,303,307,0
319,328,306,308,0
319,338,307,306,0
315,339,306,304,0
309,330,304,302,0
304,316,304,301,0
301,302,304,300,0
300,294,304,300,0
300,293,306,300,0
302,298,308,302,0
303,306,310,304,0
305,316,312,306,0
307,325,314,308,0
309,325,316,310,0
310,315,317,312,0
310,299,316,314,0
308,280,316,315,0
307,265,315,317,0
307,260,315,318,0
308,267,314,318,0
309,282,313,318,0
311,300,313,317,0
311,313,312,316,0
309,312,310,314,0
307,305,307,311,0
306,297,304,307,0
307,294,303,305,0
308,300,302,304,0
309,312,302,303,0
309,324,301,301,0
307,336,300,299,0
305,348,299,298,0
304,353,298,297,0
303,351,298,297,0
303,342,298,296,0
302,328,300,297,0
302,310,302,298,0
302,292,306,302,0
304,279,310,306,0
306,275,314,311,0
310,283,318,315,0
312,297,320,317,0
310,309,319,316,0
306,315,316,313,0
302,318,313,310,0
299,318,310,308,0
297,315,309,306,0
297,312,307,305,0
297,309,305,303,0
297,304,303,302,0
298,297,302,303,0
301,295,302,305,0
304,299,302,306,0
307,307,303,308,0
310,316,306,310,0
313,324,309,313,0
314,329,311,315,0
312,328,311,314,0
308,320,309,314,0
304,310,308,313,0
301,304,308,313,0
300,305,309,313,0
300,303,312,312,0
300,296,313,311,0
300,289,313,310,0
300,282,314,309,0
302,279,314,309,0
303,277,313,310,0
305,278,312,310,0
307,284,311,309,0
308,292,309,309,0
308,298,308,308,0
308,301,307,308,0
309,296,306,310,0
310,290,306,311,0
312,289,308,312,0
314,296,308,313,0
315,305,308,312,0
314,311,307,311,0
312,312,306,310,0
311,311,305,310,0
313,312,306,312,0
315,317,307,313,0
315,321,307,313,0
312,321,306,311,0
309,319,305,310,0
306,319,304,309,0
305,322,303,309,0
305,326,301,308,0
304,331,299,306,0
303,336,297,305,0
303,339,297,305,0
302,338,298,305,0
302,337,300,306,0
304,336,302,307,0
305,336,304,308,0
307,337,304,308,0
307,340,304,306,0
304,338,303,305,0
303,331,302,305,0
302,323,303,305,0
303,318,304,305,0
304,312,307,305,0
306,303,309,306,0
307,294,311,307,0
308,290,312,308,0
308,294,312,309,0
307,302,311,309,0
307,308,312,310,0
308,310,312,311,0
310,310,312,311,0
311,304,310,309,0
310,295,307,307,0
309,292,305,306,0
309,292,303,307,0
310,290,302,308,0
310,288,302,309,0
311,285,302,310,0
311,281,302,311,0
310,278,301,310,0
309,277,300,310,0
306,279,300,308,0
303,282,300,306,0
302,284,301,306,0
302,284,303,307,0
304,284,306,308,0
307,288,310,310,0
310,298,311,310,0
310,309,311,309,0
309,315,309,308,0
308,319,308,308,0
308,322,307,309,0
311,328,307,310,0
314,333,307,311,0
317,339,307,311,0
320,341,306,311,0
320,337,306,310,0
316,328,305,309,0
310,315,304,308,0
305,302,304,308,0
302,295,305,309,0
302,299,305,310,0
302,307,304,310,0
301,313,301,309,0
300,313,299,308,0
299,310,297,308,0
301,308,298,310,0
305,312,300,312,0
311,321,302,314,0
315,333,304,313,0
318,342,304,312,0
317,347,304,310,0
312,343,302,308,0
306,334,301,307,0
302,325,301,307,0
301,319,301,308,0
301,315,302,309,0
303,313,303,311,0
306,313,304,311,0
307,313,304,310,0
309,314,303,309,0
310,315,301,308,0
311,315,300,308,0
311,315,300,307,0
311,313,302,307,0
312,309,303,308,0
311,303,304,308,0
309,294,304,308,0
307,289,305,307,0
305,288,305,307,0
304,291,307,309,0
305,295,310,311,0
305,297,312,313,0
304,298,312,313,0
304,301,312,311,0
303,301,310,309,0
303,298,307,307,0
302,295,305,306,0
301,295,303,305,0
300,295,301,305,0
298,296,299,305,0
297,298,298,306,0
298,298,298,306,0
298,297,299,307,0
299,296,300,308,0
300,298,302,309,0
301,305,304,309,0
304,315,306,309,0
306,324,307,309,0
310,330,309,309,0
314,329,311,309,0
317,324,312,309,0
318,318,314,309,0
317,309,313,309,0
314,300,311,309,0
311,294,309,309,0
310,292,307,309,0
309,295,304,307,0
310,301,302,306,0
310,308,300,304,0
309,313,298,302,0
308,319,296,301,0
307,325,296,301,0
307,328,296,302,0
306,327,297,303,0
306,321,298,304,0
305,311,300,304,0
306,301,302,305,0
308,295,304,307,0
310,296,306,308,0
312,303,308,308,0
312,308,308,307,0
312,308,308,306,0
311,305,308,304,0
310,302,307,303,0
309,301,306,303,0
309,300,305,303,0
309,298,305,304,0
311,297,306,305,0
312,296,308,308,0
313,298,310,309,0
313,299,312,310,0
313,299,310,309,0
313,301,309,309,0
314,306,309,308,0
316,317,310,308,0
316,328,311,307,0
315,334,311,305,0
312,332,310,303,0
307,322,309,302,0
303,309,308,302,0
301,296,308,303,0
300,284,308,305,0
300,277,309,306,0
303,276,311,308,0
306,282,312,309,0
311,293,312,310,0
315,304,310,310,0
316,311,307,308,0
315,315,303,305,0
312,319,300,302,0
310,326,299,299,0
307,330,299,298,0
305,329,301,298,0
303,327,305,299,0
303,328,308,301,0
303,331,311,302,0
303,334,312,302,0
303,337,312,303,0
304,338,312,304,0
305,336,311,306,0
307,335,311,309,0
311,335,310,312,0
315,335,310,314,0
317,334,308,313,0
317,328,305,312,0
315,318,304,310,0
313,304,303,308,0
310,291,302,308,0
309,284,303,309,0
307,285,305,312,0
305,289,306,315,0
303,296,308,317,0
301,301,309,318,0
299,303,309,318,0
298,305,309,317,0
298,304,310,317,0
299,303,310,318,0
302,306,310,318,0
303,309,310,317,0
303,304,309,316,0
303,297,309,315,0
304,292,309,315,0
305,292,309,314,0
304,292,309,314,0
304,290,307,313,0
304,284,306,314,0
304,275,303,314,0
303,267,301,315,0
303,260,301,315,0
301,256,301,315,0
300,256,301,315,0
301,262,302,314,0
302,275,301,313,0
304,291,301,311,0
307,309,302,310,0
311,327,304,309,0
315,344,306,309,0
316,355,308,309,0
316,358,310,310,0
315,355,311,310,0
313,346,313,309,0
310,334,313,308,0
307,323,313,308,0
305,315,313,308,0
303,310,313,308,0
303,307,313,308,0
303,311,313,308,0
306,322,314,308,0
311,334,315,309,0
314,341,315,309,0
316,340,315,309,0
316,333,314,308,0
313,323,314,309,0
311,312,313,309,0
308,304,313,309,0
306,300,312,309,0
306,295,311,310,0
306,291,310,310,0
307,289,309,310,0
309,290,310,309,0
311,295,310,310,0
313,300,310,310,0
313,304,311,311,0
312,299,312,311,0
310,289,311,312,0
309,282,310,312,0
308,281,309,312,0
308,286,307,312,0
309,297,305,311,0
309,311,303,310,0
310,324,302,309,0
312,335,302,310,0
314,342,303,311,0
314,344,305,311,0
313,339,306,311,0
309,329,306,310,0
306,317,305,309,0
303,306,305,307,0
301,299,305,307,0
301,296,306,308,0
300,292,307,310,0
300,287,309,312,0
300,283,310,313,0
300,284,311,314,0
301,289,311,313,0
303,295,311,312,0
305,298,309,310,0
307,297,307,307,0
307,293,304,305,0
306,290,302,302,0
306,292,299,301,0
305,297,297,301,0
304,304,297,302,0
305,312,299,303,0
307,322,301,305,0
309,331,303,306,0
309,338,306,307,0
308,339,309,308,0
307,335,310,309,0
307,329,312,310,0
307,317,313,310,0
305,304,314,310,0
303,294,314,310,0
301,289,314,311,0
301,289,313,311,0
300,293,313,311,0
301,297,312,311,0
300,299,309,310,0
300,299,306,309,0
300,300,304,308,0
300,301,303,307,0
300,300,301,305,0
301,299,301,302,0
301,295,300,300,0
300,288,300,300,0
299,282,300,301,0
300,276,303,304,0
302,270,305,308,0
304,270,308,311,0
308,286,313,316,0
314,317,316,318,0
318,340,317,318,0
318,343,316,315,0
315,330,313,312,0
310,315,311,308,0
306,310,309,305,0
304,318,308,303,0
303,329,307,302,0
303,332,304,301,0
303,329,301,300,0
304,323,299,300,0
305,316,298,300,0
306,310,298,301,0
307,305,297,302,0
307,300,298,303,0
307,298,299,304,0
306,298,301,305,0
305,301,304,305,0
304,306,307,304,0
304,312,308,304,0
304,320,309,304,0
305,327,309,305,0
306,328,308,306,0
305,325,306,306,0
305,321,304,307,0
305,315,303,308,0
305,310,301,308,0
303,307,300,307,0
302,304,299,306,0
301,301,299,305,0
301,295,299,304,0
301,284,300,304,0
302,272,302,304,0
304,260,305,306,0
307,253,310,310,0
312,256,317,315,0
318,269,322,318,0
321,291,323,318,0
320,312,320,315,0
318,328,316,312,0
315,336,312,309,0
314,335,308,308,0
312,332,307,308,0
312,328,305,309,0
310,326,305,309,0
308,323,307,309,0
307,321,308,309,0
304,319,308,309,0
302,318,307,308,0
301,318,306,307,0
301,319,305,307,0
300,323,303,305,0
300,327,301,305,0
298,327,300,306,0
297,323,302,308,0
297,315,303,311,0
298,306,305,312,0
299,297,305,313,0
300,289,305,313,0
299,285,304,311,0
299,283,303,310,0
300,286,304,309,0
303,295,305,310,0
307,308,308,312,0
312,318,309,313,0
315,318,309,313,0
317,308,308,312,0
316,294,307,312,0
315,278,305,311,0
313,266,306,311,0
311,260,307,311,0
308,261,308,310,0
305,270,308,307,0
301,282,307,304,0
298,294,305,301,0
295,304,303,299,0
295,314,301,299,0
297,323,302,301,0
300,330,304,304,0
304,332,308,308,0
308,330,312,311,0
312,325,315,313,0
315,317,317,314,0
314,308,317,313,0
310,304,315,312,0
306,306,312,310,0
304,313,310,309,0
303,320,308,308,0
302,322,307,308,0
301,318,307,308,0
300,311,307,308,0
299,307,308,309,0
300,308,310,310,0
302,312,312,311,0
304,315,312,311,0
306,314,311,311,0
307,310,310,310,0
306,304,309,310,0
304,300,308,311,0
302,297,309,313,0
301,295,309,315,0
301,295,309,316,0
300,298,308,315,0
300,305,307,315,0
303,321,308,315,0
306,338,307,313,0
307,342,305,311,0
306,332,302,308,0
304,314,299,307,0
303,297,299,306,0
303,284,300,306,0
305,275,302,305,0
307,273,303,305,0
309,280,304,306,0
311,292,306,306,0
312,303,307,307,0
312,313,307,307,0
313,319,308,306,0
313,321,308,305,0
312,321,309,304,0
311,320,310,303,0
311,321,312,303,0
311,320,313,303,0
310,312,314,302,0
308,298,313,301,0
306,282,313,299,0
304,270,311,298,0
303,270,308,297,0
303,278,304,296,0
303,287,300,295,0
305,297,297,297,0
307,307,297,299,0
309,317,298,301,0
310,326,299,303,0
310,332,301,304,0
308,334,301,304,0
307,334,303,304,0
306,333,304,304,0
305,329,306,305,0
304,321,308,306,0
303,314,310,307,0
303,310,312,309,0
305,308,313,310,0
308,307,314,311,0
309,305,315,311,0
309,301,316,310,0
308,296,316,309,0
308,293,317,308,0
308,291,319,307,0
306,288,318,305,0
304,287,315,303,0
301,290,313,302,0
301,297,312,303,0
302,306,312,304,0
303,314,312,304,0
303,315,311,305,0
302,313,309,304,0
302,311,308,304,0
303,307,308,305,0
305,304,309,306,0
308,300,310,306,0
310,296,310,305,0
309,290,309,303,0
307,282,309,302,0
305,275,309,302,0
305,270,311,304,0
306,266,311,306,0
307,262,311,306,0
308,261,312,306,0
309,268,312,307,0
311,282,313,306,0
313,300,314,305,0
315,316,313,303,0
316,328,312,301,0
316,335,310,299,0
315,339,308,296,0
313,345,307,294,0
311,354,306,293,0
309,363,307,293,0
307,369,306,295,0
305,369,305,296,0
303,361,304,299,0
301,351,304,303,0
301,344,305,306,0
301,342,306,309,0
302,339,305,311,0
303,333,305,311,0
304,326,304,312,0
305,319,304,312,0
306,309,306,313,0
307,295,308,314,0
307,280,309,316,0
307,270,309,316,0
307,266,310,317,0
308,268,310,317,0
308,279,309,315,0
309,289,308,313,0
309,293,305,311,0
308,296,305,309,0
308,296,305,307,0
306,292,305,306,0
304,285,305,305,0
302,276,305,306,0
301,266,307,307,0
299,262,308,309,0
299,264,309,310,0
299,272,309,311,0
300,283,309,311,0
302,296,308,310,0
302,306,307,309,0
303,312,305,307,0
303,314,303,307,0
304,313,303,307,0
307,312,303,307,0
311,309,302,307,0
314,303,303,306,0
314,295,304,306,0
312,287,304,306,0
309,279,304,305,0
305,272,303,304,0
301,265,302,305,0
300,263,302,305,0
299,267,302,306,0
302,275,303,306,0
305,287,304,306,0
308,305,305,306,0
310,325,305,305,0
312,342,304,304,0
313,352,303,303,0
310,356,300,301,0
306,354,298,298,0
303,349,296,297,0
302,345,294,297,0
302,342,293,297,0
303,339,292,298,0
305,335,291,299,0
306,331,291,300,0
306,325,291,300,0
306,319,291,301,0
305,313,292,301,0
305,306,294,302,0
306,301,297,302,0
306,296,302,303,0
306,289,306,304,0
305,286,309,305,0
303,285,311,305,0
302,285,312,305,0
301,287,312,306,0
300,289,312,306,0
300,291,314,307,0
301,294,315,308,0
302,298,316,308,0
303,303,315,308,0
304,307,316,307,0
306,311,316,308,0
309,315,316,309,0
311,319,315,309,0
311,321,314,308,0
310,322,312,308,0
308,320,311,307,0
307,314,309,307,0
308,306,310,306,0
309,298,312,304,0
309,289,311,302,0
307,281,308,299,0
305,273,305,297,0
305,270,303,296,0
305,273,300,295,0
304,277,298,296,0
301,282,296,297,0
298,285,295,299,0
297,292,297,302,0
297,303,302,306,0
300,315,308,309,0
303,322,311,311,0
304,325,311,312,0
304,325,310,312,0
303,324,309,311,0
303,321,308,312,0
303,319,306,312,0
304,319,306,313,0
306,321,305,313,0
307,326,305,311,0
308,333,305,310,0
309,341,305,307,0
309,349,305,305,0
309,353,305,304,0
309,352,306,303,0
310,344,306,304,0
310,334,307,305,0
310,326,307,305,0
309,318,307,305,0
307,311,308,304,0
307,307,310,305,0
307,299,312,308,0
309,287,315,311,0
310,279,317,315,0
310,275,317,317,0
310,277,316,317,0
309,281,313,314,0
306,286,310,311,0
304,291,306,308,0
303,296,304,305,0
304,300,302,304,0
306,305,302,305,0
308,308,303,306,0
310,309,303,307,0
310,308,304,306,0
310,309,305,306,0
309,312,304,305,0
308,315,303,304,0
307,316,302,304,0
306,314,302,304,0
304,306,303,305,0
304,293,304,306,0
304,278,304,307,0
303,263,305,308,0
304,255,306,308,0
305,260,307,309,0
305,274,305,307,0
304,291,301,305,0
304,308,298,303,0
304,321,295,302,0
304,328,293,300,0
304,331,293,300,0
304,329,294,301,0
304,321,295,303,0
304,314,297,306,0
305,312,301,309,0
306,313,305,312,0
308,315,309,314,0
309,317,313,316,0
310,320,315,316,0
311,325,315,316,0
311,329,314,315,0
311,334,313,314,0
310,333,312,314,0
309,326,311,314,0
308,314,310,314,0
307,301,310,314,0
307,290,310,315,0
308,284,310,315,0
307,281,309,315,0
306,282,308,314,0
305,289,307,313,0
304,299,306,313,0
305,309,305,312,0
306,320,305,311,0
308,332,304,312,0
310,345,304,312,0
312,355,305,312,0
312,359,304,311,0
311,353,302,310,0
309,340,298,308,0
305,324,296,306,0
303,309,295,305,0
302,300,295,306,0
303,296,296,306,0
304,294,297,307,0
306,292,300,309,0
307,291,303,310,0
309,291,306,311,0
310,295,308,311,0
311,301,309,309,0
311,306,309,306,0
310,311,307,301,0
311,313,306,298,0
311,313,305,296,0
310,311,305,295,0
307,311,306,294,0
305,311,307,295,0
303,311,309,299,0
303,311,310,302,0
302,306,310,305,0
301,299,310,306,0
300,291,308,306,0
299,285,306,305,0
299,285,304,304,0
301,289,302,305,0
302,293,302,306,0
303,294,302,308,0
303,293,304,310,0
303,293,307,311,0
304,297,309,311,0
305,306,311,311,0
305,314,310,311,0
304,319,309,312,0
305,321,310,313,0
307,323,313,315,0
310,324,317,316,0
311,322,319,317,0
312,317,320,317,0
311,312,320,318,0
310,304,318,317,0
308,295,316,317,0
306,285,314,316,0
303,275,312,315,0
300,267,311,315,0
298,268,311,316,0
300,280,312,318,0
304,296,313,318,0
308,308,312,318,0
310,313,310,316,0
310,314,307,313,0
311,315,305,310,0
310,315,303,308,0
307,314,302,308,0
303,313,301,309,0
300,310,301,311,0
297,304,302,313,0
296,298,304,315,0
296,293,305,317,0
296,296,306,316,0
296,305,306,315,0
297,319,305,313,0
297,331,304,310,0
299,336,304,309,0
301,335,305,308,0
304,333,305,309,0
307,330,306,309,0
308,326,306,309,0
307,321,304,309,0
305,317,303,309,0
302,314,303,309,0
299,312,303,309,0
297,312,304,309,0
296,313,304,309,0
294,311,306,308,0
293,305,307,308,0
293,297,308,307,0
294,290,309,306,0
295,288,310,306,0
297,291,310,306,0
299,298,309,306,0
301,309,309,306,0
304,322,308,306,0
306,333,308,306,0
308,340,308,305,0
310,339,308,306,0
311,333,309,306,0
311,323,310,306,0
309,309,310,306,0
307,292,311,306,0
305,277,312,307,0
304,268,313,308,0
304,268,313,308,0
304,275,312,309,0
306,288,312,310,0
309,305,312,311,0
314,323,312,312,0
316,334,310,312,0
314,331,308,310,0
312,319,304,308,0
309,308,300,306,0
307,300,296,305,0
305,294,294,304,0
304,291,292,303,0
304,290,291,302,0
305,287,294,301,0
307,284,298,301,0
308,283,302,301,0
309,287,306,302,0
309,298,309,302,0
308,312,309,301,0
307,321,308,300,0
306,321,306,298,0
304,316,305,297,0
304,308,305,296,0
304,310,306,297,0
304,320,307,297,0
305,331,306,298,0
305,339,305,300,0
306,346,305,300,0
306,348,305,301,0
306,342,306,301,0
306,331,308,302,0
305,323,309,302,0
306,321,310,302,0
306,325,310,302,0
307,332,310,303,0
307,335,311,305,0
306,335,311,308,0
306,332,311,310,0
306,327,309,312,0
306,321,307,311,0
304,315,305,309,0
303,308,303,308,0
302,303,301,308,0
301,299,301,309,0
301,297,303,311,0
302,295,305,313,0
303,295,308,314,0
303,294,310,315,0
305,292,312,317,0
307,291,314,319,0
310,291,316,321,0
313,292,318,322,0
315,293,318,321,0
314,292,317,320,0
313,289,316,320,0
312,287,315,319,0
312,281,314,319,0
311,271,314,318,0
309,262,315,317,0
306,255,315,315,0
303,252,314,313,0
302,257,314,312,0
302,270,313,310,0
304,286,312,309,0
305,299,310,307,0
305,310,308,305,0
303,319,307,304,0
302,322,305,304,0
302,322,303,305,0
303,320,302,306,0
305,321,302,307,0
308,323,303,308,0
308,323,304,308,0
308,319,304,309,0
307,312,304,309,0
307,305,305,309,0
306,304,306,309,0
305,309,307,309,0
306,316,308,309,0
308,325,308,309,0
311,335,309,310,0
315,347,311,311,0
316,354,311,310,0
314,348,311,310,0
312,335,310,309,0
310,321,309,308,0
308,308,308,306,0
307,299,307,304,0
307,296,307,304,0
306,298,306,303,0
306,304,306,303,0
305,311,305,302,0
304,315,306,302,0
304,313,305,302,0
302,310,306,303,0
302,310,308,304,0
304,312,309,306,0
304,314,309,306,0
304,314,309,305,0
304,314,309,306,0
304,313,309,306,0
305,309,308,306,0
306,302,308,306,0
308,294,306,306,0
309,291,306,307,0
310,290,306,307,0
309,290,306,307,0
308,290,306,307,0
308,291,306,306,0
307,293,305,306,0
307,297,305,306,0
307,302,305,307,0
306,303,304,307,0
306,302,304,307,0
307,300,305,306,0
307,296,305,307,0
308,289,306,308,0
308,280,309,310,0
309,271,312,312,0
308,262,314,312,0
305,258,315,310,0
303,262,315,308,0
303,271,315,308,0
304,284,314,308,0
304,297,312,307,0
303,302,311,307,0
301,299,310,306,0
299,291,310,306,0
298,286,312,306,0
298,289,313,305,0
300,304,315,304,0
303,326,315,304,0
308,346,314,304,0
312,358,312,303,0
314,361,310,303,0
316,355,308,304,0
317,344,306,305,0
316,333,304,305,0
314,325,303,304,0
312,317,302,303,0
309,309,301,303,0
306,300,300,303,0
305,295,301,304,0
306,295,302,305,0
308,299,304,307,0
309,308,305,308,0
308,318,306,307,0
307,324,307,307,0
305,322,307,307,0
301,313,308,308,0
298,304,309,310,0
297,298,309,310,0
296,296,310,311,0
297,296,309,311,0
299,295,310,312,0
303,294,311,313,0
306,297,311,313,0
308,305,310,313,0
309,320,309,312,0
308,332,308,311,0
307,332,307,310,0
304,321,305,309,0
302,306,304,309,0
300,291,303,308,0
298,283,303,308,0
298,281,303,309,0
300,281,303,309,0
302,282,304,309,0
304,286,305,310,0
308,292,307,310,0
313,301,310,311,0
318,313,312,313,0
321,319,314,313,0
320,310,314,312,0
316,291,311,309,0
310,270,307,306,0
305,254,303,304,0
302,250,302,304,0
303,263,302,305,0
306,285,303,306,0
308,305,305,307,0
310,322,306,308,0
311,336,308,309,0
312,348,309,310,0
312,355,308,309,0
311,354,306,309,0
310,351,304,309,0
309,347,304,310,0
308,344,303,310,0
308,343,303,310,0
307,344,302,310,0
306,347,303,311,0
306,349,303,311,0
305,346,303,311,0
304,337,302,310,0
302,323,300,308,0
300,310,300,307,0
299,300,299,307,0
299,294,301,306,0
301,291,303,307,0
305,293,306,308,0
308,297,307,309,0
310,301,306,309,0
309,301,302,308,0
308,298,300,308,0
306,296,300,308,0
307,297,301,309,0
307,299,301,308,0
305,300,300,307,0
304,299,299,306,0
303,296,298,305,0
303,291,300,305,0
304,285,301,306,0
304,278,304,307,0
305,272,306,307,0
305,268,306,307,0
305,267,305,306,0
304,272,305,306,0
306,282,307,307,0
308,289,309,309,0
308,291,310,310,0
306,292,309,310,0
303,295,308,309,0
301,303,308,307,0
302,314,308,305,0
303,323,308,301,0
301,328,306,295,0
299,327,303,290,0
296,323,300,288,0
295,319,300,290,0
295,317,301,296,0
297,318,303,303,0
300,319,305,310,0
304,321,307,315,0
306,323,309,318,0
308,321,311,319,0
309,319,311,320,0
311,317,311,319,0
312,314,311,318,0
311,310,310,316,0
308,302,308,314,0
306,291,307,311,0
305,285,306,310,0
306,286,307,310,0
307,291,308,311,0
308,295,308,310,0
306,295,306,310,0
304,296,303,311,0
303,301,302,312,0
302,309,301,313,0
302,316,302,314,0
303,319,303,315,0
304,319,304,315,0
303,314,305,314,0
304,310,305,313,0
305,310,306,313,0
307,317,308,313,0
310,325,309,312,0
311,329,309,311,0
310,328,308,309,0
308,325,308,308,0
307,318,310,308,0
306,303,312,309,0
306,290,313,311,0
307,290,315,313,0
309,300,317,315,0
308,310,317,315,0
305,315,316,314,0
302,318,315,313,0
301,318,314,312,0
301,318,312,312,0
300,318,310,311,0
298,316,309,311,0
297,313,307,312,0
297,308,305,311,0
297,301,303,311,0
298,290,302,311,0
300,276,302,311,0
301,261,301,312,0
301,249,300,312,0
302,249,300,313,0
306,265,299,314,0
310,294,300,315,0
315,325,300,314,0
317,348,299,311,0
317,355,297,308,0
313,348,294,305,0
308,333,293,302,0
303,318,294,301,0
300,305,297,300,0
297,295,302,300,0
296,291,306,302,0
295,294,310,303,0
295,301,312,305,0
297,315,314,306,0
300,331,315,307,0
303,339,315,308,0
304,335,313,307,0
304,324,312,307,0
305,314,311,308,0
307,309,311,309,0
309,309,312,310,0
310,314,313,310,0
309,319,314,310,0
307,321,314,309,0
305,319,313,309,0
303,314,312,308,0
301,309,310,306,0
300,305,308,304,0
301,304,305,302,0
302,305,303,299,0
304,307,302,295,0
305,306,301,291,0
305,303,300,289,0
306,299,301,290,0
308,297,304,294,0
309,296,308,300,0
309,295,311,305,0
306,292,311,308,0
304,290,310,309,0
302,288,309,310,0
301,287,308,310,0
300,285,308,310,0
297,281,309,310,0
296,276,309,311,0
295,273,310,311,0
296,273,312,313,0
299,277,314,314,0
302,281,314,313,0
305,282,312,312,0
308,284,310,311,0
312,290,309,310,0
315,300,308,310,0
315,310,307,309,0
314,316,305,309,0
312,316,304,309,0
312,316,304,310,0
312,315,304,310,0
311,312,305,310,0
308,307,306,309,0
307,303,306,308,0
307,300,306,307,0
308,301,308,306,0
308,304,309,305,0
308,312,309,305,0
308,319,310,307,0
308,324,311,309,0
308,321,311,310,0
306,312,310,311,0
304,303,309,311,0
301,298,309,310,0
299,296,310,310,0
297,293,309,310,0
297,290,310,309,0
297,290,311,309,0
298,292,312,310,0
300,297,312,311,0
302,305,312,311,0
304,319,313,311,0
306,332,313,310,0
308,340,313,309,0
309,343,313,308,0
309,341,312,307,0
307,335,312,306,0
305,331,313,306,0
303,330,312,306,0
302,332,311,306,0
302,337,310,306,0
303,336,309,306,0
304,333,307,305,0
303,327,304,304,0
302,321,301,304,0
301,315,297,303,0
300,311,294,303,0
300,306,294,304,0
302,297,296,304,0
304,284,299,304,0
306,274,301,305,0
308,276,303,305,0
311,285,304,306,0
313,295,305,307,0
315,305,306,307,0
315,312,307,306,0
315,317,307,304,0
312,315,306,303,0
308,308,305,302,0
305,302,304,301,0
302,296,304,302,0
301,292,305,303,0
300,286,306,303,0
299,280,306,304,0
298,275,305,304,0
300,273,306,303,0
302,277,306,303,0
306,288,306,302,0
311,304,307,302,0
314,319,308,301,0
314,328,308,300,0
312,331,308,299,0
310,329,308,300,0
307,321,308,302,0
305,311,308,304,0
303,302,308,307,0
302,297,308,309,0
302,296,308,311,0
303,300,309,311,0
306,310,311,311,0
310,315,313,310,0
311,312,312,307,0
310,304,311,303,0
307,300,308,300,0
305,301,306,298,0
304,304,306,298,0
304,305,306,299,0
304,302,306,300,0
305,296,306,301,0
307,290,307,303,0
310,291,308,305,0
312,298,309,307,0
314,305,310,308,0
314,307,313,309,0
314,307,315,310,0
313,309,316,311,0
312,313,317,311,0
311,316,317,311,0
310,318,316,311,0
312,321,317,313,0
313,324,317,314,0
313,321,316,314,0
312,313,313,315,0
308,300,309,315,0
304,285,307,314,0
301,272,305,314,0
300,265,305,314,0
301,266,306,313,0
302,270,305,312,0
304,276,305,311,0
306,285,306,313,0
308,295,307,313,0
306,300,307,314,0
303,303,306,314,0
300,307,306,314,0
299,314,306,315,0
299,321,305,315,0
300,325,304,315,0
301,326,304,314,0
303,325,304,314,0
306,326,305,313,0
308,330,305,313,0
310,336,305,312,0
309,338,305,310,0
307,340,304,309,0
305,337,303,308,0
304,332,302,307,0
304,331,303,307,0
305,330,304,308,0
306,326,304,308,0
307,317,303,308,0
307,306,302,309,0
307,295,301,309,0
307,286,301,310,0
307,284,302,311,0
309,288,302,313,0
310,293,302,313,0
310,292,303,313,0
310,285,304,313,0
309,278,306,313,0
308,277,307,313,0
307,281,307,312,0
306,293,308,311,0
306,308,308,309,0
305,318,308,307,0
304,320,307,306,0
303,317,306,305,0
302,312,305,304,0
302,310,306,304,0
302,308,308,305,0
303,307,310,307,0
305,304,311,308,0
307,301,312,310,0
308,296,312,310,0
308,289,311,310,0
307,282,311,310,0
305,277,310,310,0
303,276,309,310,0
303,281,309,310,0
304,294,309,310,0
304,309,309,310,0
305,322,310,311,0
305,332,312,312,0
306,336,314,313,0
307,338,315,315,0
308,335,316,315,0
308,328,316,315,0
308,317,317,315,0
309,308,317,315,0
309,302,316,314,0
309,301,313,313,0
310,304,312,311,0
311,312,311,310,0
311,325,311,310,0
310,340,311,309,0
309,354,308,307,0
308,370,306,306,0
309,384,305,306,0
310,385,305,306,0
310,373,305,307,0
308,350,305,308,0
306,326,305,309,0
304,308,307,310,0
303,299,308,311,0
303,297,309,312,0
302,297,310,311,0
301,294,309,309,0
300,286,307,307,0
298,273,305,307,0
296,258,303,307,0
295,245,302,309,0
295,240,302,311,0
297,243,303,312,0
299,254,306,315,0
304,269,310,318,0
308,284,313,320,0
311,294,314,320,0
312,297,314,319,0
313,298,314,319,0
314,300,313,318,0
313,306,313,316,0
310,311,311,313,0
307,315,309,310,0
306,317,307,309,0
306,320,306,308,0
306,322,305,308,0
306,323,303,308,0
306,320,302,307,0
306,313,300,307,0
307,305,300,306,0
309,301,302,306,0
310,298,304,306,0
309,293,305,305,0
304,286,304,302,0
298,284,304,299,0
294,293,304,299,0
292,308,303,299,0
294,322,302,299,0
296,332,301,300,0
297,338,299,301,0
298,337,298,302,0
298,328,297,303,0
299,318,297,305,0
301,308,299,307,0
303,302,300,310,0
305,298,301,311,0
306,297,302,312,0
308,300,302,312,0
308,304,303,311,0
310,308,303,311,0
311,314,303,312,0
315,322,303,314,0
318,332,304,315,0
319,332,304,316,0
316,323,303,316,0
311,312,302,314,0
306,304,302,312,0
303,301,303,311,0
300,301,305,310,0
299,305,307,310,0
298,312,308,309,0
297,317,309,308,0
296,316,308,308,0
296,313,307,308,0
296,310,307,309,0
298,308,307,310,0
300,305,308,311,0
303,300,310,313,0
306,295,311,313,0
308,291,312,315,0
309,289,313,316,0
310,288,314,317,0
311,290,315,318,0
314,296,316,319,0
314,301,316,318,0
310,302,313,315,0
306,302,311,312,0
303,302,309,311,0
302,301,307,309,0
301,303,304,308,0
301,312,303,307,0
301,328,303,306,0
303,340,305,307,0
304,345,306,308,0
305,343,306,307,0
306,334,306,307,0
306,324,305,306,0
305,316,306,305,0
304,312,307,304,0
304,313,309,304,0
304,318,309,304,0
305,320,308,304,0
305,319,307,304,0
306,317,306,304,0
307,317,306,303,0
308,318,305,303,0
309,318,306,304,0
310,316,306,305,0
311,314,306,305,0
312,311,305,304,0
314,307,304,304,0
314,303,303,303,0
314,299,302,302,0
313,298,302,299,0
312,296,302,297,0
308,293,302,297,0
305,288,302,297,0
302,284,301,299,0
301,282,300,301,0
302,283,299,302,0
305,291,299,303,0
308,304,300,303,0
311,312,300,303,0
311,306,298,302,0
309,291,298,301,0
306,277,297,302,0
