301,256,312,304,0
301,250,310,304,0
302,258,308,305,0
302,274,306,305,0
303,291,306,305,0
305,304,306,307,0
307,315,307,308,0
307,321,306,307,0
305,322,305,306,0
304,317,305,305,0
303,309,305,305,0
303,305,307,305,0
303,308,310,307,0
305,313,312,308,0
308,319,313,310,0
311,328,313,313,0
315,336,314,315,0
318,342,314,316,0
319,345,312,315,0
316,345,307,308,0
310,338,300,299,0
304,326,293,290,0
298,315,287,283,0
294,307,284,279,0
292,301,285,278,0
292,300,288,280,0
292,303,290,285,0
293,306,293,290,0
294,306,296,295,0
294,308,297,300,0
292,313,295,303,0
289,322,291,305,0
288,332,286,307,0
289,334,282,309,0
291,323,282,312,0
295,300,287,316,0
301,272,294,320,0
305,245,301,323,0
308,226,306,324,0
309,218,310,322,0
309,225,312,317,0
308,244,313,313,0
308,268,313,310,0
311,292,312,310,0
314,316,310,310,0
316,339,310,311,0
318,357,311,311,0
317,364,311,311,0
314,357,311,309,0
310,342,312,309,0
307,324,313,308,0
303,307,315,308,0
300,292,315,308,0
299,280,316,308,0
299,271,318,307,0
301,265,321,308,0
303,265,324,309,0
305,272,326,309,0
307,284,328,309,0
309,298,328,308,0
312,307,327,307,0
315,311,324,307,0
316,310,321,307,0
317,310,319,308,0
317,313,317,310,0
318,321,315,313,0
319,334,313,316,0
319,349,312,319,0
319,361,312,320,0
318,364,312,320,0
315,353,311,317,0
312,336,310,314,0
311,316,308,311,0
309,299,305,307,0
309,288,304,304,0
310,284,302,302,0
310,283,301,300,0
310,283,299,298,0
309,282,298,298,0
309,281,299,298,0
308,282,302,298,0
307,283,304,299,0
305,284,302,300,0
303,285,295,301,0
299,284,286,300,0
296,284,276,298,0
294,285,268,297,0
292,287,263,297,0
291,293,262,298,0
291,300,266,300,0
292,310,277,302,0
294,321,291,305,0
297,329,304,308,0
298,331,316,311,0
297,327,324,313,0
297,321,329,314,0
300,317,332,315,0
306,317,334,316,0
313,317,335,316,0
319,317,335,316,0
322,324,334,318,0
322,338,332,320,0
321,352,329,322,0
322,358,325,321,0
324,356,322,320,0
324,353,319,320,0
322,350,315,320,0
319,348,311,320,0
316,349,309,320,0
314,350,309,318,0
313,347,311,318,0
312,338,313,318,0
310,325,316,317,0
310,312,318,315,0
310,296,318,311,0
307,278,316,305,0
304,264,314,301,0
302,255,312,299,0
301,251,310,298,0
300,248,309,298,0
299,245,308,299,0
299,243,307,302,0
299,243,307,305,0
299,246,308,308,0
300,254,311,309,0
302,266,313,309,0
305,281,314,307,0
307,293,314,307,0
307,302,313,307,0
307,307,311,307,0
309,308,311,308,0
312,308,311,308,0
315,306,311,307,0
317,301,308,304,0
318,295,303,302,0
318,293,298,301,0
319,295,295,300,0
320,297,295,301,0
321,299,296,302,0
322,301,297,302,0
322,298,298,301,0
319,284,298,300,0
315,264,298,300,0
311,250,297,299,0
306,252,296,300,0
300,268,294,300,0
296,294,294,302,0
295,321,296,303,0
295,341,298,303,0
296,354,301,301,0
296,358,302,300,0
295,353,301,298,0
293,340,300,296,0
293,326,302,297,0
295,316,306,299,0
299,311,311,302,0
303,306,313,304,0
307,302,311,306,0
308,300,308,306,0
306,300,305,306,0
303,304,303,306,0
301,311,303,308,0
299,319,306,309,0
299,328,310,309,0
301,334,315,307,0
304,336,319,306,0
307,336,323,304,0
313,332,325,303,0
317,326,323,303,0
318,319,318,303,0
316,313,311,302,0
313,308,303,301,0
309,305,295,301,0
307,306,291,303,0
306,314,291,304,0
306,329,294,307,0
306,348,298,309,0
305,366,303,311,0
301,374,306,312,0
296,370,307,311,0
292,354,309,309,0
289,333,312,307,0
287,310,315,304,0
286,288,318,302,0
286,270,321,301,0
288,260,323,301,0
292,257,324,302,0
297,258,324,303,0
301,261,323,304,0
304,262,321,305,0
305,261,319,306,0
305,261,316,307,0
303,263,312,307,0
302,267,308,309,0
302,274,307,310,0
302,282,309,311,0
304,288,310,312,0
306,292,311,312,0
309,295,311,310,0
311,300,311,307,0
314,310,311,305,0
317,319,311,305,0
320,323,311,306,0
322,324,311,307,0
325,319,312,309,0
326,306,311,309,0
325,285,310,307,0
321,267,307,303,0
317,260,304,298,0
313,262,299,294,0
309,270,298,290,0
307,279,300,288,0
307,289,302,288,0
306,298,304,288,0
304,299,304,288,0
302,293,304,289,0
300,281,304,294,0
300,267,304,300,0
301,253,304,309,0
302,241,303,317,0
304,232,303,322,0
305,230,303,326,0
306,243,304,325,0
307,271,305,322,0
309,310,307,318,0
311,348,308,314,0
312,380,309,312,0
311,402,310,309,0
309,410,313,307,0
308,406,315,305,0
306,390,317,302,0
304,367,317,300,0
304,346,314,299,0
305,329,311,300,0
307,318,305,301,0
308,311,298,303,0
310,310,291,306,0
314,315,286,309,0
318,327,284,312,0
323,348,286,315,0
327,372,291,318,0
326,383,295,318,0
319,373,296,315,0
308,347,293,311,0
297,319,288,307,0
290,296,283,304,0
288,279,282,302,0
290,267,283,302,0
294,260,288,301,0
298,256,294,301,0
301,257,302,302,0
303,262,311,303,0
304,269,320,306,0
304,276,327,310,0
303,282,332,312,0
302,286,333,314,0
300,291,332,314,0
299,300,330,313,0
298,311,327,311,0
299,324,323,309,0
302,337,318,307,0
307,353,313,306,0
311,364,309,304,0
315,368,308,302,0
318,367,309,302,0
321,362,312,303,0
324,356,316,305,0
325,351,319,308,0
325,341,322,310,0
320,325,323,311,0
315,307,323,312,0
311,294,322,312,0
307,287,320,313,0
303,287,317,313,0
300,290,314,314,0
297,292,310,314,0
294,290,307,314,0
293,284,306,313,0
294,279,306,313,0
297,277,309,312,0
300,276,313,311,0
302,278,315,310,0
302,282,315,308,0
301,286,317,307,0
301,291,320,307,0
302,297,323,308,0
303,303,324,310,0
301,309,325,311,0
298,311,324,313,0
295,310,321,314,0
293,308,319,313,0
294,305,314,310,0
297,302,309,308,0
303,300,303,305,0
309,301,298,304,0
314,303,295,304,0
317,303,296,303,0
318,300,298,302,0
317,295,299,301,0
316,292,302,300,0
314,295,303,301,0
314,304,305,302,0
315,314,307,304,0
316,321,309,306,0
316,317,311,307,0
314,303,312,307,0
312,286,314,307,0
309,276,315,307,0
307,275,314,308,0
304,278,313,309,0
302,282,313,310,0
300,284,313,309,0
300,288,313,308,0
300,294,312,307,0
302,303,310,306,0
303,310,307,306,0
304,315,304,305,0
306,315,301,304,0
306,307,298,303,0
305,294,296,302,0
305,281,294,302,0
305,271,292,303,0
303,266,291,302,0
302,269,292,302,0
302,282,295,302,0
302,300,298,303,0
303,317,301,305,0
305,330,306,307,0
308,339,311,309,0
312,343,316,311,0
315,339,319,310,0
316,330,319,307,0
315,323,319,303,0
314,325,320,300,0
313,336,322,298,0
313,351,322,295,0
313,360,320,293,0
312,360,316,290,0
312,350,311,288,0
312,334,307,286,0
312,317,305,287,0
312,308,304,289,0
310,308,303,294,0
306,316,303,299,0
303,325,303,304,0
302,336,304,309,0
301,346,305,313,0
302,353,306,315,0
303,355,308,315,0
304,355,307,314,0
304,349,306,313,0
305,335,304,310,0
305,315,299,307,0
305,293,291,304,0
304,275,280,303,0
303,265,270,304,0
302,262,262,304,0
301,264,258,304,0
301,268,261,303,0
301,272,271,302,0
303,275,286,301,0
305,278,302,302,0
306,281,313,302,0
306,283,321,302,0
306,284,324,303,0
307,286,326,304,0
307,289,326,304,0
306,291,325,305,0
306,293,324,306,0
307,294,322,308,0
308,296,321,309,0
309,299,318,310,0
311,303,317,310,0
314,308,316,311,0
316,314,316,311,0
318,318,317,311,0
317,315,317,309,0
315,309,316,307,0
313,302,314,306,0
313,297,312,306,0
313,295,311,307,0
315,295,310,309,0
315,298,311,311,0
313,302,313,312,0
308,306,315,312,0
303,309,315,311,0
297,313,314,310,0
294,319,312,309,0
293,323,312,308,0
295,326,312,308,0
298,326,312,308,0
299,324,311,306,0
300,321,310,304,0
301,320,310,302,0
304,322,310,300,0
307,324,309,299,0
307,321,306,296,0
301,313,302,294,0
292,305,295,292,0
283,301,291,293,0
281,299,292,294,0
285,294,297,294,0
292,287,300,294,0
298,282,300,295,0
299,284,297,295,0
299,292,295,297,0
298,302,297,299,0
297,308,298,302,0
296,313,299,302,0
297,319,300,302,0
300,332,301,301,0
306,350,303,301,0
312,361,305,300,0
313,350,308,298,0
311,324,309,295,0
309,298,308,292,0
306,273,306,290,0
303,252,303,288,0
302,237,301,286,0
301,225,299,282,0
299,220,297,277,0
299,221,296,272,0
298,229,297,267,0
297,240,300,263,0
294,252,304,259,0
290,263,307,257,0
284,270,310,255,0
279,273,311,255,0
279,276,309,257,0
284,280,303,260,0
290,286,292,265,0
296,296,277,270,0
300,307,262,275,0
301,315,247,279,0
299,317,234,284,0
296,317,228,289,0
296,318,233,296,0
298,321,246,302,0
301,323,265,307,0
307,325,287,312,0
313,328,309,315,0
318,334,327,318,0
319,340,338,321,0
316,344,343,324,0
312,346,345,326,0
307,347,344,328,0
303,350,339,329,0
302,356,332,329,0
305,364,319,329,0
311,371,301,328,0
318,373,278,328,0
324,365,254,328,0
330,354,233,328,0
333,346,223,328,0
333,341,224,328,0
326,336,241,326,0
315,331,268,325,0
306,328,297,324,0
303,328,320,325,0
302,331,330,324,0
301,334,331,323,0
298,337,328,321,0
293,338,325,320,0
291,330,328,321,0
291,312,333,323,0
293,293,339,325,0
294,277,344,327,0
294,265,345,327,0
294,261,345,328,0
296,265,345,329,0
297,274,343,329,0
298,280,340,328,0
296,279,335,326,0
295,275,330,323,0
294,271,326,321,0
295,270,325,322,0
298,273,325,323,0
301,279,325,323,0
303,287,326,321,0
305,298,325,317,0
306,311,322,312,0
305,324,317,306,0
303,332,312,304,0
299,333,306,304,0
293,331,302,306,0
289,330,300,311,0
287,332,301,316,0
285,331,302,320,0
285,325,302,324,0
284,315,303,326,0
286,302,305,327,0
290,287,307,326,0
295,274,310,325,0
298,268,311,323,0
301,272,312,321,0
302,285,312,319,0
302,303,313,317,0
301,320,313,314,0
300,330,313,313,0
299,333,313,312,0
300,333,311,312,0
302,333,310,313,0
305,335,308,314,0
308,342,307,316,0
311,353,307,319,0
313,367,308,322,0
314,380,308,325,0
314,388,309,328,0
313,383,310,329,0
309,362,310,327,0
305,329,308,325,0
301,291,306,322,0
296,257,304,319,0
293,232,303,317,0
293,215,304,317,0
294,207,304,317,0
297,204,304,317,0
299,206,304,317,0
302,212,304,316,0
305,223,303,314,0
306,241,302,311,0
305,263,299,309,0
304,287,298,310,0
305,309,300,312,0
307,329,302,313,0
308,344,304,314,0
307,352,305,315,0
306,354,307,318,0
303,349,308,321,0
301,344,310,323,0
303,342,313,326,0
308,347,316,328,0
314,355,318,329,0
319,361,317,329,0
320,362,315,328,0
319,357,313,325,0
317,343,312,321,0
312,323,310,316,0
308,304,309,313,0
304,288,306,311,0
301,277,302,310,0
299,272,297,308,0
299,270,295,307,0
302,272,296,308,0
305,278,301,310,0
307,287,307,313,0
308,297,312,316,0
306,303,315,318,0
305,309,317,319,0
305,314,319,319,0
307,319,320,321,0
310,326,321,322,0
314,339,321,323,0
319,353,319,324,0
323,367,317,324,0
324,375,314,322,0
321,376,307,319,0
314,370,298,315,0
304,356,290,312,0
296,341,287,312,0
291,326,288,315,0
288,314,293,317,0
288,305,300,319,0
290,299,308,322,0
297,296,315,324,0
306,291,320,325,0
313,284,317,325,0
316,278,312,323,0
316,274,306,320,0
314,273,303,318,0
311,276,302,317,0
309,280,302,316,0
309,284,304,316,0
310,286,306,315,0
311,289,310,315,0
313,295,313,316,0
315,303,315,316,0
316,313,315,315,0
318,324,314,313,0
320,334,311,310,0
320,344,305,308,0
318,354,299,308,0
316,363,295,309,0
315,363,295,311,0
313,352,295,311,0
312,336,296,312,0
310,319,296,313,0
307,302,294,314,0
303,286,295,317,0
301,274,299,323,0
300,270,304,327,0
302,277,308,331,0
307,294,310,333,0
312,314,308,333,0
315,324,302,332,0
317,324,295,330,0
319,315,287,327,0
320,300,278,321,0
319,277,273,315,0
316,248,273,310,0
312,223,278,306,0
307,212,287,306,0
302,217,295,309,0
296,231,299,312,0
290,246,301,313,0
288,263,301,315,0
288,279,300,315,0
291,291,301,315,0
296,300,300,315,0
302,306,300,316,0
308,311,301,317,0
312,314,301,319,0
314,316,302,320,0
313,313,302,321,0
311,311,301,321,0
308,310,297,321,0
305,312,290,321,0
301,317,281,320,0
297,322,273,319,0
295,324,267,318,0
293,326,264,318,0
293,327,265,320,0
292,327,269,321,0
292,324,277,321,0
291,320,285,322,0
289,319,295,321,0
288,320,304,320,0
287,323,316,320,0
289,327,327,321,0
294,331,335,322,0
302,333,338,321,0
312,332,337,320,0
320,331,333,318,0
327,330,329,316,0
328,330,324,313,0
326,330,320,312,0
322,328,318,311,0
319,327,316,310,0
319,329,314,308,0
319,333,309,306,0
320,337,303,306,0
318,337,296,306,0
314,333,290,307,0
310,323,288,307,0
307,314,291,308,0
305,306,299,308,0
302,299,308,307,0
298,295,316,307,0
295,294,323,308,0
294,298,326,310,0
296,307,326,312,0
299,319,323,313,0
302,329,318,313,0
306,334,313,314,0
310,332,309,316,0
313,321,305,318,0
314,310,304,319,0
314,304,302,319,0
313,305,303,320,0
311,311,304,319,0
310,312,305,318,0
307,303,305,316,0
303,288,306,313,0
301,273,308,310,0
300,262,309,307,0
301,256,310,303,0
302,253,309,302,0
304,252,309,302,0
302,253,308,304,0
299,252,307,306,0
297,251,305,307,0
295,254,301,307,0
296,263,295,305,0
296,272,289,303,0
298,280,285,302,0
300,285,284,303,0
300,289,288,305,0
301,291,295,307,0
301,289,303,309,0
301,287,310,309,0
301,287,315,310,0
302,297,317,311,0
301,310,316,312,0
300,321,314,312,0
300,327,313,313,0
303,332,312,315,0
307,334,310,316,0
310,333,308,317,0
313,331,307,319,0
316,333,307,321,0
317,334,305,323,0
316,328,300,322,0
310,316,295,318,0
302,303,292,312,0
295,297,290,306,0
291,299,289,301,0
291,307,291,298,0
293,314,291,298,0
295,318,290,300,0
298,322,288,302,0
301,328,288,303,0
303,332,290,303,0
305,332,295,304,0
306,329,300,305,0
305,324,304,305,0
303,323,305,306,0
302,330,305,308,0
301,338,305,309,0
300,340,305,309,0
299,330,304,309,0
298,315,303,309,0
297,301,302,307,0
295,292,299,306,0
294,287,296,305,0
294,288,295,304,0
294,294,295,305,0
295,303,296,305,0
295,311,295,306,0
293,316,296,307,0
291,316,298,309,0
289,313,300,312,0
288,309,303,314,0
288,307,305,316,0
288,306,309,317,0
289,304,312,316,0
290,302,314,314,0
293,305,316,313,0
298,317,318,314,0
303,334,319,314,0
308,349,319,315,0
312,357,318,316,0
314,350,316,315,0
314,333,314,312,0
313,318,313,309,0
313,315,314,308,0
313,319,319,307,0
312,320,323,307,0
309,310,325,305,0
304,295,324,304,0
301,280,322,302,0
298,267,319,301,0
297,256,315,300,0
297,249,311,297,0
297,246,308,296,0
297,250,306,296,0
298,259,305,297,0
300,269,305,301,0
303,281,307,306,0
306,296,309,311,0
307,314,308,314,0
306,335,306,315,0
303,356,303,315,0
302,371,303,317,0
300,377,304,318,0
299,374,307,319,0
299,364,311,320,0
299,351,315,320,0
299,336,319,318,0
298,317,320,315,0
296,298,318,311,0
294,282,313,306,0
291,271,307,301,0
288,265,302,298,0
287,264,300,296,0
290,263,299,294,0
294,260,298,293,0
298,253,297,294,0
304,248,297,297,0
307,246,297,302,0
308,246,298,307,0
306,248,299,309,0
302,255,300,310,0
298,270,301,309,0
296,290,300,307,0
293,309,296,303,0
290,321,290,299,0
288,323,285,298,0
286,325,283,298,0
288,332,286,301,0
289,343,289,304,0
288,355,293,307,0
286,360,296,308,0
283,353,298,308,0
280,335,299,307,0
282,314,299,307,0
286,298,299,308,0
291,287,301,308,0
296,284,303,309,0
299,287,304,307,0
301,291,305,305,0
301,295,306,304,0
301,298,305,304,0
300,300,303,304,0
300,301,300,305,0
299,303,297,305,0
298,306,295,305,0
297,311,295,307,0
297,318,297,309,0
296,326,300,312,0
297,336,304,313,0
299,341,309,316,0
303,334,313,318,0
306,316,317,319,0
310,298,321,320,0
315,284,323,320,0
317,277,324,320,0
318,275,325,321,0
318,274,326,323,0
317,279,326,325,0
314,290,325,326,0
310,304,323,327,0
305,319,320,327,0
298,330,317,325,0
293,337,314,322,0
289,336,311,318,0
286,328,308,312,0
285,316,306,305,0
285,305,304,299,0
287,297,303,295,0
288,291,303,293,0
289,288,302,293,0
291,289,303,293,0
293,295,304,295,0
296,303,305,297,0
297,310,307,299,0
298,312,309,302,0
297,310,310,303,0
295,308,312,306,0
295,309,313,308,0
294,313,314,309,0
294,322,313,309,0
295,335,313,310,0
300,352,313,311,0
306,363,313,312,0
309,361,313,311,0
308,346,311,308,0
306,324,308,305,0
304,304,305,301,0
301,290,302,299,0
299,286,300,298,0
296,289,299,297,0
292,297,299,297,0
289,303,299,296,0
287,302,298,295,0
285,295,296,293,0
286,285,297,292,0
288,279,299,292,0
290,276,301,293,0
294,278,304,296,0
299,286,306,298,0
304,299,308,301,0
309,312,309,301,0
310,319,307,300,0
310,319,304,298,0
308,313,303,295,0
306,305,302,293,0
304,296,302,292,0
304,288,302,291,0
306,282,303,291,0
311,279,301,292,0
315,276,294,292,0
316,271,283,293,0
312,265,272,293,0
304,261,267,295,0
296,264,270,298,0
292,274,281,302,0
290,284,294,305,0
290,287,307,308,0
291,282,318,310,0
293,273,323,310,0
295,265,324,310,0
296,264,321,308,0
297,270,316,306,0
297,279,312,303,0
299,288,308,300,0
299,295,303,296,0
297,300,299,294,0
296,306,298,293,0
296,315,299,294,0
296,327,303,295,0
296,345,308,298,0
298,368,313,302,0
300,391,316,305,0
300,407,317,308,0
299,410,318,309,0
297,397,317,308,0
294,369,316,306,0
292,330,314,303,0
292,290,311,301,0
292,256,308,300,0
293,233,307,300,0
296,220,306,301,0
298,221,306,302,0
301,238,308,304,0
305,264,311,307,0
307,292,315,309,0
308,313,318,310,0
306,325,319,309,0
302,328,318,306,0
299,321,316,304,0
300,306,313,301,0
300,285,309,299,0
299,265,307,298,0
298,254,304,300,0
297,253,304,303,0
297,261,305,308,0
299,273,306,313,0
300,288,308,316,0
301,303,309,318,0
301,317,309,318,0
301,328,308,316,0
301,336,308,313,0
301,339,308,310,0
299,331,308,307,0
297,313,307,304,0
295,293,305,303,0
294,278,304,301,0
296,270,303,301,0
298,270,301,300,0
300,277,301,300,0
302,293,302,301,0
304,320,304,301,0
305,351,306,301,0
305,377,306,300,0
305,389,303,299,0
306,384,300,299,0
308,367,297,298,0
309,346,295,299,0
308,328,293,302,0
303,313,292,306,0
297,302,291,309,0
291,295,290,311,0
288,295,291,312,0
289,299,291,312,0
294,307,293,313,0
301,316,293,314,0
310,321,291,315,0
315,319,289,314,0
316,305,286,311,0
314,289,284,306,0
310,278,283,301,0
306,273,283,298,0
306,276,287,296,0
308,284,292,295,0
312,293,299,296,0
315,297,309,297,0
316,294,321,298,0
316,288,331,299,0
314,279,337,300,0
312,270,337,301,0
308,264,334,300,0
305,259,329,300,0
302,258,324,300,0
299,262,320,301,0
297,267,315,303,0
296,274,309,303,0
295,278,303,303,0
293,281,296,302,0
289,283,290,302,0
285,286,284,302,0
281,290,282,304,0
283,294,285,307,0
289,303,291,312,0
298,316,299,317,0
306,327,306,322,0
312,335,312,325,0
315,341,316,328,0
317,348,318,330,0
317,354,318,331,0
317,358,315,330,0
315,349,313,328,0
312,323,312,325,0
309,289,313,321,0
307,260,315,316,0
305,244,318,312,0
304,242,323,308,0
302,250,328,306,0
299,264,330,303,0
296,283,329,302,0
294,298,327,300,0
294,306,324,299,0
296,307,321,298,0
299,303,318,298,0
302,300,314,298,0
302,299,310,298,0
301,299,307,299,0
301,302,305,301,0
303,309,305,305,0
305,316,305,307,0
307,322,307,310,0
306,328,308,311,0
303,332,307,311,0
298,333,304,309,0
292,334,301,307,0
288,333,297,307,0
285,330,295,306,0
286,325,296,306,0
291,319,299,306,0
299,311,303,306,0
308,297,307,305,0
315,277,309,303,0
318,259,308,301,0
317,250,307,298,0
315,249,307,296,0
312,250,306,296,0
309,253,305,296,0
306,259,305,299,0
305,270,305,302,0
305,284,303,306,0
305,299,302,310,0
306,310,300,313,0
307,319,300,315,0
308,326,300,317,0
306,329,299,318,0
303,333,296,316,0
298,340,292,314,0
297,349,288,314,0
298,363,288,313,0
299,376,288,312,0
299,380,288,310,0
298,371,291,308,0
297,356,297,306,0
299,338,304,304,0
301,319,310,304,0
303,302,314,304,0
303,289,316,306,0
301,281,318,307,0
300,276,319,309,0
300,274,319,311,0
303,275,320,311,0
307,276,317,311,0
312,276,314,311,0
313,277,310,311,0
313,282,306,310,0
312,290,303,309,0
311,297,304,307,0
310,302,305,308,0
310,307,308,309,0
311,308,311,308,0
313,304,313,306,0
314,296,314,303,0
313,289,315,302,0
312,288,315,303,0
311,291,316,303,0
308,291,315,302,0
302,289,312,302,0
297,289,309,301,0
291,293,305,301,0
287,298,304,301,0
285,302,305,303,0
287,304,307,305,0
291,306,307,307,0
297,308,305,309,0
304,309,304,311,0
309,309,304,310,0
312,306,305,309,0
314,299,306,307,0
313,294,307,305,0
310,296,307,304,0
305,301,305,302,0
299,306,302,301,0
291,311,299,300,0
286,316,297,301,0
283,321,298,302,0
287,328,301,305,0
293,338,304,307,0
301,347,308,309,0
309,346,310,310,0
314,335,310,310,0
315,323,308,310,0
315,314,307,311,0
313,304,306,311,0
311,290,307,311,0
309,275,310,311,0
307,262,314,310,0
306,254,318,309,0
304,251,319,308,0
302,253,320,306,0
299,261,319,303,0
295,273,317,301,0
291,286,314,299,0
289,299,311,299,0
290,312,308,299,0
295,326,306,301,0
301,343,304,304,0
306,358,304,306,0
310,370,306,309,0
311,381,310,312,0
310,383,313,314,0
308,373,314,313,0
304,356,312,311,0
302,337,308,309,0
301,321,303,307,0
301,310,300,304,0
303,304,300,302,0
305,302,302,299,0
306,297,305,295,0
304,287,306,290,0
300,277,306,286,0
297,270,306,283,0
294,265,305,282,0
291,264,303,282,0
290,267,302,284,0
290,271,300,287,0
293,272,299,291,0
295,273,299,296,0
297,276,301,300,0
299,285,304,305,0
301,297,308,310,0
303,310,312,314,0
304,318,312,317,0
304,317,310,318,0
301,309,305,317,0
297,297,300,316,0
292,286,295,312,0
289,280,291,308,0
289,282,290,305,0
292,289,292,302,0
295,293,296,301,0
298,297,302,300,0
301,302,306,300,0
302,307,309,300,0
301,310,308,300,0
300,310,308,302,0
299,308,305,304,0
299,305,302,307,0
301,305,300,311,0
305,309,300,315,0
310,315,300,319,0
312,320,302,320,0
312,324,305,320,0
312,328,309,318,0
311,333,313,316,0
309,340,316,314,0
306,343,314,311,0
304,344,309,309,0
302,343,304,306,0
299,336,300,303,0
294,326,296,300,0
289,318,293,298,0
287,312,292,297,0
287,305,292,296,0
287,297,294,296,0
289,292,296,297,0
292,294,299,299,0
294,303,302,300,0
295,314,305,302,0
297,323,308,303,0
295,323,311,304,0
293,316,313,307,0
291,306,316,310,0
293,300,318,313,0
296,298,318,316,0
299,296,319,319,0
301,291,318,321,0
300,283,317,322,0
297,273,315,321,0
295,264,313,320,0
293,258,311,318,0
293,258,309,316,0
297,265,309,315,0
303,281,309,315,0
309,304,308,315,0
312,329,307,315,0
313,351,307,317,0
312,359,308,318,0
311,352,308,318,0
308,335,307,318,0
304,317,306,317,0
302,306,305,316,0
300,303,304,315,0
299,304,305,313,0
298,301,307,312,0
298,294,309,311,0
298,288,309,309,0
297,285,310,309,0
296,288,310,309,0
296,298,310,310,0
297,315,309,310,0
299,334,306,311,0
300,347,302,311,0
299,349,298,310,0
298,339,296,309,0
296,323,296,307,0
294,306,298,304,0
294,292,301,302,0
294,285,307,302,0
296,284,312,303,0
299,288,316,306,0
303,296,316,309,0
306,308,314,311,0
308,325,311,313,0
310,346,309,314,0
311,360,306,315,0
311,362,304,313,0
312,354,303,311,0
312,345,301,310,0
311,335,301,308,0
310,322,303,307,0
309,309,306,305,0
307,301,309,304,0
304,299,310,304,0
299,299,310,305,0
296,298,309,306,0
293,294,305,307,0
292,288,299,307,0
291,285,291,306,0
293,285,284,305,0
295,292,278,305,0
297,307,276,305,0
301,334,280,306,0
305,367,287,309,0
308,394,293,311,0
308,401,296,312,0
304,383,298,311,0
298,351,298,310,0
294,320,301,308,0
293,297,304,306,0
295,278,309,304,0
298,265,314,302,0
301,258,317,302,0
302,257,316,302,0
302,262,315,302,0
303,270,314,304,0
304,281,313,308,0
307,291,312,312,0
310,297,312,316,0
313,300,311,320,0
315,302,312,321,0
315,304,312,320,0
313,303,313,317,0
310,300,313,314,0
309,299,313,313,0
308,303,314,313,0
309,313,316,313,0
312,319,317,313,0
312,315,316,312,0
312,303,314,310,0
310,289,310,309,0
307,276,305,307,0
303,268,302,304,0
299,265,300,303,0
297,266,300,303,0
296,267,301,304,0
297,266,303,306,0
299,267,306,310,0
301,272,311,314,0
303,281,316,318,0
306,294,318,321,0
309,311,317,323,0
314,332,314,323,0
318,355,311,320,0
320,376,306,317,0
320,392,301,315,0
316,399,298,313,0
308,394,295,312,0
300,382,293,311,0
294,364,292,309,0
293,345,294,307,0
295,325,297,304,0
297,301,298,302,0
300,272,299,301,0
302,245,299,301,0
304,224,300,302,0
306,211,301,304,0
307,206,303,305,0
306,209,304,304,0
305,221,305,303,0
305,242,307,303,0
305,265,310,302,0
304,285,312,301,0
303,298,312,299,0
302,305,312,298,0
300,309,310,297,0
301,311,308,296,0
301,314,307,297,0
303,319,306,299,0
304,326,305,301,0
304,330,303,303,0
302,331,301,304,0
298,329,300,305,0
296,324,299,305,0
295,318,302,306,0
296,313,305,310,0
298,312,309,312,0
302,316,312,313,0
305,323,314,314,0
308,334,315,313,0
311,345,314,313,0
314,352,314,312,0
316,357,313,312,0
317,359,312,312,0
316,356,310,311,0
313,349,307,309,0
309,337,304,307,0
306,325,302,304,0
304,314,300,303,0
304,306,298,303,0
304,300,299,303,0
306,295,299,303,0
307,291,299,304,0
306,285,300,304,0
306,283,301,305,0
306,289,302,307,0
308,305,304,310,0
311,331,305,313,0
314,363,306,316,0
316,391,307,318,0
316,399,308,319,0
315,386,310,318,0
312,364,310,316,0
310,343,310,314,0
309,324,306,311,0
307,308,302,309,0
305,296,297,307,0
302,287,292,306,0
298,276,288,305,0
295,265,287,304,0
293,257,287,304,0
291,255,288,303,0
292,260,291,301,0
294,271,296,301,0
298,284,301,300,0
300,293,305,299,0
300,297,309,297,0
299,301,313,298,0
299,307,317,299,0
302,316,319,302,0
306,326,318,306,0
310,332,315,308,0
313,335,312,309,0
312,338,308,309,0
311,342,305,310,0
311,344,304,312,0
313,341,305,313,0
314,331,306,314,0
314,318,308,313,0
314,306,309,311,0
312,297,311,309,0
310,291,312,307,0
309,287,313,307,0
309,284,315,308,0
310,285,315,309,0
310,291,314,310,0
310,297,314,310,0
310,299,313,310,0
309,299,314,311,0
310,299,314,312,0
311,299,314,314,0
312,295,316,315,0
314,289,318,316,0
316,283,319,315,0
318,281,319,314,0
319,286,319,313,0
319,298,317,311,0
319,314,316,308,0
319,329,313,305,0
317,339,310,303,0
314,344,307,302,0
313,345,304,303,0
310,342,302,304,0
306,334,301,304,0
301,321,301,305,0
296,304,303,305,0
293,284,305,306,0
294,262,306,306,0
295,244,305,305,0
297,232,304,304,0
300,228,304,304,0
301,235,306,303,0
301,254,307,303,0
301,281,309,304,0
301,306,311,305,0
301,321,310,304,0
301,327,307,302,0
299,329,306,301,0
299,330,305,301,0
301,332,303,300,0
301,332,301,300,0
302,333,301,301,0
303,333,303,303,0
303,331,306,304,0
301,327,306,306,0
299,320,306,307,0
298,312,305,308,0
297,303,303,308,0
296,297,302,307,0
296,294,301,307,0
297,294,300,308,0
298,296,299,309,0
301,299,300,311,0
303,305,300,312,0
305,311,300,312,0
307,316,301,314,0
308,321,301,315,0
309,327,301,316,0
309,331,299,315,0
308,330,297,312,0
306,322,293,308,0
303,312,290,306,0
302,303,289,305,0
301,297,292,305,0
303,298,298,306,0
305,303,305,307,0
308,311,311,309,0
311,319,314,310,0
314,325,315,311,0
316,328,315,311,0
318,332,313,312,0
319,341,311,313,0
319,356,312,315,0
318,374,314,317,0
317,386,316,319,0
318,383,318,318,0
319,365,318,317,0
320,337,317,316,0
319,307,315,313,0
316,278,313,310,0
312,256,310,306,0
309,241,307,302,0
307,234,306,300,0
305,233,305,299,0
303,237,305,299,0
301,243,305,299,0
299,251,305,301,0
300,258,304,303,0
303,265,305,306,0
307,270,306,309,0
312,277,308,312,0
315,288,308,314,0
315,302,307,316,0
312,311,304,316,0
308,313,300,315,0
304,307,298,316,0
302,299,298,317,0
302,293,299,319,0
303,286,301,322,0
302,275,303,323,0
299,264,304,322,0
295,254,306,320,0
292,250,307,316,0
289,258,307,311,0
289,281,306,306,0
294,315,307,304,0
301,355,309,303,0
309,390,311,303,0
314,407,313,303,0
316,400,316,304,0
316,378,316,304,0
314,351,315,304,0
313,329,314,304,0
312,312,314,305,0
310,302,313,306,0
307,299,312,307,0
303,306,309,307,0
301,324,308,308,0
301,342,309,309,0
302,347,312,309,0
300,334,313,308,0
297,313,313,307,0
294,295,313,307,0
293,282,311,308,0
291,274,309,307,0
290,271,307,307,0
288,271,303,307,0
287,274,302,308,0
289,276,302,309,0
292,278,305,311,0
295,278,308,312,0
298,279,311,312,0
299,282,312,312,0
302,287,312,311,0
303,293,311,312,0
304,298,309,312,0
304,303,306,312,0
304,307,303,311,0
305,307,299,310,0
304,303,295,306,0
302,297,294,304,0
300,291,294,302,0
298,287,295,300,0
297,286,297,299,0
295,291,298,299,0
295,297,298,300,0
296,304,298,300,0
299,311,297,301,0
302,318,298,302,0
303,324,300,303,0
302,328,303,305,0
299,330,306,306,0
296,334,309,308,0
295,343,310,310,0
295,356,311,313,0
299,368,310,314,0
305,379,308,315,0
311,382,305,313,0
313,369,300,310,0
312,345,296,306,0
307,319,293,302,0
302,298,293,301,0
297,283,294,300,0
294,274,296,301,0
292,272,300,302,0
294,275,305,305,0
297,285,311,308,0
300,295,314,310,0
302,303,317,312,0
303,306,318,312,0
302,301,319,311,0
301,289,318,309,0
300,273,316,306,0
298,261,314,305,0
299,255,313,305,0
300,255,312,306,0
302,258,312,305,0
302,262,311,305,0
302,269,308,304,0
301,274,304,302,0
299,276,301,300,0
298,276,299,298,0
297,276,298,297,0
296,275,297,296,0
296,275,296,296,0
297,278,296,296,0
299,283,297,296,0
301,290,297,298,0
304,296,300,302,0
307,299,302,307,0
310,300,304,311,0
313,301,307,315,0
316,306,310,317,0
317,317,311,318,0
316,330,311,316,0
313,339,309,314,0
309,340,307,312,0
304,336,307,310,0
302,328,307,308,0
300,319,307,307,0
299,309,307,306,0
296,303,306,305,0
293,300,305,305,0
291,303,304,304,0
289,310,301,303,0
289,316,299,304,0
291,323,298,304,0
296,334,298,306,0
301,346,298,308,0
304,353,298,309,0
306,357,297,312,0
306,358,297,314,0
305,351,298,316,0
304,333,300,316,0
302,308,300,314,0
299,286,300,311,0
298,269,302,308,0
298,261,306,308,0
298,258,311,308,0
299,260,315,308,0
299,267,317,308,0
298,276,317,307,0
297,285,316,306,0
296,293,311,305,0
296,299,307,303,0
295,301,302,299,0
293,297,298,297,0
291,291,294,295,0
290,282,294,296,0
292,273,295,298,0
297,269,296,302,0
302,270,299,307,0
309,275,302,312,0
314,282,302,316,0
317,288,302,317,0
318,293,299,316,0
316,297,296,314,0
312,307,296,310,0
309,318,297,307,0
307,329,297,303,0
305,336,296,299,0
306,341,296,297,0
307,341,297,296,0
306,333,297,295,0
306,320,298,295,0
306,309,300,297,0
307,302,301,298,0
308,299,303,300,0
309,301,304,302,0
310,309,304,304,0
311,318,304,305,0
311,329,304,306,0
310,339,304,306,0
308,342,303,305,0
304,336,303,305,0
298,322,304,304,0
293,305,305,303,0
287,291,304,304,0
281,283,301,305,0
279,276,297,306,0
280,272,292,306,0
284,271,288,305,0
291,271,287,305,0
298,273,289,306,0
304,280,294,307,0
309,292,300,309,0
315,314,306,311,0
319,340,309,311,0
321,360,310,311,0
320,364,309,310,0
317,352,306,311,0
314,333,302,312,0
311,313,298,311,0
308,298,296,311,0
306,289,295,309,0
306,287,295,309,0
309,294,297,309,0
312,302,296,306,0
312,305,292,302,0
309,302,287,299,0
304,299,283,298,0
299,295,282,298,0
296,295,285,300,0
294,298,293,302,0
294,302,302,305,0
294,305,309,307,0
293,307,314,309,0
291,305,317,310,0
291,298,321,311,0
292,288,324,311,0
296,277,326,313,0
299,266,327,315,0
303,257,327,317,0
307,254,326,318,0
313,256,325,318,0
319,265,323,318,0
323,276,319,317,0
325,291,316,317,0
326,311,313,317,0
325,333,313,314,0
322,350,313,311,0
318,360,315,307,0
313,363,315,302,0
308,362,314,299,0
303,360,312,297,0
300,359,310,299,0
299,358,308,301,0
299,347,308,303,0
299,324,307,305,0
299,298,306,308,0
302,276,306,311,0
305,262,309,314,0
307,255,313,315,0
306,255,319,316,0
305,265,322,315,0
304,286,323,312,0
304,313,320,309,0
304,339,317,306,0
304,353,313,305,0
301,351,309,303,0
298,338,305,301,0
296,324,301,301,0
294,310,297,300,0
293,298,295,298,0
293,290,294,297,0
293,286,294,296,0
293,285,295,296,0
293,284,297,298,0
294,285,299,302,0
296,287,302,307,0
298,288,306,312,0
299,289,308,315,0
298,291,312,316,0
297,293,315,317,0
296,296,317,317,0
294,298,319,316,0
292,297,318,313,0
292,296,317,311,0
294,292,314,310,0
297,286,312,309,0
299,280,310,309,0
302,276,309,308,0
303,275,307,307,0
302,274,306,307,0
300,277,306,307,0
298,282,305,307,0
297,290,304,307,0
297,302,304,307,0
297,320,305,307,0
300,338,306,307,0
304,355,307,310,0
307,368,306,312,0
309,374,304,313,0
309,369,300,311,0
308,358,297,308,0
305,343,294,305,0
303,328,291,303,0
302,314,290,301,0
300,301,290,300,0
300,292,292,299,0
300,286,296,298,0
301,284,301,299,0
304,285,303,301,0
307,288,304,305,0
308,289,301,308,0
308,287,297,311,0
307,285,292,313,0
302,282,288,314,0
297,280,286,314,0
292,278,286,314,0
290,279,291,313,0
293,286,299,314,0
301,300,310,314,0
312,315,319,315,0
320,325,322,314,0
322,325,321,313,0
318,316,319,311,0
312,305,317,309,0
307,298,315,307,0
304,295,315,305,0
303,296,315,305,0
305,300,316,305,0
308,310,317,307,0
311,323,318,308,0
314,335,320,309,0
318,340,321,310,0
321,338,322,313,0
324,333,322,315,0
326,325,322,317,0
326,316,322,320,0
323,305,319,322,0
317,295,315,323,0
312,286,311,323,0
307,280,308,323,0
303,276,306,321,0
300,274,306,317,0
298,271,307,313,0
295,272,306,308,0
294,278,304,305,0
295,290,303,303,0
297,303,302,303,0
299,314,303,304,0
302,321,306,307,0
305,322,310,307,0
306,314,311,306,0
306,301,310,303,0
304,289,308,301,0
303,281,306,301,0
302,276,305,302,0
302,274,306,304,0
302,275,307,306,0
302,277,308,308,0
302,281,311,310,0
303,287,315,313,0
303,296,319,314,0
303,308,322,314,0
304,316,323,313,0
306,319,322,311,0
306,318,320,308,0
304,315,317,305,0
303,312,314,303,0
303,308,311,301,0
305,302,308,302,0
308,297,307,303,0
310,301,307,305,0
312,315,307,309,0
313,332,307,312,0
311,344,306,315,0
309,350,306,316,0
307,345,307,316,0
303,329,305,314,0
299,309,302,310,0
297,295,299,306,0
296,287,297,303,0
296,284,297,299,0
297,286,299,297,0
300,291,301,296,0
300,297,301,295,0
299,300,299,294,0
296,301,296,295,0
292,300,294,295,0
290,296,294,295,0
290,289,295,295,0
290,284,298,295,0
292,282,302,296,0
296,285,305,298,0
299,291,308,299,0
303,297,309,302,0
307,303,310,306,0
314,308,309,310,0
320,310,307,312,0
323,306,303,312,0
322,298,300,310,0
320,290,301,309,0
319,287,307,309,0
318,290,314,309,0
316,297,318,308,0
314,308,320,308,0
313,320,321,309,0
314,330,321,309,0
312,334,319,307,0
309,331,318,306,0
307,325,315,304,0
303,318,313,303,0
300,308,311,301,0
297,298,309,301,0
295,289,309,301,0
294,286,311,302,0
296,287,316,305,0
300,294,323,309,0
305,301,330,312,0
310,304,334,313,0
313,303,336,312,0
314,299,335,311,0
312,291,332,309,0
308,284,328,306,0
304,279,324,305,0
302,277,320,303,0
300,279,316,302,0
299,284,313,302,0
300,292,312,301,0
302,303,311,302,0
305,317,311,303,0
309,332,312,305,0
312,343,311,307,0
314,345,310,308,0
316,343,309,311,0
316,346,308,315,0
317,358,310,321,0
319,371,312,326,0
320,372,314,327,0
316,351,314,324,0
310,318,314,321,0
305,288,314,316,0
301,267,313,311,0
298,259,312,305,0
295,260,310,302,0
296,268,308,301,0
297,279,308,302,0
299,290,308,304,0
301,299,307,305,0
302,300,306,304,0
300,294,305,302,0
297,287,305,299,0
295,283,305,296,0
292,282,304,295,0
290,285,302,296,0
290,292,301,298,0
292,303,302,301,0
296,312,303,305,0
300,320,306,308,0
302,321,309,310,0
304,315,312,312,0
307,304,315,315,0
309,291,318,318,0
311,277,321,320,0
311,266,321,321,0
311,264,318,321,0
311,271,313,320,0
310,283,307,320,0
308,297,302,318,0
305,305,298,315,0
301,303,295,311,0
297,296,294,306,0
294,291,293,301,0
292,292,295,298,0
293,299,298,296,0
297,309,304,298,0
302,322,309,302,0
308,339,314,307,0
312,357,318,311,0
313,374,321,315,0
313,385,324,317,0
309,383,326,319,0
306,369,327,319,0
303,353,327,318,0
302,340,324,316,0
300,329,317,314,0
298,316,307,311,0
298,302,297,308,0
301,289,291,306,0
306,281,288,305,0
310,277,289,303,0
311,275,292,303,0
308,276,294,303,0
305,279,300,303,0
304,286,306,304,0
305,294,311,305,0
306,304,316,306,0
307,315,320,307,0
309,326,322,309,0
311,333,323,310,0
311,332,322,311,0
310,321,320,310,0
310,303,319,307,0
309,286,318,304,0
308,278,318,301,0
306,279,317,300,0
304,287,317,299,0
303,296,317,298,0
305,304,318,297,0
308,310,317,297,0
312,312,315,297,0
313,309,312,298,0
312,305,307,299,0
309,301,303,300,0
304,298,302,302,0
298,297,304,305,0
292,300,309,307,0
289,307,316,310,0
290,316,321,312,0
296,327,324,313,0
302,338,324,313,0
307,348,321,313,0
310,353,317,310,0
312,348,313,308,0
310,335,309,304,0
306,320,305,300,0
301,304,302,296,0
296,288,299,293,0
294,277,296,292,0
294,272,297,294,0
296,271,299,297,0
299,274,303,300,0
303,281,307,304,0
306,291,310,306,0
309,306,311,308,0
312,326,312,310,0
317,350,313,314,0
324,373,316,318,0
330,396,318,321,0
335,421,318,324,0
337,440,318,326,0
336,443,317,327,0
332,425,316,326,0
327,395,317,326,0
321,362,319,323,0
315,330,320,319,0
309,305,319,315,0
304,290,317,311,0
301,279,313,308,0
299,268,307,304,0
295,254,302,301,0
292,240,297,298,0
288,230,294,295,0
286,224,294,294,0
286,223,297,292,0
288,225,300,291,0
291,227,304,291,0
294,229,306,292,0
298,232,307,294,0
301,232,306,296,0
304,229,306,297,0
307,223,307,300,0
308,217,307,302,0
308,214,308,305,0
307,218,307,309,0
304,232,307,312,0
300,256,305,315,0
296,288,301,315,0
294,317,297,315,0
294,337,292,313,0
298,349,287,310,0
301,353,284,306,0
304,349,281,302,0
303,340,281,297,0
301,328,283,294,0
299,314,287,292,0
298,302,294,292,0
298,291,302,291,0
299,284,307,290,0
300,285,309,289,0
303,293,309,288,0
307,305,307,290,0
313,317,306,292,0
318,330,306,296,0
320,343,305,298,0
318,353,304,299,0
313,353,304,298,0
307,344,306,297,0
302,332,307,297,0
299,321,308,297,0
296,312,308,299,0
296,308,308,302,0
297,313,306,304,0
300,324,305,306,0
304,339,306,308,0
307,351,307,309,0
310,355,309,309,0
311,348,310,308,0
312,334,311,306,0
314,319,312,304,0
316,309,316,303,0
319,311,320,304,0
323,326,323,305,0
325,346,323,307,0
324,359,321,307,0
316,353,318,305,0
305,331,314,301,0
294,307,310,295,0
286,289,306,288,0
282,275,303,281,0
279,264,301,276,0
278,258,300,273,0
280,257,299,272,0
285,261,298,273,0
290,266,298,276,0
294,270,300,279,0
297,274,303,283,0
299,278,306,288,0
301,284,306,294,0
302,289,306,302,0
304,294,306,309,0
306,296,307,315,0
306,291,308,320,0
303,287,309,325,0
301,291,309,329,0
300,303,308,332,0
301,320,307,333,0
302,336,306,332,0
305,350,306,332,0
309,363,308,330,0
314,373,310,328,0
317,384,309,324,0
317,396,305,320,0
317,401,302,317,0
316,386,299,312,0
313,352,300,306,0
311,318,303,304,0
310,293,308,303,0
309,273,311,303,0
305,252,312,303,0
301,233,311,303,0
298,218,310,304,0
296,208,309,307,0
296,205,308,310,0
296,212,307,312,0
296,229,306,315,0
296,254,305,318,0
297,281,305,320,0
299,303,305,321,0
301,316,304,320,0
303,321,305,318,0
306,325,305,317,0
307,327,305,316,0
307,325,306,314,0
305,319,306,313,0
305,311,305,311,0
306,306,304,310,0
307,304,304,309,0
308,306,303,308,0
307,310,302,307,0
307,313,303,306,0
306,315,304,305,0
305,315,306,305,0
303,316,309,305,0
302,318,313,305,0
302,321,317,306,0
302,324,319,306,0
303,325,319,307,0
306,326,317,308,0
309,326,315,309,0
311,325,313,311,0
313,323,310,311,0
313,326,307,312,0
312,327,304,312,0
308,324,302,311,0
304,318,302,309,0
299,312,303,308,0
294,309,304,305,0
291,309,304,304,0
290,311,302,303,0
291,311,298,302,0
294,307,292,300,0
297,300,284,298,0
300,292,276,294,0
302,285,270,290,0
301,280,266,287,0
300,279,266,285,0
299,281,271,286,0
300,287,283,288,0
302,293,298,291,0
304,298,313,295,0
304,301,322,300,0
304,300,325,304,0
302,297,323,306,0
302,292,320,307,0
303,289,316,308,0
306,290,314,308,0
308,293,312,309,0
308,295,311,310,0
305,294,312,311,0
302,295,314,313,0
300,300,317,314,0
300,308,321,316,0
304,319,325,318,0
310,327,330,318,0
317,330,331,317,0
321,327,331,316,0
322,318,328,315,0
320,306,324,313,0
317,290,320,311,0
312,275,315,309,0
307,267,312,307,0
304,266,310,307,0
303,271,309,306,0
301,278,308,305,0
299,286,306,306,0
298,291,304,307,0
299,295,302,308,0
301,299,303,309,0
302,303,305,310,0
302,307,309,311,0
303,311,312,310,0
303,314,315,310,0
303,315,316,310,0
306,316,315,310,0
310,318,314,311,0
315,324,314,314,0
320,328,314,315,0
322,326,313,316,0
320,321,312,315,0
318,320,311,315,0
314,326,311,313,0
311,339,311,311,0
310,349,311,309,0
309,342,311,307,0
307,322,309,306,0
304,302,308,303,0
301,292,308,303,0
300,293,308,303,0
299,297,309,303,0
297,297,308,304,0
295,296,307,303,0
295,294,307,302,0
295,292,306,302,0
296,291,305,302,0
296,291,305,302,0
297,290,306,302,0
298,289,306,302,0
300,290,306,304,0
302,297,307,307,0
305,307,308,310,0
308,319,308,314,0
312,332,308,317,0
314,343,307,320,0
313,349,306,322,0
310,350,303,321,0
306,348,302,319,0
304,342,302,316,0
304,328,302,312,0
304,308,298,309,0
304,289,295,306,0
305,275,292,302,0
304,267,290,298,0
300,261,286,295,0
296,258,283,291,0
293,262,282,290,0
292,275,282,290,0
291,293,282,291,0
291,310,282,294,0
291,324,282,297,0
291,330,285,300,0
292,329,292,304,0
296,325,301,308,0
302,321,309,314,0
308,319,314,317,0
312,317,317,320,0
315,315,318,322,0
317,315,319,324,0
316,315,319,326,0
314,313,319,327,0
309,307,318,326,0
304,300,316,323,0
301,292,312,321,0
300,283,306,319,0
303,276,298,318,0
307,272,290,316,0
311,272,284,314,0
313,275,281,312,0
314,280,284,312,0
314,282,292,311,0
313,279,302,310,0
311,274,312,309,0
310,272,318,308,0
310,273,322,309,0
310,275,326,311,0
311,281,328,311,0
311,290,329,311,0
311,300,326,309,0
311,308,323,309,0
311,316,320,309,0
314,325,319,311,0
319,337,319,313,0
322,346,318,313,0
323,349,315,313,0
321,348,312,311,0
319,345,309,310,0
315,340,306,309,0
312,333,304,308,0
310,323,303,308,0
309,311,303,307,0
308,298,304,306,0
307,286,305,304,0
307,277,306,303,0
307,273,306,303,0
307,273,305,303,0
308,276,304,304,0
308,283,304,304,0
309,291,302,306,0
309,298,301,307,0
309,302,302,307,0
310,308,304,308,0
311,319,307,307,0
313,335,308,307,0
315,349,306,305,0
315,351,304,303,0
313,343,303,301,0
311,329,304,300,0
311,313,307,301,0
314,299,309,303,0
318,290,312,304,0
320,288,313,306,0
319,292,312,308,0
316,302,310,310,0
312,317,310,313,0
309,331,310,315,0
308,346,311,316,0
309,356,312,317,0
310,357,312,317,0
311,352,312,317,0
312,348,311,316,0
313,347,309,316,0
313,348,306,314,0
312,346,303,313,0
312,338,301,310,0
310,327,302,306,0
308,317,303,302,0
306,309,304,297,0
303,299,304,292,0
299,285,303,289,0
296,268,303,289,0
295,254,305,292,0
294,244,306,296,0
294,238,308,299,0
292,234,309,303,0
291,234,311,307,0
291,238,314,310,0
293,244,317,313,0
296,249,318,314,0
299,255,317,314,0
302,263,313,314,0
303,272,310,313,0
302,283,306,313,0
303,296,302,313,0
304,309,300,313,0
307,323,298,314,0
309,339,296,313,0
312,356,294,313,0
313,368,291,313,0
312,367,289,311,0
307,353,287,308,0
302,335,286,306,0
298,323,285,304,0
296,320,287,303,0
299,325,290,303,0
304,333,295,304,0
308,341,298,305,0
311,350,302,307,0
314,348,306,309,0
314,335,308,310,0
313,318,310,310,0
309,304,312,310,0
304,294,313,310,0
300,286,314,308,0
296,279,312,305,0
294,272,310,302,0
295,266,308,300,0
296,262,307,298,0
298,261,307,298,0
302,263,309,299,0
305,269,309,302,0
308,278,309,304,0
310,289,308,305,0
310,300,308,307,0
311,307,308,309,0
311,309,308,311,0
312,309,309,312,0
313,306,310,313,0
313,302,311,315,0
313,299,313,316,0
313,295,315,317,0
314,291,317,317,0
315,287,318,317,0
316,283,318,317,0
319,285,318,317,0
323,294,316,318,0
327,309,314,316,0
327,326,310,314,0
323,345,307,310,0
314,359,303,307,0
305,365,301,305,0
299,363,302,303,0
297,357,303,302,0
298,347,304,301,0
301,332,304,300,0
302,315,303,298,0
303,302,303,299,0
304,294,305,300,0
305,290,305,302,0
307,289,306,303,0
308,288,305,304,0
308,290,303,303,0
308,296,302,303,0
308,302,301,303,0
307,306,300,301,0
305,303,298,299,0
303,298,297,297,0
302,290,296,295,0
301,283,297,293,0
301,279,300,292,0
301,281,302,290,0
300,287,304,289,0
299,297,304,288,0
298,307,303,287,0
297,311,303,289,0
296,313,304,294,0
296,314,306,299,0
296,318,307,304,0
296,324,307,310,0
295,329,307,315,0
294,331,307,319,0
293,327,306,322,0
294,321,306,324,0
296,318,306,324,0
299,324,306,323,0
303,336,307,321,0
307,353,307,319,0
310,366,307,315,0
312,360,307,310,0
310,335,307,304,0
305,303,307,299,0
301,275,306,296,0
299,261,305,295,0
300,258,305,296,0
303,262,305,297,0
307,270,304,296,0
310,277,303,295,0
311,283,303,296,0
312,288,303,297,0
313,290,304,298,0
313,291,305,299,0
313,295,305,301,0
314,305,305,302,0
315,319,304,305,0
316,334,304,307,0
316,345,303,309,0
315,346,302,310,0
312,337,299,310,0
310,322,297,309,0
307,308,296,307,0
304,298,299,305,0
302,293,306,304,0
301,292,314,302,0
301,292,320,301,0
301,290,324,300,0
303,288,325,300,0
304,285,325,300,0
307,284,323,302,0
309,288,322,304,0
311,295,319,305,0
313,307,316,307,0
314,321,314,307,0
314,336,310,306,0
313,346,307,305,0
315,344,304,305,0
318,330,302,303,0
321,316,302,302,0
323,310,301,303,0
324,314,302,304,0
323,321,304,305,0
322,324,306,306,0
321,316,307,305,0
319,304,306,303,0
315,295,304,301,0
311,294,303,300,0
306,294,302,299,0
300,290,300,299,0
295,285,300,299,0
291,281,301,300,0
289,275,304,303,0
289,271,307,305,0
290,274,309,306,0
292,283,310,307,0
295,297,310,308,0
297,313,309,308,0
299,326,308,309,0
300,333,306,309,0
300,332,304,308,0
298,326,302,307,0
297,318,299,307,0
296,312,297,306,0
294,309,295,307,0
294,306,295,307,0
295,303,297,308,0
298,302,301,308,0
302,305,305,308,0
306,311,308,309,0
308,320,308,309,0
307,329,307,310,0
305,339,306,312,0
303,348,306,314,0
300,354,306,316,0
297,354,307,317,0
297,346,306,316,0
297,332,305,314,0
299,318,304,312,0
302,312,302,310,0
303,311,298,307,0
301,312,293,304,0
299,311,287,301,0
298,306,282,299,0
298,301,279,296,0
297,297,280,294,0
297,298,285,294,0
298,302,293,295,0
300,305,301,297,0
302,308,307,300,0
303,313,312,303,0
306,318,315,307,0
310,323,317,311,0
314,329,316,314,0
317,335,314,315,0
318,337,313,315,0
318,334,310,315,0
316,325,308,313,0
313,314,306,310,0
310,306,305,309,0
307,299,302,306,0
303,292,298,304,0
300,289,294,302,0
297,294,290,301,0
296,307,287,301,0
298,325,287,303,0
302,341,289,307,0
305,345,291,311,0
308,335,297,314,0
309,318,304,317,0
313,299,312,319,0
320,283,318,321,0
326,277,324,322,0
334,284,327,323,0
338,299,328,323,0
337,307,327,320,0
331,301,324,318,0
322,290,321,316,0
313,286,320,312,0
304,291,322,309,0
297,301,322,304,0
293,308,322,299,0
291,312,321,297,0
292,310,318,295,0
295,311,315,295,0
298,316,312,296,0
301,325,310,298,0
304,327,309,300,0
305,321,310,302,0
306,313,312,305,0
308,305,315,307,0
310,296,316,309,0
310,285,316,309,0
308,275,314,307,0
306,271,309,304,0
304,272,305,302,0
303,275,302,302,0
302,277,300,302,0
301,278,298,303,0
301,279,300,303,0
302,284,302,304,0
303,296,304,306,0
307,315,306,307,0
311,338,306,308,0
316,358,304,309,0
320,373,303,310,0
323,378,302,312,0
324,374,300,311,0
323,363,298,310,0
320,348,295,308,0
314,332,292,306,0
309,318,292,306,0
305,307,294,306,0
302,301,296,305,0
301,299,298,304,0
304,305,301,304,0
310,319,306,305,0
317,337,310,306,0
322,355,311,306,0
324,366,309,304,0
321,363,307,303,0
316,343,305,301,0
310,314,305,300,0
305,286,306,299,0
303,264,307,299,0
304,250,310,300,0
306,243,313,301,0
307,244,315,303,0
307,249,317,307,0
307,256,317,311,0
307,264,318,314,0
309,273,319,317,0
311,281,318,318,0
314,287,317,318,0
316,292,315,317,0
317,297,314,316,0
318,300,313,315,0
317,303,313,313,0
317,304,311,312,0
317,304,308,311,0
317,301,303,310,0
314,298,295,309,0
308,293,287,307,0
301,283,280,306,0
296,269,277,304,0
295,256,280,303,0
298,250,287,303,0
303,252,296,304,0
307,264,306,306,0
309,281,314,308,0
308,297,320,310,0
308,309,321,311,0
308,320,319,312,0
312,334,318,315,0
316,352,318,317,0
321,375,315,319,0
323,395,312,319,0
322,407,309,318,0
320,407,304,317,0
315,391,301,313,0
308,365,299,310,0
303,339,300,306,0
299,319,303,304,0
297,305,306,303,0
298,295,309,303,0
301,288,310,304,0
304,287,313,307,0
308,289,315,309,0
311,294,317,311,0
312,297,317,312,0
312,297,317,312,0
312,297,316,311,0
310,300,315,310,0
307,301,313,309,0
305,298,312,307,0
303,296,313,307,0
302,301,314,308,0
301,315,314,310,0
300,332,313,313,0
299,340,310,315,0
299,336,308,316,0
300,328,306,318,0
302,315,306,318,0
302,296,306,317,0
302,275,306,315,0
302,261,307,313,0
303,257,307,312,0
305,262,307,311,0
307,274,306,311,0
311,287,305,313,0
313,297,308,314,0
314,304,312,315,0
313,309,315,315,0
311,313,316,314,0
308,315,315,315,0
305,317,312,315,0
302,316,310,316,0
301,314,308,317,0
302,312,307,317,0
305,310,306,315,0
309,311,306,313,0
312,315,306,311,0
314,321,305,309,0
314,327,304,307,0
314,331,304,307,0
314,332,303,308,0
314,331,302,309,0
314,330,301,311,0
315,330,302,313,0
316,330,303,315,0
317,329,304,316,0
318,324,307,318,0
319,315,309,318,0
320,307,310,317,0
321,305,310,316,0
323,310,309,314,0
325,318,308,314,0
326,320,308,315,0
323,310,309,315,0
318,296,308,315,0
311,286,307,313,0
304,284,305,312,0
300,287,303,311,0
296,289,300,309,0
294,289,298,307,0
293,288,298,307,0
293,288,299,307,0
294,287,299,309,0
293,286,297,310,0
294,282,295,310,0
294,279,294,310,0
296,278,296,311,0
300,285,302,312,0
305,298,309,313,0
308,313,315,313,0
308,323,318,312,0
304,321,319,310,0
298,310,316,308,0
293,301,313,307,0
292,298,310,307,0
292,303,307,308,0
294,309,303,308,0
296,311,299,308,0
299,309,298,309,0
304,310,302,310,0
311,318,310,312,0
320,336,320,315,0
326,349,326,317,0
326,348,326,317,0
321,336,320,315,0
315,322,312,312,0
310,309,306,311,0
306,296,303,309,0
303,283,302,308,0
301,273,304,307,0
301,268,308,307,0
302,268,312,307,0
303,273,312,307,0
304,281,310,307,0
305,290,308,308,0
306,300,308,307,0
307,308,308,306,0
307,314,309,303,0
307,317,310,301,0
307,321,312,299,0
307,326,312,298,0
308,328,314,299,0
308,323,316,301,0
307,313,317,304,0
305,302,317,308,0
303,292,316,312,0
302,287,316,314,0
302,292,316,317,0
303,305,315,319,0
303,321,314,320,0
304,337,313,321,0
305,348,314,320,0
305,350,314,319,0
303,344,313,315,0
301,334,310,312,0
299,325,308,308,0
298,315,306,305,0
298,310,304,305,0
300,314,304,305,0
302,326,305,307,0
306,345,308,309,0
310,363,310,311,0
312,373,309,312,0
311,370,308,313,0
310,356,309,313,0
308,336,308,314,0
305,314,305,315,0
302,293,302,313,0
297,274,299,310,0
294,259,297,307,0
292,251,297,305,0
292,249,297,304,0
292,250,298,304,0
293,256,300,304,0
296,265,302,305,0
299,274,304,306,0
301,279,305,306,0
302,276,307,306,0
303,268,308,305,0
304,262,309,304,0
304,260,309,304,0
301,262,306,303,0
298,272,303,303,0
296,290,300,305,0
296,312,299,307,0
299,335,302,310,0
305,356,306,314,0
311,368,311,317,0
314,369,316,317,0
313,357,316,316,0
308,337,314,314,0
303,311,311,311,0
299,289,308,308,0
297,276,306,306,0
297,274,304,304,0
298,273,304,303,0
299,273,304,302,0
300,273,306,300,0
301,273,308,298,0
303,274,309,297,0
305,275,309,297,0
305,279,309,297,0
304,285,310,299,0
305,293,309,300,0
306,300,307,301,0
308,303,305,301,0
309,302,303,302,0
309,300,300,302,0
310,301,299,303,0
310,306,298,305,0
309,314,299,306,0
309,321,301,307,0
307,327,305,307,0
307,328,310,306,0
308,326,312,305,0
309,324,311,304,0
310,325,306,303,0
309,328,301,303,0
308,329,297,304,0
306,321,295,304,0
304,311,294,305,0
302,302,296,306,0
299,296,299,307,0
298,293,305,308,0
298,289,312,310,0
298,286,316,312,0
299,286,319,312,0
298,285,318,313,0
298,285,315,313,0
298,283,313,312,0
298,283,312,312,0
300,286,311,313,0
303,296,311,315,0
307,311,310,317,0
310,324,309,319,0
310,327,307,319,0
309,320,303,318,0
307,313,301,317,0
306,311,300,315,0
305,313,299,311,0
304,314,299,306,0
302,313,301,302,0
303,310,304,300,0
303,302,306,298,0
305,293,307,299,0
307,285,307,300,0
308,279,306,302,0
308,276,305,305,0
306,277,304,306,0
304,281,304,306,0
302,285,302,305,0
300,292,300,303,0
299,300,299,302,0
298,311,300,301,0
298,321,303,301,0
298,329,307,303,0
298,332,310,303,0
298,327,312,303,0
299,319,313,303,0
299,311,314,304,0
299,305,314,306,0
299,303,312,308,0
298,301,309,309,0
297,297,306,309,0
297,293,303,310,0
296,290,302,309,0
295,289,301,309,0
294,290,302,309,0
295,294,304,310,0
297,299,305,312,0
302,304,306,313,0
305,309,304,315,0
307,317,303,316,0
310,324,302,318,0
311,327,299,317,0
308,322,297,316,0
303,312,295,314,0
299,303,295,314,0
299,298,297,314,0
301,302,300,314,0
304,313,303,314,0
309,329,305,314,0
314,344,305,313,0
317,348,304,310,0
316,344,301,308,0
314,334,297,305,0
310,321,294,303,0
306,307,292,303,0
303,295,293,304,0
303,287,296,305,0
303,284,301,308,0
305,286,305,309,0
305,288,307,310,0
305,286,308,308,0
305,281,307,306,0
307,277,305,304,0
308,274,302,303,0
309,274,301,303,0
308,276,301,305,0
306,279,301,305,0
305,283,302,306,0
305,288,303,307,0
306,297,305,308,0
307,307,307,308,0
308,316,308,307,0
307,319,309,306,0
304,314,309,304,0
301,304,307,302,0
299,296,306,300,0
298,289,304,299,0
300,285,304,300,0
303,283,303,301,0
306,282,303,303,0
309,281,302,303,0
311,277,303,304,0
311,272,305,304,0
311,270,307,306,0
309,275,308,307,0
306,286,310,308,0
302,300,314,308,0
300,313,317,308,0
300,322,318,307,0
301,328,318,308,0
301,333,317,308,0
302,338,316,310,0
303,346,315,312,0
305,353,315,315,0
306,363,315,318,0
307,371,314,320,0
306,373,314,322,0
304,366,313,323,0
301,355,313,322,0
300,346,313,319,0
301,338,312,316,0
304,329,310,312,0
307,316,308,309,0
309,300,304,306,0
308,280,300,303,0
306,261,297,301,0
303,248,296,300,0
302,240,297,300,0
302,240,299,301,0
303,244,303,302,0
304,250,306,304,0
305,258,309,306,0
306,266,312,309,0
309,275,315,311,0
312,287,317,313,0
314,300,318,315,0
316,312,318,315,0
316,315,316,314,0
314,311,314,313,0
309,305,312,312,0
303,300,311,312,0
297,290,308,313,0
292,275,306,313,0
289,259,305,315,0
291,244,303,318,0
296,235,302,318,0
303,230,300,317,0
309,229,300,315,0
312,239,300,313,0
313,266,299,311,0
313,309,300,310,0
313,356,301,311,0
313,397,303,313,0
312,425,303,316,0
311,436,302,317,0
309,437,301,317,0
307,427,301,315,0
306,406,304,313,0
306,380,309,311,0
306,353,314,308,0
307,329,317,307,0
306,308,315,305,0
304,294,313,305,0
303,290,311,306,0
302,294,309,306,0
301,303,308,308,0
301,307,308,309,0
301,302,308,310,0
300,292,308,311,0
300,282,307,311,0
300,276,305,312,0
299,275,303,314,0
299,278,305,316,0
301,281,308,318,0
302,282,313,321,0
303,283,316,323,0
302,283,318,323,0
302,284,318,324,0
301,286,317,323,0
301,289,315,321,0
300,292,312,319,0
299,296,309,314,0
298,299,304,309,0
297,303,298,305,0
297,305,294,302,0
298,303,292,302,0
301,300,294,303,0
305,295,298,304,0
309,288,305,305,0
313,284,310,306,0
313,288,314,308,0
311,303,316,311,0
309,324,317,314,0
309,348,316,316,0
310,366,315,318,0
311,372,314,319,0
311,367,314,319,0
311,355,313,318,0
309,340,312,316,0
309,327,311,314,0
308,321,309,312,0
307,318,307,311,0
306,315,305,309,0
306,313,302,307,0
305,314,301,306,0
306,317,302,307,0
308,321,304,309,0
311,326,304,311,0
313,332,303,314,0
313,338,301,315,0
312,345,297,316,0
309,341,295,315,0
303,319,295,313,0
297,290,296,311,0
292,264,299,309,0
290,250,303,308,0
289,248,307,308,0
291,255,310,308,0
294,269,312,307,0
300,285,315,307,0
307,299,317,307,0
311,313,316,308,0
313,330,314,309,0
315,352,312,310,0
316,369,309,311,0
315,373,307,309,0
311,361,304,307,0
306,342,301,304,0
302,324,299,302,0
300,309,298,302,0
299,300,300,302,0
300,294,303,303,0
302,289,305,305,0
303,287,305,308,0
304,289,305,311,0
305,296,304,314,0
307,308,303,316,0
309,322,303,317,0
310,334,304,317,0
312,344,305,316,0
311,354,306,315,0
310,361,307,314,0
307,361,307,314,0
303,350,305,314,0
299,335,302,313,0
295,322,298,312,0
291,315,296,310,0
290,310,297,307,0
292,302,299,304,0
295,291,301,303,0
298,280,304,303,0
301,272,304,303,0
304,269,303,304,0
307,268,302,305,0
311,269,302,306,0
314,273,302,308,0
317,279,302,309,0
318,286,301,309,0
315,290,298,307,0
309,290,294,303,0
303,292,289,300,0
298,297,288,297,0
295,301,290,295,0
294,302,296,296,0
294,302,302,298,0
297,305,307,302,0
300,309,310,304,0
303,309,312,305,0
306,308,315,307,0
309,308,317,308,0
311,308,316,309,0
312,310,312,309,0
312,311,308,310,0
312,311,304,312,0
310,307,302,312,0
308,302,303,311,0
307,297,305,309,0
306,291,309,306,0
306,286,312,303,0
306,283,312,300,0
306,284,311,297,0
305,289,309,293,0
304,299,305,290,0
303,311,304,289,0
304,324,303,290,0
307,339,304,292,0
311,353,306,297,0
315,364,308,303,0
318,371,308,307,0
318,375,309,311,0
317,375,312,313,0
313,366,315,314,0
308,351,317,315,0
303,336,317,316,0
300,322,316,316,0
299,312,316,316,0
301,305,317,315,0
303,302,317,313,0
305,298,316,310,0
307,293,314,309,0
309,293,312,308,0
311,297,309,308,0
312,302,306,307,0
312,302,305,306,0
312,297,305,306,0
313,290,305,305,0
313,284,306,304,0
314,282,307,305,0
314,285,307,306,0
314,291,309,308,0
316,303,312,313,0
319,320,315,317,0
322,336,317,320,0
322,346,315,321,0
318,347,310,319,0
311,344,305,316,0
304,341,302,314,0
302,348,301,312,0
302,364,302,310,0
302,374,301,308,0
300,365,299,306,0
298,342,297,303,0
297,320,296,303,0
297,306,297,304,0
299,305,301,307,0
304,314,304,311,0
308,323,307,315,0
313,329,309,318,0
316,329,309,319,0
318,323,308,318,0
319,319,306,317,0
318,314,304,315,0
314,303,302,313,0
308,287,300,311,0
303,270,300,309,0
299,255,301,308,0
296,242,303,306,0
293,232,307,304,0
293,227,309,303,0
294,228,307,301,0
296,233,304,301,0
297,243,302,300,0
298,256,300,298,0
301,270,301,296,0
304,281,306,297,0
309,283,312,298,0
312,274,317,300,0
313,254,319,301,0
313,231,318,301,0
313,214,317,302,0
313,207,315,305,0
314,218,313,309,0
315,245,311,314,0
315,280,309,319,0
311,313,309,321,0
307,337,310,322,0
302,353,312,321,0
299,359,313,320,0
297,357,313,318,0
296,351,313,315,0
296,345,313,313,0
297,343,313,312,0
298,339,311,311,0
300,330,308,308,0
301,320,305,306,0
302,311,302,304,0
303,304,301,302,0
303,301,300,300,0
304,301,302,301,0
306,304,305,304,0
310,311,309,309,0
316,324,312,316,0
321,343,314,322,0
324,363,315,327,0
324,378,315,330,0
321,382,314,331,0
317,373,314,329,0
313,353,315,325,0
310,330,316,320,0
306,309,315,313,0
301,291,312,308,0
295,276,307,302,0
288,264,300,297,0
284,256,294,293,0
285,254,289,289,0
291,255,288,288,0
298,260,291,288,0
305,267,297,289,0
308,276,301,291,0
308,284,303,293,0
306,291,304,295,0
307,297,307,298,0
311,305,309,302,0
318,313,313,306,0
325,318,316,311,0
331,320,319,314,0
332,323,320,316,0
331,324,321,316,0
330,319,320,315,0
330,306,319,314,0
328,289,317,311,0
325,283,313,308,0
321,299,309,306,0
318,330,305,306,0
316,369,303,309,0
317,408,304,313,0
317,435,306,318,0
315,432,307,320,0
311,399,304,320,0
305,352,300,319,0
301,309,295,315,0
298,276,293,311,0
296,259,294,307,0
296,256,297,305,0
296,261,299,303,0
296,274,301,303,0
296,288,304,304,0
296,296,308,304,0
295,298,311,304,0
295,298,314,303,0
296,299,316,303,0
297,302,316,303,0
298,306,313,302,0
298,310,307,301,0
299,315,302,300,0
299,319,299,300,0
300,322,299,299,0
300,320,301,298,0
301,314,303,297,0
303,306,305,298,0
306,300,305,302,0
309,294,305,305,0
312,288,303,308,0
313,287,301,310,0
312,290,299,312,0
309,299,298,312,0
306,311,298,313,0
304,321,299,314,0
303,328,301,313,0
303,332,304,312,0
303,332,307,311,0
302,330,308,310,0
300,330,308,310,0
298,329,307,311,0
298,330,304,312,0
299,330,301,313,0
301,331,299,312,0
302,332,299,312,0
303,337,302,313,0
303,346,307,315,0
303,349,313,318,0
301,344,318,320,0
298,333,321,320,0
298,321,323,320,0
302,304,324,318,0
307,281,324,316,0
313,257,323,313,0
317,235,322,310,0
320,219,321,306,0
319,212,319,303,0
316,218,315,298,0
311,237,310,293,0
305,264,306,290,0
301,288,303,288,0
298,306,300,287,0
296,319,299,287,0
295,329,300,290,0
297,336,302,294,0
299,341,303,299,0
300,343,304,305,0
302,339,306,310,0
304,327,309,314,0
307,313,312,318,0
310,301,315,322,0
312,293,317,325,0
314,292,318,326,0
315,300,317,325,0
313,312,315,322,0
310,315,313,318,0
306,308,309,313,0
303,298,305,308,0
300,290,304,304,0
298,290,305,302,0
299,300,307,301,0
300,316,309,302,0
301,329,307,301,0
299,330,305,298,0
297,320,301,296,0
297,309,297,295,0
299,300,295,296,0
300,297,293,299,0
302,299,293,303,0
304,302,294,307,0
305,305,295,310,0
305,303,298,312,0
304,296,303,314,0
300,286,310,315,0
295,276,316,315,0
292,268,322,313,0
291,264,326,312,0
294,265,327,310,0
298,270,325,309,0
302,280,322,307,0
304,295,319,306,0
305,316,315,305,0
306,339,311,305,0
307,356,305,304,0
309,365,300,304,0
308,364,295,303,0
304,351,292,302,0
298,329,292,301,0
295,303,294,302,0
296,284,298,303,0
300,274,304,305,0
305,272,308,307,0
307,272,310,306,0
307,272,310,306,0
304,271,309,305,0
301,270,308,305,0
298,274,306,305,0
296,283,305,305,0
296,297,304,305,0
297,315,306,305,0
300,332,308,306,0
303,340,309,307,0
306,340,310,308,0
307,340,311,310,0
307,343,311,312,0
306,343,311,312,0
305,336,310,312,0
303,323,308,311,0
303,311,306,310,0
306,301,306,309,0
309,289,307,308,0
313,277,309,306,0
315,271,311,307,0
316,272,314,309,0
316,273,315,310,0
314,275,315,309,0
311,280,313,309,0
310,288,312,311,0
311,294,311,311,0
311,297,309,311,0
309,295,309,308,0
306,287,309,305,0
304,279,310,303,0
302,274,309,300,0
301,274,307,298,0
299,277,304,297,0
298,280,303,298,0
300,281,305,301,0
302,281,307,303,0
304,283,309,305,0
304,288,310,307,0
303,296,310,307,0
302,302,310,306,0
301,302,310,306,0
300,300,309,306,0
302,301,310,306,0
306,307,310,307,0
310,318,309,307,0
311,331,306,307,0
310,336,302,308,0
306,326,298,308,0
301,303,295,307,0
298,282,294,309,0
298,274,296,310,0
300,277,300,312,0
304,289,307,313,0
306,303,313,314,0
305,315,318,313,0
303,319,318,313,0
301,316,317,312,0
300,310,314,311,0
299,307,308,311,0
298,307,302,310,0
299,315,296,311,0
300,327,291,313,0
302,341,287,315,0
303,347,285,317,0
303,342,283,318,0
301,328,283,317,0
301,307,287,315,0
304,287,294,313,0
310,272,304,311,0
315,266,313,309,0
317,269,321,308,0
318,280,326,309,0
316,295,329,310,0
314,316,329,312,0
313,342,326,313,0
313,365,321,315,0
315,383,317,317,0
316,394,313,317,0
314,392,310,316,0
309,371,308,312,0
303,340,305,308,0
298,313,305,304,0
294,292,305,301,0
291,276,305,297,0
288,265,304,295,0
288,261,302,295,0
291,265,300,298,0
297,272,298,302,0
301,275,296,306,0
303,270,295,309,0
303,260,295,311,0
306,250,298,313,0
313,246,305,316,0
323,257,313,319,0
333,285,318,321,0
338,316,319,320,0
339,337,316,317,0
333,342,312,312,0
325,329,308,305,0
316,312,307,300,0
310,299,307,295,0
305,292,306,290,0
301,290,304,286,0
299,293,302,283,0
297,299,300,285,0
298,307,301,289,0
299,314,304,293,0
300,323,308,297,0
303,335,312,303,0
307,348,313,310,0
310,358,313,317,0
313,368,314,325,0
315,380,312,331,0
316,389,310,334,0
315,388,307,333,0
312,373,304,330,0
308,345,302,326,0
302,312,302,322,0
297,283,304,319,0
294,263,306,316,0
292,253,307,314,0
290,253,309,313,0
290,259,312,312,0
290,268,313,311,0
293,278,313,311,0
295,289,311,310,0
297,299,309,309,0
297,307,309,308,0
297,309,309,306,0
297,305,308,304,0
300,304,306,301,0
304,310,301,299,0
309,323,293,298,0
313,339,286,300,0
316,347,283,304,0
317,343,284,310,0
315,329,289,315,0
312,313,296,320,0
309,300,304,324,0
306,290,310,327,0
303,277,313,329,0
301,265,313,328,0
303,261,314,327,0
309,270,315,326,0
316,291,316,323,0
320,319,318,320,0
320,348,319,316,0
318,370,319,311,0
313,377,318,307,0
307,368,316,304,0
300,353,313,301,0
296,336,311,299,0
296,320,310,299,0
297,308,308,298,0
298,299,305,299,0
298,290,302,301,0
298,280,300,302,0
299,270,299,305,0
301,264,298,307,0
302,265,298,309,0
303,276,297,311,0
304,293,296,312,0
306,316,297,313,0
307,341,299,314,0
307,364,303,315,0
306,378,306,315,0
306,378,308,315,0
305,358,308,313,0
302,326,308,312,0
300,298,307,310,0
299,280,309,309,0
300,275,310,307,0
301,279,311,306,0
302,287,313,305,0
304,297,313,305,0
304,303,313,306,0
302,303,312,305,0
299,297,311,305,0
296,291,310,306,0
294,287,308,306,0
294,284,306,306,0
296,284,304,307,0
299,288,304,310,0
302,295,305,313,0
303,303,303,315,0
303,311,301,316,0
303,318,298,315,0
303,326,296,314,0
303,332,294,314,0
301,332,291,314,0
297,324,284,313,0
292,312,275,312,0
288,303,268,313,0
286,298,265,314,0
288,298,267,315,0
293,302,274,316,0
298,309,286,317,0
304,313,298,317,0
310,316,308,317,0
316,319,316,317,0
320,326,320,318,0
322,332,323,320,0
321,326,323,320,0
316,310,323,320,0
311,300,323,318,0
307,304,324,316,0
305,320,326,313,0
303,338,326,311,0
302,350,324,309,0
302,350,321,307,0
302,334,317,305,0
302,311,314,304,0
300,293,313,303,0
298,284,314,304,0
298,280,314,308,0
299,276,314,311,0
300,275,311,314,0
301,276,305,317,0
302,275,297,318,0
303,273,290,318,0
303,270,284,316,0
304,268,281,313,0
305,268,281,310,0
309,272,288,307,0
314,282,296,305,0
318,295,303,303,0
317,309,308,301,0
312,318,311,300,0
306,321,314,300,0
303,319,318,301,0
301,314,322,304,0
300,311,326,308,0
300,310,329,311,0
300,308,328,313,0
300,307,326,316,0
303,308,324,319,0
305,308,322,322,0
305,307,319,323,0
301,303,316,321,0
298,300,313,318,0
295,300,312,315,0
293,301,311,312,0
291,305,309,309,0
291,311,308,307,0
293,319,306,307,0
296,329,304,307,0
299,343,304,308,0
303,359,305,310,0
309,372,307,314,0
313,379,310,318,0
315,377,311,320,0
316,365,311,320,0
314,345,311,319,0
312,319,310,319,0
309,290,309,319,0
307,268,307,320,0
304,255,306,321,0
303,254,306,323,0
304,272,306,323,0
310,300,308,323,0
315,320,306,319,0
315,324,302,313,0
311,312,295,306,0
306,292,287,301,0
302,273,283,297,0
298,259,281,294,0
296,251,282,294,0
297,254,284,296,0
298,266,287,298,0
300,281,290,299,0
301,294,290,301,0
303,308,288,303,0
306,327,284,305,0
308,344,278,304,0
307,350,275,303,0
304,346,277,301,0
301,335,286,300,0
300,321,298,300,0
299,308,309,300,0
301,299,319,302,0
304,297,324,304,0
307,301,324,305,0
308,305,320,305,0
307,300,315,304,0
307,290,310,302,0
305,282,309,300,0
304,277,309,300,0
303,278,311,300,0
303,283,312,301,0
304,290,313,303,0
307,297,312,304,0
310,308,310,305,0
313,320,310,306,0
315,332,310,307,0
315,341,310,307,0
312,337,310,307,0
306,322,311,308,0
302,306,312,310,0
299,293,313,311,0
300,286,312,312,0
302,285,312,311,0
305,288,312,310,0
309,294,313,310,0
313,303,313,311,0
315,311,312,311,0
315,316,312,310,0
314,315,311,309,0
313,314,310,308,0
314,325,311,308,0
318,349,312,309,0
320,366,313,309,0
319,360,313,307,0
315,337,311,306,0
311,311,310,305,0
309,287,310,305,0
306,270,310,305,0
305,260,310,306,0
307,257,309,307,0
309,259,308,307,0
312,266,306,306,0
314,276,305,307,0
315,286,304,307,0
313,293,304,305,0
309,296,306,304,0
306,295,308,303,0
303,291,308,301,0
300,282,307,299,0
297,270,306,297,0
296,257,305,296,0
297,246,305,295,0
300,237,304,295,0
304,236,303,295,0
309,243,304,298,0
311,259,305,300,0
313,281,306,303,0
313,304,307,306,0
310,325,307,308,0
303,344,306,310,0
296,359,306,311,0
290,363,304,311,0
287,354,301,309,0
287,338,297,307,0
290,321,293,302,0
295,307,290,298,0
300,294,288,295,0
302,283,287,294,0
302,274,288,293,0
301,268,292,294,0
303,265,298,296,0
310,269,306,298,0
319,281,310,302,0
325,299,310,306,0
325,316,306,308,0
320,323,300,306,0
314,316,294,303,0
309,308,291,300,0
307,305,292,300,0
303,309,295,301,0
297,314,300,302,0
292,316,305,304,0
290,318,312,305,0
292,321,321,306,0
297,325,330,308,0
301,325,335,307,0
304,316,337,305,0
304,302,336,303,0
303,292,331,301,0
304,292,326,301,0
306,294,321,300,0
309,294,317,301,0
311,292,315,302,0
312,287,315,303,0
312,284,316,304,0
312,287,317,305,0
312,297,319,306,0
314,309,322,307,0
315,324,323,307,0
315,336,323,308,0
312,343,322,307,0
310,346,319,307,0
307,343,316,308,0
305,335,312,308,0
303,326,306,308,0
303,318,301,306,0
303,313,298,304,0
304,310,294,301,0
303,309,291,300,0
303,308,291,301,0
302,306,294,304,0
301,304,297,307,0
298,303,299,310,0
295,301,300,311,0
291,294,299,310,0
291,283,302,309,0
295,273,308,308,0
304,268,317,308,0
314,271,325,309,0
325,285,331,311,0
334,305,334,312,0
337,321,331,312,0
334,330,326,310,0
327,327,320,306,0
317,312,314,301,0
309,296,309,297,0
306,289,307,294,0
306,297,307,295,0
310,318,310,297,0
314,345,312,299,0
316,362,313,300,0
315,361,311,301,0
314,343,310,301,0
314,319,308,301,0
313,298,309,300,0
313,286,310,300,0
314,288,311,301,0
314,298,311,303,0
314,309,310,305,0
311,312,308,305,0
306,305,306,305,0
301,295,306,305,0
299,289,307,306,0
299,293,308,308,0
301,305,309,310,0
304,319,309,313,0
306,327,309,313,0
307,331,308,313,0
309,335,306,314,0
309,331,301,313,0
304,314,295,310,0
298,289,288,305,0
293,267,283,301,0
291,253,282,298,0
292,250,284,298,0
295,255,289,300,0
299,266,295,303,0
304,279,301,306,0
310,293,307,308,0
316,312,313,311,0
323,336,318,313,0
328,363,323,316,0
331,390,327,319,0
333,409,328,320,0
332,409,326,319,0
326,384,320,315,0
315,344,313,308,0
305,299,304,301,0
299,257,294,296,0
297,225,284,294,0
296,210,273,295,0
296,214,262,299,0
295,233,255,303,0
295,261,253,305,0
294,290,257,306,0
290,309,267,306,0
287,315,282,304,0
286,311,297,302,0
290,301,311,301,0
297,289,321,301,0
304,280,327,302,0
310,275,331,304,0
313,273,331,306,0
313,274,329,307,0
309,276,324,308,0
307,280,318,307,0
307,285,311,306,0
309,289,305,306,0
311,291,302,307,0
311,292,302,306,0
310,292,304,306,0
308,291,307,305,0
306,289,310,305,0
305,290,313,304,0
306,297,314,304,0
309,307,317,304,0
311,316,320,304,0
311,317,322,305,0
310,312,324,307,0
310,305,326,310,0
313,306,328,313,0
319,320,330,318,0
327,348,333,322,0
334,378,334,325,0
335,391,332,324,0
329,386,327,321,0
322,375,322,318,0
316,368,318,314,0
310,360,314,310,0
304,346,310,306,0
298,325,308,303,0
293,301,306,302,0
290,282,307,301,0
289,273,308,302,0
290,271,311,304,0
291,272,314,306,0
294,272,317,307,0
296,273,318,308,0
299,277,319,309,0
302,285,319,310,0
303,290,318,310,0
304,289,318,309,0
303,283,316,308,0
302,277,314,307,0
301,275,311,306,0
301,275,308,306,0
300,276,304,306,0
299,275,300,305,0
299,273,297,304,0
298,274,296,303,0
299,278,296,304,0
301,287,298,306,0
305,299,302,309,0
310,313,306,313,0
317,326,310,316,0
323,336,313,320,0
329,342,316,323,0
334,338,318,327,0
335,321,320,332,0
334,302,319,335,0
332,299,316,337,0
331,318,313,337,0
329,345,306,335,0
321,360,296,329,0
310,354,284,321,0
297,335,273,313,0
287,314,266,306,0
281,301,264,302,0
277,298,265,299,0
277,300,269,298,0
279,295,271,299,0
282,285,271,300,0
285,276,272,301,0
288,273,278,301,0
291,277,285,303,0
292,288,293,305,0
293,306,299,309,0
292,328,305,314,0
291,351,310,320,0
293,376,316,327,0
299,398,324,333,0
308,408,332,337,0
317,397,339,338,0
325,372,344,336,0
330,346,347,331,0
328,325,345,323,0
321,310,340,316,0
313,296,334,310,0
307,282,326,306,0
306,271,318,304,0
307,265,312,303,0
308,266,306,303,0
308,273,302,303,0
305,282,300,304,0
302,287,301,306,0
300,286,306,308,0
299,282,311,309,0
300,281,315,311,0
302,288,317,312,0
307,304,320,314,0
313,327,323,318,0
318,346,327,322,0
321,352,328,323,0
319,342,326,320,0
314,323,322,317,0
310,303,318,314,0
308,288,315,311,0
307,281,314,309,0
305,278,313,307,0
303,282,312,305,0
302,292,310,304,0
302,300,309,303,0
302,299,306,302,0
301,291,302,300,0
300,280,298,299,0
300,273,297,298,0
301,273,297,300,0
302,279,300,303,0
304,288,305,307,0
305,293,311,310,0
306,297,316,312,0
307,303,320,313,0
308,312,324,313,0
310,321,327,313,0
311,326,327,310,0
311,329,324,307,0
310,328,318,304,0
307,313,312,301,0
302,288,307,299,0
299,267,302,298,0
296,253,298,298,0
295,249,296,299,0
294,253,295,300,0
294,261,297,301,0
295,271,297,302,0
295,280,297,304,0
297,285,298,308,0
300,285,301,312,0
304,282,305,317,0
309,278,309,321,0
315,273,311,324,0
319,267,312,324,0
320,266,312,324,0
320,272,312,323,0
319,289,311,322,0
316,310,308,320,0
311,333,303,317,0
304,353,297,313,0
298,367,293,310,0
292,370,290,307,0
286,364,289,303,0
280,351,288,301,0
276,341,290,300,0
277,334,293,301,0
284,330,297,303,0
295,328,299,305,0
307,328,300,308,0
316,331,301,311,0
319,337,300,314,0
320,344,301,316,0
319,350,305,318,0
318,352,309,320,0
315,351,310,321,0
311,343,308,320,0
307,326,304,316,0
302,304,300,310,0
299,285,298,306,0
298,277,298,305,0
300,282,300,308,0
306,301,305,313,0
315,326,309,318,0
325,351,311,321,0
333,369,310,321,0
336,380,305,319,0
333,383,299,315,0
327,378,297,313,0
318,363,298,312,0
309,332,299,311,0
299,294,302,310,0
294,263,304,311,0
291,242,306,310,0
291,231,305,307,0
292,226,303,303,0
295,226,301,300,0
298,232,302,297,0
301,246,304,295,0
303,266,309,295,0
306,289,315,297,0
311,312,320,299,0
315,326,321,299,0
314,330,319,299,0
309,325,316,298,0
304,312,313,297,0
300,294,309,297,0
298,276,307,296,0
297,262,306,296,0
297,253,306,297,0
298,251,309,298,0
300,253,313,301,0
302,258,315,304,0
302,264,317,306,0
302,269,319,308,0
305,275,322,309,0
309,283,324,311,0
313,291,325,312,0
315,295,321,311,0
313,299,315,308,0
308,305,308,305,0
302,310,301,301,0
296,313,296,297,0
291,314,296,293,0
290,318,299,290,0
293,324,302,289,0
297,329,304,289,0
300,334,303,290,0
302,338,301,293,0
302,340,301,295,0
304,339,300,299,0
305,336,301,303,0
305,332,303,306,0
305,330,306,308,0
305,328,307,308,0
304,324,308,308,0
301,318,309,308,0
299,308,312,308,0
298,300,314,308,0
299,300,316,308,0
303,311,316,308,0
309,326,314,308,0
317,339,310,308,0
322,345,303,306,0
323,338,297,305,0
318,320,293,302,0
311,299,292,300,0
304,286,295,300,0
301,284,300,301,0
301,293,305,302,0
303,306,309,303,0
305,318,313,304,0
307,331,315,305,0
310,340,316,307,0
312,338,316,307,0
311,325,313,304,0
309,313,309,301,0
308,307,307,297,0
307,307,306,296,0
306,306,307,295,0
306,299,309,295,0
307,290,309,294,0
309,280,308,294,0
310,274,306,295,0
309,275,304,296,0
306,279,303,297,0
303,289,301,298,0
302,305,301,299,0
302,328,301,302,0
304,354,304,307,0
307,379,308,312,0
310,391,308,316,0
312,378,306,315,0
311,345,302,313,0
309,309,299,309,0
307,280,298,304,0
306,261,298,300,0
305,251,300,296,0
305,248,303,293,0
304,252,304,290,0
304,263,304,289,0
305,283,304,288,0
308,308,302,289,0
311,332,299,292,0
313,348,295,295,0
314,353,293,299,0
312,348,291,303,0
308,335,291,306,0
302,320,293,308,0
297,305,297,308,0
292,290,302,309,0
290,281,307,310,0
289,275,313,312,0
292,273,319,314,0
295,273,323,315,0
297,276,325,315,0
300,278,326,314,0
302,278,324,312,0
305,278,321,310,0
308,279,319,308,0
309,282,317,308,0
308,286,315,309,0
307,292,314,310,0
306,301,313,312,0
305,309,311,313,0
306,310,308,314,0
310,305,304,313,0
315,297,299,312,0
322,292,296,312,0
329,292,297,314,0
331,290,301,316,0
329,281,305,317,0
322,272,308,318,0
315,274,310,318,0
310,295,312,317,0
306,324,313,316,0
304,354,313,314,0
304,382,314,313,0
305,406,311,310,0
303,416,307,307,0
299,410,302,304,0
295,394,298,303,0
292,368,296,300,0
290,340,296,299,0
290,318,296,298,0
294,304,298,299,0
299,297,299,302,0
304,293,301,304,0
309,294,302,308,0
314,300,305,311,0
318,308,308,313,0
318,311,310,314,0
315,310,310,314,0
310,306,310,313,0
305,298,310,313,0
301,289,309,313,0
299,280,306,313,0
298,272,302,312,0
297,267,300,312,0
297,267,300,312,0
297,270,302,312,0
299,274,304,312,0
302,279,305,310,0
304,284,303,308,0
306,289,302,306,0
307,292,302,306,0
308,293,303,305,0
308,292,305,305,0
306,293,307,304,0
305,299,309,303,0
304,309,309,301,0
303,317,308,300,0
305,323,307,299,0
307,324,307,298,0
309,322,307,297,0
311,321,307,299,0
312,320,308,302,0
313,316,309,304,0
314,307,309,305,0
314,297,310,305,0
316,290,310,305,0
317,292,310,305,0
319,301,310,308,0
321,314,309,310,0
321,325,306,312,0
320,338,303,312,0
317,354,300,312,0
315,371,299,311,0
314,383,299,310,0
314,386,301,309,0
315,375,302,308,0
312,355,301,307,0
306,332,298,306,0
301,309,298,306,0
298,290,301,307,0
298,276,307,309,0
300,267,313,311,0
300,260,314,312,0
300,255,309,311,0
301,255,299,310,0
303,264,289,309,0
307,280,281,308,0
311,297,278,308,0
313,308,279,308,0
311,306,285,307,0
306,291,292,306,0
302,269,300,304,0
299,249,309,304,0
300,235,316,305,0
300,233,321,306,0
301,238,324,307,0
302,249,324,309,0
303,262,325,311,0
304,273,326,312,0
305,283,326,313,0
304,294,325,313,0
304,301,324,313,0
303,306,319,313,0
301,309,313,311,0
300,314,305,308,0
301,321,298,306,0
304,334,294,304,0
308,352,292,303,0
312,363,292,304,0
316,361,296,304,0
319,349,302,305,0
319,336,305,306,0
315,327,305,305,0
308,327,304,304,0
302,333,303,305,0
297,339,304,305,0
294,341,304,305,0
292,347,303,304,0
293,360,302,305,0
294,380,301,305,0
296,399,301,304,0
299,406,301,303,0
302,391,301,302,0
303,355,300,299,0
302,313,299,296,0
301,279,299,294,0
301,256,300,293,0
301,242,301,292,0
300,235,302,293,0
301,235,303,296,0
302,244,303,300,0
305,258,303,304,0
307,275,304,309,0
310,292,306,313,0
310,305,310,316,0
310,311,314,318,0
309,314,317,319,0
307,313,318,320,0
306,311,319,319,0
305,310,320,319,0
306,311,322,318,0
308,315,323,317,0
311,321,324,317,0
313,333,321,316,0
314,348,318,314,0
313,358,312,312,0
308,349,307,308,0
302,326,302,306,0
296,300,299,302,0
294,278,298,301,0
294,265,299,300,0
294,261,300,301,0
293,265,300,302,0
293,273,302,302,0
295,283,304,303,0
298,292,307,304,0
302,299,311,306,0
306,305,313,308,0
310,311,314,311,0
312,317,314,312,0
311,323,313,312,0
309,328,311,312,0
307,333,312,313,0
306,341,314,313,0
307,348,316,314,0
309,348,316,313,0
309,336,315,311,0
308,317,312,310,0
305,295,307,308,0
302,276,302,306,0
299,264,297,304,0
297,261,294,303,0
297,264,291,303,0
296,269,290,304,0
297,276,293,306,0
299,285,295,309,0
301,290,297,311,0
303,293,299,312,0
304,300,301,313,0
305,309,304,314,0
305,313,306,314,0
304,310,307,313,0
303,303,307,311,0
301,297,306,310,0
301,294,305,311,0
301,296,303,310,0
301,304,301,309,0
302,315,302,309,0
306,327,304,309,0
310,337,306,309,0
314,343,307,309,0
315,341,306,308,0
312,336,305,306,0
307,332,304,306,0
302,333,302,305,0
297,339,300,305,0
296,347,301,307,0
297,350,303,310,0
300,345,305,312,0
302,333,306,315,0
303,315,307,315,0
304,297,307,315,0
305,287,307,317,0
307,283,307,317,0
307,284,307,315,0
306,290,307,314,0
307,301,309,312,0
308,314,313,309,0
310,329,316,307,0
310,343,318,305,0
308,350,320,305,0
308,348,321,305,0
311,336,323,305,0
313,320,323,306,0
314,304,322,307,0
314,292,318,309,0
311,287,311,310,0
306,285,303,312,0
301,285,295,312,0
297,286,288,312,0
294,285,285,311,0
292,286,285,311,0
292,289,287,310,0
292,293,290,311,0
293,297,291,311,0
294,298,292,310,0
297,299,294,309,0
299,304,298,309,0
301,310,303,307,0
302,314,307,306,0
302,316,309,304,0
302,318,310,302,0
304,319,309,302,0
304,319,306,304,0
304,316,302,306,0
302,314,297,309,0
302,313,294,312,0
302,312,292,315,0
302,308,292,315,0
304,302,294,315,0
306,295,298,314,0
310,288,303,312,0
312,286,307,310,0
313,293,311,308,0
314,309,314,308,0
315,330,316,308,0
314,342,317,308,0
312,344,315,309,0
309,344,313,311,0
308,337,311,314,0
307,322,311,316,0
307,305,312,318,0
308,293,313,320,0
310,292,315,320,0
310,298,314,318,0
309,302,313,316,0
306,304,310,313,0
303,306,308,310,0
303,313,308,309,0
304,327,307,308,0
306,343,306,308,0
307,358,304,308,0
308,367,303,309,0
306,360,302,309,0
301,337,302,308,0
298,305,302,306,0
296,272,301,303,0
296,247,300,301,0
297,234,301,301,0
299,232,304,303,0
302,236,307,304,0
303,248,310,305,0
303,263,310,306,0
301,276,307,307,0
300,283,304,308,0
300,284,302,309,0
300,283,301,309,0
299,282,300,309,0
298,288,299,309,0
299,298,299,309,0
302,309,298,307,0
304,316,296,305,0
306,318,294,303,0
306,319,292,300,0
304,318,292,299,0
301,317,294,298,0
298,314,297,298,0
296,311,299,298,0
296,311,302,299,0
296,315,304,301,0
300,320,306,303,0
306,329,308,306,0
312,339,310,309,0
317,354,312,312,0
322,371,313,315,0
326,385,314,318,0
327,388,314,320,0
325,376,313,320,0
320,355,311,319,0
315,338,310,317,0
312,328,308,315,0
310,322,308,312,0
309,320,309,310,0
309,320,310,307,0
308,317,311,305,0
306,314,312,302,0
304,312,311,301,0
303,305,310,300,0
303,293,306,299,0
300,276,303,297,0
298,260,301,297,0
298,249,301,298,0
299,243,303,300,0
300,244,305,303,0
301,251,307,305,0
302,262,308,309,0
302,273,309,311,0
301,279,309,313,0
299,281,309,312,0
297,280,308,311,0
298,282,306,309,0
299,287,303,309,0
300,293,301,308,0
302,306,299,308,0
305,329,298,308,0
309,358,295,307,0
312,378,287,306,0
311,380,278,303,0
309,361,269,299,0
305,331,263,295,0
300,300,259,292,0
294,277,260,292,0
289,265,267,295,0
286,262,279,300,0
285,264,294,305,0
287,266,312,311,0
294,268,328,315,0
302,272,338,317,0
312,276,343,318,0
321,281,343,319,0
326,289,340,320,0
327,299,334,321,0
325,310,328,321,0
320,321,325,320,0
315,327,322,319,0
309,328,318,316,0
305,326,316,313,0
303,324,314,310,0
304,325,312,309,0
306,327,311,307,0
308,329,309,306,0
307,329,307,305,0
306,323,303,305,0
305,316,297,304,0
305,310,289,304,0
305,307,282,304,0
305,305,277,305,0
304,304,274,304,0
299,301,272,303,0
294,299,274,302,0
290,302,281,303,0
289,308,290,304,0
290,315,299,306,0
292,321,306,307,0
296,321,310,307,0
301,310,313,306,0
306,292,316,305,0
310,276,319,305,0
314,271,321,307,0
316,278,321,309,0
317,292,321,312,0
317,308,320,314,0
316,319,321,314,0
313,319,321,313,0
309,313,319,313,0
305,308,317,312,0
304,307,314,310,0
304,308,311,308,0
304,312,310,306,0
303,316,310,305,0
303,319,311,305,0
302,318,312,305,0
303,313,312,305,0
305,308,311,305,0
308,302,311,305,0
312,293,311,306,0
316,283,312,307,0
319,276,311,308,0
321,274,309,309,0
320,273,306,309,0
318,272,304,307,0
315,270,301,305,0
312,274,300,304,0
309,283,300,305,0
307,295,300,306,0
304,308,299,307,0
302,317,298,308,0
299,319,301,309,0
298,312,305,311,0
296,300,308,310,0
295,292,310,308,0
297,296,311,306,0
303,317,312,306,0
309,346,313,308,0
314,377,312,310,0
317,397,311,311,0
317,400,308,311,0
314,389,306,311,0
308,375,304,310,0
303,359,302,311,0
299,339,300,311,0
295,314,297,310,0
291,290,292,309,0
287,270,290,306,0
285,257,290,304,0
285,250,291,303,0
285,248,292,301,0
286,250,294,300,0
288,255,297,299,0
292,263,301,300,0
297,274,305,302,0
302,288,307,304,0
305,303,307,305,0
308,317,305,306,0
309,328,304,305,0
309,332,303,306,0
309,331,302,306,0
309,327,303,306,0
310,320,302,306,0
310,311,298,306,0
309,303,293,306,0
308,296,287,307,0
306,293,284,308,0
303,292,282,308,0
300,292,282,309,0
297,294,282,310,0
298,295,282,311,0
302,298,282,312,0
308,302,282,312,0
314,306,283,311,0
317,309,286,308,0
318,317,290,306,0
317,330,295,305,0
317,342,302,307,0
316,348,308,308,0
313,346,312,309,0
308,333,313,308,0
301,313,315,305,0
297,293,321,306,0
297,280,328,308,0
300,278,334,312,0
307,281,338,318,0
315,290,338,322,0
323,299,335,326,0
328,312,329,328,0
328,328,321,328,0
322,339,315,327,0
314,337,310,326,0
306,324,308,325,0
300,307,309,324,0
298,289,311,323,0
296,280,310,320,0
297,284,308,318,0
298,296,304,315,0
298,308,299,312,0
298,312,293,308,0
295,310,286,303,0
292,307,280,300,0
290,305,277,297,0
290,303,278,297,0
292,301,283,299,0
295,298,289,301,0
297,295,294,303,0
300,294,299,306,0
302,296,305,308,0
303,300,312,310,0
304,305,318,312,0
306,310,323,312,0
308,314,324,313,0
310,317,323,313,0
311,323,321,313,0
312,332,319,313,0
314,339,319,315,0
317,338,319,318,0
321,333,319,320,0
324,328,318,320,0
325,328,315,320,0
323,334,312,319,0
319,339,308,318,0
315,347,304,315,0
311,352,301,313,0
307,348,300,310,0
305,333,301,309,0
305,317,303,308,0
306,307,306,307,0
306,307,306,307,0
305,319,304,308,0
303,327,301,309,0
300,323,295,309,0
296,312,287,308,0
295,300,280,307,0
296,289,276,306,0
300,278,276,306,0
303,273,278,307,0
305,274,282,308,0
305,279,284,309,0
301,286,286,308,0
295,290,287,307,0
290,293,289,306,0
288,294,292,307,0
289,295,299,310,0
295,298,307,313,0
302,300,313,316,0
310,294,316,318,0
315,284,319,320,0
318,277,320,320,0
319,275,321,319,0
319,276,324,316,0
318,283,327,314,0
318,294,327,311,0
316,301,324,308,0
313,300,319,307,0
309,297,315,307,0
307,298,312,308,0
307,303,310,308,0
308,307,307,309,0
310,309,302,309,0
311,311,298,309,0
310,310,296,308,0
309,306,298,308,0
306,303,301,309,0
305,299,305,310,0
304,299,307,311,0
305,300,309,313,0
305,302,309,315,0
307,304,310,317,0
309,304,311,320,0
310,303,312,322,0
310,299,314,321,0
309,296,315,319,0
307,291,316,317,0
308,288,318,315,0
309,294,320,313,0
310,312,320,311,0
310,340,320,309,0
310,368,319,309,0
308,388,317,308,0
304,387,315,308,0
299,367,311,307,0
294,341,308,307,0
292,318,305,307,0
292,300,304,306,0
296,280,304,306,0
303,261,304,308,0
311,249,306,311,0
319,249,309,315,0
327,263,313,318,0
332,288,317,319,0
333,315,320,318,0
330,332,319,316,0
324,339,315,313,0
315,341,311,309,0
307,340,306,306,0
299,334,301,301,0
293,324,297,298,0
291,314,293,295,0
291,306,291,292,0
295,302,290,290,0
299,300,291,288,0
302,300,294,289,0
304,303,295,291,0
305,306,296,292,0
306,308,296,294,0
307,309,297,295,0
309,308,298,296,0
312,308,299,298,0
315,310,302,300,0
318,314,304,304,0
319,319,305,307,0
318,324,306,310,0
315,329,306,312,0
313,335,304,313,0
311,339,302,313,0
309,341,299,312,0
306,339,297,310,0
302,334,296,307,0
298,330,297,305,0
295,328,299,304,0
295,327,302,305,0
296,325,305,306,0
297,318,308,309,0
299,306,312,312,0
300,296,317,313,0
302,292,323,314,0
304,295,328,315,0
307,303,331,316,0
309,314,331,317,0
312,325,330,316,0
315,327,329,315,0
317,320,328,315,0
316,310,326,314,0
315,302,321,315,0
315,301,316,317,0
317,307,310,319,0
318,316,304,321,0
318,328,297,319,0
313,333,291,315,0
307,327,286,310,0
301,313,284,305,0
297,297,284,301,0
294,283,288,298,0
291,274,292,297,0
288,270,297,297,0
289,269,301,297,0
293,273,306,299,0
300,280,310,301,0
306,287,315,304,0
311,292,318,307,0
318,298,321,311,0
325,304,322,314,0
332,309,320,316,0
333,313,317,315,0
332,314,313,314,0
327,312,308,311,0
319,308,305,306,0
311,302,303,303,0
303,296,302,300,0
296,296,301,298,0
292,301,300,297,0
292,308,300,295,0
295,312,298,292,0
297,311,295,290,0
299,309,295,290,0
300,308,298,291,0
302,310,304,295,0
303,312,310,299,0
304,311,313,301,0
304,308,313,302,0
304,304,314,302,0
305,301,315,304,0
307,302,317,305,0
308,309,319,306,0
308,322,319,307,0
310,335,317,308,0
311,344,314,308,0
313,345,310,308,0
313,339,307,306,0
313,328,303,306,0
312,317,299,305,0
310,308,295,305,0
307,301,292,305,0
304,297,290,305,0
302,295,290,305,0
302,299,292,306,0
302,303,294,308,0
301,306,295,310,0
301,308,294,311,0
300,308,295,311,0
301,307,297,311,0
302,304,301,311,0
303,299,305,309,0
304,295,310,306,0
306,295,315,305,0
307,301,319,305,0
308,310,320,306,0
309,318,319,307,0
311,326,316,308,0
313,332,312,309,0
317,331,309,310,0
318,323,308,309,0
317,312,310,309,0
318,305,313,309,0
320,304,316,308,0
322,306,320,308,0
324,308,323,308,0
323,310,326,309,0
317,308,327,308,0
310,305,327,307,0
303,302,325,306,0
297,297,323,305,0
295,288,321,305,0
294,281,318,306,0
295,277,316,306,0
296,278,314,306,0
297,283,311,306,0
297,287,308,306,0
297,292,306,305,0
298,296,304,304,0
299,303,302,304,0
301,312,299,304,0
301,321,296,304,0
302,329,294,306,0
303,334,295,308,0
304,334,297,309,0
303,330,300,309,0
302,321,303,310,0
300,307,304,310,0
298,289,304,310,0
297,271,305,309,0
297,254,307,310,0
298,243,310,311,0
299,240,314,310,0
301,246,316,309,0
303,259,316,307,0
306,278,315,304,0
310,301,314,302,0
315,330,314,302,0
319,368,314,303,0
323,407,315,306,0
325,436,316,309,0
325,444,314,311,0
321,428,312,310,0
315,393,310,309,0
308,352,307,306,0
302,314,306,305,0
299,286,306,304,0
297,267,306,303,0
294,259,304,303,0
293,259,303,304,0
291,265,303,306,0
291,272,303,308,0
293,279,304,309,0
296,285,305,310,0
299,289,306,310,0
301,292,306,310,0
304,292,306,309,0
307,292,307,309,0
310,295,308,310,0
312,304,309,310,0
313,317,307,311,0
312,330,306,312,0
311,336,304,313,0
308,332,303,312,0
302,318,302,310,0
294,301,302,308,0
288,285,302,308,0
284,270,304,307,0
286,262,303,309,0
294,265,300,311,0
304,280,296,314,0
314,293,292,315,0
317,292,287,314,0
314,285,285,310,0
307,284,286,307,0
301,287,287,304,0
295,293,287,301,0
290,297,286,298,0
288,298,284,296,0
287,298,283,295,0
289,295,285,296,0
292,293,288,298,0
297,293,293,300,0
302,295,298,302,0
307,301,301,303,0
309,310,304,304,0
309,319,306,306,0
307,327,307,307,0
304,331,309,309,0
303,334,310,312,0
302,336,311,313,0
304,338,313,315,0
306,338,315,315,0
307,337,317,314,0
309,335,318,313,0
310,330,317,313,0
309,323,313,312,0
308,315,308,311,0
307,307,304,309,0
306,299,299,307,0
306,292,295,306,0
305,287,293,306,0
306,282,291,307,0
307,280,291,309,0
309,279,293,311,0
311,279,298,313,0
315,283,306,315,0
319,289,315,318,0
320,294,321,320,0
315,296,325,321,0
310,296,325,321,0
307,294,324,321,0
309,298,322,321,0
312,308,319,320,0
317,321,316,318,0
319,329,312,316,0
318,326,307,312,0
315,316,304,309,0
311,308,302,306,0
307,304,301,304,0
304,302,302,304,0
303,300,303,304,0
303,296,304,306,0
304,295,305,308,0
304,297,306,310,0
307,301,308,312,0
309,302,309,312,0
310,296,309,311,0
308,291,308,309,0
306,289,307,306,0
304,290,305,303,0
304,297,304,301,0
305,308,304,300,0
308,321,304,301,0
313,338,306,302,0
318,359,307,305,0
324,381,309,308,0
328,399,309,310,0
328,407,307,311,0
325,399,305,310,0
318,375,303,309,0
311,344,302,308,0
306,318,302,306,0
302,303,303,306,0
299,297,303,307,0
295,294,304,308,0
292,291,303,308,0
292,288,302,309,0
295,286,301,309,0
298,283,301,309,0
301,279,302,308,0
304,276,302,308,0
306,279,303,308,0
307,287,304,309,0
306,298,306,308,0
304,306,308,307,0
300,311,308,306,0
298,311,307,304,0
298,307,306,303,0
302,305,306,304,0
307,306,306,306,0
313,306,307,308,0
316,304,306,308,0
318,303,305,307,0
318,302,304,306,0
318,299,303,305,0
317,293,302,305,0
314,286,303,304,0
312,281,302,303,0
309,277,302,302,0
307,275,301,301,0
306,274,301,300,0
306,277,299,299,0
305,285,295,299,0
305,295,291,299,0
306,308,288,299,0
306,319,287,300,0
307,326,287,301,0
308,329,290,302,0
310,332,295,304,0
312,333,300,304,0
313,330,305,304,0
314,322,310,304,0
314,317,315,304,0
314,315,321,304,0
313,315,324,305,0
312,315,326,306,0
310,317,327,307,0
309,320,328,308,0
307,321,329,307,0
305,319,329,307,0
302,318,328,307,0
302,317,325,307,0
305,313,321,305,0
308,302,317,304,0
311,289,312,301,0
313,276,309,299,0
313,267,305,297,0
312,262,303,295,0
310,263,301,294,0
308,267,301,294,0
307,273,301,295,0
306,277,303,295,0
306,279,304,295,0
305,280,303,295,0
304,282,301,295,0
303,286,299,295,0
303,289,298,296,0
303,293,298,297,0
304,297,300,298,0
305,302,304,300,0
306,310,310,302,0
308,322,315,304,0
310,335,315,304,0
309,344,310,304,0
307,345,303,301,0
304,336,298,299,0
301,322,294,298,0
297,310,293,298,0
293,304,295,300,0
291,301,296,301,0
290,298,297,301,0
292,298,297,302,0
296,305,300,303,0
299,317,305,305,0
303,328,312,308,0
307,336,319,312,0
311,342,325,314,0
314,345,328,317,0
315,343,328,319,0
314,335,326,320,0
312,326,323,321,0
311,317,320,322,0
310,306,316,322,0
311,298,313,320,0
313,297,312,317,0
315,309,311,314,0
316,329,307,310,0
315,339,301,305,0
310,331,293,299,0
303,312,286,294,0
297,294,283,292,0
294,283,286,293,0
294,281,293,297,0
298,284,302,300,0
300,287,309,301,0
301,289,315,301,0
302,290,320,300,0
302,290,321,299,0
302,288,321,298,0
303,287,320,299,0
303,288,318,299,0
303,291,316,300,0
303,297,315,301,0
303,306,314,302,0
302,316,314,303,0
301,326,314,303,0
300,335,314,301,0
299,335,313,299,0
297,326,310,298,0
294,313,306,297,0
292,299,302,297,0
292,291,297,297,0
292,285,294,297,0
294,281,291,298,0
295,279,289,298,0
295,281,290,298,0
294,286,294,298,0
295,293,301,300,0
297,300,308,302,0
301,305,314,304,0
305,310,317,306,0
308,319,319,307,0
312,329,320,307,0
313,332,319,306,0
310,327,318,304,0
306,318,317,301,0
301,306,315,299,0
296,295,314,297,0
294,288,312,297,0
292,286,311,297,0
293,286,312,299,0
295,290,312,301,0
297,294,313,303,0
300,297,313,305,0
304,297,313,307,0
306,295,314,310,0
308,292,315,311,0
309,289,316,312,0
308,289,316,312,0
308,291,315,311,0
307,295,314,309,0
307,296,314,307,0
306,293,313,304,0
304,287,312,301,0
302,282,310,299,0
299,279,308,297,0
298,276,306,295,0
298,275,304,293,0
298,274,305,294,0
299,275,305,296,0
300,278,307,297,0
303,283,308,299,0
304,288,308,302,0
305,295,309,303,0
306,302,310,305,0
306,309,311,308,0
305,314,311,310,0
303,318,312,312,0
301,321,312,312,0
299,320,312,312,0
298,322,312,312,0
298,329,311,312,0
300,345,310,313,0
306,371,310,313,0
316,403,312,315,0
325,431,313,317,0
331,443,312,317,0
332,430,309,315,0
325,395,304,310,0
315,348,299,306,0
306,306,296,304,0
301,273,296,304,0
299,251,297,305,0
300,244,298,306,0
301,253,296,306,0
299,269,291,304,0
295,282,284,302,0
289,284,277,301,0
286,281,274,301,0
285,281,275,302,0
287,283,279,305,0
291,290,285,307,0
298,300,291,309,0
304,309,293,311,0
311,314,293,313,0
315,312,291,313,0
316,305,289,312,0
314,292,287,311,0
311,273,288,308,0
309,258,292,305,0
308,250,301,304,0
307,249,313,302,0
303,256,324,301,0
298,268,331,301,0
294,283,335,302,0
293,298,336,302,0
293,312,335,303,0
293,325,333,304,0
295,334,329,305,0
297,337,325,306,0
300,336,322,307,0
303,333,320,308,0
304,334,319,307,0
304,336,317,307,0
304,339,314,305,0
303,340,311,302,0
303,337,309,300,0
302,325,306,299,0
302,310,306,300,0
303,301,308,302,0
306,302,312,304,0
309,308,316,307,0
310,312,318,308,0
308,310,318,308,0
305,305,318,308,0
301,298,317,307,0
296,292,314,307,0
293,289,312,306,0
292,292,309,306,0
293,299,307,306,0
297,304,306,305,0
301,306,307,304,0
307,307,308,304,0
312,312,310,305,0
315,321,310,304,0
313,329,308,302,0
306,330,304,300,0
299,324,300,297,0
293,316,297,296,0
290,306,295,297,0
289,298,294,297,0
288,292,293,297,0
291,288,296,299,0
295,288,300,303,0
302,290,306,306,0
307,294,310,309,0
312,299,311,309,0
313,302,311,309,0
313,304,309,309,0
312,304,307,308,0
310,304,304,308,0
309,307,301,307,0
308,314,300,305,0
308,323,300,304,0
309,331,303,302,0
310,335,305,300,0
310,331,306,299,0
309,324,306,299,0
308,318,307,301,0
308,313,309,303,0
309,311,312,306,0
310,313,315,308,0
310,320,316,309,0
309,327,318,310,0
310,331,319,312,0
311,331,318,313,0
312,326,318,313,0
313,321,315,313,0
314,317,311,312,0
314,309,306,310,0
313,300,301,310,0
312,299,297,311,0
312,308,297,313,0
312,322,299,316,0
312,330,302,317,0
310,322,305,317,0
307,299,306,314,0
304,277,309,310,0
302,267,312,307,0
302,274,317,304,0
305,290,321,303,0
307,303,323,301,0
306,310,322,299,0
304,311,320,299,0
301,310,318,299,0
299,310,317,300,0
300,310,317,302,0
302,313,317,303,0
304,319,317,305,0
309,330,317,306,0
313,341,317,307,0
316,344,317,307,0
316,335,316,305,0
315,319,313,302,0
313,302,310,298,0
313,289,306,296,0
313,284,305,295,0
313,285,304,296,0
315,294,303,298,0
317,316,302,301,0
321,348,301,305,0
324,379,301,308,0
324,403,299,309,0
322,415,297,310,0
316,412,296,308,0
308,392,295,306,0
300,360,293,303,0
296,319,291,299,0
293,276,290,296,0
291,241,290,293,0
289,218,289,291,0
290,210,290,290,0
294,213,295,291,0
298,223,301,292,0
303,235,306,292,0
306,248,308,293,0
307,260,308,294,0
308,271,307,294,0
307,278,305,294,0
306,281,303,296,0
304,283,301,297,0
303,284,302,299,0
303,283,304,302,0
304,284,308,306,0
306,290,312,309,0
309,298,315,311,0
312,305,315,313,0
313,308,314,313,0
313,307,312,312,0
312,304,309,310,0
310,300,307,307,0
307,298,305,304,0
305,299,304,302,0
303,302,304,301,0
303,308,305,301,0
305,318,309,302,0
308,328,313,303,0
309,335,317,303,0
308,338,319,304,0
308,339,319,305,0
307,340,317,306,0
308,343,314,308,0
308,345,312,309,0
310,343,310,310,0
311,339,309,312,0
312,334,309,313,0
313,328,310,313,0
312,321,312,313,0
311,316,313,311,0
308,311,313,309,0
306,310,313,308,0
306,312,313,308,0
308,318,313,307,0
310,323,313,307,0
312,324,312,306,0
313,323,311,305,0
314,328,309,303,0
314,340,308,304,0
313,345,308,304,0
309,332,307,306,0
305,309,306,306,0
301,287,305,307,0
299,271,304,308,0
300,266,305,310,0
303,270,306,312,0
307,282,308,313,0
313,291,312,314,0
317,293,315,313,0
319,282,315,310,0
317,264,314,307,0
315,254,312,304,0
314,255,310,303,0
310,264,307,301,0
305,275,304,299,0
299,289,301,297,0
295,304,298,294,0
292,315,297,293,0
292,321,296,292,0
292,324,297,293,0
293,324,299,294,0
293,323,298,295,0
291,319,297,294,0
291,313,294,295,0
293,306,293,296,0
296,303,295,298,0
298,303,298,301,0
300,308,301,303,0
301,314,303,306,0
301,319,304,308,0
302,323,303,309,0
303,325,301,308,0
306,326,298,307,0
308,324,295,304,0
309,320,293,302,0
311,311,293,300,0
312,302,295,298,0
313,297,297,298,0
312,297,301,299,0
311,302,304,301,0
308,310,305,303,0
306,318,303,304,0
305,323,301,305,0
306,325,300,305,0
308,328,298,306,0
312,334,297,308,0
318,343,295,310,0
322,348,293,311,0
325,343,290,310,0
326,328,289,309,0
326,309,290,307,0
325,295,296,307,0
322,288,304,306,0
318,287,313,306,0
312,292,319,306,0
307,302,322,306,0
304,318,324,306,0
303,337,326,306,0
304,350,326,307,0
303,348,326,307,0
304,338,326,307,0
308,330,326,309,0
314,324,326,311,0
320,315,325,313,0
324,306,322,313,0
323,298,318,313,0
320,290,312,312,0
315,281,310,310,0
311,272,309,307,0
309,266,310,306,0
308,267,311,306,0
306,270,311,305,0
304,273,311,304,0
302,277,310,302,0
300,279,309,300,0
297,275,307,298,0
297,266,304,297,0
298,258,303,297,0
300,252,302,298,0
302,253,302,300,0
303,262,301,302,0
303,276,299,303,0
302,293,299,304,0
301,309,302,304,0
301,323,307,305,0
303,334,315,308,0
306,342,322,311,0
309,346,327,313,0
311,344,328,315,0
311,338,325,317,0
309,327,320,317,0
305,313,317,316,0
301,299,314,314,0
300,293,311,312,0
301,294,308,310,0
303,296,306,308,0
307,302,303,305,0
311,313,303,304,0
316,331,303,304,0
319,352,305,305,0
321,369,306,304,0
319,370,305,303,0
315,358,302,301,0
312,343,301,301,0
309,328,301,302,0
306,312,300,303,0
303,298,299,303,0
302,286,297,302,0
301,275,297,302,0
299,265,297,302,0
300,257,299,303,0
302,255,302,304,0
305,257,303,305,0
306,264,302,306,0
305,275,301,304,0
304,284,300,300,0
301,288,299,296,0
296,290,298,292,0
293,294,297,291,0
291,299,296,293,0
290,305,298,294,0
293,308,302,297,0
297,313,306,300,0
301,320,309,303,0
306,330,311,305,0
310,343,311,307,0
313,355,311,309,0
315,365,309,311,0
315,370,305,312,0
313,366,300,310,0
310,351,297,309,0
309,334,296,307,0
309,320,294,305,0
308,309,290,304,0
305,300,285,303,0
303,291,279,302,0
300,285,273,301,0
299,281,272,301,0
301,283,275,303,0
303,286,284,305,0
306,293,296,309,0
311,303,307,313,0
315,317,318,316,0
317,327,323,318,0
315,328,322,317,0
309,318,314,313,0
303,304,307,310,0
300,293,303,307,0
300,289,304,305,0
303,289,306,305,0
305,292,306,305,0
306,296,306,305,0
306,302,305,307,0
306,309,304,307,0
307,315,305,306,0
309,320,305,304,0
310,321,307,302,0
311,316,310,301,0
310,306,313,300,0
308,294,317,300,0
305,284,320,300,0
305,277,323,301,0
306,274,326,303,0
310,276,326,305,0
313,281,324,307,0
314,287,320,309,0
313,292,315,310,0
310,295,310,309,0
308,298,306,309,0
308,303,303,309,0
310,311,302,310,0
314,323,301,312,0
317,333,302,313,0
317,339,304,313,0
315,342,307,311,0
312,344,310,308,0
307,344,312,306,0
303,342,313,305,0
301,335,313,303,0
299,327,312,302,0
298,321,310,301,0
297,317,308,301,0
298,308,306,302,0
300,297,304,302,0
301,287,303,303,0
302,280,303,304,0
303,275,304,305,0
303,273,305,306,0
305,273,306,308,0
305,274,305,309,0
304,273,302,308,0
300,269,297,306,0
297,263,295,304,0
296,258,295,303,0
296,256,297,302,0
296,256,298,302,0
296,260,300,302,0
296,267,301,302,0
297,275,302,302,0
301,282,302,303,0
305,288,302,304,0
309,298,302,304,0
312,310,302,305,0
314,325,304,306,0
317,342,306,308,0
319,359,308,309,0
321,376,310,311,0
322,385,311,311,0
321,379,310,310,0
318,361,308,308,0
313,340,304,306,0
309,320,301,306,0
306,305,298,306,0
304,294,295,305,0
302,287,291,302,0
300,282,287,300,0
297,279,283,297,0
293,277,282,294,0
290,276,283,294,0
290,279,286,296,0
292,288,291,299,0
295,298,296,303,0
298,309,302,306,0
301,320,308,308,0
303,325,312,311,0
304,325,313,312,0
303,319,313,312,0
301,309,311,311,0
299,299,311,311,0
298,291,310,312,0
299,283,311,314,0
303,274,312,316,0
308,264,314,317,0
313,256,317,316,0
318,255,318,314,0
320,262,320,312,0
320,278,321,309,0
317,296,320,305,0
311,311,318,301,0
305,322,316,298,0
301,330,314,298,0
300,336,313,300,0
301,343,313,303,0
301,346,312,304,0
300,345,310,304,0
298,341,307,303,0
296,333,304,302,0
294,321,304,301,0
293,312,305,301,0
293,304,308,302,0
295,298,312,304,0
297,297,315,305,0
299,298,317,305,0
301,299,319,304,0
302,296,320,302,0
304,295,321,301,0
306,299,322,301,0
308,305,322,302,0
309,313,322,304,0
310,321,321,305,0
313,329,318,307,0
317,336,316,309,0
322,343,315,311,0
326,343,315,312,0
329,336,316,313,0
330,327,318,313,0
329,315,320,315,0
325,306,319,316,0
319,299,317,317,0
314,293,315,317,0
310,291,313,318,0
309,296,314,317,0
308,300,314,316,0
306,302,314,314,0
304,303,312,311,0
301,302,310,310,0
299,297,308,308,0
297,289,304,306,0
298,280,301,306,0
301,272,297,306,0
304,267,293,307,0
307,263,290,307,0
308,256,288,306,0
308,249,289,304,0
308,251,291,303,0
309,268,295,301,0
310,293,299,300,0
310,322,302,299,0
310,347,302,299,0
309,367,301,300,0
309,379,301,302,0
308,379,302,303,0
307,366,303,304,0
304,345,304,303,0
301,323,305,302,0
299,308,306,301,0
298,297,308,299,0
296,288,310,298,0
293,281,312,297,0
292,279,314,298,0
295,278,316,299,0
299,276,315,302,0
304,276,313,303,0
309,278,310,305,0
313,284,306,308,0
314,296,304,311,0
313,310,304,313,0
312,323,305,314,0
310,332,306,314,0
309,333,306,313,0
308,327,305,312,0
308,318,305,311,0
306,308,304,309,0
303,298,304,307,0
298,290,304,304,0
295,285,304,301,0
293,282,306,299,0
295,279,308,297,0
299,277,310,297,0
302,273,311,298,0
304,269,312,301,0
305,264,312,304,0
306,260,312,307,0
308,257,312,310,0
309,258,312,312,0
311,263,313,312,0
313,269,315,313,0
314,276,316,313,0
314,281,316,312,0
312,285,314,311,0
311,290,312,312,0
310,294,310,312,0
310,298,306,312,0
309,304,301,310,0
306,312,294,308,0
304,320,288,306,0
301,328,285,304,0
296,333,284,304,0
292,337,284,306,0
290,342,286,308,0
290,346,289,310,0
292,348,293,312,0
297,349,297,314,0
306,356,300,316,0
315,364,303,318,0
322,366,309,319,0
325,356,314,318,0
324,340,320,316,0
320,322,323,314,0
316,309,326,312,0
313,301,327,310,0
312,298,327,308,0
311,296,326,307,0
312,294,321,306,0
313,295,315,303,0
313,297,310,300,0
312,298,306,299,0
310,293,305,298,0
307,285,306,300,0
305,275,308,303,0
304,265,311,305,0
304,259,312,308,0
305,255,314,311,0
307,255,316,314,0
309,257,318,316,0
311,266,319,318,0
314,280,319,322,0
317,302,318,325,0
320,332,317,327,0
321,361,316,329,0
322,380,315,329,0
318,381,313,327,0
310,364,310,323,0
302,336,308,318,0
298,305,307,315,0
299,278,306,314,0
303,255,304,313,0
309,234,301,311,0
311,218,296,309,0
308,208,293,307,0
304,210,291,304,0
302,224,292,302,0
300,249,295,301,0
298,279,301,300,0
298,309,307,300,0
298,333,312,302,0
297,346,314,303,0
296,349,315,304,0
295,348,315,305,0
295,344,314,305,0
296,341,313,305,0
298,342,311,305,0
301,349,310,305,0
304,357,308,305,0
308,367,307,305,0
313,375,304,306,0
317,371,301,305,0
317,353,297,304,0
316,331,296,304,0
315,316,294,305,0
315,312,292,306,0
314,316,292,307,0
313,324,293,308,0
311,325,298,308,0
309,315,303,308,0
308,299,307,307,0
306,282,308,307,0
305,265,310,309,0
305,251,310,311,0
305,243,310,312,0
306,240,310,312,0
307,241,310,311,0
308,247,309,308,0
309,255,307,306,0
309,263,306,304,0
308,272,306,303,0
309,284,305,304,0
309,299,304,305,0
308,316,302,306,0
307,329,301,306,0
305,332,301,305,0
304,328,302,305,0
305,322,303,305,0
307,315,301,304,0
306,306,298,303,0
303,299,293,302,0
298,295,287,301,0
295,298,284,302,0
293,306,286,303,0
294,316,294,306,0
297,325,305,310,0
301,334,315,313,0
305,340,321,316,0
309,346,325,317,0
312,352,325,317,0
315,355,323,317,0
315,351,318,316,0
311,336,313,313,0
307,320,308,311,0
302,310,303,309,0
300,305,301,307,0
301,306,300,306,0
302,311,299,306,0
305,318,300,306,0
307,322,302,307,0
308,319,304,309,0
309,313,307,311,0
310,306,311,313,0
311,298,315,315,0
309,287,318,316,0
308,278,320,317,0
308,277,320,320,0
310,290,321,322,0
314,311,320,324,0
318,326,319,324,0
320,328,316,323,0
319,315,312,322,0
317,296,311,321,0
315,275,310,319,0
315,256,309,319,0
316,245,308,319,0
317,247,306,319,0
318,262,305,317,0
318,285,306,315,0
317,308,308,313,0
316,326,310,312,0
315,337,313,312,0
314,341,313,311,0
311,339,310,308,0
306,334,306,304,0
299,325,301,299,0
293,316,296,293,0
290,306,293,289,0
290,300,292,286,0
290,298,292,285,0
291,300,294,286,0
293,306,296,288,0
295,312,300,291,0
297,317,304,294,0
300,323,310,297,0
304,330,315,300,0
309,338,320,304,0
314,348,323,309,0
318,353,325,314,0
321,349,324,318,0
320,337,323,319,0
316,320,321,318,0
311,306,318,318,0
306,297,316,319,0
302,293,314,320,0
300,293,312,321,0
300,301,309,321,0
302,315,309,320,0
307,332,307,319,0
312,346,306,318,0
314,358,305,316,0
314,357,304,314,0
313,344,304,311,0
312,324,305,309,0
314,306,308,309,0
317,295,311,310,0
319,291,314,313,0
321,293,317,316,0
321,296,319,319,0
319,298,320,321,0
316,300,319,321,0
313,298,317,320,0
307,290,313,317,0
300,278,308,314,0
294,270,301,310,0
290,266,296,306,0
288,267,294,304,0
287,272,293,303,0
286,277,293,303,0
287,282,295,303,0
291,287,298,304,0
299,295,301,305,0
305,307,301,305,0
312,319,300,307,0
316,328,300,308,0
318,330,300,310,0
317,322,301,311,0
313,308,303,312,0
309,293,306,312,0
307,281,310,313,0
307,273,315,314,0
308,270,318,315,0
310,270,320,316,0
312,270,320,317,0
312,272,318,317,0
312,276,316,317,0
312,281,312,317,0
310,285,306,316,0
309,287,301,315,0
309,289,295,314,0
308,292,290,312,0
306,294,286,311,0
305,298,285,310,0
305,303,287,310,0
305,310,290,310,0
307,317,294,310,0
308,321,298,310,0
308,322,301,310,0
308,320,304,310,0
308,318,308,310,0
311,314,311,311,0
315,305,315,311,0
318,290,316,312,0
318,275,316,313,0
317,268,314,317,0
316,273,315,320,0
316,292,316,321,0
317,318,316,321,0
317,342,311,319,0
315,353,305,314,0
310,353,301,308,0
304,347,299,303,0
298,343,298,297,0
295,337,296,292,0
294,333,296,289,0
294,332,297,288,0
295,333,298,290,0
298,335,299,292,0
303,336,300,296,0
309,337,300,301,0
314,338,300,305,0
317,335,300,309,0
317,325,301,311,0
315,309,302,310,0
312,294,305,308,0
308,282,309,305,0
305,278,311,303,0
303,281,313,301,0
303,287,312,300,0
304,296,312,299,0
306,303,311,299,0
307,305,309,299,0
307,303,308,299,0
308,298,309,299,0
310,295,311,300,0
313,293,313,302,0
317,294,313,303,0
320,298,314,305,0
323,302,315,305,0
324,304,312,306,0
323,306,306,307,0
319,312,301,307,0
314,321,295,306,0
307,333,292,305,0
302,346,293,306,0
298,351,295,307,0
293,339,296,308,0
291,317,297,308,0
293,293,299,309,0
301,273,301,311,0
312,263,302,312,0
322,263,304,312,0
328,273,306,313,0
330,293,305,314,0
328,320,303,313,0
323,348,299,313,0
316,368,297,311,0
310,373,297,310,0
303,361,299,307,0
296,337,301,303,0
290,310,304,300,0
287,287,308,298,0
286,269,312,296,0
287,259,314,295,0
289,253,317,294,0
292,251,321,294,0
296,253,325,294,0
300,258,325,295,0
304,265,324,297,0
306,274,321,299,0
307,283,317,300,0
308,289,314,302,0
308,294,311,304,0
308,298,309,305,0
310,302,307,306,0
313,312,306,307,0
315,326,306,308,0
316,339,305,308,0
314,345,305,308,0
311,339,303,309,0
307,325,303,310,0
304,311,305,311,0
303,300,308,312,0
303,296,311,312,0
304,295,312,313,0
304,295,310,313,0
304,295,308,313,0
304,291,305,311,0
304,286,302,309,0
304,284,298,307,0
304,285,295,304,0
305,288,291,304,0
306,293,289,304,0
309,299,290,306,0
313,306,293,308,0
315,314,296,309,0
316,320,300,310,0
315,325,302,310,0
311,331,304,310,0
307,337,306,311,0
304,344,309,313,0
302,347,312,314,0
301,345,313,315,0
301,333,314,314,0
302,317,315,313,0
304,303,313,311,0
305,290,309,308,0
305,276,305,305,0
303,264,302,303,0
302,253,301,302,0
301,243,301,302,0
301,234,300,302,0
301,227,301,302,0
303,225,302,304,0
305,230,303,306,0
306,241,304,309,0
307,258,303,309,0
305,280,301,309,0
304,302,300,309,0
304,319,300,310,0
305,330,303,311,0
308,339,308,313,0
311,342,311,314,0
312,340,313,313,0
311,335,312,312,0
310,330,310,310,0
309,332,307,308,0
307,340,304,307,0
305,352,302,307,0
304,364,300,307,0
306,374,300,307,0
310,376,300,307,0
314,366,299,306,0
317,350,298,306,0
319,330,297,306,0
320,313,296,306,0
319,302,298,306,0
319,299,302,309,0
317,306,306,313,0
314,318,310,315,0
311,331,312,316,0
307,339,313,316,0
304,342,310,315,0
304,342,307,314,0
307,339,306,313,0
313,333,306,312,0
318,325,310,310,0
320,318,315,307,0
318,312,318,304,0
314,308,319,302,0
310,303,319,302,0
308,293,317,302,0
307,281,315,302,0
305,271,310,301,0
302,265,303,299,0
300,260,295,298,0
298,262,290,297,0
299,270,288,297,0
300,279,288,299,0
304,288,291,303,0
309,292,298,308,0
315,292,303,312,0
318,291,306,314,0
319,292,305,314,0
317,296,300,313,0
314,305,294,311,0
310,316,290,308,0
306,320,289,305,0
301,312,292,302,0
297,298,297,299,0
295,286,304,296,0
295,278,310,295,0
296,273,313,295,0
297,271,313,295,0
298,270,310,296,0
298,270,307,298,0
298,270,306,301,0
300,271,307,304,0
303,275,309,308,0
307,284,311,312,0
310,302,313,317,0
312,327,313,320,0
312,353,313,323,0
312,377,312,325,0
311,393,311,325,0
310,395,311,323,0
309,382,310,320,0
307,354,309,314,0
303,324,306,310,0
301,301,303,305,0
299,287,299,301,0
297,276,294,298,0
293,269,290,296,0
290,266,288,295,0
288,267,290,295,0
287,272,293,296,0
288,276,296,297,0
290,281,299,297,0
294,288,302,299,0
299,300,304,300,0
303,317,307,302,0
308,334,308,304,0
310,342,308,305,0
311,338,308,305,0
311,330,308,305,0
311,322,310,306,0
310,319,311,309,0
309,320,311,311,0
307,323,310,312,0
305,327,310,312,0
304,333,310,313,0
305,340,309,312,0
308,344,309,311,0
310,341,308,309,0
312,333,307,306,0
311,326,306,303,0
310,330,305,303,0
310,345,304,304,0
310,357,302,305,0
309,360,299,305,0
307,347,295,304,0
305,327,291,302,0
304,304,289,300,0
304,285,288,298,0
304,267,289,297,0
304,251,291,295,0
304,235,295,293,0
303,221,298,291,0
302,212,300,292,0
302,212,298,294,0
302,223,294,297,0
302,243,289,301,0
301,266,287,304,0
302,288,289,308,0
303,309,295,310,0
306,325,303,313,0
309,330,313,315,0
311,327,320,317,0
312,320,323,318,0
313,311,322,319,0
316,303,322,319,0
319,298,321,319,0
321,295,320,318,0
321,294,318,316,0
319,296,315,315,0
315,298,312,314,0
310,301,311,313,0
306,303,309,312,0
302,305,308,310,0
299,303,308,308,0
298,300,308,306,0
298,301,307,305,0
299,310,306,305,0
301,326,305,306,0
303,341,305,308,0
305,348,305,309,0
306,343,306,309,0
305,334,306,309,0
304,329,307,310,0
304,330,309,312,0
307,335,311,316,0
311,339,312,319,0
314,339,312,322,0
315,339,312,323,0
315,336,310,323,0
313,333,309,322,0
309,328,307,319,0
305,320,306,315,0
299,309,304,311,0
294,299,301,308,0
292,293,298,306,0
292,291,297,303,0
294,292,297,302,0
295,293,297,300,0
296,291,297,299,0
296,287,299,300,0
298,283,304,302,0
300,282,308,304,0
301,285,311,305,0
300,289,312,306,0
299,293,314,306,0
299,296,316,308,0
300,294,319,310,0
301,289,319,312,0
301,283,317,313,0
300,280,314,314,0
298,281,308,313,0
295,284,303,311,0
292,284,298,309,0
289,285,295,307,0
288,286,294,306,0
290,287,294,304,0
293,290,297,303,0
297,294,300,303,0
303,301,305,304,0
308,313,308,304,0
311,329,309,304,0
312,347,307,302,0
311,358,304,301,0
309,359,300,302,0
307,349,297,304,0
305,332,296,306,0
304,314,296,306,0
304,299,298,307,0
304,290,301,306,0
303,286,304,305,0
302,285,306,304,0
302,287,309,304,0
303,290,312,304,0
304,294,314,304,0
307,301,314,305,0
308,313,315,305,0
309,324,315,305,0
308,332,314,304,0
306,332,313,304,0
305,326,312,303,0
305,318,311,303,0
306,308,311,304,0
308,297,311,305,0
308,287,312,307,0
310,278,314,309,0
312,271,315,312,0
313,266,315,313,0
312,264,314,313,0
311,265,312,311,0
308,268,309,309,0
305,274,307,308,0
302,286,306,306,0
299,301,305,305,0
298,316,304,306,0
298,330,305,307,0
300,341,306,308,0
304,349,309,309,0
308,354,311,311,0
310,350,312,311,0
309,334,311,311,0
307,315,311,310,0
305,299,313,310,0
304,290,314,309,0
304,290,315,308,0
306,294,315,307,0
309,301,313,306,0
313,310,310,307,0
317,314,309,308,0
319,313,308,308,0
318,312,307,308,0
314,315,307,307,0
310,329,308,307,0
307,351,309,307,0
305,370,310,307,0
304,381,310,307,0
305,378,310,308,0
304,356,308,308,0
304,325,308,308,0
304,295,309,307,0
305,273,309,308,0
305,258,309,309,0
302,248,309,311,0
299,240,309,313,0
297,238,310,315,0
298,239,311,315,0
300,241,312,312,0
303,246,311,309,0
305,254,309,307,0
305,268,307,306,0
303,284,305,306,0
302,302,305,307,0
300,322,306,307,0
298,340,305,307,0
297,353,303,305,0
297,363,300,303,0
300,370,299,301,0
303,368,300,300,0
304,356,303,299,0
306,340,306,299,0
307,322,307,299,0
306,303,307,299,0
304,286,306,300,0
303,275,306,302,0
305,271,306,305,0
309,272,307,307,0
312,277,306,308,0
313,283,306,309,0
312,287,308,309,0
309,286,310,310,0
307,284,311,310,0
305,284,310,309,0
304,287,308,307,0
304,294,306,305,0
304,306,305,303,0
304,320,304,302,0
303,331,304,301,0
300,333,302,300,0
299,328,299,301,0
298,322,295,302,0
296,316,288,302,0
294,315,282,303,0
292,316,277,302,0
292,317,276,302,0
295,318,282,302,0
298,316,293,303,0
302,313,306,305,0
305,311,316,306,0
308,311,322,306,0
309,311,324,304,0
309,311,322,301,0
308,309,319,299,0
304,301,317,297,0
302,293,316,296,0
300,286,317,296,0
300,282,318,298,0
301,284,318,299,0
303,292,318,303,0
307,304,318,305,0
310,315,319,308,0
313,324,318,310,0
314,325,317,310,0
314,320,318,311,0
313,314,319,311,0
312,309,320,313,0
312,307,320,313,0
311,306,319,314,0
310,302,316,315,0
309,298,314,314,0
310,296,313,313,0
311,295,312,311,0
311,293,312,308,0
311,290,311,305,0
310,285,309,303,0
309,280,309,302,0
308,274,308,304,0
308,270,309,305,0
308,267,311,307,0
308,268,313,310,0
310,282,314,314,0
313,309,314,317,0
316,341,313,320,0
319,366,311,321,0
319,378,307,321,0
316,385,304,320,0
313,391,304,320,0
310,393,306,320,0
309,384,308,318,0
306,362,311,314,0
305,336,314,311,0
306,314,316,308,0
308,297,316,306,0
311,286,314,303,0
313,282,311,302,0
312,282,305,301,0
310,286,298,301,0
306,292,293,301,0
302,294,290,301,0
298,292,290,300,0
293,288,292,299,0
292,283,296,298,0
294,283,299,298,0
298,288,301,299,0
302,296,302,300,0
305,302,303,300,0
306,306,302,300,0
304,308,299,300,0
301,304,297,300,0
297,296,295,300,0
293,288,295,301,0
295,284,299,305,0
299,286,303,309,0
305,291,306,312,0
309,296,308,314,0
313,302,309,315,0
315,309,309,315,0
316,317,309,314,0
315,328,308,312,0
312,342,304,310,0
308,359,301,309,0
306,367,301,309,0
305,365,302,311,0
304,354,303,312,0
300,337,303,312,0
295,319,304,312,0
290,302,305,311,0
287,288,307,309,0
287,279,308,308,0
290,277,308,306,0
297,283,307,304,0
304,299,304,303,0
308,316,302,303,0
309,319,301,300,0
306,304,300,298,0
304,282,302,296,0
303,265,304,295,0
304,257,305,294,0
305,257,304,294,0
303,260,303,294,0
301,261,302,295,0
299,262,303,296,0
299,267,306,299,0
300,275,311,303,0
300,286,315,306,0
299,298,316,309,0
298,308,316,312,0
297,313,314,313,0
295,312,312,312,0
294,307,311,310,0
294,303,311,307,0
296,303,311,305,0
301,312,312,304,0
305,326,312,304,0
310,340,313,305,0
314,348,312,306,0
315,346,311,306,0
315,336,309,306,0
314,324,308,306,0
313,312,308,307,0
312,305,308,309,0
310,305,308,311,0
307,310,307,312,0
304,318,305,314,0
302,327,304,314,0
297,335,301,312,0
293,343,299,309,0
291,352,297,308,0
292,358,296,309,0
294,355,295,310,0
295,344,296,310,0
297,329,297,310,0
298,316,299,310,0
301,304,300,307,0
303,293,301,305,0
303,282,302,301,0
303,272,302,299,0
304,267,304,297,0
306,267,304,296,0
310,272,302,297,0
314,280,300,299,0
318,290,299,302,0
320,301,300,304,0
319,307,302,304,0
317,311,305,305,0
316,317,308,306,0
315,325,312,308,0
313,331,313,309,0
310,333,311,308,0
306,329,307,307,0
303,318,305,306,0
300,306,303,304,0
299,298,302,304,0
300,295,302,305,0
303,296,304,307,0
307,298,307,308,0
312,301,308,310,0
315,305,310,312,0
317,307,311,313,0
316,306,310,312,0
314,308,310,312,0
315,317,310,313,0
318,330,310,315,0
320,336,309,317,0
322,333,309,317,0
320,319,309,317,0
316,304,309,316,0
312,299,310,315,0
307,302,310,313,0
302,301,309,313,0
299,291,308,311,0
296,274,308,308,0
296,258,308,305,0
296,247,308,303,0
297,245,306,300,0
296,255,304,296,0
293,271,302,293,0
289,287,298,291,0
287,300,296,291,0
287,312,294,293,0
289,323,293,296,0
295,335,293,299,0
303,349,296,304,0
312,366,300,308,0
318,377,305,312,0
321,378,308,314,0
320,370,310,314,0
316,356,311,313,0
314,340,312,312,0
312,324,313,311,0
308,307,315,308,0
304,292,315,306,0
300,282,315,305,0
299,280,313,305,0
300,284,309,306,0
303,294,305,307,0
305,301,303,309,0
306,305,303,312,0
305,309,304,313,0
304,313,306,315,0
302,313,307,315,0
300,307,307,314,0
298,301,306,313,0
297,301,303,310,0
298,304,302,309,0
300,306,301,309,0
302,301,301,308,0
305,292,303,307,0
309,283,306,308,0
311,276,310,309,0
312,272,315,310,0
311,269,318,312,0
309,267,319,315,0
307,267,317,316,0
307,270,314,316,0
308,278,309,315,0
309,293,304,315,0
312,312,300,315,0
315,325,299,316,0
316,331,299,316,0
315,331,300,315,0
313,327,299,314,0
310,319,299,312,0
309,311,299,310,0
310,309,299,308,0
312,314,301,309,0
315,322,305,311,0
318,331,308,313,0
319,338,310,316,0
318,342,309,316,0
313,338,306,314,0
307,327,302,311,0
300,313,299,308,0
295,300,298,305,0
292,292,298,302,0
291,288,299,300,0
292,287,301,298,0
294,288,304,297,0
296,290,306,295,0
297,293,309,295,0
300,295,311,296,0
303,298,313,298,0
306,300,313,300,0
306,302,311,302,0
306,302,308,303,0
305,303,306,306,0
306,308,305,308,0
308,319,305,311,0
311,335,306,314,0
314,352,307,316,0
318,367,309,318,0
322,375,311,320,0
322,371,312,319,0
320,360,311,318,0
316,346,309,317,0
313,334,307,316,0
308,324,306,316,0
303,315,304,314,0
298,303,303,311,0
295,285,302,309,0
295,268,303,308,0
298,257,305,307,0
302,253,305,306,0
306,252,305,306,0
309,254,306,307,0
311,257,306,309,0
312,259,306,310,0
311,263,305,310,0
310,270,305,312,0
310,283,304,312,0
308,295,301,312,0
304,304,298,311,0
302,308,296,311,0
300,311,295,311,0
299,311,295,312,0
297,310,297,311,0
295,311,298,312,0
296,315,300,312,0
297,321,303,312,0
299,325,305,312,0
301,327,307,312,0
304,324,310,313,0
307,314,313,313,0
309,303,316,313,0
311,295,316,312,0
312,296,313,312,0
313,308,309,313,0
313,326,306,314,0
315,344,304,314,0
317,356,303,313,0
317,356,301,311,0
314,345,299,308,0
311,324,296,305,0
306,304,293,302,0
303,294,289,300,0
301,294,288,300,0
300,302,288,301,0
301,312,289,304,0
302,324,292,306,0
305,335,297,308,0
307,341,301,310,0
308,339,303,311,0
308,330,305,312,0
310,320,306,313,0
311,312,307,315,0
313,306,306,316,0
313,302,305,318,0
312,300,303,319,0
310,296,302,320,0
307,291,303,320,0
303,288,304,318,0
300,287,306,316,0
299,288,307,314,0
298,288,306,312,0
297,284,304,310,0
296,279,302,308,0
297,277,302,308,0
297,278,302,308,0
296,282,304,307,0
297,289,306,307,0
300,298,308,308,0
303,308,312,308,0
307,319,315,310,0
311,330,317,311,0
315,342,319,312,0
316,346,322,312,0
317,342,324,313,0
317,337,325,314,0
317,334,323,314,0
316,333,320,314,0
312,329,318,313,0
307,319,316,312,0
301,308,314,310,0
296,304,311,308,0
293,310,309,307,0
292,322,307,307,0
292,332,306,307,0
294,336,306,309,0
296,329,306,309,0
299,311,305,309,0
302,288,303,308,0
303,266,301,306,0
302,250,298,304,0
300,244,296,304,0
299,247,296,305,0
302,261,294,307,0
307,283,292,308,0
312,308,291,309,0
315,335,292,311,0
318,356,294,312,0
320,362,297,313,0
318,351,299,311,0
314,331,302,308,0
310,311,305,304,0
304,293,308,300,0
300,277,309,297,0
296,266,309,295,0
293,258,307,294,0
291,257,304,293,0
291,264,300,291,0
291,275,298,290,0
292,287,296,289,0
293,296,294,289,0
294,300,295,290,0
295,300,296,292,0
297,301,298,295,0
300,304,301,299,0
302,307,305,302,0
304,306,308,304,0
305,302,308,306,0
305,297,307,307,0
304,293,304,308,0
303,290,303,308,0
302,289,302,308,0
302,293,303,308,0
303,303,303,307,0
304,316,304,307,0
306,331,304,307,0
307,346,303,307,0
308,358,304,308,0
310,364,306,309,0
311,361,309,309,0
310,350,309,309,0
306,336,311,310,0
304,328,311,311,0
302,324,312,312,0
301,323,311,313,0
301,325,308,314,0
300,327,304,314,0
300,328,299,314,0
299,330,296,314,0
299,326,295,315,0
299,309,296,315,0
299,286,299,313,0
298,263,303,312,0
299,248,307,311,0
299,238,309,310,0
300,234,310,309,0
300,236,311,308,0
299,239,314,308,0
299,244,319,309,0
301,250,324,311,0
305,262,328,312,0
308,279,329,311,0
311,298,329,309,0
313,319,327,308,0
314,340,325,308,0
314,360,322,308,0
313,376,319,309,0
311,390,316,310,0
309,401,314,310,0
307,405,313,310,0
306,398,312,309,0
303,377,309,306,0
301,352,305,303,0
302,331,302,302,0
307,317,301,302,0
312,306,300,303,0
316,296,300,304,0
319,284,302,306,0
320,272,306,307,0
320,263,311,308,0
320,260,317,308,0
321,267,321,309,0
321,283,323,309,0
320,304,324,309,0
319,321,322,309,0
316,332,319,308,0
313,340,316,306,0
309,348,312,304,0
306,353,310,303,0
304,351,308,301,0
302,337,305,299,0
301,322,304,298,0
302,311,304,298,0
304,305,305,300,0
307,302,305,301,0
306,299,304,302,0
305,297,300,304,0
303,299,297,308,0
302,305,294,310,0
303,314,293,313,0
303,318,291,314,0
304,313,292,313,0
303,301,294,311,0
300,289,297,309,0
296,281,301,308,0
293,275,305,308,0
291,273,308,307,0
292,276,310,305,0
295,282,312,303,0
299,290,314,302,0
301,296,315,300,0
303,301,315,300,0
303,307,314,299,0
303,314,312,300,0
303,319,311,300,0
305,321,311,301,0
307,322,311,302,0
310,324,313,303,0
312,325,314,303,0
311,322,316,302,0
310,316,317,302,0
309,311,317,304,0
310,310,318,306,0
310,312,316,308,0
311,315,315,312,0
311,318,315,315,0
313,319,316,319,0
315,321,317,322,0
319,324,319,324,0
321,325,318,324,0
320,317,316,322,0
318,300,313,318,0
313,283,311,315,0
310,270,310,312,0
308,263,310,310,0
306,258,309,308,0
303,256,306,308,0
300,255,302,307,0
296,254,297,305,0
291,254,293,304,0
287,259,291,303,0
285,272,292,304,0
285,288,295,304,0
288,303,298,305,0
293,316,302,305,0
300,324,306,307,0
305,326,311,309,0
309,324,315,310,0
310,322,316,311,0
309,323,315,310,0
309,326,313,310,0
309,329,311,309,0
309,331,309,309,0
308,334,305,308,0
306,338,302,306,0
306,344,302,305,0
307,349,303,306,0
310,352,305,309,0
312,348,307,311,0
313,337,308,313,0
315,326,310,315,0
315,314,313,315,0
314,303,316,315,0
312,299,318,315,0
309,305,320,315,0
307,318,319,315,0
306,329,317,315,0
304,330,314,315,0
303,323,309,314,0
302,313,305,314,0
303,307,303,313,0
307,308,302,313,0
312,319,301,313,0
317,333,300,311,0
320,348,299,309,0
323,364,299,308,0
325,372,300,307,0
323,359,301,306,0
318,328,300,305,0
311,294,300,303,0
305,268,299,303,0
301,251,298,303,0
300,242,297,303,0
301,240,297,305,0
302,241,297,307,0
304,246,297,307,0
306,254,297,308,0
310,264,298,309,0
314,273,300,309,0
317,280,302,310,0
319,285,306,310,0
318,290,311,311,0
315,293,315,310,0
309,292,317,309,0
303,290,316,306,0
299,288,316,303,0
298,291,313,301,0
299,297,310,301,0
301,306,307,301,0
302,318,303,302,0
301,329,300,302,0
299,337,299,303,0
298,340,303,304,0
301,337,307,306,0
304,329,311,308,0
309,317,312,309,0
314,303,309,310,0
315,290,307,310,0
314,280,305,312,0
313,275,304,313,0
312,272,305,314,0
310,273,307,314,0
307,280,308,313,0
303,289,308,312,0
300,297,308,311,0
297,305,309,311,0
296,312,307,310,0
295,317,304,309,0
295,322,301,308,0
296,328,300,309,0
299,330,300,310,0
305,330,303,310,0
310,329,306,311,0
315,328,307,312,0
317,328,308,313,0
318,330,309,316,0
319,332,310,318,0
318,331,311,317,0
315,327,312,314,0
311,324,313,311,0
307,324,315,309,0
305,325,316,308,0
303,323,316,306,0
302,316,315,303,0
301,307,312,300,0
301,299,309,297,0
302,296,306,295,0
303,298,304,295,0
305,306,304,296,0
307,318,305,297,0
310,326,307,300,0
312,324,308,303,0
313,316,307,306,0
313,307,307,309,0
314,301,306,312,0
316,301,306,315,0
