314,315,328,318,2
311,333,327,313,2
308,345,325,309,2
305,354,323,306,2
302,360,320,303,2
301,359,317,301,2
300,355,314,299,2
299,347,311,298,2
300,340,308,297,2
300,335,305,297,2
300,332,303,296,2
300,331,302,296,2
298,329,303,297,2
298,324,304,298,2
298,317,305,300,2
298,310,306,303,2
299,304,308,306,2
300,302,310,309,2
302,301,310,310,2
304,301,311,312,2
306,302,311,313,2
308,303,312,314,2
308,302,313,314,2
309,300,312,313,2
308,298,310,312,2
307,296,307,311,2
306,297,304,311,2
304,298,302,310,2
304,297,300,310,2
303,294,299,309,2
303,290,298,310,2
303,287,299,311,2
304,286,299,312,2
304,289,300,313,2
304,294,301,314,2
304,301,301,315,2
303,306,302,316,2
303,310,303,317,2
305,309,304,317,2
307,303,306,317,2
310,297,308,318,2
312,289,308,318,2
314,283,308,318,2
315,277,307,318,2
314,273,305,318,2
312,271,303,317,2
309,272,300,314,2
305,275,297,311,2
302,278,296,308,2
302,280,296,307,2
302,284,297,307,2
303,289,298,308,2
302,299,299,309,2
301,310,299,309,2
301,317,299,309,2
301,321,300,309,2
302,325,301,310,2
302,330,302,311,2
303,334,303,313,2
304,334,304,314,2
303,328,306,314,2
302,318,309,314,2
302,308,310,313,2
302,300,310,312,2
303,294,309,311,2
303,293,306,310,2
303,297,302,308,2
301,304,298,305,2
300,310,295,303,2
298,313,293,303,2
297,312,294,303,2
296,309,296,303,2
295,303,300,304,2
295,296,304,306,2
296,288,306,308,2
297,278,308,310,2
298,267,307,313,2
299,260,306,315,2
300,256,305,316,2
303,252,305,319,2
305,249,307,320,2
307,245,309,321,2
308,247,310,322,2
308,256,310,320,2
307,274,308,317,2
304,293,305,313,2
301,308,302,308,2
298,315,299,304,2
297,316,297,300,2
297,313,296,299,2
298,309,295,299,2
300,308,296,300,2
302,310,298,302,2
304,313,300,304,2
306,319,302,306,2
307,324,303,309,2
308,326,304,310,2
309,324,304,311,2
309,318,305,311,2
309,308,305,312,2
309,296,305,313,2
309,288,305,314,2
308,284,305,314,2
307,283,305,314,2
305,283,304,312,2
304,281,303,310,2
303,280,301,308,2
302,280,299,306,2
301,284,297,303,2
300,290,295,300,2
298,298,295,298,2
297,304,295,296,2
295,308,296,295,2
294,308,297,296,2
295,305,299,297,2
297,302,302,300,2
299,300,304,303,2
302,300,307,307,2
304,305,310,310,2
307,314,311,313,2
308,320,312,315,2
308,321,312,316,2
307,316,312,316,2
306,309,311,315,2
305,300,309,314,2
304,295,306,312,2
303,294,304,310,2
302,297,300,307,2
301,301,298,306,2
300,307,296,306,2
299,313,295,306,2
299,320,294,307,2
298,325,294,307,2
297,326,295,308,2
296,324,296,310,2
296,322,298,311,2
296,319,300,313,2
298,314,303,314,2
300,308,304,316,2
303,301,305,317,2
305,294,305,318,2
307,287,305,318,2
307,283,305,318,2
308,280,306,317,2
307,279,306,315,2
306,278,306,313,2
305,276,305,311,2
304,274,304,309,2
304,276,303,306,2
302,281,301,305,2
302,291,300,304,2
302,303,300,305,2
303,312,301,306,2
304,317,303,308,2
304,319,305,309,2
304,317,306,311,2
304,310,306,314,2
304,298,306,316,2
305,282,308,319,2
307,265,311,322,2
310,251,314,325,2
311,244,316,326,2
313,246,317,325,2
312,258,315,322,2
310,276,312,316,2
306,296,308,311,2
302,314,303,305,2
299,324,299,301,2
298,325,297,299,2
297,319,296,299,2
297,310,296,299,2
299,304,297,300,2
301,303,297,303,2
304,306,298,306,2
306,311,300,308,2
309,317,303,311,2
311,325,304,313,2
311,330,306,315,2
311,331,307,316,2
308,328,308,316,2
304,319,310,315,2
302,308,311,314,2
301,296,312,313,2
300,285,313,311,2
301,277,313,310,2
301,270,312,308,2
301,264,310,306,2
300,261,307,305,2
300,261,305,305,2
299,265,302,305,2
299,270,300,306,2
300,277,298,306,2
300,287,298,307,2
300,295,299,307,2
300,302,300,308,2
300,307,302,309,2
301,312,304,309,2
302,318,306,309,2
304,325,308,309,2
304,329,308,309,2
305,330,308,309,2
305,331,308,309,2
305,331,307,309,2
305,330,307,308,2
304,327,306,307,2
303,321,304,306,2
301,312,301,304,2
299,300,299,302,2
298,286,297,300,2
297,273,299,298,2
297,263,302,299,2
300,256,306,301,2
302,255,309,303,2
305,259,311,306,2
308,267,311,310,2
309,279,309,314,2
310,291,308,316,2
311,302,306,317,2
312,310,306,318,2
312,315,307,318,2
311,319,308,318,2
311,324,310,318,2
310,328,311,318,2
310,329,312,318,2
309,327,312,318,2
308,322,311,317,2
307,313,310,315,2
307,304,308,314,2
306,297,305,311,2
305,292,303,309,2
305,292,303,307,2
306,295,303,305,2
307,296,304,304,2
307,297,304,304,2
307,297,304,306,2
308,296,306,309,2
309,293,307,313,2
309,287,309,316,2
310,276,311,320,2
311,266,313,323,2
313,254,315,324,2
315,241,317,325,2
316,231,318,324,2
317,228,319,323,2
315,239,317,319,2
312,261,314,314,2
307,288,310,308,2
302,310,304,303,2
299,327,299,300,2
297,337,296,298,2
297,344,296,298,2
298,349,296,298,2
300,351,296,298,2
302,351,298,300,2
304,349,301,303,2
307,346,303,306,2
309,340,306,308,2
312,332,308,311,2
313,325,310,312,2
315,323,311,312,2
316,322,311,312,2
316,317,312,312,2
315,310,312,313,2
314,303,312,314,2
312,295,311,315,2
311,286,310,315,2
309,279,306,314,2
307,274,303,311,2
306,270,300,308,2
305,265,297,305,2
304,263,296,302,2
303,265,294,300,2
302,268,294,299,2
302,271,295,300,2
302,274,296,302,2
303,280,299,304,2
305,288,302,307,2
307,297,305,309,2
308,307,307,311,2
309,315,308,311,2
308,320,306,312,2
308,325,304,312,2
307,326,301,312,2
307,324,299,311,2
307,318,298,310,2
306,310,297,309,2
304,300,298,307,2
303,291,298,306,2
303,284,299,305,2
306,278,300,305,2
311,274,300,306,2
314,274,299,306,2
317,278,298,307,2
317,286,298,309,2
316,295,298,310,2
315,305,300,312,2
314,316,301,314,2
314,323,303,315,2
314,326,305,317,2
314,324,306,318,2
314,320,306,318,2
314,314,305,317,2
313,308,304,315,2
312,304,303,314,2
312,303,303,313,2
312,303,302,312,2
309,301,302,310,2
308,299,303,308,2
307,297,302,305,2
305,295,301,303,2
304,294,301,302,2
304,294,302,302,2
304,294,304,303,2
305,292,305,305,2
306,291,306,306,2
306,292,307,307,2
307,297,309,309,2
307,304,312,309,2
309,309,314,311,2
310,313,317,312,2
310,314,320,313,2
311,312,321,313,2
312,305,320,314,2
311,297,318,315,2
312,288,316,315,2
311,280,312,314,2
311,272,308,313,2
310,265,304,311,2
309,259,302,309,2
309,258,299,307,2
308,261,298,305,2
307,266,297,304,2
305,273,295,303,2
304,280,295,302,2
303,284,297,304,2
303,287,299,306,2
303,292,302,308,2
303,302,304,309,2
302,316,305,309,2
302,327,306,309,2
303,330,307,309,2
304,326,308,309,2
306,318,309,309,2
308,307,310,310,2
310,296,309,309,2
311,290,309,309,2
312,290,307,307,2
311,298,304,306,2
309,305,303,304,2
307,309,301,302,2
305,311,301,301,2
303,312,301,300,2
302,311,301,300,2
302,309,302,302,2
303,303,306,304,2
305,296,310,306,2
308,288,314,310,2
310,284,317,312,2
312,281,319,313,2
314,279,319,313,2
314,279,319,315,2
314,282,319,317,2
313,286,318,319,2
313,286,317,319,2
311,283,314,319,2
309,280,312,317,2
307,280,308,313,2
303,282,304,308,2
300,282,302,304,2
300,282,301,302,2
300,281,302,301,2
301,283,303,301,2
302,288,303,301,2
302,297,304,301,2
301,308,305,302,2
301,321,306,303,2
302,332,306,305,2
302,340,306,306,2
303,343,306,307,2
305,343,306,307,2
306,340,306,306,2
308,333,306,305,2
308,326,306,305,2
309,318,307,304,2
309,310,307,304,2
310,302,308,303,2
310,294,306,302,2
309,285,305,301,2
308,277,303,299,2
306,273,301,298,2
304,270,300,297,2
302,269,299,298,2
301,270,299,298,2
301,275,301,300,2
301,282,303,302,2
302,290,304,304,2
304,298,306,307,2
307,305,308,310,2
309,311,310,312,2
310,315,311,314,2
311,316,312,314,2
312,317,312,315,2
311,316,312,315,2
311,315,311,314,2
312,312,309,314,2
311,309,307,312,2
310,304,304,311,2
309,298,301,309,2
308,293,299,308,2
307,287,298,307,2
305,284,298,307,2
304,282,299,308,2
303,283,301,309,2
303,284,305,312,2
302,283,309,314,2
303,279,313,317,2
304,273,316,320,2
305,265,319,321,2
307,260,320,321,2
308,259,320,321,2
308,260,319,321,2
309,261,318,321,2
308,264,316,321,2
308,269,314,321,2
306,277,311,320,2
304,288,309,318,2
303,300,306,315,2
302,307,304,310,2
302,312,303,306,2
302,315,302,302,2
302,317,302,300,2
303,321,303,299,2
303,326,304,299,2
302,330,305,300,2
303,332,306,302,2
303,331,307,303,2
305,328,309,306,2
307,324,311,308,2
309,318,313,311,2
312,311,315,313,2
313,302,316,314,2
314,293,317,315,2
315,287,316,314,2
316,287,315,313,2
315,292,313,311,2
314,304,311,309,2
311,315,308,306,2
309,318,305,303,2
307,316,302,301,2
305,315,301,299,2
305,314,301,299,2
305,307,302,300,2
305,294,304,301,2
307,275,306,304,2
309,257,307,307,2
310,240,309,310,2
312,227,309,312,2
311,225,308,313,2
310,234,308,313,2
308,251,309,312,2
307,269,310,311,2
307,285,312,310,2
308,299,312,310,2
307,315,312,309,2
306,331,310,307,2
304,343,309,304,2
303,349,308,301,2
302,348,307,299,2
303,343,307,298,2
304,335,307,297,2
305,325,307,297,2
306,317,307,298,2
307,311,308,299,2
308,306,309,301,2
310,303,311,304,2
311,302,312,305,2
312,304,313,307,2
312,308,313,309,2
311,312,313,310,2
310,313,312,312,2
310,312,312,313,2
309,309,313,313,2
309,304,313,313,2
309,300,313,313,2
309,296,313,311,2
309,294,312,310,2
309,294,310,308,2
307,294,307,306,2
306,294,304,304,2
304,296,301,303,2
304,298,298,303,2
304,301,297,304,2
304,306,299,304,2
303,309,302,306,2
303,310,306,308,2
302,310,310,309,2
302,308,312,311,2
302,307,314,312,2
303,304,313,314,2
304,302,312,315,2
305,300,311,316,2
306,299,311,316,2
306,298,310,316,2
305,297,311,315,2
304,293,310,315,2
304,289,309,313,2
305,284,308,312,2
305,278,306,312,2
305,272,305,311,2
306,267,304,311,2
307,264,302,311,2
308,260,301,311,2
309,255,301,311,2
311,248,302,311,2
312,241,304,312,2
312,241,305,313,2
311,251,306,313,2
309,268,307,314,2
309,287,308,314,2
309,300,308,314,2
308,309,310,313,2
307,313,311,313,2
306,318,312,311,2
306,321,313,309,2
305,321,312,306,2
304,319,311,304,2
303,317,309,303,2
303,315,307,303,2
302,313,305,304,2
301,310,304,305,2
300,305,302,306,2
300,299,302,307,2
301,293,303,309,2
302,289,303,311,2
303,286,305,312,2
305,285,306,314,2
308,290,308,315,2
309,302,310,315,2
311,316,311,315,2
311,328,311,315,2
311,334,311,314,2
311,335,311,314,2
310,332,311,314,2
309,326,311,313,2
307,321,310,312,2
306,319,309,311,2
304,319,308,310,2
303,320,307,308,2
303,321,306,307,2
303,321,305,306,2
302,320,304,307,2
302,316,304,308,2
302,312,304,310,2
303,306,304,312,2
304,302,305,315,2
305,300,307,317,2
306,303,309,319,2
306,306,310,319,2
306,309,310,319,2
307,307,310,319,2
309,301,309,320,2
310,293,308,318,2
310,287,308,317,2
310,285,308,315,2
309,286,310,313,2
306,289,310,310,2
304,294,310,307,2
302,301,309,304,2
301,306,308,302,2
301,310,307,301,2
301,312,306,301,2
303,313,307,302,2
304,314,309,303,2
306,315,310,306,2
307,316,312,309,2
308,318,312,313,2
308,319,311,315,2
307,319,310,318,2
307,318,311,321,2
307,318,311,323,2
307,317,311,323,2
305,313,311,322,2
303,308,309,320,2
301,308,307,318,2
299,311,305,314,2
299,314,303,311,2
299,316,301,309,2
300,316,300,307,2
301,313,299,307,2
301,309,298,307,2
301,304,297,309,2
300,300,296,310,2
299,297,295,313,2
299,294,295,314,2
299,289,295,315,2
299,282,295,317,2
300,272,296,318,2
301,260,299,320,2
303,247,301,322,2
305,239,303,323,2
306,240,305,325,2
307,251,306,325,2
307,269,306,323,2
306,288,306,319,2
305,304,305,314,2
303,316,304,309,2
302,324,302,305,2
300,330,301,304,2
300,332,301,303,2
298,329,300,303,2
298,320,301,304,2
297,311,300,306,2
297,304,300,306,2
297,302,301,307,2
299,305,302,308,2
301,307,304,310,2
304,306,307,313,2
306,303,309,316,2
307,295,312,318,2
308,286,314,319,2
307,278,315,319,2
306,272,316,318,2
305,273,315,316,2
304,284,314,313,2
302,302,312,311,2
300,321,309,309,2
298,339,308,306,2
297,350,307,304,2
297,353,306,302,2
297,350,304,300,2
297,346,303,298,2
299,340,301,297,2
301,331,300,297,2
302,322,299,298,2
303,316,298,299,2
303,315,298,302,2
302,318,300,306,2
302,320,304,309,2
302,321,309,312,2
303,322,314,313,2
304,321,318,315,2
304,319,319,316,2
304,317,319,317,2
304,314,318,317,2
304,310,316,316,2
304,305,314,315,2
305,301,314,313,2
305,296,313,310,2
304,290,312,308,2
303,285,311,306,2
302,282,309,305,2
301,280,307,305,2
301,279,305,307,2
302,280,305,309,2
304,283,306,311,2
306,290,308,313,2
307,299,309,314,2
309,308,310,315,2
310,315,311,315,2
311,319,311,315,2
311,320,311,316,2
311,319,311,316,2
310,319,311,315,2
310,320,309,314,2
309,317,308,311,2
307,309,306,307,2
306,295,304,304,2
305,279,301,302,2
303,264,298,301,2
301,253,296,300,2
300,245,296,301,2
299,240,296,302,2
299,237,299,304,2
301,239,302,308,2
303,245,305,312,2
305,251,307,315,2
307,256,308,316,2
309,263,309,316,2
309,272,308,314,2
309,282,307,312,2
309,294,306,310,2
310,306,306,309,2
311,316,305,308,2
311,324,304,306,2
310,328,303,304,2
309,326,301,302,2
308,321,300,301,2
308,313,298,299,2
308,306,297,298,2
308,298,297,298,2
308,293,297,298,2
309,291,298,298,2
310,292,300,299,2
311,296,302,301,2
310,300,304,302,2
308,304,306,304,2
307,306,309,305,2
307,310,312,306,2
307,316,314,307,2
307,323,317,307,2
307,330,318,306,2
307,336,318,304,2
305,342,316,301,2
303,346,313,298,2
300,347,309,294,2
297,344,305,291,2
295,340,304,289,2
295,336,303,287,2
296,333,303,288,2
297,331,303,290,2
298,328,303,292,2
299,325,303,294,2
300,323,304,296,2
302,321,305,299,2
303,320,307,301,2
305,319,308,304,2
307,317,310,306,2
308,316,311,308,2
308,313,312,310,2
308,310,313,311,2
308,305,313,312,2
308,299,313,312,2
309,290,313,312,2
310,279,312,311,2
310,268,310,309,2
310,260,309,308,2
310,256,308,305,2
309,258,307,303,2
309,266,305,302,2
307,277,304,301,2
305,287,303,301,2
304,293,303,301,2
302,297,303,301,2
302,300,304,302,2
302,304,305,304,2
302,311,307,307,2
303,318,308,310,2
303,325,309,312,2
302,330,310,313,2
302,332,310,314,2
302,331,310,314,2
302,327,311,314,2
303,321,310,313,2
303,316,310,312,2
302,311,309,310,2
302,309,306,308,2
301,308,304,305,2
301,306,301,303,2
302,304,299,301,2
303,298,297,301,2
303,292,297,301,2
304,284,297,302,2
304,277,299,304,2
305,272,303,307,2
306,272,308,311,2
307,279,312,314,2
308,288,315,316,2
309,294,318,318,2
311,298,319,318,2
312,296,318,318,2
314,290,317,317,2
316,280,316,316,2
316,270,314,314,2
316,265,312,312,2
314,267,309,310,2
313,272,306,307,2
312,280,303,306,2
311,289,301,304,2
308,298,299,303,2
305,304,298,301,2
302,309,297,299,2
299,311,297,298,2
297,315,297,298,2
297,322,299,298,2
297,327,300,299,2
297,330,301,300,2
298,331,302,302,2
299,331,302,304,2
300,328,302,305,2
302,323,301,304,2
303,320,301,302,2
304,321,302,301,2
305,323,305,299,2
307,324,308,299,2
307,325,309,299,2
307,325,310,299,2
307,322,309,299,2
305,316,308,299,2
304,310,307,299,2
303,304,307,299,2
303,300,306,299,2
303,299,305,299,2
303,298,305,300,2
303,298,305,301,2
305,300,306,303,2
307,302,308,305,2
309,302,310,307,2
312,302,312,310,2
315,302,314,313,2
317,302,316,314,2
318,300,317,315,2
319,292,317,316,2
319,278,316,316,2
318,260,314,316,2
318,243,312,316,2
318,229,310,315,2
318,222,308,315,2
318,223,306,314,2
317,231,305,312,2
315,245,306,310,2
313,261,307,308,2
312,278,307,306,2
310,293,307,305,2
309,307,306,305,2
309,321,305,306,2
309,335,304,307,2
310,347,304,310,2
311,356,305,311,2
312,364,306,312,2
313,369,307,313,2
313,370,307,313,2
314,369,307,313,2
314,365,306,313,2
313,360,305,314,2
312,353,303,314,2
311,345,302,314,2
310,338,301,313,2
309,331,300,312,2
308,324,301,311,2
308,316,301,310,2
308,305,302,309,2
308,293,303,308,2
308,282,304,309,2
309,277,305,310,2
310,277,306,311,2
311,282,307,313,2
312,287,308,315,2
312,292,309,317,2
312,295,310,320,2
312,299,311,321,2
312,304,311,322,2
312,308,312,323,2
312,313,311,322,2
312,317,311,319,2
311,320,310,316,2
310,320,308,312,2
309,318,306,307,2
309,315,304,304,2
309,314,303,302,2
310,312,302,301,2
311,308,301,301,2
312,301,301,301,2
312,292,302,302,2
313,288,304,303,2
312,288,306,304,2
311,291,308,304,2
310,296,310,306,2
309,301,312,307,2
308,306,314,308,2
307,310,315,309,2
308,313,315,311,2
309,316,313,312,2
311,321,311,313,2
312,326,309,312,2
312,328,307,311,2
312,326,305,309,2
311,322,302,308,2
309,315,299,305,2
307,304,297,305,2
306,287,295,305,2
306,265,294,306,2
306,243,295,307,2
305,225,297,308,2
305,215,299,309,2
305,219,302,310,2
306,235,304,310,2
307,263,307,310,2
306,297,310,309,2
305,326,312,308,2
305,347,314,308,2
306,357,315,308,2
307,359,316,308,2
307,356,315,307,2
307,348,314,306,2
306,342,313,306,2
306,337,312,304,2
305,333,312,303,2
304,330,312,302,2
304,324,312,302,2
303,318,312,302,2
303,313,310,301,2
303,310,309,302,2
303,310,307,302,2
303,311,307,304,2
305,313,307,307,2
306,315,308,310,2
308,315,308,313,2
309,313,309,316,2
309,310,310,317,2
309,303,311,318,2
309,298,311,317,2
309,293,312,315,2
309,291,312,313,2
308,292,312,310,2
306,296,311,308,2
305,301,309,306,2
305,304,307,304,2
305,305,305,303,2
305,304,304,303,2
305,301,303,304,2
305,298,303,304,2
305,294,302,305,2
306,288,303,307,2
306,281,304,309,2
306,276,304,310,2
305,276,304,311,2
305,278,304,312,2
305,281,306,315,2
307,284,309,317,2
309,289,311,319,2
312,297,312,320,2
312,307,312,319,2
311,313,311,318,2
310,318,310,316,2
308,320,309,313,2
307,322,306,311,2
306,324,304,309,2
306,327,301,307,2
305,328,298,306,2
304,331,297,305,2
304,332,297,304,2
304,330,298,304,2
304,324,299,305,2
304,313,300,307,2
305,302,302,312,2
307,289,304,317,2
309,277,306,321,2
310,267,308,323,2
310,262,310,325,2
309,264,312,324,2
308,275,313,323,2
307,295,313,321,2
306,316,313,319,2
305,332,311,316,2
304,341,306,312,2
302,345,302,307,2
301,346,298,303,2
301,344,296,300,2
301,341,295,298,2
301,337,295,298,2
301,332,295,299,2
301,327,296,301,2
303,322,298,302,2
303,318,301,303,2
304,315,303,304,2
305,313,306,305,2
305,310,307,307,2
305,308,306,309,2
306,305,305,312,2
307,298,305,315,2
309,286,306,318,2
312,272,309,319,2
314,256,312,319,2
315,240,316,318,2
315,229,317,315,2
315,229,317,312,2
313,243,314,307,2
311,266,309,302,2
308,290,304,298,2
306,312,298,294,2
304,328,295,293,2
303,338,292,291,2
302,343,292,292,2
302,345,294,293,2
303,344,297,295,2
304,340,301,298,2
306,333,306,300,2
308,323,310,302,2
309,315,314,304,2
309,309,316,306,2
308,306,318,306,2
307,304,319,307,2
305,303,318,306,2
303,303,318,305,2
302,306,317,304,2
301,311,317,303,2
300,314,315,303,2
300,316,314,302,2
300,316,313,301,2
301,315,312,301,2
301,309,311,302,2
302,297,311,304,2
303,283,311,306,2
305,269,312,309,2
306,258,313,313,2
307,252,314,316,2
308,257,315,318,2
308,273,316,318,2
308,293,317,317,2
308,310,318,316,2
308,319,319,315,2
308,325,320,312,2
307,328,319,310,2
307,330,318,307,2
307,330,316,305,2
306,328,314,302,2
304,323,311,300,2
302,315,307,299,2
301,306,305,297,2
301,295,304,297,2
301,282,304,297,2
302,272,306,298,2
302,266,308,300,2
303,265,310,303,2
304,266,311,306,2
304,270,312,310,2
304,279,313,313,2
303,291,313,315,2
302,305,312,316,2
301,319,311,316,2
301,331,309,313,2
301,339,308,311,2
301,343,307,308,2
300,342,307,305,2
300,337,306,303,2
299,330,306,301,2
299,325,305,299,2
299,323,305,298,2
299,323,304,298,2
300,324,305,298,2
301,325,305,298,2
302,324,305,300,2
304,323,305,302,2
304,322,305,304,2
304,322,305,306,2
304,319,305,309,2
305,313,306,312,2
305,307,309,315,2
306,302,312,318,2
305,300,315,319,2
305,298,315,319,2
305,295,314,318,2
305,291,311,317,2
305,286,306,316,2
305,282,303,316,2
306,281,300,315,2
306,281,299,315,2
306,279,300,314,2
306,276,302,314,2
306,271,303,313,2
306,266,303,313,2
306,266,304,312,2
306,270,305,310,2
306,278,307,310,2
307,286,308,309,2
308,292,310,309,2
310,293,313,310,2
313,287,316,312,2
315,278,318,314,2
318,268,319,315,2
319,260,319,315,2
319,260,318,314,2
317,268,316,313,2
314,283,314,311,2
312,301,311,309,2
308,320,308,306,2
304,336,305,302,2
300,345,302,299,2
298,348,299,297,2
298,347,298,295,2
298,343,296,295,2
299,336,296,296,2
300,329,297,297,2
303,323,297,299,2
304,318,299,301,2
305,314,301,304,2
306,313,303,306,2
307,315,305,308,2
308,322,308,309,2
310,331,310,310,2
310,338,311,311,2
310,343,311,311,2
310,344,310,310,2
309,342,309,309,2
307,339,307,307,2
306,335,307,305,2
306,331,305,303,2
305,322,304,301,2
304,310,302,299,2
301,299,301,298,2
300,291,300,297,2
298,287,300,298,2
297,285,300,300,2
297,284,300,302,2
298,282,301,305,2
300,280,303,309,2
301,276,305,314,2
303,270,307,317,2
304,264,310,320,2
306,260,312,320,2
307,260,313,319,2
308,266,314,316,2
308,278,314,313,2
308,292,312,309,2
307,305,309,305,2
304,315,304,302,2
301,321,300,298,2
299,324,295,296,2
298,324,289,293,2
297,322,284,291,2
296,317,281,290,2
296,311,281,290,2
296,305,285,291,2
298,296,293,294,2
300,288,302,297,2
303,281,310,301,2
306,276,315,305,2
310,275,317,307,2
313,281,317,309,2
315,294,315,310,2
315,310,313,310,2
315,323,311,310,2
313,333,309,310,2
312,338,308,309,2
311,342,307,309,2
310,344,306,307,2
309,342,305,306,2
307,338,304,303,2
305,334,302,301,2
304,328,302,299,2
303,322,302,299,2
304,315,302,300,2
306,309,302,301,2
307,303,304,303,2
309,293,306,305,2
311,282,308,309,2
313,271,310,311,2
314,263,311,314,2
315,259,312,316,2
316,262,311,317,2
316,272,309,317,2
314,284,308,315,2
312,294,306,312,2
310,301,304,307,2
308,304,301,302,2
308,307,299,297,2
307,305,298,294,2
309,299,297,293,2
310,294,296,293,2
310,291,295,294,2
308,292,294,293,2
307,295,293,293,2
306,300,292,292,2
305,308,292,292,2
304,319,294,293,2
305,328,297,295,2
305,336,300,299,2
306,341,303,303,2
307,342,305,307,2
309,340,306,310,2
310,337,307,312,2
310,332,307,314,2
311,326,307,313,2
311,319,307,312,2
311,310,306,311,2
311,300,305,309,2
310,290,304,308,2
310,281,303,308,2
309,275,303,308,2
308,274,302,308,2
307,277,302,308,2
306,284,302,308,2
304,293,302,307,2
304,301,303,308,2
303,310,304,308,2
303,316,306,308,2
302,319,307,309,2
302,320,309,310,2
302,318,311,311,2
303,315,311,312,2
304,310,312,313,2
306,305,311,314,2
308,302,309,314,2
309,301,307,313,2
309,299,305,311,2
308,297,302,309,2
306,294,299,307,2
303,288,297,305,2
301,279,295,305,2
300,270,294,306,2
300,265,293,305,2
301,264,293,305,2
301,272,292,304,2
301,286,292,304,2
301,302,292,303,2
300,314,294,303,2
300,323,299,304,2
301,328,304,306,2
302,332,310,309,2
304,334,314,311,2
305,335,315,311,2
306,332,316,311,2
307,326,315,312,2
308,318,313,312,2
308,310,311,311,2
307,303,309,310,2
307,301,307,307,2
305,303,305,305,2
304,309,303,303,2
303,316,302,301,2
303,319,301,300,2
304,320,301,300,2
306,318,302,302,2
308,314,305,305,2
310,312,309,308,2
312,309,313,312,2
315,308,316,316,2
317,308,318,320,2
319,306,319,322,2
321,300,320,323,2
320,290,319,323,2
318,278,317,322,2
317,267,313,319,2
315,258,310,314,2
312,254,308,308,2
310,257,307,303,2
307,268,305,300,2
305,285,303,297,2
304,305,301,296,2
302,322,299,296,2
301,334,298,295,2
299,340,298,295,2
298,344,297,296,2
298,346,298,297,2
298,346,300,299,2
300,346,303,301,2
301,344,306,304,2
303,341,308,306,2
304,338,309,308,2
305,335,310,309,2
306,328,310,310,2
306,317,309,310,2
306,302,309,309,2
306,284,308,308,2
307,266,307,308,2
307,252,307,307,2
307,245,305,306,2
306,250,303,304,2
304,265,300,301,2
302,286,298,298,2
301,307,296,297,2
301,322,295,296,2
302,331,296,297,2
304,334,297,299,2
305,332,299,301,2
306,329,300,303,2
306,325,301,305,2
305,324,303,307,2
304,326,303,309,2
304,327,303,311,2
304,325,303,312,2
304,318,304,314,2
306,309,304,314,2
307,299,304,313,2
307,290,304,313,2
306,284,302,311,2
306,279,301,308,2
305,277,299,306,2
305,276,299,305,2
306,276,298,304,2
306,275,298,303,2
307,276,298,302,2
307,280,298,301,2
306,288,299,301,2
306,298,302,302,2
306,306,306,304,2
306,309,310,306,2
306,309,313,307,2
307,307,315,309,2
308,306,315,312,2
310,313,313,313,2
310,327,311,313,2
310,341,308,313,2
308,352,305,311,2
306,357,302,309,2
304,355,300,307,2
303,348,298,305,2
303,340,297,303,2
303,332,297,302,2
303,326,296,302,2
302,321,296,302,2
302,318,296,302,2
302,316,297,302,2
303,313,297,303,2
304,313,299,303,2
305,312,300,303,2
307,310,301,304,2
309,306,303,305,2
311,299,304,306,2
312,290,305,307,2
314,279,305,308,2
315,270,306,308,2
317,264,306,309,2
317,264,306,308,2
315,271,306,306,2
311,284,304,303,2
306,298,302,299,2
302,310,301,297,2
299,318,301,295,2
298,324,302,295,2
298,325,302,296,2
300,323,304,299,2
301,319,305,302,2
302,313,304,307,2
303,306,304,311,2
305,300,303,314,2
306,294,304,315,2
307,290,305,314,2
309,288,306,312,2
310,289,306,310,2
310,292,304,308,2
310,295,303,306,2
310,296,301,305,2
309,298,300,304,2
308,300,299,303,2
308,301,300,303,2
308,301,300,304,2
308,298,301,304,2
308,294,301,304,2
309,289,301,304,2
308,284,302,303,2
308,281,302,303,2
308,281,303,305,2
309,288,305,307,2
309,298,306,310,2
308,310,307,313,2
307,321,308,316,2
306,328,309,318,2
306,331,310,318,2
307,330,310,318,2
308,326,310,315,2
310,321,310,313,2
311,315,310,311,2
311,309,309,307,2
311,304,308,304,2
310,304,306,301,2
309,308,304,298,2
308,314,301,297,2
307,319,299,296,2
306,323,297,296,2
304,323,295,296,2
304,320,295,297,2
304,313,296,298,2
305,302,298,301,2
306,290,301,303,2
308,282,303,306,2
310,278,305,308,2
311,277,306,310,2
312,278,307,311,2
313,282,308,313,2
315,286,308,314,2
315,289,308,314,2
314,292,307,313,2
312,296,304,311,2
309,304,302,307,2
306,314,300,303,2
303,324,298,298,2
301,330,297,294,2
300,335,296,291,2
300,338,296,289,2
300,340,295,288,2
300,341,296,289,2
300,340,296,292,2
300,339,296,294,2
300,338,297,298,2
302,336,298,301,2
304,333,300,304,2
306,327,301,306,2
308,319,303,308,2
309,310,306,308,2
310,304,309,309,2
311,299,311,309,2
311,295,311,308,2
310,292,310,306,2
309,288,306,305,2
308,284,302,304,2
307,280,299,302,2
307,279,297,301,2
308,282,296,301,2
308,287,297,301,2
308,290,298,302,2
307,292,298,301,2
306,293,299,302,2
305,295,299,303,2
305,299,300,304,2
306,305,301,306,2
307,310,303,308,2
309,312,307,311,2
310,306,310,315,2
313,296,313,318,2
315,284,315,321,2
316,271,315,322,2
317,263,315,322,2
316,264,313,319,2
314,271,311,315,2
312,282,309,311,2
309,294,307,307,2
307,308,305,305,2
306,319,304,305,2
305,326,302,305,2
303,329,301,305,2
301,327,299,304,2
300,325,297,304,2
300,321,296,303,2
301,318,297,304,2
302,316,301,305,2
305,317,306,308,2
308,321,310,310,2
311,326,314,311,2
313,327,317,312,2
314,324,318,312,2
314,317,317,312,2
314,307,317,312,2
313,300,315,311,2
311,296,314,309,2
309,296,314,307,2
309,297,312,305,2
308,302,311,303,2
306,306,309,301,2
305,309,307,300,2
304,311,306,301,2
304,311,304,303,2
304,311,303,304,2
304,310,303,306,2
304,309,303,308,2
304,308,305,310,2
305,307,308,311,2
306,308,311,313,2
307,310,314,313,2
309,311,316,313,2
309,312,317,312,2
310,311,318,312,2
310,309,317,312,2
310,307,316,311,2
309,303,314,309,2
309,296,311,308,2
308,285,308,306,2
307,268,306,306,2
307,250,304,306,2
308,233,304,306,2
308,221,305,306,2
309,219,306,306,2
310,232,306,305,2
310,258,307,304,2
308,288,307,303,2
307,315,308,303,2
307,334,310,304,2
307,344,312,306,2
307,349,313,308,2
308,348,314,309,2
308,344,314,309,2
309,341,314,309,2
308,338,315,307,2
307,335,315,305,2
305,332,313,302,2
305,330,312,299,2
304,326,309,297,2
303,323,307,295,2
303,321,306,293,2
303,320,304,293,2
303,318,304,293,2
304,315,305,294,2
305,311,306,296,2
305,306,308,300,2
306,300,310,304,2
306,294,312,308,2
307,288,314,311,2
309,283,315,314,2
310,278,315,315,2
312,273,315,315,2
313,271,314,315,2
313,271,314,314,2
314,273,314,313,2
315,278,315,311,2
316,284,318,309,2
315,288,319,307,2
313,292,319,306,2
310,296,316,305,2
307,303,311,303,2
304,311,306,300,2
301,318,302,298,2
298,323,298,297,2
297,331,297,296,2
296,340,297,295,2
297,346,299,296,2
299,349,301,298,2
301,347,304,300,2
303,344,307,302,2
305,339,311,303,2
307,333,313,304,2
308,326,314,304,2
309,321,314,303,2
309,319,313,302,2
309,319,312,300,2
308,319,311,298,2
307,316,310,297,2
306,310,308,297,2
306,304,306,297,2
305,299,305,297,2
305,295,304,298,2
304,291,304,300,2
304,287,304,303,2
304,282,305,305,2
304,277,307,308,2
306,276,308,310,2
307,281,310,311,2
308,288,310,310,2
307,298,308,309,2
305,309,306,306,2
304,319,304,304,2
303,326,303,302,2
303,331,303,300,2
303,333,305,299,2
303,331,308,297,2
303,328,311,297,2
303,320,312,296,2
302,309,313,296,2
303,296,312,296,2
303,281,312,298,2
304,268,311,300,2
305,257,310,303,2
305,252,309,305,2
304,253,308,306,2
303,263,308,306,2
302,278,308,306,2
302,294,308,305,2
302,306,309,305,2
303,316,309,305,2
304,322,310,305,2
305,326,309,305,2
305,330,308,304,2
305,332,307,304,2
305,331,307,304,2
305,326,307,304,2
304,318,307,305,2
304,307,306,306,2
304,297,305,305,2
303,288,304,305,2
302,282,302,304,2
301,281,300,304,2
300,285,300,303,2
299,289,300,303,2
299,294,301,303,2
300,297,303,304,2
301,300,305,305,2
303,306,308,306,2
304,313,311,307,2
305,316,314,309,2
307,313,316,310,2
309,303,317,310,2
312,289,319,311,2
314,275,319,311,2
315,264,319,310,2
315,260,318,309,2
313,264,316,307,2
311,272,314,306,2
309,282,313,306,2
306,292,311,306,2
304,302,310,305,2
302,310,309,304,2
301,319,307,303,2
300,326,306,302,2
301,331,305,302,2
302,333,305,302,2
304,333,307,303,2
306,334,309,304,2
309,338,311,306,2
312,341,313,307,2
314,344,315,308,2
315,345,316,308,2
314,343,317,308,2
313,339,316,309,2
312,335,315,308,2
310,330,313,307,2
309,324,311,305,2
309,319,308,303,2
307,313,305,300,2
306,306,303,297,2
305,300,301,296,2
305,295,301,295,2
306,289,301,296,2
307,285,301,299,2
309,283,301,303,2
311,285,302,306,2
313,291,302,310,2
314,300,303,312,2
315,309,306,314,2
315,318,309,315,2
315,325,312,315,2
314,328,314,315,2
314,329,315,314,2
313,325,315,314,2
311,318,314,313,2
309,307,312,311,2
308,298,310,309,2
307,291,308,307,2
306,290,306,305,2
306,292,304,302,2
305,296,302,300,2
304,298,300,298,2
302,298,299,298,2
302,297,298,297,2
302,296,298,298,2
303,295,299,299,2
305,294,303,301,2
307,293,308,304,2
309,292,314,307,2
310,292,319,311,2
312,292,322,314,2
312,291,323,315,2
313,291,321,316,2
315,289,319,317,2
315,286,317,316,2
315,279,315,315,2
313,269,313,314,2
313,259,311,312,2
311,257,310,310,2
310,265,309,308,2
308,280,307,307,2
305,297,306,306,2
304,313,304,305,2
303,329,303,305,2
303,340,303,305,2
303,346,302,305,2
302,347,301,305,2
302,345,301,306,2
302,340,300,308,2
302,335,301,309,2
303,328,303,310,2
305,319,305,312,2
308,309,307,313,2
311,296,309,314,2
313,283,309,315,2
314,272,309,315,2
314,266,308,314,2
314,267,306,312,2
312,274,304,309,2
310,283,303,306,2
308,289,302,303,2
305,289,302,302,2
304,285,303,302,2
303,281,305,304,2
304,277,307,307,2
304,278,309,310,2
304,284,311,313,2
305,292,312,315,2
305,299,313,317,2
306,306,314,319,2
307,312,313,319,2
308,317,313,318,2
309,321,313,317,2
310,325,311,315,2
310,331,310,312,2
310,340,307,309,2
309,347,304,304,2
307,351,301,302,2
306,355,299,299,2
306,357,297,297,2
305,356,296,297,2
305,351,297,297,2
306,345,299,299,2
306,336,302,301,2
307,327,306,304,2
308,318,310,306,2
310,308,313,308,2
312,298,315,310,2
313,288,316,312,2
314,281,316,313,2
314,278,315,315,2
314,278,314,316,2
313,280,312,316,2
312,285,310,316,2
310,293,309,314,2
309,304,308,312,2
308,315,306,310,2
307,324,306,308,2
306,330,305,306,2
306,333,304,305,2
305,334,305,304,2
305,333,303,304,2
305,330,301,304,2
305,327,300,305,2
307,325,299,306,2
308,321,300,308,2
310,317,301,310,2
310,313,302,311,2
311,309,304,313,2
311,305,306,314,2
312,302,307,315,2
312,299,310,314,2
313,296,312,314,2
313,295,313,314,2
313,293,314,313,2
312,293,313,312,2
311,294,310,310,2
309,299,306,308,2
306,305,302,305,2
303,311,299,301,2
302,315,297,299,2
301,316,296,298,2
301,313,295,298,2
302,307,297,299,2
304,299,298,303,2
306,291,300,307,2
309,283,302,311,2
311,276,304,315,2
312,273,307,318,2
313,276,309,321,2
312,286,311,321,2
311,297,312,321,2
310,306,311,319,2
308,313,309,316,2
306,317,307,314,2
303,317,306,311,2
300,315,305,308,2
299,311,305,305,2
298,308,305,302,2
299,306,305,301,2
301,305,305,300,2
302,304,306,299,2
302,305,306,298,2
303,309,306,299,2
303,314,306,299,2
303,316,306,301,2
303,316,307,303,2
303,314,308,306,2
304,309,308,310,2
307,302,310,313,2
309,293,311,314,2
311,282,312,314,2
313,269,313,315,2
316,255,313,316,2
318,243,313,317,2
318,236,312,318,2
317,235,310,316,2
314,239,306,312,2
311,250,302,307,2
307,264,300,303,2
305,279,300,301,2
303,292,300,300,2
301,302,302,300,2
301,312,304,299,2
301,320,305,299,2
301,325,305,300,2
302,328,305,303,2
304,333,305,306,2
305,338,306,310,2
306,341,307,313,2
308,340,308,314,2
309,338,310,315,2
311,340,311,315,2
311,343,311,313,2
311,347,310,311,2
309,351,308,308,2
307,351,306,305,2
306,349,304,303,2
305,341,301,301,2
304,329,299,300,2
303,315,299,300,2
302,302,299,302,2
303,291,300,304,2
304,283,301,307,2
305,280,303,309,2
305,284,304,311,2
305,295,305,312,2
304,307,306,312,2
303,317,307,312,2
303,326,307,311,2
302,334,306,310,2
302,341,306,308,2
302,343,307,307,2
302,341,309,306,2
302,337,311,306,2
303,332,313,306,2
304,327,313,306,2
305,322,311,304,2
305,316,309,302,2
305,309,306,301,2
305,302,305,300,2
305,296,304,299,2
305,290,304,299,2
305,287,305,301,2
306,288,306,305,2
307,291,307,309,2
308,297,307,315,2
309,300,308,320,2
311,302,309,323,2
312,303,310,325,2
313,304,311,324,2
314,304,311,321,2
314,302,310,318,2
314,299,309,314,2
314,298,308,311,2
313,298,306,307,2
312,298,304,304,2
310,298,302,301,2
308,298,301,298,2
305,296,299,298,2
304,294,298,298,2
303,292,298,298,2
302,291,299,299,2
302,291,300,300,2
303,292,303,301,2
304,292,306,302,2
306,294,309,304,2
308,297,312,306,2
309,301,314,307,2
309,306,316,309,2
310,309,316,310,2
309,312,317,310,2
309,313,316,310,2
309,313,315,308,2
308,308,314,307,2
307,298,313,306,2
306,286,311,305,2
306,276,310,304,2
307,270,308,304,2
308,267,307,302,2
309,268,306,301,2
309,272,305,300,2
308,279,305,298,2
307,291,305,298,2
308,306,306,299,2
308,320,307,302,2
309,332,307,305,2
309,339,308,308,2
309,342,309,312,2
310,340,309,315,2
310,335,310,318,2
310,330,311,320,2
310,323,313,320,2
310,316,315,320,2
310,307,316,319,2
310,297,317,317,2
311,288,317,315,2
311,278,316,314,2
311,268,315,313,2
311,262,313,313,2
311,263,311,314,2
310,274,309,314,2
308,294,307,313,2
305,315,305,311,2
303,333,304,310,2
301,345,304,310,2
302,352,305,311,2
303,354,306,313,2
304,348,308,314,2
306,338,308,316,2
306,328,309,317,2
307,319,310,318,2
307,313,310,318,2
307,310,310,319,2
307,310,309,319,2
306,314,307,316,2
306,320,306,313,2
306,324,304,309,2
305,328,303,305,2
305,330,302,302,2
304,330,301,300,2
302,325,300,299,2
302,317,300,299,2
304,307,302,299,2
308,297,304,301,2
311,287,306,303,2
313,279,308,306,2
313,276,309,309,2
312,278,309,311,2
311,284,308,313,2
311,289,308,314,2
310,292,307,314,2
310,294,306,314,2
309,296,307,313,2
309,299,306,312,2
308,304,305,311,2
307,310,303,309,2
304,317,299,308,2
302,322,297,307,2
301,324,296,306,2
300,324,295,305,2
299,323,296,304,2
299,323,297,303,2
300,325,299,303,2
300,327,301,304,2
300,329,301,305,2
300,331,301,306,2
301,332,302,308,2
302,331,302,310,2
302,327,303,312,2
303,321,303,313,2
303,317,303,312,2
303,312,303,312,2
303,308,302,310,2
303,303,302,308,2
303,298,301,306,2
302,292,300,304,2
302,283,299,304,2
303,273,297,303,2
304,268,295,304,2
304,271,292,303,2
303,280,290,303,2
302,290,290,303,2
301,295,291,303,2
301,295,295,304,2
300,294,299,306,2
300,293,304,308,2
300,296,307,309,2
301,304,309,310,2
302,316,309,311,2
303,327,307,312,2
302,335,304,312,2
301,341,302,311,2
300,343,301,309,2
299,341,300,307,2
299,335,299,306,2
301,326,299,304,2
302,315,299,304,2
303,301,300,304,2
304,288,302,304,2
304,279,305,304,2
305,274,307,304,2
305,273,310,304,2
305,276,311,304,2
305,282,311,304,2
306,290,312,305,2
306,299,312,306,2
307,308,314,308,2
308,317,314,310,2
308,324,315,312,2
307,328,315,313,2
306,329,315,313,2
305,328,314,313,2
305,324,313,311,2
304,316,312,310,2
304,306,309,308,2
303,298,307,305,2
303,294,304,303,2
303,295,303,301,2
303,300,301,300,2
303,308,299,300,2
303,319,297,300,2
302,327,296,300,2
301,331,297,301,2
302,327,298,303,2
303,317,301,306,2
305,301,303,309,2
307,283,306,312,2
309,270,308,316,2
311,265,309,317,2
312,270,309,318,2
312,285,308,317,2
311,305,306,315,2
310,326,305,313,2
310,341,304,310,2
308,347,303,307,2
306,345,301,304,2
305,336,300,303,2
303,323,299,302,2
303,312,298,302,2
303,306,298,302,2
302,303,298,301,2
302,304,299,301,2
302,309,299,300,2
302,318,299,300,2
302,329,299,301,2
302,337,300,303,2
303,342,302,305,2
304,344,303,307,2
305,341,304,309,2
305,336,306,311,2
305,329,307,312,2
305,323,308,311,2
305,317,309,309,2
305,312,309,308,2
305,309,309,305,2
304,307,308,303,2
303,306,306,301,2
302,304,303,299,2
302,303,301,299,2
303,303,300,300,2
303,305,300,300,2
304,308,300,301,2
305,310,300,302,2
307,313,301,304,2
309,315,303,306,2
310,317,305,308,2
311,318,307,311,2
312,318,309,313,2
312,317,309,315,2
312,313,309,316,2
312,310,310,317,2
312,306,310,317,2
312,301,310,316,2
311,297,310,315,2
311,295,308,314,2
310,293,307,312,2
309,292,305,309,2
307,293,305,307,2
306,294,304,306,2
306,294,303,305,2
305,295,302,306,2
305,298,301,307,2
306,304,301,308,2
305,310,302,309,2
305,313,303,309,2
306,313,305,310,2
308,312,307,312,2
309,308,310,313,2
310,306,312,315,2
311,303,314,317,2
313,299,315,319,2
314,294,316,320,2
315,287,316,321,2
315,277,316,320,2
314,269,315,317,2
313,264,315,314,2
312,264,314,311,2
310,272,312,307,2
308,290,308,304,2
306,312,305,302,2
304,334,303,300,2
302,353,301,298,2
302,363,302,296,2
302,366,305,296,2
303,362,307,297,2
304,355,309,300,2
306,349,312,303,2
308,342,313,307,2
310,334,315,311,2
312,323,316,313,2
312,310,316,315,2
312,298,315,316,2
312,288,314,316,2
312,281,313,313,2
310,280,310,310,2
309,285,308,306,2
307,293,305,303,2
306,301,304,301,2
306,304,304,302,2
306,302,304,303,2
308,296,304,305,2
310,288,304,307,2
312,282,304,308,2
314,279,304,308,2
314,277,305,309,2
314,279,307,310,2
314,286,312,311,2
313,298,316,311,2
312,310,319,311,2
312,320,320,311,2
311,328,320,310,2
312,331,319,310,2
312,331,316,309,2
313,328,314,309,2
312,323,312,307,2
311,317,310,306,2
310,312,308,304,2
309,307,307,303,2
309,301,307,302,2
311,294,307,302,2
313,289,307,304,2
314,284,307,305,2
314,279,306,308,2
315,275,305,310,2
314,275,305,311,2
314,279,305,312,2
315,287,306,314,2
315,297,307,314,2
314,305,306,314,2
314,309,305,313,2
313,310,303,311,2
312,311,302,309,2
312,314,301,307,2
311,320,301,306,2
309,325,300,305,2
308,328,300,304,2
307,327,302,303,2
308,324,304,303,2
308,321,307,303,2
308,318,309,303,2
308,316,310,303,2
306,314,310,303,2
305,312,309,305,2
304,310,307,308,2
305,307,306,311,2
306,303,305,313,2
306,301,306,314,2
305,301,306,314,2
306,301,307,314,2
306,299,307,314,2
307,293,307,314,2
308,285,307,315,2
309,278,308,315,2
310,272,307,315,2
310,269,306,314,2
310,272,304,312,2
310,279,302,309,2
308,289,300,306,2
306,300,297,302,2
305,310,295,299,2
304,319,294,296,2
303,329,294,294,2
302,337,293,294,2
300,343,291,294,2
299,345,290,295,2
299,345,290,298,2
300,344,292,300,2
301,342,296,303,2
304,339,302,305,2
307,335,306,307,2
309,330,310,308,2
311,321,312,309,2
311,312,313,310,2
311,305,313,310,2
310,300,312,310,2
309,298,311,308,2
307,298,310,307,2
306,298,309,307,2
306,300,308,307,2
305,304,307,306,2
305,307,306,306,2
304,310,306,306,2
303,311,305,306,2
302,312,305,307,2
302,313,305,308,2
303,313,305,310,2
304,313,306,312,2
306,311,308,314,2
308,306,309,315,2
308,297,312,316,2
309,287,315,316,2
309,278,319,316,2
309,270,321,316,2
310,267,322,314,2
309,270,320,312,2
308,278,316,309,2
307,290,311,306,2
304,302,306,304,2
302,313,301,302,2
301,318,297,300,2
301,319,297,300,2
303,313,299,301,2
305,300,303,302,2
308,285,306,304,2
310,274,308,307,2
311,270,310,309,2
311,271,312,310,2
310,279,312,310,2
309,292,312,309,2
309,308,311,308,2
308,321,310,308,2
307,327,310,308,2
307,326,310,308,2
306,322,309,307,2
306,319,308,307,2
305,312,307,306,2
304,299,306,304,2
303,284,304,301,2
302,273,304,300,2
302,272,304,299,2
301,279,304,299,2
301,292,305,299,2
301,305,306,301,2
301,312,308,303,2
302,315,309,306,2
303,314,310,308,2
305,311,311,311,2
306,308,311,313,2
306,307,311,313,2
306,311,310,313,2
306,318,308,313,2
305,323,308,312,2
304,328,308,311,2
304,331,308,310,2
305,334,309,309,2
305,336,309,308,2
305,336,308,308,2
305,335,308,306,2
305,332,307,305,2
306,326,307,305,2
306,320,307,304,2
306,313,306,303,2
306,308,306,303,2
307,306,306,304,2
308,307,306,305,2
309,310,307,307,2
309,312,309,309,2
310,315,311,311,2
311,317,312,311,2
310,317,313,312,2
311,317,313,312,2
311,317,313,312,2
311,316,313,311,2
311,315,311,310,2
309,315,310,308,2
308,314,307,305,2
306,313,305,302,2
304,313,304,301,2
302,312,302,301,2
302,312,300,301,2
302,312,298,301,2
303,312,297,301,2
304,311,297,302,2
305,310,297,303,2
306,309,298,305,2
308,307,300,308,2
308,306,302,311,2
308,305,306,314,2
308,304,311,316,2
308,303,315,317,2
308,302,318,317,2
308,301,319,316,2
308,299,319,316,2
308,296,316,315,2
308,293,313,314,2
308,291,309,311,2
308,288,306,308,2
307,281,303,304,2
308,272,301,301,2
308,261,300,299,2
309,251,300,299,2
309,242,301,300,2
309,236,304,303,2
311,233,306,306,2
312,237,308,310,2
312,249,308,314,2
312,267,307,317,2
312,285,306,319,2
311,301,307,320,2
310,313,307,321,2
310,321,308,320,2
309,325,308,320,2
308,328,308,318,2
306,329,307,317,2
305,329,307,316,2
303,329,306,315,2
301,331,305,313,2
299,331,305,311,2
299,328,305,310,2
299,322,305,310,2
300,312,306,311,2
302,298,307,312,2
304,281,309,313,2
306,267,310,314,2
308,258,312,314,2
310,258,313,315,2
312,267,314,315,2
313,285,314,313,2
313,307,313,311,2
313,329,311,310,2
314,344,310,308,2
313,353,309,307,2
313,357,307,305,2
313,359,305,303,2
312,360,303,300,2
310,357,300,298,2
310,351,299,296,2
310,343,298,297,2
310,336,297,297,2
310,329,297,298,2
310,322,296,300,2
309,316,296,301,2
309,311,296,303,2
309,308,297,304,2
310,307,300,306,2
311,303,303,308,2
311,296,305,311,2
312,287,307,314,2
312,276,309,317,2
311,268,310,320,2
310,265,311,321,2
310,268,312,322,2
311,276,313,321,2
310,286,313,318,2
309,296,312,315,2
305,305,309,310,2
302,310,306,305,2
300,313,303,301,2
299,314,302,299,2
299,314,300,297,2
299,315,299,296,2
301,315,298,296,2
301,318,297,298,2
302,320,297,300,2
303,322,297,304,2
305,320,298,307,2
307,315,300,312,2
308,310,300,317,2
309,306,301,320,2
309,303,302,322,2
309,303,304,323,2
310,304,306,322,2
309,307,310,320,2
309,310,312,317,2
309,314,313,313,2
308,317,313,309,2
307,322,310,305,2
305,327,307,302,2
303,330,303,299,2
300,329,300,297,2
298,325,297,296,2
296,319,295,296,2
296,313,295,299,2
297,305,297,302,2
298,298,300,305,2
301,291,303,309,2
303,287,307,312,2
305,284,309,313,2
306,283,311,315,2
306,286,312,315,2
306,291,311,315,2
306,297,310,314,2
306,302,308,313,2
304,307,305,310,2
304,312,303,307,2
303,316,302,304,2
302,319,301,301,2
302,320,300,300,2
301,321,298,301,2
300,319,297,302,2
300,314,297,304,2
300,308,298,307,2
300,301,299,311,2
301,296,302,314,2
302,294,305,317,2
304,294,308,320,2
305,297,310,321,2
307,301,311,322,2
307,306,312,322,2
308,309,313,321,2
308,311,313,321,2
308,312,312,319,2
306,312,310,317,2
304,313,309,314,2
302,312,308,313,2
301,308,307,313,2
301,301,306,314,2
302,291,305,315,2
302,280,305,316,2
302,270,304,316,2
301,264,302,315,2
301,265,300,313,2
300,274,298,309,2
300,286,298,306,2
300,298,298,304,2
300,308,299,302,2
302,315,300,302,2
303,318,303,303,2
304,319,306,304,2
304,318,309,307,2
305,314,312,310,2
306,307,314,313,2
307,299,314,315,2
308,293,313,316,2
308,288,312,316,2
307,287,309,315,2
305,290,307,312,2
303,297,304,310,2
302,308,302,308,2
300,318,301,307,2
298,326,300,307,2
297,331,300,307,2
297,332,300,307,2
297,335,300,308,2
299,338,302,310,2
301,336,304,312,2
303,329,307,315,2
304,317,309,317,2
306,300,310,319,2
308,282,311,320,2
310,266,311,321,2
312,254,310,322,2
312,251,307,321,2
311,260,305,318,2
308,281,302,315,2
306,308,300,312,2
303,331,302,309,2
302,344,304,307,2
301,348,306,305,2
299,346,307,304,2
298,342,306,303,2
298,338,305,302,2
299,333,305,302,2
300,327,305,304,2
302,320,306,307,2
304,314,306,310,2
305,309,307,312,2
304,304,307,312,2
303,300,308,313,2
303,297,308,312,2
303,295,308,311,2
304,293,308,310,2
305,288,306,308,2
306,280,306,307,2
307,272,304,305,2
307,267,302,303,2
306,267,300,302,2
305,277,297,300,2
303,297,296,298,2
301,316,294,296,2
299,330,293,295,2
298,337,294,294,2
300,340,296,293,2
302,338,298,293,2
304,335,300,295,2
305,331,302,299,2
305,327,303,302,2
305,325,304,306,2
305,325,305,309,2
306,325,306,311,2
306,323,307,313,2
307,319,307,315,2
307,313,306,316,2
307,309,305,316,2
306,304,303,315,2
305,303,301,313,2
303,308,299,310,2
303,314,298,307,2
303,319,296,303,2
303,321,296,301,2
305,319,296,300,2
306,311,296,301,2
307,300,298,302,2
309,290,299,305,2
312,282,301,308,2
314,278,303,310,2
315,278,304,313,2
316,285,306,313,2
314,295,306,314,2
313,304,306,313,2
310,310,306,313,2
308,314,306,312,2
307,315,305,311,2
306,314,305,311,2
305,313,304,310,2
304,312,303,309,2
303,311,301,308,2
302,309,299,307,2
303,307,297,305,2
304,305,296,303,2
304,303,295,300,2
304,303,294,298,2
305,304,295,297,2
306,306,297,298,2
307,309,300,299,2
307,313,304,302,2
307,316,308,304,2
306,315,311,308,2
305,310,312,311,2
305,301,312,313,2
306,290,311,314,2
307,279,310,314,2
308,270,310,314,2
309,269,310,314,2
308,278,309,312,2
306,292,307,310,2
303,308,304,306,2
300,320,302,302,2
299,329,301,299,2
298,333,300,297,2
299,334,300,297,2
299,333,301,297,2
301,332,302,299,2
302,329,303,303,2
303,325,304,307,2
304,319,306,311,2
305,312,308,314,2
306,305,309,317,2
306,301,309,319,2
306,303,309,319,2
306,309,308,318,2
305,316,308,315,2
305,319,307,313,2
305,316,306,310,2
305,311,305,308,2
304,304,303,306,2
303,294,301,304,2
302,284,300,303,2
301,275,299,302,2
301,271,298,302,2
301,272,299,302,2
302,275,299,302,2
303,279,300,304,2
303,284,300,304,2
302,293,301,305,2
302,304,303,305,2
302,317,304,307,2
303,328,307,308,2
304,336,309,310,2
306,342,311,313,2
307,343,311,314,2
308,341,312,314,2
308,336,310,314,2
309,330,310,312,2
309,323,308,311,2
308,320,305,308,2
308,320,303,305,2
306,322,299,303,2
303,324,296,300,2
302,324,294,300,2
301,321,293,300,2
301,316,293,302,2
302,309,294,305,2
303,303,297,308,2
304,296,301,311,2
305,292,305,314,2
305,293,310,315,2
306,300,316,316,2
307,307,320,317,2
307,313,320,318,2
307,314,319,319,2
308,312,317,320,2
309,308,314,320,2
309,304,311,320,2
308,301,307,319,2
307,300,304,316,2
306,298,303,314,2
305,294,301,313,2
304,290,301,313,2
304,285,301,312,2
303,283,300,311,2
301,284,299,310,2
301,291,299,309,2
302,303,299,309,2
302,315,300,309,2
303,325,301,310,2
304,331,303,311,2
305,333,304,313,2
306,334,304,314,2
308,335,305,314,2
309,334,305,314,2
309,332,305,314,2
308,327,305,314,2
308,321,305,314,2
308,314,304,313,2
307,308,304,312,2
306,306,303,310,2
305,305,302,308,2
304,304,301,306,2
302,301,300,306,2
300,300,300,305,2
298,299,300,306,2
296,298,301,306,2
295,297,302,307,2
294,296,305,309,2
294,296,308,311,2
296,297,311,314,2
298,299,313,317,2
300,301,315,319,2
301,305,316,321,2
303,307,316,322,2
305,305,316,322,2
307,301,315,321,2
308,295,314,319,2
308,288,311,317,2
308,282,308,314,2
307,278,304,311,2
306,275,302,307,2
305,271,300,304,2
306,263,299,303,2
306,254,299,302,2
308,245,301,302,2
308,246,304,304,2
309,256,307,305,2
309,273,311,307,2
309,294,313,310,2
309,318,313,311,2
307,341,312,312,2
305,359,310,312,2
304,369,309,312,2
304,375,308,311,2
304,374,307,311,2
304,369,307,310,2
304,360,306,308,2
304,349,305,306,2
303,335,303,304,2
303,320,302,303,2
303,306,301,302,2
304,297,301,302,2
304,292,301,302,2
303,292,300,302,2
302,295,300,301,2
301,301,301,301,2
301,308,302,302,2
302,316,303,304,2
304,322,304,305,2
305,327,306,306,2
306,331,307,307,2
307,334,309,306,2
307,334,310,306,2
307,331,310,306,2
306,326,310,307,2
305,317,310,307,2
304,307,309,307,2
304,297,308,306,2
303,292,307,304,2
302,291,305,300,2
301,292,304,296,2
301,294,303,293,2
301,295,303,292,2
301,293,303,292,2
301,290,304,294,2
302,288,304,296,2
303,288,304,299,2
303,292,304,302,2
303,297,304,303,2
304,301,305,305,2
304,304,307,308,2
304,304,309,310,2
304,302,311,312,2
304,299,311,312,2
304,296,310,311,2
305,293,309,309,2
305,293,309,308,2
305,295,310,305,2
304,298,311,304,2
304,301,312,302,2
303,303,314,300,2
302,303,314,299,2
301,308,313,298,2
300,317,311,300,2
300,327,310,302,2
301,335,310,305,2
303,337,311,308,2
304,336,311,309,2
304,334,312,310,2
305,330,312,309,2
304,325,313,308,2
305,319,313,307,2
307,312,314,307,2
308,305,314,307,2
310,297,315,308,2
311,291,314,309,2
311,286,313,308,2
311,283,311,308,2
310,282,308,306,2
309,282,306,303,2
308,283,304,300,2
307,286,302,298,2
305,292,300,297,2
303,300,299,296,2
302,309,299,297,2
300,318,300,298,2
299,327,301,300,2
299,335,303,303,2
300,337,306,306,2
302,335,309,308,2
303,328,311,311,2
305,317,312,313,2
308,304,314,316,2
310,294,315,318,2
310,291,316,318,2
309,297,315,316,2
306,306,314,313,2
303,312,312,311,2
300,314,309,309,2
298,315,306,306,2
295,316,303,304,2
293,320,301,302,2
293,321,300,299,2
292,318,300,298,2
292,310,301,298,2
293,300,303,299,2
295,292,304,301,2
297,286,306,304,2
300,285,308,307,2
303,287,309,310,2
305,291,309,312,2
305,296,308,313,2
304,299,308,314,2
304,301,308,313,2
304,302,308,311,2
304,303,306,309,2
304,307,305,305,2
304,314,303,302,2
303,321,300,300,2
302,326,298,298,2
302,328,298,297,2
301,328,300,297,2
300,326,303,297,2
301,324,306,298,2
301,323,308,300,2
302,324,310,301,2
303,324,311,302,2
304,323,311,303,2
305,320,313,306,2
306,317,315,308,2
307,313,317,310,2
306,307,318,313,2
306,299,317,314,2
306,291,317,314,2
305,283,316,314,2
305,276,316,313,2
306,273,315,312,2
305,275,313,309,2
305,285,311,307,2
304,297,308,305,2
302,308,305,304,2
300,314,302,303,2
297,317,301,302,2
295,316,301,302,2
295,315,302,303,2
295,316,303,305,2
296,319,305,306,2
297,320,307,307,2
298,320,310,309,2
300,320,313,312,2
301,319,315,314,2
303,318,317,317,2
304,318,318,319,2
304,319,318,320,2
304,321,317,320,2
303,323,315,320,2
301,324,313,319,2
300,320,310,318,2
298,314,308,317,2
296,303,306,315,2
295,291,304,314,2
295,280,303,313,2
295,268,303,312,2
295,258,303,312,2
296,253,304,312,2
296,255,305,312,2
296,262,305,312,2
297,271,306,313,2
297,280,307,315,2
297,287,308,316,2
295,292,308,316,2
294,299,308,316,2
293,306,308,315,2
292,313,308,314,2
292,318,308,313,2
291,323,308,312,2
291,327,307,310,2
289,331,306,307,2
288,332,304,304,2
288,331,303,302,2
289,328,302,299,2
289,324,301,298,2
288,321,300,297,2
287,316,300,297,2
286,311,300,298,2
286,310,300,299,2
285,312,300,301,2
286,315,300,303,2
286,317,301,305,2
287,319,302,308,2
288,320,302,309,2
289,320,304,311,2
290,319,307,313,2
291,317,311,314,2
293,314,314,316,2
293,310,316,317,2
293,309,316,316,2
293,308,314,316,2
292,307,312,314,2
292,304,308,312,2
291,298,305,309,2
290,290,302,306,2
288,283,299,304,2
287,279,298,303,2
287,281,299,304,2
287,284,300,306,2
288,288,300,309,2
289,293,301,311,2
289,298,303,311,2
290,302,305,311,2
291,303,306,311,2
292,302,307,310,2
292,304,308,310,2
292,308,307,309,2
291,312,304,307,2
289,313,302,305,2
288,309,299,302,2
286,304,297,300,2
285,300,297,299,2
285,299,297,298,2
285,303,298,298,2
285,311,300,299,2
284,322,303,300,2
284,331,305,300,2
285,336,307,302,2
286,338,308,303,2
287,336,308,304,2
288,333,308,306,2
289,327,308,308,2
290,320,308,310,2
292,311,310,312,2
294,301,312,314,2
296,290,314,315,2
298,280,314,316,2
298,276,313,316,2
297,280,310,314,2
294,287,306,311,2
291,295,302,308,2
289,302,298,306,2
288,309,295,306,2
288,317,295,307,2
288,325,295,310,2
289,330,298,311,2
290,330,302,313,2
291,325,307,313,2
291,320,311,313,2
290,317,313,313,2
290,314,314,314,2
290,309,313,316,2
291,303,312,318,2
293,297,310,319,2
294,294,309,319,2
296,294,309,319,2
297,296,309,317,2
297,299,309,314,2
297,304,308,311,2
296,309,307,308,2
294,311,306,305,2
293,310,304,303,2
293,307,303,302,2
293,303,302,301,2
294,300,303,301,2
294,300,304,300,2
294,301,304,300,2
295,300,305,300,2
294,296,306,301,2
294,287,308,302,2
294,280,309,304,2
296,276,310,306,2
297,279,312,308,2
298,286,312,310,2
298,295,313,311,2
298,306,312,312,2
298,317,313,311,2
297,328,312,310,2
296,334,312,309,2
295,336,312,308,2
295,334,312,306,2
294,330,312,305,2
293,325,311,305,2
293,319,311,304,2
292,312,310,305,2
292,305,309,305,2
291,295,310,307,2
292,286,309,308,2
291,276,309,310,2
291,270,309,310,2
291,271,309,311,2
291,278,309,312,2
293,288,310,312,2
294,297,311,313,2
296,303,312,313,2
298,307,312,313,2
298,309,312,312,2
298,310,312,311,2
297,313,312,308,2
295,317,310,305,2
293,321,307,301,2
292,322,305,298,2
291,320,302,295,2
290,316,299,294,2
290,312,296,293,2
290,308,294,293,2
290,307,293,293,2
291,307,294,295,2
293,309,296,297,2
294,313,300,300,2
296,319,304,304,2
298,326,308,308,2
300,332,311,312,2
302,335,312,315,2
303,334,313,317,2
304,328,313,318,2
304,320,312,317,2
303,315,311,315,2
301,314,310,310,2
298,316,309,305,2
295,318,307,301,2
291,319,307,297,2
289,316,307,295,2
289,312,308,293,2
289,307,309,292,2
290,300,309,293,2
292,292,309,295,2
294,282,309,298,2
295,272,309,302,2
297,264,308,305,2
299,257,309,310,2
301,251,310,315,2
302,243,311,320,2
304,237,313,324,2
304,238,314,327,2
303,251,312,328,2
302,272,310,327,2
301,294,308,324,2
301,315,306,319,2
300,334,304,314,2
298,350,302,308,2
297,362,301,303,2
296,368,299,299,2
296,370,299,296,2
296,368,300,295,2
297,364,301,295,2
297,358,302,296,2
297,351,303,298,2
297,344,304,300,2
298,336,306,302,2
300,327,307,304,2
303,316,309,307,2
306,305,311,310,2
307,295,312,312,2
308,289,312,314,2
308,291,310,314,2
307,298,309,314,2
306,307,307,313,2
305,315,306,312,2
304,321,305,310,2
303,323,304,308,2
302,324,303,306,2
301,324,303,305,2
301,323,302,303,2
301,322,302,302,2
300,320,301,300,2
299,320,300,299,2
298,319,298,299,2
297,318,299,299,2
297,315,301,301,2
298,313,303,304,2
300,311,306,307,2
303,306,309,310,2
305,298,311,313,2
308,286,314,316,2
311,272,314,319,2
313,259,314,320,2
314,248,314,321,2
314,242,313,321,2
312,246,310,319,2
309,259,307,316,2
306,280,304,312,2
302,298,302,308,2
298,313,300,304,2
296,321,300,300,2
294,325,300,297,2
294,325,300,296,2
295,325,301,296,2
297,325,303,297,2
299,323,304,299,2
301,319,306,301,2
303,317,308,303,2
304,318,309,304,2
306,320,310,306,2
306,323,310,307,2
306,324,310,308,2
306,322,308,307,2
305,318,307,307,2
305,314,304,306,2
305,311,303,305,2
304,309,302,304,2
303,308,303,303,2
302,307,305,302,2
302,306,308,301,2
302,304,309,301,2
302,301,310,300,2
302,296,309,301,2
303,291,306,302,2
303,287,305,303,2
303,285,305,305,2
302,286,307,307,2
302,290,309,309,2
301,295,310,311,2
300,303,312,312,2
300,313,313,313,2
300,324,313,314,2
300,333,313,314,2
300,337,312,315,2
300,340,311,315,2
300,340,310,314,2
300,337,309,313,2
300,334,308,312,2
300,331,308,309,2
300,325,306,308,2
300,319,306,306,2
300,310,306,307,2
301,299,305,308,2
302,287,305,308,2
302,276,305,309,2
303,269,305,310,2
303,266,306,311,2
304,268,308,313,2
304,274,309,314,2
305,283,310,316,2
305,291,311,317,2
307,299,311,318,2
308,311,311,317,2
307,324,311,316,2
307,333,310,313,2
305,339,308,311,2
304,342,307,309,2
302,344,305,307,2
300,344,303,305,2
297,341,301,302,2
297,335,299,300,2
297,329,299,299,2
298,321,299,298,2
300,311,300,299,2
302,299,302,301,2
305,286,303,304,2
308,274,305,307,2
310,266,306,311,2
311,263,308,314,2
311,268,309,317,2
310,278,311,318,2
309,292,311,318,2
307,307,311,318,2
305,321,311,316,2
304,330,311,314,2
304,334,310,312,2
303,331,308,310,2
302,322,306,308,2
300,313,303,306,2
299,304,301,306,2
299,299,300,306,2
299,294,300,306,2
300,290,302,307,2
301,290,305,308,2
300,294,308,310,2
300,300,311,311,2
299,306,312,312,2
298,311,313,312,2
299,316,313,313,2
300,320,313,312,2
303,324,314,312,2
304,329,314,311,2
304,333,314,310,2
303,333,313,309,2
301,332,310,308,2
300,329,308,307,2
299,323,305,305,2
299,315,303,304,2
298,306,300,302,2
298,299,297,301,2
298,291,296,299,2
297,284,296,298,2
297,278,296,298,2
297,275,299,299,2
299,273,302,303,2
302,274,306,306,2
304,276,310,310,2
305,279,313,313,2
306,286,314,316,2
306,298,316,316,2
306,309,315,316,2
306,319,314,314,2
305,325,312,313,2
305,327,311,312,2
305,328,309,311,2
305,326,308,310,2
305,323,307,309,2
305,319,306,308,2
304,313,305,307,2
303,308,303,307,2
302,305,302,307,2
301,304,301,305,2
299,301,300,303,2
298,295,299,302,2
297,287,300,302,2
298,276,302,302,2
299,267,304,304,2
301,262,307,305,2
303,261,310,308,2
305,262,312,311,2
306,266,314,314,2
307,273,315,315,2
308,281,316,316,2
308,288,315,316,2
306,297,314,315,2
305,310,311,314,2
303,323,308,312,2
301,332,305,309,2
298,336,303,305,2
296,336,301,301,2
293,336,299,298,2
292,339,298,296,2
292,341,297,294,2
293,342,299,295,2
294,342,303,296,2
295,341,307,299,2
297,339,311,302,2
299,337,314,307,2
301,335,315,312,2
303,334,314,316,2
304,334,312,319,2
306,333,311,321,2
307,331,309,322,2
309,328,307,322,2
310,324,305,320,2
309,320,304,318,2
309,313,303,315,2
308,305,303,312,2
307,297,302,309,2
306,291,302,307,2
305,287,302,306,2
305,285,301,306,2
303,286,300,306,2
302,287,299,306,2
301,286,298,306,2
300,283,299,307,2
301,280,301,309,2
301,279,305,311,2
303,282,309,314,2
306,285,312,317,2
309,288,314,320,2
310,289,315,320,2
310,292,314,319,2
309,297,312,316,2
307,302,309,314,2
307,305,307,312,2
307,305,306,310,2
308,303,304,308,2
308,300,303,306,2
306,298,301,304,2
305,296,300,303,2
304,293,298,303,2
304,291,298,303,2
304,290,298,304,2
305,292,300,305,2
306,296,301,307,2
307,300,303,310,2
307,302,305,313,2
309,302,308,315,2
310,301,310,317,2
310,298,313,318,2
310,295,314,318,2
311,295,316,318,2
311,298,316,316,2
312,300,316,314,2
312,304,315,311,2
311,308,313,308,2
310,313,310,306,2
309,318,307,303,2
309,321,306,303,2
309,325,304,303,2
309,328,304,302,2
308,328,304,302,2
307,326,303,302,2
305,321,304,303,2
306,316,306,305,2
307,309,309,308,2
308,301,314,309,2
309,291,318,311,2
310,282,320,313,2
311,276,321,313,2
312,271,320,313,2
313,266,317,313,2
315,264,315,313,2
315,267,312,312,2
314,277,309,309,2
312,289,306,305,2
311,297,303,302,2
309,303,301,299,2
308,306,300,298,2
307,306,299,297,2
306,305,299,297,2
305,304,299,297,2
306,308,299,297,2
307,318,300,298,2
308,330,302,298,2
309,341,303,299,2
309,348,304,301,2
309,350,306,303,2
310,350,307,304,2
311,348,308,306,2
312,344,308,307,2
312,339,306,308,2
311,334,305,307,2
310,325,303,306,2
308,316,303,305,2
307,307,303,304,2
306,299,303,302,2
307,293,303,301,2
307,291,302,300,2
307,291,302,299,2
307,293,301,299,2
306,296,301,300,2
305,301,302,300,2
304,308,302,302,2
304,316,304,304,2
305,323,306,306,2
306,329,308,310,2
308,333,309,313,2
308,333,309,315,2
308,331,309,315,2
308,329,308,313,2
308,325,307,311,2
308,320,306,309,2
309,314,305,307,2
309,307,305,305,2
309,299,304,304,2
308,292,301,302,2
307,286,299,300,2
306,281,298,299,2
305,281,297,299,2
305,285,297,299,2
305,295,297,300,2
304,305,297,300,2
304,310,297,302,2
304,310,299,303,2
305,306,301,305,2
306,300,303,307,2
307,293,304,310,2
308,291,306,312,2
307,293,307,312,2
306,301,308,312,2
305,311,309,311,2
305,319,309,309,2
305,323,309,307,2
305,323,309,306,2
305,318,309,304,2
305,311,308,303,2
304,304,306,302,2
303,296,302,302,2
302,287,299,303,2
302,277,297,305,2
301,268,296,305,2
301,258,296,306,2
301,251,298,307,2
301,248,301,308,2
301,253,305,309,2
301,265,309,311,2
302,282,312,313,2
303,300,314,316,2
305,316,314,318,2
306,327,314,319,2
306,332,314,319,2
307,332,313,317,2
306,328,311,315,2
304,321,310,314,2
304,316,309,312,2
303,312,308,311,2
304,313,307,310,2
304,315,306,308,2
305,316,306,307,2
304,314,306,306,2
303,312,305,306,2
302,310,305,307,2
302,308,305,307,2
301,307,305,309,2
300,308,306,311,2
300,312,307,312,2
300,315,309,313,2
302,316,311,315,2
303,316,312,315,2
304,315,312,315,2
305,316,312,315,2
306,316,311,314,2
307,310,310,313,2
308,300,308,312,2
308,287,307,310,2
309,274,306,308,2
309,264,304,306,2
308,260,303,303,2
306,265,301,301,2
304,279,300,299,2
303,295,300,297,2
302,308,299,297,2
301,317,300,297,2
301,322,302,299,2
302,323,304,302,2
304,321,307,306,2
307,319,309,310,2
310,320,310,315,2
312,324,311,318,2
313,331,310,319,2
312,336,309,319,2
309,337,308,317,2
307,335,306,314,2
305,330,305,311,2
304,325,303,308,2
304,319,302,305,2
304,315,301,304,2
304,314,300,303,2
303,316,301,302,2
303,318,300,300,2
303,319,300,299,2
303,318,301,299,2
304,315,303,299,2
304,310,305,300,2
304,307,308,302,2
304,304,310,304,2
304,303,312,306,2
305,303,313,308,2
305,307,314,310,2
306,313,312,311,2
307,320,311,312,2
307,324,311,312,2
308,325,310,312,2
309,325,310,311,2
308,324,308,310,2
306,321,307,307,2
304,315,306,304,2
303,307,305,302,2
303,298,304,302,2
304,285,303,302,2
305,273,302,303,2
306,263,301,304,2
307,258,301,306,2
307,260,303,307,2
308,267,306,307,2
308,280,309,306,2
307,296,312,306,2
307,312,314,306,2
307,326,315,306,2
306,334,315,305,2
305,337,313,305,2
305,336,311,305,2
304,333,310,305,2
302,328,308,306,2
302,321,307,305,2
301,309,306,304,2
301,297,304,304,2
302,284,304,303,2
303,274,304,304,2
305,269,304,305,2
306,267,306,305,2
307,265,308,306,2
307,266,309,306,2
307,268,311,305,2
308,269,312,306,2
309,272,313,306,2
310,278,313,307,2
310,288,312,308,2
309,304,312,307,2
307,323,312,306,2
306,340,311,305,2
304,352,310,304,2
303,357,309,302,2
301,355,308,300,2
300,350,307,298,2
299,345,307,296,2
299,340,307,295,2
299,336,306,295,2
300,333,306,296,2
300,329,306,297,2
300,326,304,298,2
299,323,303,299,2
299,322,302,302,2
299,319,302,304,2
300,317,303,306,2
302,315,305,309,2
303,314,306,312,2
304,314,308,314,2
304,313,309,313,2
303,310,309,312,2
302,305,308,311,2
301,297,307,309,2
299,288,306,306,2
299,279,305,305,2
299,272,304,303,2
300,265,304,302,2
301,259,304,302,2
303,255,305,302,2
305,255,306,302,2
305,259,309,303,2
306,264,311,304,2
306,271,312,304,2
305,282,312,305,2
304,294,312,306,2
303,305,311,307,2
303,314,311,307,2
303,320,310,308,2
303,322,311,309,2
304,320,311,310,2
305,319,311,311,2
306,323,311,312,2
306,326,310,312,2
306,323,309,312,2
305,313,308,311,2
305,301,306,310,2
304,290,305,307,2
304,284,303,304,2
303,287,302,300,2
302,298,300,298,2
301,313,298,295,2
299,327,298,293,2
298,339,297,293,2
298,348,297,293,2
297,352,298,294,2
298,352,299,297,2
299,350,301,300,2
301,347,303,302,2
302,344,304,304,2
303,342,305,305,2
303,340,305,306,2
303,338,303,307,2
303,335,303,307,2
303,332,301,307,2
304,328,301,306,2
305,322,300,306,2
306,312,299,305,2
306,301,299,305,2
306,293,299,305,2
307,289,300,306,2
307,291,300,306,2
305,297,301,307,2
305,304,301,307,2
305,312,302,307,2
305,316,304,308,2
305,318,305,309,2
306,318,306,311,2
307,313,307,313,2
308,304,307,315,2
310,289,308,316,2
312,270,309,318,2
314,249,311,319,2
315,230,311,318,2
315,219,309,317,2
313,219,307,315,2
310,232,303,312,2
306,255,299,309,2
303,284,296,305,2
300,312,293,303,2
298,337,291,300,2
298,355,290,300,2
298,367,292,300,2
299,371,296,302,2
301,368,301,304,2
303,360,307,308,2
306,347,311,312,2
309,333,313,315,2
311,320,313,318,2
312,311,311,319,2
312,307,310,320,2
313,306,310,319,2
312,307,310,318,2
311,306,311,317,2
310,306,311,315,2
309,309,310,313,2
307,312,309,310,2
305,317,307,307,2
305,322,306,305,2
304,328,305,302,2
305,333,305,301,2
306,335,305,301,2
306,335,304,301,2
307,332,304,302,2
308,325,304,303,2
308,315,305,305,2
309,306,306,307,2
311,298,308,309,2
312,296,311,311,2
314,298,312,312,2
315,304,313,313,2
315,310,313,313,2
315,313,313,312,2
315,312,313,311,2
315,307,312,310,2
314,300,311,309,2
313,293,311,307,2
312,291,309,305,2
311,295,308,303,2
309,301,307,302,2
308,305,306,302,2
308,308,305,302,2
308,306,304,303,2
308,300,303,304,2
308,294,302,306,2
309,289,302,307,2
309,286,303,309,2
310,288,305,310,2
311,292,307,310,2
312,295,309,310,2
312,295,310,309,2
312,294,311,310,2
311,296,311,310,2
310,300,310,309,2
308,305,308,308,2
306,310,305,306,2
305,315,304,304,2
304,319,302,302,2
303,322,301,300,2
302,325,301,299,2
302,326,301,299,2
303,325,302,298,2
303,323,302,298,2
303,323,303,298,2
303,323,303,299,2
303,324,303,301,2
303,325,304,303,2
304,325,305,306,2
306,324,306,310,2
309,320,307,313,2
311,313,308,316,2
313,301,310,318,2
314,290,312,319,2
315,280,314,319,2
315,271,315,318,2
315,263,316,316,2
314,257,315,313,2
313,257,313,310,2
312,262,310,308,2
311,269,307,307,2
310,277,304,306,2
309,284,303,306,2
308,291,303,305,2
308,303,303,304,2
307,318,303,302,2
306,331,304,302,2
307,340,305,302,2
307,343,306,303,2
309,346,306,304,2
310,346,307,305,2
311,345,308,305,2
312,342,309,306,2
313,336,310,306,2
313,328,310,306,2
313,320,311,306,2
313,313,310,306,2
312,307,310,304,2
311,303,309,303,2
311,301,307,302,2
310,301,305,302,2
309,302,304,301,2
308,305,303,301,2
308,310,302,302,2
308,313,302,303,2
308,314,303,303,2
308,314,305,304,2
309,314,306,306,2
309,315,308,307,2
309,317,309,308,2
309,318,311,308,2
309,317,313,309,2
309,316,314,310,2
310,315,315,310,2
311,314,315,310,2
311,312,315,308,2
311,310,314,306,2
310,308,312,304,2
308,305,310,301,2
306,301,307,298,2
305,296,305,296,2
303,292,305,296,2
302,290,304,297,2
301,290,305,299,2
301,292,307,302,2
301,293,308,305,2
302,290,309,309,2
305,285,311,312,2
307,280,314,316,2
310,276,316,319,2
312,274,318,320,2
314,272,319,321,2
314,271,319,321,2
314,274,318,320,2
314,281,315,318,2
311,288,312,316,2
310,295,310,313,2
309,299,309,310,2
307,302,309,306,2
305,305,311,303,2
303,313,313,301,2
301,321,314,299,2
300,330,315,298,2
300,336,315,298,2
301,339,313,299,2
302,339,310,300,2
304,338,308,302,2
306,335,308,306,2
308,329,310,309,2
310,321,312,313,2
311,313,313,316,2
311,306,314,318,2
311,304,314,319,2
311,305,314,320,2
310,306,313,319,2
310,307,313,318,2
310,307,313,317,2
309,306,312,316,2
308,306,310,314,2
308,305,308,312,2
307,305,306,310,2
306,308,305,309,2
306,313,304,308,2
306,319,303,307,2
305,323,303,307,2
304,322,303,307,2
304,315,303,308,2
305,304,304,311,2
307,296,306,313,2
308,293,308,314,2
311,293,311,316,2
313,295,313,317,2
314,295,315,318,2
315,294,315,319,2
316,293,315,320,2
315,292,314,319,2
315,290,312,318,2
313,290,308,315,2
310,295,304,311,2
308,304,301,308,2
306,316,300,305,2
307,328,301,303,2
308,336,301,302,2
308,340,302,301,2
309,340,304,303,2
310,337,306,305,2
311,334,308,308,2
312,331,310,312,2
313,328,311,316,2
313,326,313,318,2
314,325,313,318,2
315,321,314,317,2
315,317,314,316,2
316,312,315,314,2
316,305,316,312,2
316,302,316,311,2
315,300,315,308,2
314,297,313,306,2
312,295,310,304,2
310,295,307,301,2
307,299,304,299,2
306,305,301,298,2
305,311,300,298,2
305,317,301,300,2
307,321,301,301,2
308,322,302,303,2
307,320,303,305,2
307,314,303,308,2
308,308,304,311,2
308,303,305,313,2
308,300,309,313,2
308,301,313,312,2
310,305,317,310,2
311,308,319,308,2
312,307,319,306,2
313,303,317,304,2
313,298,315,302,2
312,292,312,301,2
311,289,309,299,2
310,291,307,298,2
308,297,305,297,2
307,306,304,296,2
305,316,304,296,2
304,322,305,296,2
304,324,306,297,2
304,323,307,298,2
305,319,309,301,2
306,315,311,304,2
308,312,311,308,2
310,307,311,312,2
311,303,312,314,2
312,299,311,315,2
312,295,311,315,2
311,293,311,313,2
311,290,310,312,2
311,286,310,311,2
312,282,310,309,2
312,280,309,306,2
312,283,307,304,2
312,289,306,301,2
312,295,305,300,2
311,303,304,299,2
309,312,304,297,2
308,321,304,297,2
306,328,304,297,2
305,331,304,298,2
306,332,304,300,2
306,331,306,303,2
308,329,309,305,2
310,327,311,307,2
311,325,314,309,2
312,325,314,310,2
312,328,314,310,2
313,331,313,309,2
313,332,311,308,2
313,330,308,306,2
312,325,305,303,2
312,317,302,301,2
311,310,301,300,2
310,305,300,299,2
309,303,300,299,2
308,303,301,299,2
307,303,302,300,2
306,303,304,301,2
305,302,305,303,2
306,299,307,304,2
307,297,310,305,2
310,295,314,307,2
312,292,316,308,2
313,285,319,309,2
314,279,320,309,2
315,280,319,310,2
315,288,319,309,2
314,301,318,308,2
313,313,316,306,2
310,320,313,303,2
308,324,310,301,2
306,324,306,297,2
305,323,303,295,2
304,321,300,293,2
303,319,299,293,2
304,318,299,293,2
304,315,300,294,2
304,310,301,297,2
304,304,303,300,2
303,298,305,304,2
303,296,306,307,2
302,297,307,311,2
301,303,308,313,2
301,311,309,315,2
301,318,310,315,2
302,322,310,315,2
304,325,310,313,2
305,327,310,312,2
307,328,310,310,2
309,329,309,308,2
310,327,307,305,2
310,323,304,303,2
308,318,301,299,2
306,312,298,297,2
303,306,298,294,2
302,300,301,294,2
302,295,304,294,2
303,292,308,296,2
305,293,310,298,2
306,298,311,300,2
307,305,311,301,2
308,312,311,302,2
309,319,310,304,2
309,325,311,305,2
310,328,311,306,2
311,329,312,308,2
312,328,313,309,2
312,327,314,311,2
311,326,313,311,2
310,324,312,310,2
308,322,309,309,2
306,320,308,308,2
304,317,305,307,2
302,314,304,306,2
301,309,303,307,2
301,303,303,307,2
302,298,304,307,2
303,294,306,308,2
305,289,307,308,2
307,286,309,309,2
309,288,311,311,2
312,293,312,314,2
313,300,314,316,2
314,306,315,319,2
314,310,315,320,2
313,308,315,320,2
312,305,314,319,2
312,304,313,317,2
311,304,312,315,2
309,302,310,314,2
308,296,309,312,2
308,289,307,310,2
307,283,306,308,2
306,282,305,306,2
306,284,305,305,2
304,286,305,305,2
304,288,306,307,2
303,290,307,309,2
302,290,308,310,2
302,292,308,312,2
302,295,309,314,2
301,298,309,314,2
301,303,308,313,2
302,310,308,312,2
303,319,307,310,2
304,326,307,310,2
305,330,308,310,2
305,331,309,308,2
305,330,310,307,2
305,329,309,306,2
304,325,307,303,2
303,321,305,301,2
302,317,303,298,2
301,313,301,296,2
300,309,300,295,2
301,307,301,295,2
302,306,303,296,2
305,305,305,300,2
307,304,307,303,2
308,303,310,307,2
308,303,311,310,2
308,306,313,312,2
307,310,314,313,2
308,312,315,314,2
308,310,316,314,2
309,305,317,316,2
310,298,316,318,2
310,290,315,318,2
310,282,313,318,2
311,279,311,316,2
310,282,310,312,2
309,289,310,308,2
306,299,309,304,2
304,306,310,301,2
303,311,310,300,2
303,315,310,299,2
303,319,309,300,2
304,324,308,301,2
304,330,307,303,2
305,333,307,304,2
306,332,308,305,2
307,329,309,307,2
309,324,312,310,2
310,318,314,312,2
312,313,317,314,2
314,310,319,314,2
314,307,321,315,2
314,303,322,315,2
314,298,321,314,2
313,290,319,314,2
312,283,316,313,2
311,277,314,312,2
310,276,312,312,2
309,280,310,310,2
308,289,308,308,2
306,305,305,306,2
304,321,303,304,2
303,334,301,303,2
304,342,301,302,2
304,345,302,303,2
305,345,303,304,2
305,340,305,305,2
306,332,308,306,2
307,323,309,308,2
307,315,312,310,2
307,308,314,313,2
307,303,315,314,2
308,299,317,315,2
310,296,317,317,2
312,295,317,317,2
313,294,317,316,2
313,293,315,314,2
312,294,313,311,2
310,294,311,309,2
309,292,309,308,2
308,288,308,307,2
307,286,306,307,2
307,286,305,307,2
307,288,304,307,2
307,290,304,307,2
306,293,304,307,2
306,297,306,307,2
306,303,308,308,2
306,310,310,310,2
305,317,312,312,2
304,322,313,313,2
302,325,313,314,2
301,327,311,314,2
300,329,309,313,2
300,331,308,311,2
300,330,305,310,2
300,327,303,309,2
301,320,302,307,2
301,313,301,306,2
301,305,302,306,2
303,297,305,306,2
304,290,308,307,2
305,284,310,309,2
306,280,311,310,2
307,276,311,313,2
308,275,311,314,2
309,279,311,315,2
311,287,311,316,2
312,295,311,316,2
311,302,311,317,2
310,310,310,317,2
308,319,309,316,2
306,326,307,313,2
305,330,307,311,2
303,332,306,309,2
302,335,306,307,2
301,339,305,305,2
301,341,304,303,2
300,338,303,302,2
300,332,302,302,2
300,323,302,302,2
301,312,304,302,2
302,299,305,303,2
304,288,307,305,2
304,279,308,307,2
306,272,310,309,2
308,270,310,312,2
309,273,311,314,2
309,284,311,316,2
309,301,311,317,2
307,316,310,317,2
305,324,310,316,2
304,327,311,315,2
303,326,311,315,2
304,321,311,315,2
305,315,310,315,2
306,311,308,315,2
305,310,307,313,2
304,310,305,311,2
304,311,304,310,2
304,313,304,310,2
304,317,304,309,2
304,323,303,308,2
303,327,304,308,2
303,328,305,309,2
304,328,307,310,2
305,327,309,312,2
307,325,310,315,2
308,322,311,317,2
311,319,312,319,2
312,317,312,320,2
313,318,313,319,2
313,321,313,316,2
312,322,312,314,2
311,318,311,311,2
310,309,308,308,2
309,296,306,306,2
308,281,304,305,2
308,268,303,305,2
308,261,302,306,2
306,268,300,306,2
305,284,299,305,2
303,302,298,305,2
302,317,298,305,2
301,328,298,305,2
302,335,299,306,2
303,339,300,307,2
306,338,302,308,2
308,333,303,310,2
310,325,304,311,2
311,316,304,312,2
312,309,304,312,2
312,306,304,312,2
312,308,305,311,2
311,311,307,309,2
309,313,309,308,2
307,314,311,306,2
306,317,310,304,2
305,318,309,303,2
305,317,307,303,2
305,315,304,302,2
305,312,301,301,2
305,310,300,302,2
306,309,299,302,2
306,306,301,302,2
308,304,302,304,2
309,302,303,307,2
310,299,304,309,2
310,295,305,311,2
311,293,306,314,2
311,293,309,316,2
311,297,311,317,2
311,302,312,318,2
312,308,312,318,2
313,313,311,316,2
312,316,309,313,2
310,315,307,308,2
308,311,305,304,2
307,306,304,302,2
307,302,304,301,2
307,297,304,301,2
308,293,305,302,2
309,292,306,302,2
310,295,307,302,2
310,301,307,302,2
310,309,308,302,2
310,317,309,303,2
310,323,310,304,2
310,328,310,305,2
309,330,310,305,2
309,330,311,305,2
309,327,311,305,2
309,322,312,306,2
309,314,312,305,2
309,301,311,305,2
310,283,310,304,2
310,265,309,304,2
311,250,308,303,2
312,242,306,303,2
311,243,306,302,2
310,254,305,301,2
307,271,304,299,2
305,290,303,298,2
303,305,301,296,2
301,313,299,296,2
301,314,298,297,2
302,314,297,299,2
303,314,295,301,2
304,316,295,302,2
304,321,295,304,2
304,328,298,305,2
304,334,302,305,2
303,340,307,306,2
303,344,312,306,2
303,344,315,307,2
304,344,316,306,2
304,344,314,305,2
305,341,312,303,2
305,334,309,303,2
305,323,307,302,2
304,308,306,303,2
304,294,305,304,2
304,284,305,305,2
304,279,306,306,2
305,281,306,307,2
305,285,307,306,2
306,293,308,307,2
308,303,309,308,2
308,313,311,309,2
309,320,312,309,2
309,325,312,309,2
309,328,312,307,2
309,330,311,304,2
308,330,309,301,2
307,328,305,298,2
305,325,302,295,2
303,323,299,293,2
302,320,298,293,2
302,318,298,293,2
302,316,298,293,2
303,313,298,294,2
305,310,299,296,2
306,306,299,297,2
309,302,300,299,2
311,298,301,302,2
312,291,303,305,2
314,283,304,308,2
316,276,306,312,2
317,272,307,315,2
318,272,308,317,2
318,274,308,318,2
318,279,308,317,2
317,286,307,315,2
315,294,306,313,2
313,301,304,310,2
310,306,302,306,2
307,311,299,303,2
305,315,297,300,2
303,319,296,298,2
303,322,295,298,2
302,325,296,298,2
302,328,297,300,2
301,330,297,302,2
300,328,298,303,2
300,327,298,304,2
299,326,300,304,2
301,324,302,305,2
303,319,304,308,2
305,311,306,311,2
308,302,308,313,2
311,294,309,315,2
312,288,309,317,2
312,283,309,317,2
311,281,306,315,2
311,280,303,313,2
311,278,300,311,2
311,276,297,309,2
311,274,294,306,2
312,274,292,305,2
311,276,292,304,2
309,279,295,302,2
308,282,300,302,2
308,285,305,302,2
308,288,310,303,2
308,295,312,305,2
308,304,312,307,2
307,315,311,310,2
307,326,310,312,2
308,336,310,313,2
308,343,310,314,2
308,348,311,313,2
309,349,312,313,2
310,346,312,311,2
310,340,312,310,2
311,331,311,308,2
310,322,309,306,2
309,313,307,304,2
309,304,305,304,2
309,295,304,304,2
309,287,304,304,2
309,282,305,306,2
310,280,306,306,2
310,279,307,307,2
309,280,307,307,2
309,284,306,306,2
308,288,305,306,2
308,292,305,306,2
309,296,306,306,2
308,300,307,305,2
309,305,308,306,2
309,313,310,307,2
310,320,311,307,2
309,325,311,307,2
309,329,310,307,2
308,330,308,306,2
307,330,306,304,2
306,328,303,302,2
305,326,300,301,2
304,323,299,300,2
304,318,299,299,2
305,312,299,299,2
307,305,300,299,2
309,298,301,300,2
311,294,302,302,2
311,297,301,304,2
311,304,300,304,2
310,309,300,305,2
310,313,302,306,2
311,315,303,307,2
312,319,304,308,2
313,323,305,309,2
313,325,306,309,2
313,326,306,310,2
313,326,306,310,2
313,324,306,309,2
312,321,307,308,2
312,318,307,307,2
312,314,308,304,2
311,307,309,303,2
310,299,308,302,2
309,289,307,301,2
309,276,306,301,2
308,265,305,302,2
308,257,305,303,2
309,254,305,305,2
311,258,305,307,2
312,267,306,310,2
314,279,307,312,2
314,291,307,314,2
313,301,308,315,2
312,308,309,315,2
310,313,309,314,2
309,318,310,313,2
308,318,311,312,2
307,313,311,312,2
307,304,311,312,2
306,292,310,311,2
306,280,307,310,2
305,270,305,309,2
305,268,303,307,2
304,272,301,304,2
301,285,299,301,2
299,301,296,300,2
298,318,295,299,2
299,330,294,300,2
302,336,295,302,2
304,337,297,304,2
306,336,300,306,2
306,335,304,307,2
306,333,307,308,2
307,331,310,308,2
307,329,311,308,2
307,328,312,308,2
308,327,311,308,2
308,327,310,307,2
308,326,309,306,2
309,323,309,305,2
308,318,310,304,2
308,312,310,304,2
307,305,309,303,2
307,299,308,302,2
307,295,307,302,2
307,292,307,302,2
309,291,307,303,2
309,290,307,304,2
311,287,308,306,2
312,282,309,308,2
313,275,310,310,2
315,269,311,313,2
317,266,311,314,2
318,268,312,315,2
318,280,311,315,2
318,301,310,312,2
315,322,308,309,2
313,339,305,306,2
311,346,303,302,2
309,345,302,299,2
308,337,301,297,2
306,326,301,296,2
304,313,301,295,2
303,299,301,295,2
302,288,300,295,2
303,281,300,296,2
304,278,299,298,2
305,283,299,300,2
307,293,300,302,2
308,305,302,305,2
310,317,304,306,2
311,326,306,308,2
311,334,307,308,2
311,340,309,308,2
311,342,311,308,2
312,340,312,308,2
312,336,313,308,2
312,331,313,308,2
311,326,311,307,2
310,320,309,305,2
309,315,306,305,2
307,312,303,303,2
305,310,301,303,2
304,309,299,302,2
304,310,297,301,2
303,310,297,300,2
303,308,298,300,2
303,304,301,301,2
303,299,304,302,2
306,296,308,305,2
309,295,311,309,2
311,295,312,312,2
314,296,313,314,2
315,297,313,316,2
316,298,313,316,2
316,298,312,316,2
316,299,312,315,2
315,301,312,314,2
313,304,310,313,2
310,309,309,310,2
307,313,307,308,2
305,316,306,307,2
304,318,305,306,2
304,319,304,306,2
303,319,303,306,2
304,319,302,307,2
304,320,302,307,2
304,321,302,308,2
305,319,302,309,2
307,317,303,311,2
308,313,305,312,2
309,308,308,314,2
311,302,312,316,2
312,299,316,317,2
313,298,320,317,2
313,300,321,316,2
312,302,319,314,2
311,303,316,312,2
310,303,312,309,2
310,301,309,306,2
309,298,307,304,2
308,296,306,303,2
308,295,307,302,2
308,296,307,302,2
309,297,308,302,2
310,299,309,304,2
311,300,309,305,2
312,301,309,305,2
312,303,309,306,2
313,307,310,307,2
315,312,312,309,2
316,319,313,311,2
317,324,314,312,2
317,324,314,313,2
316,319,314,313,2
315,314,313,313,2
315,313,312,311,2
314,314,311,309,2
313,314,309,306,2
311,311,307,302,2
309,307,305,298,2
308,303,304,295,2
307,301,303,293,2
306,300,302,293,2
305,301,300,294,2
304,306,299,295,2
303,314,298,297,2
304,321,299,299,2
305,327,300,302,2
306,329,303,304,2
307,329,306,307,2
308,326,307,308,2
309,319,309,310,2
310,310,310,311,2
310,298,311,312,2
312,284,313,312,2
314,270,315,312,2
316,261,315,312,2
317,255,314,312,2
317,254,314,310,2
316,257,313,308,2
314,268,312,306,2
312,283,310,304,2
309,300,307,304,2
307,315,304,303,2
305,325,303,304,2
305,329,302,305,2
305,330,303,307,2
306,328,305,309,2
307,327,308,311,2
309,327,311,313,2
310,326,313,315,2
311,326,315,316,2
312,324,315,316,2
312,323,314,315,2
312,321,313,314,2
312,318,312,312,2
311,314,311,310,2
309,312,309,308,2
308,311,307,305,2
306,309,305,304,2
305,308,304,303,2
304,307,303,302,2
305,304,303,302,2
306,299,304,301,2
307,296,305,302,2
307,295,306,303,2
308,297,308,306,2
310,300,309,309,2
311,305,310,312,2
311,311,311,315,2
310,317,311,317,2
310,320,312,319,2
310,323,313,319,2
310,325,313,319,2
311,328,313,317,2
311,329,313,315,2
312,326,311,311,2
312,320,310,308,2
313,314,308,305,2
313,307,306,303,2
312,299,303,301,2
312,287,300,301,2
311,276,298,301,2
311,270,296,302,2
309,267,295,303,2
308,264,296,305,2
307,261,298,306,2
307,264,301,307,2
308,272,305,308,2
309,283,308,309,2
308,296,310,309,2
307,309,313,308,2
306,321,316,308,2
305,330,319,309,2
306,335,320,310,2
307,337,320,311,2
309,335,318,311,2
310,332,314,310,2
310,328,310,308,2
310,325,305,306,2
309,322,302,303,2
309,321,298,301,2
309,321,296,299,2
309,322,295,299,2
311,324,295,300,2
311,325,297,301,2
312,325,299,303,2
313,323,301,305,2
313,320,304,308,2
315,315,308,312,2
317,309,312,316,2
318,304,314,318,2
318,299,315,319,2
319,296,314,320,2
318,294,313,319,2
317,295,311,318,2
316,299,309,315,2
315,303,307,311,2
313,306,305,308,2
311,310,302,305,2
308,314,300,302,2
306,318,299,299,2
304,319,299,299,2
303,319,300,299,2
302,318,302,301,2
302,317,304,303,2
304,318,306,307,2
305,318,307,311,2
307,318,308,315,2
308,318,309,318,2
310,317,310,319,2
311,316,311,319,2
312,314,312,317,2
313,309,313,316,2
313,303,313,314,2
313,296,313,313,2
312,289,312,312,2
311,284,311,310,2
309,282,309,308,2
307,281,307,305,2
306,282,306,304,2
306,286,305,302,2
305,292,305,301,2
304,298,305,300,2
304,302,306,301,2
305,305,306,303,2
306,305,308,305,2
307,304,309,308,2
308,303,310,310,2
309,305,310,312,2
309,309,308,313,2
309,312,306,313,2
308,314,305,313,2
308,314,305,314,2
308,312,305,314,2
308,310,305,315,2
308,308,304,315,2
308,307,303,313,2
307,310,302,311,2
306,313,300,308,2
305,315,298,306,2
303,314,296,304,2
302,310,295,303,2
302,305,295,303,2
303,301,298,304,2
305,298,302,306,2
307,297,308,308,2
309,297,313,312,2
312,299,317,315,2
313,302,318,317,2
313,304,318,319,2
313,306,317,319,2
313,306,316,319,2
313,304,315,316,2
313,300,314,314,2
312,297,312,312,2
311,298,309,310,2
310,303,306,308,2
308,309,303,307,2
306,312,301,304,2
305,312,299,302,2
304,311,298,301,2
303,310,298,300,2
302,307,298,300,2
302,304,298,299,2
301,302,298,300,2
301,306,299,301,2
302,315,301,303,2
304,327,304,306,2
306,336,307,309,2
308,342,309,312,2
310,343,310,315,2
311,337,311,318,2
312,326,312,321,2
313,311,312,324,2
313,296,312,325,2
314,282,312,324,2
314,275,311,321,2
314,275,308,316,2
313,281,306,310,2
312,289,303,305,2
310,297,301,300,2
308,307,299,298,2
306,317,298,297,2
306,324,297,298,2
306,327,298,300,2
307,326,300,302,2
308,322,302,305,2
309,316,303,307,2
309,313,306,308,2
311,312,308,310,2
312,312,309,311,2
313,310,309,311,2
313,308,309,311,2
313,307,309,310,2
313,310,307,309,2
313,314,306,307,2
312,320,304,305,2
311,325,302,302,2
309,326,299,299,2
306,324,298,297,2
305,319,298,296,2
305,314,297,296,2
305,307,298,296,2
306,301,299,298,2
307,297,301,301,2
309,295,303,305,2
310,296,304,310,2
311,298,305,313,2
311,300,305,316,2
310,302,305,318,2
310,303,305,319,2
310,304,306,318,2
310,305,307,316,2
311,303,307,314,2
311,298,307,312,2
310,292,306,311,2
309,288,305,310,2
307,286,306,308,2
305,291,307,306,2
303,301,309,303,2
301,310,309,300,2
300,314,309,298,2
300,314,308,296,2
300,309,306,296,2
300,304,304,297,2
300,300,301,299,2
302,299,301,302,2
303,300,301,305,2
305,302,303,309,2
307,306,305,312,2
309,309,307,313,2
309,311,309,314,2
310,311,310,314,2
310,311,309,315,2
309,311,308,316,2
307,311,306,316,2
305,310,304,315,2
304,309,302,313,2
302,311,302,311,2
301,317,301,309,2
300,325,301,308,2
299,330,301,306,2
299,330,302,306,2
300,327,303,306,2
301,324,304,305,2
303,319,305,305,2
304,315,306,306,2
306,309,307,307,2
308,301,309,309,2
311,293,311,312,2
313,286,313,314,2
315,281,314,315,2
317,277,314,317,2
318,275,313,317,2
317,276,312,316,2
315,280,310,314,2
312,286,308,311,2
310,292,305,308,2
309,297,303,305,2
308,302,301,302,2
306,305,300,300,2
305,305,299,299,2
304,303,300,298,2
304,302,302,298,2
304,303,303,299,2
304,308,305,300,2
304,314,307,301,2
304,320,307,302,2
304,322,308,304,2
306,320,308,306,2
307,315,307,307,2
307,308,307,309,2
308,301,308,310,2
310,295,309,311,2
312,290,311,311,2
314,290,311,311,2
315,293,308,309,2
313,299,305,307,2
312,303,302,304,2
310,304,299,303,2
309,305,297,302,2
308,306,297,302,2
308,310,297,302,2
308,312,298,302,2
309,313,299,304,2
309,314,299,306,2
310,315,300,308,2
310,318,300,310,2
309,321,301,312,2
309,324,303,314,2
309,327,307,314,2
310,329,312,314,2
311,329,315,314,2
311,327,318,312,2
311,322,317,310,2
311,320,314,306,2
310,318,310,302,2
309,314,306,299,2
309,310,303,296,2
309,305,301,295,2
311,301,300,294,2
312,297,300,294,2
313,295,301,296,2
313,292,302,298,2
313,292,304,300,2
312,293,305,302,2
311,294,305,305,2
311,296,305,307,2
311,297,305,308,2
312,298,305,309,2
312,298,305,310,2
312,295,305,310,2
313,290,305,311,2
313,287,306,311,2
313,287,305,311,2
313,289,305,310,2
312,294,304,309,2
311,300,303,307,2
309,306,301,305,2
307,310,300,302,2
305,309,298,301,2
303,305,297,299,2
302,300,297,299,2
302,294,298,300,2
302,288,299,302,2
303,284,301,304,2
305,281,303,307,2
307,279,305,309,2
307,279,307,312,2
308,283,309,312,2
308,291,309,312,2
307,302,309,309,2
305,312,309,307,2
304,318,308,305,2
305,321,309,305,2
306,320,309,306,2
307,319,309,305,2
306,316,308,304,2
305,314,306,303,2
304,315,304,301,2
302,315,303,298,2
302,315,302,297,2
302,314,303,297,2
303,312,305,298,2
304,309,307,301,2
306,308,309,303,2
308,309,311,306,2
310,311,311,309,2
311,314,311,311,2
312,317,311,312,2
313,319,312,313,2
313,322,312,313,2
313,324,311,314,2
313,325,311,313,2
313,323,309,312,2
312,317,308,310,2
311,308,306,308,2
310,295,304,306,2
310,283,301,305,2
310,274,299,304,2
311,270,297,303,2
311,271,295,302,2
311,277,294,302,2
311,287,295,301,2
310,298,298,301,2
310,307,301,301,2
310,315,304,303,2
310,322,307,305,2
311,330,309,308,2
312,338,310,311,2
312,341,310,312,2
312,339,312,313,2
313,335,313,315,2
313,330,313,314,2
313,327,312,312,2
313,324,310,310,2
312,321,308,306,2
311,317,304,302,2
309,312,302,299,2
307,306,300,296,2
306,301,299,294,2
306,297,298,293,2
306,295,299,293,2
306,295,299,294,2
307,295,301,296,2
308,297,303,299,2
309,299,305,302,2
310,302,307,304,2
311,303,310,307,2
313,302,312,310,2
315,299,313,312,2
316,295,314,313,2
316,291,313,313,2
315,288,312,313,2
314,285,311,313,2
313,282,309,313,2
312,282,306,311,2
311,286,304,308,2
310,289,302,304,2
310,291,300,301,2
310,292,299,298,2
309,294,297,296,2
308,296,296,295,2
306,297,296,295,2
305,296,297,297,2
306,294,300,300,2
308,292,303,305,2
310,293,306,309,2
312,297,308,313,2
313,303,310,314,2
314,308,311,315,2
314,315,312,315,2
313,321,312,314,2
312,325,311,313,2
311,325,310,312,2
310,325,308,310,2
309,324,306,307,2
309,322,303,306,2
309,321,301,304,2
309,319,300,304,2
310,317,300,305,2
310,312,300,308,2
311,304,301,310,2
312,295,302,313,2
312,288,303,314,2
313,288,305,314,2
313,297,306,313,2
314,309,308,312,2
313,322,309,311,2
314,331,311,311,2
315,335,312,312,2
315,335,312,313,2
315,333,311,313,2
314,331,310,311,2
312,329,307,310,2
311,328,305,308,2
310,327,304,307,2
308,326,301,305,2
307,325,299,304,2
306,322,298,304,2
306,317,297,305,2
305,312,298,306,2
305,306,302,308,2
305,301,305,310,2
305,297,309,311,2
306,293,313,313,2
307,288,314,315,2
309,285,315,316,2
311,282,315,318,2
314,284,315,319,2
315,291,315,318,2
315,300,315,317,2
315,307,314,316,2
315,309,313,315,2
314,307,311,313,2
313,304,310,311,2
311,302,308,310,2
309,300,307,307,2
307,301,305,305,2
305,304,302,303,2
303,309,301,300,2
301,315,299,298,2
300,319,299,297,2
300,320,300,297,2
300,318,300,298,2
301,314,301,299,2
303,308,303,301,2
304,301,303,304,2
306,295,304,307,2
306,291,306,311,2
307,291,306,313,2
308,296,306,314,2
307,304,306,314,2
307,312,305,314,2
307,317,304,313,2
305,324,303,311,2
304,330,302,309,2
302,336,301,306,2
301,338,301,304,2
301,337,301,303,2
302,334,301,304,2
303,331,301,304,2
304,327,301,305,2
304,325,300,304,2
304,325,300,304,2
305,327,301,305,2
306,329,303,307,2
308,330,306,308,2
310,328,309,309,2
312,325,312,310,2
312,322,314,311,2
312,317,315,310,2
311,312,315,310,2
310,308,314,310,2
309,306,313,308,2
308,307,310,306,2
307,309,308,304,2
305,311,306,302,2
304,312,304,301,2
303,313,303,299,2
301,313,301,299,2
300,312,299,299,2
300,310,298,300,2
300,307,298,301,2
301,305,298,302,2
302,304,299,304,2
303,306,300,306,2
304,310,302,308,2
305,314,305,309,2
306,317,308,311,2
307,318,311,312,2
308,316,314,313,2
309,310,317,313,2
309,302,317,313,2
309,293,317,312,2
310,282,316,310,2
311,271,313,307,2
312,261,312,305,2
313,258,310,303,2
313,261,308,301,2
312,270,307,299,2
311,281,306,299,2
309,292,306,298,2
307,301,309,298,2
306,308,311,299,2
306,316,313,300,2
306,323,314,302,2
306,329,315,303,2
306,333,313,305,2
306,336,312,305,2
307,335,311,306,2
308,332,311,307,2
309,329,311,306,2
309,325,310,306,2
310,323,310,305,2
310,321,308,304,2
309,319,307,302,2
308,316,306,299,2
308,313,304,298,2
307,310,304,297,2
307,306,304,298,2
307,303,305,299,2
306,297,307,300,2
305,288,308,302,2
305,279,308,305,2
305,271,309,308,2
305,267,309,311,2
305,268,310,314,2
306,274,312,315,2
307,280,313,316,2
308,286,313,316,2
309,291,313,315,2
309,294,312,313,2
309,296,311,311,2
308,298,310,310,2
308,300,309,307,2
306,302,308,305,2
305,307,306,302,2
305,314,304,299,2
305,323,303,296,2
305,330,302,294,2
304,335,301,294,2
304,336,301,294,2
304,333,302,296,2
304,329,303,298,2
304,322,305,299,2
305,315,307,301,2
307,308,310,304,2
308,301,312,306,2
310,295,314,308,2
310,293,313,309,2
310,293,312,309,2
309,295,310,308,2
307,298,308,306,2
306,302,305,304,2
305,305,304,303,2
304,307,302,301,2
304,307,301,300,2
304,308,301,299,2
303,310,301,299,2
303,312,301,299,2
303,313,301,300,2
303,313,302,301,2
303,312,303,302,2
304,310,305,303,2
304,308,307,305,2
305,306,309,307,2
306,305,310,311,2
308,308,311,313,2
309,312,311,315,2
309,312,310,316,2
309,307,308,316,2
308,299,307,317,2
308,291,305,316,2
308,287,303,315,2
305,288,301,312,2
303,292,301,310,2
300,297,302,307,2
297,303,303,304,2
296,308,303,300,2
295,312,302,298,2
295,315,301,297,2
296,319,299,297,2
297,322,300,298,2
299,326,301,300,2
302,328,302,303,2
305,329,304,305,2
308,331,307,307,2
311,332,308,309,2
313,331,309,310,2
314,328,309,311,2
315,323,309,311,2
314,316,309,312,2
314,308,309,312,2
313,298,308,312,2
313,290,307,313,2
312,284,306,313,2
311,284,304,312,2
309,290,303,310,2
307,298,301,308,2
306,304,300,306,2
305,306,298,304,2
306,307,298,304,2
307,307,298,304,2
308,306,299,305,2
309,305,302,307,2
310,305,305,311,2
311,307,309,314,2
313,308,313,317,2
313,308,316,320,2
313,306,319,321,2
313,302,319,322,2
312,298,319,320,2
311,293,317,318,2
310,289,316,316,2
309,289,313,314,2
306,293,311,311,2
303,297,308,309,2
301,300,304,306,2
299,301,301,305,2
298,300,299,303,2
298,300,297,302,2
298,299,296,302,2
299,299,297,302,2
301,299,298,304,2
302,300,300,307,2
303,300,302,310,2
305,297,304,314,2
306,294,306,316,2
306,291,308,317,2
307,291,309,317,2
308,294,309,316,2
309,298,310,315,2
310,303,310,312,2
309,312,310,309,2
307,322,308,306,2
305,332,306,304,2
303,339,305,302,2
302,342,304,300,2
302,344,303,299,2
301,345,302,298,2
301,347,302,298,2
301,347,302,297,2
301,347,303,298,2
303,346,304,300,2
304,345,305,302,2
305,343,307,304,2
306,340,309,307,2
307,334,312,310,2
308,324,315,313,2
309,313,316,317,2
309,302,316,319,2
309,294,314,320,2
309,286,311,320,2
307,284,308,318,2
303,288,304,314,2
300,296,300,310,2
297,305,297,305,2
295,312,295,302,2
295,316,295,300,2
296,317,295,300,2
298,317,296,301,2
299,318,298,302,2
300,320,302,304,2
301,320,307,306,2
302,321,312,308,2
303,320,315,310,2
304,319,316,311,2
305,316,316,313,2
306,311,314,314,2
307,307,313,315,2
308,303,313,316,2
308,301,312,317,2
308,300,311,316,2
307,298,310,315,2
306,300,308,313,2
305,303,306,310,2
304,306,304,306,2
304,308,302,303,2
304,310,301,299,2
304,312,301,297,2
304,312,302,297,2
304,308,303,298,2
304,304,304,300,2
305,298,306,303,2
307,291,308,306,2
308,284,310,310,2
310,280,312,314,2
312,282,313,317,2
312,288,315,319,2
312,296,315,320,2
311,304,316,320,2
311,313,316,319,2
310,320,316,317,2
308,326,315,314,2
306,330,314,310,2
305,333,312,307,2
303,333,311,303,2
302,330,310,300,2
303,325,310,299,2
303,320,309,298,2
304,313,309,297,2
305,305,309,297,2
305,297,309,297,2
306,291,309,299,2
306,286,310,300,2
305,284,310,302,2
304,284,311,305,2
304,284,313,307,2
305,286,315,310,2
305,289,317,313,2
307,293,318,315,2
308,297,318,316,2
308,299,317,315,2
307,299,315,314,2
306,301,313,312,2
305,304,311,310,2
305,309,309,308,2
304,313,307,305,2
304,316,306,303,2
303,318,305,302,2
303,318,304,302,2
302,318,303,302,2
303,320,303,302,2
303,324,303,303,2
303,328,303,304,2
304,330,304,305,2
305,332,305,307,2
306,332,308,309,2
306,330,311,310,2
306,327,314,312,2
305,322,316,312,2
305,317,316,311,2
305,311,315,311,2
305,306,313,310,2
306,302,309,309,2
306,300,306,307,2
306,298,304,305,2
305,297,301,302,2
305,296,299,300,2
304,293,299,298,2
304,288,301,297,2
306,282,305,297,2
307,278,309,297,2
309,278,312,299,2
310,283,314,301,2
310,295,314,303,2
310,310,313,305,2
309,323,312,306,2
307,331,311,306,2
307,335,310,305,2
306,337,309,305,2
306,336,309,304,2
306,334,308,304,2
307,327,308,304,2
307,317,306,304,2
307,304,305,304,2
307,290,304,305,2
307,277,302,306,2
307,268,300,307,2
306,264,299,307,2
305,266,299,308,2
304,273,299,309,2
303,281,300,310,2
303,286,300,311,2
305,287,302,312,2
307,287,304,314,2
311,289,307,314,2
314,293,309,313,2
316,299,311,311,2
316,309,312,308,2
314,320,311,305,2
312,332,310,302,2
310,343,308,300,2
309,349,308,297,2
308,349,307,295,2
307,346,305,292,2
306,341,303,290,2
305,336,302,288,2
304,331,300,287,2
304,326,298,288,2
304,321,296,289,2
304,317,294,290,2
304,314,293,292,2
304,313,293,294,2
304,313,293,295,2
303,312,293,297,2
304,312,295,299,2
304,312,298,301,2
305,311,302,303,2
307,308,306,306,2
309,305,310,308,2
311,301,312,309,2
312,298,312,310,2
312,296,311,309,2
312,295,311,308,2
311,296,309,308,2
309,297,307,306,2
307,298,305,304,2
306,297,303,304,2
305,294,303,305,2
305,289,302,307,2
304,285,302,309,2
303,282,303,310,2
303,285,305,311,2
303,292,306,310,2
303,300,308,310,2
304,306,310,310,2
306,310,311,310,2
307,312,311,310,2
308,315,311,311,2
308,319,310,310,2
307,325,310,309,2
307,330,309,308,2
307,331,308,305,2
305,328,308,302,2
304,321,307,300,2
303,311,306,299,2
302,297,305,298,2
302,281,305,298,2
301,267,304,299,2
301,258,305,299,2
302,255,305,299,2
302,261,306,299,2
303,272,307,299,2
304,286,308,300,2
305,300,309,302,2
305,310,309,304,2
306,316,309,306,2
307,319,309,308,2
307,320,309,309,2
307,321,309,309,2
306,322,308,310,2
306,323,306,310,2
304,322,306,309,2
303,319,307,307,2
302,312,309,305,2
301,304,312,304,2
301,296,312,303,2
301,290,312,301,2
301,289,310,300,2
301,291,308,300,2
302,293,305,300,2
303,295,304,301,2
305,297,303,302,2
307,299,304,305,2
309,301,306,308,2
310,301,307,311,2
310,300,307,313,2
309,302,308,313,2
309,304,308,313,2
307,306,308,312,2
305,308,307,311,2
304,310,306,309,2
304,312,306,307,2
305,313,306,305,2
305,315,307,303,2
306,313,307,302,2
306,310,307,300,2
305,305,307,299,2
305,303,308,299,2
305,304,308,300,2
304,311,309,301,2
303,319,311,303,2
303,326,312,305,2
303,330,313,308,2
304,331,315,310,2
304,330,316,312,2
306,328,317,313,2
308,325,318,314,2
310,319,318,314,2
311,314,317,313,2
311,309,317,313,2
312,307,317,313,2
312,306,316,312,2
310,304,315,311,2
308,300,312,308,2
305,297,308,306,2
302,297,304,303,2
300,300,302,302,2
298,305,302,300,2
297,308,301,300,2
295,310,302,299,2
295,312,303,299,2
296,317,303,300,2
298,323,303,302,2
300,328,303,305,2
302,329,304,307,2
303,327,304,309,2
305,324,305,310,2
306,320,305,311,2
307,317,305,312,2
309,313,305,312,2
309,312,304,311,2
310,311,304,309,2
309,311,303,307,2
308,311,302,304,2
307,312,302,302,2
307,313,303,300,2
306,312,305,298,2
306,311,307,298,2
306,310,310,298,2
307,308,311,298,2
307,304,311,299,2
309,297,310,301,2
310,288,309,304,2
312,278,309,307,2
313,269,310,310,2
315,263,312,313,2
315,259,313,315,2
315,258,313,315,2
314,264,314,315,2
313,278,314,314,2
311,294,313,311,2
308,309,312,308,2
306,321,309,304,2
303,327,307,301,2
300,329,305,298,2
299,328,304,296,2
300,325,303,295,2
301,322,302,296,2
303,319,301,296,2
304,319,301,297,2
305,319,301,298,2
306,321,302,300,2
307,325,302,302,2
308,328,303,304,2
309,329,304,306,2
308,328,305,307,2
308,327,306,308,2
308,326,305,308,2
307,325,304,309,2
308,323,303,310,2
308,322,303,310,2
309,320,303,311,2
310,317,304,310,2
310,311,304,308,2
310,304,304,305,2
310,297,303,302,2
310,291,302,300,2
308,286,302,298,2
307,282,302,296,2
306,281,301,295,2
306,282,302,296,2
307,284,303,299,2
308,286,305,302,2
309,289,307,304,2
309,294,308,306,2
310,300,309,308,2
310,310,310,308,2
309,319,310,309,2
308,326,311,311,2
308,326,311,312,2
308,322,311,312,2
309,313,310,313,2
309,300,310,313,2
308,287,309,312,2
308,275,307,311,2
307,267,306,310,2
307,263,305,308,2
306,262,304,306,2
305,262,303,304,2
303,263,304,303,2
303,265,304,303,2
302,274,305,304,2
302,290,305,305,2
302,309,305,306,2
302,330,305,307,2
302,348,304,307,2
301,360,303,308,2
300,364,302,308,2
299,361,302,308,2
299,354,303,308,2
299,346,303,309,2
300,337,304,309,2
301,329,303,309,2
301,325,302,309,2
301,321,301,308,2
300,317,300,307,2
299,312,300,305,2
297,308,301,304,2
295,302,303,302,2
295,296,305,302,2
295,289,308,303,2
297,283,311,306,2
299,278,313,309,2
302,277,313,313,2
304,281,313,315,2
306,287,312,316,2
307,293,310,317,2
307,297,310,317,2
308,300,310,318,2
308,302,310,318,2
308,306,311,318,2
306,313,310,316,2
305,322,309,313,2
304,330,308,311,2
304,333,306,307,2
303,331,305,304,2
302,325,303,302,2
301,317,301,301,2
301,309,300,301,2
302,301,300,301,2
302,296,301,302,2
302,294,301,303,2
303,295,303,305,2
304,295,304,308,2
307,293,307,311,2
309,290,309,313,2
310,287,312,315,2
311,289,313,317,2
311,293,314,317,2
311,298,314,318,2
310,301,314,317,2
309,306,313,317,2
307,311,311,316,2
305,315,308,314,2
302,318,305,312,2
300,316,302,309,2
297,311,299,306,2
296,306,297,303,2
295,301,297,302,2
296,298,297,301,2
297,296,298,300,2
298,297,301,300,2
301,300,304,302,2
302,305,306,304,2
304,309,309,307,2
305,309,311,310,2
306,306,312,313,2
306,302,311,316,2
308,299,311,317,2
310,299,311,319,2
311,305,311,318,2
311,312,309,316,2
309,316,307,313,2
306,319,305,309,2
303,317,303,307,2
301,315,300,305,2
299,313,298,303,2
298,310,298,302,2
299,307,299,302,2
299,304,300,302,2
300,299,302,302,2
302,294,305,303,2
303,286,309,304,2
304,280,313,306,2
305,277,317,308,2
307,278,319,310,2
309,285,320,311,2
310,294,321,312,2
312,306,320,313,2
313,319,318,313,2
313,327,316,314,2
312,327,314,315,2
311,320,312,314,2
311,312,310,313,2
311,303,310,310,2
312,295,309,308,2
313,291,309,305,2
313,291,308,304,2
312,296,307,303,2
310,307,305,302,2
308,320,304,302,2
307,330,302,303,2
306,337,302,305,2
307,341,302,307,2
307,343,303,310,2
307,344,303,312,2
307,344,304,314,2
307,343,305,314,2
308,341,306,314,2
308,337,307,313,2
308,333,307,312,2
307,328,307,309,2
306,321,305,307,2
306,313,303,304,2
306,305,302,302,2
305,297,301,300,2
306,289,300,300,2
305,282,300,302,2
305,274,300,303,2
305,265,301,306,2
305,254,303,308,2
306,241,305,311,2
308,233,307,314,2
309,230,309,317,2
310,234,311,320,2
312,246,312,323,2
312,266,313,323,2
311,293,313,321,2
309,320,313,319,2
307,341,312,317,2
305,351,311,314,2
304,352,310,312,2
304,348,308,309,2
304,343,306,307,2
303,338,303,305,2
302,333,300,303,2
300,327,297,301,2
299,322,294,300,2
299,317,293,299,2
300,311,293,299,2
301,305,295,299,2
302,299,297,301,2
304,293,299,304,2
307,286,301,306,2
308,280,302,309,2
309,276,302,312,2
308,275,302,314,2
308,278,303,315,2
306,286,302,315,2
304,296,301,313,2
302,308,300,311,2
300,319,298,308,2
299,328,296,304,2
298,332,296,301,2
298,333,296,297,2
298,332,298,296,2
298,329,300,295,2
298,325,303,295,2
300,322,304,296,2
301,318,305,297,2
303,315,305,299,2
305,312,305,302,2
307,310,306,305,2
309,308,307,308,2
310,306,308,311,2
311,304,309,313,2
311,303,311,314,2
311,304,311,314,2
311,305,310,314,2
309,308,310,313,2
308,313,309,311,2
308,318,308,309,2
307,321,307,305,2
307,320,305,303,2
305,317,304,301,2
305,312,302,300,2
304,307,302,300,2
303,301,301,301,2
304,294,302,304,2
304,285,303,307,2
305,274,304,311,2
306,263,306,314,2
307,257,308,316,2
308,257,309,316,2
307,266,310,316,2
307,285,310,316,2
306,308,309,315,2
304,329,308,314,2
303,345,306,313,2
302,352,304,311,2
301,351,302,310,2
300,345,301,308,2
300,336,299,307,2
300,327,299,305,2
300,319,299,302,2
300,315,299,301,2
299,314,298,299,2
299,313,298,299,2
298,314,298,298,2
298,316,299,299,2
299,318,301,300,2
300,319,303,302,2
301,320,305,304,2
302,319,308,307,2
304,316,310,311,2
306,312,312,314,2
307,305,314,318,2
307,298,315,320,2
308,292,315,321,2
309,289,315,320,2
309,288,313,317,2
309,290,311,314,2
308,295,307,310,2
305,301,303,306,2
304,306,300,303,2
303,310,297,300,2
302,313,295,299,2
302,317,293,299,2
303,318,294,301,2
304,317,295,303,2
305,314,297,306,2
306,307,299,309,2
307,295,302,312,2
308,281,304,314,2
309,266,307,317,2
310,254,309,320,2
311,250,310,321,2
310,257,311,321,2
309,273,311,320,2
308,293,310,318,2
307,310,309,314,2
305,323,308,310,2
305,332,306,305,2
305,337,305,301,2
305,339,303,298,2
305,338,302,297,2
305,338,302,296,2
305,336,302,297,2
305,336,302,298,2
305,334,303,300,2
304,332,305,303,2
304,330,307,305,2
304,327,308,307,2
304,325,308,310,2
305,321,308,312,2
307,313,309,314,2
310,303,309,315,2
311,292,309,316,2
312,286,310,316,2
313,283,310,317,2
313,283,311,317,2
312,285,313,315,2
310,289,314,313,2
309,294,315,311,2
307,296,314,309,2
306,295,312,308,2
306,292,309,307,2
304,291,306,307,2
304,294,303,307,2
304,300,301,307,2
304,305,300,308,2
304,311,300,308,2
305,317,300,308,2
305,323,301,309,2
306,326,303,310,2
307,323,304,311,2
307,319,305,311,2
308,315,306,311,2
308,314,306,311,2
308,318,305,310,2
308,321,305,309,2
308,321,304,308,2
308,319,303,306,2
307,314,302,305,2
305,308,300,304,2
304,303,299,303,2
303,299,299,303,2
303,297,298,304,2
303,294,297,306,2
304,288,298,308,2
305,282,299,310,2
306,276,300,311,2
306,270,302,312,2
308,267,303,313,2
309,269,304,315,2
310,275,305,315,2
311,286,307,315,2
312,303,307,315,2
312,319,306,315,2
313,332,306,315,2
313,339,306,314,2
313,338,307,313,2
313,331,308,311,2
313,322,308,309,2
312,312,307,308,2
310,306,305,306,2
307,305,303,304,2
306,308,301,304,2
305,312,300,303,2
304,317,299,303,2
303,322,298,304,2
303,325,298,304,2
305,326,299,306,2
307,323,301,308,2
310,316,303,310,2
312,308,305,312,2
314,300,307,313,2
315,294,309,313,2
316,292,309,314,2
315,295,308,313,2
313,302,306,312,2
311,309,304,310,2
309,315,303,307,2
308,319,301,303,2
306,322,300,301,2
305,322,299,299,2
304,322,299,297,2
304,321,298,297,2
304,320,298,298,2
304,318,299,299,2
305,315,300,301,2
306,313,301,304,2
307,312,303,307,2
308,313,305,311,2
308,313,306,314,2
308,311,308,317,2
308,306,308,320,2
309,301,309,320,2
309,295,308,319,2
309,288,308,317,2
308,283,306,315,2
307,281,304,314,2
305,280,303,312,2
304,279,303,310,2
303,279,304,308,2
302,280,306,305,2
302,283,307,304,2
302,287,308,302,2
302,292,307,302,2
302,301,303,301,2
303,311,301,301,2
303,320,300,302,2
303,327,300,303,2
303,332,301,304,2
304,335,303,307,2
304,337,305,309,2
305,336,307,311,2
306,333,308,312,2
308,328,309,312,2
310,320,311,312,2
312,312,312,312,2
312,306,311,310,2
312,303,311,309,2
312,299,310,307,2
311,297,307,305,2
309,296,305,302,2
308,296,303,300,2
307,297,301,299,2
307,298,301,299,2
307,298,301,300,2
308,298,301,302,2
309,296,301,304,2
309,295,302,307,2
310,296,303,310,2
310,301,304,312,2
311,305,306,313,2
311,307,307,313,2
313,306,307,314,2
314,302,307,315,2
315,296,306,315,2
315,289,306,314,2
314,284,304,313,2
312,283,303,311,2
310,287,301,309,2
308,291,300,307,2
307,292,300,305,2
307,290,300,304,2
307,286,300,305,2
307,283,301,306,2
307,284,301,307,2
306,289,302,308,2
305,300,304,309,2
304,314,307,310,2
303,324,309,310,2
302,330,310,311,2
303,330,311,311,2
304,327,312,312,2
307,321,313,312,2
309,315,314,313,2
310,312,315,313,2
311,310,315,313,2
310,309,314,312,2
309,309,312,311,2
308,309,310,309,2
305,311,307,306,2
303,315,304,305,2
301,321,302,303,2
300,324,302,303,2
300,322,301,304,2
301,316,302,304,2
303,309,303,307,2
305,301,305,309,2
308,295,308,312,2
310,291,310,315,2
311,293,312,317,2
311,300,313,318,2
309,309,312,317,2
308,318,311,316,2
307,324,311,313,2
307,327,310,311,2
306,326,308,309,2
306,323,306,306,2
305,319,303,303,2
304,315,301,300,2
303,312,299,298,2
302,311,298,296,2
301,312,298,296,2
302,313,298,297,2
303,314,298,298,2
304,314,299,300,2
306,314,299,303,2
307,316,300,306,2
308,319,302,309,2
309,322,306,313,2
310,323,312,316,2
311,324,317,318,2
312,321,322,319,2
313,314,325,319,2
314,308,326,319,2
314,306,325,317,2
313,307,322,316,2
312,310,318,314,2
311,311,314,312,2
310,309,311,310,2
309,308,307,308,2
307,308,303,306,2
305,308,300,306,2
303,309,299,305,2
303,311,299,305,2
303,313,299,306,2
303,315,301,308,2
304,315,302,310,2
304,313,303,313,2
305,311,305,317,2
305,308,308,321,2
306,305,310,324,2
307,304,312,326,2
306,304,314,325,2
306,305,314,322,2
305,306,313,319,2
305,306,312,315,2
304,306,311,312,2
304,305,309,309,2
303,303,306,305,2
303,299,304,301,2
304,296,302,299,2
305,294,302,298,2
307,291,302,298,2
308,288,303,299,2
308,286,303,301,2
309,288,304,303,2
309,290,304,306,2
308,294,305,308,2
309,298,305,310,2
309,304,307,312,2
310,310,308,314,2
310,314,310,314,2
311,318,311,315,2
311,319,312,314,2
312,319,313,314,2
312,315,312,313,2
313,311,312,312,2
313,306,311,311,2
312,302,309,309,2
310,302,307,307,2
308,304,305,306,2
307,304,303,304,2
306,302,303,303,2
306,299,303,303,2
306,298,303,303,2
306,297,303,304,2
307,297,304,306,2
308,297,306,307,2
308,297,307,309,2
309,299,308,310,2
309,301,309,310,2
309,306,309,309,2
310,310,308,308,2
310,313,308,307,2
310,317,309,307,2
310,322,310,306,2
309,327,309,305,2
309,329,308,305,2
308,326,307,304,2
308,321,305,305,2
309,315,304,305,2
309,308,303,306,2
310,299,302,307,2
310,292,303,307,2
310,287,304,308,2
309,286,305,309,2
308,288,307,310,2
307,293,307,311,2
305,299,307,310,2
304,306,308,308,2
304,312,307,307,2
305,319,306,306,2
307,324,305,305,2
309,326,306,304,2
311,325,306,304,2
312,323,307,304,2
312,323,307,303,2
312,325,306,301,2
311,324,306,299,2
309,322,304,298,2
307,316,303,297,2
305,312,301,297,2
304,309,300,297,2
303,308,299,298,2
303,309,299,298,2
303,310,299,299,2
304,312,299,300,2
305,313,300,300,2
306,313,300,302,2
308,313,300,304,2
309,312,301,306,2
311,309,303,308,2
312,305,306,310,2
313,300,309,311,2
313,294,313,311,2
312,289,315,310,2
312,285,316,309,2
310,284,314,307,2
308,285,311,306,2
306,289,307,304,2
303,294,305,302,2
302,299,303,301,2
301,302,302,300,2
300,306,301,300,2
300,309,301,299,2
301,313,301,299,2
302,315,301,299,2
304,317,301,300,2
305,318,302,303,2
307,317,304,306,2
308,314,305,309,2
309,309,306,311,2
310,300,307,313,2
311,291,308,314,2
312,281,309,315,2
313,272,310,316,2
314,266,311,317,2
315,265,311,316,2
314,270,310,315,2
312,282,308,312,2
309,296,305,309,2
306,309,303,306,2
304,319,301,303,2
302,326,300,301,2
302,330,299,299,2
301,331,299,299,2
301,330,300,299,2
302,327,302,301,2
304,323,306,304,2
306,322,309,308,2
308,324,312,312,2
310,327,314,315,2
312,328,314,318,2
313,327,313,319,2
312,323,310,319,2
311,316,308,318,2
309,305,306,316,2
308,292,304,313,2
307,278,303,311,2
306,268,301,308,2
305,262,300,306,2
304,262,299,304,2
304,270,298,302,2
304,282,298,300,2
304,294,299,301,2
305,302,300,302,2
307,307,302,304,2
309,311,303,306,2
310,317,304,308,2
311,323,306,310,2
312,331,307,312,2
312,337,307,313,2
311,342,306,313,2
310,344,306,312,2
309,345,304,311,2
308,343,303,309,2
308,340,302,306,2
307,336,300,305,2
306,330,298,304,2
305,324,297,303,2
304,319,297,303,2
303,312,298,303,2
302,307,298,303,2
301,302,298,304,2
302,297,299,305,2
304,294,300,307,2
306,293,302,310,2
308,294,304,313,2
310,298,304,316,2
312,302,305,317,2
313,302,306,318,2
314,300,307,318,2
314,297,307,318,2
314,296,307,317,2
314,297,307,316,2
313,300,306,314,2
311,304,303,311,2
309,306,300,308,2
306,307,297,304,2
304,306,294,300,2
303,303,292,297,2
302,300,290,296,2
302,297,291,296,2
301,295,293,296,2
301,294,297,298,2
301,295,301,301,2
301,298,305,305,2
301,301,308,309,2
301,306,310,313,2
301,310,310,317,2
302,314,310,320,2
303,317,310,321,2
304,318,310,321,2
304,317,309,320,2
304,313,309,319,2
304,307,308,317,2
304,300,307,314,2
303,291,305,311,2
301,283,304,308,2
299,279,302,306,2
298,277,302,304,2
298,281,301,304,2
298,291,301,304,2
298,304,302,305,2
300,315,302,307,2
301,322,304,308,2
303,325,305,310,2
305,326,306,312,2
306,324,308,314,2
308,322,310,315,2
310,320,310,316,2
312,317,311,317,2
314,314,312,318,2
314,310,312,318,2
314,304,311,319,2
313,298,310,319,2
311,290,308,319,2
309,286,306,317,2
308,286,306,314,2
308,292,306,310,2
308,299,306,307,2
308,306,305,305,2
308,310,305,304,2
307,312,305,304,2
307,312,305,305,2
306,311,305,307,2
307,312,306,309,2
307,315,306,311,2
307,320,306,313,2
307,327,306,315,2
306,333,306,316,2
306,336,307,316,2
306,336,308,316,2
306,331,310,315,2
307,322,309,315,2
308,313,309,315,2
308,304,308,314,2
308,292,306,312,2
307,281,304,310,2
306,272,302,307,2
305,267,300,305,2
304,267,299,303,2
303,272,299,301,2
303,281,298,301,2
303,292,298,301,2
302,303,299,302,2
301,313,299,304,2
300,318,301,306,2
301,320,303,310,2
303,320,305,313,2
303,318,307,314,2
303,312,308,315,2
303,305,308,315,2
303,298,306,313,2
303,295,304,311,2
304,297,302,310,2
304,299,301,308,2
304,301,302,306,2
304,302,303,304,2
302,305,306,302,2
301,306,308,301,2
300,308,310,301,2
300,311,309,301,2
300,314,307,302,2
301,316,303,303,2
303,317,301,306,2
304,316,300,309,2
305,316,301,312,2
306,317,303,315,2
307,317,306,318,2
307,315,309,320,2
307,312,310,322,2
306,308,312,323,2
306,307,314,324,2
305,307,315,323,2
306,309,316,322,2
306,311,316,320,2
305,315,315,317,2
303,319,312,313,2
301,322,310,309,2
300,322,307,306,2
298,320,305,305,2
297,317,303,304,2
297,313,302,304,2
298,310,302,306,2
299,308,302,307,2
300,306,303,307,2
301,305,304,308,2
302,305,306,310,2
303,304,308,311,2
303,301,311,312,2
303,297,311,313,2
303,291,312,314,2
303,285,312,314,2
303,280,312,314,2
303,278,312,314,2
303,277,312,313,2
304,277,313,312,2
303,279,312,310,2
302,282,311,309,2
302,285,309,307,2
301,290,307,306,2
300,294,305,306,2
301,296,304,305,2
302,297,304,305,2
303,297,304,306,2
304,297,304,308,2
305,298,305,311,2
307,298,306,314,2
309,298,307,317,2
310,298,308,320,2
310,299,309,321,2
311,301,311,322,2
311,306,311,321,2
311,316,312,320,2
310,324,311,318,2
308,332,310,314,2
306,337,309,311,2
304,339,307,307,2
302,338,304,303,2
300,335,302,300,2
299,329,300,297,2
298,322,299,296,2
299,312,300,295,2
300,300,301,296,2
303,286,303,299,2
306,274,306,302,2
309,268,308,306,2
311,269,310,309,2
313,273,312,312,2
313,282,313,314,2
312,292,314,315,2
311,302,314,316,2
310,311,314,316,2
309,315,313,316,2
309,314,312,317,2
308,309,310,315,2
307,305,309,314,2
306,302,307,312,2
304,300,306,309,2
302,300,306,307,2
301,304,306,306,2
300,307,306,305,2
300,309,305,304,2
300,311,304,303,2
300,313,303,302,2
301,317,303,303,2
301,321,303,305,2
303,324,304,308,2
304,327,305,310,2
306,330,305,312,2
307,330,304,312,2
307,330,304,312,2
305,329,304,311,2
305,326,305,310,2
305,322,305,309,2
304,317,306,308,2
304,310,307,307,2
303,301,309,305,2
303,293,311,305,2
303,288,312,305,2
303,288,311,304,2
304,295,309,302,2
304,303,306,301,2
303,310,302,300,2
302,314,300,300,2
302,317,299,300,2
301,319,298,300,2
301,320,299,301,2
301,320,301,302,2
302,319,304,304,2
303,317,306,305,2
305,315,308,306,2
306,313,310,307,2
307,311,312,307,2
308,308,312,306,2
308,305,311,306,2
308,302,309,305,2
308,297,307,304,2
308,291,305,304,2
309,286,304,304,2
309,284,303,304,2
309,286,302,304,2
307,291,302,304,2
305,296,302,304,2
304,300,302,305,2
303,300,302,306,2
302,298,304,307,2
303,294,306,309,2
305,292,309,312,2
307,292,311,315,2
308,294,312,317,2
309,299,313,318,2
310,307,314,318,2
311,315,314,316,2
312,317,313,314,2
311,315,312,312,2
310,310,311,309,2
308,304,309,305,2
307,299,306,302,2
307,297,304,299,2
308,296,303,297,2
308,296,301,297,2
308,297,301,297,2
308,293,301,300,2
308,286,302,304,2
308,278,305,309,2
309,273,307,313,2
309,275,309,316,2
308,283,310,317,2
308,295,310,317,2
307,310,311,314,2
306,324,311,312,2
305,335,311,310,2
304,341,311,308,2
304,344,310,307,2
304,343,309,304,2
304,335,307,303,2
304,323,305,300,2
305,309,305,298,2
306,295,304,297,2
306,283,305,296,2
307,274,306,296,2
308,272,307,296,2
308,275,308,297,2
308,283,309,299,2
307,293,310,301,2
306,302,311,303,2
305,311,311,305,2
305,317,311,307,2
305,320,311,308,2
306,323,311,310,2
306,327,311,311,2
306,332,311,311,2
305,337,310,309,2
304,340,309,307,2
303,340,308,305,2
302,337,305,303,2
301,333,303,300,2
300,328,300,298,2
300,323,299,296,2
300,319,298,295,2
301,315,296,295,2
302,314,296,297,2
303,313,296,298,2
304,311,297,300,2
305,307,300,302,2
307,301,304,306,2
310,296,309,310,2
311,292,315,313,2
313,288,319,317,2
314,286,320,319,2
312,285,319,319,2
311,283,317,318,2
309,281,314,316,2
307,279,312,313,2
306,276,310,311,2
305,272,309,310,2
305,270,309,309,2
305,273,306,309,2
305,281,304,309,2
304,295,301,309,2
303,308,299,309,2
302,317,299,308,2
301,322,300,308,2
302,325,302,309,2
302,327,305,309,2
303,329,309,310,2
303,331,312,311,2
303,335,314,312,2
304,337,314,312,2
304,337,314,313,2
304,336,313,314,2
305,334,311,314,2
305,330,310,314,2
305,325,308,313,2
304,318,308,311,2
303,309,308,310,2
303,300,307,307,2
303,292,307,306,2
303,287,306,305,2
303,286,306,305,2
302,290,306,305,2
301,297,306,305,2
300,307,306,304,2
299,316,306,304,2
298,324,307,305,2
298,329,308,307,2
299,331,309,310,2
300,329,310,313,2
302,326,312,315,2
303,323,313,316,2
304,320,313,316,2
305,318,313,315,2
305,316,312,314,2
305,312,310,312,2
305,304,308,310,2
305,290,307,308,2
306,274,306,306,2
307,260,306,306,2
308,252,306,306,2
308,250,306,305,2
307,254,306,305,2
305,266,306,304,2
304,286,304,304,2
302,304,304,304,2
301,315,304,306,2
300,319,304,308,2
301,320,305,311,2
302,323,307,312,2
303,326,308,311,2
303,331,309,309,2
301,337,309,307,2
300,343,308,306,2
298,347,307,305,2
297,347,306,305,2
296,343,305,304,2
295,337,304,303,2
295,330,303,302,2
294,322,301,300,2
295,313,299,299,2
295,304,296,299,2
296,295,295,300,2
297,288,295,301,2
298,282,296,302,2
299,279,299,304,2
300,279,302,307,2
302,282,305,310,2
303,286,307,313,2
304,292,309,315,2
304,298,310,316,2
304,306,310,316,2
303,314,310,314,2
302,320,308,311,2
301,324,306,308,2
300,325,305,306,2
301,324,303,304,2
301,322,304,303,2
300,320,305,302,2
299,319,307,301,2
298,319,309,300,2
298,318,311,301,2
298,317,311,301,2
298,314,309,303,2
299,312,307,305,2
299,312,305,309,2
299,312,305,312,2
301,313,305,315,2
302,311,307,317,2
304,308,309,318,2
305,305,309,317,2
306,303,310,315,2
306,300,310,313,2
306,298,309,311,2
305,298,308,309,2
305,300,307,308,2
303,301,306,306,2
303,298,305,304,2
302,291,304,303,2
301,282,303,302,2
300,274,302,301,2
299,267,301,301,2
298,262,300,301,2
297,262,299,302,2
297,268,299,304,2
298,279,300,307,2
299,294,302,309,2
299,307,304,312,2
300,319,306,313,2
301,326,308,313,2
302,329,310,312,2
303,331,311,311,2
305,332,312,311,2
307,332,312,311,2
308,333,311,310,2
308,335,309,308,2
307,335,307,305,2
305,333,305,303,2
303,331,304,302,2
302,328,303,301,2
302,323,303,301,2
303,318,303,301,2
304,310,303,302,2
306,302,304,303,2
307,294,305,304,2
308,289,306,307,2
309,285,306,310,2
308,281,307,312,2
308,278,308,314,2
308,279,308,316,2
308,282,308,317,2
308,286,309,317,2
308,290,309,316,2
308,294,309,315,2
307,298,308,313,2
306,304,307,311,2
305,308,307,309,2
304,309,305,306,2
302,308,304,303,2
299,307,301,301,2
298,307,299,299,2
298,309,297,298,2
299,309,295,298,2
301,309,295,298,2
303,310,295,299,2
305,310,295,300,2
306,310,296,302,2
308,311,298,305,2
308,312,302,308,2
308,313,307,312,2
308,316,311,314,2
308,318,315,317,2
308,319,316,318,2
308,317,317,319,2
308,312,317,319,2
309,304,316,318,2
310,293,315,318,2
312,281,314,315,2
312,274,312,313,2
311,271,310,310,2
310,269,308,307,2
308,266,307,305,2
306,264,306,304,2
305,267,306,304,2
304,275,305,304,2
304,288,305,304,2
302,302,304,303,2
301,317,303,304,2
301,330,302,305,2
302,339,304,307,2
302,343,306,309,2
303,341,309,311,2
304,336,313,313,2
305,330,314,314,2
306,325,314,315,2
306,320,313,316,2
306,316,311,315,2
305,312,309,314,2
304,308,306,312,2
301,305,304,309,2
298,301,303,307,2
296,300,301,304,2
294,302,301,303,2
292,306,300,301,2
291,310,300,301,2
291,313,301,301,2
292,314,303,302,2
295,314,306,305,2
299,313,309,309,2
303,312,311,314,2
307,310,312,318,2
310,308,313,321,2
312,304,313,323,2
312,299,313,324,2
311,293,313,324,2
311,286,313,322,2
311,282,312,320,2
311,282,310,316,2
309,285,308,313,2
308,288,305,310,2
306,293,304,308,2
304,300,303,307,2
304,308,302,307,2
303,314,302,306,2
303,317,302,305,2
302,317,301,305,2
303,314,301,305,2
304,311,302,305,2
305,309,304,306,2
306,310,306,308,2
307,315,307,310,2
308,321,307,311,2
307,327,307,311,2
306,329,308,311,2
305,328,308,311,2
304,323,308,310,2
304,316,307,308,2
303,309,307,307,2
302,304,305,304,2
302,302,303,303,2
301,303,301,301,2
301,306,300,300,2
302,309,299,300,2
303,313,299,300,2
304,314,300,301,2
305,313,301,302,2
306,308,302,304,2
308,302,305,306,2
311,296,308,307,2
313,288,312,310,2
313,278,316,311,2
314,270,320,313,2
314,266,322,314,2
314,267,322,315,2
312,271,321,314,2
310,277,317,313,2
309,281,314,312,2
308,283,310,310,2
307,286,307,308,2
307,292,305,306,2
306,301,303,304,2
304,314,302,302,2
302,326,302,300,2
300,335,301,299,2
299,341,301,297,2
297,345,301,296,2
297,346,302,296,2
298,345,303,297,2
299,342,304,299,2
300,338,304,301,2
301,334,305,303,2
303,330,307,306,2
305,326,309,308,2
307,321,310,309,2
308,313,310,310,2
310,302,310,310,2
311,292,310,311,2
311,283,310,310,2
311,275,310,308,2
309,269,309,307,2
308,270,308,305,2
305,280,306,304,2
303,294,305,303,2
301,309,304,303,2
300,320,304,303,2
300,327,306,305,2
301,330,308,307,2
303,331,310,308,2
305,330,312,310,2
307,327,313,312,2
308,324,314,313,2
309,320,314,315,2
309,314,314,314,2
309,306,314,314,2
310,298,313,313,2
310,289,312,312,2
311,280,311,311,2
312,273,309,309,2
312,268,308,306,2
310,270,305,304,2
308,276,304,301,2
307,283,303,301,2
305,291,304,301,2
305,298,306,302,2
306,306,306,304,2
305,315,307,304,2
304,324,306,306,2
303,332,305,307,2
302,337,304,310,2
302,338,302,311,2
303,338,302,313,2
304,336,304,314,2
304,331,307,314,2
305,322,310,314,2
305,312,314,312,2
306,303,315,311,2
307,298,316,311,2
307,294,314,309,2
306,291,312,308,2
305,287,308,306,2
305,286,306,305,2
304,289,304,306,2
304,293,303,306,2
304,299,302,306,2
304,305,303,307,2
304,310,304,308,2
304,314,305,309,2
305,317,307,310,2
305,321,308,312,2
305,325,308,313,2
304,328,307,313,2
304,328,307,312,2
304,324,307,312,2
305,320,307,310,2
305,317,308,309,2
307,313,308,308,2
307,310,307,306,2
306,306,306,304,2
305,301,304,302,2
304,293,301,299,2
304,285,300,298,2
305,277,299,299,2
305,274,299,299,2
305,276,300,300,2
305,281,302,301,2
306,285,303,303,2
307,286,305,305,2
308,287,307,308,2
309,289,309,311,2
309,291,310,314,2
309,294,311,316,2
309,301,311,316,2
308,310,310,317,2
307,322,308,316,2
305,331,305,314,2
305,334,303,311,2
305,327,302,309,2
305,316,302,307,2
306,306,302,306,2
308,300,303,305,2
310,297,304,305,2
311,296,304,304,2
311,302,304,304,2
309,313,303,305,2
308,326,303,304,2
307,335,302,305,2
306,339,302,305,2
305,339,302,307,2
305,337,302,310,2
305,333,304,313,2
306,330,306,315,2
307,330,308,317,2
307,329,309,318,2
307,330,310,317,2
307,328,310,315,2
307,322,309,312,2
306,314,307,308,2
306,304,306,305,2
306,294,305,303,2
306,285,305,302,2
306,278,305,302,2
306,276,304,303,2
306,278,302,304,2
305,280,300,306,2
304,284,300,307,2
304,290,299,308,2
304,300,300,309,2
304,309,301,310,2
305,317,304,312,2
306,321,307,313,2
306,323,310,315,2
305,321,314,315,2
305,316,316,315,2
305,308,316,314,2
306,300,316,313,2
308,292,314,312,2
309,285,312,311,2
309,282,309,308,2
307,282,307,307,2
305,287,304,304,2
303,295,303,303,2
301,304,301,301,2
300,313,301,300,2
299,322,301,300,2
300,329,301,301,2
301,333,302,301,2
302,333,303,303,2
304,331,304,305,2
305,327,307,308,2
306,322,309,310,2
308,316,311,313,2
309,312,313,314,2
310,308,314,315,2
311,304,314,314,2
311,300,313,313,2
310,295,311,311,2
310,289,309,309,2
309,283,307,307,2
308,277,304,304,2
308,271,302,302,2
306,265,300,299,2
306,261,300,298,2
305,261,300,297,2
305,266,302,298,2
307,273,305,299,2
308,281,308,302,2
309,288,311,305,2
309,295,314,308,2
310,301,314,312,2
309,305,313,314,2
308,309,312,316,2
308,313,312,316,2
308,319,311,315,2
307,326,310,314,2
307,333,309,313,2
306,340,308,312,2
305,344,308,311,2
303,344,306,310,2
302,342,306,308,2
302,337,305,307,2
302,332,305,306,2
303,324,305,305,2
303,315,305,304,2
303,306,306,303,2
304,301,306,303,2
305,299,307,304,2
307,302,309,305,2
309,310,310,307,2
309,317,311,309,2
308,322,312,310,2
308,324,312,312,2
307,322,312,312,2
307,320,312,312,2
307,318,312,311,2
307,315,312,310,2
307,311,312,308,2
307,305,310,307,2
307,296,309,305,2
308,283,308,304,2
309,270,307,304,2
310,257,307,304,2
311,245,306,304,2
312,240,305,304,2
312,242,303,304,2
310,256,301,304,2
308,277,299,304,2
306,299,299,304,2
305,319,298,306,2
305,334,299,307,2
305,345,302,308,2
306,350,304,309,2
306,350,309,308,2
307,347,313,307,2
308,343,316,305,2
308,336,318,304,2
309,327,316,303,2
308,313,313,302,2
307,295,309,301,2
306,275,305,300,2
306,257,303,299,2
306,245,303,298,2
307,240,304,297,2
308,246,304,298,2
307,265,304,299,2
306,288,303,300,2
306,312,303,303,2
305,331,304,304,2
306,346,305,307,2
306,355,307,309,2
307,359,308,311,2
307,360,309,313,2
309,360,309,314,2
310,357,308,313,2
310,348,307,311,2
310,335,306,310,2
310,325,305,307,2
309,317,304,305,2
309,312,304,303,2
307,309,303,301,2
305,308,303,299,2
304,305,303,299,2
304,302,303,298,2
304,300,303,298,2
305,300,303,299,2
305,302,303,300,2
306,303,304,302,2
307,303,305,305,2
309,301,307,308,2
310,298,308,312,2
312,297,310,314,2
313,298,312,316,2
314,300,312,316,2
313,304,312,315,2
312,307,311,314,2
311,310,310,312,2
311,311,309,310,2
309,311,307,308,2
308,309,306,305,2
306,306,305,302,2
305,303,304,301,2
304,301,303,300,2
304,299,303,299,2
304,299,303,299,2
306,300,303,300,2
307,301,304,301,2
307,303,305,303,2
308,305,305,304,2
308,308,306,307,2
308,308,308,309,2
309,306,309,311,2
309,302,310,312,2
309,296,311,313,2
310,290,312,315,2
311,287,312,315,2
312,287,312,315,2
312,290,311,314,2
311,295,310,312,2
310,299,306,309,2
307,303,302,307,2
304,304,298,305,2
302,305,297,305,2
301,308,299,304,2
