289,303,295,284,0
288,295,296,284,0
290,288,298,286,0
294,284,302,290,0
297,282,304,294,0
299,281,307,299,0
301,282,309,304,0
304,282,310,309,0
306,282,311,312,0
307,282,312,312,0
308,283,311,313,0
309,288,312,312,0
311,297,313,312,0
313,310,314,311,0
313,322,314,308,0
312,331,312,306,0
310,344,311,305,0
310,361,309,306,0
311,380,307,308,0
313,401,306,312,0
315,421,306,315,0
315,424,305,317,0
313,407,305,318,0
309,373,305,318,0
304,337,306,318,0
299,309,308,318,0
297,295,311,317,0
298,288,313,316,0
302,282,313,314,0
305,271,312,312,0
308,263,312,310,0
312,265,311,308,0
314,268,308,306,0
311,267,304,302,0
307,262,301,299,0
304,257,297,296,0
301,257,295,293,0
300,259,294,291,0
300,264,295,290,0
300,267,295,290,0
297,266,294,290,0
293,262,294,292,0
289,257,292,295,0
286,253,291,299,0
285,252,295,305,0
288,254,303,313,0
294,257,313,320,0
300,261,322,324,0
305,266,328,325,0
309,274,330,323,0
310,285,329,319,0
310,296,326,315,0
310,307,320,311,0
309,315,312,309,0
308,317,302,307,0
306,313,292,304,0
305,306,283,302,0
303,300,275,299,0
300,300,270,297,0
298,303,270,296,0
298,308,273,296,0
298,311,282,298,0
301,313,293,301,0
306,318,303,305,0
312,325,311,309,0
318,337,316,312,0
321,350,318,313,0
320,358,316,312,0
315,360,314,311,0
307,355,312,310,0
301,345,312,311,0
297,334,312,311,0
296,325,313,311,0
299,320,312,310,0
305,317,310,307,0
311,312,309,303,0
315,304,307,299,0
318,295,307,294,0
319,290,307,291,0
317,291,307,289,0
315,294,307,290,0
311,295,307,293,0
308,295,307,297,0
306,295,308,301,0
306,296,310,306,0
305,298,311,310,0
303,300,312,314,0
300,300,311,317,0
298,300,310,320,0
298,299,310,322,0
301,299,311,325,0
304,297,312,326,0
309,296,314,326,0
313,295,316,324,0
315,296,320,321,0
313,298,321,317,0
311,302,321,313,0
306,307,320,310,0
301,313,318,309,0
298,322,316,309,0
297,334,314,311,0
298,347,312,312,0
302,355,310,313,0
305,355,307,312,0
306,350,305,311,0
305,346,304,309,0
302,347,305,308,0
299,351,305,309,0
297,349,305,310,0
296,337,304,310,0
295,316,304,310,0
296,297,302,309,0
299,288,301,309,0
304,288,300,307,0
306,284,299,304,0
306,278,298,301,0
305,274,299,298,0
305,273,301,295,0
305,275,303,294,0
307,279,307,294,0
308,283,309,294,0
310,288,309,296,0
311,293,307,299,0
310,297,306,304,0
311,300,305,309,0
313,304,305,315,0
314,306,307,320,0
314,303,309,322,0
312,292,311,322,0
309,280,312,320,0
307,270,311,318,0
305,268,311,315,0
305,271,311,313,0
305,278,309,312,0
306,285,306,310,0
306,289,303,309,0
303,290,299,307,0
300,291,295,306,0
297,293,290,304,0
295,297,287,303,0
294,301,287,303,0
294,302,288,304,0
295,298,290,304,0
297,296,294,306,0
301,297,300,308,0
304,299,306,309,0
307,300,309,309,0
307,300,309,307,0
306,301,311,305,0
304,301,313,303,0
301,300,316,301,0
296,299,317,301,0
293,299,317,303,0
292,302,315,304,0
295,305,312,305,0
300,308,309,304,0
307,310,307,303,0
314,313,307,302,0
317,317,309,303,0
318,320,313,303,0
317,322,318,303,0
315,322,321,304,0
313,321,323,304,0
311,321,322,305,0
312,325,321,307,0
314,329,318,310,0
315,329,314,312,0
315,325,311,314,0
314,317,309,315,0
314,305,308,313,0
312,292,309,310,0
310,280,310,308,0
308,271,312,306,0
307,265,314,304,0
307,265,315,303,0
308,270,314,303,0
308,281,310,302,0
306,292,307,302,0
304,298,303,303,0
303,300,301,303,0
304,304,300,303,0
305,310,300,303,0
306,315,301,304,0
307,314,303,305,0
307,310,305,307,0
308,308,307,310,0
311,313,309,313,0
315,324,312,316,0
319,335,314,319,0
323,342,317,320,0
325,335,318,321,0
326,319,318,321,0
322,301,316,321,0
317,286,313,319,0
309,276,309,317,0
303,275,306,314,0
297,281,303,310,0
293,295,301,308,0
291,317,300,307,0
294,341,301,309,0
298,359,305,313,0
306,369,310,316,0
313,369,313,317,0
315,356,312,315,0
312,337,309,312,0
306,318,307,309,0
302,307,306,308,0
302,307,308,308,0
306,315,310,309,0
310,322,312,309,0
311,318,313,308,0
311,301,312,307,0
309,280,310,306,0
308,263,309,304,0
307,256,308,303,0
306,255,306,300,0
305,257,304,297,0
303,261,300,296,0
300,265,297,294,0
297,265,294,293,0
295,261,292,292,0
293,258,291,292,0
293,259,293,293,0
294,268,297,295,0
297,283,303,298,0
300,296,308,301,0
303,304,312,303,0
305,311,314,306,0
305,316,315,309,0
305,320,315,311,0
305,325,314,313,0
305,327,311,314,0
305,323,308,314,0
305,312,306,314,0
306,300,306,314,0
306,289,307,313,0
306,281,307,312,0
303,276,306,310,0
300,276,305,307,0
298,279,304,303,0
294,286,303,300,0
291,294,303,299,0
288,300,305,300,0
289,304,308,303,0
292,310,312,308,0
297,316,314,312,0
300,319,317,314,0
301,317,318,316,0
300,315,319,317,0
300,313,317,318,0
302,313,315,319,0
306,315,313,319,0
310,321,311,318,0
313,328,309,317,0
313,333,307,317,0
312,335,305,316,0
309,333,302,315,0
306,324,298,314,0
305,313,297,314,0
304,303,297,313,0
305,294,300,312,0
307,289,303,311,0
308,286,306,309,0
309,281,309,307,0
309,278,312,307,0
308,278,314,307,0
306,279,315,307,0
305,281,315,307,0
304,283,314,306,0
303,286,313,307,0
303,288,312,308,0
302,289,312,309,0
303,290,312,310,0
304,290,313,309,0
305,291,313,308,0
307,293,313,308,0
309,295,312,307,0
311,297,312,306,0
311,301,310,305,0
311,307,309,305,0
310,313,307,305,0
309,319,307,306,0
306,322,306,306,0
304,323,306,306,0
302,324,307,306,0
301,323,308,307,0
300,320,311,308,0
299,312,313,309,0
300,304,315,311,0
302,299,316,312,0
304,296,317,313,0
306,295,317,314,0
308,295,316,314,0
309,298,315,314,0
308,304,314,314,0
307,313,314,314,0
309,325,314,316,0
312,342,316,317,0
316,360,316,317,0
316,373,314,315,0
315,381,311,312,0
311,378,307,308,0
305,362,303,305,0
298,337,298,303,0
293,309,296,302,0
292,282,296,303,0
295,264,297,305,0
300,261,300,306,0
308,270,304,308,0
316,286,308,309,0
321,295,312,310,0
323,289,316,310,0
320,274,317,309,0
315,258,317,307,0
308,246,315,304,0
300,242,313,302,0
294,250,309,301,0
290,266,307,300,0
289,288,305,299,0
291,308,304,298,0
294,320,302,296,0
296,323,298,295,0
298,324,294,295,0
300,324,292,298,0
301,321,292,301,0
301,315,293,303,0
300,310,296,304,0
299,307,301,303,0
299,306,306,303,0
299,308,310,304,0
300,313,312,305,0
301,318,312,305,0
303,323,312,305,0
304,327,311,305,0
305,328,309,304,0
305,327,307,303,0
303,322,304,302,0
302,317,302,301,0
299,313,301,300,0
298,311,300,300,0
298,308,300,299,0
298,305,300,299,0
298,301,302,301,0
299,299,304,304,0
300,299,307,307,0
301,300,310,311,0
302,303,313,314,0
303,306,315,316,0
302,309,317,318,0
301,310,317,319,0
300,307,317,318,0
298,303,315,316,0
297,297,313,313,0
298,292,310,310,0
300,288,307,307,0
304,288,305,304,0
308,291,304,302,0
309,294,303,301,0
310,298,302,302,0
310,303,301,302,0
310,310,300,303,0
309,316,300,305,0
308,318,301,307,0
307,318,303,309,0
306,317,306,312,0
307,316,309,315,0
308,317,312,317,0
308,322,315,319,0
310,332,319,320,0
313,347,321,321,0
317,363,323,320,0
321,376,324,320,0
324,377,324,318,0
323,363,322,317,0
319,345,318,317,0
316,327,313,316,0
312,307,308,315,0
309,285,303,313,0
305,267,300,311,0
300,253,297,308,0
296,243,293,305,0
292,237,290,301,0
290,236,289,297,0
290,245,289,295,0
292,260,292,295,0
296,279,295,298,0
302,299,298,302,0
309,319,303,305,0
315,335,309,307,0
319,347,316,309,0
318,350,321,310,0
313,343,324,311,0
306,332,323,311,0
299,321,320,310,0
294,314,316,308,0
291,309,311,305,0
290,305,306,302,0
290,301,302,297,0
293,297,299,292,0
296,294,296,290,0
300,296,295,288,0
303,301,296,289,0
304,306,299,292,0
305,311,303,294,0
305,313,308,297,0
305,313,310,300,0
304,313,312,302,0
304,315,313,305,0
303,318,313,308,0
302,319,312,311,0
301,317,311,312,0
301,314,309,313,0
302,312,307,312,0
305,310,305,311,0
307,306,303,308,0
308,302,301,305,0
309,300,301,305,0
312,299,302,305,0
315,296,304,305,0
317,294,308,304,0
318,293,310,304,0
317,296,311,305,0
315,304,311,307,0
311,313,307,308,0
305,322,303,310,0
301,331,302,312,0
299,341,304,315,0
299,348,308,317,0
302,351,312,320,0
307,346,314,321,0
309,330,316,320,0
308,306,315,318,0
305,285,313,314,0
302,272,311,311,0
301,270,308,308,0
301,276,306,305,0
300,286,303,303,0
300,296,302,300,0
299,304,302,298,0
297,305,301,295,0
295,299,301,292,0
293,291,299,290,0
292,286,299,290,0
291,283,299,293,0
293,283,301,297,0
296,285,305,302,0
300,287,310,307,0
304,291,314,313,0
307,297,317,316,0
311,308,319,319,0
315,321,319,321,0
319,338,319,324,0
323,357,319,326,0
327,374,317,328,0
329,385,315,328,0
327,381,311,326,0
322,360,305,323,0
316,331,300,319,0
309,303,297,316,0
304,285,298,314,0
301,277,303,313,0
297,275,310,310,0
293,275,316,307,0
289,280,321,305,0
289,289,323,303,0
290,298,322,301,0
292,306,319,300,0
294,308,315,301,0
293,307,312,301,0
291,303,310,302,0
290,301,309,302,0
288,299,308,301,0
288,297,307,300,0
290,296,307,297,0
293,294,306,294,0
298,294,305,292,0
302,296,304,291,0
307,301,303,291,0
311,311,303,294,0
313,322,304,297,0
313,332,306,301,0
311,338,308,303,0
309,337,309,306,0
307,334,311,307,0
305,330,312,310,0
305,323,313,313,0
303,310,312,315,0
303,294,311,315,0
303,280,310,315,0
306,269,308,314,0
307,266,306,313,0
307,270,305,313,0
307,276,306,314,0
306,282,307,315,0
306,285,307,315,0
306,287,307,314,0
305,289,308,314,0
304,291,308,313,0
302,288,307,312,0
299,281,305,310,0
296,278,303,308,0
294,286,302,307,0
295,300,302,307,0
299,311,303,307,0
304,318,306,308,0
308,327,309,309,0
312,345,311,312,0
315,368,313,316,0
316,387,313,319,0
314,393,312,321,0
312,385,311,322,0
311,370,308,322,0
310,352,305,321,0
309,339,301,316,0
308,327,296,309,0
305,314,292,302,0
302,301,290,296,0
299,291,289,292,0
298,285,291,291,0
297,286,295,292,0
297,292,299,293,0
297,301,303,296,0
297,310,306,298,0
298,316,309,302,0
301,319,310,306,0
306,319,312,309,0
309,318,312,310,0
310,314,312,310,0
309,311,310,309,0
308,309,309,308,0
307,302,310,306,0
304,290,311,305,0
302,279,313,303,0
300,271,314,302,0
300,266,315,302,0
302,266,315,302,0
306,270,315,303,0
311,278,313,304,0
314,286,311,305,0
314,287,307,306,0
310,285,302,309,0
305,285,299,310,0
300,290,298,311,0
297,297,298,311,0
295,304,301,310,0
296,307,303,310,0
298,307,305,310,0
300,305,309,311,0
302,303,312,311,0
303,300,315,312,0
303,300,317,313,0
303,306,317,314,0
304,316,316,315,0
305,327,314,315,0
305,334,312,313,0
303,335,310,309,0
302,330,307,305,0
302,325,305,304,0
303,322,305,302,0
305,321,305,302,0
305,321,306,301,0
304,324,306,302,0
302,327,306,304,0
300,330,308,306,0
300,335,309,310,0
302,339,310,313,0
304,337,312,315,0
308,327,313,316,0
313,320,315,316,0
319,318,316,316,0
324,320,314,317,0
325,318,311,318,0
322,309,306,317,0
315,296,301,317,0
304,282,298,316,0
294,269,294,314,0
287,261,291,312,0
283,259,288,308,0
283,262,289,304,0
287,269,291,302,0
292,275,296,300,0
297,280,302,301,0
303,286,307,303,0
306,292,311,305,0
310,299,314,308,0
313,305,317,311,0
316,312,319,314,0
318,319,321,315,0
319,325,322,315,0
319,330,322,313,0
317,331,319,311,0
313,327,314,308,0
310,321,310,305,0
306,314,306,302,0
303,308,304,299,0
300,300,302,297,0
296,292,300,294,0
292,288,298,292,0
290,287,298,291,0
289,289,298,291,0
292,290,299,292,0
296,292,301,296,0
302,294,303,301,0
307,295,305,307,0
311,298,308,313,0
316,308,311,318,0
321,326,313,322,0
325,348,315,325,0
325,368,316,326,0
324,375,316,326,0
322,370,317,326,0
320,360,318,325,0
320,351,320,324,0
321,340,323,321,0
320,329,325,317,0
317,318,326,313,0
313,311,326,309,0
310,309,325,306,0
308,306,323,304,0
306,297,319,302,0
305,283,315,301,0
304,271,309,301,0
303,266,303,302,0
301,269,299,303,0
301,276,297,306,0
302,283,298,310,0
303,287,300,313,0
305,287,303,315,0
307,280,304,317,0
308,272,304,317,0
309,268,304,318,0
309,270,304,318,0
308,276,303,314,0
307,284,302,309,0
305,293,301,303,0
304,302,300,299,0
305,310,300,296,0
305,315,301,294,0
303,319,301,295,0
303,323,302,298,0
303,326,305,301,0
304,325,307,305,0
304,323,307,309,0
304,321,307,313,0
305,327,307,318,0
306,337,309,323,0
307,346,311,326,0
307,348,313,329,0
306,344,315,330,0
306,335,316,330,0
309,325,316,329,0
312,317,315,326,0
314,307,314,322,0
313,301,310,318,0
311,301,305,314,0
308,311,301,311,0
305,326,299,309,0
304,339,299,309,0
305,350,299,310,0
308,361,302,310,0
311,365,305,309,0
313,354,306,307,0
309,324,306,304,0
305,287,306,302,0
303,257,306,303,0
301,240,306,303,0
299,235,305,305,0
297,241,305,307,0
297,250,306,309,0
299,261,307,310,0
301,270,310,310,0
302,273,313,308,0
303,272,317,306,0
303,268,319,304,0
302,267,318,301,0
299,269,317,299,0
298,275,315,298,0
298,281,313,297,0
300,285,311,298,0
303,289,310,300,0
306,293,309,301,0
308,294,307,302,0
306,293,306,303,0
304,293,307,303,0
302,291,306,304,0
300,287,305,306,0
301,283,305,307,0
301,281,306,309,0
301,286,305,309,0
301,296,305,309,0
300,309,303,308,0
298,323,300,307,0
294,332,299,305,0
291,334,299,303,0
290,331,300,300,0
293,324,303,298,0
298,318,305,298,0
303,313,306,298,0
309,311,307,301,0
314,313,308,303,0
316,318,308,306,0
316,322,308,308,0
314,324,308,311,0
313,323,308,313,0
310,318,308,314,0
308,310,308,314,0
306,303,309,315,0
306,298,311,316,0
307,295,314,317,0
306,296,315,317,0
306,300,316,318,0
307,311,313,318,0
309,329,310,319,0
313,355,309,320,0
318,387,309,321,0
323,414,308,322,0
326,430,307,321,0
323,425,304,319,0
315,393,299,315,0
304,348,293,311,0
294,305,290,308,0
287,270,290,306,0
283,248,292,306,0
282,235,296,307,0
283,231,299,309,0
284,233,302,310,0
287,238,304,310,0
291,247,307,312,0
297,261,309,312,0
301,278,310,313,0
306,293,311,314,0
309,303,312,315,0
310,306,311,315,0
309,306,309,313,0
306,305,307,310,0
303,302,304,307,0
301,299,302,304,0
300,295,300,302,0
300,292,299,301,0
301,289,299,301,0
303,286,300,302,0
303,284,300,303,0
302,283,300,304,0
301,283,301,306,0
301,286,303,310,0
301,291,307,314,0
302,296,312,318,0
304,300,316,322,0
307,306,319,323,0
311,311,320,322,0
315,317,319,319,0
318,322,317,314,0
319,326,313,309,0
317,327,308,303,0
312,325,304,298,0
307,320,300,293,0
303,314,298,291,0
302,307,299,289,0
301,300,300,288,0
301,294,299,289,0
301,291,299,290,0
302,293,301,293,0
304,300,305,298,0
307,305,309,303,0
309,305,313,307,0
309,299,314,310,0
307,291,314,310,0
305,285,313,311,0
304,287,310,312,0
304,297,308,313,0
305,310,306,314,0
305,324,305,315,0
306,336,305,316,0
306,343,305,316,0
306,341,305,316,0
307,336,304,315,0
309,333,304,315,0
312,329,304,314,0
313,319,305,311,0
310,304,305,308,0
306,288,305,304,0
303,275,303,302,0
299,271,303,300,0
297,274,303,300,0
296,281,304,302,0
297,287,304,305,0
297,292,305,309,0
297,296,305,311,0
296,300,306,313,0
296,307,308,315,0
297,314,310,316,0
299,321,310,317,0
303,324,309,316,0
307,325,308,314,0
309,327,307,311,0
310,329,306,308,0
311,330,304,306,0
311,328,302,304,0
309,320,300,303,0
308,312,300,302,0
308,306,301,302,0
309,303,302,304,0
308,299,302,306,0
305,293,303,309,0
304,289,305,314,0
303,290,306,318,0
303,294,307,320,0
304,299,308,322,0
304,305,308,322,0
304,314,307,322,0
305,324,306,322,0
307,333,306,324,0
309,337,307,323,0
309,333,306,318,0
307,322,305,312,0
304,313,303,307,0
303,307,302,303,0
302,304,300,301,0
299,302,297,299,0
297,305,295,298,0
296,312,295,298,0
297,320,298,301,0
298,326,303,303,0
299,327,308,306,0
299,321,311,310,0
297,312,313,313,0
296,305,313,315,0
297,301,313,318,0
300,299,311,318,0
303,300,309,319,0
305,302,308,319,0
307,300,307,319,0
308,292,306,316,0
308,279,304,312,0
308,264,301,307,0
307,253,299,303,0
306,250,297,299,0
306,257,296,296,0
306,275,298,295,0
307,296,301,295,0
309,313,304,297,0
310,322,307,298,0
312,324,309,300,0
313,322,311,302,0
312,320,313,304,0
311,317,313,305,0
308,316,311,308,0
306,315,311,311,0
307,315,311,315,0
309,314,313,317,0
313,315,313,317,0
317,320,311,317,0
318,329,309,317,0
318,341,306,316,0
317,355,305,316,0
317,364,305,315,0
317,367,306,314,0
320,369,308,314,0
324,374,311,316,0
328,380,312,317,0
331,380,312,318,0
329,362,310,317,0
322,326,307,315,0
314,282,304,312,0
305,243,302,310,0
299,217,300,311,0
296,207,298,312,0
293,213,297,312,0
291,230,295,311,0
287,251,292,309,0
282,270,291,306,0
280,287,290,305,0
279,301,292,303,0
283,309,294,302,0
290,316,298,300,0
298,318,301,299,0
305,317,302,298,0
308,316,303,297,0
310,315,304,297,0
311,314,304,298,0
312,314,306,300,0
314,315,309,302,0
315,317,311,304,0
315,318,313,306,0
315,314,315,309,0
314,308,316,311,0
313,300,318,313,0
313,293,319,314,0
312,287,319,314,0
312,285,318,315,0
312,285,316,315,0
310,286,313,313,0
308,288,311,311,0
305,289,309,309,0
303,291,306,306,0
302,292,304,305,0
302,291,301,305,0
302,292,301,304,0
303,296,300,305,0
305,307,300,305,0
309,324,300,307,0
312,341,299,308,0
316,354,300,308,0
318,356,305,308,0
317,348,311,309,0
315,336,317,311,0
311,324,320,311,0
309,314,320,311,0
307,307,317,311,0
307,304,314,311,0
310,304,312,313,0
316,313,311,316,0
322,335,314,318,0
328,365,316,321,0
330,386,316,321,0
324,388,314,318,0
312,371,310,313,0
299,340,304,310,0
289,308,300,307,0
286,283,296,306,0
287,268,294,308,0
291,261,295,310,0
295,257,297,311,0
297,255,300,313,0
300,252,303,315,0
302,249,304,317,0
303,249,304,317,0
304,252,304,316,0
306,256,306,314,0
306,260,307,311,0
306,267,308,308,0
306,274,309,305,0
305,281,309,302,0
302,289,308,298,0
297,299,307,295,0
292,310,305,292,0
289,318,302,290,0
287,324,298,288,0
288,325,295,288,0
291,324,295,288,0
295,322,298,290,0
300,321,301,294,0
305,322,305,298,0
311,325,310,302,0
317,329,314,307,0
322,332,317,311,0
326,334,318,314,0
328,334,318,316,0
328,332,317,316,0
325,326,316,315,0
321,321,314,315,0
317,320,311,314,0
312,319,307,311,0
307,318,304,308,0
302,318,302,305,0
299,320,301,303,0
298,315,299,301,0
296,303,298,299,0
295,291,298,298,0
295,283,298,296,0
296,280,299,296,0
297,280,302,298,0
299,283,305,299,0
301,287,309,300,0
301,290,313,301,0
302,293,315,302,0
303,298,317,303,0
303,305,318,305,0
304,314,318,307,0
302,322,317,307,0
300,327,316,305,0
297,332,315,303,0
295,333,313,301,0
295,329,310,298,0
297,320,307,295,0
300,309,302,294,0
302,297,298,293,0
303,287,295,295,0
305,280,294,298,0
309,283,296,302,0
313,297,299,306,0
316,320,303,310,0
318,344,308,313,0
318,358,311,315,0
316,361,313,318,0
313,352,312,320,0
312,339,312,322,0
310,326,311,323,0
306,316,309,323,0
305,313,308,323,0
304,315,307,320,0
305,314,309,316,0
305,309,311,311,0
307,301,312,305,0
308,293,313,300,0
307,287,312,296,0
304,282,311,292,0
300,278,307,289,0
297,274,303,288,0
297,270,299,288,0
298,269,295,288,0
300,271,294,291,0
303,280,296,295,0
308,297,299,300,0
314,319,303,304,0
318,335,306,306,0
318,338,307,307,0
315,329,306,307,0
311,314,307,308,0
309,299,308,309,0
308,287,309,309,0
307,278,309,310,0
306,272,308,309,0
304,271,305,309,0
302,271,302,309,0
300,269,299,309,0
300,268,297,309,0
301,266,296,309,0
303,266,297,310,0
303,268,299,310,0
301,272,300,311,0
300,281,301,311,0
300,297,303,312,0
302,314,305,314,0
304,328,307,315,0
306,335,308,316,0
308,340,308,316,0
311,343,309,317,0
314,347,309,317,0
315,348,308,315,0
315,344,306,313,0
312,339,303,311,0
308,336,300,309,0
305,341,299,307,0
305,350,301,306,0
308,357,304,305,0
312,357,308,306,0
317,350,310,307,0
319,338,310,307,0
316,318,308,305,0
308,292,305,303,0
299,269,303,302,0
291,260,302,302,0
288,260,303,302,0
288,266,305,303,0
290,273,306,305,0
294,281,308,308,0
299,290,310,311,0
303,300,311,313,0
306,308,312,314,0
308,314,313,314,0
308,318,312,312,0
309,320,311,310,0
310,316,309,306,0
311,311,305,302,0
313,306,303,298,0
314,303,301,295,0
313,302,299,294,0
307,303,297,292,0
300,303,296,293,0
295,305,298,296,0
291,311,302,300,0
289,318,306,304,0
289,324,309,308,0
293,328,309,312,0
298,327,309,314,0
303,323,309,314,0
308,322,308,315,0
313,325,308,316,0
316,329,309,317,0
318,331,309,316,0
318,327,310,315,0
316,317,311,312,0
314,303,310,309,0
310,289,308,307,0
307,281,306,305,0
303,277,304,304,0
301,279,302,305,0
302,285,300,307,0
304,293,298,310,0
308,303,297,313,0
312,314,297,317,0
316,323,299,319,0
318,326,302,320,0
319,323,306,322,0
318,318,309,323,0
317,315,311,323,0
316,313,312,322,0
313,314,310,319,0
310,320,309,316,0
308,329,308,313,0
306,332,306,308,0
304,327,304,304,0
302,317,300,300,0
300,308,296,296,0
299,305,295,293,0
298,307,295,292,0
295,306,295,291,0
291,297,295,291,0
289,288,295,292,0
289,282,295,294,0
292,281,295,296,0
298,285,294,299,0
305,294,296,303,0
311,306,299,308,0
315,318,304,312,0
317,323,310,315,0
317,320,314,316,0
315,313,316,315,0
314,305,316,314,0
312,298,315,313,0
311,292,312,313,0
311,290,309,312,0
314,294,307,312,0
319,304,306,312,0
325,320,304,313,0
329,339,302,313,0
331,355,300,312,0
326,355,297,309,0
317,344,295,305,0
306,326,295,302,0
297,309,298,300,0
292,295,301,299,0
288,287,303,300,0
286,285,304,301,0
286,286,305,304,0
288,286,307,306,0
293,286,309,309,0
297,291,310,311,0
300,303,309,312,0
301,320,307,311,0
302,338,304,309,0
303,350,301,305,0
304,351,299,302,0
304,341,297,298,0
304,330,298,296,0
306,317,300,294,0
308,303,302,294,0
309,291,304,295,0
308,284,306,296,0
304,285,307,298,0
299,290,308,301,0
294,301,308,306,0
293,315,309,310,0
293,324,308,313,0
297,325,308,314,0
302,321,308,315,0
307,315,308,314,0
308,307,307,313,0
307,298,305,312,0
305,291,304,310,0
304,287,305,309,0
304,284,307,307,0
305,283,308,305,0
307,283,309,304,0
309,285,308,303,0
311,288,307,302,0
311,294,305,301,0
308,302,301,300,0
305,310,297,300,0
303,315,295,300,0
302,319,296,301,0
304,329,300,304,0
310,343,305,309,0
316,355,311,315,0
319,360,314,319,0
317,352,316,321,0
314,338,317,321,0
313,320,318,321,0
314,302,320,319,0
316,290,321,318,0
319,284,320,317,0
323,287,319,318,0
326,292,317,317,0
326,285,312,313,0
320,272,304,307,0
310,267,296,302,0
303,275,293,297,0
298,287,292,294,0
296,293,296,291,0
295,295,301,290,0
295,296,305,289,0
295,299,307,290,0
296,307,308,291,0
298,316,311,294,0
300,320,314,298,0
302,316,318,302,0
304,307,321,307,0
306,298,322,311,0
307,291,322,314,0
308,286,320,316,0
309,283,317,318,0
310,282,314,318,0
310,285,310,317,0
310,289,306,315,0
308,295,303,311,0
307,300,301,307,0
306,305,299,303,0
304,311,298,299,0
303,317,297,298,0
303,327,296,298,0
303,338,297,300,0
306,347,299,303,0
309,351,301,306,0
311,345,302,308,0
311,329,303,310,0
310,311,303,310,0
311,294,304,311,0
313,282,305,311,0
317,276,306,310,0
320,275,309,310,0
322,278,312,310,0
319,281,314,309,0
312,285,313,306,0
303,292,310,304,0
296,301,307,302,0
291,309,305,302,0
287,315,304,302,0
286,320,303,302,0
290,323,303,303,0
296,325,303,304,0
304,325,304,307,0
312,326,306,311,0
320,329,306,314,0
325,331,307,318,0
326,335,307,320,0
325,338,307,321,0
320,334,306,319,0
313,328,304,315,0
307,323,304,310,0
304,319,305,306,0
305,314,307,301,0
308,308,310,297,0
311,299,311,295,0
314,288,311,293,0
316,277,311,293,0
317,266,310,292,0
314,252,307,291,0
311,240,302,289,0
308,236,299,287,0
306,246,299,287,0
307,265,300,290,0
308,283,303,294,0
309,294,304,299,0
311,298,305,304,0
312,299,307,309,0
314,303,309,314,0
315,311,312,318,0
316,323,313,320,0
317,335,313,321,0
318,340,313,322,0
317,334,313,320,0
315,322,312,317,0
313,309,311,312,0
309,301,311,307,0
304,295,310,301,0
299,291,308,298,0
295,288,306,296,0
295,287,306,296,0
298,290,306,298,0
303,301,307,301,0
309,316,308,304,0
312,335,308,307,0
314,350,307,309,0
312,351,306,310,0
307,343,306,311,0
301,333,304,311,0
296,324,304,311,0
295,318,304,312,0
296,314,305,312,0
298,308,305,312,0
301,304,305,312,0
304,306,304,312,0
307,310,303,310,0
309,311,301,308,0
310,312,300,305,0
308,315,299,303,0
304,314,299,301,0
299,307,300,301,0
293,295,301,300,0
288,279,303,299,0
286,266,304,300,0
286,260,305,302,0
290,260,304,304,0
297,267,304,307,0
302,280,305,309,0
305,297,307,313,0
307,314,308,316,0
308,327,309,317,0
307,335,309,317,0
305,335,308,316,0
302,330,307,313,0
300,326,307,310,0
297,325,305,308,0
293,325,304,305,0
290,326,303,304,0
288,323,301,304,0
286,318,301,305,0
287,313,301,308,0
290,307,301,309,0
294,299,299,309,0
298,291,296,308,0
299,286,294,308,0
300,284,295,309,0
303,289,298,313,0
307,297,303,318,0
312,305,307,322,0
316,314,309,323,0
319,322,309,323,0
322,328,310,322,0
323,330,311,320,0
322,327,312,317,0
319,319,313,313,0
316,306,312,311,0
312,291,310,307,0
308,276,307,304,0
306,263,305,303,0
305,255,304,303,0
306,257,304,305,0
307,269,304,307,0
309,285,305,310,0
313,302,307,314,0
317,318,308,318,0
320,330,308,321,0
320,336,306,322,0
317,332,304,321,0
312,317,303,320,0
304,298,303,318,0
298,284,303,318,0
295,278,304,318,0
294,279,305,318,0
296,287,307,318,0
298,300,308,317,0
300,314,310,317,0
302,326,310,316,0
304,337,309,315,0
306,341,307,313,0
307,340,304,311,0
307,335,299,308,0
306,324,295,305,0
302,311,291,302,0
298,299,289,301,0
295,291,288,301,0
294,286,289,303,0
295,286,291,306,0
297,288,295,308,0
298,290,300,311,0
300,293,307,314,0
303,298,316,315,0
305,303,323,316,0
305,305,326,317,0
305,304,325,316,0
304,300,319,314,0
303,295,311,310,0
301,289,303,307,0
299,284,297,304,0
298,283,293,302,0
297,283,292,300,0
299,284,292,301,0
300,286,295,303,0
301,288,298,305,0
302,292,301,309,0
301,296,304,312,0
302,303,307,315,0
304,316,310,318,0
309,334,313,321,0
314,354,316,324,0
317,369,318,326,0
314,374,316,325,0
308,372,312,321,0
303,364,305,316,0
302,353,301,311,0
304,342,297,307,0
306,331,294,303,0
307,318,292,301,0
306,305,290,300,0
304,293,289,298,0
302,283,290,298,0
301,273,293,299,0
301,264,298,300,0
302,259,304,303,0
304,259,311,306,0
308,267,316,311,0
314,286,319,316,0
321,316,320,320,0
326,347,319,321,0
329,368,317,321,0
328,375,314,320,0
326,363,312,318,0
321,338,311,316,0
316,311,309,314,0
311,288,307,312,0
305,268,305,310,0
301,254,304,308,0
300,249,303,307,0
302,255,303,306,0
305,269,302,304,0
308,287,301,301,0
308,295,299,299,0
305,294,297,297,0
300,289,296,296,0
296,285,296,297,0
293,284,298,300,0
293,286,300,304,0
294,290,303,310,0
296,295,306,315,0
299,300,308,319,0
302,305,310,322,0
305,310,311,323,0
308,313,311,321,0
310,315,311,318,0
310,314,310,315,0
309,313,308,312,0
308,312,305,309,0
307,314,301,306,0
306,318,298,303,0
305,322,295,300,0
303,322,294,299,0
301,315,293,298,0
299,305,292,297,0
298,297,292,298,0
298,295,294,300,0
298,299,297,303,0
299,308,300,307,0
301,319,305,312,0
303,330,312,316,0
304,336,317,318,0
305,341,319,319,0
305,346,317,318,0
307,350,314,315,0
309,350,312,313,0
312,344,309,311,0
312,334,307,307,0
312,321,305,304,0
311,309,302,302,0
309,299,299,299,0
309,295,297,298,0
309,293,295,298,0
309,290,295,299,0
308,279,296,301,0
307,266,298,304,0
307,260,301,307,0
307,267,303,310,0
308,286,305,315,0
309,306,307,319,0
310,320,308,322,0
312,329,306,324,0
312,330,304,324,0
311,327,302,324,0
307,320,301,323,0
302,312,302,320,0
297,303,305,316,0
294,292,309,311,0
293,283,311,306,0
294,279,313,301,0
298,281,313,298,0
302,287,311,295,0
305,293,307,292,0
304,296,302,289,0
301,296,298,287,0
300,298,295,287,0
300,298,294,288,0
302,298,295,289,0
305,297,298,291,0
309,296,302,293,0
313,298,306,296,0
317,302,312,300,0
321,309,317,305,0
324,319,321,309,0
325,331,323,313,0
326,346,322,314,0
327,363,319,316,0
328,380,315,316,0
330,390,310,313,0
329,383,304,308,0
322,354,298,302,0
313,316,294,299,0
304,284,291,297,0
297,262,290,295,0
292,250,291,294,0
291,248,293,294,0
291,254,296,296,0
293,261,299,298,0
296,271,300,300,0
298,284,299,301,0
299,298,297,302,0
300,305,294,303,0
300,304,294,303,0
301,299,294,303,0
302,295,297,304,0
304,296,302,305,0
307,300,308,306,0
310,309,315,307,0
312,319,319,307,0
313,327,321,307,0
314,330,320,307,0
315,330,318,306,0
316,330,314,307,0
314,329,311,307,0
309,325,307,306,0
302,316,302,305,0
296,303,300,305,0
292,292,299,305,0
291,288,301,307,0
294,291,303,310,0
299,298,306,313,0
303,306,307,315,0
305,313,308,317,0
307,318,308,319,0
308,319,308,319,0
308,313,308,318,0
307,304,308,317,0
305,299,309,316,0
304,299,308,314,0
302,300,307,311,0
301,304,306,308,0
302,307,304,304,0
305,309,304,302,0
308,310,304,300,0
311,314,304,300,0
313,316,305,300,0
313,316,305,300,0
312,311,304,301,0
311,304,305,302,0
310,299,306,304,0
308,301,308,308,0
307,307,312,312,0
308,313,316,315,0
308,318,321,318,0
310,322,325,321,0
314,330,328,322,0
319,342,328,321,0
322,355,326,318,0
325,364,321,314,0
326,368,313,309,0
324,370,306,306,0
320,366,301,304,0
313,350,297,301,0
302,329,294,298,0
292,307,292,295,0
287,285,291,292,0
287,267,292,292,0
290,254,294,293,0
296,247,298,295,0
300,246,301,298,0
302,249,304,299,0
301,255,307,301,0
299,261,309,302,0
296,266,310,302,0
295,272,310,303,0
295,277,309,304,0
296,282,309,304,0
298,287,307,304,0
299,292,305,304,0
300,297,300,303,0
302,306,295,301,0
305,317,291,301,0
309,332,290,302,0
312,345,292,304,0
314,353,297,307,0
314,352,302,310,0
315,346,305,313,0
314,335,307,316,0
313,322,309,319,0
310,313,311,322,0
307,309,313,323,0
303,308,314,322,0
299,310,312,320,0
295,309,308,317,0
294,303,304,315,0
295,298,302,314,0
297,296,299,313,0
300,297,298,312,0
302,300,296,309,0
302,304,296,306,0
302,308,296,303,0
301,307,297,300,0
299,298,297,298,0
298,288,296,298,0
297,281,297,300,0
297,278,298,303,0
300,278,300,308,0
305,281,304,313,0
312,288,308,318,0
320,294,312,320,0
322,294,317,319,0
321,290,320,316,0
317,287,320,313,0
313,290,319,310,0
309,295,318,307,0
305,298,314,303,0
302,300,310,299,0
299,302,306,297,0
297,303,303,296,0
296,304,301,293,0
296,307,298,292,0
297,312,296,293,0
300,319,294,294,0
303,329,293,297,0
307,339,294,300,0
310,344,295,302,0
311,342,296,304,0
311,337,298,305,0
310,331,301,306,0
308,325,304,305,0
306,320,307,304,0
303,314,311,305,0
300,308,314,307,0
298,304,318,310,0
299,304,321,312,0
305,312,324,314,0
311,326,324,314,0
314,334,321,314,0
314,330,315,312,0
311,312,307,310,0
306,291,300,307,0
302,277,295,307,0
300,274,292,307,0
299,284,290,308,0
300,299,290,309,0
300,311,292,309,0
301,314,295,309,0
301,311,298,310,0
301,304,302,311,0
303,297,305,312,0
305,292,308,313,0
309,290,310,314,0
311,291,310,313,0
312,295,308,312,0
309,300,305,311,0
305,304,301,309,0
300,303,298,308,0
297,295,297,307,0
297,287,296,305,0
297,281,296,304,0
298,278,295,304,0
300,280,294,303,0
301,286,293,303,0
302,292,292,304,0
302,301,293,304,0
303,311,297,306,0
304,319,302,309,0
305,324,309,313,0
306,326,313,317,0
308,330,317,321,0
310,334,319,324,0
315,337,319,324,0
320,336,319,321,0
325,334,319,318,0
327,329,318,314,0
328,324,317,310,0
327,323,314,307,0
323,322,311,304,0
318,315,306,300,0
311,304,302,298,0
304,294,300,297,0
299,284,298,297,0
296,279,298,297,0
295,280,301,299,0
297,286,307,301,0
301,295,312,304,0
304,303,316,307,0
304,306,317,308,0
302,305,317,307,0
300,307,316,307,0
300,314,314,306,0
302,324,313,305,0
303,327,311,305,0
304,320,308,304,0
304,314,307,304,0
304,315,306,305,0
305,324,305,306,0
306,334,305,307,0
306,338,304,306,0
305,334,303,306,0
305,327,302,306,0
306,319,304,307,0
307,313,308,308,0
307,307,313,308,0
306,297,317,307,0
303,285,319,306,0
300,274,319,306,0
297,271,317,305,0
295,274,314,305,0
293,284,311,305,0
294,296,310,306,0
297,309,310,309,0
301,317,310,311,0
304,320,309,312,0
307,318,308,313,0
310,311,307,313,0
311,304,306,312,0
310,299,305,310,0
307,295,303,309,0
303,294,301,308,0
299,297,301,307,0
296,302,301,308,0
294,304,302,307,0
294,306,302,306,0
295,314,302,306,0
298,327,303,306,0
301,342,305,307,0
305,350,306,309,0
308,348,307,311,0
309,342,308,313,0
309,336,308,314,0
308,325,307,313,0
307,311,307,314,0
307,302,307,315,0
307,297,308,314,0
308,295,308,314,0
308,293,307,313,0
307,290,306,310,0
305,286,305,308,0
302,282,301,305,0
298,280,299,302,0
295,278,297,299,0
294,276,297,298,0
294,275,297,298,0
296,278,300,297,0
299,281,304,297,0
304,284,306,298,0
307,285,309,299,0
309,289,310,301,0
310,297,309,302,0
308,306,307,305,0
305,316,304,307,0
302,323,300,308,0
302,327,296,310,0
304,330,295,312,0
307,332,295,314,0
310,334,297,314,0
312,333,300,313,0
313,328,303,311,0
312,322,306,307,0
311,316,308,303,0
311,310,307,300,0
310,305,304,297,0
309,303,301,295,0
310,303,299,295,0
311,304,298,298,0
312,307,299,302,0
315,311,300,307,0
319,315,303,313,0
322,315,304,316,0
323,311,305,318,0
324,306,305,320,0
324,306,306,321,0
323,311,307,321,0
322,319,308,320,0
319,323,308,319,0
314,319,307,314,0
307,309,305,309,0
301,299,302,305,0
298,291,299,301,0
297,286,297,297,0
298,284,294,294,0
300,288,293,292,0
301,296,293,292,0
305,309,295,293,0
309,328,297,296,0
313,349,301,299,0
317,364,304,304,0
318,365,307,308,0
316,348,311,311,0
314,329,313,313,0
312,315,315,315,0
311,308,316,315,0
311,302,315,315,0
311,299,314,314,0
312,298,313,314,0
312,297,311,314,0
312,293,308,312,0
310,286,307,310,0
308,276,306,308,0
307,269,306,306,0
306,268,306,305,0
305,270,305,304,0
305,274,304,303,0
304,281,302,303,0
303,292,301,303,0
305,309,303,304,0
309,327,305,307,0
313,342,307,310,0
316,352,309,313,0
317,358,310,315,0
315,362,311,316,0
313,368,311,317,0
313,374,313,318,0
315,379,314,319,0
316,377,313,318,0
315,363,309,314,0
311,336,304,309,0
305,306,298,304,0
300,279,294,300,0
296,260,292,298,0
294,249,294,296,0
293,244,299,296,0
293,245,304,296,0
293,250,308,298,0
294,256,310,301,0
296,261,310,303,0
299,267,310,307,0
303,277,310,310,0
307,291,311,314,0
311,306,313,317,0
314,318,315,319,0
313,321,315,318,0
310,319,313,317,0
306,315,310,316,0
304,315,306,313,0
302,318,302,311,0
300,321,298,308,0
299,319,296,304,0
300,311,293,301,0
301,297,291,298,0
303,284,290,297,0
304,274,291,297,0
306,269,294,298,0
307,271,295,299,0
308,276,297,300,0
307,281,298,301,0
305,287,298,302,0
304,296,298,303,0
305,306,300,306,0
307,316,302,309,0
311,322,303,313,0
314,325,305,315,0
318,328,309,318,0
320,336,312,320,0
320,349,315,321,0
320,363,314,320,0
320,374,313,319,0
322,380,311,318,0
324,373,307,315,0
324,352,302,312,0
321,324,298,307,0
316,299,296,303,0
311,287,294,299,0
304,281,293,296,0
297,275,292,294,0
293,270,292,293,0
291,266,294,294,0
293,266,297,298,0
297,268,301,302,0
303,271,306,305,0
310,278,311,306,0
316,287,314,307,0
319,298,315,308,0
318,309,313,309,0
315,321,312,309,0
312,334,311,309,0
310,346,310,310,0
311,354,310,310,0
313,355,311,311,0
315,351,312,311,0
315,342,313,311,0
315,326,313,309,0
311,304,311,306,0
307,283,309,304,0
304,268,308,303,0
302,260,308,303,0
300,256,307,305,0
300,261,307,308,0
301,274,307,312,0
303,291,308,315,0
306,306,308,319,0
310,314,309,321,0
312,313,311,322,0
312,310,313,321,0
309,307,315,319,0
305,304,317,316,0
300,298,318,312,0
295,291,318,307,0
291,286,316,304,0
291,285,314,303,0
294,289,312,303,0
299,298,310,305,0
304,310,308,306,0
306,325,306,308,0
307,340,304,307,0
305,348,301,307,0
303,351,299,306,0
301,349,299,306,0
302,344,300,308,0
303,333,302,309,0
307,316,304,310,0
311,299,306,312,0
315,288,306,313,0
318,285,308,314,0
321,289,309,313,0
321,295,309,310,0
317,299,307,305,0
310,303,301,299,0
302,310,297,295,0
296,314,295,292,0
292,315,294,291,0
289,311,294,291,0
288,305,293,293,0
289,297,293,295,0
292,292,293,298,0
297,289,294,300,0
303,290,297,303,0
309,293,299,306,0
313,301,302,309,0
317,312,305,311,0
319,322,307,313,0
319,328,308,314,0
317,327,307,314,0
313,320,306,315,0
312,316,305,314,0
313,314,304,312,0
314,314,304,309,0
316,315,302,306,0
315,316,301,303,0
313,313,299,300,0
308,308,297,296,0
304,303,296,293,0
301,299,295,293,0
301,299,296,295,0
301,301,297,297,0
302,304,298,299,0
304,308,300,301,0
305,310,302,303,0
308,313,304,305,0
312,317,307,307,0
315,323,309,308,0
316,328,310,310,0
314,328,311,311,0
311,326,311,312,0
308,320,310,313,0
306,312,308,311,0
304,305,305,308,0
304,305,304,304,0
307,310,306,301,0
311,319,308,299,0
315,331,309,298,0
318,347,310,298,0
319,358,309,298,0
318,363,308,298,0
314,358,306,298,0
310,347,304,298,0
307,333,303,299,0
305,317,303,300,0
304,299,303,302,0
304,283,305,304,0
304,271,308,307,0
306,264,311,308,0
307,262,314,309,0
309,260,316,311,0
313,260,319,313,0
315,261,321,315,0
316,265,321,316,0
313,275,318,314,0
306,287,313,310,0
299,293,309,306,0
294,297,305,302,0
294,298,302,300,0
299,299,301,300,0
306,301,300,301,0
312,305,299,303,0
315,307,299,306,0
314,307,301,308,0
313,308,304,311,0
312,312,307,314,0
312,321,311,316,0
313,329,313,316,0
313,334,313,315,0
312,338,312,314,0
311,341,310,313,0
309,346,308,311,0
305,350,305,309,0
300,347,303,306,0
295,340,300,305,0
290,331,297,305,0
289,328,296,304,0
292,333,295,305,0
297,345,296,306,0
303,357,298,308,0
305,362,300,308,0
303,348,301,307,0
296,323,301,305,0
291,298,302,303,0
290,281,302,303,0
292,272,301,302,0
298,267,299,302,0
304,265,297,300,0
310,263,297,300,0
314,265,297,300,0
317,271,299,300,0
319,278,301,300,0
320,282,303,301,0
317,282,303,301,0
311,278,302,300,0
304,274,301,298,0
299,272,299,297,0
296,275,298,297,0
296,281,297,297,0
298,288,296,297,0
301,294,295,298,0
305,300,295,300,0
310,308,297,304,0
315,316,302,308,0
318,322,308,313,0
318,328,313,318,0
316,330,316,321,0
312,324,318,322,0
306,309,318,322,0
300,291,315,320,0
294,275,312,317,0
289,265,310,314,0
285,261,309,310,0
283,262,308,306,0
286,269,307,302,0
290,278,305,299,0
292,286,302,296,0
293,291,299,294,0
295,293,296,294,0
297,293,296,295,0
300,293,298,297,0
304,292,301,300,0
310,293,304,304,0
315,299,307,308,0
322,316,311,312,0
329,342,316,316,0
333,371,320,318,0
332,392,324,319,0
326,402,326,318,0
318,398,328,316,0
309,384,327,313,0
302,366,325,310,0
298,349,320,307,0
296,332,316,304,0
297,319,312,302,0
300,317,307,300,0
302,322,304,299,0
303,322,301,299,0
302,317,299,298,0
300,306,298,298,0
297,291,297,299,0
294,277,297,300,0
293,270,296,301,0
292,268,296,303,0
291,271,297,307,0
291,275,299,313,0
291,282,302,318,0
290,290,304,322,0
290,297,307,325,0
291,301,309,325,0
293,301,311,323,0
297,297,312,320,0
303,291,310,316,0
307,287,308,313,0
311,286,307,310,0
314,287,304,307,0
316,287,302,305,0
316,284,301,303,0
314,276,301,302,0
310,265,301,303,0
306,256,302,304,0
304,253,302,306,0
303,256,304,309,0
302,267,307,313,0
303,282,311,316,0
305,297,313,319,0
306,306,313,320,0
307,311,313,321,0
308,313,312,321,0
312,316,312,321,0
315,321,311,320,0
316,326,310,317,0
317,334,307,311,0
316,342,304,305,0
315,347,301,299,0
312,345,298,294,0
308,332,296,290,0
305,316,295,288,0
304,306,294,288,0
304,307,293,289,0
304,313,292,292,0
305,316,293,295,0
307,316,297,300,0
309,310,303,305,0
308,298,310,311,0
307,285,316,315,0
304,277,321,318,0
304,275,323,321,0
305,280,323,323,0
309,290,321,322,0
311,299,318,319,0
310,306,315,314,0
308,308,312,310,0
306,307,310,306,0
304,306,309,304,0
302,304,307,302,0
302,302,305,300,0
303,304,301,300,0
305,311,299,299,0
307,318,297,300,0
308,322,297,302,0
308,325,297,305,0
307,328,299,310,0
308,329,302,315,0
310,331,307,321,0
314,336,310,326,0
318,343,312,330,0
321,348,311,332,0
321,344,309,333,0
318,328,308,331,0
312,304,309,328,0
306,281,312,324,0
302,266,317,320,0
301,260,322,316,0
300,258,325,313,0
299,258,325,311,0
298,262,322,308,0
295,266,319,305,0
290,266,314,301,0
284,266,310,298,0
281,271,306,294,0
281,281,304,292,0
285,294,302,290,0
290,305,300,291,0
295,314,297,293,0
297,320,296,296,0
299,324,299,299,0
300,326,303,302,0
303,324,307,306,0
305,317,310,310,0
307,309,313,313,0
309,306,314,315,0
311,315,315,317,0
313,334,315,317,0
315,354,315,317,0
317,373,314,318,0
316,382,311,318,0
312,371,309,316,0
308,347,305,315,0
303,323,303,314,0
301,302,301,315,0
300,285,300,317,0
298,273,299,318,0
298,269,301,320,0
300,274,305,323,0
306,288,311,327,0
312,307,317,328,0
316,323,319,328,0
316,328,316,325,0
313,323,313,320,0
309,315,311,316,0
307,308,311,312,0
306,303,313,308,0
304,297,314,305,0
303,290,314,301,0
301,286,312,299,0
299,289,309,298,0
299,297,305,298,0
299,307,303,300,0
298,313,301,302,0
299,315,300,305,0
301,310,300,308,0
303,300,301,311,0
306,289,303,313,0
309,280,305,313,0
312,273,307,312,0
317,270,308,313,0
321,275,309,313,0
324,289,309,315,0
325,307,308,317,0
322,321,306,317,0
317,325,303,316,0
308,317,300,313,0
301,303,297,311,0
296,289,296,308,0
294,281,296,305,0
295,280,299,304,0
296,282,301,304,0
296,286,304,305,0
297,294,308,307,0
298,306,310,308,0
299,318,311,309,0
300,319,310,309,0
300,306,309,309,0
301,287,309,311,0
301,273,310,311,0
300,270,309,313,0
301,276,308,314,0
301,290,304,315,0
302,305,302,315,0
301,317,300,314,0
298,326,300,314,0
296,333,300,312,0
295,337,301,311,0
297,338,302,311,0
302,341,303,310,0
310,347,303,310,0
317,352,304,309,0
320,350,304,308,0
320,343,304,307,0
316,335,304,305,0
311,324,304,305,0
306,311,304,306,0
304,298,306,308,0
303,289,307,311,0
304,285,308,315,0
305,285,308,317,0
307,284,307,320,0
309,284,304,321,0
310,283,302,320,0
311,285,299,317,0
312,291,299,314,0
311,299,300,310,0
308,309,302,307,0
305,319,304,304,0
304,323,306,304,0
304,322,307,305,0
304,317,309,307,0
305,306,308,309,0
305,293,307,310,0
303,283,306,311,0
299,278,305,312,0
295,277,304,312,0
291,281,305,313,0
289,289,305,313,0
289,302,305,314,0
294,321,306,315,0
303,344,309,317,0
313,360,311,318,0
319,358,312,317,0
321,344,311,314,0
321,327,310,312,0
321,315,309,310,0
321,304,307,308,0
318,291,302,306,0
314,280,297,303,0
309,276,294,301,0
304,276,293,300,0
301,279,292,300,0
298,284,291,301,0
297,292,290,302,0
297,300,291,303,0
297,307,293,305,0
297,312,294,307,0
299,312,296,310,0
302,310,298,312,0
304,309,301,314,0
307,310,304,315,0
309,315,309,316,0
312,329,313,318,0
316,350,317,320,0
319,372,319,321,0
320,385,320,321,0
319,380,317,319,0
314,359,313,315,0
309,333,308,310,0
305,311,303,306,0
302,295,300,303,0
302,282,300,302,0
301,269,301,300,0
300,260,305,301,0
300,259,309,302,0
299,263,311,304,0
299,268,313,306,0
298,272,313,309,0
299,279,313,312,0
302,289,312,315,0
305,301,311,317,0
307,310,308,319,0
308,311,305,320,0
308,305,303,321,0
309,299,301,321,0
309,295,301,320,0
309,294,300,317,0
308,295,301,313,0
306,296,304,309,0
304,293,308,305,0
301,287,312,304,0
298,282,316,302,0
297,278,317,302,0
297,279,317,303,0
301,283,316,304,0
306,287,314,305,0
310,286,312,306,0
310,285,310,308,0
310,288,309,310,0
310,294,309,313,0
310,299,309,315,0
309,302,309,316,0
306,306,308,316,0
302,309,306,316,0
299,312,304,314,0
297,314,303,311,0
296,317,302,308,0
296,321,302,305,0
299,326,302,304,0
305,336,302,304,0
312,344,302,304,0
320,347,301,305,0
326,349,300,307,0
328,349,300,308,0
325,349,301,310,0
321,348,301,312,0
316,343,304,312,0
313,331,304,310,0
310,320,304,308,0
308,310,304,306,0
307,301,305,305,0
306,293,307,306,0
305,288,308,306,0
304,286,307,306,0
303,286,306,306,0
303,291,304,306,0
303,298,302,305,0
303,304,301,304,0
304,308,302,303,0
304,307,304,302,0
304,304,305,302,0
303,300,304,302,0
302,296,302,304,0
302,293,301,306,0
304,292,303,309,0
306,294,305,311,0
306,298,307,312,0
305,306,309,313,0
305,315,310,314,0
305,325,311,315,0
305,333,311,315,0
306,333,310,315,0
306,325,308,313,0
305,318,303,312,0
304,317,301,310,0
304,322,300,309,0
305,324,300,308,0
307,317,302,307,0
310,307,304,307,0
314,297,306,307,0
315,291,307,305,0
315,292,306,304,0
314,300,304,303,0
313,310,301,303,0
311,314,301,303,0
310,314,303,305,0
309,309,308,308,0
309,305,312,309,0
309,302,316,310,0
310,301,318,312,0
314,307,319,315,0
318,314,319,318,0
321,315,316,320,0
320,307,314,320,0
316,293,311,319,0
310,277,307,316,0
303,267,303,314,0
296,266,300,312,0
293,270,298,310,0
291,272,297,309,0
289,272,297,307,0
289,272,297,306,0
290,272,296,304,0
289,271,293,302,0
288,273,291,301,0
290,282,291,302,0
293,296,295,305,0
301,314,301,307,0
309,331,308,307,0
313,343,314,307,0
314,352,317,305,0
315,357,318,305,0
315,356,318,305,0
316,352,316,307,0
315,348,313,309,0
313,345,311,311,0
310,347,309,311,0
308,349,308,310,0
305,348,306,307,0
304,341,305,304,0
303,332,303,303,0
301,319,302,301,0
301,305,302,302,0
301,294,302,304,0
302,288,304,308,0
305,284,306,312,0
308,278,309,316,0
311,272,311,320,0
314,273,313,322,0
316,285,313,324,0
316,301,312,322,0
312,311,310,319,0
306,315,308,315,0
302,319,306,312,0
300,324,304,309,0
299,326,302,305,0
299,324,301,302,0
299,318,299,299,0
299,307,299,297,0
299,298,298,296,0
299,293,298,295,0
299,293,298,296,0
299,295,296,296,0
297,296,294,296,0
296,294,293,297,0
295,292,295,300,0
297,291,300,303,0
299,290,308,307,0
301,289,314,311,0
302,288,317,314,0
304,288,319,316,0
306,290,319,318,0
310,297,319,320,0
315,308,318,321,0
318,320,317,321,0
319,328,314,318,0
314,327,308,313,0
307,322,302,307,0
301,315,297,302,0
297,309,294,298,0
296,307,294,295,0
298,307,295,295,0
302,312,296,295,0
306,318,297,296,0
309,325,297,297,0
311,327,297,299,0
309,324,297,300,0
305,316,298,303,0
301,308,302,306,0
298,302,307,308,0
295,298,312,311,0
295,296,316,313,0
296,293,317,314,0
298,290,315,314,0
301,285,313,313,0
304,282,309,311,0
305,284,305,309,0
308,291,301,309,0
312,302,300,309,0
316,315,300,309,0
319,330,299,309,0
320,340,298,309,0
319,343,295,309,0
315,337,294,309,0
311,328,294,310,0
309,321,296,312,0
308,316,299,314,0
306,309,302,317,0
304,301,303,320,0
301,300,304,322,0
301,303,306,324,0
303,305,307,325,0
305,305,309,326,0
306,303,309,325,0
307,300,310,323,0
307,298,311,321,0
305,293,311,320,0
303,286,309,318,0
299,276,305,316,0
298,267,301,313,0
300,262,298,311,0
304,263,297,310,0
309,269,296,309,0
313,281,296,308,0
315,295,297,307,0
316,309,297,309,0
318,325,298,311,0
320,341,301,314,0
321,357,304,316,0
321,371,306,317,0
318,377,307,317,0
314,369,309,318,0
312,355,312,320,0
312,341,316,321,0
313,329,318,321,0
312,317,319,320,0
306,302,316,315,0
299,288,311,309,0
291,281,306,304,0
288,283,302,300,0
288,288,298,297,0
289,291,295,294,0
291,292,294,293,0
295,297,295,294,0
300,308,298,297,0
305,323,302,301,0
308,334,305,305,0
312,340,309,310,0
314,346,314,314,0
317,349,318,318,0
318,347,320,320,0
317,336,320,320,0
314,322,317,319,0
311,308,315,318,0
308,299,313,318,0
308,295,311,316,0
308,296,310,313,0
310,298,309,310,0
311,300,308,306,0
309,302,308,303,0
306,306,308,302,0
303,314,307,301,0
301,320,306,302,0
300,323,307,303,0
300,326,309,305,0
300,331,311,308,0
300,335,312,310,0
299,332,312,313,0
299,322,313,315,0
298,306,315,317,0
299,290,317,319,0
301,277,318,320,0
303,269,317,320,0
304,266,314,319,0
302,264,308,317,0
299,262,303,313,0
293,262,298,309,0
290,265,296,306,0
289,271,296,306,0
292,281,299,306,0
298,290,304,305,0
306,298,308,304,0
314,306,313,304,0
320,314,317,304,0
324,319,320,306,0
325,319,320,308,0
322,316,318,310,0
318,311,315,313,0
316,308,313,315,0
315,306,312,316,0
315,303,311,316,0
316,302,309,315,0
317,304,306,314,0
317,312,303,313,0
315,325,299,312,0
312,340,295,312,0
308,353,292,312,0
305,359,291,312,0
300,357,294,312,0
296,350,300,313,0
295,339,307,313,0
295,326,313,313,0
298,313,317,313,0
302,306,319,313,0
306,302,319,313,0
309,301,319,312,0
310,304,317,311,0
308,312,316,309,0
307,323,314,308,0
308,333,314,309,0
309,337,315,310,0
312,337,318,312,0
315,331,320,313,0
315,319,320,311,0
312,301,319,307,0
308,287,316,304,0
304,280,313,300,0
302,283,311,298,0
301,293,310,297,0
302,302,309,297,0
303,307,307,299,0
304,309,306,301,0
304,308,306,303,0
303,304,305,306,0
302,295,304,309,0
302,286,304,311,0
302,281,304,314,0
303,281,304,315,0
304,281,306,316,0
305,281,310,316,0
307,284,313,316,0
311,294,317,316,0
317,310,320,316,0
321,327,321,316,0
322,332,321,314,0
317,328,318,310,0
308,320,315,306,0
299,315,313,303,0
292,313,311,302,0
285,311,309,302,0
281,305,308,302,0
281,298,307,303,0
285,292,306,304,0
289,286,305,304,0
294,281,304,305,0
297,284,303,306,0
300,291,303,307,0
303,301,304,308,0
306,309,307,310,0
308,317,310,312,0
307,325,314,314,0
306,331,315,316,0
303,331,315,317,0
299,327,313,317,0
294,322,309,316,0
293,319,305,315,0
295,320,301,316,0
299,323,297,318,0
303,328,293,321,0
304,335,290,323,0
305,342,291,324,0
308,346,293,323,0
310,343,297,319,0
311,335,302,313,0
311,326,306,306,0
312,320,310,301,0
313,320,313,297,0
314,322,315,295,0
314,322,316,294,0
312,321,316,294,0
309,315,316,295,0
305,305,317,298,0
301,292,317,299,0
298,280,317,300,0
296,269,317,302,0
296,261,316,304,0
298,257,316,306,0
301,257,317,308,0
304,263,315,309,0
306,270,312,309,0
306,277,308,309,0
306,285,307,309,0
307,296,307,310,0
309,310,309,312,0
310,323,311,315,0
309,328,313,317,0
305,328,315,318,0
303,330,317,320,0
302,332,317,320,0
301,329,314,320,0
300,319,312,319,0
299,312,310,317,0
298,308,309,313,0
297,304,309,309,0
295,300,310,305,0
293,296,310,302,0
291,293,309,300,0
290,292,308,298,0
291,299,308,297,0
293,309,308,297,0
295,316,308,297,0
296,318,309,297,0
296,318,309,298,0
297,320,309,299,0
298,327,309,302,0
301,336,309,305,0
304,344,310,308,0
306,348,310,310,0
306,345,310,311,0
306,333,310,312,0
306,314,310,312,0
306,296,311,312,0
307,283,313,312,0
310,278,315,313,0
313,281,317,313,0
315,289,316,313,0
314,297,314,312,0
310,300,311,308,0
304,295,307,304,0
297,288,302,298,0
293,283,299,293,0
290,282,297,289,0
289,283,296,288,0
287,284,297,288,0
285,283,301,292,0
284,285,305,297,0
283,288,308,304,0
283,290,309,309,0
283,292,308,313,0
286,293,309,315,0
292,292,312,316,0
301,289,315,317,0
309,283,318,317,0
315,276,319,317,0
317,268,318,316,0
315,261,315,313,0
311,259,312,309,0
308,269,308,305,0
306,289,305,302,0
309,314,303,301,0
315,337,302,300,0
321,351,300,301,0
325,353,299,301,0
323,347,298,302,0
320,337,298,304,0
317,323,298,307,0
314,308,300,312,0
313,294,302,317,0
312,289,304,320,0
311,293,307,321,0
310,303,309,320,0
308,309,311,318,0
307,316,310,315,0
307,322,308,311,0
308,326,305,306,0
308,327,302,302,0
308,327,299,298,0
308,326,297,297,0
308,325,295,297,0
307,328,295,298,0
308,333,297,300,0
307,338,301,302,0
308,344,307,304,0
309,349,312,306,0
309,349,315,308,0
307,341,315,309,0
306,334,314,310,0
306,330,312,311,0
307,326,311,311,0
307,317,309,310,0
307,303,309,309,0
307,291,308,309,0
306,284,308,308,0
305,282,308,308,0
304,281,306,307,0
302,277,304,307,0
300,273,302,306,0
299,270,299,306,0
297,271,297,306,0
296,271,296,306,0
294,271,297,308,0
293,279,299,310,0
292,299,301,313,0
292,330,302,318,0
290,359,304,322,0
288,371,306,325,0
288,361,308,327,0
292,337,311,328,0
298,314,314,327,0
308,299,316,326,0
318,291,314,324,0
325,283,311,321,0
328,275,308,316,0
326,269,306,312,0
323,271,305,307,0
320,280,306,303,0
317,292,306,300,0
313,300,306,298,0
309,302,304,296,0
305,296,302,295,0
302,284,301,294,0
299,271,300,294,0
298,261,302,295,0
297,254,304,297,0
295,256,305,300,0
294,266,305,303,0
292,280,305,304,0
292,294,304,306,0
294,310,303,306,0
297,323,303,307,0
302,333,304,308,0
306,340,305,308,0
309,343,307,308,0
309,341,308,307,0
308,336,308,308,0
305,330,307,309,0
304,326,306,310,0
304,324,304,310,0
303,324,303,309,0
302,328,302,308,0
301,335,302,306,0
300,336,301,304,0
300,330,299,302,0
300,318,297,300,0
301,308,297,301,0
302,303,298,304,0
305,303,301,308,0
307,307,303,312,0
309,308,304,314,0
310,309,304,315,0
311,308,305,316,0
312,306,305,317,0
312,303,306,318,0
310,300,307,317,0
305,296,310,316,0
300,290,312,314,0
295,286,312,310,0
292,284,312,306,0
292,291,310,303,0
295,309,310,300,0
301,335,310,300,0
307,361,309,301,0
312,378,308,302,0
314,376,307,304,0
313,354,306,305,0
310,324,306,306,0
308,298,306,308,0
308,283,307,309,0
309,278,310,311,0
313,279,313,314,0
317,286,316,318,0
319,294,319,320,0
319,300,321,322,0
315,299,320,321,0
309,293,318,320,0
304,287,316,318,0
300,284,313,316,0
298,284,309,314,0
296,287,305,312,0
294,295,304,311,0
294,305,304,312,0
296,312,305,312,0
298,309,305,311,0
298,297,305,308,0
297,281,303,304,0
295,266,302,301,0
294,257,302,300,0
294,256,303,301,0
296,263,304,303,0
300,276,305,307,0
304,289,308,311,0
306,302,312,315,0
305,313,315,317,0
301,320,318,317,0
293,320,320,316,0
285,311,321,313,0
279,299,319,310,0
276,289,315,308,0
278,285,312,307,0
285,286,309,306,0
293,292,306,307,0
303,305,304,310,0
313,326,303,314,0
323,351,304,318,0
332,376,304,321,0
337,396,304,322,0
338,404,302,320,0
334,397,302,317,0
327,377,303,314,0
320,350,306,313,0
314,322,311,313,0
311,299,315,313,0
309,284,319,314,0
310,278,319,315,0
312,278,318,315,0
313,281,315,312,0
312,279,310,307,0
308,273,305,301,0
304,269,300,296,0
302,270,296,292,0
299,277,294,290,0
297,285,295,289,0
297,292,298,289,0
298,292,302,290,0
300,289,307,292,0
303,286,310,296,0
304,287,312,300,0
304,290,312,304,0
302,293,311,308,0
302,296,310,311,0
302,302,309,312,0
303,314,308,313,0
305,326,308,313,0
307,334,310,312,0
310,338,310,310,0
311,335,309,307,0
310,320,306,302,0
308,301,304,298,0
306,286,302,296,0
305,279,301,295,0
305,278,301,295,0
305,276,301,295,0
305,274,302,297,0
305,274,303,299,0
305,273,303,301,0
306,269,304,304,0
306,265,306,306,0
309,263,309,309,0
314,264,313,312,0
319,270,316,315,0
322,285,318,316,0
325,305,318,316,0
326,323,315,315,0
323,334,311,314,0
319,339,307,311,0
313,340,305,308,0
308,340,304,305,0
302,341,305,301,0
298,342,307,298,0
295,342,308,295,0
293,334,309,294,0
292,321,308,293,0
293,311,307,293,0
297,308,305,295,0
302,317,304,297,0
303,329,304,300,0
302,339,302,303,0
299,345,302,306,0
296,342,303,310,0
296,332,305,314,0
302,325,309,318,0
311,322,313,320,0
320,321,315,321,0
324,319,314,321,0
322,315,310,318,0
315,305,304,313,0
308,297,299,308,0
305,293,295,304,0
305,296,294,303,0
308,300,294,303,0
310,301,296,303,0
312,299,296,304,0
313,296,299,304,0
315,295,302,306,0
316,296,306,308,0
317,292,310,309,0
317,285,313,310,0
317,275,315,310,0
316,267,315,309,0
314,266,314,307,0
313,272,312,306,0
311,282,309,304,0
310,290,306,302,0
306,297,304,299,0
302,302,302,297,0
299,305,303,295,0
299,306,305,293,0
300,307,307,291,0
301,310,309,290,0
303,314,310,291,0
304,317,309,293,0
306,321,308,295,0
310,327,307,299,0
313,334,307,303,0
317,344,307,308,0
321,356,309,315,0
324,364,311,322,0
324,365,312,326,0
324,361,314,330,0
323,352,315,330,0
322,340,317,328,0
321,326,316,325,0
319,309,315,319,0
319,297,315,314,0
319,296,315,310,0
320,307,315,308,0
321,322,314,306,0
319,326,311,302,0
311,313,305,297,0
301,288,299,293,0
292,263,294,291,0
286,250,292,292,0
284,251,292,295,0
285,259,294,298,0
287,266,297,300,0
289,271,300,303,0
292,276,303,304,0
293,281,306,306,0
295,288,311,309,0
297,294,315,311,0
298,300,318,313,0
300,308,320,313,0
300,315,320,312,0
299,315,319,309,0
298,308,315,305,0
297,297,311,302,0
298,290,307,299,0
300,289,302,298,0
304,293,299,299,0
307,301,297,301,0
308,308,296,305,0
306,314,295,308,0
301,319,294,312,0
298,324,295,316,0
300,329,296,321,0
306,335,299,327,0
315,350,305,332,0
326,367,311,337,0
333,379,316,338,0
335,380,318,335,0
332,370,318,330,0
327,359,316,323,0
322,351,316,316,0
319,343,315,311,0
317,333,315,307,0
314,318,313,303,0
313,305,312,300,0
311,295,309,297,0
306,284,306,294,0
299,271,302,291,0
293,263,298,289,0
291,266,298,291,0
291,274,300,295,0
295,286,303,300,0
300,297,307,307,0
305,306,311,313,0
310,314,314,319,0
314,319,316,322,0
315,318,316,322,0
313,311,315,321,0
310,301,315,318,0
308,289,313,316,0
305,275,312,312,0
304,265,311,308,0
304,259,310,304,0
304,257,308,301,0
303,258,307,299,0
302,261,306,299,0
302,266,305,301,0
302,272,305,303,0
302,279,307,306,0
302,289,308,310,0
301,299,308,313,0
300,307,308,317,0
296,313,307,321,0
294,326,307,326,0
294,352,307,330,0
299,382,306,334,0
305,406,305,335,0
312,411,302,332,0
315,394,300,324,0
316,366,298,316,0
312,340,300,308,0
308,323,304,301,0
305,313,311,296,0
304,306,315,291,0
303,294,317,288,0
302,280,316,287,0
301,267,314,286,0
302,258,314,288,0
304,254,313,290,0
305,254,311,293,0
305,260,310,297,0
305,270,310,301,0
305,278,310,306,0
304,281,310,309,0
302,280,310,312,0
302,280,308,315,0
302,281,307,318,0
302,283,306,319,0
302,287,306,320,0
304,295,305,320,0
307,303,304,319,0
307,305,305,317,0
306,307,306,315,0
305,312,307,313,0
305,322,308,312,0
306,335,308,311,0
306,344,307,310,0
305,345,304,308,0
302,333,300,305,0
301,316,299,303,0
302,300,300,302,0
303,289,304,301,0
304,282,309,302,0
304,278,314,305,0
305,276,319,310,0
309,278,323,316,0
315,294,325,320,0
319,321,324,321,0
321,346,323,321,0
320,358,319,319,0
314,353,315,316,0
306,337,310,312,0
300,322,305,309,0
295,312,302,307,0
292,305,299,304,0
292,303,298,303,0
292,303,298,303,0
293,302,298,302,0
293,298,300,301,0
293,298,302,301,0
293,305,305,303,0
294,316,308,304,0
295,324,311,307,0
295,326,312,310,0
296,319,311,313,0
297,306,310,317,0
300,291,310,319,0
304,279,310,321,0
305,270,310,321,0
305,262,309,320,0
303,256,307,318,0
300,256,306,314,0
297,260,306,309,0
293,267,305,304,0
291,275,304,300,0
291,283,303,297,0
291,290,302,295,0
291,298,300,295,0
292,305,296,294,0
295,311,293,295,0
298,318,292,296,0
302,325,293,299,0
305,334,296,303,0
308,342,299,308,0
310,349,301,313,0
311,349,304,316,0
309,341,308,318,0
308,328,314,318,0
307,315,321,319,0
305,304,324,318,0
302,295,323,316,0
299,287,321,313,0
297,280,316,310,0
298,275,312,307,0
300,276,307,304,0
304,287,304,303,0
310,307,302,304,0
315,333,301,306,0
320,357,300,307,0
319,366,300,306,0
314,357,300,304,0
306,338,301,303,0
301,318,302,303,0
299,301,304,304,0
300,289,306,307,0
301,278,307,309,0
301,272,307,311,0
301,276,309,312,0
302,289,312,312,0
304,304,316,312,0
306,315,318,310,0
305,317,317,308,0
304,313,315,305,0
301,306,312,302,0
298,302,309,299,0
297,303,306,298,0
296,305,304,296,0
297,310,302,296,0
299,317,301,297,0
300,319,301,298,0
301,314,300,299,0
303,307,301,301,0
304,305,302,303,0
305,309,305,305,0
305,315,309,308,0
303,320,313,310,0
300,320,316,312,0
296,316,319,313,0
292,309,320,313,0
290,301,318,312,0
291,296,316,310,0
295,296,314,310,0
301,302,313,311,0
308,310,313,311,0
315,316,312,309,0
320,318,312,307,0
322,318,310,305,0
321,318,308,302,0
317,318,306,299,0
314,316,305,298,0
311,313,306,298,0
308,309,308,300,0
307,308,311,302,0
306,310,313,304,0
304,310,315,305,0
303,306,316,304,0
302,299,317,303,0
304,294,318,302,0
306,294,319,301,0
308,299,318,300,0
308,303,317,299,0
305,300,314,298,0
301,289,309,297,0
297,275,302,294,0
295,264,296,293,0
295,260,292,293,0
296,266,291,293,0
297,276,292,294,0
298,288,295,296,0
300,299,300,298,0
304,306,307,300,0
308,307,314,301,0
310,305,321,303,0
312,301,326,305,0
315,300,327,307,0
318,302,327,310,0
321,302,325,313,0
323,300,322,316,0
324,292,320,320,0
325,283,317,322,0
325,280,315,322,0
327,289,314,322,0
328,307,311,320,0
323,319,306,315,0
314,321,300,307,0
302,316,294,299,0
293,312,290,294,0
289,313,287,292,0
290,319,287,290,0
295,329,289,291,0
300,338,292,293,0
305,344,293,296,0
308,347,293,298,0
310,345,294,301,0
309,337,296,302,0
306,323,300,304,0
305,310,306,305,0
305,302,310,307,0
306,297,312,308,0
305,294,311,309,0
304,292,308,309,0
303,290,304,309,0
303,288,302,309,0
303,287,298,307,0
304,287,296,303,0
306,286,294,299,0
307,284,294,294,0
307,286,297,293,0
307,295,302,293,0
307,310,307,294,0
308,328,311,296,0
309,346,313,298,0
312,364,314,302,0
314,373,315,306,0
315,370,315,310,0
317,360,316,313,0
320,344,317,315,0
320,321,317,317,0
320,294,317,317,0
318,267,314,317,0
318,248,311,317,0
318,239,309,317,0
317,237,306,316,0
314,244,303,315,0
310,259,300,314,0
305,276,298,312,0
300,291,296,309,0
298,302,296,306,0
299,312,296,303,0
302,319,299,301,0
305,322,301,300,0
307,322,302,299,0
308,321,304,300,0
308,320,306,302,0
307,318,307,305,0
307,314,308,308,0
306,306,308,309,0
305,301,308,310,0
305,298,307,311,0
305,300,306,312,0
305,306,304,311,0
306,316,302,312,0
308,328,301,312,0
312,339,301,312,0
316,346,302,313,0
319,348,304,313,0
321,345,307,312,0
320,339,310,310,0
317,332,312,307,0
311,321,313,303,0
305,307,312,301,0
298,286,309,299,0
294,265,306,298,0
293,253,304,299,0
294,251,305,301,0
298,257,306,305,0
304,267,309,310,0
311,277,311,313,0
317,283,312,313,0
319,283,310,312,0
317,278,306,310,0
316,274,305,309,0
315,272,305,307,0
316,271,304,305,0
315,272,301,304,0
313,277,297,303,0
308,287,293,303,0
303,301,290,303,0
296,316,289,303,0
292,329,290,304,0
291,337,292,305,0
293,341,295,305,0
299,340,300,307,0
307,341,305,310,0
314,345,312,313,0
318,347,317,316,0
316,340,320,316,0
312,326,322,316,0
309,311,322,315,0
308,295,322,312,0
309,280,321,310,0
313,269,320,308,0
318,263,318,306,0
320,259,315,304,0
319,256,312,301,0
315,256,307,300,0
310,261,304,298,0
305,270,301,297,0
301,282,298,297,0
298,293,296,296,0
296,302,295,296,0
297,312,295,296,0
297,321,296,296,0
299,327,298,298,0
300,329,301,299,0
302,329,304,301,0
304,330,307,303,0
306,331,310,303,0
306,330,311,303,0
303,327,311,302,0
300,326,308,300,0
299,327,306,297,0
300,332,303,294,0
303,341,300,292,0
306,352,298,290,0
308,357,296,288,0
308,350,296,286,0
307,334,296,285,0
306,316,296,285,0
306,298,298,288,0
306,285,300,292,0
307,279,304,297,0
308,281,306,302,0
310,289,309,308,0
313,302,312,314,0
317,315,316,320,0
320,325,319,323,0
322,334,322,326,0
324,343,324,327,0
323,348,325,326,0
321,348,323,324,0
318,345,320,321,0
313,341,316,317,0
308,331,312,311,0
301,315,307,305,0
297,297,303,300,0
296,285,301,297,0
297,278,300,295,0
299,273,300,294,0
299,272,300,295,0
297,272,301,297,0
291,271,302,300,0
285,271,302,304,0
278,277,303,307,0
274,285,302,310,0
276,294,303,310,0
284,300,305,310,0
296,300,307,308,0
309,296,308,307,0
317,288,307,305,0
319,281,305,303,0
315,279,304,302,0
310,286,305,300,0
307,305,307,297,0
306,331,309,296,0
307,354,309,294,0
307,363,308,293,0
307,358,306,293,0
306,340,305,294,0
305,317,304,296,0
305,293,304,296,0
305,274,304,297,0
305,266,305,298,0
305,268,309,299,0
305,276,314,301,0
305,285,318,304,0
307,295,320,308,0
310,309,320,313,0
314,325,320,316,0
317,339,320,318,0
318,345,318,316,0
316,343,313,311,0
311,334,307,305,0
305,322,301,298,0
300,309,296,294,0
296,300,293,291,0
294,297,293,292,0
293,299,295,294,0
294,302,298,297,0
296,307,300,299,0
298,313,302,300,0
300,320,303,301,0
302,325,304,302,0
304,327,305,304,0
306,329,307,305,0
308,332,308,307,0
309,336,309,307,0
309,341,312,309,0
311,348,315,310,0
313,352,317,311,0
313,350,316,313,0
313,344,315,314,0
311,337,314,314,0
308,329,314,313,0
304,318,314,311,0
299,305,314,309,0
295,292,313,307,0
290,281,313,307,0
288,273,313,307,0
287,270,313,307,0
287,274,313,308,0
291,286,313,308,0
298,298,312,308,0
307,310,313,308,0
315,318,314,310,0
322,321,317,311,0
327,316,319,312,0
328,304,319,310,0
330,295,317,308,0
331,293,315,305,0
332,296,313,302,0
333,306,310,301,0
332,318,305,300,0
329,327,302,297,0
324,334,300,295,0
319,340,299,294,0
314,342,300,293,0
310,339,301,293,0
308,331,301,295,0
306,320,303,297,0
304,306,304,300,0
305,296,306,302,0
306,293,307,305,0
308,293,310,308,0
309,284,312,311,0
307,272,313,313,0
304,263,312,314,0
301,261,312,314,0
296,265,310,315,0
291,273,308,314,0
287,284,307,313,0
284,294,307,311,0
283,302,307,308,0
286,310,307,305,0
291,322,307,303,0
298,337,306,302,0
304,350,305,302,0
308,356,304,300,0
309,353,301,298,0
307,339,297,296,0
304,320,294,293,0
302,301,292,292,0
301,288,290,292,0
300,279,292,293,0
301,274,298,295,0
303,274,306,298,0
307,277,315,300,0
309,282,319,302,0
311,289,320,304,0
311,296,320,306,0
312,305,318,307,0
313,314,315,307,0
313,317,311,306,0
309,312,306,302,0
304,300,302,298,0
300,288,299,295,0
298,276,297,294,0
296,266,297,294,0
293,262,298,295,0
292,264,300,298,0
293,270,303,302,0
295,278,305,307,0
297,288,306,313,0
301,299,307,318,0
305,308,309,323,0
310,319,312,327,0
316,332,315,328,0
319,345,318,327,0
320,352,319,324,0
319,355,317,320,0
315,353,314,316,0
310,346,310,311,0
305,333,307,307,0
301,317,305,302,0
301,301,303,299,0
301,286,301,296,0
300,281,299,294,0
297,287,297,292,0
293,298,295,292,0
291,309,295,294,0
295,318,296,298,0
301,320,300,302,0
307,319,304,306,0
310,319,307,311,0
311,321,311,315,0
315,328,314,318,0
320,336,316,320,0
323,341,316,320,0
325,344,315,320,0
325,349,312,320,0
322,354,308,320,0
318,356,304,318,0
313,346,301,314,0
309,325,297,309,0
305,300,295,305,0
303,279,296,301,0
303,267,299,298,0
305,263,301,297,0
306,266,301,294,0
306,275,301,293,0
305,281,300,292,0
304,281,298,291,0
302,280,298,292,0
301,280,298,294,0
300,282,298,297,0
300,286,297,299,0
301,292,298,303,0
304,305,301,307,0
309,325,305,311,0
315,347,308,314,0
320,362,311,318,0
322,368,310,319,0
320,362,307,318,0
315,347,301,315,0
310,330,295,312,0
304,318,290,310,0
300,310,288,308,0
297,305,288,308,0
295,301,291,308,0
294,295,295,308,0
296,293,300,310,0
302,297,306,313,0
309,301,312,313,0
313,299,316,312,0
314,294,317,310,0
311,288,317,307,0
306,286,315,306,0
301,289,313,304,0
297,291,312,303,0
294,285,310,300,0
291,272,307,296,0
289,260,306,293,0
290,250,306,291,0
292,246,305,288,0
295,248,303,287,0
297,258,301,287,0
299,273,299,288,0
301,290,298,289,0
303,303,297,291,0
302,309,295,291,0
298,306,293,292,0
294,300,293,293,0
291,295,295,296,0
293,291,299,301,0
297,288,304,305,0
302,285,308,308,0
306,285,310,311,0
309,287,312,314,0
312,292,314,317,0
313,299,314,319,0
313,305,313,320,0
314,312,311,320,0
313,321,308,318,0
314,330,304,314,0
314,338,299,309,0
314,344,296,305,0
313,348,294,302,0
313,346,295,300,0
312,335,297,298,0
306,320,298,296,0
298,306,300,294,0
289,298,301,293,0
284,295,301,294,0
282,296,303,295,0
283,297,305,296,0
287,297,307,297,0
293,297,308,298,0
299,299,309,299,0
304,301,309,300,0
307,302,308,300,0
308,303,306,301,0
306,303,305,302,0
305,303,305,303,0
305,303,305,304,0
305,302,305,305,0
306,302,305,306,0
309,305,304,306,0
313,313,302,306,0
316,325,301,306,0
317,341,301,305,0
317,354,302,304,0
315,353,303,303,0
313,336,304,302,0
312,313,306,302,0
314,295,309,303,0
318,289,311,305,0
324,298,315,309,0
329,314,318,313,0
332,325,321,314,0
331,328,322,314,0
327,321,320,311,0
321,308,317,308,0
314,296,313,305,0
307,287,308,301,0
300,282,304,297,0
294,281,299,294,0
290,283,295,293,0
286,286,292,292,0
284,289,291,292,0
285,292,290,293,0
288,295,291,294,0
296,297,292,297,0
304,297,295,299,0
311,296,300,301,0
315,294,305,302,0
316,292,310,303,0
315,296,313,304,0
315,307,314,306,0
316,326,314,309,0
319,347,314,311,0
322,361,312,312,0
321,360,309,310,0
318,346,304,308,0
314,328,299,306,0
312,320,297,305,0
313,323,298,306,0
314,329,300,305,0
312,325,302,304,0
309,316,306,303,0
306,312,310,305,0
303,307,313,308,0
301,303,315,311,0
301,300,316,315,0
303,297,316,317,0
305,293,314,318,0
306,286,312,318,0
305,279,310,315,0
303,272,308,313,0
301,269,307,310,0
299,270,306,305,0
298,275,305,302,0
299,282,305,299,0
301,285,305,296,0
301,281,304,294,0
301,272,302,293,0
300,263,300,293,0
300,253,299,294,0
300,242,299,296,0
301,231,299,297,0
303,222,301,299,0
305,218,303,301,0
307,220,306,303,0
310,228,310,305,0
313,243,314,307,0
315,268,316,308,0
315,299,317,310,0
314,328,318,311,0
311,351,318,312,0
309,367,317,313,0
307,380,315,314,0
307,394,313,315,0
311,404,310,315,0
315,406,306,312,0
317,397,301,307,0
315,381,296,302,0
310,364,292,298,0
304,344,290,296,0
300,324,290,295,0
298,310,292,294,0
300,306,294,295,0
303,305,297,297,0
304,303,299,298,0
303,299,301,300,0
302,295,302,302,0
301,292,303,304,0
302,291,305,305,0
303,290,307,307,0
305,290,308,308,0
308,290,309,309,0
310,293,310,310,0
312,297,310,310,0
313,301,308,312,0
313,304,307,312,0
312,306,304,314,0
310,308,302,315,0
309,308,302,316,0
307,304,303,317,0
306,298,306,317,0
306,296,308,316,0
307,297,308,314,0
309,302,307,312,0
312,310,306,311,0
315,318,305,311,0
318,326,307,313,0
320,334,309,316,0
322,336,312,318,0
324,330,316,319,0
326,316,320,320,0
326,298,324,319,0
324,284,325,318,0
322,277,323,318,0
319,280,320,317,0
317,287,317,316,0
316,298,314,316,0
314,305,310,314,0
310,311,307,312,0
305,315,303,308,0
299,317,300,305,0
295,321,297,302,0
292,329,296,300,0
291,337,295,301,0
293,341,297,303,0
296,341,300,306,0
300,338,303,310,0
302,332,307,312,0
305,325,309,313,0
307,320,312,314,0
310,314,314,316,0
314,310,316,316,0
316,309,316,314,0
317,308,316,311,0
314,301,314,307,0
309,290,311,303,0
304,277,307,300,0
301,267,303,297,0
299,257,301,297,0
300,251,299,297,0
300,249,297,298,0
302,250,297,300,0
303,254,298,302,0
305,258,300,304,0
307,263,304,307,0
310,270,310,311,0
313,283,315,315,0
316,301,319,318,0
319,325,321,321,0
320,355,323,322,0
321,381,323,322,0
320,398,323,322,0
318,402,319,320,0
314,394,312,317,0
310,377,304,314,0
306,355,297,310,0
302,333,291,306,0
299,316,288,303,0
296,305,288,300,0
294,299,289,298,0
292,295,291,298,0
291,289,295,299,0
293,282,299,300,0
296,273,303,302,0
300,265,306,304,0
304,260,308,306,0
307,256,310,308,0
308,257,311,311,0
308,262,312,312,0
308,273,312,312,0
309,288,312,313,0
309,301,312,312,0
308,307,312,311,0
305,307,311,308,0
302,305,309,306,0
299,301,307,304,0
296,299,305,304,0
295,298,303,304,0
296,298,302,305,0
298,296,303,306,0
301,291,303,308,0
304,285,303,310,0
306,277,303,312,0
306,269,303,313,0
306,263,303,314,0
305,262,305,314,0
306,267,309,316,0
306,277,313,317,0
306,291,317,318,0
305,305,321,319,0
303,319,324,319,0
300,333,326,320,0
300,344,327,321,0
302,352,326,324,0
306,359,324,326,0
311,367,319,327,0
318,375,313,325,0
323,377,305,321,0
324,372,299,314,0
321,361,296,308,0
317,349,294,302,0
315,337,294,299,0
313,327,297,297,0
313,318,301,297,0
313,313,305,299,0
315,316,309,303,0
317,325,313,306,0
318,335,316,307,0
318,344,317,306,0
318,349,317,304,0
318,346,316,302,0
315,334,314,299,0
311,323,311,299,0
307,314,309,298,0
304,308,308,299,0
302,305,306,301,0
301,309,304,303,0
302,315,303,305,0
303,317,300,305,0
301,312,298,304,0
298,298,295,302,0
295,281,293,299,0
292,268,292,298,0
292,259,294,298,0
294,256,299,300,0
299,258,307,304,0
305,263,315,308,0
309,269,320,310,0
311,269,323,312,0
312,265,323,312,0
310,258,321,313,0
307,250,318,312,0
303,243,314,312,0
301,242,311,312,0
302,252,311,313,0
307,273,311,316,0
314,302,312,320,0
323,339,313,323,0
329,376,313,324,0
329,405,312,322,0
323,417,308,317,0
312,410,303,310,0
299,389,299,304,0
288,364,297,301,0
282,340,297,299,0
281,319,298,300,0
284,304,301,302,0
289,297,305,305,0
294,295,309,311,0
301,299,314,316,0
307,305,317,320,0
312,307,320,321,0
316,302,319,321,0
318,298,316,318,0
318,299,311,314,0
315,306,307,309,0
312,311,303,304,0
306,308,299,299,0
299,299,295,295,0
294,287,292,293,0
291,279,291,291,0
293,273,293,291,0
297,272,297,293,0
300,271,303,295,0
301,271,309,298,0
300,272,314,302,0
297,278,318,306,0
295,286,319,309,0
295,294,320,311,0
296,300,318,313,0
301,305,316,314,0
306,308,315,314,0
309,310,313,313,0
310,310,312,312,0
311,310,310,310,0
312,309,306,308,0
312,309,303,305,0
312,308,300,303,0
311,309,298,302,0
310,309,298,303,0
309,310,298,303,0
309,310,297,304,0
309,312,297,306,0
311,316,297,308,0
313,323,299,310,0
316,328,302,312,0
318,333,305,315,0
319,338,310,316,0
318,338,314,317,0
316,330,318,318,0
314,319,319,320,0
312,309,318,319,0
310,301,316,318,0
310,298,315,316,0
311,296,314,314,0
311,290,315,311,0
310,285,314,309,0
310,284,313,306,0
310,287,311,305,0
309,294,308,303,0
307,303,305,301,0
306,310,303,301,0
304,313,302,301,0
303,307,301,301,0
302,297,301,302,0
302,292,301,304,0
302,297,302,306,0
305,311,304,310,0
309,328,307,313,0
312,342,309,316,0
313,350,311,317,0
312,348,313,318,0
310,340,313,319,0
307,326,313,319,0
305,312,311,319,0
303,305,309,317,0
302,306,308,315,0
304,313,307,313,0
309,324,307,312,0
313,336,306,311,0
314,345,304,309,0
313,344,303,307,0
311,333,303,307,0
308,317,305,307,0
307,305,309,308,0
306,304,313,309,0
306,315,318,309,0
308,332,321,310,0
310,343,323,311,0
311,342,323,312,0
312,328,321,313,0
312,310,318,315,0
311,293,315,315,0
307,281,312,316,0
302,277,308,315,0
296,284,304,313,0
291,298,300,310,0
287,308,298,307,0
286,314,297,304,0
288,315,296,302,0
292,307,297,299,0
296,295,297,298,0
299,285,298,300,0
299,277,297,303,0
298,272,296,307,0
297,265,297,311,0
295,256,298,315,0
295,249,299,318,0
296,244,301,319,0
298,244,303,319,0
300,250,304,317,0
303,260,305,315,0
305,271,307,313,0
306,283,310,310,0
306,290,311,307,0
306,294,311,303,0
304,298,310,301,0
301,302,307,299,0
298,306,303,298,0
296,309,301,298,0
294,312,298,298,0
292,315,298,298,0
291,318,297,299,0
290,321,298,299,0
289,322,299,302,0
289,327,300,305,0
294,336,302,310,0
303,345,305,315,0
313,347,309,319,0
321,339,313,322,0
326,320,317,324,0
328,295,319,323,0
327,272,320,321,0
325,256,320,317,0
321,250,318,313,0
316,254,315,309,0
313,267,311,307,0
310,284,308,306,0
309,300,305,307,0
309,315,304,309,0
309,326,303,309,0
307,332,302,309,0
305,335,302,307,0
304,337,302,306,0
304,339,303,306,0
305,342,304,307,0
307,343,306,311,0
309,342,307,315,0
312,342,310,320,0
315,345,312,324,0
318,346,314,327,0
318,342,315,328,0
316,327,313,326,0
312,305,310,322,0
307,283,305,318,0
303,265,301,313,0
301,252,299,309,0
301,246,301,306,0
303,250,305,305,0
304,267,308,302,0
303,295,309,298,0
300,323,307,297,0
297,344,303,298,0
296,354,300,302,0
298,353,299,306,0
300,344,301,310,0
303,335,305,313,0
304,326,308,314,0
301,312,310,313,0
295,292,312,310,0
290,273,313,307,0
288,258,312,305,0
289,250,308,305,0
293,248,305,304,0
299,255,303,303,0
304,268,299,302,0
307,278,297,301,0
307,283,295,301,0
306,287,295,301,0
305,290,299,302,0
306,295,302,304,0
306,304,305,307,0
308,317,308,310,0
310,332,310,314,0
309,338,312,317,0
305,331,312,320,0
301,318,313,323,0
298,305,313,325,0
297,296,313,328,0
301,294,314,330,0
309,298,315,333,0
319,304,316,335,0
326,308,315,333,0
329,312,314,329,0
327,317,311,322,0
319,318,307,315,0
308,315,301,307,0
297,308,297,301,0
289,301,293,297,0
284,295,290,294,0
282,290,288,293,0
281,284,288,293,0
280,278,289,294,0
280,276,292,296,0
282,281,295,298,0
287,290,300,302,0
293,300,306,306,0
299,307,310,309,0
305,309,314,312,0
311,308,316,313,0
317,306,316,313,0
321,306,315,312,0
322,308,313,310,0
321,311,311,307,0
319,313,308,305,0
317,316,305,304,0
316,321,302,302,0
315,325,301,300,0
315,327,299,298,0
314,326,298,298,0
314,322,299,299,0
315,318,300,302,0
317,318,302,305,0
318,321,303,309,0
319,321,302,312,0
317,315,301,314,0
314,311,301,315,0
312,315,302,315,0
311,328,304,316,0
312,344,308,316,0
312,352,311,316,0
311,344,313,314,0
307,324,313,312,0
304,303,311,308,0
300,287,309,305,0
298,276,306,302,0
297,270,303,300,0
296,269,298,298,0
295,269,295,296,0
296,271,292,296,0
297,276,293,297,0
299,283,296,299,0
303,293,301,303,0
307,303,305,306,0
310,314,308,311,0
313,322,310,316,0
315,328,311,322,0
318,334,313,327,0
322,341,316,332,0
328,348,320,336,0
330,350,322,337,0
329,340,322,335,0
324,324,319,330,0
317,310,316,324,0
311,305,313,318,0
309,312,311,312,0
309,320,309,305,0
309,328,307,299,0
307,332,305,294,0
304,325,303,291,0
300,309,301,289,0
295,293,300,289,0
290,280,300,290,0
287,271,300,292,0
284,264,300,295,0
283,262,301,298,0
284,262,304,302,0
286,264,308,306,0
291,268,311,310,0
297,273,312,313,0
304,280,311,314,0
309,290,308,315,0
312,303,305,314,0
313,314,304,313,0
312,317,304,312,0
309,310,304,309,0
305,299,303,306,0
303,292,303,305,0
301,297,303,304,0
301,309,303,303,0
301,320,304,303,0
301,326,304,303,0
302,329,305,303,0
304,330,306,303,0
305,328,308,303,0
304,323,309,304,0
304,319,310,305,0
304,317,310,307,0
305,318,310,310,0
311,321,310,313,0
317,322,310,315,0
321,314,309,315,0
321,299,307,314,0
319,281,305,312,0
316,269,305,310,0
313,269,306,307,0
309,274,307,304,0
306,279,309,301,0
302,281,310,297,0
299,284,310,293,0
299,289,310,290,0
299,296,308,289,0
299,301,306,290,0
298,303,302,293,0
298,306,299,296,0
298,307,297,299,0
301,309,296,303,0
304,311,297,307,0
309,310,299,311,0
314,310,300,314,0
317,308,302,315,0
319,304,303,316,0
320,300,305,316,0
320,305,309,317,0
319,319,314,318,0
317,335,317,317,0
313,347,317,315,0
308,355,315,313,0
303,360,311,310,0
300,360,307,307,0
298,347,305,304,0
294,323,303,299,0
291,300,302,296,0
291,283,302,295,0
293,276,303,295,0
297,276,305,297,0
302,280,307,300,0
308,285,309,303,0
311,286,311,306,0
312,282,313,308,0
313,278,313,310,0
313,273,314,311,0
313,271,314,311,0
311,272,313,309,0
310,275,311,307,0
308,280,308,304,0
307,285,306,302,0
307,291,304,299,0
307,298,303,297,0
306,304,302,295,0
305,310,301,294,0
305,314,302,295,0
307,320,303,297,0
308,327,304,300,0
311,338,305,303,0
313,354,307,307,0
316,370,308,310,0
318,374,310,314,0
318,361,313,317,0
320,341,315,320,0
323,321,316,322,0
327,309,315,321,0
328,302,310,318,0
321,293,305,311,0
311,283,299,304,0
300,275,295,298,0
294,275,294,295,0
290,282,295,295,0
289,295,298,297,0
290,311,301,299,0
292,325,304,301,0
292,331,305,302,0
292,334,305,304,0
294,335,305,306,0
300,329,305,308,0
305,316,306,308,0
309,299,305,309,0
312,285,304,309,0
313,276,302,310,0
313,272,302,310,0
314,271,301,312,0
314,274,302,313,0
314,277,306,314,0
314,278,313,314,0
314,275,320,314,0
313,271,325,312,0
310,270,327,309,0
308,272,326,306,0
307,277,323,303,0
307,285,319,301,0
309,296,314,302,0
311,311,309,303,0
314,330,305,305,0
318,351,304,308,0
321,363,303,311,0
321,359,304,313,0
319,343,305,316,0
316,326,306,318,0
312,309,306,320,0
308,294,306,320,0
306,282,306,319,0
305,276,305,318,0
304,278,304,315,0
304,285,303,311,0
308,294,303,309,0
312,307,304,305,0
317,326,307,303,0
320,342,309,301,0
319,346,311,298,0
316,339,310,296,0
312,323,308,293,0
307,307,306,291,0
303,293,305,290,0
300,286,304,290,0
298,283,304,290,0
297,283,305,292,0
298,284,306,295,0
300,287,307,298,0
301,289,307,302,0
301,291,308,305,0
300,293,308,307,0
300,294,307,308,0
301,294,308,308,0
303,290,309,308,0
306,286,310,307,0
310,284,310,304,0
314,286,310,302,0
317,292,308,301,0
317,301,306,300,0
316,312,304,299,0
314,317,302,297,0
311,318,301,295,0
307,321,300,294,0
304,329,299,294,0
301,337,298,295,0
300,342,298,296,0
299,342,299,298,0
298,342,302,299,0
298,341,306,301,0
300,340,310,303,0
301,339,312,305,0
304,336,312,307,0
305,329,311,308,0
306,321,308,309,0
308,317,304,308,0
310,317,301,307,0
312,319,297,305,0
311,319,295,302,0
310,317,295,300,0
309,309,300,299,0
307,296,308,299,0
304,279,317,299,0
302,264,323,300,0
300,256,326,300,0
299,256,326,301,0
299,263,325,302,0
300,274,322,304,0
301,286,319,307,0
302,296,316,310,0
304,306,314,313,0
306,317,313,314,0
308,330,312,315,0
312,348,312,315,0
316,366,313,316,0
321,380,313,315,0
325,386,311,314,0
326,381,309,313,0
323,361,306,310,0
316,333,303,305,0
307,306,299,300,0
298,283,297,295,0
290,267,295,291,0
284,257,297,288,0
282,254,300,287,0
284,256,303,288,0
291,262,306,291,0
299,272,309,295,0
306,283,310,299,0
312,295,310,303,0
315,302,309,306,0
316,304,310,309,0
315,305,310,312,0
314,305,311,314,0
313,306,312,315,0
312,308,313,317,0
311,313,313,318,0
311,322,313,318,0
311,333,311,316,0
311,344,309,313,0
310,351,307,310,0
309,349,305,308,0
306,331,302,305,0
302,305,299,303,0
299,281,298,301,0
297,268,299,300,0
296,264,302,301,0
297,266,305,302,0
299,271,308,303,0
302,277,309,304,0
303,282,310,305,0
303,285,311,306,0
302,287,312,307,0
301,289,313,306,0
299,291,313,307,0
297,294,312,307,0
297,299,309,305,0
296,304,307,303,0
296,307,304,301,0
297,310,301,299,0
297,310,297,296,0
298,308,294,293,0
298,303,292,291,0
300,296,292,291,0
302,291,295,292,0
305,289,300,296,0
309,294,306,300,0
313,302,313,304,0
315,310,320,307,0
316,318,326,310,0
316,323,329,312,0
315,324,329,314,0
314,323,328,314,0
312,320,326,314,0
308,314,323,313,0
303,307,318,311,0
299,300,312,308,0
296,292,307,302,0
295,285,303,297,0
296,277,301,294,0
299,274,302,292,0
301,276,303,293,0
302,282,305,297,0
302,289,307,301,0
303,295,307,305,0
306,300,306,310,0
309,309,306,316,0
314,322,305,322,0
318,336,306,325,0
322,349,306,327,0
323,360,307,325,0
321,369,307,323,0
318,378,307,321,0
315,386,307,319,0
312,387,307,317,0
307,375,306,314,0
302,353,303,309,0
296,331,299,305,0
291,316,296,302,0
289,308,293,299,0
289,305,292,299,0
292,302,292,299,0
296,297,292,300,0
298,291,293,302,0
300,290,296,305,0
302,292,300,310,0
305,298,305,314,0
309,310,310,319,0
310,323,313,321,0
308,328,313,321,0
302,320,310,319,0
298,307,305,316,0
297,296,301,313,0
298,289,298,310,0
300,286,296,308,0
302,282,294,304,0
302,277,294,301,0
302,272,294,299,0
302,269,294,297,0
302,270,293,296,0
301,274,292,297,0
301,278,293,298,0
302,281,295,299,0
302,282,296,300,0
303,282,297,302,0
304,283,298,305,0
305,286,299,308,0
307,290,299,311,0
308,292,298,313,0
309,293,298,314,0
309,292,300,315,0
310,291,305,316,0
311,290,313,319,0
313,291,320,323,0
315,294,324,327,0
316,298,326,330,0
316,305,324,330,0
316,314,321,329,0
317,326,319,325,0
318,335,318,320,0
318,341,316,312,0
317,340,314,305,0
315,335,312,302,0
314,329,311,302,0
313,321,309,303,0
312,310,308,304,0
310,305,308,306,0
311,311,308,307,0
311,321,307,307,0
311,329,305,306,0
309,327,303,305,0
307,317,304,303,0
307,302,305,302,0
308,292,306,301,0
308,288,306,299,0
309,292,305,298,0
309,300,303,297,0
307,310,300,296,0
305,318,297,295,0
303,320,295,296,0
302,319,296,298,0
303,320,297,300,0
305,321,297,304,0
309,323,298,308,0
311,323,299,312,0
313,318,300,315,0
312,307,302,318,0
312,297,304,320,0
312,292,307,322,0
311,295,310,322,0
309,301,312,322,0
306,306,314,322,0
303,308,314,322,0
301,310,314,322,0
299,313,313,321,0
298,317,312,319,0
299,323,310,317,0
302,330,307,313,0
305,332,305,310,0
306,326,302,306,0
304,313,298,303,0
302,296,296,302,0
300,282,296,302,0
301,274,298,304,0
302,273,301,307,0
301,277,303,310,0
299,282,304,314,0
296,285,305,317,0
296,287,307,319,0
299,293,309,320,0
305,301,310,320,0
309,309,310,319,0
311,313,309,316,0
311,309,307,314,0
309,304,303,312,0
305,299,300,310,0
301,295,298,309,0
299,292,296,308,0
298,295,295,308,0
298,302,295,306,0
298,312,298,304,0
298,319,301,302,0
301,320,306,300,0
305,311,309,299,0
307,296,310,299,0
309,282,309,299,0
309,274,307,299,0
310,273,306,300,0
310,282,306,302,0
311,297,308,304,0
313,311,311,306,0
315,324,316,307,0
317,333,319,308,0
318,338,321,309,0
318,339,319,308,0
315,336,317,307,0
314,338,313,306,0
312,343,307,304,0
309,343,302,302,0
304,333,298,300,0
299,318,296,298,0
295,301,294,295,0
294,285,293,293,0
294,274,293,294,0
297,268,294,297,0
299,267,296,300,0
300,271,299,304,0
301,281,302,308,0
303,293,306,312,0
304,300,310,313,0
304,302,312,314,0
305,303,314,315,0
307,305,315,314,0
309,311,315,313,0
311,319,315,312,0
312,326,313,309,0
309,327,310,305,0
304,323,308,301,0
300,317,305,298,0
297,311,304,297,0
296,307,303,297,0
295,305,303,297,0
296,303,304,298,0
297,303,305,300,0
299,304,306,301,0
300,304,308,302,0
301,302,310,305,0
301,299,311,308,0
302,295,311,311,0
302,293,311,313,0
302,292,310,314,0
301,291,310,314,0
300,292,308,313,0
299,293,307,312,0
299,296,306,310,0
300,304,305,308,0
301,314,304,304,0
301,319,304,300,0
302,318,304,298,0
303,313,304,297,0
305,309,304,297,0
306,303,304,297,0
307,295,302,298,0
306,286,300,298,0
303,280,299,300,0
301,280,298,303,0
297,280,297,305,0
294,276,297,307,0
290,270,297,310,0
287,266,298,314,0
286,266,302,318,0
287,273,305,323,0
288,286,307,326,0
292,305,309,326,0
298,326,311,326,0
305,346,311,326,0
311,363,312,325,0
315,375,312,324,0
318,380,311,321,0
320,376,307,316,0
318,358,303,308,0
313,329,298,301,0
308,299,295,296,0
306,277,294,294,0
306,266,296,295,0
310,269,301,298,0
315,286,310,302,0
319,308,320,305,0
319,325,328,307,0
316,333,334,308,0
313,333,335,308,0
309,327,332,307,0
305,319,326,306,0
303,315,319,305,0
301,309,312,305,0
299,301,306,304,0
298,293,301,302,0
298,285,298,301,0
298,277,296,300,0
297,273,294,298,0
295,272,293,296,0
293,274,293,296,0
292,280,295,297,0
292,289,300,300,0
295,303,306,304,0
300,323,313,308,0
306,344,317,313,0
313,365,321,318,0
320,380,323,322,0
324,380,323,324,0
325,361,322,325,0
323,337,319,324,0
320,318,317,322,0
316,299,314,319,0
312,282,310,315,0
307,272,306,311,0
303,271,303,307,0
300,276,301,305,0
299,282,300,303,0
298,285,300,302,0
299,285,300,302,0
299,285,298,302,0
299,286,296,301,0
299,288,295,300,0
298,289,295,299,0
299,291,295,298,0
301,297,297,300,0
303,305,300,302,0
305,315,303,304,0
307,325,307,305,0
310,334,311,307,0
313,339,312,308,0
314,338,312,308,0
313,331,310,306,0
311,322,308,303,0
308,312,306,301,0
306,304,304,300,0
306,299,302,298,0
306,296,301,296,0
307,295,301,295,0
307,296,301,296,0
308,300,302,297,0
309,304,304,299,0
310,307,305,302,0
311,306,308,305,0
314,303,311,312,0
318,300,313,319,0
324,299,317,325,0
328,298,318,329,0
328,295,317,329,0
323,291,313,326,0
315,289,308,322,0
306,291,306,318,0
295,295,306,312,0
284,296,310,305,0
277,297,315,298,0
274,298,317,291,0
273,299,316,287,0
275,301,313,284,0
279,302,310,283,0
284,304,305,283,0
292,310,302,285,0
300,322,298,287,0
306,337,296,290,0
309,351,297,294,0
310,361,300,298,0
312,367,304,301,0
314,367,307,304,0
315,366,309,307,0
316,365,310,309,0
318,362,313,312,0
319,353,314,314,0
320,339,314,315,0
320,323,314,315,0
320,310,313,315,0
320,304,312,315,0
319,302,309,313,0
316,305,306,310,0
314,308,303,308,0
311,306,301,305,0
306,297,299,302,0
302,285,298,300,0
299,276,299,300,0
299,271,302,302,0
299,269,305,304,0
302,272,308,307,0
305,279,311,310,0
308,289,312,312,0
310,299,313,313,0
313,306,313,314,0
315,307,311,314,0
315,301,309,314,0
316,293,310,314,0
317,286,310,313,0
315,281,310,312,0
312,274,309,310,0
306,269,305,308,0
300,266,303,307,0
296,265,300,307,0
293,266,299,308,0
292,269,299,311,0
292,273,300,315,0
294,282,302,320,0
296,291,304,324,0
297,300,306,324,0
299,303,308,321,0
301,302,310,317,0
303,302,311,312,0
305,304,311,308,0
309,311,311,305,0
312,320,310,303,0
315,333,310,301,0
317,349,311,299,0
318,361,311,298,0
317,362,310,296,0
314,356,309,294,0
312,351,308,293,0
311,346,307,292,0
310,338,305,292,0
308,328,303,291,0
307,315,302,291,0
305,301,300,292,0
303,291,297,291,0
301,285,296,291,0
301,282,296,292,0
303,282,297,293,0
304,282,297,294,0
304,282,296,295,0
303,284,296,297,0
303,289,296,299,0
303,296,299,301,0
305,301,302,305,0
307,306,305,308,0
309,308,307,310,0
313,309,311,310,0
317,309,318,308,0
321,309,323,305,0
323,311,324,302,0
322,311,324,300,0
318,308,324,300,0
313,302,322,300,0
309,295,319,301,0
306,289,314,302,0
304,283,309,305,0
302,280,306,308,0
302,281,303,312,0
301,288,302,314,0
301,296,303,317,0
302,305,305,319,0
305,310,307,320,0
309,311,307,321,0
310,309,307,322,0
308,305,306,323,0
305,299,305,323,0
304,293,304,323,0
305,288,302,321,0
308,287,301,318,0
312,291,300,314,0
314,301,300,308,0
314,317,302,303,0
313,332,303,298,0
309,339,304,293,0
305,336,304,289,0
302,329,304,287,0
300,326,305,288,0
301,328,306,290,0
303,336,307,294,0
305,348,308,299,0
307,359,309,302,0
309,362,310,305,0
309,355,310,306,0
309,341,311,306,0
308,327,311,307,0
309,319,312,307,0
310,319,312,308,0
312,329,312,308,0
313,338,310,307,0
311,338,307,306,0
308,325,304,305,0
306,309,301,305,0
305,297,300,305,0
305,288,300,306,0
303,279,299,306,0
302,272,300,306,0
301,266,301,306,0
302,262,303,307,0
304,261,304,309,0
306,264,306,311,0
308,270,308,313,0
307,277,308,314,0
305,284,308,314,0
303,294,309,315,0
302,306,310,315,0
303,320,310,316,0
303,333,309,315,0
303,343,306,313,0
304,346,302,310,0
304,339,299,305,0
304,326,297,301,0
305,312,296,298,0
305,301,296,297,0
304,293,297,297,0
302,285,299,299,0
301,281,302,300,0
301,280,308,303,0
302,284,315,307,0
305,295,321,310,0
307,308,326,312,0
308,316,328,313,0
306,316,326,310,0
302,312,321,307,0
300,315,316,304,0
302,325,312,302,0
306,336,310,302,0
310,342,307,301,0
312,343,305,300,0
313,337,302,297,0
312,329,302,294,0
312,328,302,292,0
313,335,302,291,0
311,341,303,292,0
307,339,304,295,0
302,326,307,298,0
298,304,309,301,0
299,282,311,304,0
303,268,311,306,0
308,262,311,309,0
312,260,310,310,0
314,259,310,311,0
313,261,310,311,0
311,267,309,312,0
308,274,309,312,0
306,280,308,313,0
304,284,306,312,0
301,287,304,310,0
298,290,301,306,0
296,291,297,303,0
295,292,295,299,0
295,291,294,297,0
297,291,294,295,0
299,292,296,295,0
303,295,301,296,0
309,301,306,297,0
313,305,311,299,0
316,308,314,300,0
318,311,316,301,0
319,315,317,304,0
319,321,317,307,0
318,328,317,310,0
316,334,317,312,0
315,333,317,314,0
315,323,317,315,0
316,312,316,315,0
318,309,316,315,0
321,312,314,315,0
321,315,311,313,0
318,313,307,311,0
313,308,302,307,0
306,303,297,306,0
301,304,295,306,0
298,308,294,307,0
297,314,295,308,0
296,320,296,307,0
296,322,298,306,0
297,319,299,305,0
296,315,299,306,0
297,313,300,308,0
298,314,300,310,0
299,318,300,312,0
301,324,298,312,0
303,329,297,310,0
305,331,296,308,0
306,331,297,306,0
306,327,298,304,0
306,318,299,303,0
304,308,299,301,0
303,302,299,299,0
302,301,300,297,0
303,302,304,296,0
306,305,310,296,0
310,306,317,298,0
312,304,320,300,0
312,297,322,301,0
312,288,321,302,0
312,277,319,304,0
310,268,315,305,0
309,262,312,306,0
308,261,310,309,0
309,263,308,312,0
311,268,308,315,0
314,275,308,317,0
316,284,308,318,0
318,294,307,318,0
318,301,307,317,0
318,304,307,316,0
319,306,308,314,0
319,304,309,313,0
319,304,310,312,0
318,308,309,312,0
316,310,307,311,0
310,309,304,309,0
303,306,302,307,0
298,304,302,307,0
294,306,302,306,0
295,311,302,308,0
298,315,302,310,0
302,317,303,312,0
308,318,305,314,0
313,323,307,315,0
315,334,309,316,0
317,353,310,317,0
319,372,311,318,0
320,383,310,318,0
318,377,308,316,0
313,359,306,315,0
308,332,305,313,0
302,300,303,309,0
297,269,303,307,0
291,248,301,304,0
286,239,300,302,0
283,239,299,299,0
283,246,299,298,0
285,253,301,297,0
288,258,304,297,0
292,261,308,298,0
296,266,311,298,0
299,274,314,300,0
303,286,314,302,0
304,300,313,303,0
306,312,312,304,0
307,322,310,305,0
308,330,310,305,0
309,336,310,305,0
311,339,309,305,0
311,339,307,304,0
310,335,305,302,0
309,328,301,301,0
307,325,298,299,0
306,328,296,300,0
306,337,295,301,0
307,345,293,303,0
307,343,292,304,0
306,331,293,306,0
307,313,296,309,0
311,295,301,313,0
316,281,306,318,0
321,272,310,323,0
325,273,313,327,0
327,282,316,330,0
326,292,317,332,0
320,300,318,330,0
311,304,318,327,0
303,305,319,323,0
297,309,320,316,0
293,321,320,310,0
291,346,317,305,0
288,372,312,300,0
284,381,304,296,0
280,366,296,292,0
277,340,290,289,0
278,315,287,289,0
283,297,288,289,0
290,286,290,292,0
295,280,292,294,0
298,278,295,296,0
300,279,298,300,0
302,283,303,303,0
304,288,307,306,0
307,296,312,310,0
309,307,316,313,0
311,321,318,314,0
311,333,318,314,0
310,342,316,312,0
309,345,314,310,0
307,335,312,308,0
306,314,310,306,0
304,293,308,303,0
302,276,306,302,0
301,266,303,302,0
301,261,302,301,0
301,259,302,301,0
301,261,300,301,0
300,268,300,302,0
300,279,300,303,0
301,290,301,305,0
301,298,302,306,0
300,304,303,308,0
299,306,304,310,0
298,308,306,312,0
301,311,307,313,0
304,313,307,313,0
307,315,308,313,0
312,317,309,313,0
315,322,310,313,0
316,329,308,313,0
313,331,305,311,0
309,329,301,310,0
306,326,298,308,0
306,324,296,306,0
306,324,294,305,0
304,327,293,304,0
302,334,295,305,0
302,343,300,309,0
303,347,305,313,0
305,345,310,317,0
308,338,315,321,0
312,326,318,324,0
315,317,321,325,0
319,317,322,325,0
320,325,320,323,0
319,331,315,319,0
314,329,309,314,0
306,319,302,309,0
298,308,297,306,0
292,302,294,305,0
288,297,293,303,0
285,288,292,302,0
283,280,291,300,0
283,275,291,299,0
285,272,290,298,0
287,273,289,297,0
289,276,289,296,0
292,281,291,297,0
294,287,294,298,0
297,291,298,302,0
300,295,302,306,0
304,299,306,309,0
307,300,310,312,0
310,298,314,313,0
312,294,318,315,0
314,291,322,316,0
314,290,322,318,0
313,289,320,318,0
313,290,318,317,0
312,292,315,316,0
311,294,311,314,0
309,298,306,313,0
308,304,303,312,0
308,313,301,311,0
308,324,300,311,0
309,335,300,312,0
312,343,303,314,0
315,343,309,316,0
318,341,315,318,0
321,342,320,320,0
323,347,322,323,0
323,350,323,324,0
318,342,322,324,0
311,326,319,322,0
303,310,315,321,0
298,299,313,321,0
296,294,312,322,0
298,295,312,322,0
301,304,312,321,0
307,322,312,320,0
313,343,310,317,0
317,357,308,312,0
318,357,305,305,0
315,344,301,298,0
311,328,298,293,0
306,315,297,290,0
302,310,295,289,0
297,312,295,289,0
293,323,295,293,0
293,337,297,297,0
294,343,301,301,0
296,336,305,304,0
300,321,308,306,0
303,305,310,307,0
307,292,312,307,0
309,286,313,307,0
309,283,314,307,0
307,282,314,307,0
306,282,315,306,0
305,283,313,304,0
303,283,310,301,0
302,282,306,299,0
302,282,302,298,0
302,282,300,297,0
303,282,299,297,0
304,283,299,298,0
305,285,300,300,0
306,286,302,304,0
307,289,303,307,0
308,295,305,310,0
310,305,307,313,0
314,316,309,314,0
317,320,310,316,0
319,315,311,318,0
319,303,312,319,0
320,289,312,321,0
320,277,311,321,0
321,272,310,321,0
322,275,309,321,0
321,288,308,320,0
319,310,307,319,0
319,336,307,317,0
320,359,306,315,0
321,375,306,314,0
322,382,306,311,0
321,377,305,308,0
317,363,305,305,0
311,344,306,304,0
304,325,308,304,0
296,308,310,304,0
290,289,310,306,0
286,272,309,307,0
285,261,307,309,0
285,256,306,310,0
287,257,306,311,0
290,262,307,310,0
292,268,309,309,0
296,275,309,307,0
298,284,308,305,0
300,294,308,302,0
302,303,305,299,0
302,311,303,295,0
302,315,301,293,0
301,314,299,291,0
301,310,297,292,0
301,305,296,293,0
302,300,296,295,0
303,297,297,297,0
304,297,298,300,0
306,300,300,304,0
308,305,302,308,0
310,313,302,312,0
312,320,304,316,0
314,327,307,319,0
315,334,310,321,0
317,340,314,322,0
318,345,318,322,0
317,344,319,322,0
314,335,319,320,0
310,322,316,318,0
306,311,311,316,0
303,306,307,313,0
301,306,305,310,0
301,307,302,306,0
301,308,303,303,0
304,311,305,302,0
308,313,308,301,0
313,309,310,300,0
318,306,312,301,0
321,307,313,302,0
322,311,313,304,0
320,319,311,306,0
316,332,310,307,0
312,343,308,309,0
308,345,306,309,0
305,338,305,309,0
303,325,305,308,0
302,309,306,306,0
302,295,306,304,0
302,284,306,303,0
303,277,307,302,0
303,275,307,302,0
303,282,306,303,0
304,299,306,304,0
304,319,305,304,0
302,331,304,305,0
301,329,303,305,0
302,320,303,305,0
303,309,304,305,0
305,299,303,303,0
305,288,303,303,0
305,278,302,304,0
304,271,300,304,0
304,267,298,304,0
305,268,298,305,0
306,268,299,306,0
307,268,300,307,0
308,267,302,308,0
306,266,304,308,0
301,265,306,309,0
296,264,309,308,0
294,266,312,306,0
294,271,315,304,0
295,281,316,302,0
297,292,314,301,0
298,300,311,302,0
299,306,308,303,0
301,311,306,306,0
305,318,306,309,0
309,329,306,311,0
314,343,308,312,0
317,357,310,312,0
318,362,311,311,0
315,361,312,309,0
312,354,314,307,0
310,346,313,305,0
308,335,313,304,0
308,327,312,302,0
309,327,312,302,0
310,333,311,301,0
310,343,308,300,0
309,350,305,300,0
307,352,303,300,0
305,345,301,300,0
304,329,301,299,0
303,311,303,297,0
303,295,306,296,0
304,283,310,295,0
305,274,313,295,0
305,268,314,298,0
304,265,315,301,0
303,263,315,304,0
303,262,314,307,0
303,262,314,309,0
305,264,313,309,0
306,267,313,309,0
308,271,312,309,0
309,279,310,308,0
309,288,309,309,0
308,297,309,309,0
307,307,309,310,0
306,317,308,311,0
305,323,307,310,0
305,321,306,309,0
305,314,303,308,0
306,311,301,307,0
309,313,300,306,0
310,318,300,303,0
310,326,302,301,0
310,335,304,299,0
308,336,304,298,0
307,328,304,300,0
308,315,306,301,0
311,306,309,303,0
314,302,311,304,0
316,301,313,305,0
318,302,314,306,0
318,302,314,305,0
315,300,313,305,0
310,296,312,304,0
305,292,309,302,0
301,288,307,301,0
298,286,304,300,0
297,285,302,300,0
297,286,301,302,0
297,290,300,302,0
298,296,299,302,0
299,300,297,303,0
299,302,298,304,0
298,299,299,305,0
298,297,300,307,0
298,299,302,309,0
299,305,305,312,0
301,312,306,314,0
303,318,307,318,0
305,323,306,321,0
309,326,305,323,0
314,327,304,325,0
317,327,304,325,0
319,326,307,324,0
319,325,312,321,0
317,324,317,317,0
314,320,319,311,0
309,314,318,305,0
303,307,316,302,0
297,305,313,301,0
293,308,310,301,0
292,315,309,301,0
295,325,308,302,0
299,330,308,303,0
303,327,308,305,0
307,320,308,309,0
311,313,310,312,0
315,309,312,315,0
317,307,315,316,0
317,307,318,316,0
317,307,321,314,0
316,308,322,313,0
313,313,320,312,0
309,319,317,310,0
305,324,314,309,0
303,328,311,308,0
301,326,308,306,0
299,316,305,305,0
298,300,303,303,0
299,284,301,302,0
300,273,301,301,0
302,266,301,299,0
303,260,301,299,0
305,256,302,299,0
306,253,303,299,0
306,253,305,301,0
306,259,306,303,0
307,271,306,305,0
306,287,306,305,0
304,301,305,305,0
303,311,305,305,0
302,320,305,305,0
303,330,306,305,0
305,343,306,306,0
308,353,305,305,0
312,358,305,303,0
316,356,304,302,0
319,349,304,300,0
322,342,304,300,0
323,341,305,301,0
323,341,305,303,0
321,334,306,305,0
320,321,309,308,0
319,310,313,310,0
317,300,316,311,0
315,293,318,311,0
312,287,318,310,0
310,283,318,309,0
310,282,317,309,0
311,289,317,310,0
313,302,316,313,0
314,316,314,316,0
314,327,312,318,0
311,331,310,318,0
308,329,308,318,0
305,323,304,316,0
303,313,300,312,0
301,299,295,305,0
298,284,293,299,0
297,271,292,296,0
299,263,293,296,0
303,261,295,298,0
309,266,297,301,0
315,283,300,305,0
321,302,302,308,0
324,318,305,310,0
323,325,309,311,0
320,323,313,312,0
314,315,317,314,0
309,307,320,315,0
305,302,321,315,0
303,299,322,316,0
302,298,322,315,0
304,299,321,313,0
306,300,318,310,0
307,297,315,305,0
309,294,311,301,0
310,290,307,298,0
310,287,304,298,0
309,281,301,299,0
308,277,298,302,0
305,278,297,307,0
303,283,298,312,0
300,290,300,317,0
298,298,304,321,0
298,310,310,323,0
298,324,315,323,0
299,337,319,323,0
300,347,320,320,0
301,351,319,317,0
302,351,316,314,0
301,344,312,311,0
301,331,308,307,0
303,321,305,305,0
309,319,302,303,0
316,326,300,303,0
321,332,298,304,0
320,331,296,302,0
316,321,294,301,0
310,308,294,300,0
303,297,294,301,0
297,291,295,302,0
292,286,297,304,0
290,283,300,306,0
289,279,301,308,0
291,274,302,311,0
295,270,304,312,0
302,269,308,314,0
310,271,311,315,0
317,279,313,317,0
321,289,313,318,0
323,299,311,317,0
324,308,309,315,0
324,317,307,314,0
323,326,305,313,0
321,329,303,310,0
318,329,301,307,0
315,329,301,303,0
313,330,301,300,0
312,333,301,300,0
311,337,300,300,0
310,338,300,302,0
308,336,301,304,0
308,334,303,307,0
309,332,306,311,0
312,331,309,315,0
316,336,313,320,0
320,341,316,324,0
323,341,317,327,0
322,331,318,327,0
318,313,317,326,0
314,294,315,324,0
309,281,313,319,0
305,275,310,315,0
303,276,307,311,0
302,282,305,308,0
303,287,304,306,0
304,285,304,305,0
306,282,304,305,0
311,285,304,306,0
314,289,303,306,0
314,292,299,304,0
309,293,296,301,0
305,292,294,299,0
300,291,293,299,0
296,289,295,299,0
296,291,299,301,0
299,300,307,305,0
306,308,317,310,0
315,311,325,314,0
323,313,330,315,0
327,317,332,315,0
328,321,331,314,0
325,320,328,312,0
319,310,323,309,0
310,294,318,306,0
303,279,312,304,0
299,271,307,304,0
297,272,301,304,0
296,278,296,304,0
296,285,293,306,0
296,292,291,308,0
295,294,291,310,0
294,293,293,312,0
295,292,295,314,0
296,293,298,316,0
298,295,300,318,0
299,297,302,319,0
299,299,304,320,0
300,301,305,320,0
301,305,308,320,0
303,313,309,320,0
303,325,309,318,0
303,334,308,316,0
301,336,305,312,0
299,333,301,306,0
297,327,297,301,0
298,324,295,296,0
301,328,294,293,0
303,337,295,293,0
304,348,297,294,0
305,354,300,297,0
303,348,303,301,0
300,331,306,305,0
298,311,309,310,0
299,297,312,313,0
302,291,313,317,0
307,291,314,320,0
313,294,316,323,0
320,299,317,324,0
325,304,316,323,0
326,308,314,321,0
324,307,312,317,0
318,299,308,313,0
312,291,306,309,0
307,287,303,306,0
303,283,302,304,0
300,276,301,301,0
298,271,300,297,0
297,268,300,295,0
295,268,301,293,0
295,269,302,293,0
296,270,303,295,0
298,273,305,297,0
300,278,307,300,0
303,288,309,304,0
305,305,312,307,0
308,322,314,310,0
310,333,316,312,0
312,335,316,312,0
313,331,316,313,0
314,323,315,313,0
313,316,312,310,0
310,311,307,306,0
305,308,301,302,0
300,307,296,299,0
294,303,292,296,0
290,301,293,295,0
289,301,299,296,0
289,301,308,297,0
290,297,316,299,0
291,294,322,301,0
293,291,324,302,0
295,290,323,303,0
297,290,322,304,0
301,292,320,306,0
306,296,318,308,0
311,302,315,309,0
314,308,311,310,0
316,314,310,311,0
318,323,311,313,0
320,337,314,314,0
321,354,317,315,0
320,368,319,315,0
318,377,318,315,0
314,374,315,313,0
309,356,310,311,0
304,330,306,310,0
301,309,302,308,0
299,294,299,305,0
299,284,297,303,0
300,275,297,301,0
304,268,298,301,0
309,265,300,302,0
315,266,304,305,0
320,270,307,310,0
324,277,310,315,0
324,286,313,318,0
321,291,314,318,0
315,295,314,317,0
310,299,312,314,0
304,302,310,311,0
298,303,307,307,0
294,302,305,303,0
290,301,303,300,0
288,304,302,298,0
288,309,301,296,0
290,318,300,297,0
293,329,300,297,0
296,338,300,298,0
297,339,299,298,0
296,331,298,299,0
294,318,296,300,0
293,305,295,302,0
295,298,296,305,0
299,295,298,308,0
303,295,301,311,0
307,301,303,314,0
309,314,304,316,0
308,327,304,316,0
306,336,304,315,0
305,342,304,313,0
305,341,303,311,0
305,334,301,307,0
307,325,299,303,0
311,321,297,299,0
314,321,297,296,0
315,321,297,293,0
314,315,297,292,0
310,308,298,291,0
306,301,299,291,0
301,298,300,292,0
297,302,301,294,0
294,309,303,298,0
293,312,304,302,0
294,308,307,306,0
296,298,310,309,0
299,285,312,312,0
301,277,313,313,0
305,277,313,314,0
308,279,312,314,0
310,276,309,313,0
311,270,306,311,0
310,268,303,307,0
310,272,299,303,0
308,277,296,299,0
304,281,294,295,0
301,283,292,292,0
298,286,293,290,0
298,289,297,290,0
299,293,300,291,0
299,295,304,292,0
300,294,306,294,0
300,293,307,297,0
300,293,307,300,0
299,294,305,304,0
300,296,304,307,0
301,298,303,310,0
303,301,302,312,0
307,306,302,312,0
310,309,303,311,0
312,311,304,311,0
314,312,305,310,0
315,313,306,310,0
315,317,307,310,0
315,325,308,312,0
315,332,308,313,0
314,332,307,314,0
312,326,304,313,0
309,317,303,311,0
306,311,302,309,0
306,307,303,307,0
307,305,304,307,0
309,306,305,307,0
310,310,305,307,0
309,314,305,307,0
309,320,304,307,0
309,327,306,306,0
310,335,307,306,0
312,342,309,307,0
316,346,312,309,0
319,343,314,310,0
322,339,314,311,0
325,343,313,310,0
326,357,310,308,0
326,375,307,306,0
324,385,304,304,0
319,375,301,301,0
311,346,299,300,0
304,312,297,300,0
299,281,296,300,0
298,261,298,303,0
299,249,300,306,0
301,242,302,309,0
301,239,305,311,0
299,240,307,311,0
296,243,308,312,0
293,250,309,311,0
292,257,310,309,0
294,265,312,308,0
299,272,313,308,0
304,278,313,306,0
310,280,310,304,0
313,281,305,302,0
315,281,300,298,0
315,285,295,296,0
315,293,293,295,0
316,304,294,297,0
316,317,297,301,0
315,330,301,305,0
313,339,305,310,0
308,341,309,313,0
301,332,310,313,0
294,317,309,313,0
289,303,308,311,0
288,297,307,308,0
291,300,305,306,0
294,305,304,305,0
297,308,303,306,0
298,307,304,307,0
298,307,304,307,0
298,306,304,306,0
298,306,301,304,0
298,307,297,302,0
299,306,294,299,0
301,300,293,296,0
304,293,294,295,0
307,289,295,294,0
309,291,297,294,0
312,302,300,296,0
314,320,304,299,0
317,341,310,303,0
319,356,315,306,0
317,354,318,310,0
313,338,319,313,0
308,320,319,315,0
304,307,317,318,0
303,299,313,321,0
301,296,309,323,0
300,297,305,323,0
298,300,303,321,0
297,304,301,317,0
297,307,302,313,0
299,312,306,311,0
303,315,310,308,0
305,312,313,305,0
304,302,313,301,0
302,291,310,299,0
301,284,308,298,0
302,281,306,298,0
303,282,305,299,0
306,287,304,300,0
308,294,303,301,0
308,299,302,302,0
307,302,302,305,0
307,303,303,307,0
308,305,305,310,0
310,306,307,312,0
311,302,309,313,0
311,298,310,313,0
311,300,310,312,0
310,306,308,310,0
309,311,306,308,0
308,311,303,305,0
306,307,299,302,0
304,300,297,299,0
302,296,295,298,0
299,295,295,297,0
297,298,294,298,0
298,305,296,300,0
302,312,298,303,0
306,312,300,305,0
309,305,301,307,0
308,295,302,307,0
305,288,303,307,0
301,289,305,308,0
298,297,308,309,0
295,305,311,311,0
293,309,312,312,0
291,308,312,312,0
291,305,312,313,0
294,300,310,313,0
300,298,309,313,0
304,300,307,311,0
308,304,304,307,0
308,306,299,302,0
306,304,295,298,0
303,300,291,295,0
300,298,291,293,0
300,299,293,294,0
303,307,297,297,0
307,319,302,301,0
312,334,306,306,0
315,350,310,310,0
317,357,312,315,0
316,351,312,317,0
315,338,312,318,0
311,322,310,317,0
307,308,308,316,0
305,298,306,314,0
303,291,306,313,0
302,287,307,311,0
301,285,309,309,0
301,286,310,307,0
301,290,309,305,0
301,296,308,303,0
301,302,306,303,0
300,305,303,302,0
299,304,301,301,0
297,300,299,301,0
296,297,297,301,0
295,298,296,301,0
296,307,297,304,0
298,321,298,307,0
300,335,301,312,0
301,345,302,317,0
302,348,304,320,0
302,341,307,322,0
301,332,307,320,0
301,324,304,317,0
300,316,300,313,0
300,308,298,309,0
299,298,296,305,0
296,284,296,300,0
292,269,296,296,0
289,256,296,292,0
289,247,297,290,0
291,243,299,290,0
295,243,304,292,0
299,245,309,295,0
300,251,312,297,0
300,261,312,299,0
300,275,311,299,0
300,289,308,300,0
301,300,307,302,0
303,308,307,305,0
304,314,307,308,0
306,317,308,310,0
307,320,308,312,0
308,323,307,312,0
309,328,306,313,0
309,333,304,312,0
309,339,302,310,0
309,347,301,310,0
310,358,301,310,0
311,368,299,311,0
312,372,297,312,0
312,362,296,312,0
310,339,296,314,0
310,314,296,316,0
310,293,297,318,0
309,277,297,319,0
305,265,297,319,0
299,260,299,319,0
293,262,300,319,0
289,268,302,318,0
288,278,304,317,0
291,287,306,315,0
295,294,309,313,0
300,300,311,312,0
303,303,311,310,0
305,303,311,309,0
307,303,308,308,0
308,306,306,307,0
310,313,306,307,0
312,322,305,306,0
313,330,305,305,0
312,329,303,303,0
308,322,301,301,0
305,316,299,301,0
303,315,298,302,0
302,322,298,305,0
303,333,300,310,0
307,345,303,315,0
310,354,307,319,0
311,354,312,321,0
311,344,317,321,0
309,330,321,320,0
308,319,323,320,0
307,314,323,320,0
307,310,322,321,0
308,301,320,320,0
308,288,317,318,0
307,273,313,314,0
307,262,309,310,0
308,256,307,308,0
311,259,305,306,0
314,268,305,305,0
317,276,305,306,0
319,284,304,307,0
318,290,304,308,0
314,296,305,312,0
309,308,306,316,0
303,328,307,321,0
298,350,309,325,0
294,366,311,327,0
292,371,311,326,0
291,363,309,321,0
292,352,308,315,0
295,343,307,310,0
299,338,308,307,0
303,334,310,304,0
307,328,311,302,0
309,319,310,300,0
308,306,307,298,0
305,294,302,297,0
303,285,298,296,0
300,279,293,296,0
299,276,290,296,0
297,277,290,295,0
296,280,292,296,0
297,286,296,298,0
298,291,302,301,0
300,292,307,305,0
303,289,311,309,0
306,283,311,312,0
309,280,311,313,0
309,281,308,314,0
306,285,307,313,0
303,291,305,313,0
300,296,303,312,0
299,299,301,310,0
300,301,302,308,0
303,303,303,307,0
307,305,304,306,0
311,308,305,306,0
314,315,305,306,0
315,323,304,307,0
317,329,303,308,0
318,334,302,308,0
318,336,302,308,0
317,334,302,309,0
314,328,303,311,0
311,321,305,312,0
308,317,308,313,0
306,318,311,317,0
306,327,315,322,0
308,341,319,327,0
311,353,320,330,0
313,360,319,332,0
315,363,315,332,0
314,356,311,330,0
311,341,308,328,0
308,322,304,324,0
304,303,299,319,0
300,282,295,312,0
296,260,292,305,0
292,239,292,301,0
290,223,294,298,0
289,214,298,298,0
292,214,302,301,0
296,224,305,304,0
301,242,308,308,0
306,262,311,310,0
309,286,312,312,0
313,311,313,314,0
315,335,315,315,0
317,356,315,316,0
318,369,315,316,0
317,372,314,316,0
315,368,312,314,0
314,359,311,311,0
311,347,309,306,0
308,330,306,302,0
306,316,303,300,0
304,304,301,298,0
302,297,300,297,0
302,291,300,296,0
303,287,300,295,0
304,285,300,295,0
305,284,298,295,0
306,282,298,297,0
307,281,299,301,0
308,283,300,304,0
307,288,301,307,0
307,295,304,310,0
307,303,308,313,0
308,308,313,316,0
309,309,318,320,0
311,311,320,323,0
313,315,321,324,0
314,322,320,324,0
315,336,316,322,0
316,355,312,320,0
313,370,307,315,0
310,377,304,310,0
305,376,301,305,0
303,368,299,303,0
301,357,297,301,0
299,342,295,302,0
296,324,294,303,0
290,312,295,304,0
284,304,295,306,0
277,295,296,307,0
270,282,298,307,0
266,271,300,305,0
267,264,303,305,0
275,261,306,305,0
286,262,309,307,0
297,265,310,309,0
307,269,309,311,0
314,274,307,313,0
316,277,304,313,0
316,278,302,314,0
313,279,299,313,0
309,281,297,312,0
304,282,295,309,0
299,281,294,305,0
296,279,294,301,0
296,278,296,298,0
298,280,298,296,0
301,283,300,297,0
304,288,303,300,0
307,292,305,303,0
309,295,306,307,0
311,301,306,311,0
312,313,307,314,0
313,326,307,316,0
312,338,306,317,0
310,347,304,316,0
305,347,302,314,0
301,338,301,312,0
298,323,299,310,0
297,307,299,306,0
299,294,299,304,0
301,287,300,302,0
302,284,302,301,0
303,284,304,301,0
303,286,306,302,0
303,288,308,304,0
305,294,309,306,0
307,305,310,309,0
311,319,312,312,0
314,331,314,315,0
315,330,315,318,0
314,319,315,320,0
311,308,314,320,0
309,304,311,320,0
308,308,310,321,0
310,321,310,322,0
312,340,311,322,0
312,357,309,320,0
310,359,305,315,0
305,345,301,308,0
299,323,298,302,0
296,304,295,297,0
295,291,294,294,0
296,285,294,293,0
298,288,296,295,0
302,297,298,298,0
306,306,299,300,0
308,308,298,303,0
309,308,297,306,0
309,305,297,309,0
310,302,298,312,0
309,297,300,313,0
308,294,302,313,0
307,295,305,314,0
305,300,310,313,0
304,306,314,311,0
303,314,318,308,0
302,319,319,306,0
302,319,318,304,0
302,315,316,303,0
303,307,314,302,0
304,299,312,300,0
304,290,310,299,0
304,284,307,298,0
304,286,303,298,0
304,292,300,297,0
304,297,297,297,0
302,297,295,297,0
301,295,296,300,0
302,291,299,305,0
304,290,302,310,0
306,294,306,315,0
309,300,308,320,0
310,304,310,322,0
311,307,311,323,0
313,309,312,321,0
314,308,313,318,0
315,302,315,315,0
315,295,316,310,0
314,293,317,307,0
313,298,317,304,0
310,305,316,303,0
308,310,314,302,0
307,313,311,302,0
308,315,308,302,0
309,310,305,301,0
309,298,301,300,0
307,284,299,299,0
305,272,299,300,0
304,268,300,303,0
306,273,301,304,0
308,284,301,305,0
309,295,301,305,0
311,305,300,306,0
311,315,300,308,0
309,323,301,309,0
307,327,303,309,0
306,328,306,307,0
305,326,310,305,0
305,322,312,303,0
304,319,314,300,0
301,315,313,297,0
298,312,309,294,0
295,310,304,291,0
293,309,301,291,0
293,310,299,290,0
293,309,298,291,0
296,305,298,293,0
300,300,300,297,0
306,296,302,301,0
311,291,305,306,0
315,288,308,311,0
318,284,311,315,0
320,282,313,318,0
320,284,312,320,0
319,287,310,320,0
318,292,308,318,0
317,298,306,316,0
315,306,303,312,0
313,315,301,309,0
311,325,299,306,0
310,333,298,302,0
309,338,298,299,0
307,340,297,296,0
306,337,297,296,0
305,331,296,297,0
305,325,295,300,0
303,318,295,303,0
302,309,295,305,0
302,301,296,308,0
302,296,298,311,0
306,297,302,313,0
311,302,307,317,0
316,308,314,319,0
319,312,319,321,0
320,316,321,320,0
318,321,321,319,0
316,325,318,316,0
313,328,313,313,0
310,332,308,310,0
308,338,304,308,0
307,344,301,306,0
305,342,298,304,0
303,331,296,303,0
300,315,296,302,0
297,296,296,303,0
296,278,297,305,0
296,264,299,307,0
298,255,302,310,0
300,252,304,312,0
301,253,306,314,0
302,258,308,316,0
303,264,308,317,0
303,270,308,317,0
305,276,308,317,0
306,282,308,316,0
307,285,308,315,0
306,287,309,313,0
304,288,309,310,0
303,290,308,306,0
304,293,307,301,0
308,294,306,298,0
314,296,306,297,0
321,298,306,296,0
325,303,306,296,0
327,309,305,296,0
326,313,305,297,0
322,311,303,297,0
317,309,300,299,0
312,312,298,303,0
308,320,298,307,0
305,331,300,313,0
302,339,302,318,0
302,346,307,324,0
306,352,313,328,0
312,358,319,330,0
318,363,324,330,0
322,367,327,328,0
321,362,326,323,0
312,347,321,315,0
302,329,315,307,0
293,309,309,301,0
286,290,303,297,0
285,275,298,294,0
287,269,294,292,0
290,270,289,291,0
293,273,286,292,0
292,275,286,294,0
293,278,287,298,0
294,285,291,302,0
296,295,296,307,0
299,305,301,311,0
301,311,304,313,0
304,313,306,315,0
306,310,306,316,0
308,307,308,318,0
312,304,309,318,0
314,304,311,317,0
315,305,312,316,0
316,308,311,315,0
314,309,309,312,0
310,309,306,308,0
306,308,304,306,0
303,307,302,305,0
302,308,301,305,0
302,311,302,307,0
304,314,304,310,0
305,317,305,312,0
305,317,306,313,0
305,315,305,314,0
304,312,304,315,0
302,308,301,316,0
302,305,299,317,0
304,306,299,319,0
307,312,300,319,0
311,320,304,318,0
313,329,309,317,0
314,340,313,315,0
313,354,315,311,0
312,363,315,308,0
311,362,315,305,0
311,349,314,302,0
308,325,312,300,0
305,295,310,300,0
302,269,308,300,0
299,253,307,302,0
297,247,305,304,0
296,249,305,306,0
296,256,305,309,0
299,263,306,312,0
303,268,307,314,0
308,271,309,316,0
311,274,310,317,0
313,282,312,318,0
313,293,314,318,0
314,306,314,318,0
315,317,314,318,0
316,322,312,317,0
316,322,308,314,0
315,320,305,313,0
315,318,302,311,0
315,318,301,310,0
316,322,300,310,0
315,328,301,308,0
314,333,300,306,0
312,334,298,303,0
308,327,298,303,0
307,314,299,307,0
307,301,301,312,0
308,292,302,316,0
309,287,303,318,0
309,287,303,320,0
310,294,304,322,0
314,307,305,324,0
318,320,307,326,0
322,328,308,326,0
323,330,311,326,0
322,329,313,324,0
317,327,316,321,0
309,327,318,319,0
301,331,320,315,0
296,338,321,312,0
294,345,319,309,0
294,345,314,306,0
295,338,308,303,0
296,325,303,301,0
297,311,300,301,0
298,303,299,302,0
300,299,298,303,0
301,294,297,303,0
303,286,296,302,0
304,278,296,300,0
306,274,298,300,0
308,274,300,300,0
310,278,303,301,0
312,287,306,304,0
313,298,308,306,0
313,303,307,307,0
312,303,305,308,0
309,298,302,308,0
307,290,299,307,0
305,283,295,306,0
303,284,294,304,0
303,290,295,303,0
305,303,298,302,0
305,318,300,299,0
304,330,301,295,0
302,335,303,292,0
300,329,305,291,0
298,318,307,293,0
298,307,309,297,0
300,300,311,301,0
303,300,312,306,0
307,304,313,310,0
310,310,313,312,0
311,314,311,313,0
309,316,309,313,0
305,310,308,312,0
301,299,307,311,0
300,288,307,310,0
301,278,306,308,0
303,273,305,307,0
305,274,304,306,0
305,277,304,305,0
304,283,304,305,0
303,291,305,305,0
302,299,306,306,0
301,310,306,307,0
302,323,307,309,0
306,337,308,312,0
312,349,310,314,0
318,356,312,316,0
320,358,313,318,0
322,356,313,320,0
322,354,311,321,0
320,348,309,321,0
317,336,307,320,0
313,323,306,318,0
311,314,305,315,0
310,310,303,312,0
309,307,302,309,0
309,305,302,307,0
310,305,301,305,0
310,305,301,304,0
309,299,300,303,0
308,292,299,301,0
306,286,299,301,0
303,286,299,302,0
301,291,300,305,0
300,300,303,308,0
301,312,306,311,0
304,326,310,314,0
308,340,312,316,0
311,347,312,316,0
313,344,310,315,0
311,330,307,314,0
309,312,304,311,0
305,297,300,309,0
302,285,297,306,0
300,279,295,304,0
298,274,294,302,0
296,271,295,299,0
295,271,299,297,0
294,275,303,297,0
295,282,307,297,0
295,292,311,299,0
296,302,312,301,0
298,311,312,303,0
300,315,312,307,0
304,315,312,312,0
306,313,311,316,0
307,311,311,319,0
306,310,310,323,0
304,307,309,324,0
303,303,309,323,0
304,299,308,320,0
306,295,307,316,0
310,290,306,312,0
312,285,304,307,0
311,283,302,303,0
310,284,300,299,0
309,289,299,296,0
308,295,297,294,0
308,301,295,293,0
310,304,296,294,0
314,307,300,298,0
318,312,306,302,0
321,319,311,307,0
323,328,315,311,0
322,339,317,315,0
319,346,317,319,0
315,345,316,320,0
312,334,314,321,0
308,318,312,321,0
302,302,310,321,0
297,290,307,319,0
292,286,304,316,0
291,289,301,313,0
294,296,299,311,0
298,306,298,309,0
303,315,297,307,0
305,321,296,306,0
304,321,296,305,0
303,319,297,304,0
300,318,298,304,0
300,319,299,305,0
299,322,301,306,0
299,319,303,306,0
298,311,304,306,0
298,303,306,305,0
300,300,307,305,0
304,299,307,305,0
307,299,308,305,0
310,296,310,306,0
313,289,311,307,0
314,282,313,306,0
314,281,315,307,0
313,285,314,307,0
312,291,312,305,0
310,299,309,304,0
310,309,305,304,0
311,325,303,305,0
312,343,302,307,0
313,358,305,308,0
313,366,307,310,0
311,362,309,310,0
309,349,310,310,0
307,333,311,310,0
306,318,312,311,0
306,308,313,314,0
305,301,315,317,0
303,294,316,319,0
302,286,317,319,0
300,279,317,320,0
300,278,316,320,0
300,282,313,321,0
301,292,310,322,0
302,304,307,321,0
302,315,303,321,0
302,320,301,318,0
301,319,300,313,0
299,312,298,307,0
296,303,296,300,0
291,295,298,296,0
288,288,301,294,0
286,281,305,293,0
286,273,309,290,0
288,267,311,288,0
292,263,311,287,0
297,265,310,288,0
300,272,309,292,0
303,284,309,296,0
305,299,309,300,0
306,313,309,304,0
306,321,307,305,0
308,322,305,306,0
312,317,305,306,0
316,311,306,306,0
320,307,307,306,0
321,307,309,305,0
320,311,309,304,0
315,316,307,304,0
308,320,306,304,0
301,318,305,305,0
296,313,305,306,0
292,306,304,307,0
291,304,303,308,0
292,312,301,309,0
294,329,301,312,0
299,347,302,316,0
304,358,304,321,0
309,356,307,325,0
313,345,309,327,0
316,330,311,327,0
315,315,312,324,0
312,304,312,319,0
306,300,312,313,0
300,300,312,310,0
297,302,311,307,0
298,302,309,304,0
301,298,307,301,0
304,296,304,299,0
307,296,302,297,0
309,298,302,296,0
310,300,301,295,0
310,299,301,294,0
310,299,301,295,0
310,301,301,296,0
308,303,302,298,0
307,305,303,300,0
304,309,303,301,0
303,315,305,302,0
302,322,306,303,0
303,331,307,303,0
305,341,308,303,0
309,351,308,303,0
312,358,307,304,0
314,362,305,305,0
315,363,304,305,0
315,355,303,303,0
313,339,303,302,0
312,319,303,301,0
311,301,303,301,0
313,289,304,302,0
315,282,305,304,0
315,278,305,305,0
315,275,304,307,0
314,275,302,310,0
315,284,300,312,0
316,298,300,314,0
315,315,300,316,0
314,334,301,318,0
310,344,301,318,0
305,337,302,316,0
299,320,303,314,0
295,308,305,310,0
292,303,306,307,0
290,299,306,303,0
289,297,307,299,0
289,293,308,296,0
288,288,308,293,0
288,286,308,292,0
287,286,308,294,0
288,290,308,296,0
289,295,308,298,0
292,304,307,301,0
295,318,307,304,0
301,331,306,307,0
306,337,306,310,0
310,333,306,311,0
311,323,307,312,0
311,315,309,313,0
310,310,310,313,0
309,307,311,313,0
310,307,311,313,0
311,310,311,312,0
312,315,310,310,0
314,320,309,309,0
315,322,307,307,0
315,324,304,305,0
314,327,302,302,0
312,328,301,300,0
310,330,301,300,0
310,331,303,299,0
311,324,305,298,0
311,312,306,299,0
311,300,308,301,0
311,293,312,304,0
313,291,315,308,0
314,295,316,311,0
315,301,316,313,0
315,308,317,313,0
315,313,318,313,0
313,315,319,313,0
310,318,320,311,0
306,318,320,308,0
303,317,318,306,0
302,313,316,304,0
302,306,314,304,0
304,295,310,303,0
306,287,306,303,0
308,284,302,304,0
307,286,298,303,0
304,290,296,302,0
300,293,295,302,0
296,296,294,302,0
295,298,295,303,0
296,302,298,303,0
300,309,300,304,0
305,321,303,307,0
309,334,305,311,0
313,344,308,314,0
315,353,311,317,0
317,360,313,318,0
316,359,314,316,0
314,344,312,313,0
312,321,308,309,0
308,298,305,305,0
306,281,304,303,0
304,271,303,302,0
303,267,302,300,0
302,267,301,299,0
303,271,299,299,0
304,278,300,298,0
306,289,301,299,0
309,304,302,301,0
312,319,304,304,0
314,326,305,306,0
314,328,305,307,0
312,326,303,308,0
311,322,302,309,0
311,316,302,310,0
312,311,303,313,0
311,306,307,316,0
312,304,310,318,0
314,305,312,320,0
316,308,312,319,0
316,311,311,316,0
313,308,309,311,0
307,302,306,304,0
300,296,304,297,0
294,295,304,293,0
288,297,306,290,0
285,299,308,289,0
286,300,311,289,0
291,298,312,290,0
296,294,311,291,0
300,290,310,292,0
304,288,308,294,0
306,290,307,295,0
306,294,306,297,0
307,299,307,299,0
308,305,308,303,0
309,309,310,307,0
310,308,311,310,0
312,305,312,312,0
315,307,312,314,0
317,311,312,315,0
317,314,310,314,0
315,314,307,311,0
312,311,304,308,0
308,310,300,306,0
305,311,298,304,0
302,310,297,302,0
300,306,297,300,0
298,302,298,299,0
298,299,301,299,0
298,297,305,301,0
300,298,310,303,0
303,303,316,307,0
305,312,320,311,0
306,323,323,314,0
305,332,323,316,0
306,341,322,317,0
309,346,321,317,0
311,341,318,315,0
314,334,315,312,0
316,323,314,308,0
317,310,313,305,0
318,298,315,303,0
321,292,318,302,0
323,291,320,300,0
320,289,318,298,0
315,286,314,298,0
307,284,310,299,0
298,287,307,301,0
291,297,305,305,0
289,314,306,310,0
292,335,307,315,0
299,353,308,319,0
306,363,309,322,0
311,366,310,324,0
314,360,311,324,0
315,346,311,322,0
314,327,312,320,0
312,309,313,317,0
310,294,313,314,0
307,279,311,310,0
303,266,308,305,0
299,257,306,300,0
296,254,304,295,0
294,258,302,292,0
292,267,301,289,0
292,279,299,289,0
293,288,298,290,0
294,296,297,293,0
298,307,297,297,0
302,326,300,303,0
307,349,305,309,0
310,362,310,315,0
309,358,311,318,0
306,345,311,319,0
304,332,309,319,0
301,324,308,317,0
299,319,310,317,0
300,311,314,316,0
303,298,318,314,0
307,287,320,312,0
310,283,319,309,0
310,281,316,304,0
308,280,312,300,0
308,283,308,297,0
308,287,305,294,0
308,290,304,293,0
308,289,303,293,0
308,287,303,293,0
309,285,303,294,0
309,284,304,296,0
309,284,306,299,0
309,286,308,304,0
310,290,309,309,0
311,296,310,315,0
314,303,312,320,0
317,314,312,323,0
319,323,310,325,0
320,326,308,323,0
318,323,307,319,0
314,319,305,314,0
307,315,303,307,0
303,315,302,301,0
303,322,303,297,0
304,330,304,295,0
306,335,303,295,0
305,335,301,295,0
302,327,300,295,0
297,317,298,296,0
292,307,300,297,0
289,299,304,299,0
289,294,308,302,0
293,294,311,305,0
299,296,314,307,0
305,300,315,308,0
311,300,316,309,0
314,293,314,310,0
316,283,311,311,0
316,275,307,312,0
315,272,305,312,0
314,275,303,312,0
313,279,303,310,0
312,286,305,308,0
311,295,306,305,0
311,305,305,302,0
312,315,304,300,0
313,322,302,298,0
314,322,301,297,0
314,317,300,296,0
315,310,300,297,0
316,307,302,300,0
317,313,305,304,0
317,323,308,307,0
315,336,309,311,0
313,343,310,313,0
310,340,310,313,0
308,327,310,314,0
308,314,309,315,0
307,305,309,315,0
308,299,309,314,0
308,297,309,312,0
307,293,308,309,0
306,286,307,306,0
304,281,307,304,0
304,280,306,302,0
305,285,304,300,0
305,292,303,299,0
306,295,303,299,0
304,293,303,299,0
302,288,304,300,0
300,284,304,303,0
298,284,304,306,0
299,288,305,309,0
300,294,307,314,0
302,300,308,317,0
301,303,307,319,0
300,303,306,319,0
300,300,305,318,0
304,298,307,317,0
309,294,311,315,0
314,292,314,311,0
317,298,315,307,0
318,316,314,304,0
318,337,311,302,0
315,352,307,301,0
311,359,303,301,0
307,358,299,301,0
304,350,296,302,0
303,338,296,302,0
304,326,298,303,0
305,315,302,304,0
307,307,306,305,0
308,302,309,305,0
307,298,312,306,0
306,296,314,307,0
305,292,315,309,0
307,286,315,312,0
311,279,316,313,0
316,272,315,314,0
321,270,312,313,0
323,275,307,310,0
322,283,302,305,0
318,292,295,299,0
312,297,290,295,0
307,298,288,293,0
305,295,291,293,0
305,296,297,295,0
307,304,302,298,0
310,324,307,302,0
315,352,311,307,0
319,375,315,311,0
319,379,315,312,0
315,362,315,311,0
311,339,314,310,0
310,321,314,308,0
310,308,313,305,0
310,299,312,303,0
309,295,312,301,0
309,292,312,300,0
308,289,311,300,0
307,287,310,301,0
306,288,309,302,0
307,291,308,302,0
307,296,305,302,0
308,297,303,302,0
307,295,300,301,0
305,292,299,301,0
303,288,298,300,0
302,284,300,300,0
301,277,304,300,0
302,274,309,302,0
305,284,314,305,0
310,304,318,309,0
315,324,321,312,0
317,334,320,315,0
317,336,318,316,0
316,333,315,315,0
315,327,311,314,0
313,319,309,313,0
312,313,308,311,0
312,308,308,309,0
311,302,307,307,0
309,298,306,305,0
307,294,304,303,0
305,291,303,301,0
304,290,301,299,0
303,291,301,299,0
302,291,300,300,0
301,291,300,301,0
301,293,300,304,0
302,295,300,307,0
303,299,301,310,0
304,303,304,313,0
306,307,306,315,0
307,311,308,316,0
309,315,310,317,0
310,321,311,317,0
311,327,311,318,0
312,333,312,319,0
312,336,313,318,0
