302,331,309,311,2
302,330,309,311,2
302,326,309,311,2
302,320,309,310,2
302,315,309,310,2
302,313,309,310,2
302,310,308,311,2
301,306,308,311,2
301,299,307,310,2
300,293,307,309,2
299,289,306,308,2
300,288,306,306,2
301,288,307,306,2
302,290,307,306,2
303,292,307,307,2
302,294,306,308,2
302,294,306,308,2
302,291,306,308,2
302,285,306,308,2
303,276,307,308,2
304,267,307,308,2
305,261,308,308,2
306,259,308,308,2
306,260,308,309,2
306,262,308,309,2
305,266,308,309,2
305,274,308,310,2
304,283,308,310,2
304,291,309,310,2
304,296,310,310,2
303,301,310,309,2
304,303,310,310,2
304,304,310,309,2
304,301,310,309,2
303,296,309,309,2
302,293,307,309,2
301,293,305,309,2
300,294,303,310,2
299,294,302,311,2
298,298,301,311,2
297,306,300,313,2
297,315,300,313,2
297,321,300,312,2
296,327,302,312,2
297,334,304,313,2
298,340,307,314,2
299,345,308,316,2
300,344,307,315,2
300,336,307,314,2
300,324,306,313,2
301,310,307,312,2
302,298,307,311,2
303,288,308,310,2
305,279,309,309,2
305,274,309,309,2
305,276,309,307,2
304,282,308,306,2
302,290,307,305,2
301,299,307,306,2
300,306,307,306,2
300,310,307,308,2
300,311,308,310,2
301,309,310,313,2
303,305,311,315,2
304,300,312,315,2
306,296,312,315,2
306,294,311,314,2
305,294,310,313,2
305,296,309,313,2
305,295,309,313,2
305,293,309,315,2
305,295,308,316,2
304,299,307,316,2
301,304,305,316,2
299,308,303,314,2
298,312,303,314,2
299,313,304,313,2
301,313,305,313,2
303,310,306,313,2
304,305,305,313,2
306,299,304,313,2
307,297,301,312,2
307,300,299,313,2
307,305,298,313,2
306,309,298,312,2
305,311,300,312,2
304,311,303,311,2
304,313,304,310,2
303,317,304,309,2
302,318,302,308,2
303,315,299,308,2
304,309,297,308,2
304,301,297,308,2
305,290,298,309,2
306,281,300,308,2
307,278,304,310,2
308,282,307,310,2
308,290,310,310,2
308,301,310,310,2
307,311,309,309,2
306,319,308,309,2
306,322,306,309,2
305,323,306,310,2
304,321,306,310,2
305,320,305,310,2
306,322,305,310,2
307,325,304,310,2
307,329,304,309,2
306,334,303,310,2
305,337,303,312,2
304,336,302,312,2
303,331,301,311,2
302,324,301,309,2
302,316,301,308,2
303,304,302,306,2
305,291,303,305,2
307,282,305,304,2
309,278,307,303,2
311,276,308,303,2
312,275,309,304,2
311,277,309,305,2
310,280,309,307,2
309,286,309,308,2
307,293,309,309,2
305,300,308,310,2
304,311,308,310,2
302,322,307,311,2
302,330,305,311,2
302,330,304,312,2
302,321,302,312,2
302,308,302,312,2
302,294,302,311,2
303,281,302,311,2
304,271,303,311,2
305,264,304,310,2
306,262,304,309,2
307,265,305,309,2
308,273,306,310,2
309,284,305,310,2
308,295,303,310,2
307,302,301,309,2
306,305,301,310,2
305,307,301,310,2
305,307,301,311,2
305,304,301,311,2
305,298,302,312,2
305,288,303,312,2
306,273,305,311,2
306,260,306,311,2
307,251,306,312,2
308,251,306,312,2
308,261,306,313,2
308,278,305,313,2
306,300,302,312,2
304,320,300,310,2
303,333,298,310,2
302,339,297,309,2
303,340,297,309,2
303,339,297,310,2
304,336,298,310,2
305,334,299,311,2
306,331,301,311,2
307,329,304,311,2
308,326,308,312,2
308,326,309,313,2
308,323,309,314,2
307,316,308,313,2
305,305,306,312,2
304,295,304,311,2
304,286,304,311,2
304,280,304,311,2
304,275,305,312,2
304,272,305,312,2
304,270,306,312,2
305,269,307,313,2
305,271,308,312,2
306,278,308,311,2
307,290,308,311,2
308,305,308,311,2
308,321,309,310,2
307,333,308,311,2
306,340,308,311,2
304,341,307,310,2
302,337,306,309,2
300,331,305,309,2
299,323,305,310,2
299,316,305,311,2
300,307,305,312,2
301,300,306,313,2
302,295,307,314,2
304,293,307,314,2
306,295,308,314,2
306,300,307,314,2
307,307,307,314,2
307,310,307,313,2
308,311,306,312,2
309,310,305,313,2
310,306,303,312,2
310,296,302,312,2
311,282,301,311,2
311,273,299,311,2
310,270,299,311,2
309,272,298,312,2
308,276,297,313,2
306,282,298,313,2
305,288,301,312,2
303,293,303,312,2
302,297,304,313,2
302,302,305,313,2
302,311,305,313,2
302,321,304,312,2
301,330,304,312,2
301,334,305,311,2
302,333,307,310,2
302,327,308,310,2
303,318,309,309,2
303,306,308,309,2
304,294,308,309,2
304,282,306,308,2
304,275,304,307,2
304,272,304,307,2
304,274,306,308,2
305,283,309,309,2
306,292,310,309,2
306,298,311,309,2
306,299,310,307,2
306,297,310,305,2
305,295,310,304,2
305,292,311,303,2
306,290,311,304,2
308,291,312,305,2
308,295,311,306,2
308,301,310,307,2
308,305,309,308,2
307,307,307,307,2
305,306,305,307,2
305,305,305,307,2
305,302,304,307,2
306,298,305,307,2
307,295,306,306,2
309,294,306,306,2
310,293,307,306,2
312,294,309,307,2
313,296,311,308,2
315,298,311,309,2
314,301,311,308,2
312,306,309,307,2
310,315,308,305,2
308,325,306,305,2
307,333,306,305,2
306,338,305,305,2
305,338,305,305,2
305,332,305,306,2
305,320,306,307,2
305,307,306,307,2
305,298,306,307,2
306,294,306,307,2
307,293,307,307,2
308,293,307,308,2
309,293,307,309,2
310,293,307,310,2
310,294,307,311,2
310,296,307,312,2
310,298,307,312,2
311,301,308,312,2
311,307,309,312,2
311,313,310,313,2
311,320,311,313,2
311,321,312,313,2
310,316,313,312,2
309,308,313,310,2
309,302,313,309,2
307,302,311,306,2
306,306,309,304,2
305,307,308,303,2
305,304,306,302,2
305,296,306,303,2
306,284,307,304,2
307,269,308,305,2
309,256,309,307,2
310,250,310,308,2
311,252,310,310,2
312,263,309,311,2
311,280,309,312,2
310,298,308,313,2
309,312,308,313,2
308,319,307,312,2
308,319,306,311,2
308,319,305,310,2
307,322,303,309,2
306,325,301,308,2
305,327,298,308,2
303,327,297,309,2
302,324,297,309,2
302,319,298,310,2
302,314,301,311,2
304,311,305,312,2
306,310,309,312,2
308,310,311,313,2
309,311,312,314,2
310,312,314,315,2
310,314,315,315,2
309,315,315,314,2
308,315,313,312,2
308,315,312,312,2
307,317,311,311,2
306,318,309,312,2
307,316,309,312,2
307,312,309,313,2
307,303,309,313,2
307,290,308,313,2
308,280,308,313,2
309,278,307,313,2
308,282,308,312,2
308,290,308,312,2
308,300,309,312,2
309,308,310,311,2
310,313,312,310,2
312,314,314,309,2
312,313,314,308,2
312,311,314,308,2
312,309,313,310,2
311,306,312,312,2
311,304,311,314,2
311,303,310,316,2
311,301,308,316,2
311,298,306,315,2
310,295,305,313,2
310,294,304,310,2
310,295,302,309,2
310,299,301,308,2
309,302,300,308,2
309,300,298,308,2
308,295,298,308,2
308,288,300,308,2
308,282,303,308,2
308,278,306,308,2
308,276,306,308,2
308,279,305,309,2
307,285,305,309,2
307,293,305,309,2
307,302,305,309,2
308,310,305,310,2
309,318,306,312,2
308,326,306,313,2
307,331,305,313,2
305,332,304,312,2
304,330,304,311,2
304,326,304,311,2
305,321,304,310,2
306,316,305,310,2
307,311,306,310,2
308,304,306,310,2
308,298,306,309,2
309,295,305,309,2
309,293,305,308,2
310,293,305,307,2
310,292,304,306,2
310,291,304,307,2
310,286,304,308,2
311,281,305,309,2
311,280,306,310,2
310,284,306,310,2
308,293,305,309,2
304,307,303,307,2
300,325,301,306,2
297,336,299,306,2
295,338,299,306,2
295,333,299,307,2
296,324,300,308,2
298,316,302,310,2
300,312,303,312,2
302,314,303,314,2
303,320,303,314,2
304,323,302,315,2
304,321,302,315,2
304,316,301,314,2
304,309,301,314,2
305,299,301,314,2
306,290,302,314,2
308,284,303,314,2
309,283,304,313,2
309,289,303,312,2
309,299,303,311,2
308,309,302,309,2
307,316,302,309,2
307,320,302,309,2
307,321,302,310,2
308,320,303,312,2
308,316,303,312,2
308,310,303,312,2
308,307,303,310,2
308,304,303,309,2
308,301,303,308,2
309,297,304,308,2
310,291,304,308,2
310,287,304,308,2
311,285,305,309,2
311,286,306,308,2
311,289,308,307,2
311,295,309,307,2
311,303,310,306,2
310,311,310,306,2
309,315,308,306,2
308,315,305,307,2
309,312,302,308,2
309,308,300,309,2
309,305,300,310,2
308,303,301,311,2
307,301,304,311,2
306,298,305,311,2
305,298,305,310,2
305,300,304,310,2
305,302,304,310,2
305,304,303,311,2
305,306,303,311,2
305,307,302,311,2
306,307,302,311,2
306,308,301,311,2
306,311,300,311,2
306,314,300,311,2
305,312,299,311,2
305,304,300,312,2
305,292,301,312,2
305,280,303,312,2
307,272,305,312,2
308,268,308,312,2
309,272,309,313,2
309,281,309,313,2
309,292,308,312,2
308,304,306,312,2
307,316,305,311,2
306,325,303,310,2
305,329,303,310,2
305,329,302,309,2
306,323,301,310,2
306,316,301,309,2
307,309,302,309,2
307,304,302,309,2
309,302,303,311,2
309,302,304,311,2
310,303,306,311,2
309,305,308,311,2
309,309,310,312,2
309,312,311,312,2
309,312,310,312,2
310,310,310,312,2
311,307,309,311,2
311,307,308,310,2
311,308,307,309,2
311,308,305,308,2
309,309,305,307,2
309,310,305,306,2
308,310,307,305,2
308,309,308,306,2
308,304,311,306,2
309,298,312,307,2
309,291,312,307,2
310,288,312,307,2
311,291,311,308,2
311,295,310,308,2
311,298,309,308,2
311,299,309,308,2
312,299,308,307,2
312,299,308,307,2
313,301,307,307,2
314,307,307,309,2
314,317,307,310,2
313,328,306,310,2
312,337,305,310,2
310,345,305,308,2
308,351,304,307,2
308,354,304,307,2
307,354,304,306,2
307,355,303,305,2
307,355,303,305,2
307,354,303,306,2
307,351,304,307,2
307,343,304,310,2
306,332,305,311,2
307,321,306,312,2
308,314,307,312,2
309,310,307,312,2
309,305,308,312,2
310,297,308,311,2
309,290,308,311,2
309,287,307,311,2
307,286,306,312,2
307,286,306,313,2
307,285,306,313,2
308,282,305,312,2
309,276,305,311,2
310,269,304,308,2
310,264,304,306,2
312,262,304,304,2
312,263,305,303,2
313,268,305,303,2
312,275,305,303,2
312,280,304,303,2
312,282,303,303,2
312,280,302,303,2
312,277,301,303,2
312,276,302,304,2
312,278,304,304,2
312,282,307,305,2
313,289,310,305,2
312,300,311,305,2
311,313,310,304,2
308,322,307,303,2
306,327,305,302,2
305,329,304,302,2
304,329,304,303,2
304,330,305,303,2
304,331,305,303,2
303,331,305,303,2
303,330,305,303,2
302,327,304,303,2
302,322,304,303,2
302,317,303,303,2
302,313,303,302,2
303,312,303,302,2
305,312,304,303,2
306,313,306,303,2
308,311,308,304,2
309,306,311,305,2
310,300,313,306,2
312,292,314,306,2
313,287,314,307,2
314,285,313,308,2
314,282,311,307,2
313,283,307,305,2
312,289,304,303,2
310,297,302,301,2
309,303,300,299,2
307,308,300,298,2
306,311,301,297,2
305,312,302,297,2
304,309,303,298,2
304,306,305,300,2
305,305,307,303,2
308,304,310,307,2
309,304,311,310,2
310,305,311,311,2
310,307,312,312,2
310,311,311,311,2
309,314,311,311,2
309,315,311,310,2
308,316,311,309,2
308,317,311,309,2
307,317,311,308,2
306,316,311,308,2
304,313,310,306,2
303,308,310,305,2
302,305,309,304,2
302,302,308,304,2
303,295,308,305,2
304,284,308,305,2
305,269,308,306,2
307,254,308,306,2
310,241,309,306,2
313,233,309,306,2
315,233,309,306,2
315,245,308,306,2
315,271,307,307,2
314,306,306,308,2
312,341,303,308,2
310,366,299,308,2
308,378,294,307,2
305,379,291,306,2
303,374,288,306,2
302,366,288,305,2
301,354,289,306,2
301,341,292,306,2
302,329,295,306,2
303,318,297,306,2
304,307,298,307,2
305,297,299,308,2
307,289,300,309,2
308,285,301,309,2
309,283,303,309,2
309,285,306,309,2
308,288,308,308,2
307,291,310,308,2
306,292,311,308,2
304,291,310,307,2
303,291,307,307,2
303,292,305,307,2
304,296,304,308,2
307,300,303,308,2
309,303,302,308,2
310,303,300,306,2
310,302,299,304,2
309,299,299,302,2
308,298,299,300,2
308,300,302,299,2
307,304,305,299,2
307,309,310,299,2
308,315,314,302,2
308,320,317,305,2
308,324,318,308,2
307,322,317,310,2
306,316,317,311,2
306,306,316,311,2
306,293,316,310,2
306,281,317,308,2
306,272,317,306,2
306,267,317,306,2
307,266,318,306,2
308,270,318,306,2
309,277,318,308,2
310,287,317,309,2
310,297,316,309,2
309,307,314,309,2
306,315,312,309,2
304,321,309,308,2
302,326,306,307,2
300,331,305,306,2
300,334,303,305,2
301,335,302,303,2
301,336,302,301,2
302,335,302,300,2
303,331,301,300,2
304,324,301,300,2
305,315,301,301,2
306,305,302,302,2
307,296,305,304,2
307,289,308,306,2
308,286,310,308,2
307,285,311,309,2
307,286,310,310,2
307,288,310,310,2
307,295,310,310,2
307,305,309,309,2
307,315,308,307,2
306,320,306,305,2
304,321,305,303,2
303,319,304,302,2
303,316,304,302,2
302,313,305,302,2
302,312,307,304,2
302,315,308,307,2
303,317,309,309,2
304,316,309,311,2
305,312,307,313,2
306,304,306,313,2
307,296,304,313,2
307,288,304,312,2
308,281,303,310,2
308,277,303,309,2
308,277,304,309,2
308,282,304,309,2
308,291,304,309,2
307,301,304,309,2
307,308,304,309,2
307,311,304,309,2
306,310,303,308,2
307,307,303,308,2
308,304,303,309,2
309,300,304,310,2
309,297,304,311,2
309,296,303,311,2
309,298,302,311,2
308,303,301,310,2
307,306,301,310,2
307,306,301,310,2
307,302,302,310,2
308,296,303,310,2
309,289,303,310,2
309,287,304,310,2
309,292,303,310,2
308,301,302,310,2
307,312,301,310,2
307,327,300,311,2
307,338,299,311,2
307,344,297,311,2
307,344,296,310,2
307,337,294,309,2
308,327,294,310,2
308,312,293,310,2
309,297,293,310,2
309,288,293,310,2
310,287,294,311,2
310,294,293,312,2
310,307,293,313,2
308,320,293,313,2
307,329,294,313,2
306,334,297,313,2
305,335,302,314,2
305,333,307,315,2
306,330,309,316,2
307,325,310,316,2
307,321,310,316,2
307,314,309,314,2
307,306,307,312,2
306,300,306,310,2
306,297,306,310,2
307,298,308,311,2
308,298,310,312,2
309,296,312,312,2
310,292,312,312,2
309,287,312,312,2
308,283,309,311,2
307,282,307,311,2
306,284,305,311,2
305,291,303,311,2
304,300,302,311,2
303,308,301,311,2
302,314,301,310,2
302,316,301,310,2
302,315,301,310,2
303,309,302,310,2
305,300,303,310,2
306,291,304,310,2
308,283,305,310,2
310,278,305,310,2
311,280,306,311,2
311,286,306,311,2
311,293,306,311,2
310,300,306,310,2
309,309,305,309,2
308,319,304,309,2
307,328,303,309,2
306,333,302,309,2
306,329,302,310,2
307,318,302,311,2
308,305,304,311,2
309,293,305,312,2
311,287,306,313,2
312,290,307,312,2
312,301,307,312,2
311,315,306,311,2
310,327,304,311,2
309,333,302,311,2
307,333,300,310,2
305,331,298,308,2
303,329,297,307,2
302,328,296,306,2
302,327,297,306,2
303,326,298,306,2
303,327,299,306,2
304,327,301,305,2
304,326,301,305,2
306,322,302,306,2
307,318,302,307,2
308,312,300,308,2
308,307,299,309,2
308,305,297,310,2
308,303,296,310,2
307,301,297,309,2
307,298,299,309,2
308,294,301,309,2
309,289,302,310,2
311,284,301,311,2
311,280,300,311,2
312,279,299,311,2
312,282,298,310,2
312,291,298,310,2
312,303,298,309,2
311,312,299,308,2
311,317,300,306,2
310,316,303,304,2
310,313,305,304,2
309,307,308,305,2
309,302,311,307,2
310,297,314,311,2
310,292,314,313,2
309,288,314,313,2
307,283,312,313,2
306,279,311,312,2
306,276,310,311,2
307,278,309,311,2
309,285,309,311,2
309,298,308,311,2
308,312,306,312,2
307,325,305,312,2
306,335,304,313,2
305,339,303,312,2
305,340,302,310,2
305,337,303,309,2
306,333,304,307,2
307,327,306,307,2
308,320,307,307,2
310,313,308,307,2
311,308,308,308,2
312,305,307,308,2
313,301,306,310,2
313,296,304,310,2
312,293,303,310,2
312,292,303,309,2
311,293,303,309,2
311,296,304,308,2
310,302,305,308,2
310,311,305,308,2
310,318,306,306,2
309,322,306,305,2
308,324,305,304,2
307,325,304,304,2
306,324,304,304,2
306,318,304,304,2
306,311,304,305,2
307,303,305,306,2
308,295,305,305,2
307,291,304,303,2
307,292,304,303,2
306,295,304,302,2
307,298,304,302,2
307,299,305,302,2
307,298,306,303,2
308,299,307,303,2
309,301,308,303,2
309,304,308,303,2
310,312,308,304,2
310,320,307,305,2
309,327,305,305,2
307,333,302,303,2
305,337,300,302,2
304,341,301,301,2
303,340,303,300,2
303,332,305,299,2
302,315,307,299,2
303,293,309,300,2
304,272,310,302,2
305,255,311,303,2
307,245,311,304,2
308,244,311,305,2
308,255,310,306,2
307,271,309,306,2
305,287,307,306,2
303,296,306,305,2
301,302,305,305,2
301,304,306,305,2
302,305,307,305,2
302,307,306,305,2
303,311,306,305,2
303,314,306,305,2
302,315,306,305,2
303,315,306,304,2
304,313,306,304,2
305,309,306,304,2
306,306,306,303,2
305,306,305,304,2
305,309,304,304,2
303,310,303,304,2
302,313,303,304,2
301,317,304,305,2
300,321,306,305,2
299,323,308,305,2
299,321,309,304,2
300,317,309,304,2
300,311,309,304,2
301,305,308,303,2
302,299,308,303,2
303,296,307,303,2
303,294,307,304,2
303,298,306,304,2
302,305,306,303,2
301,314,305,303,2
301,322,305,304,2
301,328,304,304,2
301,332,304,305,2
302,334,305,306,2
304,335,305,307,2
305,335,305,308,2
306,332,305,309,2
306,327,304,310,2
306,321,303,310,2
305,314,301,309,2
305,307,299,308,2
305,302,299,306,2
304,300,300,304,2
303,299,302,303,2
303,302,306,302,2
303,305,311,302,2
304,308,314,304,2
305,307,314,305,2
305,301,311,305,2
305,289,306,305,2
305,273,303,304,2
305,256,302,304,2
306,244,304,304,2
307,237,307,304,2
308,240,309,305,2
309,250,310,305,2
309,264,310,305,2
310,277,310,305,2
309,284,310,305,2
309,286,310,305,2
310,286,310,305,2
312,291,311,307,2
313,302,310,308,2
311,319,308,307,2
308,338,305,307,2
305,353,304,308,2
303,362,303,309,2
302,364,303,310,2
300,361,302,310,2
300,352,301,310,2
300,341,301,310,2
302,329,302,311,2
304,316,304,312,2
306,302,305,312,2
308,289,306,310,2
309,282,306,308,2
308,281,306,307,2
307,285,305,306,2
306,292,304,306,2
304,300,303,305,2
302,310,301,305,2
301,317,300,304,2
300,322,299,304,2
299,324,299,303,2
299,325,300,301,2
300,326,302,301,2
300,324,304,301,2
301,323,306,301,2
302,320,307,302,2
303,319,307,303,2
303,317,305,303,2
302,314,303,303,2
302,311,301,304,2
302,309,300,305,2
302,305,301,306,2
302,299,304,307,2
303,293,307,308,2
304,286,312,308,2
305,280,315,308,2
305,278,315,308,2
304,287,314,308,2
304,299,313,308,2
303,311,313,309,2
303,318,313,310,2
303,317,313,311,2
303,311,313,312,2
304,303,313,311,2
304,296,313,311,2
305,290,312,311,2
307,290,312,311,2
308,295,311,310,2
308,302,311,308,2
307,305,310,306,2
305,302,309,304,2
304,296,309,303,2
303,291,309,302,2
304,290,310,302,2
304,294,311,303,2
304,305,311,304,2
302,317,310,305,2
299,328,308,305,2
298,336,306,304,2
296,340,305,302,2
296,343,305,301,2
296,344,305,301,2
298,344,307,302,2
300,342,310,302,2
302,340,312,303,2
303,336,315,304,2
304,331,315,303,2
304,326,315,302,2
303,321,313,302,2
302,318,312,303,2
302,316,311,303,2
302,314,310,304,2
302,309,310,305,2
302,301,310,306,2
302,294,310,305,2
302,290,309,305,2
302,290,308,304,2
302,292,307,304,2
302,293,307,304,2
302,288,307,305,2
302,279,308,306,2
302,270,308,307,2
303,262,309,307,2
302,257,310,305,2
302,257,310,304,2
301,262,309,302,2
300,275,309,302,2
300,291,308,301,2
300,305,308,302,2
299,312,308,302,2
300,310,309,303,2
300,303,309,303,2
301,293,310,305,2
303,286,310,307,2
304,285,310,308,2
304,293,311,309,2
305,305,311,310,2
306,318,310,310,2
306,328,308,307,2
305,335,305,304,2
303,338,303,303,2
302,336,303,301,2
300,332,305,301,2
300,327,307,301,2
300,321,308,301,2
300,315,309,302,2
301,308,309,304,2
302,302,309,306,2
304,301,309,308,2
304,304,309,309,2
304,311,310,308,2
303,319,310,307,2
300,327,310,306,2
299,333,311,305,2
298,336,312,304,2
298,334,313,304,2
299,330,313,305,2
301,327,313,306,2
302,327,313,306,2
302,327,313,307,2
302,323,312,307,2
302,316,312,306,2
302,309,311,306,2
302,306,311,305,2
303,305,312,304,2
303,306,312,304,2
304,306,313,304,2
304,304,313,305,2
305,301,314,305,2
306,298,314,306,2
307,294,314,307,2
308,287,313,308,2
309,277,312,310,2
310,266,311,311,2
311,255,310,310,2
311,247,310,307,2
310,245,308,305,2
309,252,307,304,2
309,268,305,304,2
308,288,303,304,2
306,308,302,304,2
304,323,301,304,2
303,331,302,305,2
302,332,304,305,2
302,329,306,305,2
303,324,309,305,2
304,318,311,306,2
304,311,313,306,2
305,307,314,305,2
305,305,314,305,2
305,306,312,303,2
304,309,310,302,2
303,312,308,301,2
303,315,307,301,2
303,317,305,302,2
303,318,304,304,2
303,317,302,305,2
303,316,302,307,2
304,320,302,309,2
305,325,302,309,2
307,330,302,310,2
307,335,302,309,2
308,338,304,308,2
308,338,306,306,2
309,337,309,305,2
309,338,312,304,2
310,340,313,303,2
309,342,314,303,2
310,344,313,303,2
309,346,313,304,2
308,348,312,305,2
307,342,312,306,2
306,328,311,307,2
305,313,311,307,2
305,300,310,308,2
304,291,310,308,2
305,283,311,308,2
305,279,311,308,2
305,277,311,307,2
306,276,312,306,2
306,275,313,305,2
307,275,313,304,2
308,280,314,304,2
308,289,314,304,2
308,300,313,305,2
307,308,311,304,2
306,310,309,304,2
306,308,307,304,2
306,301,308,304,2
307,294,309,304,2
307,289,310,304,2
308,287,311,304,2
309,290,311,304,2
308,299,311,304,2
307,309,310,305,2
305,313,309,305,2
304,310,308,305,2
303,303,307,304,2
302,295,308,304,2
303,288,308,304,2
305,282,309,303,2
306,279,309,302,2
307,279,309,300,2
308,280,308,299,2
309,283,308,299,2
311,289,306,298,2
311,296,304,298,2
311,306,302,299,2
311,317,300,301,2
311,324,299,303,2
312,327,298,304,2
311,325,297,305,2
310,319,298,305,2
309,312,299,305,2
308,308,302,304,2
307,311,306,303,2
305,319,309,302,2
303,329,311,302,2
302,338,311,303,2
301,345,311,303,2
300,348,309,304,2
301,347,309,305,2
302,343,308,306,2
303,335,308,306,2
304,325,307,305,2
304,315,307,303,2
305,307,307,302,2
306,302,307,301,2
308,300,308,301,2
309,299,308,301,2
310,302,308,301,2
310,308,308,301,2
309,317,307,300,2
308,326,306,301,2
307,329,305,302,2
307,328,304,303,2
306,326,305,304,2
306,322,307,305,2
307,316,309,306,2
307,308,311,307,2
307,298,311,306,2
308,285,310,306,2
307,276,308,304,2
306,274,307,304,2
305,277,305,302,2
304,282,304,302,2
304,289,303,300,2
304,297,304,299,2
304,304,305,300,2
305,309,307,300,2
306,311,309,301,2
306,310,311,302,2
305,306,311,302,2
305,300,310,303,2
305,294,308,303,2
304,285,305,303,2
305,273,303,302,2
305,263,302,302,2
305,259,302,302,2
305,261,301,302,2
305,267,300,301,2
304,276,299,300,2
304,286,298,299,2
303,297,298,299,2
302,308,298,300,2
301,317,300,302,2
301,325,303,305,2
302,332,307,308,2
302,336,311,309,2
302,339,313,310,2
303,342,313,311,2
302,344,313,311,2
302,344,312,311,2
303,342,311,310,2
303,340,311,310,2
303,338,310,309,2
303,334,309,308,2
303,330,309,308,2
303,326,309,308,2
303,322,310,307,2
303,318,310,307,2
302,313,309,307,2
302,309,309,306,2
302,306,309,305,2
301,307,308,304,2
301,308,307,304,2
302,309,305,304,2
303,309,304,305,2
303,307,302,305,2
304,306,301,305,2
304,306,300,306,2
304,303,299,306,2
304,298,299,305,2
303,293,299,304,2
304,289,301,305,2
305,287,303,304,2
306,288,306,303,2
307,292,308,302,2
308,296,309,302,2
307,299,309,301,2
307,299,309,301,2
307,294,310,302,2
307,288,310,302,2
307,285,311,301,2
306,289,310,301,2
305,298,309,301,2
305,307,308,300,2
304,310,307,299,2
304,308,306,299,2
304,303,305,300,2
305,297,306,301,2
306,294,306,301,2
307,293,306,302,2
308,297,306,303,2
308,305,305,303,2
306,314,304,303,2
305,322,303,302,2
305,325,303,301,2
305,326,303,299,2
305,322,303,297,2
304,315,304,295,2
303,308,304,292,2
302,304,305,290,2
300,305,306,289,2
300,309,308,289,2
300,312,309,290,2
301,316,309,291,2
302,318,308,294,2
303,323,308,296,2
303,327,308,298,2
304,330,308,300,2
303,332,308,301,2
302,332,307,302,2
301,330,307,302,2
300,327,306,303,2
300,323,306,303,2
300,320,306,303,2
300,317,306,303,2
301,315,306,303,2
301,314,305,303,2
302,313,304,303,2
303,311,303,303,2
304,309,302,302,2
305,305,302,301,2
305,297,301,300,2
306,288,301,300,2
307,279,302,300,2
307,273,303,301,2
308,269,303,301,2
308,266,302,300,2
307,265,301,299,2
305,269,300,299,2
304,278,300,301,2
304,290,301,302,2
303,304,303,303,2
302,319,305,304,2
301,333,306,305,2
301,343,306,306,2
302,347,305,306,2
302,347,305,306,2
303,342,304,306,2
303,335,304,307,2
303,326,303,306,2
303,319,303,306,2
303,313,304,306,2
304,310,305,305,2
304,311,308,306,2
306,313,310,305,2
306,313,312,304,2
307,311,313,303,2
308,309,313,303,2
308,305,312,303,2
307,300,310,303,2
306,296,307,304,2
306,292,306,303,2
306,289,305,304,2
307,286,305,304,2
307,285,304,304,2
307,287,303,305,2
306,290,302,305,2
306,294,302,305,2
306,298,303,305,2
305,302,303,304,2
305,307,303,304,2
304,310,303,303,2
303,311,303,303,2
302,310,302,303,2
302,311,302,303,2
302,313,301,303,2
301,315,300,302,2
301,318,301,302,2
301,320,303,302,2
302,320,304,303,2
303,317,305,303,2
304,310,305,304,2
305,301,305,305,2
306,292,306,304,2
307,286,307,304,2
308,286,308,305,2
309,290,311,307,2
308,298,313,307,2
308,303,314,308,2
307,303,314,308,2
306,298,313,308,2
305,289,311,307,2
305,277,310,306,2
305,268,309,305,2
306,264,308,305,2
306,264,307,305,2
306,271,306,305,2
306,285,306,307,2
305,304,305,308,2
305,324,305,308,2
304,341,306,308,2
304,352,306,309,2
305,356,307,309,2
305,353,307,308,2
305,344,307,307,2
306,335,307,307,2
306,327,307,309,2
306,321,306,310,2
305,318,305,311,2
305,318,305,311,2
304,318,304,311,2
303,318,304,309,2
303,318,304,308,2
302,314,304,306,2
303,309,304,304,2
303,302,305,304,2
304,295,306,304,2
305,289,308,306,2
306,284,309,308,2
306,282,310,309,2
306,281,310,310,2
306,281,311,311,2
307,282,311,312,2
307,287,312,313,2
307,293,312,313,2
307,299,311,312,2
307,305,311,311,2
307,310,310,311,2
307,312,311,310,2
308,313,313,308,2
308,313,314,308,2
308,311,314,308,2
307,306,315,308,2
306,300,314,308,2
305,294,311,309,2
304,289,307,309,2
303,285,304,309,2
303,285,302,308,2
302,290,301,307,2
302,298,301,306,2
301,306,301,305,2
300,311,301,306,2
300,313,302,306,2
300,312,303,307,2
301,308,304,307,2
301,301,304,308,2
303,293,305,308,2
304,287,305,309,2
304,286,305,309,2
304,292,304,309,2
303,301,303,308,2
302,308,302,306,2
301,312,303,306,2
301,313,306,306,2
301,311,310,305,2
302,308,312,306,2
302,305,312,307,2
303,305,313,308,2
303,309,312,309,2
304,315,311,310,2
303,322,310,311,2
303,331,309,311,2
302,338,307,312,2
302,341,306,311,2
303,340,305,310,2
303,337,304,308,2
303,334,304,306,2
303,330,303,305,2
303,327,304,304,2
304,325,303,303,2
304,323,303,303,2
304,322,302,303,2
304,320,301,304,2
304,316,302,305,2
304,311,304,307,2
303,305,307,309,2
303,301,312,310,2
302,297,314,309,2
302,295,315,309,2
302,296,315,309,2
304,298,314,308,2
304,300,313,307,2
305,300,311,307,2
305,299,311,307,2
305,298,311,307,2
304,299,310,307,2
303,298,308,305,2
301,298,306,302,2
301,301,304,300,2
302,307,304,300,2
303,314,304,301,2
304,318,306,303,2
306,317,307,304,2
307,310,307,305,2
307,302,307,304,2
307,295,307,303,2
307,291,306,302,2
306,285,306,302,2
305,276,306,302,2
304,264,306,302,2
304,252,307,302,2
304,246,308,302,2
305,245,308,302,2
305,252,308,301,2
305,268,308,300,2
305,288,307,299,2
305,303,306,299,2
305,312,306,300,2
305,317,305,300,2
305,322,304,301,2
305,326,303,302,2
305,330,302,303,2
304,334,302,304,2
303,339,301,303,2
303,342,301,302,2
302,343,303,301,2
303,339,305,301,2
303,333,307,301,2
304,325,309,302,2
306,317,310,303,2
307,309,311,303,2
308,303,311,304,2
308,301,311,304,2
310,301,312,306,2
312,301,312,308,2
313,301,313,309,2
313,304,312,310,2
311,312,311,310,2
308,319,310,310,2
306,323,309,309,2
304,325,308,308,2
303,325,307,307,2
302,323,306,307,2
302,320,306,307,2
302,317,306,308,2
302,317,306,308,2
302,318,307,308,2
302,321,308,307,2
303,325,309,306,2
303,326,311,305,2
303,324,311,304,2
303,315,312,304,2
303,303,312,304,2
304,289,313,305,2
306,277,315,306,2
307,266,317,308,2
309,256,317,309,2
309,247,316,310,2
309,243,313,309,2
307,249,309,307,2
305,262,306,306,2
303,280,305,305,2
302,299,303,305,2
302,314,303,307,2
301,323,303,307,2
301,326,303,307,2
301,324,304,307,2
302,322,304,306,2
303,320,304,306,2
304,316,304,304,2
305,314,305,303,2
305,314,304,302,2
306,315,304,303,2
307,313,304,303,2
307,309,302,303,2
307,303,301,303,2
307,298,302,304,2
308,295,304,304,2
308,294,307,303,2
309,295,310,303,2
310,299,312,303,2
311,305,312,304,2
312,314,311,305,2
312,323,310,307,2
311,331,310,309,2
309,337,309,311,2
308,340,309,312,2
306,339,310,312,2
305,336,310,312,2
305,333,311,312,2
305,329,312,311,2
306,327,312,311,2
306,325,312,311,2
306,325,311,311,2
306,325,310,311,2
307,324,311,311,2
308,320,311,311,2
308,314,312,311,2
308,305,312,311,2
308,298,313,310,2
307,296,313,309,2
307,299,313,309,2
307,307,312,309,2
306,317,311,309,2
305,325,310,309,2
305,329,310,308,2
304,330,310,308,2
305,329,310,307,2
305,326,310,307,2
305,320,310,307,2
304,315,310,308,2
305,311,309,309,2
305,309,309,310,2
306,308,310,311,2
307,307,310,311,2
308,303,310,311,2
307,300,310,310,2
307,297,309,310,2
307,293,310,309,2
307,289,310,309,2
308,283,311,308,2
309,279,312,307,2
310,276,313,306,2
310,274,313,304,2
310,275,312,303,2
309,277,310,301,2
308,280,309,301,2
309,280,309,302,2
309,278,310,303,2
311,279,311,305,2
312,285,312,307,2
312,294,313,309,2
312,304,313,311,2
312,313,313,312,2
311,320,312,312,2
310,326,311,312,2
309,328,310,312,2
309,326,310,311,2
308,320,309,310,2
309,310,309,308,2
309,302,309,307,2
310,297,308,306,2
310,295,307,305,2
310,296,306,304,2
310,301,305,304,2
309,306,306,305,2
309,309,308,306,2
308,309,311,307,2
308,309,314,308,2
309,311,314,309,2
309,315,314,310,2
309,323,313,310,2
307,331,312,309,2
305,338,311,308,2
303,342,310,308,2
302,343,309,309,2
301,344,310,311,2
301,344,310,313,2
302,342,311,314,2
303,339,312,314,2
304,333,312,315,2
304,325,313,314,2
305,314,312,314,2
305,303,311,312,2
304,296,310,310,2
304,291,310,307,2
304,284,310,304,2
304,278,310,302,2
305,273,310,302,2
305,271,311,302,2
305,273,311,304,2
304,278,311,306,2
304,286,311,308,2
303,292,311,308,2
302,297,310,308,2
302,298,310,307,2
302,298,310,307,2
302,299,311,306,2
303,303,311,306,2
304,309,311,307,2
305,312,312,307,2
305,312,313,306,2
305,311,313,306,2
304,311,313,306,2
303,314,313,307,2
302,318,311,308,2
302,321,310,309,2
301,325,307,310,2
302,328,306,311,2
303,328,304,311,2
305,325,304,311,2
306,319,304,311,2
307,310,304,310,2
308,301,303,308,2
308,291,301,307,2
307,285,299,305,2
306,285,296,304,2
305,292,295,304,2
304,301,295,304,2
304,311,295,304,2
302,320,297,304,2
301,327,299,303,2
300,331,302,303,2
300,332,304,304,2
301,331,306,305,2
301,329,307,307,2
302,324,308,307,2
303,318,309,308,2
303,309,309,308,2
304,299,310,309,2
305,290,311,309,2
306,284,312,309,2
307,281,312,310,2
307,283,312,309,2
307,292,311,309,2
307,303,310,309,2
307,312,309,309,2
306,320,309,309,2
306,326,309,309,2
306,326,308,308,2
305,320,308,307,2
304,312,306,306,2
303,308,305,305,2
303,307,304,304,2
302,308,304,305,2
301,310,305,306,2
301,312,305,307,2
300,312,306,307,2
299,309,306,307,2
299,304,306,307,2
300,296,306,308,2
300,289,307,309,2
301,283,308,310,2
302,282,309,311,2
304,286,309,311,2
304,292,310,312,2
305,299,311,311,2
305,302,311,310,2
305,303,311,309,2
305,302,310,308,2
304,303,309,308,2
304,307,309,307,2
303,310,308,306,2
302,312,307,305,2
302,311,306,305,2
302,309,305,305,2
302,304,305,305,2
304,298,305,306,2
305,292,305,307,2
306,288,304,307,2
307,287,305,308,2
308,291,305,309,2
308,294,304,309,2
309,295,304,309,2
309,294,303,309,2
309,295,302,310,2
309,297,301,309,2
308,298,300,309,2
308,298,299,308,2
308,297,297,306,2
308,300,296,305,2
308,306,297,304,2
308,314,298,305,2
308,321,300,306,2
307,325,303,307,2
307,327,307,307,2
307,326,309,308,2
308,324,310,309,2
309,326,310,310,2
308,331,310,310,2
308,338,309,310,2
307,342,308,310,2
306,340,306,308,2
305,333,305,307,2
304,326,305,306,2
303,321,305,305,2
303,317,304,305,2
304,313,305,305,2
305,309,306,305,2
306,304,306,304,2
307,301,306,304,2
308,300,305,303,2
308,301,304,302,2
308,303,303,301,2
308,306,302,302,2
308,309,302,303,2
309,310,303,304,2
309,307,304,306,2
308,303,304,307,2
307,299,304,308,2
306,294,304,308,2
305,292,304,309,2
305,291,303,309,2
305,295,303,309,2
306,303,303,309,2
306,311,304,309,2
306,315,304,310,2
306,316,304,310,2
307,315,303,309,2
306,314,304,309,2
306,315,303,310,2
306,313,303,310,2
306,308,303,310,2
306,300,303,309,2
306,292,304,308,2
306,287,304,309,2
307,285,306,309,2
307,289,307,310,2
307,296,307,312,2
306,305,307,312,2
306,310,306,312,2
306,311,305,312,2
306,308,305,311,2
307,304,305,310,2
308,298,305,309,2
308,293,305,307,2
309,290,305,307,2
309,290,305,306,2
309,293,304,306,2
309,299,303,306,2
308,304,302,306,2
306,307,301,307,2
305,309,301,307,2
304,311,300,307,2
304,313,300,308,2
303,314,300,309,2
304,313,301,310,2
304,312,303,310,2
305,311,303,311,2
305,310,303,312,2
305,310,303,312,2
305,309,304,311,2
305,309,305,310,2
305,309,308,309,2
306,308,310,308,2
306,307,311,308,2
307,305,311,308,2
308,301,310,309,2
309,297,310,309,2
310,293,310,308,2
311,291,310,306,2
312,291,311,306,2
313,295,312,305,2
313,302,313,304,2
313,311,314,304,2
313,318,314,305,2
312,319,312,305,2
311,317,309,304,2
309,316,305,304,2
308,316,302,305,2
306,315,300,306,2
305,312,299,306,2
305,308,299,306,2
305,304,299,305,2
306,302,299,304,2
306,302,300,302,2
306,302,300,301,2
306,299,300,300,2
306,297,301,300,2
305,294,302,301,2
306,293,302,302,2
306,295,303,303,2
306,298,305,305,2
306,302,306,306,2
306,307,306,307,2
306,312,307,308,2
305,315,307,308,2
305,316,307,308,2
305,314,307,309,2
306,305,307,309,2
306,291,307,309,2
306,274,306,309,2
307,261,305,309,2
308,252,304,308,2
309,250,303,306,2
309,254,301,305,2
309,267,298,303,2
308,283,296,302,2
306,296,295,302,2
305,303,295,302,2
303,306,296,302,2
302,305,299,304,2
301,304,302,305,2
301,303,304,307,2
302,304,304,308,2
303,308,303,309,2
304,313,302,310,2
304,319,303,310,2
304,323,304,309,2
304,328,307,309,2
305,329,309,308,2
305,328,310,308,2
305,325,310,308,2
306,321,309,308,2
306,316,307,307,2
305,312,306,306,2
305,310,305,305,2
304,308,304,304,2
304,305,304,305,2
304,302,304,305,2
304,299,303,304,2
304,295,303,303,2
304,291,302,303,2
304,288,302,302,2
304,287,302,301,2
305,287,302,300,2
306,284,302,299,2
306,281,302,298,2
307,279,303,298,2
307,283,304,299,2
308,290,304,300,2
309,299,305,301,2
310,309,305,302,2
309,316,305,303,2
308,315,304,304,2
308,308,304,305,2
308,299,304,305,2
309,290,304,307,2
310,283,305,308,2
311,281,306,308,2
311,284,307,308,2
311,294,307,308,2
312,305,306,309,2
312,312,306,310,2
312,316,306,310,2
311,316,306,311,2
310,314,306,310,2
308,312,305,310,2
307,313,304,309,2
306,319,303,309,2
306,327,304,310,2
305,332,304,312,2
305,333,303,313,2
305,333,303,313,2
305,334,303,314,2
304,332,303,312,2
302,329,302,310,2
301,324,302,309,2
301,319,303,308,2
302,316,303,308,2
303,314,304,308,2
304,317,304,307,2
305,323,305,307,2
306,330,306,309,2
308,331,308,312,2
309,326,309,313,2
311,315,310,314,2
312,302,310,313,2
313,290,309,312,2
313,281,309,312,2
314,280,309,314,2
313,285,309,316,2
313,293,308,317,2
311,302,308,317,2
309,311,307,316,2
307,319,306,315,2
305,328,305,314,2
304,336,304,313,2
303,340,304,313,2
303,341,304,314,2
304,339,304,315,2
305,334,304,315,2
306,329,304,315,2
307,323,303,316,2
308,319,303,316,2
309,316,303,316,2
310,314,303,315,2
310,313,305,314,2
310,314,307,314,2
310,315,311,314,2
311,314,314,314,2
311,310,316,314,2
311,304,316,313,2
310,297,315,311,2
310,289,313,310,2
310,280,311,310,2
311,273,310,310,2
312,271,310,311,2
313,271,309,311,2
313,278,309,312,2
312,290,309,312,2
311,302,310,313,2
310,309,311,314,2
309,312,312,315,2
308,312,312,316,2
307,308,312,316,2
305,303,312,316,2
305,297,311,316,2
305,291,310,315,2
305,290,310,313,2
305,293,309,312,2
306,300,308,311,2
306,308,307,311,2
305,318,307,310,2
304,328,306,310,2
302,336,306,310,2
301,340,305,311,2
300,341,305,312,2
300,338,304,313,2
300,333,304,314,2
301,326,305,314,2
302,317,306,313,2
302,308,306,311,2
302,299,307,309,2
302,294,307,308,2
303,292,308,309,2
303,293,309,310,2
304,294,309,312,2
304,296,310,314,2
304,298,309,314,2
303,301,309,313,2
302,303,308,313,2
303,306,307,313,2
303,307,308,313,2
304,307,307,312,2
304,306,307,312,2
304,307,305,312,2
303,307,304,312,2
303,305,302,311,2
303,302,300,311,2
304,299,300,311,2
305,297,300,309,2
304,298,299,308,2
304,304,300,306,2
304,310,303,305,2
304,314,306,303,2
306,315,309,303,2
307,313,311,303,2
308,310,311,304,2
308,311,311,305,2
307,315,311,305,2
306,319,311,306,2
305,322,310,306,2
305,320,309,308,2
305,315,308,310,2
305,308,306,313,2
305,304,306,316,2
306,305,305,318,2
305,310,305,319,2
304,318,305,319,2
304,327,306,318,2
303,332,305,316,2
302,333,305,315,2
301,331,305,314,2
301,328,306,314,2
302,324,306,314,2
303,319,306,313,2
305,311,307,313,2
306,303,307,313,2
307,296,307,312,2
308,290,308,312,2
309,287,309,312,2
310,288,309,313,2
310,293,309,312,2
309,301,308,312,2
308,310,307,312,2
307,318,306,312,2
307,325,305,312,2
306,329,304,312,2
306,330,303,312,2
306,330,302,312,2
306,330,302,311,2
306,330,302,310,2
306,326,304,309,2
305,320,306,309,2
304,314,308,309,2
304,308,309,309,2
304,303,310,310,2
305,299,309,311,2
305,296,309,312,2
305,294,309,312,2
304,291,309,312,2
305,288,309,313,2
306,284,309,312,2
306,283,309,311,2
306,283,308,310,2
307,285,307,309,2
307,290,307,308,2
306,297,306,306,2
306,304,305,305,2
304,311,305,304,2
304,316,306,303,2
304,318,307,303,2
305,319,307,303,2
306,322,307,304,2
308,326,306,305,2
309,328,305,305,2
309,328,304,305,2
309,328,304,305,2
308,329,302,304,2
307,328,299,303,2
306,325,295,301,2
305,321,292,298,2
304,318,291,297,2
304,316,292,296,2
304,316,296,297,2
303,315,302,298,2
302,308,310,299,2
302,299,316,300,2
302,291,320,302,2
304,286,321,303,2
305,285,318,303,2
305,286,313,303,2
305,288,308,303,2
305,292,304,303,2
304,294,301,302,2
303,293,302,302,2
302,290,305,302,2
301,286,308,302,2
301,287,312,303,2
302,294,315,303,2
303,307,316,304,2
304,324,317,305,2
304,344,317,306,2
303,359,317,305,2
301,363,316,304,2
299,356,314,303,2
298,340,312,301,2
297,320,310,300,2
296,304,308,298,2
297,294,306,298,2
298,291,304,299,2
299,290,303,300,2
301,289,302,303,2
303,284,303,305,2
305,277,303,306,2
307,270,304,307,2
308,268,305,307,2
308,273,307,308,2
309,284,310,309,2
309,296,314,310,2
310,306,317,310,2
312,311,318,310,2
313,309,318,310,2
314,301,315,310,2
314,290,311,310,2
313,281,304,311,2
312,274,297,311,2
310,274,291,312,2
308,281,289,313,2
305,297,290,313,2
302,315,295,312,2
299,329,301,311,2
298,337,306,310,2
297,338,307,309,2
296,335,307,308,2
297,332,307,309,2
298,329,308,311,2
298,329,310,312,2
299,330,313,313,2
299,330,315,315,2
301,328,316,314,2
301,323,316,314,2
302,318,316,313,2
302,313,315,312,2
303,309,315,311,2
304,305,314,310,2
305,300,314,309,2
306,292,313,308,2
307,282,313,307,2
308,273,312,306,2
309,266,312,306,2
309,264,312,306,2
310,266,311,307,2
311,272,310,309,2
310,284,309,309,2
308,298,307,309,2
307,313,306,310,2
306,328,306,311,2
306,340,306,311,2
306,345,306,310,2
306,340,306,309,2
306,330,305,309,2
305,319,305,308,2
306,309,305,307,2
306,301,305,307,2
307,296,306,307,2
309,291,307,308,2
310,289,308,309,2
310,288,309,311,2
311,289,309,311,2
310,292,308,311,2
308,298,306,310,2
306,303,304,308,2
304,310,302,306,2
303,316,301,305,2
302,319,300,304,2
302,320,299,304,2
302,322,300,305,2
302,324,301,307,2
302,323,302,308,2
302,319,303,309,2
303,312,304,309,2
304,306,305,310,2
305,300,306,309,2
305,295,307,308,2
304,292,307,307,2
304,290,306,306,2
303,290,305,305,2
304,294,304,303,2
304,300,304,303,2
304,308,303,303,2
305,312,303,304,2
305,311,303,305,2
307,307,304,305,2
308,304,304,306,2
310,304,304,306,2
309,307,303,307,2
309,312,301,306,2
308,318,301,306,2
307,328,301,305,2
307,338,303,305,2
306,346,306,305,2
306,349,307,306,2
306,345,308,306,2
307,336,308,306,2
309,324,308,305,2
310,310,308,303,2
311,300,308,303,2
312,298,308,304,2
312,305,307,306,2
312,311,306,307,2
310,314,304,307,2
308,313,302,306,2
306,309,302,304,2
305,301,302,302,2
305,292,304,300,2
305,283,306,299,2
307,277,308,299,2
308,279,308,300,2
308,292,308,302,2
307,311,306,304,2
307,326,304,307,2
305,337,304,309,2
304,345,303,310,2
304,351,303,310,2
303,353,302,309,2
303,352,302,309,2
303,346,302,309,2
303,336,303,309,2
304,324,304,309,2
304,312,305,309,2
305,302,305,309,2
305,294,305,309,2
305,286,305,309,2
305,282,305,308,2
305,282,306,307,2
305,287,307,308,2
307,292,309,309,2
308,297,310,310,2
309,301,311,311,2
309,305,311,313,2
307,309,309,313,2
306,313,305,312,2
305,317,302,311,2
304,321,301,309,2
304,322,300,307,2
304,321,300,306,2
304,319,300,306,2
304,317,300,306,2
305,316,299,306,2
305,311,299,307,2
305,303,297,308,2
304,294,297,308,2
305,289,297,308,2
305,286,299,307,2
305,288,302,306,2
305,295,304,306,2
304,305,307,306,2
304,313,309,307,2
304,316,311,308,2
303,316,312,309,2
303,314,313,310,2
304,312,312,310,2
304,311,312,311,2
305,314,310,311,2
305,318,309,310,2
306,323,309,310,2
307,325,308,309,2
307,322,308,309,2
307,315,308,308,2
307,305,308,308,2
308,296,308,307,2
308,291,308,306,2
308,291,308,306,2
308,296,307,306,2
307,308,307,306,2
307,321,306,307,2
307,331,305,307,2
307,335,305,307,2
308,333,304,306,2
307,330,304,305,2
308,327,303,305,2
309,326,302,305,2
310,326,301,305,2
309,322,301,306,2
307,315,301,306,2
304,306,303,306,2
303,297,306,306,2
302,292,310,306,2
301,295,313,306,2
302,301,314,307,2
303,307,313,309,2
304,309,312,309,2
305,307,311,309,2
305,301,310,309,2
307,293,308,310,2
309,286,308,311,2
312,282,307,312,2
314,283,308,312,2
317,288,309,314,2
320,294,310,315,2
322,294,311,314,2
321,292,311,312,2
321,291,310,312,2
319,293,310,312,2
316,297,310,313,2
312,302,310,313,2
307,308,308,312,2
301,314,306,310,2
297,318,305,308,2
294,319,304,307,2
293,319,304,307,2
294,317,305,307,2
295,316,306,307,2
297,315,305,307,2
298,315,304,307,2
298,317,301,306,2
299,319,298,306,2
300,318,295,306,2
301,314,293,306,2
302,306,292,306,2
304,297,293,306,2
306,290,295,307,2
308,289,298,308,2
309,294,301,309,2
310,304,303,309,2
310,317,304,310,2
310,331,306,311,2
309,341,307,313,2
307,346,307,314,2
306,347,306,314,2
304,345,306,315,2
303,340,306,315,2
302,331,306,314,2
301,321,305,313,2
301,313,304,312,2
301,306,305,311,2
302,299,305,311,2
303,292,306,311,2
303,288,306,311,2
303,284,307,311,2
304,281,307,311,2
304,278,306,311,2
305,276,306,311,2
306,273,307,311,2
307,271,308,311,2
307,271,308,311,2
308,272,308,310,2
308,276,308,308,2
307,282,308,306,2
306,289,308,304,2
306,297,308,302,2
306,305,307,303,2
307,312,308,305,2
307,316,308,306,2
307,317,309,308,2
306,318,308,308,2
304,318,307,308,2
303,313,307,308,2
304,304,308,308,2
304,288,309,307,2
306,265,311,306,2
308,242,312,304,2
310,225,312,303,2
311,221,312,302,2
311,234,312,301,2
309,259,311,302,2
308,289,310,304,2
306,317,310,306,2
304,338,309,307,2
303,350,308,307,2
303,354,307,307,2
304,352,306,308,2
306,350,306,309,2
308,352,306,309,2
310,357,305,310,2
311,357,304,311,2
312,355,303,311,2
311,354,302,310,2
310,353,301,311,2
309,350,301,311,2
308,341,301,311,2
306,329,302,310,2
305,317,305,309,2
304,308,308,308,2
304,301,311,308,2
304,294,313,308,2
304,287,314,308,2
305,281,314,309,2
306,275,313,310,2
307,268,313,310,2
309,261,312,310,2
310,255,311,310,2
312,247,311,310,2
312,242,309,309,2
311,242,307,309,2
310,251,306,309,2
308,264,304,309,2
306,280,304,310,2
304,297,305,311,2
303,319,308,312,2
303,341,312,312,2
303,356,315,312,2
303,362,317,312,2
303,357,316,312,2
303,346,313,312,2
303,334,311,311,2
303,324,309,310,2
303,318,307,309,2
302,313,306,308,2
300,308,304,306,2
299,306,303,304,2
298,305,302,304,2
298,307,302,303,2
299,310,302,304,2
299,310,302,304,2
300,308,302,304,2
300,303,302,304,2
301,299,303,304,2
303,294,304,306,2
305,292,305,307,2
307,292,306,309,2
308,295,306,309,2
308,303,306,309,2
307,314,305,308,2
306,322,304,308,2
305,325,303,307,2
304,324,302,307,2
304,321,301,306,2
304,316,301,305,2
304,308,300,305,2
305,300,300,305,2
305,293,301,305,2
305,290,303,307,2
306,288,304,308,2
307,287,305,310,2
308,286,305,310,2
307,288,304,311,2
307,296,303,311,2
306,304,301,312,2
307,310,300,312,2
308,311,298,312,2
309,310,297,311,2
310,309,295,311,2
310,309,294,311,2
311,311,291,311,2
311,315,289,310,2
310,319,287,309,2
307,321,287,308,2
305,318,289,307,2
302,313,293,306,2
301,306,296,306,2
302,299,300,307,2
303,294,303,307,2
304,293,306,309,2
305,293,309,310,2
306,291,311,311,2
306,288,312,311,2
306,285,314,312,2
307,280,314,312,2
308,276,314,313,2
309,277,314,314,2
309,284,313,313,2
308,295,311,312,2
307,309,308,309,2
305,320,305,307,2
304,325,303,305,2
304,326,302,304,2
304,326,301,305,2
304,330,300,306,2
303,335,299,306,2
303,339,299,308,2
303,342,299,310,2
303,342,300,311,2
304,338,299,312,2
304,330,299,313,2
306,320,299,314,2
307,311,299,313,2
307,304,299,313,2
307,301,299,312,2
307,305,299,312,2
307,315,299,312,2
307,325,299,313,2
308,335,300,313,2
309,341,301,313,2
309,346,302,312,2
310,349,303,311,2
310,350,303,310,2
309,346,303,309,2
309,336,302,309,2
309,326,302,308,2
308,316,302,308,2
308,305,303,308,2
307,294,303,308,2
306,284,303,308,2
305,275,303,308,2
305,272,304,309,2
304,274,304,309,2
304,279,305,310,2
303,285,304,311,2
303,291,304,312,2
302,295,304,311,2
302,299,304,310,2
303,302,304,310,2
305,303,304,310,2
306,301,304,309,2
306,298,303,309,2
307,296,303,308,2
308,296,302,307,2
308,299,301,307,2
308,306,300,306,2
308,311,300,305,2
308,313,301,304,2
308,312,302,304,2
308,309,305,304,2
309,305,308,304,2
310,301,311,304,2
311,301,311,305,2
311,302,311,306,2
310,302,309,306,2
308,305,307,306,2
306,308,307,305,2
305,308,308,305,2
304,304,310,306,2
304,298,312,306,2
304,294,312,307,2
303,296,311,308,2
302,303,310,309,2
302,310,308,310,2
303,314,307,311,2
303,314,307,311,2
303,312,306,311,2
302,311,306,311,2
302,311,305,311,2
303,313,305,311,2
303,317,304,310,2
304,322,303,309,2
305,326,302,308,2
306,330,301,307,2
306,333,301,307,2
308,334,301,307,2
310,331,301,308,2
311,322,301,308,2
312,309,301,307,2
312,296,301,306,2
312,284,301,306,2
312,274,302,305,2
313,268,302,305,2
313,269,303,305,2
312,275,304,305,2
311,286,307,303,2
308,297,307,302,2
306,308,307,302,2
305,316,305,301,2
305,321,303,302,2
305,326,303,304,2
307,331,302,306,2
308,333,303,309,2
309,330,303,311,2
309,325,302,312,2
309,319,302,313,2
309,313,302,312,2
309,307,302,312,2
309,304,303,310,2
310,298,304,310,2
311,290,304,309,2
311,281,304,308,2
312,275,305,308,2
314,271,305,307,2
315,269,305,306,2
315,270,305,305,2
316,278,305,306,2
317,291,304,306,2
317,307,304,307,2
317,323,302,307,2
315,335,300,305,2
312,341,298,304,2
310,341,296,303,2
307,335,296,302,2
306,327,298,302,2
307,316,301,303,2
308,303,303,304,2
309,291,304,305,2
310,283,305,305,2
310,280,305,305,2
310,280,305,305,2
309,285,305,305,2
308,295,306,304,2
307,307,307,305,2
306,318,309,305,2
306,326,310,304,2
306,330,309,304,2
305,330,308,303,2
305,327,306,302,2
304,326,305,302,2
304,325,305,303,2
305,324,305,305,2
305,323,306,307,2
306,320,306,308,2
306,317,306,308,2
306,315,307,308,2
307,313,307,307,2
307,310,308,306,2
307,306,308,304,2
307,300,308,303,2
308,292,309,302,2
309,285,310,302,2
310,279,311,303,2
310,275,312,303,2
310,275,312,302,2
308,280,310,301,2
307,287,308,300,2
305,296,307,300,2
305,306,305,300,2
304,316,304,299,2
304,326,303,300,2
305,337,304,301,2
306,344,305,302,2
307,346,306,303,2
308,339,307,304,2
309,325,308,304,2
309,309,309,304,2
309,294,309,303,2
310,285,308,303,2
311,281,309,303,2
313,283,308,303,2
314,291,308,303,2
316,302,307,304,2
317,313,306,304,2
318,320,305,305,2
318,322,305,305,2
318,321,305,307,2
317,319,306,308,2
315,318,306,308,2
311,315,306,308,2
308,313,307,306,2
306,315,308,305,2
304,319,309,304,2
303,322,309,305,2
302,323,308,306,2
303,319,308,308,2
303,312,307,310,2
304,306,307,311,2
304,302,306,312,2
304,299,305,311,2
304,293,305,310,2
303,287,305,307,2
303,281,305,306,2
304,278,305,305,2
304,278,305,304,2
304,282,304,302,2
304,289,304,301,2
304,295,304,301,2
305,301,303,302,2
305,307,303,303,2
306,312,303,304,2
307,315,304,305,2
307,318,304,305,2
307,320,304,304,2
307,320,304,305,2
307,320,304,305,2
307,319,303,306,2
307,317,303,307,2
307,311,304,307,2
306,304,305,306,2
306,297,306,305,2
306,290,306,304,2
307,286,304,304,2
307,287,303,303,2
307,295,303,304,2
306,307,304,305,2
306,321,306,305,2
305,330,310,304,2
304,334,312,303,2
304,333,313,302,2
304,329,313,301,2
304,325,314,301,2
305,320,314,303,2
306,316,313,304,2
308,312,313,306,2
309,307,313,307,2
310,301,314,309,2
310,294,314,310,2
310,284,313,311,2
310,277,313,311,2
311,274,312,311,2
311,279,311,311,2
312,288,310,310,2
312,302,310,309,2
311,315,309,308,2
309,322,308,306,2
308,320,308,305,2
307,313,308,303,2
306,306,308,303,2
307,299,308,303,2
309,293,308,304,2
311,287,308,305,2
312,285,308,305,2
313,290,308,305,2
312,302,307,305,2
311,314,307,305,2
310,320,306,305,2
309,320,306,304,2
309,315,305,304,2
309,309,305,304,2
310,301,305,303,2
310,290,304,302,2
311,278,304,301,2
311,269,303,301,2
312,265,304,303,2
313,267,304,305,2
312,276,304,308,2
311,287,303,310,2
309,295,302,311,2
308,298,302,311,2
308,300,303,312,2
308,304,303,312,2
308,309,303,312,2
308,315,304,313,2
308,322,304,313,2
308,330,304,312,2
308,335,303,311,2
307,337,302,310,2
307,336,301,310,2
308,334,301,310,2
309,330,301,310,2
310,325,300,311,2
311,315,299,310,2
311,303,298,308,2
312,292,297,307,2
312,285,297,305,2
312,283,296,305,2
313,285,296,305,2
313,288,297,305,2
312,291,299,306,2
312,293,301,305,2
311,292,303,305,2
311,293,304,304,2
311,295,307,305,2
311,299,309,305,2
311,304,311,305,2
311,308,312,307,2
310,312,312,308,2
308,316,311,309,2
306,321,310,308,2
304,324,308,307,2
302,325,307,305,2
302,324,307,303,2
302,322,306,302,2
302,320,305,302,2
303,319,305,302,2
304,318,305,302,2
305,318,306,301,2
307,315,306,301,2
310,312,307,301,2
312,310,307,301,2
314,308,307,301,2
314,306,306,301,2
313,303,304,300,2
313,299,303,301,2
313,297,304,302,2
313,298,307,303,2
312,297,310,304,2
311,296,313,303,2
308,297,314,302,2
305,302,314,301,2
302,309,312,301,2
300,314,311,302,2
300,314,310,303,2
300,310,309,302,2
300,304,309,302,2
301,299,308,303,2
301,298,309,304,2
302,298,309,305,2
302,299,309,305,2
304,301,308,305,2
305,299,307,305,2
306,296,307,304,2
307,290,307,304,2
308,284,307,303,2
309,280,306,301,2
309,279,305,299,2
310,284,303,298,2
310,293,301,297,2
310,304,300,297,2
310,310,300,299,2
310,311,302,301,2
311,306,306,303,2
312,301,311,304,2
313,300,315,306,2
314,304,316,306,2
313,313,316,306,2
313,323,315,304,2
311,330,313,303,2
310,332,312,301,2
310,330,311,299,2
310,321,311,299,2
310,307,311,299,2
311,297,310,300,2
311,295,310,301,2
310,300,309,301,2
310,304,308,301,2
309,307,307,300,2
309,308,305,299,2
308,309,304,299,2
308,313,302,298,2
307,318,301,299,2
307,320,302,301,2
307,319,303,304,2
307,313,305,305,2
308,308,305,306,2
308,303,305,307,2
308,297,305,305,2
307,292,305,303,2
305,289,306,301,2
305,289,309,301,2
305,290,311,301,2
306,291,312,302,2
306,293,310,303,2
306,296,308,304,2
305,298,308,304,2
305,299,308,305,2
306,301,309,306,2
307,306,310,308,2
308,314,311,309,2
309,321,312,309,2
310,323,311,308,2
310,321,310,307,2
309,316,309,306,2
309,309,308,304,2
309,303,308,303,2
309,299,309,302,2
308,300,309,302,2
307,303,310,303,2
306,307,311,305,2
306,311,312,307,2
304,313,313,309,2
303,316,312,311,2
302,321,311,312,2
302,327,310,312,2
302,333,309,310,2
301,335,308,308,2
300,337,308,305,2
299,338,307,305,2
298,338,306,304,2
298,332,306,304,2
297,319,305,303,2
297,305,304,302,2
297,296,304,301,2
298,293,304,301,2
300,294,304,300,2
301,298,305,300,2
302,302,304,299,2
302,303,304,299,2
303,302,305,299,2
304,298,306,300,2
306,294,307,301,2
307,290,308,303,2
307,287,307,304,2
305,283,306,305,2
304,280,305,305,2
303,277,303,304,2
302,277,302,304,2
302,281,302,304,2
303,288,303,304,2
304,296,303,304,2
305,302,302,304,2
305,305,301,303,2
305,309,300,303,2
307,314,300,303,2
308,323,301,303,2
308,335,301,305,2
307,346,300,306,2
304,351,299,306,2
302,352,298,307,2
301,351,297,308,2
300,346,297,309,2
300,339,296,308,2
300,329,296,306,2
300,320,296,304,2
301,312,298,303,2
301,307,301,303,2
302,302,304,304,2
303,295,305,306,2
304,284,305,307,2
305,272,305,307,2
305,263,305,307,2
306,259,305,306,2
306,263,305,305,2
306,275,305,304,2
305,293,305,303,2
304,310,305,304,2
303,323,304,303,2
303,332,304,303,2
302,337,304,304,2
301,339,304,305,2
301,337,304,306,2
301,331,304,307,2
301,319,305,308,2
302,299,307,308,2
304,278,308,308,2
305,268,309,307,2
306,269,310,306,2
306,275,309,305,2
306,284,308,303,2
306,293,308,302,2
306,299,306,301,2
306,304,306,301,2
306,307,306,301,2
306,309,305,301,2
306,310,306,301,2
305,312,306,302,2
304,316,305,302,2
303,320,305,302,2
303,324,305,302,2
302,326,306,303,2
301,326,307,304,2
301,324,307,305,2
300,320,308,305,2
301,315,308,305,2
301,310,307,305,2
302,305,306,304,2
304,303,307,303,2
305,304,307,303,2
307,308,309,303,2
309,315,310,302,2
309,322,311,303,2
308,330,311,304,2
306,338,310,304,2
305,343,308,305,2
303,344,306,305,2
302,340,304,305,2
302,333,302,305,2
303,326,301,305,2
304,318,302,305,2
305,312,305,305,2
307,306,309,305,2
307,301,312,306,2
308,296,314,307,2
307,291,315,308,2
307,285,313,308,2
307,280,312,308,2
309,279,311,310,2
310,284,311,311,2
311,290,310,310,2
310,298,309,310,2
309,306,307,309,2
308,313,305,307,2
307,317,304,306,2
307,317,304,306,2
308,312,305,306,2
309,304,308,305,2
309,295,311,304,2
309,291,312,303,2
310,289,312,304,2
310,288,311,304,2
309,284,310,304,2
309,280,309,304,2
310,276,308,304,2
309,276,308,305,2
307,280,307,306,2
305,288,306,307,2
304,299,305,308,2
303,308,305,309,2
302,313,304,309,2
302,311,304,308,2
302,307,304,307,2
303,305,304,306,2
304,309,304,306,2
305,316,305,307,2
304,322,304,307,2
302,326,303,306,2
301,331,303,306,2
300,331,303,307,2
300,326,304,308,2
300,319,305,308,2
301,314,305,308,2
302,313,305,308,2
303,311,305,309,2
304,306,304,311,2
305,297,304,311,2
305,288,303,311,2
305,279,303,311,2
307,274,303,310,2
307,275,304,309,2
308,282,304,309,2
308,295,304,310,2
308,311,304,310,2
308,326,305,310,2
308,340,305,310,2
308,352,304,310,2
308,359,305,310,2
308,362,305,310,2
308,359,305,310,2
309,347,305,310,2
310,331,306,310,2
312,315,306,310,2
312,302,306,310,2
313,292,306,309,2
313,285,306,308,2
313,281,305,308,2
313,277,306,307,2
313,272,306,307,2
314,265,306,306,2
313,261,306,305,2
313,263,304,305,2
312,269,303,304,2
312,279,303,304,2
312,291,302,305,2
312,303,302,306,2
312,316,302,306,2
312,327,303,307,2
311,336,303,307,2
309,340,303,306,2
308,339,303,305,2
306,335,302,304,2
305,331,302,303,2
305,327,302,303,2
306,322,302,304,2
306,315,303,306,2
308,305,303,307,2
310,295,304,309,2
311,288,303,310,2
311,285,302,310,2
311,285,301,310,2
310,290,301,310,2
309,299,302,310,2
308,309,302,310,2
306,317,302,310,2
306,321,302,310,2
305,321,303,310,2
306,319,305,309,2
307,317,307,308,2
309,318,307,307,2
311,320,307,305,2
312,322,306,304,2
312,325,305,304,2
311,325,304,303,2
310,324,303,302,2
308,323,302,302,2
307,323,302,302,2
307,322,302,302,2
308,322,302,302,2
308,322,303,303,2
310,321,303,304,2
310,316,303,305,2
310,309,302,305,2
309,303,302,306,2
309,300,301,307,2
308,298,300,307,2
307,296,299,307,2
305,293,298,306,2
303,290,298,304,2
302,284,300,302,2
302,276,304,301,2
303,268,308,301,2
304,265,310,302,2
306,266,312,304,2
308,268,312,306,2
309,269,311,306,2
309,269,310,304,2
308,270,310,304,2
308,272,309,303,2
308,276,308,303,2
308,282,308,303,2
308,293,307,303,2
308,308,305,303,2
307,323,304,303,2
307,332,303,302,2
306,334,303,302,2
305,330,302,303,2
305,324,303,303,2
305,320,303,303,2
306,317,303,302,2
306,315,303,301,2
306,311,303,301,2
306,306,304,301,2
305,304,305,302,2
305,302,305,303,2
305,301,305,305,2
305,302,306,307,2
306,305,307,308,2
307,309,307,308,2
306,312,307,307,2
305,316,307,307,2
304,319,306,307,2
303,320,306,307,2
303,318,306,307,2
303,313,307,305,2
303,305,306,303,2
303,296,305,301,2
303,289,304,299,2
303,285,304,298,2
304,285,304,298,2
305,289,304,298,2
305,294,305,299,2
305,298,307,301,2
305,301,310,303,2
305,299,312,304,2
306,296,313,305,2
307,293,312,305,2
307,295,311,304,2
307,301,309,304,2
306,310,308,303,2
306,319,306,303,2
307,327,306,304,2
307,336,305,304,2
308,343,303,305,2
308,349,303,306,2
307,351,303,305,2
307,348,303,304,2
307,341,304,303,2
307,332,305,303,2
307,326,306,304,2
306,321,307,304,2
306,318,307,304,2
306,316,306,304,2
306,314,305,304,2
305,313,304,303,2
305,311,303,303,2
305,307,303,303,2
306,304,303,304,2
306,299,303,304,2
306,297,303,305,2
307,298,303,307,2
308,300,304,308,2
309,303,303,309,2
309,308,304,309,2
309,312,303,308,2
309,315,303,307,2
308,317,303,307,2
308,318,303,307,2
308,316,303,308,2
308,311,302,308,2
308,304,302,308,2
308,299,302,307,2
308,297,303,307,2
308,298,304,306,2
308,300,305,306,2
308,301,306,307,2
308,301,306,307,2
307,300,306,308,2
306,300,305,307,2
305,301,305,307,2
304,303,304,306,2
303,306,304,305,2
302,307,303,305,2
302,307,303,305,2
302,306,303,305,2
302,304,303,304,2
302,303,303,304,2
302,302,303,303,2
302,300,303,302,2
302,299,304,302,2
303,298,305,301,2
303,297,306,302,2
304,293,307,302,2
306,286,307,301,2
307,276,306,300,2
307,265,304,297,2
307,259,304,296,2
307,261,304,297,2
307,270,304,299,2
307,284,303,300,2
306,296,302,300,2
306,305,301,299,2
305,310,302,297,2
304,309,302,296,2
304,304,303,296,2
305,294,304,296,2
305,283,305,297,2
305,272,306,299,2
305,265,306,299,2
304,263,306,300,2
302,266,306,300,2
301,275,305,301,2
300,285,304,302,2
299,293,303,303,2
298,299,303,304,2
298,302,304,305,2
298,302,306,306,2
299,303,308,307,2
300,302,310,309,2
302,302,311,310,2
304,303,311,312,2
305,308,309,312,2
305,315,307,312,2
304,320,305,313,2
304,322,303,312,2
304,320,301,312,2
304,314,301,311,2
304,305,301,310,2
305,293,301,308,2
307,276,303,307,2
310,255,305,306,2
313,234,308,306,2
316,216,310,306,2
318,210,311,307,2
318,220,312,309,2
317,247,312,311,2
313,285,310,313,2
307,322,307,314,2
301,351,305,314,2
297,370,302,313,2
295,378,300,312,2
294,380,299,311,2
294,378,298,310,2
295,375,298,307,2
295,372,298,306,2
296,370,298,304,2
297,366,298,304,2
298,362,299,304,2
299,356,300,304,2
299,350,300,305,2
300,344,301,305,2
300,339,302,306,2
301,334,303,306,2
303,331,304,306,2
304,329,304,306,2
306,326,304,306,2
308,323,304,306,2
309,319,304,307,2
310,314,304,308,2
311,306,304,308,2
311,297,303,308,2
311,288,303,307,2
312,280,303,307,2
312,274,303,306,2
312,269,302,303,2
309,269,300,301,2
307,271,299,300,2
305,277,298,300,2
305,288,299,302,2
305,300,299,304,2
305,311,300,306,2
306,320,301,307,2
308,326,302,309,2
308,327,302,310,2
308,325,302,310,2
307,322,301,310,2
307,318,301,310,2
307,311,300,311,2
307,301,300,311,2
309,289,300,311,2
310,275,299,311,2
311,263,301,311,2
313,254,304,311,2
314,251,307,311,2
314,254,310,312,2
313,265,311,311,2
312,279,310,310,2
310,297,308,310,2
307,317,306,310,2
305,332,305,310,2
304,341,304,310,2
303,347,303,311,2
303,350,304,311,2
303,351,304,312,2
303,347,305,313,2
303,336,306,313,2
302,321,306,313,2
302,303,306,314,2
302,286,307,312,2
301,273,307,310,2
301,265,307,308,2
302,261,308,308,2
303,263,309,307,2
305,268,309,307,2
306,278,309,306,2
307,287,309,306,2
308,295,309,305,2
308,302,309,305,2
308,306,308,304,2
308,307,308,304,2
308,309,308,305,2
308,311,308,306,2
308,309,308,307,2
308,305,309,309,2
308,298,309,310,2
308,289,309,311,2
309,278,310,313,2
310,265,309,313,2
311,255,309,311,2
312,248,308,309,2
312,248,308,307,2
313,260,308,307,2
312,285,307,308,2
310,315,306,308,2
307,342,304,307,2
304,360,302,306,2
301,371,300,305,2
299,379,299,304,2
298,383,299,304,2
298,381,299,305,2
299,373,300,306,2
300,364,300,307,2
300,354,301,308,2
301,346,302,308,2
303,338,302,307,2
304,333,302,307,2
304,330,301,307,2
305,328,302,308,2
305,327,302,309,2
306,326,302,310,2
307,324,302,310,2
308,320,302,309,2
307,309,302,307,2
307,290,301,305,2
307,267,302,304,2
308,243,303,304,2
309,223,306,304,2
309,210,308,304,2
309,209,310,306,2
309,226,311,308,2
308,260,310,310,2
308,295,309,312,2
306,320,308,313,2
306,331,307,314,2
305,336,306,314,2
306,336,306,314,2
306,335,305,313,2
306,333,304,313,2
306,331,304,313,2
306,328,302,314,2
306,325,301,314,2
307,320,300,313,2
307,316,300,310,2
307,313,300,308,2
307,310,302,306,2
308,305,304,304,2
308,300,305,304,2
307,294,305,303,2
307,287,304,303,2
306,280,304,303,2
306,276,305,304,2
307,273,307,304,2
307,270,310,305,2
308,266,312,306,2
309,264,313,308,2
309,265,314,309,2
310,270,316,312,2
311,278,317,314,2
311,292,317,316,2
310,311,316,317,2
309,328,314,318,2
308,335,312,319,2
306,329,310,317,2
305,309,309,316,2
304,286,308,313,2
305,269,308,311,2
305,262,307,309,2
305,261,307,309,2
305,265,307,310,2
304,270,306,312,2
304,274,306,314,2
303,280,306,315,2
303,286,306,315,2
303,294,306,315,2
303,304,305,313,2
303,316,304,312,2
303,328,304,311,2
303,341,305,311,2
304,353,305,311,2
303,363,306,311,2
303,369,307,310,2
303,372,308,310,2
303,371,309,310,2
303,366,309,309,2
303,355,308,309,2
303,339,308,309,2
304,316,308,309,2
305,285,309,308,2
308,251,310,307,2
311,221,311,306,2
313,197,313,306,2
315,183,313,305,2
314,179,313,304,2
313,189,312,303,2
311,210,311,304,2
309,238,310,304,2
306,270,308,304,2
304,305,307,305,2
302,338,305,307,2
301,364,304,309,2
300,381,304,311,2
301,391,304,312,2
301,394,304,312,2
301,390,303,311,2
302,383,303,310,2
303,374,303,310,2
304,362,303,310,2
306,351,303,310,2
307,340,303,310,2
308,330,304,310,2
309,320,304,311,2
309,307,305,311,2
310,291,305,312,2
310,272,305,313,2
310,250,304,314,2
310,232,304,313,2
310,221,304,313,2
309,225,305,312,2
307,245,307,312,2
305,274,308,311,2
302,308,309,311,2
302,341,309,312,2
301,365,309,313,2
302,378,308,314,2
302,379,307,314,2
301,372,306,314,2
301,363,305,314,2
301,355,305,314,2
302,348,305,314,2
302,343,305,314,2
302,338,305,313,2
303,333,305,312,2
304,328,305,312,2
304,323,306,311,2
305,317,307,310,2
305,308,308,310,2
306,300,309,309,2
306,293,310,309,2
306,287,310,309,2
305,284,309,310,2
304,285,307,311,2
303,288,305,313,2
301,290,305,314,2
300,286,305,314,2
298,279,305,313,2
296,273,305,313,2
294,272,305,313,2
294,275,305,313,2
295,281,306,313,2
296,293,306,314,2
297,307,306,314,2
301,324,307,314,2
304,341,308,314,2
308,353,309,314,2
310,359,311,313,2
311,357,312,312,2
311,348,313,311,2
310,339,313,310,2
309,330,313,309,2
307,322,313,308,2
304,318,311,307,2
302,315,310,306,2
300,311,308,307,2
299,305,308,307,2
299,299,308,308,2
300,293,309,308,2
301,287,309,307,2
302,285,310,305,2
303,286,310,304,2
304,293,309,303,2
304,301,309,303,2
304,306,309,303,2
304,309,309,303,2
303,310,308,303,2
304,310,307,304,2
304,308,308,305,2
305,306,308,306,2
306,304,308,306,2
307,301,308,307,2
308,297,308,307,2
309,296,308,308,2
309,299,308,308,2
309,302,307,308,2
308,304,307,307,2
306,303,305,305,2
305,300,304,303,2
304,297,302,302,2
304,295,301,301,2
304,294,301,301,2
305,296,302,301,2
305,304,304,301,2
306,313,307,302,2
306,321,310,303,2
306,326,312,304,2
307,326,312,304,2
308,322,312,304,2
308,314,311,304,2
308,307,310,303,2
308,304,309,303,2
308,303,308,305,2
307,300,308,306,2
306,296,308,307,2
304,296,308,307,2
303,297,308,306,2
302,300,308,305,2
302,303,308,305,2
301,307,308,306,2
300,312,308,306,2
299,316,307,307,2
297,321,307,306,2
296,323,308,307,2
296,323,309,307,2
297,320,310,307,2
298,319,311,308,2
299,321,312,310,2
300,322,313,312,2
302,320,315,313,2
304,311,315,314,2
306,298,316,314,2
306,286,315,313,2
305,279,314,311,2
306,278,312,309,2
306,283,311,307,2
305,288,309,305,2
303,291,307,304,2
301,292,304,303,2
299,293,303,302,2
297,294,302,301,2
295,293,302,300,2
296,288,303,300,2
296,285,304,300,2
298,286,305,300,2
300,288,306,300,2
304,293,306,300,2
308,299,306,300,2
310,305,306,300,2
312,308,306,301,2
313,307,307,301,2
315,304,307,302,2
316,302,308,303,2
316,303,308,303,2
315,306,309,304,2
314,310,309,304,2
312,314,309,305,2
309,320,309,305,2
308,325,309,305,2
306,328,309,305,2
305,324,308,304,2
304,316,306,303,2
303,305,306,302,2
304,291,306,302,2
305,277,307,302,2
307,268,308,303,2
307,263,309,303,2
308,261,309,303,2
307,263,309,304,2
306,269,308,304,2
305,282,307,304,2
304,299,306,304,2
303,313,304,303,2
303,324,304,302,2
302,336,304,303,2
303,345,306,303,2
304,352,308,304,2
306,351,309,306,2
308,346,310,306,2
309,339,311,307,2
311,333,311,309,2
311,331,310,310,2
311,329,309,311,2
310,327,308,311,2
308,327,306,310,2
306,329,304,310,2
304,331,302,309,2
302,331,300,309,2
301,328,298,308,2
300,321,299,307,2
300,310,301,306,2
300,300,304,305,2
299,293,306,304,2
300,289,307,303,2
300,290,307,304,2
300,297,307,305,2
301,305,306,306,2
301,314,305,307,2
301,319,305,307,2
300,321,304,307,2
300,320,304,307,2
300,315,303,308,2
302,309,304,308,2
304,302,304,307,2
305,296,304,307,2
308,291,305,307,2
309,288,305,307,2
309,286,304,307,2
309,289,303,308,2
308,294,301,309,2
306,302,300,310,2
305,311,300,311,2
304,318,301,312,2
304,322,301,312,2
306,323,302,312,2
308,322,304,311,2
310,319,304,310,2
310,314,305,308,2
311,308,305,308,2
311,300,306,308,2
311,295,306,306,2
310,294,306,304,2
308,298,306,303,2
306,303,305,302,2
304,307,305,301,2
303,309,304,302,2
302,311,304,302,2
301,310,304,303,2
300,305,304,303,2
300,300,305,304,2
302,296,306,306,2
303,298,307,309,2
304,305,308,311,2
304,313,308,313,2
304,317,308,314,2
304,315,308,314,2
305,312,308,314,2
306,308,309,314,2
307,305,308,314,2
307,303,307,313,2
307,306,305,310,2
306,316,303,308,2
305,330,301,305,2
306,346,300,303,2
306,358,300,302,2
307,366,301,303,2
307,365,302,304,2
308,353,304,305,2
308,333,305,306,2
309,311,306,307,2
309,295,305,307,2
309,286,305,308,2
308,287,305,308,2
308,293,305,308,2
307,299,304,307,2
306,303,303,306,2
306,306,303,306,2
306,307,303,306,2
306,310,303,307,2
306,313,304,308,2
306,311,303,307,2
306,303,303,306,2
306,292,302,305,2
307,279,302,304,2
308,268,302,303,2
309,259,304,303,2
310,254,306,304,2
310,253,310,305,2
310,258,311,305,2
309,268,312,306,2
309,280,311,308,2
309,295,311,310,2
309,310,311,313,2
309,323,310,315,2
308,332,309,316,2
308,334,309,316,2
307,332,308,315,2
306,324,307,313,2
305,315,306,310,2
306,309,305,308,2
307,305,305,308,2
308,306,305,307,2
308,310,304,307,2
308,317,304,306,2
308,323,304,306,2
306,327,304,307,2
305,326,304,307,2
305,322,304,309,2
305,316,304,310,2
305,309,303,312,2
305,304,303,313,2
305,304,303,314,2
305,305,303,316,2
305,307,303,316,2
305,307,304,316,2
305,306,306,316,2
306,305,307,315,2
307,303,309,314,2
309,301,309,312,2
312,298,309,310,2
313,292,309,307,2
314,282,309,305,2
313,271,309,303,2
313,261,309,302,2
312,256,309,302,2
311,258,309,301,2
310,266,307,302,2
308,276,306,302,2
306,287,306,304,2
306,294,306,306,2
306,297,306,307,2
306,295,306,308,2
306,290,307,307,2
306,285,307,306,2
306,284,307,305,2
307,290,307,305,2
306,303,307,305,2
305,323,306,305,2
303,346,305,306,2
301,362,303,307,2
298,371,302,308,2
297,373,301,308,2
297,369,300,307,2
296,360,299,307,2
296,348,299,307,2
296,337,300,307,2
297,329,301,307,2
299,325,302,308,2
300,326,303,310,2
302,328,303,311,2
303,328,303,311,2
305,325,302,309,2
307,318,302,307,2
309,309,301,306,2
311,300,302,304,2
312,291,303,303,2
311,281,304,303,2
309,273,306,303,2
308,268,307,304,2
307,268,309,306,2
307,272,310,308,2
307,282,310,310,2
306,295,310,312,2
305,307,309,313,2
303,314,308,313,2
302,317,307,313,2
300,315,307,312,2
299,312,307,310,2
298,309,306,308,2
299,306,306,307,2
299,303,307,307,2
300,296,308,306,2
301,283,309,305,2
302,270,309,304,2
303,261,310,303,2
304,257,310,301,2
304,257,310,301,2
304,260,311,302,2
304,267,311,302,2
303,279,310,304,2
303,294,309,305,2
303,307,308,306,2
302,317,307,307,2
302,327,306,308,2
301,337,305,309,2
301,345,305,310,2
302,344,305,311,2
302,335,305,311,2
302,321,306,312,2
304,305,306,312,2
305,293,307,313,2
307,285,308,313,2
309,281,309,313,2
309,283,310,312,2
308,289,309,311,2
307,296,308,309,2
305,304,306,307,2
303,312,305,305,2
301,322,304,304,2
301,330,303,304,2
301,334,302,304,2
302,332,301,304,2
303,322,301,305,2
303,311,300,305,2
304,301,301,306,2
306,292,302,307,2
307,282,305,308,2
309,276,310,309,2
311,272,314,310,2
313,265,318,310,2
314,259,319,309,2
314,257,318,310,2
314,261,317,312,2
313,272,314,312,2
310,288,311,312,2
307,307,309,311,2
305,324,308,310,2
303,336,307,310,2
302,343,306,309,2
301,347,305,308,2
300,350,305,307,2
299,352,304,307,2
299,353,304,307,2
299,353,304,307,2
299,353,304,308,2
298,351,305,309,2
298,345,305,311,2
298,334,305,312,2
298,318,306,312,2
298,303,307,311,2
298,291,307,310,2
299,284,308,308,2
300,282,309,307,2
302,286,309,306,2
304,295,309,306,2
306,307,308,306,2
308,317,307,306,2
308,325,307,306,2
308,330,306,305,2
308,333,306,305,2
308,334,306,304,2
308,332,306,304,2
308,328,306,304,2
307,321,305,304,2
306,317,305,305,2
304,316,304,305,2
304,316,304,306,2
303,316,304,306,2
303,314,304,306,2
302,311,306,308,2
303,307,308,310,2
304,302,310,311,2
304,296,311,310,2
304,292,312,310,2
305,290,311,309,2
306,288,311,309,2
306,284,311,309,2
307,278,310,310,2
308,274,310,310,2
308,273,310,310,2
309,278,310,310,2
309,288,309,309,2
308,301,308,307,2
307,314,307,306,2
305,321,306,304,2
303,320,306,304,2
303,312,306,304,2
303,303,306,304,2
304,295,306,304,2
304,290,307,306,2
304,290,308,307,2
304,292,308,308,2
304,297,308,308,2
303,302,307,309,2
303,305,306,308,2
303,304,305,307,2
303,300,305,306,2
304,293,304,305,2
306,283,304,305,2
307,273,303,304,2
307,264,301,303,2
307,260,301,303,2
307,263,301,304,2
307,268,303,306,2
309,273,307,308,2
311,280,311,310,2
312,294,313,312,2
313,309,314,313,2
313,315,313,313,2
312,312,311,313,2
311,298,310,314,2
311,279,310,315,2
311,259,310,316,2
311,246,310,316,2
311,246,309,316,2
310,262,307,315,2
307,289,305,313,2
305,317,304,311,2
303,341,303,310,2
301,356,302,308,2
300,363,302,307,2
299,363,302,307,2
300,356,302,307,2
302,345,302,308,2
305,333,303,309,2
307,319,304,310,2
309,306,304,312,2
311,297,305,313,2
312,293,306,314,2
313,288,307,314,2
313,284,308,314,2
314,284,309,314,2
313,290,309,314,2
312,300,308,313,2
310,313,307,312,2
309,325,307,311,2
306,332,306,310,2
304,332,305,309,2
303,327,305,308,2
304,320,306,309,2
306,312,307,309,2
308,308,308,310,2
310,311,308,311,2
309,319,307,310,2
307,330,306,310,2
305,340,305,310,2
303,346,304,310,2
303,348,303,309,2
303,347,303,308,2
304,343,304,307,2
306,338,307,307,2
308,332,309,308,2
311,323,311,308,2
314,313,312,307,2
318,301,313,306,2
320,290,314,305,2
322,280,313,305,2
322,272,312,304,2
319,268,310,304,2
314,268,308,303,2
310,273,306,302,2
306,284,304,302,2
304,298,303,302,2
303,311,303,304,2
304,319,303,306,2
305,322,304,307,2
304,319,306,307,2
303,314,307,307,2
301,309,308,308,2
300,308,308,307,2
299,312,306,306,2
297,318,304,306,2
297,324,302,306,2
296,330,301,306,2
296,335,301,307,2
297,338,300,308,2
298,338,300,309,2
298,337,300,309,2
298,334,301,309,2
298,330,304,307,2
298,326,305,306,2
298,320,307,305,2
299,313,308,305,2
301,304,308,305,2
302,294,309,305,2
303,284,309,305,2
304,279,309,305,2
306,280,309,305,2
306,290,309,304,2
306,305,309,304,2
306,316,308,305,2
305,317,308,305,2
305,310,307,306,2
305,299,307,306,2
306,287,308,306,2
307,273,309,307,2
308,261,310,308,2
309,255,311,308,2
310,255,312,309,2
309,259,312,309,2
308,270,311,308,2
305,286,310,307,2
304,303,309,306,2
304,314,308,306,2
305,319,307,306,2
307,320,306,306,2
308,318,305,307,2
309,310,304,307,2
311,300,303,307,2
313,290,303,307,2
314,285,304,307,2
315,286,305,307,2
313,290,305,307,2
311,298,304,305,2
308,312,304,304,2
305,324,303,302,2
304,331,302,302,2
304,328,302,302,2
305,321,302,302,2
306,311,304,303,2
307,300,306,304,2
308,289,307,306,2
308,283,307,307,2
307,279,307,307,2
307,273,306,306,2
306,267,305,307,2
307,263,306,306,2
306,265,308,307,2
305,281,310,308,2
304,306,310,309,2
304,326,308,309,2
305,337,306,309,2
306,347,303,309,2
308,355,302,308,2
312,361,300,308,2
316,363,301,308,2
319,362,302,308,2
319,360,303,308,2
317,357,304,308,2
314,350,307,307,2
310,341,310,307,2
306,330,314,306,2
303,317,319,307,2
302,305,323,307,2
303,296,326,309,2
304,289,328,310,2
304,288,327,312,2
304,289,325,313,2
304,288,321,314,2
303,287,316,313,2
302,290,313,313,2
302,295,310,312,2
303,300,308,309,2
303,303,306,307,2
302,304,304,305,2
302,304,303,304,2
301,305,302,303,2
302,310,302,302,2
302,314,302,302,2
302,319,301,301,2
303,324,301,301,2
304,330,301,303,2
305,335,302,305,2
306,336,303,306,2
306,337,303,308,2
305,339,303,309,2
304,341,304,310,2
304,341,306,309,2
304,339,309,309,2
305,333,310,308,2
306,322,311,308,2
307,308,311,309,2
307,292,312,310,2
307,278,313,312,2
308,270,313,313,2
307,265,312,313,2
307,261,311,312,2
307,260,310,309,2
308,263,309,305,2
310,269,309,302,2
311,279,310,300,2
311,292,309,298,2
310,303,308,297,2
308,314,308,297,2
306,325,307,297,2
305,333,307,299,2
304,337,307,301,2
304,334,307,304,2
304,327,308,306,2
305,316,308,308,2
307,304,309,309,2
309,294,309,308,2
310,291,309,308,2
311,295,310,308,2
311,303,310,307,2
311,309,310,306,2
310,311,309,305,2
309,309,308,304,2
309,305,308,304,2
309,300,308,305,2
309,294,308,305,2
310,289,309,305,2
311,286,310,304,2
311,281,310,304,2
312,273,311,303,2
314,265,312,303,2
314,257,313,302,2
314,252,312,303,2
312,256,311,304,2
310,274,310,305,2
308,300,308,307,2
306,324,306,309,2
304,340,305,311,2
304,348,305,313,2
304,348,305,314,2
305,344,305,313,2
305,336,305,311,2
305,329,304,310,2
306,325,304,309,2
306,325,303,308,2
307,327,303,308,2
306,328,302,308,2
306,329,302,309,2
305,332,302,309,2
305,333,301,310,2
304,331,301,312,2
304,325,301,313,2
304,317,302,314,2
304,313,302,315,2
305,313,302,315,2
305,314,303,315,2
305,312,303,315,2
305,309,302,314,2
305,307,301,313,2
305,308,301,313,2
304,311,300,312,2
304,312,299,312,2
304,313,298,311,2
304,315,297,310,2
303,318,297,309,2
304,317,296,309,2
305,313,297,309,2
306,306,299,309,2
306,300,301,310,2
307,297,304,310,2
307,298,307,309,2
308,302,309,309,2
308,305,310,310,2
308,307,308,309,2
308,308,306,308,2
308,308,304,308,2
309,306,302,308,2
309,305,301,307,2
308,303,300,306,2
308,299,301,305,2
309,292,302,305,2
310,282,303,305,2
311,276,304,305,2
312,277,304,305,2
313,283,304,306,2
313,289,303,306,2
312,293,302,306,2
310,295,301,305,2
308,301,300,305,2
305,308,300,306,2
304,314,300,306,2
304,316,301,306,2
304,313,302,306,2
305,309,303,305,2
305,304,303,305,2
306,300,303,303,2
305,300,303,302,2
305,306,302,302,2
306,316,302,301,2
306,324,302,301,2
306,326,302,301,2
305,321,302,301,2
305,314,302,302,2
305,305,302,303,2
304,298,302,303,2
304,293,301,304,2
304,294,301,305,2
304,301,300,306,2
305,312,300,307,2
306,323,300,309,2
307,331,300,310,2
308,337,300,309,2
308,342,300,308,2
307,347,300,308,2
306,350,299,307,2
305,350,298,306,2
304,348,298,305,2
303,345,297,305,2
303,340,297,305,2
304,335,297,305,2
304,330,297,305,2
304,323,297,305,2
304,318,297,305,2
305,313,298,306,2
305,311,298,307,2
306,308,299,308,2
307,305,299,307,2
307,301,299,306,2
308,298,300,307,2
310,295,301,309,2
311,292,303,312,2
312,287,304,312,2
312,284,304,311,2
311,284,303,310,2
310,287,303,309,2
309,292,303,309,2
309,300,303,307,2
307,309,303,306,2
306,317,303,306,2
306,322,304,307,2
307,324,305,308,2
307,320,305,308,2
307,312,304,309,2
308,307,304,310,2
308,307,304,309,2
308,311,303,309,2
307,315,302,307,2
305,321,301,306,2
304,328,301,307,2
303,331,300,309,2
303,331,300,311,2
302,325,299,311,2
302,317,298,310,2
301,312,297,309,2
300,310,298,307,2
300,312,299,306,2
300,318,301,306,2
300,324,304,307,2
301,326,306,308,2
301,326,307,308,2
301,323,306,308,2
301,318,305,307,2
302,313,304,306,2
304,310,304,305,2
306,307,304,305,2
308,304,304,304,2
309,302,304,304,2
310,297,303,305,2
311,293,303,305,2
311,290,303,305,2
311,289,302,306,2
311,289,303,308,2
311,292,303,310,2
311,299,303,312,2
309,308,303,313,2
306,318,303,314,2
303,325,303,314,2
301,329,302,314,2
299,329,303,313,2
298,325,303,313,2
297,320,303,312,2
296,313,302,311,2
296,305,303,310,2
297,299,303,310,2
299,295,304,311,2
302,292,304,311,2
305,287,304,311,2
308,281,304,310,2
309,277,304,309,2
310,276,304,307,2
311,281,305,307,2
311,288,305,307,2
311,297,305,307,2
309,305,304,307,2
307,312,303,308,2
306,316,303,308,2
305,317,304,309,2
304,319,304,309,2
304,321,304,309,2
304,324,304,309,2
304,328,304,308,2
304,333,304,308,2
304,337,304,307,2
303,340,304,308,2
303,339,305,308,2
303,335,305,307,2
303,329,305,307,2
303,321,304,305,2
303,313,304,304,2
304,303,304,305,2
305,291,305,305,2
307,277,307,306,2
309,266,308,305,2
311,257,309,306,2
312,257,310,307,2
312,263,311,307,2
312,274,311,307,2
312,286,311,307,2
311,295,311,307,2
309,303,309,306,2
309,311,307,307,2
309,318,305,307,2
309,323,303,308,2
308,325,302,309,2
307,324,300,309,2
305,321,299,309,2
303,320,300,308,2
301,319,301,307,2
300,320,303,306,2
299,322,304,306,2
299,325,305,307,2
300,329,307,307,2
301,332,309,308,2
302,335,309,308,2
301,337,308,307,2
300,335,307,307,2
300,330,306,306,2
300,324,306,305,2
301,320,306,305,2
302,319,306,304,2
304,318,306,303,2
304,319,306,302,2
304,319,307,302,2
305,318,308,302,2
307,315,309,302,2
307,310,310,301,2
308,307,310,301,2
309,305,309,302,2
309,306,308,303,2
308,308,307,305,2
307,312,307,306,2
306,315,306,306,2
305,317,305,306,2
305,315,305,306,2
304,308,306,305,2
303,300,305,304,2
302,295,306,303,2
301,295,306,302,2
300,301,306,301,2
300,308,306,301,2
302,311,307,301,2
303,307,307,300,2
303,295,307,299,2
304,280,306,298,2
305,268,306,298,2
305,266,307,299,2
306,276,308,302,2
306,293,310,304,2
306,315,310,306,2
305,336,310,306,2
303,351,307,306,2
302,360,305,305,2
300,361,302,304,2
298,356,300,304,2
297,348,299,305,2
295,340,299,305,2
294,334,299,305,2
294,329,300,304,2
293,326,301,303,2
293,322,302,303,2
294,318,303,303,2
296,315,305,303,2
300,313,306,304,2
305,310,307,303,2
307,304,307,303,2
308,297,306,302,2
309,293,306,302,2
309,292,306,304,2
309,292,306,305,2
310,294,307,307,2
310,297,307,309,2
309,297,307,310,2
309,296,306,309,2
309,291,306,308,2
309,284,306,306,2
310,276,306,305,2
310,270,307,303,2
310,268,307,302,2
310,270,307,302,2
311,272,307,302,2
311,274,307,303,2
310,280,306,305,2
308,293,306,307,2
305,312,305,309,2
302,331,305,310,2
299,349,305,311,2
298,366,306,311,2
298,379,307,311,2
298,384,307,310,2
298,383,307,309,2
298,377,306,308,2
300,369,306,308,2
301,359,307,308,2
302,348,307,309,2
303,333,308,310,2
304,315,309,310,2
306,297,309,310,2
307,282,309,308,2
307,271,309,306,2
307,264,308,304,2
308,263,307,302,2
309,267,305,301,2
310,274,305,301,2
312,280,305,301,2
313,284,305,301,2
314,291,306,301,2
315,300,305,302,2
315,309,305,302,2
315,316,305,302,2
314,319,305,302,2
312,319,306,302,2
309,317,308,303,2
306,312,310,303,2
303,303,312,304,2
301,295,312,304,2
299,292,311,303,2
298,292,311,301,2
299,294,310,300,2
300,295,310,300,2
302,297,310,299,2
303,299,309,299,2
304,301,309,299,2
304,302,308,299,2
305,304,307,300,2
307,308,305,301,2
308,312,304,303,2
308,315,304,306,2
308,317,305,309,2
306,317,305,310,2
304,314,305,309,2
303,311,305,306,2
302,310,304,303,2
304,312,304,302,2
306,316,305,300,2
308,322,304,299,2
309,323,304,298,2
309,322,304,298,2
307,317,303,299,2
304,310,302,300,2
300,300,302,300,2
296,292,301,300,2
291,286,300,301,2
288,285,299,302,2
287,287,298,303,2
287,292,297,303,2
289,301,296,303,2
292,311,296,304,2
294,319,297,304,2
297,324,298,304,2
298,325,300,304,2
298,321,301,304,2
298,316,303,304,2
298,311,304,303,2
298,307,304,302,2
299,305,304,302,2
300,305,304,303,2
300,305,304,303,2
300,303,304,303,2
299,300,304,304,2
298,298,305,305,2
297,296,306,305,2
295,296,307,306,2
294,297,308,307,2
294,296,309,308,2
296,292,310,308,2
299,286,311,309,2
303,280,310,309,2
305,276,308,309,2
308,278,305,309,2
310,283,302,308,2
311,291,298,305,2
311,301,296,303,2
310,313,294,301,2
308,324,295,302,2
306,333,296,303,2
306,339,299,303,2
307,343,303,304,2
309,344,307,305,2
311,344,308,307,2
312,343,308,308,2
313,339,307,308,2
313,329,306,308,2
312,314,305,309,2
312,295,305,309,2
311,278,305,310,2
311,267,305,310,2
310,264,305,310,2
309,269,305,309,2
307,280,305,307,2
305,294,304,306,2
303,308,304,305,2
301,319,303,305,2
300,327,303,305,2
302,331,303,305,2
304,330,303,305,2
306,325,303,306,2
308,318,304,308,2
309,311,306,310,2
308,301,309,311,2
307,289,309,312,2
307,278,310,312,2
307,269,311,312,2
307,265,311,313,2
310,264,310,313,2
313,264,310,313,2
316,267,310,314,2
317,276,311,314,2
314,288,310,314,2
307,300,310,314,2
300,309,310,313,2
296,314,310,312,2
295,316,311,311,2
298,315,312,311,2
303,311,312,310,2
306,307,311,308,2
308,302,310,309,2
309,297,309,310,2
309,297,308,312,2
308,299,307,313,2
306,304,306,312,2
304,309,305,310,2
303,316,304,307,2
304,325,304,305,2
303,334,304,304,2
302,342,304,304,2
302,348,305,306,2
300,352,305,307,2
297,352,304,309,2
295,345,304,311,2
295,334,304,312,2
297,322,304,312,2
299,310,305,312,2
302,300,306,311,2
303,292,308,311,2
304,284,309,311,2
304,278,310,311,2
304,274,311,311,2
302,273,311,310,2
302,273,311,310,2
303,276,312,308,2
305,285,312,307,2
306,298,312,306,2
307,312,312,305,2
307,324,311,304,2
306,332,311,304,2
307,337,311,304,2
308,338,311,306,2
309,334,312,308,2
309,327,313,310,2
310,317,313,312,2
311,306,314,313,2
312,297,314,314,2
313,290,314,314,2
313,285,313,313,2
312,286,311,311,2
311,292,309,309,2
310,300,308,308,2
309,305,306,307,2
309,307,306,307,2
309,306,305,307,2
310,303,304,307,2
310,301,303,307,2
309,301,303,307,2
308,304,304,307,2
307,305,306,308,2
307,303,309,308,2
308,299,312,309,2
309,293,314,310,2
311,286,315,311,2
312,278,317,312,2
313,273,317,312,2
312,269,315,311,2
310,268,314,309,2
307,270,312,307,2
305,276,311,306,2
303,284,310,305,2
302,294,309,304,2
300,304,308,303,2
299,313,308,302,2
299,319,308,301,2
299,321,308,301,2
300,322,308,301,2
301,322,307,302,2
301,321,306,302,2
301,322,305,301,2
301,325,305,301,2
301,331,305,301,2
302,337,307,301,2
303,336,309,303,2
304,331,311,305,2
306,322,313,307,2
307,313,313,308,2
307,304,312,308,2
307,296,310,308,2
308,292,307,307,2
307,291,306,305,2
307,293,304,304,2
308,297,303,303,2
308,302,303,302,2
308,308,302,301,2
308,314,302,301,2
307,320,303,301,2
307,322,304,301,2
306,320,305,301,2
307,313,307,301,2
307,303,309,301,2
308,293,312,301,2
308,286,313,301,2
307,283,314,301,2
306,283,314,301,2
305,286,313,302,2
304,291,313,303,2
304,295,312,305,2
304,298,312,307,2
305,300,313,308,2
306,305,313,310,2
306,310,313,310,2
306,314,312,309,2
307,313,312,308,2
308,308,312,307,2
309,302,312,306,2
310,298,312,305,2
309,298,313,305,2
309,301,312,304,2
307,308,311,304,2
305,318,310,304,2
304,326,309,305,2
303,333,309,306,2
302,338,308,308,2
301,338,308,310,2
302,333,308,311,2
305,323,308,312,2
306,312,308,312,2
308,303,308,312,2
308,295,308,312,2
308,292,308,311,2
307,296,307,310,2
305,305,306,308,2
303,317,305,307,2
302,328,304,306,2
302,335,304,306,2
302,338,304,307,2
303,335,304,307,2
303,324,305,306,2
303,310,306,305,2
304,298,309,305,2
305,287,313,305,2
306,278,317,305,2
307,274,318,305,2
308,275,317,306,2
307,281,316,306,2
307,290,314,307,2
307,299,313,308,2
306,310,311,309,2
305,320,310,311,2
304,328,309,311,2
303,335,308,313,2
302,342,307,313,2
302,346,307,313,2
303,343,307,313,2
303,334,307,311,2
303,325,307,309,2
304,317,308,307,2
305,310,308,306,2
306,304,308,304,2
307,300,308,304,2
308,297,309,304,2
309,294,310,305,2
309,291,311,306,2
309,288,311,307,2
309,284,311,308,2
310,279,310,309,2
310,273,310,310,2
311,269,311,312,2
312,270,311,312,2
312,275,311,312,2
312,286,310,311,2
311,299,309,310,2
310,313,307,309,2
309,321,306,309,2
308,325,305,308,2
307,327,306,308,2
306,327,306,307,2
305,327,306,307,2
304,325,306,306,2
304,322,307,307,2
305,316,307,307,2
305,310,307,307,2
305,303,307,307,2
305,297,306,307,2
305,292,305,308,2
305,290,305,309,2
305,289,304,309,2
305,289,304,309,2
305,291,304,309,2
304,294,304,309,2
304,298,305,308,2
304,303,306,308,2
304,309,308,308,2
304,313,309,309,2
303,316,309,309,2
303,319,307,309,2
302,320,306,308,2
302,320,305,307,2
302,319,305,307,2
303,316,305,308,2
304,310,305,307,2
305,302,305,305,2
305,293,306,303,2
305,283,306,301,2
305,274,307,300,2
306,267,308,300,2
307,259,308,300,2
308,251,308,299,2
308,245,307,296,2
308,242,306,294,2
308,244,306,292,2
308,252,307,291,2
309,266,308,292,2
310,288,309,295,2
309,312,310,300,2
308,331,311,304,2
307,340,310,307,2
305,339,309,308,2
303,332,308,307,2
302,323,308,307,2
303,316,308,308,2
304,312,309,309,2
304,311,309,310,2
305,309,309,311,2
305,304,309,311,2
306,299,309,311,2
307,293,309,312,2
308,290,310,313,2
308,294,311,313,2
308,302,311,313,2
306,311,310,312,2
305,320,309,310,2
304,329,309,308,2
304,335,308,307,2
305,336,307,307,2
306,334,307,307,2
308,328,307,308,2
310,318,308,308,2
312,309,310,310,2
313,301,312,311,2
314,299,313,311,2
314,303,312,310,2
312,309,311,309,2
310,318,308,307,2
308,327,305,305,2
305,334,302,303,2
304,338,300,303,2
303,338,300,302,2
303,334,303,303,2
303,329,307,304,2
304,325,312,305,2
305,321,315,306,2
308,317,316,306,2
310,313,316,305,2
311,311,315,305,2
311,310,312,305,2
312,309,309,305,2
312,308,307,306,2
312,307,304,306,2
311,303,304,306,2
311,296,304,306,2
311,289,305,306,2
312,283,308,307,2
314,280,312,309,2
314,283,314,310,2
315,290,315,310,2
314,297,314,310,2
314,303,312,309,2
313,306,310,309,2
313,303,308,309,2
312,298,307,308,2
309,298,306,307,2
307,301,304,306,2
304,304,303,305,2
302,303,303,305,2
302,297,303,305,2
303,290,304,305,2
305,286,305,305,2
308,284,305,305,2
311,286,305,304,2
313,290,304,304,2
315,298,304,305,2
315,307,302,307,2
313,315,301,308,2
310,322,301,309,2
308,327,301,310,2
306,329,302,310,2
306,330,302,311,2
306,330,303,311,2
307,330,303,311,2
306,329,302,311,2
306,327,300,310,2
305,326,299,308,2
305,324,298,307,2
305,321,299,305,2
306,317,299,304,2
307,313,300,303,2
307,308,301,303,2
308,301,302,303,2
308,294,303,303,2
308,287,304,303,2
307,279,304,304,2
307,272,304,305,2
307,265,305,306,2
307,259,305,307,2
307,255,304,307,2
307,255,304,307,2
307,260,303,307,2
307,268,303,307,2
307,279,302,305,2
306,296,301,304,2
305,320,300,303,2
304,344,300,301,2
302,362,299,300,2
300,371,299,301,2
298,374,301,303,2
297,374,304,305,2
298,372,307,308,2
298,368,309,311,2
299,364,311,314,2
300,357,311,315,2
301,350,311,315,2
303,340,311,315,2
304,328,312,314,2
305,313,313,314,2
306,294,313,313,2
308,273,312,312,2
309,254,312,311,2
311,240,311,311,2
312,232,312,311,2
314,231,312,312,2
315,238,312,312,2
314,253,311,312,2
313,271,311,310,2
311,292,312,309,2
309,310,312,307,2
307,322,312,306,2
306,329,313,305,2
305,333,313,305,2
303,332,311,305,2
301,326,309,305,2
299,315,305,305,2
299,302,303,305,2
300,290,303,305,2
302,276,303,305,2
304,263,304,305,2
305,253,306,304,2
307,246,308,305,2
307,244,309,305,2
307,246,309,306,2
307,255,308,307,2
305,273,306,308,2
304,294,303,309,2
303,317,300,311,2
303,336,298,311,2
304,351,297,311,2
305,358,297,311,2
307,359,299,312,2
308,357,303,313,2
308,351,308,313,2
308,342,311,314,2
308,331,313,315,2
308,322,313,315,2
306,316,312,315,2
305,314,310,315,2
304,316,308,314,2
303,321,306,312,2
303,326,304,311,2
303,330,304,311,2
304,332,304,310,2
305,331,304,311,2
306,328,304,310,2
307,321,304,311,2
307,313,304,311,2
307,303,304,311,2
308,292,305,311,2
308,284,306,312,2
308,278,308,311,2
307,279,309,311,2
306,285,310,310,2
305,290,310,309,2
304,292,310,308,2
305,293,310,307,2
307,295,311,308,2
310,299,312,310,2
312,303,313,311,2
313,308,313,312,2
312,311,312,314,2
311,312,311,315,2
311,313,309,316,2
311,313,307,317,2
310,314,305,318,2
308,315,304,318,2
305,315,303,318,2
302,314,302,318,2
300,315,303,318,2
299,315,303,319,2
299,315,305,319,2
300,314,306,318,2
301,314,306,317,2
302,316,307,316,2
304,318,307,316,2
305,320,308,315,2
306,321,309,315,2
307,322,309,316,2
309,323,309,317,2
310,320,310,317,2
311,315,310,317,2
312,304,310,318,2
312,291,310,318,2
312,283,309,317,2
311,280,308,316,2
310,283,308,316,2
309,291,307,314,2
307,302,306,313,2
306,309,306,312,2
306,313,306,311,2
306,316,306,310,2
306,316,306,310,2
307,316,307,311,2
308,316,307,313,2
308,316,307,314,2
309,315,306,314,2
309,312,305,315,2
309,309,304,315,2
309,306,305,316,2
308,302,305,316,2
309,296,304,316,2
308,290,304,315,2
308,286,303,314,2
309,282,302,313,2
309,279,300,312,2
308,279,299,310,2
307,284,298,309,2
307,291,298,310,2
306,298,300,311,2
306,305,302,312,2
306,311,305,314,2
306,312,305,314,2
305,310,304,313,2
305,306,303,311,2
304,305,302,310,2
304,307,301,308,2
303,309,299,308,2
303,310,299,307,2
302,315,298,306,2
301,321,297,304,2
301,325,298,302,2
302,325,298,301,2
303,323,300,302,2
306,319,301,303,2
308,312,302,304,2
309,304,303,305,2
310,295,303,305,2
310,286,303,305,2
310,275,303,303,2
308,266,302,301,2
307,263,301,299,2
306,266,301,299,2
305,277,301,300,2
305,291,301,303,2
304,305,302,308,2
304,317,302,311,2
304,326,301,314,2
303,331,301,315,2
303,332,300,313,2
301,330,299,310,2
300,326,298,305,2
299,322,297,299,2
299,315,297,294,2
299,305,297,290,2
300,296,297,290,2
302,288,299,294,2
303,282,301,299,2
304,278,303,306,2
305,280,305,313,2
307,288,306,319,2
307,296,306,322,2
308,302,306,323,2
308,304,306,323,2
309,303,305,322,2
309,303,305,321,2
309,306,305,320,2
309,310,304,321,2
308,314,304,321,2
308,319,303,321,2
308,321,303,322,2
308,323,303,323,2
308,324,303,322,2
308,323,303,320,2
308,320,304,320,2
309,315,305,321,2
310,310,307,322,2
311,305,307,324,2
310,298,308,325,2
309,288,308,323,2
308,280,308,321,2
308,276,307,319,2
309,274,307,317,2
310,275,306,314,2
311,282,304,312,2
312,295,303,312,2
312,310,301,312,2
312,324,300,312,2
311,337,299,313,2
310,348,298,315,2
309,355,299,315,2
308,358,299,316,2
307,357,300,317,2
307,352,301,318,2
306,341,303,318,2
306,324,304,317,2
307,303,306,317,2
310,281,308,317,2
312,260,310,317,2
314,244,310,316,2
314,238,309,315,2
312,246,305,312,2
309,266,300,310,2
307,289,296,307,2
306,308,293,306,2
306,319,292,306,2
307,323,292,307,2
308,324,293,308,2
310,325,296,310,2
311,327,298,310,2
312,326,299,310,2
311,323,300,309,2
311,321,300,307,2
310,320,300,307,2
310,320,300,306,2
309,319,303,307,2
309,316,306,307,2
309,311,309,309,2
309,304,310,309,2
310,297,310,310,2
311,291,308,309,2
311,289,307,309,2
311,290,306,308,2
311,296,306,306,2
311,304,306,305,2
311,312,306,305,2
310,318,306,306,2
311,322,306,308,2
312,324,307,309,2
311,322,307,310,2
311,318,307,311,2
310,313,306,311,2
309,307,306,311,2
308,301,306,311,2
308,295,306,310,2
307,286,306,309,2
308,277,307,307,2
308,270,308,305,2
309,265,308,305,2
310,263,308,304,2
310,265,308,303,2
309,272,307,302,2
308,282,307,302,2
307,294,307,302,2
305,305,307,302,2
305,315,307,303,2
305,321,306,304,2
304,324,306,305,2
304,324,305,305,2
303,324,305,304,2
302,324,304,303,2
301,322,303,304,2
301,318,304,305,2
301,310,305,308,2
301,299,306,309,2
301,290,307,309,2
302,288,307,309,2
301,292,307,308,2
299,298,307,309,2
299,306,306,310,2
297,313,305,310,2
297,319,304,310,2
298,322,303,309,2
301,324,303,308,2
304,326,303,307,2
306,329,303,307,2
307,332,302,306,2
308,333,301,305,2
307,333,300,304,2
307,332,299,303,2
306,328,299,302,2
307,322,301,302,2
308,314,304,303,2
309,306,309,304,2
309,299,313,306,2
309,295,315,307,2
310,292,316,309,2
309,292,316,310,2
309,293,315,311,2
309,294,315,311,2
308,292,313,310,2
307,287,312,310,2
308,280,311,310,2
308,275,311,311,2
309,275,312,313,2
310,281,312,313,2
310,289,311,313,2
309,297,310,311,2
308,300,309,308,2
307,297,309,305,2
307,287,309,303,2
309,273,310,302,2
309,261,311,302,2
310,258,311,302,2
309,266,310,303,2
307,284,307,305,2
304,309,304,306,2
303,338,302,308,2
301,363,301,309,2
300,378,302,310,2
300,381,304,311,2
300,373,305,312,2
300,361,307,313,2
301,349,308,314,2
301,340,308,314,2
302,335,308,313,2
302,335,308,311,2
302,333,308,309,2
303,328,308,308,2
304,320,308,308,2
304,311,308,308,2
306,304,308,308,2
306,301,309,308,2
306,300,309,310,2
307,300,309,311,2
307,300,310,311,2
307,298,310,312,2
307,297,310,311,2
307,294,310,311,2
306,292,309,310,2
306,291,309,309,2
305,290,308,307,2
306,289,308,306,2
306,285,309,305,2
307,280,310,306,2
308,275,312,307,2
309,272,313,309,2
311,269,315,311,2
311,266,316,311,2
310,265,315,308,2
309,268,313,305,2
307,275,311,303,2
306,287,309,301,2
304,300,307,300,2
303,313,304,300,2
302,321,303,301,2
302,324,302,302,2
302,324,302,303,2
301,321,301,304,2
300,317,301,305,2
299,313,301,304,2
298,311,301,303,2
297,311,300,302,2
296,309,301,301,2
295,307,303,301,2
296,304,306,302,2
297,303,310,303,2
298,303,313,304,2
299,306,314,304,2
299,314,313,305,2
299,323,312,306,2
298,331,310,306,2
298,336,309,306,2
298,338,307,307,2
299,338,307,307,2
300,337,307,307,2
301,334,307,308,2
301,331,307,308,2
302,326,307,309,2
302,320,307,309,2
302,314,308,309,2
302,309,307,310,2
302,302,307,311,2
302,295,307,312,2
302,288,307,313,2
301,283,307,315,2
302,282,307,315,2
301,282,308,315,2
302,281,308,313,2
302,282,308,312,2
303,284,308,310,2
304,291,307,308,2
306,300,306,306,2
308,307,306,304,2
309,309,305,302,2
309,311,305,301,2
309,311,305,300,2
308,311,305,299,2
307,311,306,299,2
306,313,308,299,2
306,314,310,299,2
305,314,311,299,2
305,312,312,301,2
305,310,312,302,2
306,305,313,303,2
307,299,313,304,2
307,293,313,304,2
307,289,313,304,2
307,291,312,303,2
306,297,311,303,2
304,305,310,303,2
303,314,309,304,2
302,323,308,304,2
301,330,308,305,2
301,333,306,305,2
300,334,306,305,2
300,333,305,306,2
300,329,305,307,2
300,326,305,308,2
301,322,305,308,2
301,319,305,308,2
302,317,305,308,2
302,318,305,308,2
303,322,305,309,2
304,328,305,309,2
305,332,305,309,2
306,332,306,309,2
307,327,306,308,2
308,319,307,307,2
308,311,307,307,2
308,307,308,306,2
307,305,308,307,2
307,305,308,307,2
306,308,307,307,2
306,308,307,307,2
305,303,306,306,2
304,294,306,306,2
304,283,306,306,2
303,275,307,306,2
302,275,307,307,2
301,282,308,307,2
301,292,308,307,2
301,301,309,307,2
301,305,311,307,2
301,303,311,307,2
302,298,311,307,2
302,293,310,307,2
303,287,309,307,2
303,283,308,307,2
304,279,308,307,2
306,277,308,308,2
307,276,309,308,2
308,275,310,308,2
308,275,310,307,2
309,274,311,308,2
308,270,310,308,2
307,268,309,308,2
306,268,307,307,2
306,274,306,307,2
305,282,305,307,2
304,294,303,306,2
303,309,300,306,2
301,322,298,306,2
301,329,298,305,2
300,334,300,305,2
301,338,303,306,2
302,338,308,307,2
302,334,311,307,2
302,327,312,307,2
301,320,312,306,2
300,315,312,305,2
300,313,312,304,2
299,312,312,303,2
300,308,311,302,2
301,303,311,303,2
304,298,311,304,2
306,294,311,304,2
307,292,311,306,2
308,295,310,307,2
309,301,309,309,2
309,310,308,310,2
309,317,307,311,2
308,321,307,312,2
308,323,307,312,2
307,321,307,311,2
305,315,306,309,2
303,308,305,306,2
302,301,304,304,2
301,295,304,303,2
301,291,303,303,2
301,290,304,303,2
302,288,304,305,2
303,288,305,307,2
304,290,307,309,2
306,295,309,310,2
307,302,311,310,2
308,308,311,310,2
308,313,311,309,2
308,320,310,308,2
307,327,309,307,2
306,329,307,306,2
306,325,307,307,2
306,319,307,307,2
306,314,306,306,2
304,311,306,306,2
303,309,304,305,2
301,309,304,305,2
300,312,303,305,2
299,315,303,304,2
299,316,304,304,2
299,316,304,305,2
299,315,304,306,2
300,315,305,307,2
300,314,305,308,2
300,312,306,309,2
301,308,307,309,2
300,302,307,307,2
301,295,307,305,2
301,288,308,304,2
301,281,307,303,2
300,275,307,302,2
300,271,307,301,2
299,271,307,301,2
299,272,307,303,2
299,272,308,304,2
300,274,309,306,2
300,283,309,308,2
300,295,308,309,2
301,307,308,310,2
301,321,306,309,2
300,333,305,307,2
299,343,304,306,2
300,349,303,307,2
301,349,304,308,2
302,346,305,308,2
303,338,305,309,2
304,330,306,309,2
306,321,306,309,2
307,312,306,308,2
307,308,306,308,2
307,305,306,307,2
307,304,307,307,2
306,304,307,306,2
305,303,307,305,2
304,298,307,304,2
304,290,308,303,2
305,280,309,304,2
306,271,310,304,2
307,266,311,306,2
309,269,312,308,2
310,280,312,311,2
311,297,312,313,2
310,311,310,315,2
308,319,309,315,2
304,322,308,314,2
301,323,307,313,2
299,323,307,310,2
297,324,306,308,2
296,326,307,307,2
297,326,308,307,2
298,323,309,307,2
299,317,310,308,2
302,311,309,309,2
305,307,308,310,2
308,306,307,311,2
311,307,306,312,2
312,309,305,311,2
313,309,303,310,2
313,308,300,308,2
314,305,299,307,2
313,300,299,307,2
312,294,300,307,2
310,290,303,307,2
309,289,307,306,2
308,293,313,306,2
308,302,318,305,2
307,309,320,305,2
307,309,319,305,2
306,304,318,305,2
305,296,316,306,2
304,288,315,307,2
304,282,315,307,2
304,281,314,308,2
304,286,314,309,2
304,296,315,310,2
304,306,315,311,2
304,314,314,311,2
304,320,314,311,2
305,322,313,311,2
305,323,313,310,2
306,322,314,310,2
307,320,314,310,2
308,318,314,311,2
309,318,314,311,2
309,317,314,312,2
309,316,314,312,2
310,317,314,311,2
310,317,315,311,2
310,318,315,310,2
310,317,315,310,2
310,311,315,310,2
311,302,315,310,2
311,294,314,309,2
311,287,314,309,2
310,278,314,308,2
309,268,315,307,2
309,258,316,306,2
310,246,318,307,2
312,235,320,307,2
314,230,321,308,2
315,231,321,309,2
315,237,321,309,2
314,243,319,309,2
314,247,317,310,2
314,251,316,311,2
314,256,315,313,2
315,263,315,316,2
316,275,315,318,2
314,293,313,318,2
312,311,312,316,2
308,330,310,313,2
305,347,308,311,2
302,363,308,310,2
300,376,307,309,2
299,385,308,308,2
300,390,309,308,2
301,392,310,309,2
302,391,311,310,2
303,387,311,311,2
304,380,311,312,2
304,370,311,314,2
305,356,312,316,2
305,340,312,316,2
305,326,312,315,2
305,315,312,315,2
306,310,311,313,2
306,308,311,312,2
306,306,310,310,2
307,304,310,309,2
307,301,310,307,2
306,297,310,306,2
305,295,309,305,2
304,293,309,306,2
304,292,310,306,2
304,292,310,308,2
305,292,310,309,2
306,293,310,310,2
306,294,310,311,2
305,295,311,313,2
305,295,311,314,2
306,294,312,315,2
306,293,312,315,2
307,292,311,315,2
307,290,310,315,2
307,289,309,314,2
308,288,308,314,2
308,288,308,314,2
308,288,309,313,2
307,287,309,313,2
307,284,310,312,2
307,281,310,312,2
308,278,311,313,2
308,277,311,314,2
309,277,312,315,2
309,277,312,315,2
309,278,311,314,2
309,278,309,313,2
308,277,307,312,2
308,274,305,311,2
308,268,304,311,2
308,263,303,311,2
308,260,302,311,2
306,264,302,311,2
304,275,302,310,2
300,292,304,310,2
297,311,306,311,2
295,329,309,311,2
294,343,311,312,2
295,353,312,311,2
297,357,311,311,2
300,356,311,311,2
302,353,311,311,2
305,349,310,311,2
306,344,310,312,2
306,340,309,311,2
306,337,309,312,2
306,336,308,312,2
306,338,308,313,2
306,339,308,314,2
307,338,309,314,2
307,331,309,315,2
307,323,309,316,2
307,314,309,316,2
307,307,309,315,2
308,303,307,314,2
307,298,306,311,2
307,293,305,308,2
307,289,304,306,2
307,287,304,305,2
308,286,304,304,2
308,284,305,304,2
309,282,305,305,2
309,281,306,305,2
309,281,306,306,2
309,281,306,306,2
308,285,305,306,2
307,293,304,306,2
306,302,303,307,2
306,308,303,308,2
307,310,304,310,2
308,305,305,311,2
309,298,306,311,2
309,291,307,312,2
310,287,308,312,2
310,287,308,312,2
310,294,308,313,2
309,304,307,313,2
308,313,306,314,2
306,317,305,313,2
304,316,304,312,2
303,315,303,311,2
303,314,302,310,2
303,310,302,309,2
304,303,302,308,2
305,294,303,308,2
306,284,303,309,2
307,276,305,310,2
307,270,306,311,2
307,268,307,311,2
305,272,307,310,2
304,282,306,309,2
303,296,305,309,2
302,308,306,309,2
302,318,306,309,2
302,326,306,309,2
302,333,305,309,2
302,340,306,309,2
302,346,306,309,2
302,350,306,309,2
302,352,306,309,2
302,353,306,310,2
303,353,306,311,2
303,349,306,312,2
304,341,306,313,2
304,331,307,313,2
304,322,307,313,2
304,314,306,312,2
304,309,305,311,2
304,304,304,311,2
304,301,304,311,2
304,298,304,312,2
304,296,304,312,2
305,293,304,312,2
306,292,304,312,2
307,291,304,312,2
307,291,303,311,2
307,290,302,310,2
307,289,301,309,2
307,288,300,307,2
306,286,300,305,2
305,283,298,304,2
304,281,299,303,2
304,281,300,302,2
304,282,304,303,2
305,283,307,304,2
306,283,311,306,2
306,286,312,307,2
307,292,313,309,2
307,303,312,310,2
307,312,311,310,2
307,320,311,310,2
307,323,310,311,2
307,321,309,313,2
306,314,309,314,2
305,306,309,315,2
303,299,309,315,2
303,292,308,315,2
302,288,307,314,2
302,288,306,312,2
302,291,306,312,2
303,297,307,312,2
304,302,309,312,2
307,305,311,313,2
309,310,314,314,2
311,315,316,315,2
312,321,316,315,2
311,323,315,315,2
311,320,312,314,2
310,316,308,313,2
309,311,305,312,2
308,309,304,311,2
308,309,304,311,2
307,311,305,312,2
307,314,305,312,2
308,317,306,314,2
308,317,306,314,2
308,315,307,313,2
308,312,307,312,2
307,309,307,311,2
306,303,307,311,2
306,295,307,310,2
305,286,307,308,2
305,276,307,307,2
306,266,308,307,2
308,257,309,307,2
310,252,311,310,2
313,248,312,313,2
314,246,311,315,2
314,245,309,317,2
313,245,304,317,2
312,247,298,316,2
310,252,291,311,2
307,261,284,305,2
303,274,277,299,2
300,288,271,293,2
297,302,268,289,2
295,313,268,286,2
294,321,273,287,2
295,325,280,290,2
297,329,288,293,2
299,334,294,296,2
300,339,299,298,2
300,343,303,299,2
300,345,306,300,2
300,344,309,301,2
300,342,313,304,2
301,339,317,308,2
301,334,320,312,2
302,327,321,316,2
304,320,322,318,2
305,314,321,318,2
307,310,321,319,2
308,306,320,319,2
309,303,318,319,2
309,301,317,318,2
309,303,316,319,2
309,305,316,319,2
309,306,315,319,2
308,307,314,318,2
307,306,314,317,2
306,306,314,317,2
306,306,314,317,2
306,305,314,316,2
306,303,314,315,2
306,300,314,314,2
307,297,314,313,2
307,298,315,312,2
307,301,314,312,2
306,304,314,312,2
305,307,313,313,2
304,311,313,315,2
304,315,313,316,2
304,318,313,317,2
304,318,313,316,2
304,317,313,315,2
304,318,312,315,2
304,320,312,316,2
305,321,313,316,2
306,316,313,317,2
307,306,313,317,2
308,294,313,317,2
308,284,313,316,2
307,277,311,315,2
307,273,310,314,2
306,274,309,313,2
306,277,308,312,2
307,283,308,311,2
307,290,309,310,2
307,298,309,309,2
306,305,309,308,2
305,315,311,308,2
304,324,312,309,2
304,331,314,312,2
304,332,316,315,2
305,325,317,317,2
305,313,317,319,2
306,300,317,319,2
306,287,316,317,2
306,277,316,315,2
306,271,315,314,2
306,271,315,313,2
307,276,314,313,2
308,285,314,314,2
308,294,313,315,2
307,303,314,315,2
306,310,313,315,2
305,313,313,315,2
304,313,312,314,2
304,313,311,313,2
303,314,310,310,2
303,317,310,309,2
303,318,310,309,2
304,316,310,309,2
305,312,310,310,2
306,305,310,310,2
307,299,310,311,2
308,297,310,311,2
308,300,310,312,2
307,308,308,312,2
307,317,307,312,2
306,325,307,312,2
305,332,307,313,2
304,337,307,313,2
302,339,307,313,2
301,337,306,312,2
301,329,306,312,2
302,319,306,312,2
303,309,306,311,2
305,303,307,311,2
306,300,307,312,2
307,300,306,312,2
308,305,305,313,2
308,310,304,312,2
308,313,302,311,2
308,312,301,310,2
308,310,301,309,2
308,307,303,309,2
308,305,305,309,2
308,303,306,309,2
308,302,306,311,2
308,303,306,313,2
309,303,306,315,2
309,302,307,316,2
311,298,307,316,2
312,293,307,316,2
312,289,306,316,2
312,288,306,316,2
311,286,306,316,2
310,283,305,316,2
310,281,305,316,2
309,284,305,317,2
309,290,306,317,2
308,300,306,317,2
309,311,306,317,2
308,322,306,318,2
307,333,307,319,2
306,342,306,318,2
306,347,306,317,2
305,348,305,316,2
305,340,305,314,2
306,324,304,313,2
307,304,304,311,2
308,287,305,310,2
309,275,306,310,2
309,270,308,310,2
310,270,309,311,2
310,271,309,311,2
310,273,310,311,2
309,277,310,311,2
308,283,310,312,2
307,290,310,313,2
307,297,311,314,2
307,305,312,314,2
307,314,313,315,2
307,322,313,314,2
307,329,314,314,2
308,332,314,314,2
309,332,314,314,2
310,328,314,315,2
311,322,314,317,2
311,315,313,318,2
311,311,312,318,2
310,312,311,320,2
310,316,310,320,2
309,318,308,318,2
307,319,307,316,2
305,319,305,315,2
305,319,304,314,2
305,317,303,313,2
306,313,303,313,2
307,309,302,313,2
307,304,302,314,2
306,296,303,313,2
305,285,304,312,2
305,273,306,311,2
306,265,309,310,2
307,262,311,310,2
307,264,312,311,2
308,272,311,311,2
308,284,311,311,2
306,300,309,311,2
305,318,308,311,2
303,334,306,310,2
303,346,306,309,2
303,352,305,309,2
303,354,306,309,2
303,353,306,308,2
303,350,306,308,2
303,346,306,309,2
303,340,307,310,2
304,334,307,311,2
305,326,308,312,2
306,319,309,313,2
306,312,310,314,2
307,306,310,314,2
307,300,310,314,2
308,294,310,314,2
308,290,309,313,2
309,289,307,312,2
309,292,305,310,2
309,301,303,309,2
309,312,302,309,2
308,320,300,309,2
307,322,299,310,2
306,315,300,310,2
304,306,302,310,2
303,302,305,310,2
303,302,308,311,2
303,304,309,312,2
302,305,308,311,2
302,306,306,309,2
301,308,305,307,2
300,310,304,306,2
300,313,304,305,2
300,314,304,304,2
299,315,305,304,2
299,315,305,305,2
299,316,306,306,2
298,317,305,307,2
297,318,305,308,2
297,318,305,308,2
296,317,305,308,2
296,315,305,308,2
298,313,305,308,2
300,311,305,308,2
303,311,305,307,2
305,312,304,307,2
306,311,304,308,2
308,309,304,309,2
309,307,304,309,2
310,304,304,309,2
310,300,304,309,2
311,297,304,308,2
311,296,305,307,2
312,298,304,306,2
311,301,304,304,2
310,305,304,303,2
310,306,303,301,2
309,301,303,299,2
310,289,303,297,2
311,269,304,297,2
313,248,305,298,2
315,228,308,300,2
317,216,310,303,2
318,215,311,305,2
317,229,312,308,2
316,255,311,311,2
314,284,310,313,2
311,311,308,315,2
309,329,307,316,2
308,340,306,317,2
307,344,306,316,2
307,344,305,315,2
306,337,305,314,2
306,331,304,311,2
305,332,303,310,2
304,336,303,310,2
303,340,302,309,2
302,343,301,310,2
301,345,301,309,2
300,347,299,307,2
300,346,298,305,2
299,343,297,303,2
300,341,297,302,2
301,341,296,302,2
302,342,296,302,2
303,342,297,303,2
304,341,299,304,2
305,336,300,305,2
306,327,302,306,2
307,319,302,307,2
307,313,303,307,2
308,309,303,307,2
308,307,303,308,2
309,305,303,308,2
309,304,304,309,2
309,304,304,309,2
309,304,304,309,2
309,305,305,309,2
308,305,305,308,2
307,305,305,307,2
307,305,305,307,2
306,305,304,306,2
305,306,304,306,2
304,306,304,306,2
304,307,305,307,2
304,308,306,308,2
304,307,307,310,2
305,306,308,311,2
306,302,309,312,2
307,297,310,312,2
310,290,311,311,2
312,283,310,310,2
313,276,310,309,2
314,273,309,309,2
315,274,308,310,2
315,279,306,310,2
315,285,305,311,2
314,289,304,310,2
313,290,303,310,2
311,289,302,309,2
310,288,301,308,2
308,287,300,306,2
307,288,300,303,2
306,290,301,301,2
307,293,303,300,2
308,300,306,300,2
310,310,307,301,2
311,322,308,302,2
311,334,308,303,2
310,344,307,304,2
308,351,305,304,2
307,354,303,304,2
305,355,302,305,2
304,351,301,305,2
303,344,300,305,2
304,335,300,305,2
303,326,300,305,2
304,316,300,306,2
304,307,302,307,2
304,302,305,308,2
304,299,308,308,2
303,301,309,307,2
302,304,309,307,2
302,308,309,306,2
302,311,308,305,2
302,312,307,306,2
303,311,307,305,2
303,310,307,305,2
303,308,307,305,2
304,308,307,304,2
304,308,307,304,2
305,309,307,303,2
305,310,306,303,2
306,309,306,302,2
306,306,306,301,2
307,301,306,300,2
307,296,306,298,2
306,291,306,297,2
307,288,307,298,2
308,289,307,299,2
309,293,308,301,2
309,300,308,303,2
310,308,307,305,2
309,319,307,306,2
309,328,307,306,2
308,331,306,305,2
305,327,305,304,2
303,318,305,303,2
302,310,306,303,2
302,305,307,304,2
304,301,308,304,2
305,300,310,304,2
306,300,310,304,2
307,298,309,303,2
308,294,309,302,2
308,291,308,302,2
308,289,307,301,2
307,289,307,300,2
306,290,307,299,2
305,295,306,298,2
305,303,305,298,2
304,311,305,299,2
303,317,305,299,2
301,321,304,300,2
300,321,305,300,2
299,320,306,301,2
298,319,307,303,2
298,315,307,304,2
299,312,308,304,2
300,307,308,304,2
303,302,309,303,2
306,296,309,303,2
310,289,310,303,2
313,281,311,302,2
314,275,310,302,2
315,274,310,302,2
315,275,309,303,2
314,280,308,303,2
313,286,307,303,2
312,293,306,303,2
311,297,306,303,2
312,300,306,303,2
312,301,306,303,2
312,303,305,303,2
311,306,305,304,2
310,308,305,304,2
309,307,304,304,2
308,303,304,303,2
307,301,304,302,2
307,302,304,302,2
307,303,303,302,2
308,305,303,302,2
308,307,303,302,2
309,308,304,303,2
309,309,305,303,2
309,310,306,303,2
309,312,307,302,2
308,316,308,301,2
308,322,309,301,2
308,327,310,301,2
307,329,309,302,2
308,327,308,303,2
308,321,308,303,2
309,314,308,303,2
309,308,307,302,2
310,306,307,302,2
310,306,307,303,2
310,306,306,305,2
310,308,306,306,2
310,314,305,308,2
310,323,305,309,2
311,332,305,310,2
311,337,306,310,2
311,339,306,309,2
311,339,306,308,2
311,338,305,307,2
310,334,303,306,2
309,330,301,305,2
308,325,300,304,2
308,319,300,304,2
307,310,302,303,2
306,294,304,303,2
305,275,305,304,2
304,261,304,305,2
304,254,303,306,2
304,255,302,306,2
303,263,301,307,2
303,276,302,308,2
303,290,302,309,2
302,301,302,310,2
301,307,303,311,2
301,310,303,311,2
300,310,304,311,2
301,310,303,311,2
300,309,303,310,2
300,309,303,309,2
301,306,303,308,2
301,303,303,307,2
301,298,304,306,2
302,293,304,306,2
303,289,304,306,2
305,287,305,307,2
306,286,305,308,2
308,288,306,309,2
308,291,307,310,2
308,297,307,310,2
307,305,307,311,2
306,313,307,312,2
305,320,307,312,2
305,323,307,312,2
304,321,307,312,2
303,314,307,311,2
302,305,307,311,2
302,293,308,312,2
303,282,309,311,2
304,273,310,310,2
304,269,310,308,2
305,269,309,305,2
303,270,308,303,2
303,269,307,301,2
303,268,306,301,2
303,266,306,301,2
304,269,307,302,2
305,279,307,304,2
305,296,308,305,2
305,314,308,305,2
303,329,306,305,2
301,339,305,305,2
301,345,303,306,2
301,349,302,307,2
301,351,302,307,2
301,350,301,307,2
301,347,301,308,2
300,341,302,307,2
300,336,303,307,2
300,331,305,307,2
301,325,307,308,2
302,319,308,308,2
303,313,309,308,2
304,308,310,309,2
306,303,310,308,2
308,297,311,307,2
309,293,311,304,2
309,289,309,301,2
308,289,309,301,2
308,292,309,300,2
308,298,309,300,2
307,303,309,302,2
306,304,309,304,2
306,299,309,304,2
305,293,308,304,2
305,293,306,304,2
304,300,304,305,2
304,310,303,306,2
303,320,301,308,2
302,328,300,310,2
301,335,300,311,2
301,340,300,312,2
300,341,300,312,2
300,339,301,311,2
299,332,302,310,2
299,323,301,309,2
300,311,300,309,2
301,300,300,309,2
302,290,300,310,2
304,283,302,310,2
305,280,304,311,2
306,283,308,311,2
307,289,311,311,2
306,294,312,311,2
306,296,311,310,2
305,293,311,309,2
306,286,310,308,2
306,277,310,308,2
307,269,309,307,2
307,264,308,305,2
307,263,307,303,2
305,267,305,300,2
303,275,303,298,2
302,287,302,299,2
302,299,302,300,2
302,311,302,303,2
302,322,302,304,2
302,331,302,305,2
302,336,302,305,2
301,338,301,305,2
301,337,301,305,2
301,335,301,305,2
301,334,302,305,2
301,335,303,306,2
302,336,303,307,2
302,338,303,308,2
302,340,303,308,2
302,340,303,310,2
303,338,304,310,2
304,331,304,309,2
304,322,305,308,2
305,314,305,308,2
306,309,306,307,2
306,306,306,305,2
306,304,306,304,2
306,301,305,302,2
306,300,305,301,2
305,299,305,301,2
305,299,305,300,2
304,296,305,299,2
305,291,305,300,2
306,286,307,301,2
307,281,309,303,2
308,276,310,304,2
307,273,310,305,2
306,272,308,305,2
305,272,305,305,2
304,276,303,305,2
304,282,301,305,2
304,288,300,305,2
304,293,298,305,2
305,297,298,305,2
306,303,298,304,2
306,313,298,305,2
306,325,299,306,2
305,334,298,306,2
304,338,298,306,2
303,335,299,305,2
304,328,300,304,2
304,320,302,303,2
305,316,304,303,2
306,316,306,303,2
306,318,308,304,2
306,321,309,304,2
305,323,310,304,2
304,323,309,305,2
303,323,309,306,2
303,321,308,306,2
304,318,308,306,2
305,314,308,306,2
306,309,307,305,2
307,301,308,304,2
309,292,308,303,2
310,284,308,302,2
312,277,308,302,2
314,271,309,304,2
315,269,310,306,2
315,270,311,307,2
314,276,310,306,2
311,286,310,305,2
308,296,308,303,2
305,305,307,302,2
304,313,306,301,2
303,320,305,300,2
302,325,304,301,2
301,329,304,301,2
300,330,303,302,2
300,330,303,303,2
300,330,303,303,2
300,330,303,303,2
301,329,303,304,2
302,327,303,305,2
303,323,303,306,2
303,319,302,306,2
304,313,302,307,2
304,305,301,307,2
304,297,301,307,2
305,293,301,307,2
305,293,303,307,2
306,295,305,307,2
306,297,309,307,2
307,299,311,307,2
307,299,312,308,2
307,299,312,307,2
305,298,310,306,2
305,298,309,305,2
304,301,308,305,2
304,306,308,304,2
304,312,307,304,2
304,318,306,304,2
304,319,306,304,2
304,317,307,304,2
304,312,306,303,2
304,307,306,303,2
304,304,307,303,2
305,301,307,304,2
305,298,307,305,2
306,297,308,307,2
306,299,309,308,2
307,301,310,310,2
307,303,310,312,2
308,305,311,313,2
309,307,312,314,2
309,309,312,315,2
310,311,312,315,2
310,314,312,315,2
309,316,310,314,2
309,313,307,313,2
308,309,305,311,2
308,302,304,310,2
307,296,304,309,2
307,292,304,309,2
306,288,305,308,2
305,285,306,307,2
304,283,307,306,2
304,282,307,305,2
303,283,306,304,2
304,288,305,305,2
303,298,305,306,2
303,309,305,308,2
303,319,306,310,2
303,329,307,311,2
303,335,307,312,2
303,335,306,312,2
303,330,306,312,2
304,323,306,312,2
305,316,305,311,2
306,312,304,311,2
306,309,304,311,2
306,308,303,310,2
307,308,303,310,2
308,307,303,310,2
308,307,303,309,2
309,305,303,309,2
309,303,304,309,2
308,299,304,307,2
308,298,305,306,2
307,299,305,304,2
307,300,305,303,2
307,299,305,302,2
308,296,305,301,2
308,292,305,302,2
309,285,306,303,2
309,277,306,305,2
309,269,306,306,2
307,267,306,308,2
305,271,305,308,2
302,280,305,308,2
300,294,304,307,2
298,309,303,306,2
297,321,303,306,2
298,330,304,306,2
298,336,304,306,2
299,337,304,305,2
299,332,304,304,2
300,326,303,302,2
302,322,303,301,2
303,324,303,301,2
304,329,303,301,2
306,333,304,302,2
306,336,304,303,2
307,336,305,304,2
308,332,306,306,2
309,325,305,307,2
309,317,305,308,2
309,313,304,308,2
309,312,303,308,2
308,314,303,307,2
308,315,302,307,2
307,315,303,308,2
306,313,303,308,2
306,309,303,309,2
307,300,302,310,2
308,287,302,310,2
309,272,302,309,2
310,255,301,307,2
312,241,301,306,2
313,234,301,306,2
315,236,302,307,2
315,247,302,308,2
314,263,301,308,2
312,279,302,308,2
309,296,302,307,2
305,313,302,307,2
301,328,303,307,2
299,337,303,307,2
297,340,303,307,2
296,340,302,307,2
297,341,301,308,2
297,344,300,308,2
297,347,300,309,2
298,347,299,309,2
298,345,300,309,2
300,341,301,309,2
301,337,303,310,2
302,334,305,309,2
303,331,307,309,2
304,328,308,308,2
304,325,308,307,2
303,322,308,306,2
303,318,307,306,2
303,315,306,307,2
303,314,305,306,2
302,311,304,305,2
302,307,303,305,2
303,304,304,305,2
304,302,305,307,2
305,302,306,308,2
306,303,306,310,2
307,306,307,311,2
308,309,307,312,2
308,310,306,313,2
309,307,306,313,2
309,303,305,313,2
310,300,305,312,2
310,299,304,310,2
309,297,304,307,2
308,294,304,305,2
308,293,305,304,2
308,294,305,305,2
308,295,306,306,2
308,296,307,308,2
308,297,308,309,2
308,299,308,311,2
308,302,308,312,2
308,309,308,313,2
308,317,308,314,2
308,322,308,314,2
307,321,307,313,2
307,317,306,312,2
307,311,305,311,2
306,307,304,309,2
305,307,304,307,2
304,311,304,307,2
305,317,305,307,2
305,317,305,307,2
305,310,306,307,2
306,298,307,306,2
308,287,309,306,2
309,277,309,306,2
310,272,310,306,2
310,272,310,308,2
310,277,310,310,2
308,284,309,311,2
306,293,308,311,2
305,304,306,311,2
304,317,304,311,2
303,329,303,312,2
302,339,303,312,2
301,343,302,313,2
301,341,302,313,2
302,335,303,313,2
303,329,303,313,2
305,322,304,312,2
306,316,305,311,2
306,311,305,310,2
306,309,306,308,2
304,309,306,307,2
302,310,305,306,2
301,309,303,306,2
300,304,302,307,2
301,299,301,309,2
302,295,301,310,2
304,294,302,313,2
305,295,302,314,2
307,297,302,315,2
308,302,301,314,2
309,311,300,313,2
308,320,298,313,2
308,324,297,312,2
307,320,298,310,2
306,312,300,308,2
305,306,304,306,2
305,302,307,306,2
306,303,309,305,2
306,307,309,305,2
305,312,306,305,2
305,316,304,304,2
305,319,302,303,2
306,319,302,303,2
306,317,302,303,2
308,313,303,304,2
308,306,304,305,2
309,299,304,306,2
309,291,304,307,2
309,285,303,307,2
308,282,301,305,2
308,282,300,303,2
307,286,298,301,2
307,290,297,300,2
307,296,297,300,2
307,300,298,300,2
307,304,298,301,2
307,309,300,301,2
306,315,302,301,2
305,320,303,300,2
303,324,303,299,2
303,323,303,300,2
303,320,303,300,2
303,315,304,301,2
303,310,304,302,2
304,307,304,304,2
304,308,303,305,2
304,311,303,305,2
304,315,303,307,2
305,319,304,308,2
307,321,304,308,2
308,323,304,308,2
308,322,304,309,2
308,318,304,310,2
308,312,303,310,2
308,305,304,309,2
309,301,304,308,2
309,299,305,308,2
309,299,306,308,2
307,302,306,307,2
304,306,305,308,2
302,305,305,308,2
300,296,306,309,2
299,285,306,309,2
298,279,306,310,2
298,281,306,311,2
299,290,305,311,2
301,302,305,312,2
304,312,305,312,2
306,318,305,311,2
308,322,306,310,2
310,323,306,309,2
310,322,306,308,2
310,319,306,307,2
310,314,306,305,2
310,308,306,304,2
311,301,307,302,2
312,293,306,301,2
313,285,307,301,2
314,280,307,303,2
316,276,308,305,2
316,273,308,306,2
315,269,308,307,2
315,264,307,307,2
314,256,306,307,2
314,250,305,307,2
313,250,305,307,2
313,255,305,307,2
312,264,306,308,2
311,274,306,308,2
309,288,305,308,2
306,306,304,309,2
304,326,304,309,2
302,342,303,310,2
301,353,303,310,2
301,358,302,309,2
300,357,302,306,2
300,352,302,304,2
301,346,301,301,2
301,342,301,299,2
303,338,301,298,2
304,335,302,297,2
305,331,303,299,2
307,326,305,301,2
308,319,307,303,2
309,308,308,305,2
308,297,309,305,2
308,286,309,305,2
307,280,308,304,2
307,286,308,303,2
306,298,306,303,2
305,307,303,303,2
304,314,301,304,2
303,318,299,305,2
302,320,297,305,2
302,323,296,305,2
302,325,296,305,2
301,325,297,305,2
302,324,300,306,2
303,321,305,308,2
305,317,310,309,2
306,311,314,309,2
307,307,314,309,2
306,305,312,310,2
306,304,309,310,2
305,302,307,311,2
305,300,306,311,2
304,302,305,311,2
303,307,305,311,2
302,312,305,310,2
302,314,305,310,2
302,312,305,310,2
302,307,304,309,2
303,302,304,308,2
303,292,303,307,2
303,276,304,306,2
304,256,304,304,2
305,239,305,301,2
306,231,305,300,2
306,232,305,299,2
306,242,305,299,2
306,265,305,302,2
305,296,304,306,2
304,327,304,310,2
303,350,303,312,2
302,364,303,313,2
301,370,303,314,2
300,371,304,315,2
300,368,306,315,2
300,362,307,315,2
301,354,308,313,2
301,346,308,312,2
302,339,308,312,2
302,332,309,312,2
302,328,309,312,2
302,325,309,312,2
303,323,310,312,2
304,319,309,311,2
305,312,309,312,2
306,305,309,312,2
307,299,308,312,2
308,294,308,310,2
309,291,307,309,2
310,291,307,308,2
311,294,307,309,2
311,300,307,309,2
311,303,307,310,2
310,303,307,310,2
309,300,307,311,2
309,293,307,310,2
309,283,307,309,2
310,274,307,308,2
311,271,306,306,2
312,277,306,305,2
314,289,306,304,2
314,303,305,303,2
314,318,305,303,2
313,331,304,303,2
312,344,304,304,2
311,354,304,305,2
311,362,305,307,2
311,365,305,309,2
312,361,306,310,2
312,347,307,311,2
312,331,307,311,2
311,317,307,310,2
309,306,306,308,2
307,299,306,307,2
305,293,305,306,2
305,289,305,306,2
304,285,304,305,2
304,281,304,305,2
303,281,305,304,2
303,287,307,303,2
303,296,310,303,2
303,306,312,302,2
303,318,312,302,2
305,329,312,303,2
306,336,311,304,2
307,338,311,306,2
307,336,311,306,2
307,333,311,306,2
307,330,310,307,2
308,328,311,307,2
308,328,311,309,2
308,329,312,310,2
309,329,312,310,2
310,329,313,310,2
311,327,313,309,2
312,324,313,309,2
312,322,312,308,2
312,318,310,307,2
312,312,308,307,2
311,306,307,306,2
311,299,306,306,2
311,292,305,305,2
310,289,305,305,2
309,288,304,304,2
308,290,304,305,2
308,295,305,307,2
309,300,305,308,2
309,305,306,309,2
309,309,306,309,2
309,312,306,309,2
310,314,307,310,2
311,314,306,309,2
311,311,306,308,2
309,305,304,306,2
308,300,304,305,2
308,297,304,305,2
308,295,305,305,2
308,294,306,305,2
309,293,306,305,2
309,293,307,305,2
309,295,307,306,2
309,301,307,306,2
309,308,307,307,2
309,315,307,307,2
308,320,306,306,2
307,320,306,305,2
307,313,307,304,2
306,300,307,303,2
306,284,307,301,2
306,270,307,300,2
306,262,308,300,2
305,264,308,300,2
305,272,307,301,2
304,285,305,301,2
303,302,304,301,2
302,318,303,300,2
302,330,301,300,2
301,337,301,300,2
301,338,300,300,2
301,335,300,300,2
301,329,301,299,2
301,322,302,299,2
302,317,304,300,2
303,312,308,300,2
304,309,310,301,2
306,305,312,300,2
306,298,312,299,2
306,291,311,297,2
306,285,310,297,2
306,280,310,297,2
306,277,310,297,2
306,276,310,297,2
306,278,310,298,2
306,281,310,299,2
306,284,311,300,2
307,288,311,301,2
307,292,311,303,2
308,297,311,303,2
308,301,310,302,2
307,303,308,300,2
306,304,307,299,2
306,306,306,298,2
305,308,306,297,2
304,309,306,296,2
305,311,306,296,2
305,314,306,296,2
306,316,306,295,2
307,316,305,294,2
308,315,304,294,2
309,315,303,295,2
311,315,303,296,2
312,315,305,297,2
313,312,308,298,2
313,305,310,299,2
313,298,310,300,2
312,291,310,301,2
312,285,310,301,2
312,279,310,301,2
312,275,311,301,2
312,275,312,301,2
312,281,313,301,2
312,291,314,302,2
311,302,314,302,2
311,311,314,302,2
310,317,313,302,2
308,322,311,303,2
307,328,309,304,2
306,335,307,304,2
305,340,306,304,2
304,343,306,303,2
304,342,305,303,2
303,338,305,303,2
303,331,306,302,2
304,320,307,302,2
305,308,308,301,2
306,300,309,300,2
306,299,309,298,2
305,303,308,296,2
304,309,308,296,2
304,312,307,295,2
303,309,307,295,2
303,300,306,294,2
303,289,305,293,2
303,279,305,293,2
304,273,305,294,2
305,272,305,294,2
305,278,305,294,2
305,288,304,295,2
305,298,304,295,2
305,305,305,296,2
305,306,307,297,2
306,299,309,298,2
307,287,311,298,2
308,275,313,298,2
308,267,314,298,2
308,266,315,299,2
308,276,314,300,2
307,293,312,301,2
304,317,310,302,2
302,342,308,302,2
299,361,306,301,2
297,373,305,301,2
297,379,305,301,2
298,378,305,301,2
299,373,306,301,2
300,364,306,301,2
300,352,305,301,2
300,340,304,301,2
300,330,304,302,2
301,322,304,303,2
301,315,304,304,2
301,307,304,304,2
302,299,303,304,2
301,295,302,304,2
301,294,301,304,2
301,293,300,303,2
301,293,299,302,2
301,292,299,301,2
302,291,300,300,2
303,288,303,300,2
303,286,306,301,2
303,284,308,302,2
303,285,309,303,2
302,287,309,303,2
301,291,309,303,2
302,294,309,304,2
303,296,310,304,2
304,298,311,304,2
306,299,311,303,2
308,301,311,302,2
310,306,310,302,2
311,314,310,301,2
311,321,309,300,2
310,325,308,300,2
309,325,307,300,2
308,323,306,302,2
308,319,307,303,2
307,311,307,305,2
307,304,308,308,2
307,297,309,310,2
307,291,309,311,2
308,285,309,312,2
308,278,309,311,2
308,270,307,310,2
308,266,306,308,2
309,265,304,306,2
309,270,303,304,2
310,280,302,304,2
309,288,302,304,2
309,293,302,304,2
309,295,303,306,2
309,296,304,306,2
309,296,306,308,2
310,297,310,308,2
311,301,312,307,2
311,307,314,307,2
312,313,314,307,2
311,316,314,306,2
311,315,312,306,2
311,312,310,306,2
310,310,309,306,2
309,310,308,305,2
307,314,307,304,2
305,324,307,304,2
302,337,306,305,2
299,347,306,305,2
297,350,305,307,2
297,345,306,307,2
297,336,306,307,2
298,327,306,308,2
301,319,306,307,2
304,314,307,307,2
306,311,307,307,2
307,312,308,307,2
307,314,308,308,2
308,317,309,309,2
307,318,309,309,2
307,318,309,310,2
308,316,309,310,2
308,313,309,310,2
308,310,308,309,2
307,306,308,308,2
307,302,307,307,2
307,296,307,307,2
307,290,308,307,2
307,286,309,307,2
307,282,309,306,2
307,277,309,305,2
307,275,309,304,2
307,278,309,304,2
307,284,309,304,2
308,290,309,305,2
308,296,309,306,2
308,296,309,306,2
308,294,308,306,2
307,294,307,305,2
306,296,307,303,2
305,301,306,301,2
303,305,305,300,2
303,308,304,298,2
303,308,304,298,2
304,307,305,298,2
306,306,306,298,2
307,307,307,299,2
309,308,308,301,2
310,309,309,303,2
310,313,310,305,2
310,318,311,307,2
310,323,313,308,2
308,327,313,308,2
307,330,312,307,2
306,330,309,308,2
306,329,308,308,2
306,329,307,308,2
305,330,307,308,2
305,332,307,309,2
304,334,307,310,2
