313,339,317,311,2
314,321,319,307,2
315,307,321,304,2
316,298,324,303,2
317,292,326,302,2
317,288,327,302,2
314,284,325,302,2
310,279,321,303,2
307,276,316,304,2
304,279,311,305,2
303,286,308,306,2
301,293,305,307,2
300,299,303,307,2
300,303,302,308,2
301,305,304,309,2
303,306,306,310,2
304,304,309,311,2
305,299,311,310,2
307,292,313,309,2
309,285,316,307,2
312,281,320,305,2
314,279,323,304,2
315,279,323,304,2
314,280,320,304,2
313,283,317,306,2
312,288,313,308,2
311,292,311,310,2
311,293,310,311,2
312,293,309,311,2
311,293,308,312,2
310,294,307,313,2
309,296,307,313,2
308,300,307,313,2
307,304,307,313,2
306,305,307,312,2
307,306,308,311,2
308,306,308,310,2
308,306,308,309,2
308,307,307,308,2
308,310,306,308,2
308,313,306,307,2
308,317,308,307,2
310,322,310,306,2
310,326,312,306,2
311,328,313,306,2
311,329,313,307,2
310,327,312,307,2
309,322,310,307,2
308,316,307,308,2
307,310,304,308,2
306,306,301,310,2
307,303,298,311,2
307,298,296,311,2
307,292,295,311,2
308,286,298,311,2
307,278,303,311,2
308,271,307,311,2
308,269,311,311,2
308,273,312,311,2
307,284,313,312,2
307,300,313,312,2
307,319,313,312,2
307,337,311,311,2
308,353,309,310,2
309,363,306,310,2
309,369,303,309,2
310,371,301,310,2
310,366,300,311,2
309,354,300,311,2
310,338,302,312,2
311,319,305,311,2
310,297,307,309,2
309,276,309,307,2
308,260,310,306,2
309,250,310,305,2
308,250,309,305,2
308,258,307,305,2
307,269,306,305,2
307,278,304,305,2
308,283,304,306,2
310,288,304,307,2
312,291,304,308,2
311,295,303,308,2
309,298,302,309,2
307,297,301,310,2
305,290,303,310,2
305,276,307,309,2
306,260,311,308,2
308,245,314,309,2
310,234,314,310,2
312,231,315,311,2
313,239,314,312,2
313,255,314,313,2
311,274,311,311,2
307,291,307,309,2
304,302,303,306,2
302,308,301,305,2
301,309,299,303,2
301,307,299,301,2
302,307,301,301,2
304,311,305,301,2
306,316,309,303,2
308,323,313,307,2
309,331,316,310,2
309,339,317,312,2
308,343,316,312,2
307,344,313,313,2
306,343,310,313,2
305,340,308,311,2
304,336,306,310,2
304,332,305,309,2
303,327,304,308,2
303,319,304,308,2
304,313,305,309,2
306,310,307,310,2
308,312,309,311,2
310,313,312,312,2
311,313,313,310,2
311,310,314,309,2
311,307,312,308,2
310,302,310,309,2
310,298,308,309,2
309,296,307,309,2
310,296,307,310,2
311,299,309,310,2
313,304,311,310,2
314,308,313,310,2
315,309,314,309,2
315,308,314,309,2
314,304,313,309,2
314,299,309,308,2
312,296,306,308,2
310,295,301,308,2
309,293,298,309,2
308,290,298,309,2
307,289,300,309,2
307,288,304,309,2
307,288,308,309,2
308,289,311,309,2
308,293,311,310,2
309,299,308,310,2
308,307,305,310,2
307,316,303,310,2
305,323,301,309,2
304,326,300,309,2
304,325,300,309,2
304,319,301,309,2
304,311,303,309,2
306,301,305,310,2
307,294,307,311,2
308,291,307,311,2
308,292,306,312,2
309,297,306,313,2
310,304,306,313,2
312,313,305,313,2
313,324,305,313,2
314,338,307,312,2
315,352,308,312,2
316,366,310,312,2
316,378,310,311,2
314,381,306,310,2
311,371,301,308,2
309,356,297,307,2
307,341,294,306,2
306,330,294,306,2
306,322,294,306,2
305,314,296,307,2
304,305,299,308,2
304,296,302,310,2
304,286,303,312,2
305,277,304,314,2
305,268,305,316,2
306,261,307,315,2
308,256,310,313,2
308,253,312,310,2
308,254,313,309,2
307,262,312,309,2
308,272,309,311,2
308,282,307,311,2
308,290,303,310,2
307,298,301,308,2
307,308,299,306,2
307,317,300,306,2
308,324,303,307,2
309,327,306,308,2
309,327,307,308,2
309,326,307,309,2
309,323,306,309,2
309,320,305,309,2
308,314,305,309,2
308,305,304,308,2
310,293,305,308,2
312,279,305,307,2
313,267,306,305,2
315,259,305,304,2
315,256,305,303,2
314,260,304,302,2
312,273,303,302,2
310,289,302,303,2
308,305,303,304,2
305,321,304,304,2
303,334,305,305,2
301,341,308,306,2
301,342,310,306,2
300,335,311,306,2
300,322,310,306,2
301,305,309,306,2
302,288,308,307,2
304,273,307,306,2
304,266,305,305,2
303,270,304,304,2
302,282,302,304,2
302,296,301,303,2
302,310,300,303,2
302,321,299,302,2
303,329,299,302,2
305,332,300,303,2
306,333,302,304,2
308,331,302,304,2
308,326,302,305,2
309,320,300,305,2
310,314,297,306,2
310,307,294,306,2
309,297,293,306,2
309,285,293,304,2
309,274,295,303,2
309,268,300,302,2
309,268,306,302,2
309,275,310,302,2
309,287,312,302,2
310,298,314,301,2
312,306,317,299,2
314,311,318,296,2
315,312,318,295,2
314,314,317,295,2
313,316,313,297,2
311,318,309,299,2
308,321,304,301,2
305,322,300,303,2
303,322,298,304,2
302,320,298,306,2
302,318,298,307,2
303,315,300,307,2
303,310,302,306,2
304,302,303,306,2
304,296,304,306,2
305,291,306,307,2
306,287,309,307,2
307,286,311,309,2
308,289,311,310,2
307,299,310,311,2
304,313,307,312,2
302,325,305,312,2
301,332,304,311,2
299,336,302,310,2
298,337,301,310,2
298,334,301,309,2
299,328,302,308,2
299,320,303,307,2
300,312,305,306,2
301,307,306,307,2
301,303,306,308,2
301,302,304,310,2
301,304,301,311,2
300,307,299,312,2
300,310,299,311,2
300,314,299,310,2
301,318,301,309,2
301,322,302,309,2
302,322,302,309,2
302,322,301,309,2
302,321,300,310,2
303,319,300,311,2
304,317,301,312,2
305,317,303,312,2
305,320,304,311,2
304,323,303,310,2
302,325,302,309,2
301,325,300,309,2
301,326,299,310,2
301,327,300,310,2
301,324,303,310,2
301,318,305,310,2
301,311,307,310,2
301,305,309,311,2
301,299,311,312,2
302,294,313,314,2
302,288,313,315,2
303,282,314,315,2
303,276,314,315,2
304,271,314,313,2
305,270,314,312,2
304,275,313,310,2
303,282,311,309,2
302,288,309,307,2
301,292,307,307,2
300,295,306,306,2
301,299,304,305,2
302,304,304,304,2
302,306,303,304,2
302,304,302,303,2
304,299,301,302,2
305,291,300,300,2
306,285,299,299,2
307,280,302,299,2
308,278,305,298,2
308,281,310,298,2
309,289,314,298,2
308,301,317,298,2
306,312,318,299,2
305,316,318,300,2
305,318,319,301,2
305,319,319,302,2
304,319,316,304,2
303,320,314,306,2
302,322,312,308,2
302,327,310,310,2
302,331,308,311,2
301,334,306,312,2
301,334,306,313,2
302,333,305,313,2
303,329,304,312,2
304,324,304,311,2
306,318,303,310,2
307,312,302,308,2
308,304,301,307,2
309,297,300,306,2
309,291,301,306,2
310,284,302,306,2
310,281,305,305,2
311,285,308,306,2
312,293,311,307,2
312,301,313,308,2
312,310,315,310,2
311,319,316,310,2
308,325,314,310,2
305,331,310,310,2
304,334,305,310,2
303,333,303,310,2
304,329,302,310,2
304,322,301,309,2
303,317,300,307,2
303,314,299,306,2
302,312,300,305,2
302,308,301,305,2
302,300,301,305,2
302,289,302,305,2
303,276,303,305,2
304,263,305,305,2
306,255,307,306,2
307,255,310,307,2
308,261,312,307,2
309,273,313,306,2
309,289,312,304,2
309,304,309,303,2
309,316,307,303,2
308,324,306,303,2
308,327,307,303,2
308,328,307,303,2
307,326,306,304,2
305,326,305,303,2
304,325,303,304,2
302,325,302,303,2
300,325,301,303,2
299,324,300,303,2
299,322,300,303,2
300,318,301,304,2
300,312,302,304,2
301,305,302,305,2
301,301,303,305,2
303,296,303,306,2
304,292,304,306,2
306,289,305,307,2
308,289,304,307,2
309,289,303,308,2
309,288,301,307,2
308,288,300,307,2
307,287,299,307,2
307,287,300,308,2
306,289,302,308,2
306,294,303,308,2
305,300,306,309,2
306,305,309,309,2
306,308,311,309,2
307,310,312,309,2
308,311,313,309,2
309,310,312,307,2
310,306,312,307,2
311,303,312,306,2
311,300,312,305,2
312,298,312,305,2
312,296,312,305,2
312,295,312,304,2
311,293,309,302,2
309,290,306,300,2
308,288,303,299,2
306,285,302,299,2
306,286,300,300,2
304,291,298,300,2
303,300,296,302,2
302,309,296,303,2
302,317,297,303,2
303,323,299,303,2
303,326,303,302,2
304,327,305,302,2
304,326,306,303,2
305,322,308,304,2
305,320,309,305,2
305,320,310,305,2
305,320,311,306,2
305,320,312,307,2
305,318,312,308,2
305,314,313,310,2
306,307,313,311,2
308,296,313,312,2
309,282,313,311,2
309,269,313,309,2
309,261,312,307,2
309,260,311,305,2
308,264,310,304,2
307,272,309,303,2
306,284,308,303,2
305,295,307,303,2
305,303,308,303,2
305,310,309,304,2
305,315,309,304,2
305,320,308,303,2
305,326,306,303,2
304,332,305,303,2
304,336,304,302,2
303,335,304,302,2
304,331,304,301,2
305,324,306,301,2
306,317,307,301,2
306,309,307,302,2
307,301,308,304,2
308,293,307,305,2
308,286,308,305,2
308,279,309,304,2
309,272,310,302,2
310,269,313,301,2
311,273,317,301,2
312,283,319,301,2
310,300,318,301,2
307,319,314,302,2
304,337,310,303,2
302,349,307,304,2
302,354,307,304,2
301,354,306,305,2
301,352,305,306,2
302,350,304,307,2
302,348,302,307,2
301,345,301,307,2
301,340,301,307,2
301,331,302,306,2
302,319,305,306,2
304,305,307,306,2
305,292,310,305,2
306,279,311,305,2
308,269,311,304,2
308,264,312,303,2
309,266,313,303,2
310,272,314,303,2
309,277,315,302,2
308,282,316,301,2
306,288,315,300,2
304,294,313,301,2
302,299,311,303,2
301,303,308,305,2
301,308,306,307,2
301,313,304,310,2
301,316,303,311,2
301,318,303,310,2
302,317,304,308,2
303,317,305,306,2
304,317,305,304,2
304,317,305,303,2
304,318,305,302,2
303,317,305,302,2
303,316,304,301,2
304,311,304,302,2
304,305,304,302,2
305,298,305,302,2
307,291,306,304,2
308,287,307,308,2
309,286,307,311,2
310,287,307,314,2
310,291,306,315,2
309,294,306,314,2
308,299,308,311,2
308,306,309,309,2
308,316,310,308,2
309,327,311,307,2
309,336,312,305,2
309,342,312,303,2
309,345,313,301,2
308,342,314,300,2
309,337,316,299,2
309,329,316,299,2
309,321,315,298,2
309,313,313,298,2
309,307,311,300,2
309,303,309,302,2
308,301,307,304,2
307,301,307,306,2
306,304,307,307,2
305,305,309,307,2
305,306,311,308,2
305,305,313,309,2
306,305,315,310,2
307,304,317,310,2
308,304,319,309,2
309,304,320,309,2
309,307,320,308,2
308,310,318,308,2
307,310,316,308,2
307,308,314,307,2
306,302,312,306,2
305,293,311,304,2
304,282,311,304,2
304,272,313,305,2
305,266,314,305,2
306,263,314,306,2
305,266,313,305,2
302,272,310,305,2
300,280,306,305,2
298,287,302,305,2
298,294,301,307,2
298,300,301,308,2
299,305,303,310,2
299,310,304,311,2
299,316,307,312,2
298,321,309,313,2
297,324,310,312,2
296,322,309,311,2
296,318,307,309,2
297,313,306,308,2
297,308,307,306,2
298,302,307,306,2
298,294,306,305,2
298,285,306,304,2
297,277,305,304,2
297,272,304,304,2
297,267,304,305,2
297,265,304,307,2
299,266,304,309,2
300,271,304,311,2
300,278,303,311,2
300,284,302,308,2
299,286,302,306,2
299,284,302,303,2
298,282,302,300,2
298,282,302,299,2
299,286,303,299,2
300,293,303,301,2
300,302,304,303,2
300,311,304,305,2
300,320,304,307,2
301,326,304,309,2
301,331,304,310,2
302,334,305,311,2
302,337,305,312,2
301,339,305,313,2
302,343,306,313,2
303,345,307,314,2
306,341,308,314,2
307,331,309,312,2
309,314,310,309,2
311,294,312,304,2
313,276,314,302,2
314,267,315,300,2
312,267,316,300,2
310,275,312,302,2
307,287,307,305,2
305,298,302,307,2
304,305,299,309,2
305,309,298,311,2
306,308,299,313,2
308,303,302,313,2
310,295,305,311,2
311,287,310,308,2
311,278,313,306,2
311,270,316,305,2
309,263,316,306,2
307,258,314,308,2
305,255,312,310,2
306,255,311,312,2
306,255,311,312,2
307,257,312,312,2
307,259,313,311,2
306,265,312,309,2
304,273,311,307,2
302,284,308,306,2
300,297,306,304,2
299,308,304,303,2
299,314,302,301,2
299,311,302,301,2
300,302,302,300,2
301,291,304,300,2
302,280,305,300,2
303,272,305,300,2
305,269,306,301,2
305,276,305,301,2
305,290,304,301,2
305,306,303,302,2
306,319,302,304,2
307,326,302,305,2
307,331,301,306,2
306,335,301,306,2
306,339,301,306,2
305,343,301,307,2
304,347,301,309,2
302,348,301,310,2
300,345,300,311,2
298,337,300,311,2
298,326,300,310,2
298,314,301,308,2
299,304,303,307,2
300,294,306,306,2
301,286,308,306,2
301,280,308,304,2
301,276,307,303,2
301,276,305,304,2
302,278,303,305,2
303,284,303,308,2
304,293,303,311,2
304,305,303,312,2
304,316,303,312,2
303,324,304,311,2
303,328,304,309,2
303,329,304,308,2
303,328,305,307,2
304,327,305,306,2
306,326,307,306,2
308,325,307,305,2
310,323,306,304,2
308,320,305,302,2
306,317,303,301,2
305,315,302,302,2
305,317,303,304,2
306,322,304,306,2
307,327,307,307,2
309,327,309,307,2
309,323,309,306,2
309,314,308,304,2
309,302,308,302,2
310,293,307,301,2
310,289,307,301,2
309,292,308,301,2
308,299,308,302,2
307,304,309,303,2
307,305,310,305,2
306,302,312,306,2
306,297,313,307,2
307,294,313,308,2
307,292,312,308,2
307,292,308,308,2
307,292,304,307,2
307,294,301,306,2
307,296,300,305,2
307,295,301,305,2
308,288,303,305,2
309,277,307,306,2
311,267,310,306,2
312,259,313,307,2
313,256,314,307,2
312,260,313,306,2
310,268,312,307,2
308,278,310,307,2
306,290,309,309,2
305,303,309,311,2
305,316,310,312,2
305,324,310,314,2
305,328,309,315,2
306,328,309,314,2
306,325,309,313,2
306,323,309,312,2
306,322,309,311,2
306,321,309,309,2
305,320,309,308,2
304,321,309,307,2
304,319,309,306,2
304,315,309,305,2
304,307,309,305,2
305,295,309,305,2
307,280,310,305,2
308,268,311,305,2
309,261,311,305,2
310,263,311,306,2
309,275,311,308,2
308,295,310,310,2
306,315,310,311,2
305,332,309,310,2
303,345,308,308,2
303,354,307,307,2
304,360,308,306,2
306,361,307,305,2
307,358,306,305,2
307,350,304,304,2
306,340,301,303,2
306,331,300,304,2
306,325,300,305,2
306,318,299,305,2
305,314,299,305,2
305,311,300,304,2
305,310,303,303,2
305,313,306,302,2
307,319,311,303,2
310,325,315,304,2
312,328,318,306,2
312,329,320,307,2
311,327,320,308,2
309,323,317,308,2
307,316,312,309,2
306,312,307,310,2
306,312,302,311,2
305,315,300,312,2
306,318,301,312,2
306,316,303,311,2
306,306,306,308,2
306,294,309,305,2
306,283,310,304,2
306,275,312,304,2
306,273,313,305,2
306,274,313,306,2
306,279,312,306,2
306,284,311,306,2
306,288,309,306,2
307,291,307,306,2
307,291,306,307,2
307,291,305,307,2
308,291,305,307,2
308,292,305,306,2
308,292,305,305,2
308,291,305,304,2
307,291,305,303,2
307,291,305,302,2
306,292,304,302,2
306,293,304,302,2
306,293,304,302,2
305,294,304,302,2
305,297,304,303,2
304,300,303,305,2
304,302,303,307,2
303,305,303,308,2
303,310,303,309,2
302,316,303,309,2
302,322,303,308,2
303,326,304,308,2
304,327,304,308,2
304,325,305,309,2
305,322,306,308,2
305,318,307,308,2
305,313,308,308,2
306,309,308,308,2
307,307,311,308,2
308,307,313,309,2
308,312,314,309,2
307,317,314,310,2
306,321,312,309,2
304,323,308,309,2
304,325,303,309,2
306,325,299,310,2
307,322,297,309,2
307,316,295,308,2
308,312,296,307,2
308,312,296,307,2
308,311,297,307,2
308,305,299,307,2
308,295,301,306,2
307,285,303,306,2
308,277,303,306,2
308,271,304,308,2
309,270,304,308,2
309,276,303,308,2
307,292,302,307,2
306,314,301,307,2
305,333,301,307,2
305,344,301,308,2
305,346,302,309,2
306,342,303,309,2
307,334,304,311,2
308,323,304,311,2
308,312,304,311,2
306,302,303,309,2
304,296,302,308,2
302,298,301,307,2
301,306,301,307,2
300,315,301,308,2
299,316,301,309,2
300,306,300,309,2
301,289,300,308,2
302,271,299,307,2
303,258,299,306,2
304,255,299,307,2
304,261,300,309,2
304,274,301,311,2
303,285,302,312,2
303,289,302,313,2
303,286,303,312,2
305,276,305,311,2
309,263,307,310,2
313,250,310,309,2
315,243,311,309,2
314,247,311,310,2
310,258,309,311,2
307,274,307,310,2
306,291,305,309,2
304,310,303,308,2
303,329,300,308,2
302,344,298,309,2
302,352,298,310,2
302,356,298,310,2
302,361,297,309,2
303,368,296,310,2
304,376,296,310,2
304,382,295,310,2
304,384,296,311,2
304,380,297,311,2
304,369,298,312,2
304,351,300,310,2
304,329,301,309,2
304,311,303,307,2
305,299,304,305,2
305,292,305,304,2
306,291,305,303,2
305,292,304,302,2
306,294,303,302,2
305,296,303,302,2
305,296,302,303,2
304,292,302,304,2
304,282,303,305,2
304,267,304,305,2
306,248,304,305,2
308,232,305,304,2
309,220,306,303,2
310,217,306,304,2
311,224,305,306,2
311,246,303,307,2
309,277,300,309,2
305,307,297,309,2
302,330,295,309,2
300,342,295,308,2
299,348,297,308,2
298,349,299,308,2
298,348,302,309,2
298,345,305,310,2
299,340,308,312,2
301,336,311,314,2
303,334,313,315,2
304,334,315,317,2
305,334,315,317,2
305,334,314,316,2
304,331,311,315,2
304,327,308,313,2
304,320,306,313,2
304,313,306,313,2
305,302,306,313,2
305,288,307,312,2
307,271,307,312,2
308,251,308,311,2
310,231,308,311,2
311,214,308,311,2
313,208,308,312,2
314,214,308,314,2
313,231,308,315,2
312,254,308,316,2
310,275,307,316,2
308,292,307,316,2
306,306,306,315,2
304,318,305,315,2
301,330,303,314,2
299,340,301,314,2
297,351,300,314,2
298,360,301,315,2
300,363,302,316,2
302,362,303,315,2
304,358,304,314,2
305,353,304,312,2
304,347,304,309,2
303,341,306,307,2
303,338,308,306,2
303,337,311,306,2
303,338,312,307,2
303,336,311,308,2
303,329,309,309,2
304,318,306,309,2
305,303,304,310,2
307,290,303,310,2
309,282,303,311,2
310,279,303,312,2
310,282,303,312,2
309,291,301,311,2
307,304,301,310,2
305,315,302,309,2
305,319,305,308,2
305,312,309,307,2
307,298,313,306,2
308,282,314,305,2
307,269,313,304,2
307,265,311,305,2
307,269,310,307,2
307,280,308,310,2
307,293,307,313,2
307,304,308,316,2
307,311,308,317,2
306,315,308,315,2
305,315,308,313,2
304,314,307,310,2
304,314,306,308,2
303,314,305,307,2
303,314,304,307,2
303,315,304,307,2
304,317,305,308,2
305,322,305,310,2
306,327,307,311,2
307,330,309,311,2
309,329,311,312,2
310,327,313,313,2
311,324,313,315,2
312,322,314,318,2
312,319,313,320,2
311,317,312,320,2
308,318,310,316,2
306,318,308,312,2
304,317,307,309,2
304,314,307,306,2
304,312,307,305,2
304,308,307,305,2
305,306,306,305,2
305,305,305,305,2
304,307,305,304,2
304,311,304,303,2
303,317,303,303,2
302,324,302,304,2
301,331,301,305,2
300,337,301,305,2
300,339,302,305,2
300,337,304,306,2
302,331,309,307,2
303,323,312,309,2
304,314,316,310,2
305,309,318,312,2
306,306,320,313,2
307,304,320,313,2
306,304,317,311,2
305,306,312,309,2
304,309,307,308,2
303,312,303,307,2
302,313,300,307,2
301,311,298,306,2
301,307,298,307,2
301,304,299,308,2
301,301,301,309,2
302,299,304,310,2
302,299,306,311,2
303,299,307,312,2
303,299,306,312,2
303,297,306,311,2
303,292,306,311,2
305,287,306,311,2
306,287,307,310,2
307,291,307,310,2
306,300,308,310,2
305,312,308,310,2
303,321,308,311,2
302,327,307,311,2
301,331,308,312,2
302,334,308,311,2
304,335,307,311,2
305,332,306,311,2
307,328,305,310,2
308,324,304,310,2
309,324,304,310,2
310,326,305,310,2
311,328,306,309,2
311,332,306,310,2
311,334,305,310,2
310,332,305,310,2
309,325,304,311,2
308,314,304,311,2
308,304,304,313,2
309,298,304,312,2
309,297,304,311,2
309,300,302,309,2
310,306,301,309,2
310,310,298,309,2
310,311,297,310,2
309,310,296,310,2
307,311,295,311,2
306,313,294,311,2
304,315,294,310,2
303,316,293,309,2
302,315,295,308,2
303,308,298,307,2
304,297,303,306,2
306,282,307,306,2
308,267,310,306,2
311,254,311,307,2
313,246,311,307,2
314,244,311,307,2
313,250,309,305,2
311,260,307,304,2
309,271,306,302,2
308,280,304,302,2
307,290,303,302,2
306,300,302,301,2
306,313,302,302,2
305,327,302,302,2
304,339,301,303,2
302,351,300,305,2
301,359,300,307,2
302,362,300,310,2
302,361,302,312,2
303,355,303,312,2
304,346,305,311,2
305,335,306,309,2
306,325,307,307,2
307,313,307,306,2
307,302,306,305,2
307,293,305,305,2
308,287,304,306,2
308,284,304,306,2
308,283,305,306,2
309,287,306,306,2
309,295,306,306,2
309,305,306,307,2
308,315,305,307,2
308,322,305,308,2
308,325,305,308,2
308,325,304,309,2
308,323,302,310,2
308,318,300,312,2
308,315,298,312,2
307,314,297,312,2
308,314,296,312,2
309,313,296,311,2
310,315,297,310,2
310,317,299,308,2
309,316,301,307,2
307,315,304,307,2
307,313,306,307,2
307,311,308,306,2
307,308,308,305,2
307,305,308,305,2
307,303,307,305,2
307,301,304,305,2
306,301,301,305,2
304,302,298,305,2
301,304,297,306,2
299,306,298,306,2
298,309,300,307,2
298,310,302,307,2
298,310,304,308,2
298,307,305,308,2
298,301,306,309,2
298,292,307,310,2
299,280,308,310,2
299,268,309,310,2
301,259,309,310,2
303,254,310,309,2
305,256,310,307,2
307,267,310,306,2
309,282,312,306,2
308,297,312,306,2
307,310,311,306,2
306,320,309,307,2
304,325,307,307,2
301,327,305,308,2
299,328,303,308,2
300,330,302,308,2
302,334,302,310,2
305,338,302,312,2
307,340,303,313,2
307,339,304,315,2
308,336,306,317,2
310,332,307,317,2
311,325,308,316,2
312,318,309,315,2
312,311,309,314,2
311,308,309,313,2
311,306,308,313,2
311,307,308,312,2
310,309,308,310,2
310,313,307,309,2
310,315,306,309,2
310,315,304,310,2
309,312,300,310,2
307,305,298,310,2
306,298,298,310,2
305,290,298,310,2
306,287,299,309,2
305,288,299,309,2
305,294,300,308,2
305,301,300,307,2
304,307,300,308,2
305,309,299,309,2
305,307,299,312,2
306,304,300,313,2
308,299,301,312,2
309,295,302,311,2
311,294,303,310,2
313,297,304,308,2
314,306,305,307,2
314,315,307,305,2
313,323,307,305,2
312,329,307,306,2
310,333,306,308,2
308,336,303,311,2
306,338,300,312,2
305,339,297,312,2
304,339,295,311,2
302,338,293,310,2
301,335,292,309,2
300,329,293,309,2
300,320,296,309,2
300,308,299,310,2
301,293,303,310,2
302,278,305,310,2
303,266,307,310,2
303,260,309,310,2
303,260,309,311,2
304,266,309,312,2
305,274,309,313,2
307,284,309,313,2
308,294,308,313,2
309,306,308,313,2
309,321,307,313,2
307,333,306,312,2
305,340,305,311,2
303,342,304,310,2
302,338,303,310,2
301,332,302,310,2
301,326,302,311,2
301,323,302,310,2
301,324,302,309,2
302,326,302,309,2
303,326,304,309,2
305,318,307,308,2
307,306,311,306,2
308,292,313,304,2
308,275,314,301,2
307,260,314,300,2
306,250,313,301,2
305,249,311,304,2
305,254,311,307,2
305,264,309,308,2
303,283,307,309,2
301,307,306,309,2
298,329,304,310,2
296,344,303,310,2
295,351,302,310,2
294,353,301,309,2
295,350,302,309,2
297,345,303,309,2
300,339,304,310,2
304,337,305,310,2
307,339,305,311,2
310,341,305,311,2
311,341,302,310,2
311,337,300,307,2
311,329,297,306,2
310,319,296,305,2
309,307,296,305,2
309,296,297,305,2
309,291,298,304,2
308,290,297,304,2
308,292,296,303,2
308,293,296,303,2
308,294,298,302,2
308,292,301,303,2
308,289,305,304,2
310,287,309,305,2
311,287,312,306,2
311,287,314,306,2
311,288,316,306,2
310,292,318,307,2
308,298,319,308,2
306,305,319,308,2
304,314,317,309,2
302,323,314,309,2
301,329,311,309,2
301,327,308,307,2
302,315,307,305,2
303,296,306,303,2
305,274,306,302,2
308,254,306,301,2
310,241,308,301,2
310,240,309,301,2
309,251,309,302,2
307,274,310,303,2
305,302,309,304,2
303,326,308,304,2
301,343,306,303,2
300,353,304,301,2
299,356,303,300,2
299,355,302,300,2
301,352,302,300,2
303,348,303,300,2
305,344,303,300,2
307,341,304,301,2
308,338,305,302,2
309,334,306,302,2
309,330,308,303,2
309,325,310,304,2
309,320,313,306,2
310,315,315,306,2
311,312,317,307,2
311,310,318,307,2
311,308,317,306,2
310,304,316,304,2
310,300,313,303,2
309,294,311,302,2
308,288,309,301,2
306,284,307,300,2
305,286,306,301,2
304,294,305,303,2
303,305,304,305,2
301,318,303,307,2
300,331,302,308,2
299,339,301,308,2
299,341,300,307,2
300,337,300,307,2
300,329,300,306,2
302,320,300,305,2
304,312,300,304,2
306,308,301,303,2
308,308,302,303,2
308,309,301,302,2
307,309,302,303,2
307,306,303,303,2
306,297,304,302,2
306,285,306,302,2
308,271,307,301,2
309,259,307,301,2
310,251,307,300,2
311,250,306,300,2
310,257,304,299,2
309,270,303,300,2
308,285,302,301,2
308,297,303,302,2
309,302,303,303,2
309,304,304,305,2
310,303,305,307,2
311,301,306,308,2
311,298,306,309,2
310,295,306,308,2
308,292,304,306,2
305,291,302,303,2
303,294,300,301,2
301,301,299,298,2
300,310,301,297,2
301,321,303,297,2
301,331,305,297,2
302,338,306,298,2
303,341,306,300,2
304,341,307,303,2
306,339,307,306,2
307,336,307,308,2
308,330,307,309,2
308,323,306,310,2
308,317,306,309,2
307,312,305,308,2
306,309,304,307,2
305,306,304,306,2
304,307,303,306,2
303,311,303,305,2
302,315,302,306,2
302,317,302,307,2
301,316,302,308,2
300,314,303,309,2
299,313,303,308,2
300,312,303,306,2
300,311,303,303,2
300,310,302,300,2
300,310,302,298,2
301,310,301,298,2
300,308,300,299,2
300,303,300,300,2
300,295,300,301,2
300,285,300,302,2
300,276,300,301,2
301,269,301,301,2
303,265,302,301,2
305,264,304,302,2
308,266,305,303,2
310,272,305,305,2
311,281,304,306,2
311,291,303,307,2
310,301,302,308,2
309,311,302,307,2
307,319,301,306,2
305,327,301,305,2
303,335,301,305,2
301,341,300,304,2
299,345,299,304,2
298,346,298,303,2
298,341,299,303,2
299,331,300,303,2
301,318,303,304,2
303,303,306,304,2
305,288,308,304,2
308,280,309,305,2
309,281,310,305,2
309,286,311,306,2
308,296,311,307,2
306,308,310,309,2
305,320,309,310,2
304,327,308,310,2
303,329,306,309,2
303,328,306,308,2
303,325,306,306,2
304,322,306,307,2
305,318,305,307,2
305,314,303,307,2
305,308,302,307,2
306,301,301,307,2
306,295,299,306,2
307,289,299,305,2
308,288,298,305,2
308,290,299,305,2
308,293,300,305,2
308,294,300,306,2
308,294,301,307,2
307,296,301,307,2
306,300,301,307,2
305,305,300,306,2
303,313,300,306,2
302,321,300,306,2
303,329,300,308,2
304,336,300,310,2
305,341,300,311,2
305,342,301,312,2
304,339,303,311,2
304,331,305,310,2
305,319,307,310,2
307,306,308,309,2
309,294,310,308,2
312,285,312,307,2
314,280,313,306,2
313,278,313,306,2
312,277,313,306,2
311,278,311,306,2
310,280,307,307,2
310,281,304,307,2
311,284,301,306,2
311,292,298,305,2
310,303,296,303,2
307,315,293,303,2
305,326,291,303,2
303,334,291,304,2
302,337,291,305,2
302,335,292,305,2
302,328,293,307,2
303,318,297,308,2
304,308,302,309,2
305,299,308,310,2
305,291,312,310,2
304,290,314,310,2
304,296,314,311,2
303,307,312,313,2
303,317,310,314,2
303,326,309,316,2
304,332,309,317,2
304,335,310,317,2
304,332,310,316,2
304,323,309,316,2
305,312,308,316,2
306,300,307,316,2
307,290,307,315,2
308,282,307,313,2
308,280,306,311,2
306,285,305,309,2
305,294,305,308,2
304,304,305,308,2
304,312,305,309,2
304,318,306,312,2
306,320,307,314,2
306,319,308,315,2
308,313,309,315,2
309,303,310,314,2
309,292,310,312,2
310,283,311,311,2
311,277,311,310,2
311,276,310,310,2
310,281,308,310,2
308,289,305,310,2
306,298,303,311,2
304,308,301,312,2
302,318,301,312,2
302,326,303,313,2
302,331,305,313,2
302,333,306,313,2
302,331,307,315,2
302,328,307,315,2
302,324,306,315,2
302,318,305,313,2
302,309,304,312,2
302,299,302,311,2
302,291,302,311,2
302,286,303,311,2
303,283,304,311,2
303,285,307,310,2
302,292,308,309,2
302,301,309,309,2
302,307,310,310,2
302,310,310,310,2
302,311,310,312,2
302,312,310,313,2
304,312,309,313,2
305,311,310,313,2
306,308,312,312,2
307,305,313,310,2
308,301,315,308,2
309,295,316,307,2
309,290,317,307,2
309,287,316,308,2
308,287,314,308,2
308,289,312,308,2
307,290,311,309,2
305,291,309,310,2
305,297,308,312,2
305,307,309,314,2
307,317,310,315,2
308,325,311,315,2
309,327,312,313,2
307,324,312,310,2
304,318,311,308,2
301,312,308,308,2
298,310,304,308,2
296,311,300,309,2
296,315,298,311,2
296,323,296,311,2
297,329,296,311,2
298,332,297,311,2
299,329,297,310,2
301,321,297,310,2
303,311,299,310,2
304,299,301,310,2
305,290,305,311,2
306,283,310,312,2
306,281,314,313,2
305,283,315,313,2
304,291,315,313,2
303,300,313,313,2
301,309,312,313,2
300,317,310,313,2
299,324,309,313,2
299,328,307,313,2
299,330,307,312,2
300,332,307,312,2
302,332,307,312,2
302,333,306,312,2
303,334,306,312,2
303,335,305,312,2
303,333,305,311,2
303,329,303,309,2
303,324,302,309,2
303,318,301,309,2
303,312,301,310,2
304,306,301,311,2
305,302,301,311,2
305,298,300,312,2
305,295,299,313,2
305,290,298,314,2
305,282,299,315,2
305,274,300,316,2
306,267,304,317,2
306,265,308,316,2
305,270,310,315,2
305,279,312,314,2
305,290,312,313,2
304,301,312,312,2
304,307,312,311,2
304,307,312,310,2
305,302,312,309,2
305,296,312,309,2
306,292,312,309,2
306,293,310,310,2
306,299,308,312,2
306,307,306,313,2
306,313,305,314,2
306,318,304,314,2
306,318,303,314,2
305,315,302,314,2
305,307,301,313,2
304,299,301,311,2
303,294,302,309,2
303,294,302,308,2
303,296,303,306,2
304,298,304,305,2
304,299,306,303,2
305,300,308,303,2
305,299,309,303,2
305,297,309,303,2
305,295,310,302,2
305,293,310,303,2
306,294,310,303,2
306,297,309,303,2
306,301,307,304,2
306,305,304,304,2
305,308,302,305,2
305,311,300,306,2
304,313,298,307,2
303,313,297,306,2
303,313,296,305,2
302,314,296,304,2
302,313,298,303,2
303,310,301,303,2
305,305,307,305,2
307,301,313,307,2
308,297,317,307,2
309,292,318,306,2
308,289,315,304,2
307,290,310,302,2
305,293,304,302,2
303,297,300,303,2
302,297,298,304,2
301,298,299,304,2
301,299,299,304,2
302,303,300,305,2
303,310,300,306,2
304,317,299,308,2
304,323,299,309,2
304,325,298,311,2
302,323,298,312,2
302,318,298,313,2
302,312,299,313,2
303,305,299,314,2
304,298,299,314,2
304,289,299,313,2
304,282,300,313,2
304,279,302,312,2
304,281,304,312,2
303,289,305,311,2
303,300,305,311,2
304,311,305,312,2
304,320,304,312,2
304,325,305,312,2
304,327,306,311,2
304,327,308,311,2
304,322,309,311,2
305,312,311,311,2
306,298,312,310,2
308,282,312,309,2
309,269,313,307,2
310,264,313,305,2
311,268,313,305,2
312,280,312,305,2
311,295,311,307,2
310,307,310,307,2
308,312,308,307,2
308,311,307,306,2
309,307,306,305,2
310,306,305,305,2
311,309,304,304,2
310,318,303,304,2
308,327,303,304,2
306,333,302,304,2
305,335,302,304,2
304,333,301,304,2
305,330,300,304,2
305,328,299,304,2
304,327,299,304,2
304,327,299,306,2
304,327,302,308,2
305,325,305,310,2
306,320,309,312,2
306,314,311,313,2
307,305,312,315,2
308,295,313,315,2
308,285,313,314,2
308,279,311,313,2
308,276,309,312,2
308,276,306,311,2
307,278,303,311,2
306,286,301,312,2
306,296,300,313,2
305,304,301,313,2
306,307,304,314,2
307,307,307,313,2
308,303,308,312,2
309,300,309,311,2
309,298,307,310,2
308,299,305,309,2
307,300,304,309,2
307,299,304,309,2
307,297,306,309,2
308,295,307,309,2
308,297,309,308,2
308,301,309,307,2
307,305,311,306,2
307,307,311,305,2
307,302,311,304,2
308,293,311,305,2
309,283,311,305,2
311,277,310,306,2
312,279,307,307,2
312,289,305,310,2
311,306,303,312,2
310,327,302,314,2
310,344,301,314,2
309,356,302,315,2
308,362,301,315,2
306,361,299,314,2
304,357,296,312,2
303,349,293,309,2
301,339,290,308,2
302,326,289,307,2
302,313,291,306,2
303,300,295,306,2
305,290,298,306,2
308,285,301,307,2
309,284,303,307,2
310,285,303,307,2
310,289,304,306,2
309,294,303,306,2
309,300,303,307,2
308,307,303,307,2
308,317,302,308,2
307,327,302,309,2
305,337,301,309,2
303,343,298,309,2
302,344,296,308,2
301,341,295,308,2
302,334,295,308,2
302,326,296,308,2
303,316,299,309,2
305,307,303,311,2
306,301,305,312,2
308,300,307,313,2
308,301,307,314,2
308,302,307,314,2
307,304,306,312,2
306,307,306,311,2
306,311,306,310,2
306,316,306,309,2
306,321,305,309,2
306,325,305,309,2
306,326,305,309,2
306,324,305,308,2
306,322,306,308,2
306,319,308,309,2
306,312,311,309,2
306,299,313,309,2
307,281,314,310,2
308,260,315,310,2
309,243,314,311,2
310,232,313,311,2
311,229,312,311,2
311,233,309,310,2
310,249,307,309,2
307,273,305,307,2
305,298,305,306,2
303,320,306,306,2
302,336,307,306,2
302,348,307,306,2
301,353,307,307,2
302,353,306,308,2
303,346,306,309,2
304,336,305,310,2
306,324,305,311,2
310,310,306,312,2
312,295,306,310,2
314,282,306,308,2
317,274,306,305,2
318,273,306,304,2
319,280,306,304,2
318,291,307,303,2
316,305,307,303,2
312,318,306,303,2
307,330,303,304,2
303,339,300,304,2
299,343,297,305,2
297,344,296,306,2
297,341,297,307,2
298,337,300,308,2
300,332,303,309,2
302,327,304,310,2
304,322,306,311,2
306,317,307,312,2
308,312,308,313,2
308,309,309,315,2
309,307,309,317,2
310,306,309,319,2
310,303,309,319,2
310,300,308,317,2
310,295,307,314,2
310,290,306,313,2
311,285,305,311,2
312,279,305,310,2
312,274,306,308,2
312,271,307,306,2
313,269,311,306,2
314,267,315,305,2
313,266,317,304,2
312,267,315,304,2
310,272,311,304,2
308,285,306,305,2
307,302,302,308,2
306,319,300,311,2
306,331,299,315,2
307,335,299,318,2
309,333,298,319,2
310,330,297,318,2
311,327,296,316,2
309,325,296,313,2
308,323,298,311,2
307,320,302,308,2
307,315,305,306,2
308,308,308,305,2
309,301,310,303,2
309,292,312,301,2
310,286,311,300,2
309,285,310,300,2
307,291,308,302,2
305,301,308,303,2
303,312,309,304,2
302,321,311,306,2
302,327,313,307,2
302,333,313,309,2
302,337,312,311,2
303,340,312,313,2
304,340,311,314,2
304,338,311,316,2
306,334,311,317,2
306,331,311,318,2
307,330,311,319,2
308,329,311,319,2
307,328,310,317,2
305,326,309,315,2
304,321,307,312,2
303,315,307,311,2
304,307,307,310,2
304,298,308,308,2
305,291,309,307,2
306,286,309,306,2
306,285,310,306,2
307,288,310,306,2
307,293,310,307,2
307,299,310,308,2
306,303,310,308,2
306,306,310,308,2
305,307,309,307,2
305,306,308,306,2
304,304,307,305,2
304,299,307,304,2
304,292,306,304,2
304,285,305,305,2
304,282,305,307,2
305,282,307,309,2
305,286,307,311,2
304,291,307,313,2
304,298,306,314,2
302,305,305,314,2
301,311,304,313,2
299,317,303,311,2
299,322,303,310,2
300,329,303,310,2
301,334,303,309,2
302,333,303,308,2
303,326,303,306,2
304,314,304,306,2
306,299,306,305,2
308,288,307,304,2
310,281,308,303,2
312,279,310,301,2
312,280,310,300,2
311,283,308,300,2
307,284,306,300,2
303,281,305,300,2
301,276,305,300,2
300,273,306,301,2
301,274,306,303,2
301,283,304,305,2
300,295,301,305,2
299,307,299,306,2
299,317,298,306,2
298,325,297,307,2
298,330,298,308,2
297,331,300,309,2
298,330,304,309,2
298,328,309,309,2
299,326,314,308,2
300,325,317,306,2
301,326,318,305,2
301,326,317,304,2
301,323,315,304,2
302,319,314,304,2
304,313,313,304,2
304,310,313,304,2
305,310,312,304,2
305,314,310,305,2
305,320,308,305,2
304,327,306,306,2
303,333,305,306,2
301,336,304,306,2
300,333,303,307,2
300,326,302,308,2
300,318,301,309,2
301,309,302,310,2
303,304,302,310,2
303,302,303,310,2
303,305,305,310,2
304,310,307,310,2
304,315,309,310,2
304,318,310,309,2
305,318,311,309,2
305,315,311,308,2
306,309,311,307,2
307,299,311,305,2
308,287,311,303,2
310,275,312,301,2
312,267,312,301,2
314,265,313,301,2
314,271,314,303,2
315,282,314,304,2
314,290,316,304,2
313,295,316,304,2
311,295,315,304,2
309,294,312,303,2
308,291,310,302,2
309,287,308,301,2
309,284,307,300,2
308,282,306,300,2
308,283,306,301,2
308,284,307,302,2
308,286,308,303,2
308,290,308,302,2
307,296,307,302,2
306,303,307,302,2
305,309,306,303,2
306,318,306,304,2
306,329,304,304,2
306,339,302,305,2
304,346,299,305,2
302,349,298,304,2
300,349,298,303,2
299,345,300,302,2
298,339,303,301,2
299,330,306,301,2
301,321,310,302,2
303,313,314,304,2
305,306,316,304,2
307,301,317,304,2
308,299,316,304,2
308,301,314,305,2
308,308,312,305,2
307,314,309,306,2
307,315,309,307,2
307,308,309,308,2
307,293,310,309,2
309,273,312,311,2
309,256,314,311,2
310,244,315,311,2
311,240,315,310,2
311,243,316,310,2
310,250,316,310,2
310,255,317,311,2
311,256,318,312,2
312,253,318,313,2
313,248,316,314,2
313,245,314,312,2
312,246,312,308,2
311,253,311,305,2
308,266,311,303,2
306,282,312,302,2
305,295,312,302,2
305,301,312,301,2
305,303,311,300,2
305,302,310,299,2
305,296,308,299,2
306,287,307,300,2
308,277,306,301,2
310,268,306,301,2
312,256,304,301,2
315,236,303,300,2
317,209,301,299,2
319,181,300,298,2
321,158,301,297,2
322,153,302,298,2
321,176,304,300,2
317,230,305,301,2
310,297,306,302,2
303,360,306,304,2
298,404,305,305,2
295,427,305,306,2
295,435,305,307,2
295,430,303,307,2
296,419,302,308,2
297,406,301,308,2
297,390,301,308,2
297,376,302,307,2
297,364,304,307,2
298,355,307,306,2
300,348,309,306,2
302,344,310,307,2
303,340,310,307,2
303,336,310,307,2
304,326,310,307,2
305,314,311,306,2
308,300,314,306,2
312,288,319,306,2
315,278,324,307,2
316,273,327,307,2
314,276,325,307,2
312,285,322,306,2
310,296,319,306,2
308,304,317,306,2
307,308,315,307,2
307,310,313,308,2
306,314,311,309,2
305,321,308,307,2
304,328,305,306,2
302,333,303,305,2
302,337,301,305,2
303,340,301,306,2
304,338,299,305,2
305,330,298,305,2
307,318,298,304,2
308,304,298,304,2
310,295,298,305,2
310,290,298,306,2
311,292,298,306,2
309,296,299,307,2
307,298,301,305,2
305,298,305,305,2
305,296,309,304,2
306,294,313,305,2
309,292,316,305,2
311,290,318,305,2
311,290,318,305,2
312,291,317,305,2
312,293,315,306,2
311,294,312,306,2
310,298,310,307,2
307,308,309,306,2
304,320,309,306,2
301,333,310,306,2
301,343,312,307,2
301,346,314,308,2
301,339,315,309,2
302,326,314,311,2
303,312,311,310,2
303,301,309,309,2
302,297,307,307,2
301,298,306,306,2
300,304,305,306,2
299,309,305,305,2
298,312,304,305,2
298,312,305,305,2
299,307,307,305,2
301,302,310,306,2
303,299,313,307,2
304,302,314,308,2
304,306,314,307,2
305,311,313,307,2
306,316,312,307,2
307,322,311,308,2
308,330,310,310,2
308,335,310,311,2
307,336,309,311,2
306,332,308,310,2
305,327,308,309,2
305,321,308,307,2
306,310,308,305,2
306,295,308,303,2
307,281,308,301,2
309,268,308,301,2
312,258,308,301,2
314,257,308,302,2
314,266,306,303,2
311,283,304,306,2
307,301,304,307,2
304,313,304,307,2
302,317,305,307,2
301,312,306,307,2
303,298,307,307,2
305,280,308,308,2
308,264,310,308,2
310,255,310,310,2
313,256,311,312,2
313,271,311,313,2
311,297,309,314,2
309,327,307,313,2
306,352,305,313,2
305,369,303,313,2
305,378,302,312,2
306,380,301,311,2
306,378,300,309,2
307,373,299,308,2
307,363,298,307,2
308,350,298,308,2
308,337,297,308,2
307,325,298,307,2
307,315,301,306,2
308,308,304,306,2
310,304,306,306,2
311,303,307,306,2
313,301,307,306,2
313,298,307,306,2
313,293,306,306,2
313,288,306,306,2
313,285,307,307,2
313,281,309,308,2
314,277,309,308,2
314,274,308,308,2
315,272,306,307,2
313,269,304,304,2
311,270,304,303,2
309,277,305,302,2
306,289,308,303,2
303,307,312,305,2
302,326,314,307,2
300,341,314,309,2
300,348,313,310,2
301,348,313,310,2
301,344,313,309,2
302,338,313,307,2
303,332,312,305,2
304,328,312,303,2
304,328,311,302,2
304,332,310,301,2
303,337,308,302,2
302,341,308,303,2
301,340,307,304,2
301,334,309,305,2
302,325,311,305,2
303,317,313,306,2
306,311,315,307,2
307,311,317,308,2
308,316,318,309,2
308,323,318,310,2
307,332,318,311,2
306,340,316,311,2
306,345,315,309,2
306,347,314,307,2
305,345,312,305,2
304,337,310,304,2
304,326,308,303,2
303,314,307,304,2
304,301,306,305,2
305,287,305,306,2
307,273,305,307,2
309,259,304,308,2
311,249,305,309,2
312,242,303,308,2
312,242,302,307,2
311,249,301,306,2
309,263,302,306,2
307,282,303,307,2
306,301,303,307,2
304,319,303,306,2
302,333,303,305,2
300,345,304,305,2
298,352,305,305,2
297,353,307,305,2
298,350,310,306,2
299,347,312,306,2
301,345,313,306,2
302,345,314,307,2
303,344,313,307,2
305,339,312,307,2
308,331,312,307,2
311,321,310,306,2
313,311,307,306,2
313,303,305,306,2
313,298,304,305,2
311,296,304,304,2
308,297,304,304,2
305,299,306,303,2
305,301,308,303,2
305,305,311,304,2
305,312,313,306,2
306,323,313,309,2
306,333,312,310,2
306,341,308,311,2
304,344,306,309,2
303,342,306,307,2
302,334,308,306,2
303,322,312,305,2
305,310,316,305,2
307,297,319,304,2
309,286,321,305,2
311,279,323,305,2
312,279,324,306,2
310,284,323,307,2
307,293,320,308,2
305,302,316,308,2
303,309,313,308,2
302,317,310,308,2
300,324,308,307,2
299,330,307,306,2
298,333,305,306,2
299,332,305,305,2
300,327,306,305,2
302,320,308,305,2
305,311,309,305,2
308,301,311,306,2
311,289,312,307,2
313,278,313,307,2
314,272,313,307,2
315,273,312,308,2
315,279,310,309,2
314,286,309,311,2
313,295,310,312,2
312,305,311,313,2
312,316,312,313,2
311,325,313,314,2
311,332,312,315,2
310,339,311,314,2
309,342,310,313,2
308,343,309,310,2
307,343,308,308,2
306,344,307,306,2
305,345,305,306,2
306,346,305,306,2
308,347,305,308,2
309,346,306,309,2
310,343,306,309,2
309,339,305,308,2
309,334,303,306,2
307,329,301,304,2
306,325,299,302,2
305,321,299,301,2
304,315,300,300,2
304,306,302,300,2
305,297,304,300,2
307,287,306,300,2
308,279,306,300,2
308,274,307,300,2
308,274,307,300,2
308,278,306,301,2
308,284,307,302,2
307,285,310,303,2
308,284,313,303,2
308,283,315,305,2
308,288,314,306,2
307,295,313,307,2
307,304,312,308,2
307,315,311,309,2
306,324,310,310,2
305,331,309,309,2
304,334,308,309,2
304,332,308,309,2
304,328,308,309,2
304,323,308,310,2
305,318,308,311,2
306,315,307,313,2
306,313,306,313,2
306,311,306,312,2
306,306,306,311,2
308,299,309,308,2
310,291,312,306,2
312,281,315,303,2
314,271,316,301,2
315,266,316,299,2
314,268,314,297,2
311,276,310,297,2
306,288,304,297,2
302,304,299,299,2
298,319,296,301,2
296,330,296,302,2
295,339,296,304,2
294,346,297,304,2
295,349,298,304,2
295,348,299,305,2
297,342,298,305,2
297,331,298,305,2
298,320,299,304,2
298,311,301,304,2
300,305,302,306,2
301,302,304,308,2
303,302,305,309,2
304,302,305,309,2
306,300,306,309,2
306,294,306,309,2
307,288,308,308,2
306,288,309,308,2
305,295,309,307,2
305,307,308,308,2
304,320,307,311,2
304,332,306,313,2
303,341,305,313,2
303,345,304,312,2
303,343,304,311,2
303,336,303,310,2
303,328,302,309,2
302,318,301,308,2
302,308,300,306,2
301,299,300,305,2
301,293,299,303,2
301,292,300,303,2
302,292,301,303,2
303,296,301,303,2
303,301,301,303,2
302,307,300,304,2
302,311,300,304,2
302,313,301,303,2
302,314,303,302,2
302,314,304,301,2
302,314,304,300,2
301,313,305,300,2
302,313,306,299,2
303,313,306,299,2
303,313,307,299,2
304,313,308,299,2
305,312,311,300,2
305,311,312,301,2
305,313,313,302,2
305,317,313,302,2
305,321,313,302,2
305,322,313,300,2
304,321,312,300,2
304,320,312,301,2
303,319,311,302,2
303,318,309,303,2
302,317,306,305,2
303,317,304,307,2
303,319,305,308,2
304,322,306,309,2
305,323,307,310,2
306,320,308,310,2
307,313,309,309,2
308,303,309,309,2
310,292,310,309,2
312,279,309,309,2
313,268,308,307,2
312,261,305,305,2
309,261,300,302,2
306,268,297,300,2
303,279,297,299,2
301,295,297,299,2
299,312,297,300,2
298,328,296,301,2
298,338,294,301,2
297,342,294,301,2
297,341,297,300,2
299,336,300,300,2
300,328,304,299,2
303,316,307,299,2
304,303,308,299,2
306,290,309,299,2
307,277,309,299,2
309,266,310,300,2
311,261,312,302,2
312,261,313,303,2
313,264,313,304,2
313,271,312,305,2
313,282,311,306,2
312,292,310,306,2
311,300,310,305,2
309,305,310,304,2
308,308,310,302,2
306,309,309,301,2
305,310,308,301,2
304,310,308,301,2
305,310,309,302,2
305,307,311,303,2
305,297,313,302,2
305,285,314,302,2
305,276,316,302,2
306,275,318,301,2
306,283,318,302,2
306,297,316,302,2
305,316,315,303,2
304,330,313,304,2
305,332,312,305,2
306,322,311,306,2
309,306,311,306,2
311,289,310,306,2
313,277,310,305,2
314,273,309,305,2
314,278,310,306,2
313,293,312,307,2
310,313,313,305,2
306,330,313,304,2
302,341,313,302,2
300,348,313,302,2
298,352,313,304,2
298,355,313,305,2
299,358,312,307,2
300,359,311,307,2
300,360,310,306,2
301,359,309,306,2
301,356,308,307,2
301,353,307,307,2
301,350,306,307,2
301,346,306,307,2
302,342,306,306,2
303,335,306,305,2
303,326,306,305,2
304,315,306,304,2
304,305,307,304,2
305,296,309,305,2
306,288,310,305,2
306,282,310,305,2
306,282,309,305,2
305,287,308,305,2
305,294,305,306,2
304,301,303,307,2
303,308,301,307,2
303,315,299,307,2
302,321,297,308,2
302,325,296,309,2
302,326,295,310,2
302,325,296,311,2
302,321,297,312,2
301,317,298,312,2
301,314,299,312,2
301,312,303,312,2
302,310,305,312,2
303,305,308,311,2
305,297,310,311,2
307,287,311,309,2
308,276,311,307,2
309,265,312,304,2
310,258,312,301,2
311,257,313,300,2
312,262,313,301,2
313,273,312,302,2
314,288,313,303,2
314,303,313,304,2
313,316,314,304,2
312,322,314,305,2
311,318,313,306,2
310,306,311,306,2
311,289,309,306,2
312,276,306,307,2
313,269,304,307,2
312,271,302,306,2
310,281,300,306,2
308,295,298,306,2
305,310,296,307,2
302,322,293,308,2
299,329,292,308,2
298,331,292,308,2
297,328,296,307,2
297,324,301,307,2
298,325,306,307,2
299,330,310,307,2
301,337,312,308,2
302,341,313,309,2
303,342,312,310,2
305,339,312,310,2
306,334,312,310,2
307,328,311,309,2
308,322,309,309,2
309,316,308,310,2
310,310,307,310,2
310,304,308,311,2
311,293,308,310,2
310,275,307,309,2
310,256,308,307,2
309,239,309,306,2
309,225,312,306,2
310,217,314,307,2
312,218,316,309,2
314,234,317,310,2
312,262,315,310,2
309,294,312,310,2
307,323,308,310,2
304,345,304,310,2
302,361,303,310,2
301,370,302,311,2
301,374,302,312,2
302,376,302,312,2
302,375,302,313,2
302,373,301,311,2
303,367,300,311,2
303,358,299,310,2
303,348,298,309,2
304,335,298,309,2
305,322,300,309,2
306,310,303,309,2
307,303,305,309,2
308,300,307,310,2
310,301,308,312,2
310,305,308,315,2
310,309,308,317,2
309,311,306,318,2
308,307,306,317,2
307,301,306,314,2
308,294,308,313,2
310,286,309,312,2
311,281,310,312,2
311,280,311,312,2
311,285,310,312,2
309,293,309,312,2
308,303,307,312,2
306,312,306,313,2
305,319,306,314,2
305,322,306,315,2
305,321,308,316,2
305,316,308,317,2
304,310,307,316,2
303,304,305,314,2
303,301,303,312,2
303,302,301,310,2
302,306,300,309,2
302,311,299,309,2
303,315,298,310,2
304,314,299,311,2
305,309,298,313,2
306,300,299,313,2
307,290,298,312,2
307,280,298,311,2
307,275,298,310,2
307,273,300,308,2
306,277,303,307,2
307,283,308,307,2
309,288,311,307,2
310,291,314,308,2
311,293,315,309,2
311,296,315,309,2
311,301,313,309,2
311,308,312,310,2
311,316,311,311,2
311,321,309,311,2
311,321,307,311,2
312,314,304,310,2
313,302,300,309,2
314,288,298,309,2
314,276,297,309,2
313,273,298,308,2
311,276,303,308,2
309,284,307,307,2
306,293,308,306,2
304,301,307,307,2
302,306,304,308,2
300,309,302,309,2
299,310,302,309,2
299,311,303,310,2
300,314,306,310,2
301,319,308,311,2
301,327,309,311,2
301,336,309,311,2
301,343,309,311,2
301,346,309,311,2
303,346,309,312,2
305,342,310,311,2
307,335,310,311,2
308,325,311,312,2
308,313,312,313,2
308,301,312,313,2
307,289,311,314,2
307,280,309,314,2
306,275,308,313,2
305,274,307,311,2
304,275,305,310,2
303,275,304,308,2
304,273,304,308,2
305,271,303,309,2
306,270,303,311,2
307,272,303,314,2
307,279,302,317,2
307,292,303,319,2
307,307,304,321,2
307,320,304,322,2
306,332,304,322,2
305,338,303,320,2
303,340,301,318,2
303,337,299,314,2
302,333,297,312,2
302,327,297,309,2
304,320,297,308,2
305,313,297,306,2
306,304,297,305,2
307,297,298,305,2
307,292,300,305,2
308,292,303,305,2
308,293,305,305,2
307,297,306,305,2
306,303,305,304,2
305,309,304,303,2
305,314,303,302,2
305,316,302,302,2
305,316,302,304,2
305,312,301,305,2
304,308,302,308,2
303,301,304,309,2
303,293,307,309,2
303,287,308,310,2
304,286,309,310,2
303,289,309,309,2
304,296,308,309,2
303,303,307,309,2
303,310,306,309,2
302,315,304,309,2
302,318,304,309,2
302,320,303,311,2
304,322,303,311,2
304,324,302,312,2
304,327,301,312,2
303,329,301,311,2
302,329,301,311,2
302,329,303,312,2
302,328,304,313,2
303,328,304,314,2
304,326,304,316,2
305,324,302,315,2
306,322,301,314,2
307,319,301,311,2
309,318,302,309,2
310,315,302,307,2
311,306,303,306,2
311,292,301,305,2
311,276,299,305,2
310,262,297,305,2
309,254,297,306,2
308,252,299,306,2
306,259,303,307,2
304,274,307,308,2
302,288,308,308,2
301,297,309,307,2
300,301,308,306,2
301,302,309,306,2
301,302,308,307,2
303,303,308,308,2
304,308,308,310,2
304,315,307,310,2
304,323,307,311,2
304,327,308,311,2
304,326,309,310,2
304,320,310,310,2
304,310,311,310,2
304,299,311,310,2
305,288,310,310,2
305,280,310,310,2
305,276,311,310,2
306,277,311,311,2
306,279,310,310,2
306,283,308,309,2
306,286,306,307,2
306,291,303,306,2
306,297,301,305,2
306,306,300,305,2
304,315,300,305,2
302,321,301,304,2
300,324,302,305,2
299,323,304,305,2
299,320,305,306,2
300,318,306,306,2
300,321,306,307,2
300,325,305,307,2
301,328,305,307,2
301,327,304,307,2
301,324,303,306,2
301,320,302,305,2
301,317,301,305,2
302,316,299,305,2
302,319,299,305,2
302,325,301,306,2
303,330,304,307,2
303,330,308,308,2
303,325,309,308,2
304,317,310,308,2
304,308,309,308,2
305,299,309,308,2
306,294,309,308,2
308,293,308,309,2
309,296,307,309,2
309,297,306,309,2
310,297,306,309,2
311,297,306,309,2
311,299,306,309,2
311,301,305,309,2
310,302,305,308,2
309,304,304,307,2
307,306,302,308,2
305,309,301,309,2
304,313,299,311,2
303,315,300,312,2
304,314,301,313,2
304,309,304,311,2
305,301,306,309,2
306,294,307,308,2
306,289,309,308,2
307,287,310,308,2
307,291,310,309,2
307,299,310,310,2
307,309,309,311,2
306,317,308,311,2
306,322,308,311,2
307,324,309,311,2
306,325,309,311,2
306,325,309,311,2
305,322,309,312,2
304,318,310,313,2
303,313,310,314,2
303,308,309,314,2
302,306,309,315,2
302,308,308,317,2
304,312,307,316,2
305,314,307,315,2
306,315,308,313,2
307,313,308,312,2
309,308,309,311,2
309,301,307,310,2
310,295,305,309,2
311,291,302,309,2
311,290,300,308,2
311,291,298,308,2
310,296,298,309,2
310,301,299,310,2
310,301,300,312,2
311,294,301,313,2
311,285,302,312,2
310,276,303,310,2
308,271,303,310,2
307,271,304,311,2
306,276,306,312,2
306,288,307,314,2
306,303,307,315,2
306,316,305,315,2
305,326,302,313,2
305,333,299,312,2
304,338,296,311,2
304,341,295,309,2
303,343,297,309,2
303,341,301,309,2
303,335,305,309,2
304,327,308,309,2
304,317,310,310,2
304,306,310,310,2
304,298,310,310,2
304,292,309,309,2
304,293,309,308,2
304,298,308,308,2
304,304,307,308,2
303,309,307,308,2
303,313,309,308,2
303,316,312,307,2
305,317,315,306,2
306,317,317,306,2
307,313,318,306,2
308,304,318,306,2
309,289,318,305,2
309,272,318,304,2
309,258,318,304,2
309,251,318,305,2
309,253,318,306,2
309,265,317,308,2
308,287,316,309,2
306,312,315,310,2
305,331,314,310,2
305,342,314,310,2
305,344,314,310,2
306,343,314,311,2
306,339,314,311,2
307,335,313,311,2
307,329,311,311,2
307,321,309,310,2
307,310,308,310,2
308,297,308,310,2
309,283,310,311,2
311,270,311,312,2
312,259,312,313,2
313,252,312,311,2
313,253,311,309,2
312,265,310,307,2
310,284,309,306,2
308,305,309,305,2
306,325,309,306,2
304,340,308,307,2
303,350,306,308,2
302,353,305,308,2
301,352,304,309,2
302,349,304,309,2
302,345,304,309,2
303,340,305,309,2
304,333,308,308,2
306,323,310,308,2
307,312,312,307,2
308,300,313,307,2
308,287,314,306,2
309,275,315,306,2
310,265,317,306,2
312,257,318,307,2
312,255,319,309,2
313,257,319,309,2
312,263,318,308,2
310,273,315,307,2
307,287,310,308,2
305,303,305,310,2
303,316,302,313,2
302,326,300,315,2
302,333,298,316,2
303,338,298,317,2
303,337,296,317,2
304,330,295,316,2
304,320,293,315,2
303,307,294,315,2
302,296,297,314,2
301,286,300,312,2
301,283,301,310,2
302,286,300,307,2
302,294,298,304,2
301,303,296,302,2
301,314,295,302,2
302,323,296,303,2
304,329,298,304,2
305,335,301,305,2
305,339,303,305,2
304,340,306,307,2
304,338,307,308,2
304,332,308,309,2
304,324,308,309,2
304,315,308,310,2
304,307,307,310,2
305,300,306,310,2
304,294,305,308,2
304,288,306,306,2
304,286,307,306,2
304,286,308,307,2
305,288,310,309,2
307,289,311,311,2
308,288,311,312,2
308,286,311,313,2
308,287,311,313,2
308,285,310,313,2
309,281,309,311,2
310,276,307,309,2
310,276,303,307,2
311,280,299,305,2
310,288,297,304,2
309,298,297,303,2
307,312,298,304,2
304,328,298,305,2
302,342,299,307,2
299,350,299,308,2
298,351,300,310,2
298,345,301,311,2
298,336,304,312,2
299,326,306,313,2
301,318,307,313,2
302,311,308,313,2
303,307,308,313,2
303,307,308,312,2
303,309,308,313,2
303,313,308,313,2
305,317,308,315,2
306,320,308,316,2
308,317,308,316,2
308,309,309,315,2
309,297,309,314,2
310,280,310,313,2
310,264,309,311,2
310,256,308,310,2
309,258,307,310,2
307,271,308,309,2
306,291,310,309,2
304,314,311,308,2
303,334,312,308,2
301,346,311,309,2
301,351,309,308,2
302,349,307,308,2
304,342,307,308,2
305,334,308,309,2
307,326,310,310,2
310,320,313,312,2
311,315,315,314,2
311,310,315,316,2
310,306,315,317,2
309,300,315,317,2
308,296,315,317,2
308,292,313,317,2
308,290,311,315,2
308,290,310,312,2
308,293,309,310,2
307,301,308,309,2
306,307,308,307,2
305,309,308,305,2
304,307,308,304,2
304,299,308,303,2
305,288,307,304,2
306,278,307,305,2
307,270,306,306,2
307,269,305,306,2
308,274,304,305,2
308,285,304,305,2
308,301,302,304,2
307,316,301,305,2
306,328,300,306,2
305,335,299,308,2
303,337,300,309,2
302,335,302,309,2
301,331,305,309,2
302,327,308,309,2
303,324,310,309,2
303,323,311,309,2
303,322,310,309,2
303,318,310,309,2
302,314,308,307,2
301,309,305,307,2
301,305,303,306,2
301,301,304,307,2
302,298,307,309,2
302,294,309,310,2
302,287,311,311,2
303,280,313,310,2
303,274,314,309,2
303,270,315,308,2
304,269,315,307,2
305,270,316,306,2
305,277,316,306,2
304,286,315,307,2
303,296,313,307,2
302,307,312,308,2
302,319,311,308,2
302,326,310,309,2
302,328,309,309,2
302,326,308,310,2
302,323,307,310,2
302,319,307,310,2
303,313,308,310,2
305,308,310,310,2
307,302,311,310,2
308,298,312,310,2
309,297,313,309,2
309,297,312,308,2
308,300,310,308,2
308,309,309,309,2
308,316,308,310,2
308,319,308,309,2
308,316,308,310,2
309,312,309,310,2
309,309,309,311,2
309,308,309,311,2
309,311,308,311,2
309,315,306,312,2
309,319,304,313,2
308,321,301,314,2
307,322,299,315,2
306,321,296,315,2
305,319,294,313,2
305,319,292,311,2
305,318,290,310,2
305,318,289,309,2
306,316,289,309,2
306,309,292,308,2
305,297,294,307,2
304,281,297,306,2
304,267,300,305,2
306,258,304,305,2
308,253,310,307,2
310,254,314,308,2
310,260,315,309,2
308,268,313,309,2
307,275,310,309,2
306,282,306,309,2
306,291,304,308,2
305,301,302,308,2
305,308,301,307,2
305,313,300,308,2
305,317,299,308,2
305,320,300,308,2
305,321,300,308,2
304,320,302,309,2
305,318,303,309,2
307,316,305,310,2
311,315,308,311,2
313,318,310,311,2
313,324,311,311,2
311,333,311,310,2
309,340,308,309,2
307,346,305,309,2
306,347,302,308,2
306,344,301,308,2
307,337,301,307,2
307,330,302,306,2
307,322,301,305,2
307,315,301,306,2
307,308,301,307,2
307,304,302,308,2
307,299,304,308,2
306,295,305,308,2
306,291,307,308,2
307,290,309,308,2
308,290,312,310,2
309,292,314,311,2
309,294,315,312,2
308,299,315,313,2
307,304,314,313,2
307,309,312,312,2
306,313,309,310,2
306,315,307,308,2
305,316,305,307,2
305,316,305,307,2
305,315,305,308,2
306,312,304,308,2
306,308,303,308,2
307,304,303,309,2
307,303,304,310,2
309,303,305,311,2
309,305,307,312,2
310,305,308,311,2
309,303,309,311,2
308,299,308,310,2
308,294,308,310,2
309,292,308,311,2
311,295,309,312,2
313,299,310,312,2
315,302,310,312,2
315,303,310,311,2
315,305,312,311,2
315,308,313,312,2
315,311,314,314,2
315,313,313,314,2
314,315,309,313,2
313,315,304,311,2
313,308,300,307,2
312,294,297,305,2
311,275,296,304,2
308,258,297,304,2
308,248,299,305,2
307,247,302,306,2
306,257,303,306,2
304,275,304,306,2
303,292,303,306,2
302,306,303,305,2
302,315,302,305,2
302,321,302,306,2
302,327,301,306,2
303,332,300,307,2
302,335,299,307,2
301,336,297,307,2
301,336,297,308,2
302,333,297,310,2
303,328,299,311,2
304,320,301,312,2
305,313,303,311,2
305,308,303,310,2
306,306,303,309,2
307,306,303,307,2
309,308,304,307,2
310,310,305,308,2
309,312,305,308,2
308,313,306,309,2
305,314,304,309,2
304,316,302,310,2
303,318,301,311,2
304,320,304,312,2
307,322,309,313,2
311,324,317,313,2
315,325,323,314,2
319,325,328,313,2
318,323,327,312,2
316,319,320,311,2
313,314,311,311,2
311,305,303,311,2
310,291,298,312,2
309,273,295,312,2
309,257,294,312,2
310,248,296,311,2
311,245,301,311,2
314,249,307,312,2
315,261,312,313,2
313,280,313,312,2
309,297,310,310,2
304,309,306,308,2
301,318,303,306,2
299,324,301,305,2
298,329,300,305,2
299,334,301,306,2
301,338,303,307,2
304,344,303,308,2
304,346,303,308,2
305,346,303,309,2
306,341,302,309,2
306,335,300,308,2
306,327,299,308,2
306,320,298,308,2
308,315,299,309,2
309,312,301,310,2
311,311,303,312,2
312,310,305,314,2
312,311,306,315,2
311,311,306,314,2
311,309,306,313,2
311,304,307,311,2
311,295,307,310,2
311,282,308,309,2
310,271,307,309,2
309,261,306,309,2
308,256,304,309,2
306,258,300,309,2
306,266,296,310,2
306,276,293,311,2
307,285,290,312,2
307,290,288,312,2
307,295,287,311,2
306,302,287,310,2
304,309,288,309,2
302,313,293,309,2
301,310,299,309,2
301,302,306,311,2
303,293,311,312,2
304,285,313,313,2
305,284,313,313,2
304,289,312,314,2
304,300,312,314,2
304,310,312,314,2
303,314,311,313,2
304,313,311,313,2
305,310,310,312,2
306,308,309,312,2
308,307,309,312,2
310,308,308,311,2
311,311,307,309,2
310,317,304,307,2
309,324,302,306,2
307,331,300,305,2
306,336,298,305,2
304,338,297,306,2
303,337,296,307,2
303,334,296,308,2
303,328,297,309,2
304,318,298,309,2
304,304,300,309,2
305,291,301,308,2
306,280,303,308,2
306,271,303,308,2
307,269,303,307,2
306,274,300,306,2
304,287,297,305,2
302,303,296,304,2
301,319,297,303,2
300,330,300,301,2
301,337,303,301,2
301,339,306,301,2
302,339,308,302,2
303,335,308,304,2
304,328,308,305,2
306,319,307,307,2
307,310,308,308,2
310,302,309,309,2
311,297,310,310,2
313,294,311,311,2
314,293,312,312,2
315,291,312,313,2
316,287,311,315,2
318,275,311,316,2
319,259,309,315,2
319,245,308,314,2
319,241,307,312,2
318,247,307,310,2
315,263,307,309,2
313,286,306,308,2
309,313,305,307,2
305,336,302,306,2
302,352,300,305,2
300,361,298,304,2
299,365,298,304,2
299,365,297,304,2
299,361,297,304,2
299,354,297,305,2
300,345,298,305,2
301,334,300,306,2
304,323,301,307,2
307,314,303,306,2
309,307,305,305,2
310,302,306,305,2
310,299,305,303,2
309,299,305,302,2
309,302,304,302,2
309,304,303,302,2
309,305,302,303,2
309,305,302,305,2
309,306,302,307,2
309,307,301,308,2
309,305,301,308,2
309,303,301,309,2
309,300,301,309,2
309,295,302,309,2
309,286,302,309,2
310,276,301,310,2
310,269,298,311,2
311,269,296,312,2
311,275,296,313,2
310,286,298,313,2
308,302,301,313,2
305,319,306,314,2
303,334,311,314,2
301,343,313,313,2
300,348,313,313,2
300,348,314,312,2
300,344,313,310,2
301,334,312,308,2
302,322,311,306,2
304,309,310,306,2
307,298,309,306,2
309,292,308,306,2
310,294,306,306,2
309,303,304,308,2
306,316,303,310,2
303,327,304,309,2
301,333,305,309,2
300,335,306,308,2
300,333,307,309,2
301,329,309,310,2
302,324,310,312,2
303,319,311,313,2
303,314,312,313,2
304,310,312,313,2
304,307,312,312,2
304,304,311,311,2
304,301,310,310,2
304,297,308,310,2
303,294,308,309,2
303,291,307,308,2
303,291,306,307,2
303,292,306,306,2
303,294,305,304,2
303,296,304,303,2
303,298,304,304,2
304,298,305,305,2
305,298,305,307,2
305,297,306,309,2
306,296,308,311,2
307,297,311,313,2
307,301,313,314,2
307,309,315,314,2
307,317,315,315,2
306,323,315,316,2
305,325,314,315,2
304,325,312,314,2
305,322,311,313,2
306,318,309,312,2
307,314,309,310,2
307,312,308,307,2
307,312,307,306,2
306,313,306,305,2
306,312,306,305,2
306,310,307,306,2
306,306,307,307,2
306,303,306,308,2
306,300,306,309,2
306,302,306,309,2
305,307,306,309,2
304,314,305,308,2
303,319,303,307,2
303,322,301,307,2
303,322,301,308,2
304,321,302,310,2
305,318,304,313,2
306,313,305,316,2
306,306,306,318,2
307,302,305,319,2
306,301,303,318,2
307,305,302,317,2
307,311,302,316,2
307,317,304,315,2
307,321,307,314,2
307,326,311,312,2
308,327,316,311,2
310,326,321,309,2
311,325,324,308,2
310,326,324,307,2
308,326,321,307,2
307,326,316,309,2
306,326,311,310,2
306,325,307,311,2
306,324,304,312,2
307,322,302,313,2
308,320,302,313,2
308,319,302,311,2
307,318,303,310,2
306,317,304,309,2
305,314,304,309,2
304,309,305,309,2
304,303,305,310,2
305,298,305,310,2
307,294,305,311,2
308,295,304,311,2
309,297,304,312,2
309,298,304,313,2
310,296,304,313,2
310,293,305,313,2
309,288,305,312,2
308,281,307,310,2
307,272,309,308,2
306,268,312,307,2
305,270,314,307,2
304,280,316,307,2
303,292,316,307,2
302,304,314,308,2
301,318,313,309,2
301,331,311,310,2
301,342,310,310,2
301,348,309,310,2
301,351,308,310,2
301,350,307,310,2
302,347,307,311,2
302,344,307,311,2
302,340,307,311,2
302,337,307,310,2
301,333,306,308,2
301,330,306,307,2
302,325,306,306,2
304,317,306,305,2
305,307,306,305,2
306,298,304,306,2
307,288,304,306,2
307,276,305,304,2
308,265,306,303,2
309,260,307,302,2
309,263,307,301,2
309,272,307,300,2
309,285,306,300,2
308,301,304,299,2
307,317,302,300,2
306,330,301,301,2
305,340,300,301,2
305,345,301,302,2
305,346,303,303,2
305,341,305,303,2
304,334,306,302,2
304,327,305,302,2
304,324,305,303,2
304,325,305,305,2
304,328,306,307,2
304,330,308,308,2
304,331,310,309,2
304,332,311,309,2
304,330,311,308,2
304,325,311,307,2
304,316,310,307,2
305,305,308,307,2
306,294,308,306,2
307,286,307,305,2
307,282,306,303,2
308,282,305,301,2
309,285,305,300,2
310,288,305,299,2
310,291,307,300,2
310,293,307,300,2
309,296,307,299,2
307,300,305,299,2
305,305,303,300,2
304,308,301,300,2
303,306,299,300,2
302,304,300,301,2
302,304,301,303,2
301,305,302,303,2
301,307,303,302,2
300,308,304,301,2
301,305,304,301,2
302,299,304,301,2
303,291,304,301,2
304,283,303,301,2
305,277,302,300,2
307,276,302,301,2
308,281,301,301,2
309,290,301,303,2
310,302,301,305,2
310,315,301,307,2
310,327,302,308,2
308,336,302,308,2
306,343,302,307,2
304,348,300,305,2
301,351,299,305,2
299,351,300,305,2
299,346,303,307,2
299,339,308,309,2
301,332,312,311,2
302,326,313,312,2
303,323,313,312,2
304,323,312,311,2
303,323,310,309,2
302,319,309,307,2
302,312,308,306,2
302,302,309,306,2
304,292,310,306,2
306,286,312,307,2
308,287,312,307,2
308,294,311,308,2
307,304,309,308,2
307,313,308,309,2
306,317,308,309,2
306,318,307,308,2
305,316,307,307,2
306,312,306,305,2
307,306,305,305,2
307,301,304,305,2
308,296,303,305,2
309,293,302,306,2
309,292,300,307,2
309,292,298,308,2
309,293,297,309,2
310,295,297,310,2
310,298,299,312,2
310,303,301,313,2
310,309,304,315,2
309,314,305,315,2
308,317,306,313,2
307,320,308,309,2
306,320,309,307,2
306,315,310,306,2
306,307,311,306,2
306,297,312,306,2
307,286,313,307,2
307,276,315,308,2
309,269,316,309,2
310,268,318,309,2
310,273,318,309,2
309,283,318,308,2
308,296,316,307,2
307,313,314,306,2
306,327,311,305,2
306,336,309,305,2
305,341,307,304,2
304,341,304,303,2
302,340,302,302,2
301,337,300,302,2
301,333,299,302,2
301,328,298,303,2
302,319,299,303,2
303,307,300,304,2
304,293,303,304,2
306,282,306,304,2
307,273,309,305,2
309,269,312,306,2
310,272,314,307,2
311,280,316,308,2
310,294,316,308,2
309,310,315,309,2
308,323,313,309,2
306,333,310,309,2
305,339,309,308,2
306,342,308,308,2
307,341,308,309,2
309,337,309,309,2
309,331,310,310,2
309,321,310,310,2
309,310,310,311,2
309,299,309,312,2
309,292,307,311,2
309,289,306,311,2
310,290,305,311,2
310,294,304,313,2
311,294,304,314,2
311,284,305,313,2
312,266,305,311,2
311,247,306,308,2
312,232,307,308,2
312,228,308,307,2
311,238,309,308,2
309,260,308,308,2
306,288,306,308,2
302,315,303,308,2
300,335,303,309,2
299,345,304,309,2
299,348,307,310,2
300,346,309,311,2
302,340,310,312,2
303,330,310,312,2
304,319,308,312,2
305,309,307,312,2
306,300,307,312,2
307,292,308,313,2
308,286,309,313,2
308,284,310,314,2
308,286,310,314,2
307,288,310,312,2
307,293,309,310,2
306,299,308,309,2
306,306,307,308,2
306,310,306,307,2
306,312,307,306,2
308,313,309,305,2
309,314,311,305,2
309,316,313,305,2
308,317,313,305,2
307,317,312,304,2
306,317,312,304,2
305,317,312,304,2
306,316,311,305,2
306,315,311,305,2
306,312,310,306,2
305,309,309,307,2
304,307,308,307,2
304,307,307,307,2
303,309,307,307,2
302,313,306,308,2
302,320,305,308,2
301,328,304,307,2
301,334,302,307,2
301,338,300,307,2
301,338,299,307,2
301,334,298,307,2
301,326,298,307,2
301,315,299,307,2
301,302,300,306,2
301,291,301,305,2
303,281,302,304,2
304,275,303,305,2
305,275,304,306,2
306,278,306,307,2
308,279,308,308,2
309,277,311,307,2
310,275,314,306,2
310,274,314,305,2
310,276,314,306,2
310,282,312,306,2
308,289,310,307,2
308,296,309,307,2
307,304,309,306,2
306,311,309,305,2
307,318,310,304,2
306,323,310,305,2
305,330,308,306,2
304,334,306,308,2
304,337,305,310,2
304,340,304,310,2
305,343,303,311,2
306,343,304,310,2
306,337,305,309,2
306,326,304,307,2
305,311,303,306,2
304,296,301,305,2
305,282,298,304,2
306,273,296,304,2
306,269,295,304,2
307,271,295,304,2
307,276,297,304,2
307,285,299,304,2
307,294,303,305,2
307,304,307,305,2
306,311,309,305,2
305,316,309,305,2
304,318,306,305,2
304,320,304,305,2
303,319,302,307,2
302,320,300,308,2
302,321,301,309,2
302,324,303,310,2
303,322,306,310,2
305,315,309,309,2
306,304,313,308,2
308,291,314,308,2
309,279,314,308,2
309,272,312,308,2
309,275,311,307,2
307,287,309,306,2
305,303,308,306,2
302,318,306,305,2
300,328,305,305,2
300,333,305,305,2
300,335,304,306,2
301,333,304,306,2
303,330,305,307,2
304,326,306,306,2
305,321,306,305,2
306,316,307,304,2
307,311,309,305,2
308,306,310,305,2
309,302,311,307,2
309,298,312,307,2
308,297,311,307,2
307,297,310,305,2
306,297,307,304,2
306,299,306,303,2
306,300,305,304,2
305,302,304,305,2
303,305,304,306,2
302,307,303,306,2
302,310,304,306,2
301,314,303,306,2
301,320,303,306,2
302,325,303,308,2
303,326,301,309,2
304,321,300,309,2
305,314,300,308,2
306,306,301,308,2
307,295,301,308,2
309,282,301,308,2
309,266,301,308,2
310,250,301,308,2
309,234,302,309,2
308,223,303,309,2
307,219,306,309,2
307,225,308,308,2
307,243,310,306,2
306,274,310,305,2
304,310,308,303,2
302,339,306,302,2
301,355,304,301,2
301,361,302,300,2
301,359,301,299,2
302,352,300,299,2
304,343,299,299,2
305,334,299,299,2
306,328,299,300,2
307,324,299,300,2
308,321,299,300,2
308,318,300,300,2
309,315,302,300,2
311,310,305,301,2
313,305,308,303,2
315,302,311,304,2
316,300,312,305,2
314,300,311,305,2
312,306,310,305,2
310,318,309,305,2
308,329,307,307,2
308,336,307,308,2
308,339,307,308,2
308,338,308,308,2
309,334,308,306,2
310,329,308,304,2
311,324,309,303,2
311,318,310,301,2
311,312,309,300,2
310,305,309,299,2
308,299,308,299,2
307,296,308,300,2
307,293,309,302,2
307,293,311,303,2
308,293,312,305,2
308,295,312,307,2
309,295,313,308,2
310,295,313,308,2
311,295,313,308,2
311,296,313,307,2
311,296,312,306,2
311,294,312,304,2
311,289,312,303,2
310,284,312,301,2
309,279,311,300,2
308,276,308,300,2
308,275,306,300,2
308,279,304,300,2
308,284,302,301,2
309,291,299,300,2
309,297,297,299,2
308,303,295,299,2
308,310,293,299,2
307,314,293,299,2
306,315,292,299,2
305,312,293,299,2
305,304,296,300,2
305,292,299,300,2
307,278,301,300,2
308,266,303,300,2
310,256,304,301,2
311,252,305,301,2
311,254,306,302,2
311,263,308,303,2
311,279,308,305,2
310,297,309,307,2
310,314,308,308,2
309,326,307,308,2
308,335,306,308,2
307,340,305,308,2
307,340,305,308,2
306,340,305,308,2
307,338,305,307,2
307,335,305,307,2
308,331,305,309,2
309,324,306,311,2
309,313,307,313,2
311,298,308,314,2
312,281,310,312,2
313,265,312,309,2
313,254,313,306,2
313,252,312,304,2
313,258,310,304,2
313,270,308,304,2
312,286,306,305,2
310,305,304,306,2
308,322,303,307,2
305,336,301,306,2
303,347,300,305,2
302,353,300,304,2
301,355,300,303,2
301,353,300,303,2
301,347,301,304,2
302,340,302,305,2
303,334,302,306,2
304,328,302,307,2
305,322,303,307,2
306,318,303,307,2
307,316,304,307,2
307,315,305,307,2
308,314,305,308,2
307,313,304,309,2
308,313,304,311,2
308,314,304,313,2
308,315,304,315,2
308,314,304,315,2
309,314,305,314,2
309,314,305,314,2
308,315,305,313,2
306,315,304,311,2
304,316,304,311,2
303,317,303,310,2
303,318,303,310,2
303,317,304,309,2
304,315,305,309,2
306,313,306,309,2
308,310,307,309,2
309,306,307,310,2
309,304,307,310,2
309,299,306,310,2
309,292,306,309,2
309,282,307,308,2
311,271,307,308,2
311,260,308,307,2
312,250,308,307,2
313,244,308,306,2
313,243,308,306,2
313,249,307,305,2
312,260,306,305,2
311,273,305,305,2
309,287,304,306,2
307,298,302,307,2
305,306,300,308,2
304,315,299,308,2
303,325,298,309,2
302,337,298,309,2
302,346,297,310,2
302,350,297,311,2
302,351,297,311,2
302,349,297,311,2
302,346,298,312,2
301,343,300,312,2
301,340,303,313,2
302,336,306,313,2
302,333,307,312,2
302,329,306,310,2
302,324,306,309,2
302,318,305,308,2
302,312,304,308,2
304,306,306,309,2
306,300,309,310,2
309,293,312,310,2
310,285,315,310,2
310,279,315,309,2
308,274,314,308,2
306,274,311,308,2
306,275,308,309,2
306,279,306,310,2
306,286,305,310,2
306,295,304,311,2
305,303,302,311,2
303,309,299,310,2
302,310,298,309,2
301,307,298,309,2
302,300,298,308,2
302,292,299,307,2
303,286,300,306,2
303,284,300,305,2
303,287,301,306,2
303,295,301,306,2
301,306,301,308,2
301,315,301,310,2
301,320,302,313,2
302,319,303,316,2
304,314,304,318,2
306,308,305,318,2
307,301,306,315,2
308,298,306,312,2
308,299,307,308,2
308,304,308,306,2
307,309,308,306,2
305,312,307,308,2
305,310,305,309,2
305,303,304,310,2
305,293,303,311,2
305,281,302,311,2
305,271,304,311,2
306,266,307,311,2
307,267,310,312,2
307,273,313,313,2
307,281,313,314,2
305,289,312,314,2
304,302,309,314,2
302,315,306,314,2
299,328,304,313,2
298,336,302,313,2
297,338,302,313,2
297,336,301,313,2
298,330,301,314,2
299,323,301,315,2
300,315,301,316,2
301,309,302,316,2
301,305,304,316,2
302,304,306,315,2
303,303,309,316,2
305,298,312,316,2
306,289,314,315,2
306,281,315,314,2
307,276,316,314,2
306,278,315,314,2
305,287,313,313,2
303,301,311,313,2
302,315,310,312,2
301,324,310,312,2
301,329,310,311,2
302,329,310,311,2
302,328,310,311,2
302,326,310,310,2
302,323,310,310,2
302,318,310,309,2
301,312,310,308,2
300,305,309,306,2
301,297,310,306,2
302,289,311,306,2
304,280,312,308,2
306,269,313,309,2
309,258,314,310,2
311,253,314,311,2
313,255,313,311,2
312,269,311,310,2
310,294,309,308,2
305,324,308,306,2
301,349,306,305,2
298,364,306,305,2
296,371,305,305,2
296,372,306,306,2
297,371,305,307,2
297,368,304,309,2
298,363,303,310,2
299,357,301,310,2
300,350,300,310,2
300,343,299,311,2
301,336,301,311,2
302,328,302,311,2
303,320,304,312,2
304,311,306,312,2
305,300,307,312,2
307,290,307,310,2
307,283,306,309,2
307,280,305,308,2
307,280,305,308,2
307,282,304,308,2
306,288,304,309,2
306,297,303,310,2
304,307,302,311,2
303,314,301,311,2
302,318,300,310,2
302,319,300,310,2
303,317,301,309,2
303,313,302,309,2
304,308,304,308,2
304,304,305,308,2
305,301,304,308,2
304,301,303,308,2
303,303,302,308,2
302,305,303,308,2
302,306,303,308,2
302,304,304,309,2
303,301,305,310,2
304,299,305,312,2
304,299,306,312,2
305,303,305,313,2
306,311,305,313,2
308,318,304,311,2
309,322,304,310,2
310,323,303,309,2
311,321,304,308,2
312,319,304,307,2
312,314,306,306,2
312,310,307,305,2
310,306,309,305,2
309,304,310,306,2
307,303,311,306,2
305,303,310,306,2
304,301,309,305,2
302,297,307,303,2
302,293,305,302,2
301,293,304,302,2
302,294,304,302,2
303,294,304,304,2
304,294,305,304,2
305,292,306,304,2
305,291,307,304,2
306,290,308,303,2
307,292,308,303,2
308,297,307,304,2
309,304,306,305,2
309,312,304,306,2
310,321,303,307,2
309,330,302,307,2
309,337,302,308,2
308,342,302,310,2
307,342,302,311,2
306,339,302,311,2
305,334,302,311,2
306,322,302,310,2
306,305,302,309,2
307,286,301,307,2
309,268,301,305,2
311,252,301,304,2
313,244,301,303,2
314,246,301,303,2
314,258,302,303,2
313,274,304,304,2
311,290,306,304,2
309,304,309,305,2
307,317,310,307,2
305,328,309,309,2
304,336,308,311,2
302,342,307,313,2
301,343,306,314,2
302,341,306,316,2
303,337,306,317,2
305,330,307,317,2
306,320,308,316,2
308,311,310,314,2
309,303,312,313,2
311,297,314,312,2
312,292,315,311,2
313,288,316,309,2
314,285,315,308,2
314,283,313,307,2
313,283,312,306,2
312,286,310,306,2
311,292,308,305,2
310,298,307,305,2
310,303,308,306,2
310,309,307,306,2
310,314,307,307,2
309,320,306,308,2
308,324,305,309,2
307,327,305,310,2
307,328,305,310,2
306,327,304,310,2
305,325,304,309,2
305,324,304,308,2
305,322,304,307,2
306,321,304,307,2
306,318,305,307,2
307,316,305,308,2
308,313,305,310,2
309,311,306,311,2
310,309,307,312,2
310,306,307,314,2
309,303,308,315,2
309,299,309,315,2
308,295,310,314,2
306,290,310,311,2
305,285,308,308,2
304,282,305,305,2
305,281,302,304,2
305,286,299,304,2
305,293,297,305,2
305,300,297,305,2
305,304,297,305,2
305,307,297,305,2
306,309,297,305,2
307,308,297,307,2
307,306,297,308,2
308,302,298,308,2
309,296,297,307,2
309,288,297,306,2
309,282,298,305,2
309,277,300,305,2
309,273,303,305,2
308,274,306,305,2
308,282,307,307,2
307,296,308,309,2
305,311,307,309,2
303,324,306,309,2
302,332,306,310,2
302,337,307,310,2
302,337,307,310,2
303,336,307,310,2
302,332,307,309,2
302,328,308,308,2
303,323,309,308,2
305,317,312,307,2
307,310,315,306,2
309,303,317,305,2
310,297,319,305,2
310,292,319,304,2
309,292,316,304,2
307,295,313,305,2
306,303,308,305,2
305,311,305,306,2
305,317,303,307,2
305,319,303,308,2
305,319,304,307,2
306,319,304,306,2
305,318,304,305,2
306,317,305,304,2
306,314,306,304,2
307,311,307,303,2
307,307,307,303,2
307,304,307,302,2
308,304,307,302,2
309,305,308,302,2
309,306,308,303,2
309,306,309,303,2
308,307,310,303,2
308,308,311,303,2
308,309,311,303,2
307,310,311,303,2
307,311,312,303,2
306,310,312,304,2
306,305,311,304,2
305,297,311,304,2
306,287,312,304,2
307,277,313,304,2
309,268,314,304,2
309,264,315,304,2
309,268,315,304,2
309,280,315,306,2
308,294,314,307,2
307,305,312,307,2
305,313,310,306,2
305,311,308,304,2
305,300,307,302,2
305,279,308,302,2
307,255,310,302,2
308,235,313,302,2
309,226,314,301,2
309,234,314,302,2
308,255,312,303,2
306,285,309,304,2
303,316,306,305,2
299,342,304,308,2
297,359,303,310,2
296,367,303,312,2
296,368,305,312,2
296,364,308,310,2
297,358,309,309,2
297,351,310,307,2
298,343,309,306,2
299,335,309,305,2
300,328,308,305,2
301,322,309,305,2
302,317,309,305,2
304,312,309,305,2
304,307,310,305,2
305,305,310,305,2
305,304,309,306,2
305,306,309,307,2
305,306,309,308,2
306,306,309,309,2
305,303,309,310,2
304,299,309,310,2
304,295,309,311,2
304,292,309,311,2
305,289,309,311,2
306,287,308,310,2
306,285,307,310,2
306,285,306,309,2
306,289,306,308,2
305,296,306,307,2
304,302,305,306,2
302,308,303,305,2
300,312,301,303,2
298,312,300,302,2
298,309,300,301,2
298,305,300,301,2
298,302,301,302,2
299,300,302,303,2
300,299,304,306,2
303,297,308,308,2
306,294,312,309,2
308,292,313,310,2
309,291,313,309,2
309,292,313,308,2
308,298,312,308,2
307,305,310,308,2
306,311,308,308,2
305,311,307,306,2
305,307,306,305,2
305,301,307,304,2
305,298,307,304,2
306,298,307,304,2
306,302,307,305,2
306,310,309,306,2
306,318,311,307,2
306,324,313,307,2
307,324,314,306,2
307,320,315,304,2
308,315,314,303,2
308,309,311,302,2
309,304,308,303,2
310,298,305,305,2
311,294,303,306,2
311,291,303,308,2
311,291,303,308,2
310,296,304,308,2
310,304,305,308,2
309,313,308,308,2
308,320,311,308,2
306,323,312,308,2
304,323,312,309,2
304,320,312,309,2
305,315,310,309,2
306,308,309,309,2
307,301,307,309,2
307,294,305,309,2
309,291,304,310,2
311,290,304,312,2
312,289,305,314,2
312,287,305,314,2
311,286,306,316,2
310,283,308,316,2
310,281,311,317,2
310,281,314,317,2
310,283,314,318,2
310,287,313,318,2
310,291,311,319,2
310,296,309,319,2
310,301,308,318,2
309,307,306,317,2
308,308,305,317,2
308,304,305,315,2
307,297,304,313,2
307,290,303,312,2
307,286,303,310,2
307,283,304,309,2
307,284,306,309,2
307,291,308,309,2
306,303,309,309,2
305,317,309,310,2
305,329,309,310,2
304,337,308,311,2
303,341,307,312,2
303,342,306,312,2
303,341,306,313,2
303,338,304,313,2
303,335,304,314,2
304,332,304,314,2
305,329,304,315,2
307,326,305,314,2
308,321,306,313,2
308,315,305,311,2
309,308,305,309,2
309,301,304,308,2
308,294,303,309,2
308,286,304,310,2
307,276,306,312,2
307,262,309,313,2
308,246,312,314,2
309,232,314,313,2
310,223,316,310,2
312,219,316,308,2
312,224,315,309,2
313,242,311,310,2
311,269,306,310,2
307,299,302,309,2
304,325,298,308,2
301,346,296,307,2
300,361,295,306,2
300,369,294,305,2
300,370,294,304,2
300,367,294,304,2
300,361,295,305,2
299,354,298,306,2
300,347,301,307,2
301,340,304,308,2
302,334,306,308,2
302,329,307,309,2
303,325,308,309,2
304,320,307,309,2
304,316,307,309,2
304,312,306,309,2
304,308,305,309,2
304,306,304,309,2
304,305,305,309,2
304,305,306,309,2
304,307,308,309,2
304,308,310,308,2
304,308,311,308,2
304,308,311,308,2
304,307,311,308,2
304,306,310,308,2
304,306,308,308,2
304,306,307,308,2
304,306,305,308,2
304,304,305,308,2
303,302,307,307,2
303,301,308,308,2
302,301,309,310,2
302,300,309,312,2
302,299,309,313,2
302,299,308,312,2
301,299,307,312,2
301,301,306,311,2
301,304,306,312,2
301,307,305,313,2
301,308,305,314,2
301,309,306,315,2
301,308,306,315,2
301,309,307,315,2
303,310,307,315,2
304,310,307,314,2
305,310,307,312,2
305,310,306,310,2
305,310,304,309,2
305,309,304,309,2
305,307,304,310,2
304,306,304,311,2
304,302,304,312,2
304,296,304,312,2
304,286,304,312,2
305,278,304,312,2
306,272,304,312,2
308,269,304,311,2
309,269,303,311,2
309,274,302,310,2
309,281,301,310,2
308,291,299,309,2
306,298,298,307,2
305,302,299,304,2
304,302,301,303,2
304,302,302,302,2
305,305,303,303,2
304,310,303,304,2
304,317,303,304,2
303,323,303,305,2
302,328,304,305,2
302,331,305,305,2
301,332,305,304,2
301,331,304,304,2
300,328,304,304,2
301,326,304,304,2
302,324,305,305,2
303,320,305,307,2
304,315,305,307,2
303,309,304,308,2
303,304,304,307,2
303,301,303,306,2
303,300,303,306,2
303,300,303,306,2
303,300,303,307,2
303,298,301,307,2
303,293,299,307,2
302,288,299,307,2
302,284,300,307,2
302,285,302,308,2
303,291,307,310,2
304,302,311,312,2
304,312,314,312,2
304,318,315,312,2
304,319,313,311,2
304,316,310,310,2
305,310,309,310,2
307,304,308,310,2
308,299,308,309,2
308,292,308,308,2
308,286,310,307,2
307,284,311,306,2
306,286,312,305,2
305,292,313,304,2
304,299,312,304,2
303,308,311,303,2
302,318,310,302,2
301,326,309,302,2
301,331,309,303,2
301,331,309,304,2
300,330,308,305,2
301,327,307,307,2
300,326,306,309,2
301,325,305,311,2
301,325,304,312,2
302,327,303,312,2
303,329,302,312,2
303,331,301,312,2
304,331,301,312,2
304,330,300,311,2
304,327,299,310,2
305,321,298,309,2
304,314,298,307,2
304,305,299,306,2
304,296,301,306,2
304,287,304,306,2
305,280,308,307,2
306,276,310,307,2
306,276,312,308,2
307,282,311,307,2
307,291,309,307,2
306,300,307,306,2
305,309,306,305,2
305,316,304,305,2
305,319,303,305,2
306,321,302,304,2
307,320,303,304,2
309,318,305,303,2
310,317,306,303,2
309,317,306,304,2
308,316,306,304,2
307,315,306,305,2
306,313,308,305,2
307,309,310,306,2
307,303,313,307,2
308,297,315,308,2
308,295,316,309,2
308,294,316,309,2
308,296,315,309,2
307,297,315,309,2
307,296,314,310,2
308,294,314,310,2
308,291,313,309,2
308,289,312,309,2
308,286,312,309,2
308,283,312,309,2
308,282,313,309,2
308,283,314,307,2
308,282,314,306,2
307,280,313,305,2
307,281,313,306,2
308,287,313,306,2
308,296,313,305,2
308,307,312,304,2
308,317,311,303,2
307,324,310,303,2
306,329,309,302,2
305,334,308,301,2
303,337,306,302,2
302,340,305,303,2
301,343,304,305,2
300,343,305,308,2
301,342,307,309,2
301,340,309,311,2
302,337,312,312,2
304,332,314,311,2
305,327,316,311,2
306,321,316,310,2
306,313,313,310,2
306,302,309,309,2
306,292,307,308,2
307,285,305,307,2
307,281,304,306,2
308,282,304,305,2
309,288,304,304,2
308,297,304,303,2
307,307,304,302,2
306,315,305,301,2
305,318,306,302,2
304,318,307,303,2
304,317,308,304,2
304,314,308,305,2
304,310,308,307,2
304,304,309,308,2
305,298,309,309,2
306,293,311,311,2
307,289,311,312,2
308,288,312,312,2
308,290,312,313,2
309,295,312,313,2
310,302,311,313,2
310,311,311,313,2
309,320,311,312,2
308,326,311,311,2
308,329,312,310,2
308,327,312,310,2
308,320,313,309,2
308,310,313,308,2
308,299,313,307,2
309,288,313,306,2
308,279,313,306,2
308,272,313,306,2
308,269,313,307,2
309,272,314,308,2
309,277,314,308,2
309,285,313,309,2
308,295,312,309,2
306,305,311,308,2
304,315,309,308,2
303,321,307,307,2
303,322,306,307,2
303,320,306,307,2
303,315,306,305,2
303,309,306,304,2
303,306,306,303,2
303,306,306,303,2
304,309,308,304,2
305,315,309,305,2
305,320,309,306,2
305,324,308,309,2
305,327,307,311,2
305,330,307,313,2
305,330,308,314,2
305,327,308,313,2
306,322,308,312,2
306,316,308,312,2
306,312,308,311,2
307,309,308,310,2
307,309,308,309,2
307,309,307,309,2
307,308,307,309,2
307,306,307,310,2
307,306,307,312,2
308,309,308,313,2
309,313,308,313,2
309,318,308,313,2
309,319,309,313,2
309,317,309,312,2
310,314,310,312,2
310,309,310,311,2
311,305,310,312,2
310,303,310,313,2
310,303,308,315,2
310,305,307,316,2
309,305,307,315,2
308,303,307,314,2
307,295,308,313,2
306,284,308,311,2
306,272,308,309,2
305,265,309,307,2
304,265,310,306,2
303,270,310,305,2
302,281,311,305,2
300,296,310,305,2
299,312,307,304,2
299,326,305,304,2
301,334,304,305,2
302,337,303,307,2
303,336,305,308,2
304,333,307,309,2
304,329,310,309,2
306,326,312,309,2
307,327,315,309,2
307,330,316,310,2
307,333,318,311,2
307,335,318,313,2
306,336,317,315,2
306,336,313,316,2
307,335,309,315,2
306,333,307,314,2
306,329,305,313,2
306,324,305,312,2
307,318,306,312,2
308,311,306,311,2
308,304,307,311,2
309,299,307,310,2
310,295,307,311,2
310,295,307,311,2
309,299,307,311,2
308,304,307,311,2
307,309,307,311,2
308,310,307,312,2
308,310,308,311,2
307,309,308,311,2
306,306,308,310,2
305,302,308,309,2
305,299,309,308,2
306,298,309,309,2
307,298,310,310,2
308,301,310,311,2
308,305,309,311,2
308,311,308,311,2
308,319,307,311,2
308,326,306,310,2
308,329,306,310,2
307,328,306,309,2
305,325,306,307,2
304,322,305,305,2
302,317,305,305,2
301,311,306,306,2
302,305,307,307,2
304,299,309,310,2
305,295,310,312,2
306,293,310,313,2
307,295,310,314,2
308,299,310,315,2
309,302,310,315,2
310,303,310,315,2
310,299,309,314,2
309,293,308,313,2
309,285,306,311,2
308,276,304,310,2
306,271,303,309,2
305,272,303,308,2
303,277,302,307,2
301,283,303,307,2
301,290,306,308,2
302,298,308,309,2
303,307,310,311,2
305,315,310,312,2
306,322,309,312,2
307,326,307,311,2
308,326,305,310,2
308,321,303,310,2
309,314,302,310,2
309,304,302,310,2
310,296,304,310,2
310,290,306,309,2
310,289,308,308,2
309,292,309,308,2
309,295,310,307,2
308,295,309,305,2
308,293,308,305,2
307,290,307,305,2
307,291,307,306,2
307,294,306,307,2
306,300,306,307,2
305,309,305,306,2
302,320,303,306,2
301,332,303,306,2
301,340,303,307,2
301,343,304,308,2
301,342,305,309,2
302,336,306,310,2
303,328,306,310,2
303,319,306,309,2
304,313,306,308,2
305,309,306,308,2
305,309,306,307,2
306,312,306,306,2
306,313,305,304,2
306,313,304,303,2
306,311,304,303,2
306,307,304,304,2
307,302,304,304,2
307,296,304,305,2
309,291,305,307,2
310,291,305,309,2
311,292,304,310,2
310,294,304,309,2
309,295,304,307,2
307,294,303,305,2
306,294,303,305,2
305,294,303,304,2
305,294,303,303,2
304,299,303,302,2
304,307,303,302,2
304,314,303,303,2
303,318,303,304,2
303,319,303,304,2
304,321,303,304,2
304,324,303,304,2
304,328,303,303,2
305,331,303,303,2
304,333,303,302,2
304,331,303,300,2
303,325,304,299,2
303,315,305,299,2
303,304,307,300,2
304,293,308,302,2
305,282,309,304,2
306,275,309,305,2
307,273,308,303,2
306,277,307,301,2
305,285,305,298,2
304,292,304,297,2
303,298,304,297,2
303,304,305,298,2
303,311,307,300,2
304,318,307,301,2
304,325,306,303,2
303,332,304,304,2
303,336,304,305,2
303,337,303,305,2
304,333,303,304,2
304,327,303,303,2
305,318,304,303,2
305,310,304,304,2
307,301,304,305,2
308,293,305,306,2
309,288,305,307,2
309,287,305,308,2
308,289,305,309,2
307,295,305,309,2
305,302,303,309,2
305,309,301,309,2
305,313,300,308,2
304,313,301,308,2
305,310,301,309,2
305,306,302,310,2
306,301,302,310,2
307,298,301,310,2
307,298,301,310,2
306,298,300,307,2
305,299,300,303,2
304,298,301,300,2
304,297,301,299,2
304,295,301,299,2
305,292,301,301,2
306,289,303,304,2
307,286,304,305,2
308,285,305,306,2
308,283,305,306,2
308,282,305,305,2
308,281,306,304,2
308,281,306,304,2
308,279,306,303,2
308,278,306,304,2
309,279,306,305,2
309,284,306,307,2
309,293,304,307,2
308,305,303,308,2
307,315,303,308,2
307,320,304,307,2
307,321,305,306,2
308,320,305,307,2
308,320,306,307,2
307,320,306,308,2
307,319,305,309,2
306,318,304,309,2
305,315,303,309,2
304,311,303,308,2
305,304,304,308,2
305,297,305,308,2
306,292,305,308,2
308,291,306,308,2
310,292,306,308,2
311,295,307,308,2
312,301,307,306,2
312,309,307,305,2
312,318,307,304,2
311,326,306,304,2
310,333,304,304,2
310,334,303,303,2
309,331,302,303,2
308,323,302,303,2
308,315,304,303,2
309,307,306,303,2
310,300,308,304,2
311,297,310,305,2
313,297,312,306,2
314,302,313,307,2
315,310,313,308,2
314,319,311,310,2
313,328,309,310,2
311,337,307,311,2
310,342,306,311,2
309,341,306,310,2
307,334,307,308,2
307,325,308,307,2
307,316,308,307,2
308,308,309,307,2
309,302,309,307,2
309,301,309,308,2
309,303,308,308,2
309,306,307,308,2
308,309,307,307,2
307,311,306,306,2
306,311,306,304,2
306,310,306,304,2
307,308,307,304,2
308,306,307,305,2
308,304,308,306,2
308,301,308,307,2
308,298,308,307,2
307,291,308,307,2
307,283,310,306,2
308,272,311,306,2
308,264,311,304,2
308,261,310,304,2
308,263,307,303,2
307,269,306,303,2
307,280,305,304,2
307,296,305,306,2
306,313,304,308,2
305,327,302,308,2
303,335,301,307,2
302,338,299,305,2
302,337,298,303,2
302,334,298,301,2
303,328,299,302,2
305,321,301,302,2
306,311,303,303,2
308,301,305,304,2
309,291,307,305,2
309,282,308,305,2
308,272,310,305,2
307,265,311,304,2
307,262,311,304,2
307,263,312,305,2
306,266,313,305,2
306,272,313,305,2
307,279,314,307,2
309,287,315,308,2
311,294,315,309,2
313,300,314,310,2
314,304,311,311,2
313,310,307,311,2
311,314,303,310,2
308,315,299,308,2
305,316,297,307,2
302,317,297,306,2
300,319,299,306,2
298,320,301,307,2
297,319,304,307,2
297,315,306,306,2
297,311,309,305,2
298,310,311,305,2
299,310,313,306,2
301,311,313,307,2
302,312,314,308,2
303,314,314,309,2
305,317,313,311,2
305,320,312,311,2
306,323,310,311,2
305,327,308,310,2
305,328,306,310,2
305,326,305,309,2
305,323,304,308,2
306,318,304,308,2
306,316,305,309,2
306,316,305,309,2
306,318,305,309,2
307,319,305,309,2
307,321,304,309,2
307,321,304,309,2
307,319,304,309,2
306,314,305,308,2
306,306,306,308,2
306,298,307,308,2
306,290,308,308,2
307,284,308,308,2
308,279,307,309,2
309,275,306,309,2
309,275,306,309,2
308,279,304,309,2
307,284,303,309,2
307,287,302,308,2
307,287,301,307,2
307,287,301,307,2
306,287,302,308,2
305,289,304,309,2
304,291,306,310,2
303,294,308,311,2
302,296,310,312,2
302,298,310,312,2
303,302,310,313,2
304,308,310,314,2
305,316,311,314,2
305,324,310,315,2
304,329,309,316,2
305,332,308,316,2
304,334,307,317,2
302,336,306,316,2
300,335,304,314,2
298,332,304,311,2
297,327,303,307,2
296,322,302,305,2
296,316,302,303,2
296,311,303,302,2
297,306,305,302,2
297,301,307,301,2
298,296,307,301,2
300,291,308,301,2
301,287,309,301,2
302,284,309,301,2
303,283,309,303,2
304,284,309,305,2
304,287,308,308,2
304,295,308,310,2
304,305,307,313,2
304,315,307,316,2
306,321,307,317,2
306,321,306,316,2
305,317,305,314,2
304,312,305,313,2
304,306,305,312,2
305,302,306,312,2
305,301,307,312,2
306,301,307,312,2
306,301,306,311,2
305,303,305,310,2
305,304,303,310,2
305,306,302,310,2
306,308,302,310,2
306,308,301,311,2
306,307,301,311,2
306,307,301,310,2
306,309,301,310,2
305,312,302,309,2
305,316,303,309,2
306,319,304,308,2
306,320,306,307,2
306,320,307,306,2
305,318,307,306,2
305,316,307,307,2
306,314,306,309,2
305,312,306,311,2
306,310,306,312,2
307,309,306,314,2
307,308,306,314,2
308,308,306,313,2
309,309,306,312,2
309,310,305,311,2
310,310,306,311,2
310,311,306,312,2
310,311,307,313,2
310,310,306,314,2
309,309,306,314,2
309,307,305,314,2
308,305,304,312,2
307,304,303,311,2
306,302,303,310,2
306,298,303,309,2
306,292,303,309,2
307,283,304,309,2
309,271,305,310,2
310,258,307,309,2
311,244,308,309,2
312,233,309,310,2
313,229,310,311,2
315,229,311,311,2
315,233,311,311,2
314,242,310,310,2
312,256,310,310,2
311,275,310,311,2
308,299,311,311,2
305,321,311,312,2
302,339,310,312,2
299,351,307,310,2
297,356,304,308,2
296,356,301,306,2
296,350,299,304,2
297,341,297,303,2
298,332,297,304,2
300,324,297,305,2
301,318,297,305,2
302,316,298,306,2
302,317,298,308,2
303,317,298,309,2
304,317,299,311,2
304,317,300,311,2
303,318,303,311,2
303,318,305,310,2
303,319,306,309,2
302,322,306,308,2
302,324,304,308,2
301,324,303,307,2
301,323,303,306,2
301,320,303,304,2
301,313,303,303,2
302,307,303,302,2
303,303,304,301,2
304,301,305,301,2
306,300,305,302,2
308,303,305,303,2
309,307,304,304,2
309,311,302,303,2
308,314,301,303,2
308,315,301,302,2
308,315,302,301,2
307,314,302,301,2
307,313,302,301,2
307,311,302,301,2
306,306,302,301,2
306,296,302,301,2
307,283,304,301,2
308,268,306,302,2
309,255,308,304,2
310,245,309,305,2
311,240,310,306,2
312,242,312,307,2
313,252,312,308,2
312,266,312,308,2
310,281,310,308,2
308,294,308,307,2
307,305,307,307,2
306,313,305,307,2
304,319,304,307,2
303,320,304,307,2
302,320,305,306,2
303,319,307,306,2
303,318,310,307,2
303,317,311,307,2
303,318,311,306,2
303,321,311,305,2
303,324,310,305,2
303,326,311,306,2
303,327,311,307,2
303,326,311,307,2
303,324,312,308,2
303,321,312,309,2
303,317,312,310,2
303,312,312,310,2
304,307,310,311,2
305,302,309,312,2
305,298,308,313,2
305,295,307,313,2
303,294,305,312,2
301,295,303,310,2
299,299,302,308,2
298,305,301,306,2
298,309,302,306,2
300,311,305,306,2
302,310,307,307,2
303,305,307,307,2
305,297,307,306,2
306,288,307,305,2
307,280,308,304,2
308,276,309,304,2
308,274,309,305,2
308,276,310,305,2
308,280,309,305,2
307,287,309,305,2
306,296,310,304,2
306,307,309,304,2
305,317,308,304,2
305,325,306,304,2
305,329,305,306,2
305,331,304,308,2
306,330,304,310,2
307,325,305,311,2
307,318,305,311,2
307,312,305,310,2
307,309,304,309,2
308,307,304,307,2
308,306,303,307,2
308,305,304,306,2
308,301,304,305,2
307,297,305,305,2
307,294,305,305,2
306,291,306,304,2
306,287,306,304,2
305,284,306,303,2
305,285,305,303,2
305,290,305,302,2
305,299,305,302,2
305,306,304,302,2
305,311,304,302,2
304,313,303,302,2
304,315,302,302,2
304,315,301,303,2
304,314,301,304,2
304,312,300,305,2
305,309,300,306,2
306,304,301,306,2
307,300,303,305,2
309,297,304,303,2
309,296,305,303,2
309,300,304,303,2
308,308,304,304,2
307,320,303,304,2
305,332,303,305,2
304,339,304,306,2
303,341,305,307,2
303,338,305,307,2
303,332,305,307,2
304,326,305,306,2
306,321,306,304,2
307,317,307,304,2
308,314,308,304,2
310,314,310,304,2
312,316,313,305,2
313,317,315,306,2
312,316,316,306,2
311,312,314,306,2
309,306,310,306,2
308,301,305,307,2
307,296,302,307,2
307,292,301,306,2
307,287,301,306,2
308,285,301,306,2
308,286,304,307,2
308,290,305,307,2
308,294,306,308,2
307,299,307,307,2
307,303,308,306,2
306,306,309,304,2
307,308,310,303,2
307,308,311,303,2
308,308,312,303,2
308,307,311,302,2
308,308,311,301,2
307,309,311,301,2
306,311,311,301,2
305,312,310,303,2
304,313,309,304,2
303,314,309,307,2
303,317,308,308,2
302,322,307,308,2
302,327,307,308,2
301,330,307,308,2
301,329,307,307,2
301,327,307,307,2
302,324,308,306,2
302,321,308,306,2
302,319,308,306,2
303,317,309,305,2
303,315,310,305,2
304,311,311,306,2
304,303,311,306,2
305,292,311,306,2
306,283,311,307,2
307,278,311,309,2
308,276,311,309,2
307,279,310,309,2
307,287,310,311,2
307,300,310,313,2
308,316,310,316,2
307,329,310,316,2
307,337,308,314,2
305,340,305,311,2
304,339,303,308,2
303,334,303,306,2
303,329,304,306,2
303,325,305,307,2
303,323,307,309,2
303,322,308,311,2
303,320,309,312,2
303,317,310,313,2
303,314,310,313,2
303,312,310,313,2
303,309,310,313,2
304,303,311,312,2
304,296,310,311,2
304,293,310,310,2
304,292,309,310,2
303,294,307,310,2
304,297,306,311,2
304,302,304,311,2
304,306,304,311,2
305,309,305,311,2
305,311,306,311,2
305,312,307,310,2
304,314,309,310,2
304,316,311,310,2
303,315,311,310,2
302,311,310,311,2
302,302,309,312,2
303,291,309,313,2
305,280,309,315,2
307,271,309,316,2
308,266,308,317,2
308,264,308,317,2
307,265,308,317,2
307,269,310,317,2
308,275,314,317,2
308,281,317,316,2
308,289,319,314,2
308,298,317,312,2
306,310,314,309,2
302,325,310,306,2
299,338,307,305,2
296,347,306,304,2
295,351,304,304,2
295,351,302,304,2
294,347,302,304,2
294,343,302,305,2
294,338,304,307,2
295,334,305,309,2
297,332,306,312,2
299,328,308,314,2
300,322,308,314,2
301,315,309,315,2
302,308,311,315,2
303,300,312,316,2
304,294,313,316,2
305,290,314,316,2
306,289,313,315,2
306,290,313,313,2
307,292,312,311,2
306,294,311,310,2
305,298,309,308,2
304,301,308,308,2
304,304,307,307,2
303,307,307,307,2
303,308,306,305,2
302,308,305,304,2
301,305,304,302,2
301,299,304,301,2
301,292,307,302,2
301,285,310,304,2
301,282,313,305,2
302,281,315,307,2
303,281,315,309,2
304,280,315,311,2
305,281,315,313,2
307,286,314,315,2
307,295,313,315,2
307,307,311,315,2
306,318,310,314,2
305,328,309,312,2
305,334,309,311,2
304,337,309,310,2
304,338,309,309,2
304,335,311,311,2
304,328,313,312,2
305,318,314,314,2
306,307,314,315,2
306,296,313,316,2
307,287,311,316,2
307,283,310,315,2
306,286,309,313,2
305,296,307,311,2
303,311,306,309,2
302,324,304,308,2
300,333,302,307,2
300,337,302,306,2
301,338,301,305,2
302,336,302,305,2
303,333,302,306,2
304,331,304,307,2
304,329,305,307,2
305,327,304,307,2
304,325,304,305,2
304,322,304,304,2
304,317,306,304,2
306,310,308,304,2
307,303,311,304,2
308,297,314,304,2
309,292,315,304,2
310,289,316,303,2
310,288,316,303,2
310,290,316,303,2
309,296,316,305,2
308,301,315,306,2
305,305,314,307,2
302,308,311,307,2
301,311,311,307,2
300,314,310,306,2
301,317,310,306,2
302,319,310,306,2
303,318,310,306,2
304,313,310,307,2
304,307,310,306,2
305,302,311,306,2
305,297,312,305,2
305,294,311,305,2
304,290,310,304,2
304,285,309,303,2
304,279,308,303,2
304,273,308,303,2
305,270,308,303,2
305,273,309,304,2
304,283,309,305,2
304,298,309,305,2
303,313,309,304,2
303,325,309,304,2
303,332,309,305,2
304,336,309,306,2
304,339,309,307,2
304,342,310,308,2
305,342,310,307,2
306,337,310,305,2
306,329,309,303,2
307,320,309,300,2
308,311,310,298,2
310,304,311,297,2
311,302,313,298,2
312,304,315,298,2
311,311,315,300,2
310,318,314,301,2
308,324,312,302,2
306,329,309,304,2
305,331,308,305,2
305,331,307,305,2
305,329,306,305,2
305,327,305,304,2
304,327,304,305,2
304,327,304,306,2
303,325,305,308,2
304,321,305,309,2
304,314,306,310,2
305,305,306,310,2
307,297,306,309,2
307,291,306,307,2
307,286,306,305,2
306,285,306,303,2
305,286,306,302,2
305,289,306,301,2
305,292,305,301,2
305,293,304,300,2
305,294,304,300,2
305,292,304,300,2
305,289,304,301,2
305,286,306,304,2
305,280,309,307,2
306,274,311,309,2
306,272,312,309,2
306,274,311,308,2
305,281,309,305,2
305,289,308,303,2
305,299,307,301,2
304,305,306,298,2
304,308,305,296,2
303,310,304,296,2
303,312,304,295,2
303,314,305,297,2
303,317,307,299,2
303,320,308,301,2
303,321,307,304,2
302,321,307,305,2
302,320,307,305,2
301,317,308,304,2
302,315,309,304,2
302,313,310,304,2
304,312,310,304,2
305,311,311,305,2
305,311,311,305,2
305,310,310,305,2
305,311,310,306,2
305,313,310,307,2
305,315,310,308,2
304,319,309,308,2
304,323,308,307,2
303,323,307,306,2
303,322,306,306,2
302,319,306,306,2
302,317,307,306,2
303,316,307,306,2
304,313,308,307,2
305,312,309,309,2
307,311,311,309,2
308,310,312,309,2
309,309,312,309,2
310,307,313,308,2
311,304,313,308,2
312,303,313,308,2
313,303,313,309,2
313,304,312,310,2
312,307,312,310,2
311,310,310,310,2
311,312,309,308,2
311,311,308,306,2
311,310,307,305,2
311,308,306,305,2
310,307,304,305,2
309,310,304,305,2
309,314,304,305,2
308,317,304,306,2
309,313,305,307,2
309,303,305,309,2
310,291,304,310,2
310,279,304,312,2
310,270,303,312,2
310,266,302,312,2
311,268,302,310,2
310,278,302,309,2
310,290,302,309,2
309,299,304,309,2
309,303,305,309,2
310,304,305,309,2
310,305,306,308,2
310,308,305,306,2
309,313,304,305,2
308,319,302,304,2
306,325,302,304,2
306,329,302,305,2
306,329,303,307,2
307,326,304,309,2
308,322,304,310,2
307,320,304,310,2
306,321,304,309,2
306,326,303,309,2
306,329,303,309,2
306,328,303,308,2
306,324,303,307,2
306,316,303,307,2
306,308,303,306,2
307,301,303,306,2
307,296,303,306,2
307,294,304,307,2
307,295,304,307,2
307,298,304,307,2
307,301,303,307,2
307,302,303,307,2
308,304,303,307,2
309,306,303,308,2
310,308,304,309,2
311,309,304,308,2
311,309,304,308,2
311,309,303,307,2
310,308,303,306,2
309,306,303,305,2
308,302,303,304,2
307,300,303,305,2
307,300,303,306,2
307,300,303,307,2
308,295,303,307,2
308,285,304,307,2
308,274,305,308,2
308,266,306,309,2
308,261,306,310,2
309,258,306,311,2
310,257,306,310,2
311,260,307,310,2
311,265,307,309,2
312,264,307,309,2
312,257,307,308,2
313,246,307,308,2
313,236,306,307,2
314,230,305,306,2
314,232,305,305,2
313,246,304,303,2
311,271,304,301,2
310,301,302,300,2
309,329,302,300,2
309,352,302,301,2
309,364,302,301,2
309,365,302,301,2
309,357,301,301,2
308,349,300,301,2
307,342,298,300,2
306,340,297,301,2
306,342,295,302,2
305,344,295,303,2
305,345,295,305,2
304,344,296,306,2
304,341,297,307,2
303,337,299,307,2
302,334,301,308,2
303,334,304,308,2
304,334,306,309,2
304,335,307,309,2
305,333,307,308,2
306,326,307,307,2
306,316,307,306,2
306,304,307,305,2
307,292,307,304,2
308,281,308,304,2
309,272,310,304,2
310,269,310,304,2
310,273,309,304,2
309,281,308,304,2
308,290,307,304,2
307,294,306,303,2
306,294,305,302,2
306,292,305,301,2
306,291,305,301,2
307,291,305,302,2
308,289,305,303,2
309,286,305,304,2
309,283,304,305,2
309,278,304,306,2
310,270,303,305,2
311,259,304,305,2
312,249,305,304,2
313,241,305,302,2
314,240,305,302,2
314,243,306,302,2
315,250,306,301,2
314,264,306,301,2
312,283,305,302,2
309,308,304,303,2
306,332,303,304,2
303,352,302,305,2
302,364,302,305,2
302,371,302,306,2
303,373,302,307,2
304,371,302,308,2
305,366,301,310,2
306,361,301,311,2
307,353,302,313,2
308,342,302,313,2
308,327,302,312,2
309,310,302,311,2
311,294,302,310,2
312,281,300,309,2
313,274,299,308,2
313,275,299,308,2
311,285,300,308,2
310,298,302,308,2
309,311,304,308,2
308,321,305,309,2
307,328,305,310,2
306,331,305,310,2
305,329,304,310,2
304,324,304,311,2
304,320,303,313,2
304,319,303,314,2
305,318,303,314,2
305,316,303,312,2
305,312,303,310,2
306,308,304,308,2
307,304,305,306,2
308,302,306,305,2
309,300,306,306,2
310,298,306,307,2
310,295,306,308,2
310,293,305,309,2
310,292,304,310,2
310,290,305,311,2
310,290,306,311,2
311,290,307,311,2
311,291,309,313,2
312,294,309,315,2
313,298,310,316,2
314,296,310,316,2
314,288,310,316,2
314,274,310,315,2
314,258,310,314,2
313,242,309,312,2
313,233,309,311,2
313,235,308,311,2
314,247,308,311,2
313,263,307,309,2
311,279,305,308,2
309,294,304,307,2
306,308,302,305,2
305,321,301,305,2
305,332,300,304,2
305,342,300,305,2
306,349,300,305,2
307,354,302,306,2
309,356,303,307,2
310,352,304,308,2
311,345,305,309,2
312,337,306,310,2
313,328,307,311,2
314,319,307,312,2
314,312,308,312,2
313,308,308,314,2
312,305,308,314,2
312,303,308,315,2
311,304,308,314,2
311,310,308,314,2
311,317,308,313,2
311,320,309,313,2
312,321,309,312,2
311,320,309,312,2
310,319,308,311,2
309,315,307,311,2
307,309,306,311,2
305,305,305,310,2
304,301,304,310,2
304,294,304,310,2
304,285,303,310,2
303,279,303,310,2
303,280,304,310,2
304,288,303,311,2
304,302,303,311,2
304,317,302,311,2
304,330,302,311,2
304,338,303,310,2
304,340,305,310,2
305,338,308,311,2
306,332,310,311,2
306,326,312,312,2
306,320,312,313,2
306,315,313,314,2
307,313,313,314,2
307,313,314,314,2
307,313,314,314,2
307,312,313,313,2
308,309,313,312,2
307,308,313,310,2
306,309,313,308,2
305,312,312,308,2
304,316,310,309,2
304,321,307,309,2
304,324,306,310,2
304,326,305,310,2
304,327,305,311,2
305,326,307,311,2
306,322,308,311,2
306,317,309,312,2
306,310,310,312,2
306,303,311,311,2
306,297,311,311,2
306,292,311,309,2
307,292,310,308,2
308,296,309,306,2
308,302,308,305,2
309,305,308,306,2
310,307,309,307,2
310,309,309,309,2
311,311,309,309,2
311,313,308,309,2
310,314,307,309,2
310,317,306,309,2
310,319,305,309,2
309,320,304,307,2
309,321,302,305,2
308,322,302,304,2
307,320,302,302,2
306,316,304,301,2
305,310,309,300,2
306,304,314,299,2
308,298,319,299,2
309,292,322,299,2
309,287,323,300,2
309,286,322,303,2
308,289,319,305,2
306,295,315,308,2
304,301,311,309,2
302,307,308,309,2
302,314,307,309,2
302,320,306,309,2
302,324,306,310,2
302,327,306,310,2
303,326,306,311,2
303,324,306,311,2
305,321,305,311,2
305,319,306,311,2
305,318,306,312,2
305,317,307,311,2
306,314,309,311,2
306,308,309,312,2
307,302,309,313,2
307,297,309,314,2
307,292,309,315,2
307,287,309,315,2
308,284,308,315,2
310,281,309,314,2
311,280,310,312,2
311,281,309,311,2
311,285,309,310,2
309,294,308,309,2
308,306,307,308,2
306,314,306,307,2
306,318,306,306,2
305,318,306,304,2
305,315,305,303,2
305,312,305,303,2
305,309,306,302,2
306,308,306,302,2
306,308,306,303,2
306,309,306,304,2
305,310,306,304,2
305,311,306,304,2
306,314,305,304,2
306,317,306,304,2
307,317,306,304,2
309,314,307,306,2
309,309,308,306,2
309,304,307,307,2
308,303,306,309,2
307,305,304,311,2
306,307,301,313,2
304,310,300,314,2
303,313,300,312,2
303,316,302,310,2
303,319,303,308,2
303,321,303,306,2
302,322,303,305,2
301,322,303,305,2
301,321,303,305,2
300,321,303,306,2
300,323,303,306,2
301,325,302,307,2
300,326,302,307,2
300,327,302,307,2
301,326,302,307,2
301,326,303,308,2
302,325,304,309,2
303,325,305,310,2
304,324,304,310,2
305,322,304,309,2
305,319,303,307,2
305,315,302,307,2
305,314,301,306,2
306,312,301,306,2
307,311,301,305,2
308,310,301,305,2
308,308,301,304,2
308,305,300,304,2
308,303,300,304,2
307,302,299,304,2
306,302,299,305,2
306,304,299,305,2
305,304,299,305,2
305,303,298,305,2
305,302,298,305,2
304,301,298,305,2
305,299,299,304,2
305,299,301,305,2
306,299,303,306,2
307,301,305,307,2
308,302,306,309,2
309,303,305,310,2
309,303,304,310,2
308,304,303,309,2
308,304,303,309,2
308,306,302,309,2
308,307,302,310,2
308,308,302,311,2
307,308,302,311,2
307,308,302,311,2
306,309,302,311,2
306,310,303,311,2
305,309,302,312,2
306,305,302,311,2
306,298,302,310,2
306,290,301,307,2
306,282,301,306,2
305,277,301,306,2
305,277,300,307,2
305,282,301,309,2
305,292,302,309,2
305,303,302,309,2
304,312,302,308,2
303,318,301,307,2
302,320,301,306,2
302,318,301,305,2
302,309,301,305,2
303,296,301,305,2
304,282,301,306,2
306,269,301,307,2
307,258,302,308,2
308,254,302,310,2
309,257,303,311,2
309,267,302,312,2
307,279,302,311,2
306,292,302,310,2
304,302,301,309,2
302,314,301,307,2
300,327,301,306,2
299,337,300,305,2
299,342,300,304,2
301,341,300,304,2
302,337,301,304,2
304,333,301,304,2
305,327,302,304,2
307,323,302,304,2
308,320,303,304,2
308,319,302,304,2
308,319,302,305,2
306,321,300,305,2
305,325,299,306,2
304,328,298,308,2
304,328,299,309,2
305,327,300,311,2
305,324,302,313,2
307,320,303,315,2
308,316,304,316,2
309,315,304,315,2
309,316,305,313,2
309,318,304,311,2
308,320,304,310,2
308,320,304,309,2
308,319,303,308,2
308,317,303,307,2
309,314,303,306,2
309,310,303,307,2
309,306,303,307,2
308,304,302,308,2
307,304,301,308,2
306,305,300,308,2
305,308,299,306,2
304,311,299,305,2
303,315,300,304,2
303,318,301,304,2
304,320,302,303,2
305,321,301,304,2
305,322,300,304,2
306,322,299,306,2
307,322,299,306,2
307,321,298,305,2
307,317,299,304,2
308,313,300,304,2
308,308,302,303,2
309,304,304,304,2
309,299,306,305,2
308,294,306,306,2
307,290,306,307,2
305,286,306,307,2
305,282,306,307,2
304,278,305,307,2
305,274,303,308,2
305,272,301,309,2
305,273,298,310,2
305,274,294,308,2
304,276,291,306,2
304,281,288,302,2
302,290,286,299,2
301,302,286,296,2
299,313,287,292,2
298,321,290,290,2
297,324,293,291,2
297,323,297,293,2
298,318,301,297,2
301,311,305,301,2
303,305,307,304,2
305,300,309,308,2
306,297,309,310,2
307,293,310,312,2
308,291,310,313,2
309,289,310,314,2
309,288,310,315,2
309,287,309,314,2
308,289,308,315,2
307,295,307,315,2
306,303,305,314,2
304,309,305,313,2
302,314,305,311,2
301,321,305,308,2
301,327,306,305,2
300,333,307,304,2
301,336,308,303,2
300,339,309,304,2
300,343,309,304,2
300,346,309,305,2
300,347,309,305,2
301,346,309,304,2
302,344,310,304,2
303,342,310,302,2
304,339,310,301,2
304,335,310,301,2
303,333,310,300,2
303,331,309,300,2
303,329,309,301,2
304,325,308,302,2
304,322,307,303,2
304,320,306,303,2
304,317,305,302,2
304,313,303,301,2
304,305,301,299,2
304,295,300,298,2
303,283,298,297,2
304,271,298,297,2
304,260,297,297,2
305,254,299,299,2
306,252,302,300,2
307,257,305,302,2
308,269,308,304,2
307,284,310,305,2
306,301,311,305,2
305,315,310,306,2
303,322,309,306,2
303,324,307,305,2
304,319,306,305,2
305,311,305,304,2
305,302,304,304,2
305,297,304,303,2
304,296,303,303,2
303,300,303,303,2
303,307,303,304,2
302,316,303,304,2
301,323,303,305,2
300,325,304,305,2
300,324,304,305,2
300,321,304,305,2
300,319,304,307,2
301,318,304,309,2
301,320,304,310,2
302,322,304,311,2
302,325,303,311,2
302,327,303,311,2
301,330,303,309,2
301,331,303,308,2
300,330,304,308,2
301,326,304,306,2
300,321,305,306,2
300,315,305,306,2
300,310,305,307,2
300,307,305,308,2
300,305,305,308,2
300,304,304,308,2
300,302,304,308,2
300,300,304,308,2
300,298,305,309,2
301,296,306,310,2
302,294,306,312,2
303,294,306,312,2
303,295,306,311,2
303,297,307,309,2
303,300,307,308,2
303,304,308,308,2
303,309,308,308,2
303,313,309,308,2
303,317,309,307,2
303,318,308,306,2
303,320,306,306,2
303,320,305,307,2
304,318,305,309,2
305,314,305,309,2
305,307,304,309,2
306,299,304,307,2
306,290,305,305,2
307,282,305,304,2
308,275,305,302,2
308,268,304,302,2
309,263,305,302,2
310,262,305,302,2
310,267,307,302,2
310,278,310,303,2
309,291,313,305,2
309,303,314,307,2
308,310,315,309,2
307,311,314,310,2
308,307,313,311,2
308,305,313,311,2
309,306,312,312,2
309,312,312,312,2
309,320,311,311,2
308,330,309,310,2
307,339,308,308,2
305,347,306,306,2
305,351,305,306,2
305,351,306,306,2
305,348,307,306,2
306,342,308,306,2
307,333,309,305,2
307,323,309,304,2
308,315,309,304,2
308,308,309,305,2
310,304,310,306,2
310,301,310,306,2
310,302,310,307,2
310,305,310,308,2
309,309,309,309,2
308,314,307,309,2
307,318,305,309,2
306,320,304,309,2
305,321,303,309,2
305,319,303,308,2
305,316,303,308,2
306,312,303,308,2
306,309,303,308,2
306,306,304,307,2
306,303,304,307,2
306,302,304,306,2
306,300,304,306,2
306,298,304,305,2
307,296,305,305,2
308,294,305,305,2
310,292,305,305,2
312,289,306,306,2
313,287,305,306,2
313,283,306,306,2
313,282,306,307,2
314,281,306,308,2
314,281,306,309,2
313,283,306,310,2
313,287,305,309,2
312,295,305,309,2
311,306,304,308,2
310,317,302,307,2
309,323,302,306,2
310,323,302,306,2
310,319,303,306,2
312,314,304,306,2
313,306,305,306,2
314,299,307,306,2
314,295,307,306,2
314,295,305,306,2
313,295,303,306,2
311,296,302,305,2
310,299,302,305,2
309,306,302,305,2
308,315,303,305,2
307,322,303,306,2
306,326,303,307,2
305,326,303,308,2
305,323,303,308,2
305,318,302,307,2
305,311,301,307,2
305,304,301,306,2
305,299,302,306,2
306,301,304,306,2
307,306,307,308,2
308,314,309,310,2
308,320,309,311,2
308,324,309,310,2
308,326,308,309,2
308,325,307,307,2
309,325,306,307,2
308,322,305,307,2
308,319,306,307,2
308,316,307,307,2
308,310,307,307,2
308,305,308,308,2
309,300,308,309,2
309,297,308,310,2
309,299,307,311,2
308,302,306,312,2
308,305,305,312,2
307,305,304,311,2
306,304,303,311,2
305,302,303,310,2
305,300,303,309,2
305,299,303,308,2
306,301,303,308,2
305,303,303,309,2
305,305,303,311,2
306,305,304,313,2
306,302,305,316,2
307,297,306,317,2
308,290,307,317,2
307,283,307,315,2
307,278,306,312,2
305,277,305,309,2
304,282,304,307,2
303,287,303,305,2
302,294,303,303,2
301,301,302,302,2
301,309,302,301,2
301,312,301,300,2
301,311,300,300,2
301,306,300,300,2
302,301,301,300,2
303,298,301,301,2
304,297,302,303,2
305,297,302,304,2
306,301,302,306,2
306,307,303,307,2
306,313,303,309,2
306,316,303,310,2
306,317,303,310,2
306,317,303,310,2
305,316,303,309,2
305,315,302,308,2
305,312,302,307,2
305,306,303,306,2
306,300,304,305,2
306,294,304,305,2
306,289,305,305,2
306,286,305,307,2
306,286,304,307,2
305,293,302,308,2
304,305,300,308,2
303,317,298,308,2
303,326,297,308,2
302,331,297,307,2
300,333,296,307,2
300,333,297,306,2
301,332,297,306,2
302,331,298,306,2
303,329,299,307,2
304,327,300,310,2
304,323,301,312,2
304,316,301,314,2
304,307,301,314,2
304,297,301,311,2
304,288,301,307,2
304,283,302,305,2
304,281,302,304,2
305,281,302,305,2
306,283,302,306,2
306,285,300,307,2
306,287,299,307,2
306,289,298,309,2
307,290,299,310,2
308,291,300,312,2
308,292,302,312,2
308,295,304,311,2
307,300,305,309,2
306,306,306,307,2
304,313,305,306,2
304,321,305,305,2
303,325,304,306,2
302,327,305,306,2
301,329,305,306,2
300,330,306,305,2
300,332,306,305,2
300,333,305,305,2
300,335,304,305,2
300,336,302,307,2
299,335,302,308,2
300,333,301,309,2
300,331,300,310,2
300,328,300,311,2
300,324,300,311,2
300,320,301,311,2
301,315,302,311,2
301,311,303,311,2
302,308,304,310,2
303,306,304,309,2
303,306,304,308,2
304,307,305,308,2
305,305,306,308,2
306,301,307,308,2
307,296,308,307,2
308,290,309,307,2
309,285,309,307,2
309,284,309,307,2
308,287,308,307,2
307,292,308,307,2
306,297,306,306,2
305,299,306,306,2
304,300,305,305,2
304,298,305,305,2
304,297,305,305,2
304,296,305,304,2
304,298,305,304,2
304,300,305,303,2
304,302,304,302,2
305,300,305,301,2
306,297,306,301,2
307,294,307,302,2
308,292,309,302,2
309,290,309,303,2
309,291,308,304,2
309,292,307,306,2
309,295,307,309,2
308,299,305,311,2
307,303,305,313,2
306,308,304,314,2
304,314,304,315,2
303,320,304,314,2
301,324,303,313,2
300,325,304,311,2
299,325,304,308,2
300,323,304,306,2
300,323,304,304,2
300,323,304,304,2
301,322,303,305,2
302,320,304,306,2
303,316,304,308,2
304,310,305,309,2
305,303,306,308,2
305,295,305,306,2
305,288,306,305,2
306,284,307,305,2
306,285,309,306,2
306,292,309,308,2
306,301,309,309,2
306,310,309,310,2
306,316,309,310,2
306,319,309,309,2
306,317,310,309,2
307,313,310,309,2
307,306,310,310,2
307,298,309,310,2
307,288,308,312,2
307,279,308,313,2
307,274,309,314,2
308,273,310,315,2
308,277,311,315,2
307,285,312,315,2
307,296,312,314,2
306,306,312,313,2
305,313,311,313,2
305,315,311,312,2
305,316,310,311,2
305,315,309,310,2
305,314,308,310,2
306,314,307,310,2
306,316,307,309,2
307,320,308,309,2
307,322,310,309,2
307,323,311,310,2
308,321,311,310,2
308,317,311,311,2
308,311,311,310,2
308,306,311,309,2
307,301,309,308,2
307,295,308,307,2
307,287,308,306,2
307,281,308,307,2
306,278,308,307,2
306,278,308,307,2
305,282,308,307,2
305,287,308,306,2
304,297,308,306,2
304,306,307,306,2
304,311,306,307,2
305,309,306,307,2
305,301,305,307,2
306,292,304,307,2
306,284,304,307,2
307,279,304,307,2
307,281,305,307,2
307,290,305,307,2
305,302,304,306,2
304,314,304,306,2
303,324,304,307,2
302,331,304,308,2
302,336,305,310,2
303,337,306,311,2
304,336,306,312,2
304,334,307,313,2
306,332,308,314,2
307,328,309,314,2
308,320,310,312,2
309,309,310,311,2
309,297,311,310,2
309,287,311,309,2
310,279,311,309,2
311,276,310,308,2
310,280,309,307,2
308,289,307,306,2
306,302,306,305,2
304,314,304,305,2
303,322,304,305,2
303,326,304,306,2
304,328,304,307,2
305,327,304,308,2
305,324,304,309,2
305,320,305,310,2
305,315,304,311,2
304,310,304,312,2
304,306,303,312,2
304,301,303,312,2
305,296,303,312,2
305,288,303,311,2
305,277,304,311,2
305,266,305,310,2
305,257,306,309,2
306,251,307,308,2
306,251,308,308,2
307,257,309,309,2
307,270,309,309,2
306,284,309,310,2
305,297,309,310,2
304,308,309,311,2
302,318,308,311,2
301,326,307,310,2
299,332,307,308,2
298,336,306,306,2
298,337,305,304,2
298,337,305,303,2
299,334,304,303,2
300,331,305,304,2
301,325,305,306,2
302,318,305,309,2
303,311,306,311,2
303,303,306,311,2
304,295,306,309,2
304,289,305,306,2
304,285,304,303,2
304,282,302,301,2
304,280,300,300,2
304,279,299,300,2
304,278,297,300,2
303,276,297,301,2
303,274,298,302,2
304,275,300,303,2
305,282,303,305,2
306,292,305,306,2
307,301,305,307,2
307,307,305,306,2
305,312,303,304,2
304,316,302,303,2
303,319,301,301,2
302,321,301,301,2
303,322,301,302,2
303,321,301,303,2
304,319,301,305,2
304,316,300,305,2
303,312,298,305,2
302,308,298,305,2
302,306,298,306,2
302,304,298,305,2
303,305,299,305,2
303,308,300,304,2
303,310,301,303,2
303,310,302,303,2
303,307,303,303,2
304,303,303,303,2
305,299,303,303,2
306,296,303,303,2
306,292,303,303,2
306,289,303,304,2
306,289,303,305,2
306,293,304,306,2
304,299,304,307,2
304,304,304,308,2
303,307,304,309,2
302,311,303,309,2
302,316,302,310,2
303,320,301,310,2
304,321,300,310,2
304,317,300,309,2
303,310,300,308,2
303,303,301,307,2
304,297,302,307,2
305,291,302,307,2
305,288,303,306,2
305,288,304,306,2
306,292,304,306,2
306,296,304,306,2
307,300,305,306,2
306,302,305,305,2
305,303,304,304,2
304,304,304,302,2
303,306,303,301,2
302,309,304,301,2
302,312,304,302,2
302,312,305,303,2
303,310,305,305,2
303,307,305,306,2
303,303,306,308,2
303,301,306,309,2
304,301,306,309,2
303,303,306,308,2
303,306,306,308,2
303,311,305,307,2
303,314,305,308,2
304,314,306,309,2
305,312,307,309,2
306,307,308,310,2
307,302,309,312,2
307,296,310,314,2
307,291,310,316,2
308,286,310,317,2
308,283,310,315,2
309,284,309,312,2
309,290,308,308,2
308,298,307,305,2
308,305,307,304,2
308,309,307,303,2
308,309,307,304,2
308,308,306,305,2
308,307,306,305,2
308,307,306,305,2
308,305,305,304,2
308,300,304,305,2
308,290,304,305,2
309,278,305,306,2
309,266,307,306,2
310,257,310,306,2
310,255,311,305,2
310,259,311,303,2
308,269,310,302,2
308,283,309,302,2
308,299,308,302,2
307,316,306,302,2
306,332,304,303,2
305,343,303,304,2
303,350,302,304,2
301,353,302,304,2
301,353,302,304,2
301,350,303,305,2
301,345,304,307,2
302,340,305,308,2
302,335,306,310,2
303,333,308,311,2
304,330,309,311,2
305,326,309,312,2
306,321,310,312,2
307,315,310,313,2
308,309,311,313,2
308,305,311,314,2
308,302,310,314,2
307,301,308,315,2
306,301,306,315,2
304,303,304,314,2
303,306,303,312,2
302,307,302,310,2
302,308,302,308,2
302,307,302,307,2
301,305,302,306,2
301,304,302,305,2
301,302,302,305,2
302,301,303,305,2
302,300,304,305,2
302,299,305,305,2
303,298,306,305,2
303,297,306,304,2
304,297,307,304,2
305,299,307,304,2
305,299,307,304,2
306,296,307,305,2
307,292,307,305,2
307,289,307,306,2
308,287,307,308,2
308,285,307,308,2
308,287,307,308,2
308,291,306,307,2
308,297,306,306,2
308,302,306,305,2
308,304,306,305,2
307,307,306,304,2
307,310,306,303,2
306,314,305,302,2
306,319,304,302,2
305,323,304,301,2
304,323,304,301,2
303,322,304,301,2
302,318,304,302,2
302,314,305,303,2
302,309,305,304,2
302,303,305,305,2
302,296,305,306,2
303,291,306,307,2
304,289,306,308,2
304,289,306,309,2
303,289,306,308,2
303,288,306,306,2
303,288,307,304,2
303,291,308,302,2
304,294,308,302,2
305,298,307,302,2
305,302,307,303,2
306,305,307,304,2
307,309,306,305,2
307,310,305,305,2
306,310,305,305,2
306,309,305,304,2
305,305,305,303,2
305,302,305,302,2
305,299,304,301,2
306,298,304,299,2
305,296,303,299,2
305,295,301,298,2
304,295,300,298,2
303,297,299,298,2
302,298,298,299,2
303,300,298,301,2
303,304,298,303,2
303,311,298,305,2
303,316,297,308,2
303,319,297,310,2
304,320,298,310,2
304,320,301,310,2
305,319,303,310,2
306,314,303,310,2
306,308,303,310,2
307,301,303,311,2
308,294,304,312,2
308,288,305,310,2
308,287,305,308,2
308,290,305,306,2
308,298,306,305,2
308,308,307,305,2
308,318,307,305,2
308,324,308,304,2
308,329,307,304,2
308,331,307,304,2
308,332,306,304,2
308,332,306,306,2
308,331,305,307,2
307,329,305,308,2
308,328,305,308,2
307,326,305,309,2
307,323,306,309,2
307,320,307,309,2
307,315,307,308,2
306,306,307,307,2
306,295,307,306,2
306,284,307,305,2
307,274,308,304,2
308,266,310,304,2
309,262,310,304,2
308,264,310,304,2
307,271,309,303,2
306,280,308,303,2
305,286,308,303,2
304,291,308,303,2
305,296,308,304,2
305,300,308,304,2
306,305,308,305,2
305,309,308,305,2
305,312,308,306,2
303,314,308,306,2
303,317,308,307,2
302,320,307,307,2
302,325,307,307,2
301,329,305,307,2
300,333,304,306,2
299,335,304,305,2
299,337,304,305,2
300,338,305,306,2
301,335,305,308,2
303,330,305,309,2
304,325,305,309,2
303,321,305,310,2
303,319,305,312,2
304,319,304,314,2
303,319,304,315,2
303,319,304,315,2
303,320,304,314,2
304,319,304,312,2
304,319,304,312,2
306,320,305,312,2
307,320,306,311,2
308,319,307,310,2
308,316,309,309,2
308,314,309,307,2
307,313,309,304,2
306,311,309,302,2
305,308,309,299,2
305,303,309,298,2
305,300,308,298,2
306,297,307,300,2
305,296,307,301,2
305,296,306,303,2
305,298,306,304,2
305,300,306,305,2
305,303,307,305,2
306,305,308,305,2
307,306,308,306,2
308,306,309,306,2
309,305,310,307,2
309,304,311,309,2
309,302,311,311,2
309,299,312,313,2
309,297,312,315,2
310,295,312,315,2
310,292,311,316,2
310,290,310,316,2
309,289,308,315,2
309,291,307,314,2
308,297,306,314,2
308,303,305,313,2
308,307,305,313,2
308,307,304,311,2
308,302,303,310,2
308,293,304,309,2
309,283,304,307,2
310,272,305,305,2
310,264,305,303,2
310,262,303,302,2
309,265,301,301,2
308,273,299,301,2
307,284,299,301,2
306,301,298,301,2
304,319,298,302,2
303,336,298,303,2
302,348,298,305,2
301,353,299,306,2
302,351,300,307,2
303,345,302,309,2
304,336,305,310,2
305,327,309,312,2
306,319,311,312,2
307,315,312,312,2
308,316,312,312,2
308,321,312,312,2
309,327,311,313,2
310,331,310,315,2
310,332,309,315,2
309,331,308,316,2
309,328,307,315,2
308,324,308,314,2
308,318,309,311,2
308,313,310,308,2
308,307,310,306,2
308,301,309,304,2
307,297,309,303,2
307,295,309,304,2
307,296,310,306,2
306,298,310,308,2
306,302,310,310,2
306,306,310,311,2
306,307,309,312,2
306,308,308,313,2
307,305,308,313,2
308,299,309,312,2
309,288,311,310,2
310,277,312,308,2
311,267,313,307,2
311,261,313,306,2
310,258,311,304,2
310,262,309,303,2
309,272,308,302,2
308,284,307,303,2
308,296,307,306,2
307,306,307,308,2
307,314,308,310,2
307,322,309,312,2
306,328,309,311,2
305,333,307,310,2
304,336,306,308,2
303,336,306,306,2
303,334,305,304,2
303,332,305,304,2
303,331,305,304,2
303,332,306,304,2
303,332,306,304,2
302,331,306,303,2
302,330,307,303,2
302,326,308,304,2
304,320,309,305,2
305,313,309,306,2
307,305,310,307,2
308,298,310,307,2
309,293,311,308,2
310,291,311,308,2
310,290,311,307,2
311,289,311,306,2
311,290,310,304,2
311,293,309,303,2
311,299,308,302,2
310,306,308,302,2
310,313,307,302,2
310,318,307,303,2
310,323,306,303,2
310,327,306,303,2
309,327,306,303,2
309,326,306,303,2
309,322,306,304,2
309,317,307,305,2
309,309,308,306,2
310,298,308,305,2
310,284,309,304,2
310,270,310,301,2
311,258,310,299,2
311,251,310,297,2
311,253,310,295,2
311,264,310,296,2
311,281,310,298,2
311,299,310,300,2
310,313,310,303,2
310,324,311,305,2
309,331,311,307,2
308,335,311,309,2
307,339,310,310,2
307,340,309,310,2
307,339,309,309,2
308,337,309,307,2
308,334,309,306,2
308,330,310,306,2
308,325,310,307,2
309,319,309,307,2
308,313,309,306,2
309,308,308,306,2
309,303,307,306,2
310,299,306,305,2
311,294,306,304,2
310,292,306,304,2
310,291,306,303,2
309,293,306,302,2
309,296,306,302,2
308,299,307,302,2
307,304,307,302,2
307,307,308,303,2
307,309,309,305,2
307,307,309,306,2
307,304,309,305,2
306,299,309,304,2
305,296,308,302,2
304,296,308,300,2
304,300,308,299,2
304,305,308,299,2
304,310,307,300,2
304,313,307,303,2
305,313,307,305,2
305,312,307,306,2
305,308,307,306,2
305,304,307,305,2
305,300,307,304,2
306,295,306,303,2
306,289,307,303,2
306,286,308,303,2
306,285,307,303,2
306,288,307,304,2
306,292,306,304,2
305,298,306,304,2
305,304,307,304,2
305,308,308,304,2
305,308,308,302,2
304,305,309,301,2
304,298,309,300,2
303,291,309,299,2
303,284,308,299,2
303,278,308,300,2
303,274,307,301,2
304,276,308,302,2
304,282,307,304,2
305,290,307,304,2
306,297,306,303,2
306,300,306,302,2
306,302,305,300,2
307,302,305,299,2
308,302,305,298,2
309,300,306,299,2
309,298,306,299,2
309,297,305,301,2
307,297,304,302,2
307,298,304,303,2
306,301,304,304,2
305,303,303,304,2
305,303,303,305,2
305,306,302,305,2
305,309,302,306,2
305,314,303,306,2
306,317,303,307,2
306,320,303,307,2
307,322,304,307,2
307,324,304,307,2
306,328,305,307,2
306,331,305,306,2
304,332,305,306,2
304,329,305,306,2
304,324,305,305,2
304,317,305,304,2
304,311,305,302,2
305,306,305,302,2
305,306,306,302,2
305,309,306,301,2
304,312,306,302,2
303,313,305,303,2
302,312,305,304,2
302,311,305,305,2
302,308,304,306,2
303,306,305,307,2
303,304,305,309,2
304,304,306,311,2
305,304,307,312,2
306,303,308,313,2
306,302,307,313,2
307,302,307,311,2
307,303,306,309,2
307,306,306,309,2
306,309,306,309,2
306,311,307,309,2
307,310,308,309,2
307,307,310,309,2
306,305,311,309,2
305,304,311,308,2
304,304,310,307,2
303,306,310,306,2
302,308,309,306,2
301,310,309,306,2
301,309,308,308,2
301,306,307,308,2
302,303,307,308,2
302,302,307,307,2
304,298,307,308,2
304,294,307,308,2
304,290,306,310,2
304,289,305,311,2
304,292,304,312,2
304,296,303,312,2
304,299,303,311,2
303,299,302,309,2
302,296,302,308,2
302,291,303,307,2
302,285,305,307,2
303,280,307,307,2
303,277,310,308,2
304,280,312,308,2
304,289,312,308,2
304,302,312,309,2
303,314,312,309,2
303,323,311,310,2
302,329,309,310,2
301,333,307,310,2
300,335,305,309,2
299,337,304,308,2
299,336,304,307,2
299,335,306,307,2
299,332,307,307,2
298,329,308,307,2
298,325,309,308,2
298,322,310,307,2
298,318,311,307,2
298,313,312,306,2
300,308,313,305,2
301,303,312,305,2
302,299,312,305,2
303,296,311,306,2
304,294,311,307,2
306,293,312,309,2
307,294,313,309,2
308,295,313,309,2
308,299,313,309,2
308,303,313,310,2
307,307,312,310,2
306,308,311,311,2
306,305,311,312,2
307,299,311,314,2
308,290,313,316,2
310,283,314,318,2
311,277,315,319,2
311,274,315,316,2
311,274,314,313,2
310,277,312,309,2
308,280,310,305,2
306,283,308,303,2
305,286,307,301,2
303,293,305,299,2
303,303,303,298,2
302,314,303,298,2
302,320,302,298,2
302,322,303,299,2
302,321,304,300,2
302,318,305,301,2
303,315,305,302,2
304,315,305,302,2
304,319,304,303,2
304,326,303,303,2
305,333,303,305,2
305,337,303,308,2
306,338,304,310,2
306,333,304,312,2
307,324,304,311,2
307,312,304,311,2
308,301,304,310,2
309,291,304,309,2
310,285,305,308,2
310,283,305,309,2
310,288,305,309,2
309,297,305,309,2
308,305,305,309,2
307,311,305,310,2
306,315,304,310,2
305,320,303,310,2
305,325,303,311,2
305,329,303,311,2
305,330,303,311,2
305,329,303,310,2
306,324,303,309,2
306,319,304,308,2
307,313,305,308,2
307,309,304,308,2
307,306,304,308,2
307,305,303,308,2
307,305,302,308,2
306,305,302,307,2
306,304,301,306,2
305,304,301,306,2
306,305,300,306,2
307,303,299,306,2
308,301,299,306,2
309,299,299,307,2
310,296,300,308,2
310,293,301,309,2
311,292,303,311,2
312,292,304,312,2
312,296,305,313,2
312,303,305,311,2
311,312,304,310,2
309,319,304,308,2
307,324,304,308,2
307,326,304,308,2
306,326,305,308,2
306,324,305,308,2
307,320,305,308,2
307,315,305,306,2
307,311,305,304,2
308,309,305,303,2
308,309,306,303,2
308,310,307,305,2
309,313,309,306,2
309,316,310,309,2
310,317,311,312,2
311,316,312,314,2
311,313,312,316,2
311,310,312,318,2
311,305,312,318,2
311,298,312,318,2
311,288,310,317,2
312,278,309,317,2
312,269,307,318,2
313,261,305,318,2
313,256,304,317,2
312,258,303,316,2
312,265,302,315,2
311,275,302,314,2
311,287,304,314,2
310,299,307,313,2
309,308,310,312,2
309,315,311,312,2
308,321,312,311,2
308,325,312,310,2
307,328,311,310,2
307,329,311,311,2
307,329,310,311,2
307,329,308,312,2
308,327,308,312,2
309,326,307,313,2
309,323,306,312,2
310,319,306,312,2
310,315,305,311,2
310,312,304,310,2
310,311,303,308,2
311,312,303,307,2
311,314,303,306,2
311,318,304,306,2
311,320,305,306,2
311,321,305,307,2
311,319,306,308,2
311,316,307,309,2
311,312,306,310,2
310,307,306,311,2
309,302,305,311,2
308,299,305,311,2
307,297,305,311,2
307,297,304,311,2
307,300,304,311,2
307,305,305,311,2
307,312,305,310,2
307,318,307,309,2
307,322,308,308,2
308,323,309,307,2
308,322,310,307,2
308,318,310,307,2
308,314,309,307,2
308,310,308,307,2
308,308,306,307,2
308,308,305,307,2
308,308,302,307,2
306,308,300,306,2
305,309,298,306,2
304,309,298,306,2
304,309,298,307,2
