303,294,300,306,1
301,292,298,305,1
299,291,298,304,1
297,291,299,305,1
296,292,300,306,1
296,294,300,307,1
296,295,300,310,1
296,298,299,314,1
297,302,298,318,1
297,305,298,322,1
297,307,298,323,1
298,308,298,323,1
301,308,299,322,1
304,309,302,321,1
306,309,303,321,1
307,310,304,322,1
307,311,305,322,1
308,312,306,323,1
308,312,306,323,1
307,311,304,321,1
305,309,303,318,1
304,307,302,315,1
305,305,303,312,1
305,303,303,311,1
306,302,303,310,1
305,302,302,309,1
304,302,302,308,1
304,303,301,309,1
305,303,301,311,1
306,304,301,312,1
306,305,301,314,1
307,306,301,315,1
307,306,302,315,1
308,305,303,314,1
307,304,304,313,1
306,303,304,311,1
305,302,303,308,1
304,300,302,307,1
304,299,301,306,1
305,300,301,308,1
307,301,301,310,1
307,305,300,313,1
308,308,300,315,1
307,310,301,317,1
305,309,302,318,1
304,308,304,318,1
304,306,304,318,1
306,305,305,320,1
308,305,306,322,1
310,306,307,324,1
312,307,308,324,1
313,308,308,324,1
314,309,309,323,1
313,309,308,321,1
312,309,307,319,1
310,309,305,317,1
308,309,304,316,1
307,308,304,315,1
306,308,303,313,1
305,306,303,311,1
305,305,302,309,1
304,303,302,308,1
304,303,301,307,1
304,303,301,308,1
304,304,303,310,1
305,304,304,311,1
306,305,306,311,1
306,305,305,310,1
307,306,303,309,1
308,308,302,309,1
309,308,301,309,1
309,308,301,308,1
310,307,302,307,1
310,307,303,307,1
309,308,303,308,1
308,308,302,309,1
307,308,300,309,1
305,308,299,310,1
303,307,300,311,1
302,306,299,312,1
300,306,299,314,1
299,305,299,316,1
300,304,299,319,1
301,304,300,320,1
303,304,300,321,1
303,304,299,320,1
304,304,298,317,1
304,304,297,315,1
304,305,297,314,1
304,306,297,315,1
304,308,298,316,1
306,309,299,316,1
308,309,301,315,1
309,309,301,313,1
308,309,302,310,1
307,308,302,306,1
304,306,301,302,1
302,305,300,298,1
302,303,300,295,1
302,302,302,292,1
303,301,304,292,1
304,300,305,293,1
304,300,306,295,1
305,302,308,297,1
305,305,309,300,1
306,306,309,303,1
308,307,308,305,1
309,308,307,307,1
309,309,305,308,1
309,308,304,309,1
309,307,304,311,1
309,307,303,313,1
308,307,304,312,1
307,308,304,311,1
306,307,305,309,1
306,306,305,307,1
306,305,305,306,1
306,304,304,306,1
307,303,303,305,1
307,302,302,303,1
306,301,302,303,1
307,301,303,304,1
308,303,305,308,1
309,304,308,311,1
311,305,310,312,1
311,305,310,311,1
311,304,309,307,1
310,303,307,303,1
307,301,305,298,1
306,301,303,295,1
305,301,302,293,1
305,301,302,292,1
306,303,304,294,1
309,305,305,298,1
311,307,307,302,1
313,309,308,304,1
312,310,309,306,1
312,310,308,307,1
312,309,308,307,1
312,308,308,307,1
313,308,309,307,1
314,308,310,308,1
315,308,313,310,1
314,309,315,312,1
312,309,315,313,1
311,309,315,315,1
308,310,314,316,1
306,310,313,316,1
304,310,312,315,1
303,308,310,314,1
302,307,309,313,1
302,305,307,310,1
303,304,306,308,1
305,303,305,304,1
306,303,304,302,1
307,303,302,299,1
307,304,301,299,1
308,305,300,299,1
308,305,298,298,1
307,305,297,298,1
308,305,298,299,1
309,307,299,302,1
309,308,299,306,1
309,309,299,310,1
308,310,299,313,1
307,309,299,314,1
307,308,299,315,1
307,307,298,314,1
305,305,299,313,1
303,304,300,312,1
302,303,302,311,1
303,303,304,310,1
304,303,307,311,1
305,304,309,312,1
306,303,310,311,1
307,302,310,310,1
308,302,311,308,1
310,302,312,307,1
311,303,312,304,1
311,302,311,301,1
311,301,310,298,1
310,300,308,296,1
309,301,307,294,1
308,304,307,293,1
307,307,306,293,1
306,309,306,291,1
305,311,305,291,1
305,313,304,291,1
308,314,303,292,1
311,313,302,293,1
314,312,302,295,1
316,311,304,296,1
315,310,304,296,1
313,308,303,297,1
310,306,302,297,1
308,303,301,297,1
306,301,300,300,1
306,300,301,303,1
306,300,303,305,1
306,300,305,305,1
307,301,306,306,1
307,304,307,306,1
308,306,308,307,1
309,310,308,308,1
309,312,309,307,1
310,313,310,307,1
310,314,311,305,1
309,315,311,305,1
309,315,312,305,1
309,314,312,306,1
309,312,312,306,1
310,311,311,306,1
311,309,311,307,1
312,308,310,308,1
311,306,310,308,1
311,304,309,307,1
310,303,308,306,1
310,304,307,305,1
310,305,305,304,1
309,306,303,303,1
307,305,300,302,1
305,306,298,300,1
304,307,299,299,1
303,309,302,301,1
303,312,305,303,1
302,314,308,306,1
303,315,310,309,1
303,315,311,310,1
303,315,312,311,1
302,314,312,312,1
301,313,312,314,1
301,312,312,316,1
301,313,313,318,1
302,314,314,319,1
303,314,314,318,1
303,314,314,315,1
304,314,313,313,1
304,314,312,311,1
305,314,311,308,1
305,313,310,307,1
306,313,309,306,1
305,312,307,305,1
304,312,306,304,1
303,312,304,304,1
302,311,303,302,1
302,310,302,301,1
302,309,301,298,1
303,308,301,294,1
303,307,301,290,1
303,307,301,287,1
303,308,302,286,1
304,310,303,286,1
304,311,304,289,1
305,312,304,292,1
306,311,305,294,1
307,309,305,296,1
307,308,307,299,1
307,308,307,301,1
306,309,307,304,1
306,308,306,305,1
306,308,305,307,1
306,309,305,309,1
307,310,304,311,1
307,309,303,311,1
306,308,302,309,1
305,306,303,306,1
305,304,304,304,1
305,305,305,304,1
306,308,306,305,1
307,310,305,306,1
307,312,305,308,1
308,313,305,309,1
307,312,306,310,1
306,311,306,312,1
306,310,307,314,1
307,309,308,314,1
309,308,309,313,1
309,308,309,310,1
309,309,308,309,1
308,310,308,308,1
306,312,309,308,1
304,313,310,308,1
304,314,311,308,1
304,314,312,309,1
305,314,313,310,1
305,313,312,311,1
304,312,311,311,1
304,310,310,311,1
303,310,308,310,1
303,309,306,308,1
303,309,304,307,1
303,308,303,306,1
305,309,303,305,1
307,309,303,305,1
306,310,303,305,1
303,310,303,304,1
300,309,303,302,1
297,307,303,301,1
296,305,303,300,1
296,304,303,300,1
297,304,304,301,1
300,306,306,302,1
302,309,308,304,1
305,312,308,305,1
308,313,309,306,1
309,313,309,305,1
310,312,310,305,1
310,311,310,304,1
310,309,310,305,1
309,308,311,306,1
307,307,312,306,1
305,307,312,305,1
305,307,312,305,1
304,307,311,304,1
305,308,312,305,1
306,308,313,304,1
306,307,313,304,1
306,306,312,302,1
305,305,312,301,1
304,304,311,300,1
304,304,311,299,1
303,305,311,299,1
303,305,310,298,1
302,305,309,296,1
301,304,308,294,1
300,303,309,292,1
300,303,308,292,1
301,304,308,294,1
301,306,306,296,1
302,307,305,299,1
303,308,304,300,1
305,307,304,302,1
307,308,305,302,1
309,307,307,302,1
309,307,309,301,1
307,306,309,300,1
304,306,306,300,1
301,306,305,302,1
300,308,304,304,1
301,309,304,306,1
302,310,305,307,1
304,309,306,307,1
304,308,307,307,1
304,308,308,307,1
303,308,308,306,1
301,306,309,306,1
300,306,310,307,1
300,306,312,309,1
301,307,314,310,1
301,307,315,310,1
302,307,316,309,1
302,307,317,306,1
303,308,316,303,1
304,309,315,301,1
305,310,314,300,1
306,311,313,300,1
308,311,312,302,1
310,312,311,304,1
312,312,310,307,1
312,312,308,307,1
312,311,305,308,1
311,309,303,308,1
308,308,301,308,1
305,307,301,307,1
303,307,301,307,1
301,306,300,305,1
298,305,298,305,1
297,305,297,305,1
297,305,297,307,1
298,305,297,309,1
299,305,298,311,1
300,306,301,312,1
303,306,303,313,1
303,307,305,312,1
303,308,305,311,1
302,308,306,310,1
302,307,306,307,1
301,305,306,306,1
301,304,306,305,1
302,302,307,307,1
303,303,308,311,1
305,305,309,314,1
306,306,310,317,1
308,306,311,317,1
310,306,311,316,1
310,306,312,314,1
309,306,313,311,1
307,307,313,309,1
306,308,313,306,1
305,309,312,303,1
306,309,312,301,1
306,307,311,297,1
305,305,310,295,1
303,303,309,293,1
303,302,309,293,1
304,301,309,292,1
305,302,309,293,1
307,303,309,296,1
309,306,308,300,1
311,308,307,304,1
312,308,306,308,1
314,307,307,310,1
314,307,309,310,1
314,306,311,307,1
312,306,311,305,1
309,305,310,304,1
306,305,309,303,1
303,306,308,303,1
301,307,306,303,1
300,308,305,304,1
299,308,305,305,1
298,308,305,307,1
299,309,306,309,1
300,309,306,310,1
302,309,307,310,1
304,308,307,310,1
305,308,307,310,1
307,307,307,310,1
311,307,307,310,1
313,307,306,309,1
315,307,305,308,1
316,307,305,306,1
316,306,307,304,1
315,306,309,302,1
313,306,310,300,1
310,305,310,299,1
307,303,308,298,1
304,302,307,298,1
303,303,307,300,1
302,304,308,301,1
302,305,309,302,1
301,306,309,302,1
299,307,308,301,1
298,307,307,302,1
298,307,307,302,1
299,308,307,303,1
300,309,307,304,1
301,310,306,305,1
302,310,306,307,1
304,311,307,308,1
306,312,308,310,1
308,313,310,311,1
308,312,310,311,1
307,312,311,310,1
306,311,311,309,1
304,310,311,310,1
304,309,311,310,1
304,308,311,309,1
304,307,310,309,1
306,307,310,309,1
307,308,310,310,1
308,310,310,312,1
309,311,310,313,1
308,310,307,312,1
307,308,305,311,1
305,306,304,308,1
304,303,302,305,1
302,300,301,303,1
302,300,300,301,1
302,301,301,300,1
303,304,302,300,1
305,306,303,299,1
306,309,304,297,1
307,311,304,296,1
307,311,304,295,1
307,311,302,295,1
305,311,302,296,1
305,309,303,298,1
304,307,304,301,1
305,305,305,304,1
305,305,306,306,1
306,305,306,308,1
307,305,307,310,1
308,305,307,311,1
308,305,307,311,1
307,305,306,312,1
306,304,305,313,1
305,302,304,312,1
305,301,303,312,1
305,300,302,311,1
304,300,302,312,1
302,302,302,314,1
301,305,304,316,1
301,308,305,316,1
301,310,304,314,1
302,310,302,311,1
302,309,301,306,1
301,307,299,302,1
302,305,299,300,1
302,304,299,300,1
304,304,300,302,1
305,305,301,304,1
306,307,303,307,1
306,308,304,309,1
306,308,305,310,1
305,308,305,311,1
306,308,305,311,1
305,308,304,312,1
305,308,303,313,1
306,308,301,313,1
306,307,300,312,1
306,307,299,310,1
306,307,299,307,1
304,306,298,303,1
302,304,297,301,1
300,302,296,300,1
299,302,295,301,1
299,301,295,303,1
298,302,295,304,1
297,302,296,305,1
298,303,300,307,1
299,304,303,309,1
301,307,307,312,1
302,309,310,313,1
303,311,312,314,1
303,312,313,314,1
303,312,313,314,1
303,312,313,313,1
304,313,313,311,1
305,312,313,309,1
307,312,311,307,1
307,311,309,305,1
307,312,306,303,1
306,313,304,302,1
305,314,302,301,1
304,314,301,301,1
303,315,301,302,1
303,317,302,305,1
304,318,303,308,1
305,318,303,311,1
305,317,304,314,1
306,317,304,315,1
306,315,304,316,1
306,314,304,316,1
305,312,303,315,1
303,310,303,315,1
301,308,303,315,1
300,307,302,315,1
299,306,301,314,1
299,305,301,314,1
299,304,300,312,1
298,303,298,309,1
298,302,298,307,1
299,301,298,305,1
301,300,299,305,1
303,301,301,306,1
305,302,304,308,1
308,304,305,310,1
309,305,306,312,1
309,307,308,313,1
308,308,308,314,1
307,310,309,315,1
305,310,309,316,1
302,309,310,316,1
299,309,311,316,1
297,307,312,315,1
296,305,312,315,1
298,304,312,314,1
300,303,313,312,1
303,303,312,310,1
305,303,311,309,1
306,303,310,307,1
306,304,309,305,1
305,304,308,302,1
304,305,307,301,1
304,305,307,299,1
303,305,307,297,1
302,306,307,297,1
301,308,308,298,1
302,309,308,300,1
300,309,308,302,1
298,308,307,303,1
296,307,306,302,1
296,305,305,302,1
297,305,304,304,1
298,306,305,306,1
299,308,306,309,1
300,309,305,311,1
300,310,304,312,1
301,311,304,311,1
302,311,303,310,1
304,311,304,308,1
306,309,306,307,1
307,307,309,305,1
308,306,311,304,1
309,305,313,306,1
309,306,315,309,1
309,306,317,313,1
307,307,317,316,1
306,307,316,317,1
303,308,315,317,1
301,308,314,318,1
300,308,313,319,1
300,309,312,319,1
300,309,312,319,1
301,308,313,318,1
301,307,314,317,1
301,307,314,317,1
301,307,314,316,1
301,306,314,315,1
302,306,314,314,1
303,306,313,313,1
304,307,313,311,1
306,308,313,309,1
306,308,312,307,1
306,307,311,305,1
305,307,310,304,1
304,306,310,303,1
303,306,310,303,1
303,306,309,304,1
304,305,308,305,1
304,306,305,308,1
304,306,302,311,1
304,305,301,312,1
304,303,301,311,1
305,302,301,309,1
306,301,302,308,1
307,301,303,308,1
307,300,305,308,1
307,300,306,308,1
308,301,307,308,1
308,302,308,307,1
308,303,308,306,1
307,305,308,305,1
307,306,308,305,1
307,307,309,304,1
307,308,309,303,1
307,308,309,302,1
306,308,309,301,1
307,308,308,302,1
309,308,309,304,1
312,309,309,306,1
315,310,310,309,1
318,309,311,310,1
317,307,310,311,1
315,306,309,310,1
313,304,307,310,1
311,303,306,308,1
309,301,306,306,1
307,301,305,305,1
306,301,305,303,1
306,302,305,302,1
306,302,305,300,1
305,303,304,299,1
305,303,304,298,1
306,303,304,298,1
308,304,305,298,1
309,303,305,298,1
309,302,305,297,1
308,301,304,295,1
306,299,303,294,1
304,298,301,294,1
304,297,300,295,1
305,297,299,296,1
305,296,298,296,1
305,295,297,296,1
305,294,296,296,1
305,293,295,296,1
306,292,295,297,1
306,291,296,298,1
307,292,297,301,1
308,293,300,303,1
308,294,302,307,1
307,297,305,310,1
307,299,305,313,1
307,301,305,313,1
307,302,306,311,1
306,302,306,309,1
306,303,306,307,1
306,303,307,307,1
307,305,309,308,1
308,305,309,310,1
308,306,310,312,1
309,306,310,312,1
310,306,310,312,1
310,306,310,312,1
310,305,309,311,1
310,304,309,309,1
308,303,308,308,1
307,303,306,307,1
305,302,305,306,1
305,301,303,305,1
305,300,302,303,1
306,300,301,302,1
306,300,301,300,1
306,301,301,299,1
305,302,301,298,1
305,304,302,298,1
304,307,303,299,1
304,308,303,302,1
304,308,303,304,1
303,305,302,305,1
301,300,300,304,1
300,296,299,302,1
299,292,299,301,1
300,291,299,300,1
301,292,301,301,1
304,294,303,301,1
306,297,305,301,1
307,300,307,301,1
308,302,307,302,1
308,304,307,301,1
308,305,307,300,1
308,306,308,300,1
309,307,308,300,1
309,309,309,301,1
310,310,309,303,1
309,311,309,303,1
308,310,309,304,1
307,308,308,304,1
306,307,307,306,1
306,307,307,307,1
305,306,306,307,1
305,305,305,306,1
306,304,305,304,1
307,304,305,304,1
309,304,306,305,1
310,304,307,306,1
312,305,307,308,1
313,306,308,310,1
313,307,309,311,1
312,308,308,311,1
309,308,307,309,1
306,307,305,306,1
303,307,303,304,1
301,307,302,303,1
300,307,301,302,1
299,306,299,301,1
297,306,298,301,1
296,305,298,302,1
297,305,299,303,1
297,305,301,305,1
298,306,302,305,1
298,306,303,306,1
298,306,304,306,1
298,305,305,306,1
298,304,307,307,1
299,305,308,308,1
300,306,309,309,1
301,307,310,310,1
303,308,309,310,1
304,307,308,309,1
305,306,306,308,1
305,305,304,307,1
304,303,301,307,1
303,302,300,308,1
303,301,300,308,1
303,301,302,308,1
304,301,302,308,1
304,301,303,307,1
303,301,304,306,1
301,301,304,305,1
300,301,306,303,1
299,301,307,302,1
299,301,308,299,1
300,301,309,295,1
300,300,309,291,1
302,299,308,289,1
304,299,307,288,1
306,298,306,288,1
306,297,305,290,1
305,297,304,293,1
305,298,303,295,1
304,298,304,296,1
305,300,305,296,1
306,301,306,294,1
307,302,307,293,1
308,303,308,291,1
309,304,309,289,1
309,303,310,289,1
309,301,310,289,1
308,300,309,289,1
306,299,307,289,1
306,299,306,291,1
306,301,305,295,1
306,303,304,299,1
305,304,303,302,1
304,306,303,305,1
304,308,307,309,1
304,310,310,312,1
304,311,311,314,1
304,312,311,315,1
305,312,309,316,1
306,311,310,317,1
308,312,311,317,1
309,311,311,316,1
310,310,311,315,1
311,309,311,314,1
311,308,309,312,1
310,305,307,311,1
309,304,304,307,1
309,301,301,303,1
309,300,300,298,1
308,299,299,294,1
307,299,298,292,1
306,301,299,294,1
307,304,301,297,1
307,308,302,301,1
307,310,303,305,1
306,311,305,308,1
304,312,307,311,1
303,313,309,314,1
303,314,310,315,1
302,315,310,316,1
302,316,310,316,1
303,315,309,315,1
303,315,308,313,1
304,313,308,311,1
304,313,307,309,1
304,312,305,308,1
305,311,304,307,1
306,311,303,306,1
306,310,303,306,1
307,310,302,305,1
307,310,301,303,1
308,310,301,302,1
309,311,301,302,1
310,311,302,302,1
308,310,301,303,1
306,308,300,304,1
303,306,299,304,1
302,305,298,305,1
300,305,297,307,1
300,306,296,308,1
302,306,295,309,1
303,306,296,307,1
304,306,296,305,1
304,305,296,303,1
305,305,296,302,1
307,305,295,302,1
308,306,296,302,1
308,305,295,300,1
307,304,295,298,1
307,303,295,296,1
306,302,296,295,1
306,301,298,294,1
305,300,300,295,1
304,301,301,297,1
304,303,302,301,1
305,306,303,306,1
304,309,304,309,1
304,312,304,310,1
306,315,304,310,1
308,316,305,308,1
310,317,304,305,1
311,316,304,302,1
312,315,304,299,1
314,314,304,298,1
315,313,304,298,1
314,312,302,299,1
311,312,301,300,1
308,312,300,300,1
304,311,299,299,1
301,310,298,298,1
299,308,297,296,1
298,307,297,293,1
298,307,297,291,1
299,307,298,290,1
302,308,299,290,1
305,310,301,290,1
308,312,303,292,1
309,314,304,297,1
310,315,306,303,1
309,314,306,308,1
308,313,306,312,1
307,311,306,315,1
307,310,305,317,1
307,309,304,316,1
306,308,303,313,1
306,307,303,310,1
306,307,301,307,1
306,308,300,305,1
305,309,299,305,1
304,311,299,304,1
304,311,299,304,1
304,312,300,304,1
303,313,299,304,1
303,313,299,304,1
303,313,300,304,1
304,312,301,304,1
304,311,303,303,1
304,311,304,302,1
304,310,306,301,1
305,309,307,299,1
306,308,307,298,1
307,308,306,299,1
309,310,305,302,1
311,310,304,304,1
310,309,304,307,1
309,308,303,308,1
307,308,302,309,1
304,307,301,309,1
301,306,300,307,1
299,305,299,304,1
298,303,299,302,1
298,301,300,300,1
300,301,301,300,1
302,303,302,301,1
305,305,303,303,1
308,308,304,304,1
310,311,304,304,1
311,314,304,307,1
310,316,304,310,1
309,317,303,312,1
307,316,301,313,1
305,313,301,313,1
304,312,300,312,1
304,310,300,311,1
305,309,300,309,1
306,307,301,308,1
307,306,301,307,1
308,306,300,308,1
308,307,300,309,1
310,308,301,310,1
312,308,303,309,1
314,307,305,309,1
315,307,307,309,1
316,308,308,309,1
315,308,308,307,1
314,309,307,305,1
311,309,304,303,1
308,309,301,302,1
304,308,299,299,1
302,307,299,296,1
301,306,298,295,1
302,304,298,295,1
304,304,299,297,1
306,304,301,300,1
309,304,303,303,1
312,305,305,307,1
313,305,307,310,1
313,304,308,311,1
312,303,308,313,1
311,302,309,314,1
310,301,309,314,1
309,301,308,314,1
307,302,306,315,1
304,303,303,315,1
302,303,301,314,1
301,303,300,313,1
301,304,299,313,1
303,305,299,314,1
304,305,298,314,1
303,304,299,314,1
303,303,300,313,1
303,302,301,312,1
305,302,303,311,1
307,303,304,310,1
307,305,304,307,1
307,307,305,305,1
308,309,306,305,1
308,311,306,304,1
308,312,305,303,1
307,312,304,301,1
306,312,303,300,1
307,312,302,300,1
307,312,302,301,1
307,310,304,302,1
307,307,306,302,1
307,305,308,303,1
308,303,309,303,1
308,302,308,303,1
308,300,307,302,1
308,299,306,301,1
307,298,305,302,1
307,299,305,305,1
308,302,306,309,1
308,305,307,312,1
308,308,306,314,1
308,310,305,314,1
307,310,302,312,1
307,310,299,309,1
307,311,296,306,1
307,311,294,305,1
307,312,291,303,1
306,311,288,303,1
306,310,287,302,1
307,309,290,301,1
310,310,296,302,1
313,311,303,305,1
316,313,308,309,1
317,313,312,314,1
316,313,313,317,1
313,313,313,320,1
311,312,312,321,1
309,312,310,322,1
308,313,309,321,1
308,313,308,319,1
309,313,308,317,1
309,312,307,315,1
309,312,306,313,1
310,312,306,313,1
311,313,305,312,1
312,313,304,311,1
312,313,304,311,1
312,311,304,310,1
310,309,303,309,1
310,307,303,310,1
309,307,302,312,1
308,307,302,313,1
308,307,302,314,1
308,308,302,315,1
309,309,301,316,1
310,310,301,317,1
311,310,300,317,1
311,310,300,317,1
312,309,301,317,1
312,309,302,316,1
312,310,303,316,1
313,309,304,314,1
314,309,304,313,1
313,307,303,310,1
311,305,301,307,1
309,302,298,303,1
307,301,297,300,1
307,302,297,300,1
307,304,299,302,1
309,305,301,306,1
311,306,302,309,1
312,306,302,310,1
312,304,301,310,1
310,302,298,309,1
306,301,293,309,1
302,300,288,308,1
300,301,287,307,1
300,302,290,307,1
302,304,292,307,1
304,306,294,308,1
306,309,297,309,1
307,311,300,310,1
309,312,303,311,1
310,311,305,311,1
308,310,307,310,1
307,310,308,308,1
305,310,308,306,1
305,310,308,305,1
305,309,308,305,1
305,309,309,304,1
304,308,308,304,1
304,307,308,303,1
303,306,307,302,1
303,306,307,301,1
303,306,306,300,1
304,305,305,298,1
305,304,304,297,1
306,305,304,298,1
308,307,305,301,1
310,309,305,305,1
313,310,305,308,1
315,309,305,309,1
317,308,305,309,1
319,305,306,307,1
320,302,306,304,1
318,300,305,301,1
315,298,305,297,1
311,297,304,293,1
307,296,302,289,1
304,296,300,289,1
304,298,300,293,1
305,302,303,299,1
307,307,305,304,1
309,310,307,308,1
310,313,307,311,1
310,314,307,314,1
309,314,308,315,1
310,314,308,315,1
310,313,308,315,1
310,311,308,314,1
311,309,308,313,1
311,309,307,313,1
312,308,307,313,1
312,309,306,313,1
312,308,305,313,1
311,309,305,312,1
310,309,303,311,1
308,308,301,310,1
306,307,299,308,1
305,305,299,306,1
303,304,299,305,1
302,303,300,305,1
301,304,301,304,1
301,304,302,303,1
301,304,303,303,1
301,304,304,304,1
301,305,304,305,1
302,306,305,307,1
302,306,306,307,1
302,305,307,308,1
303,305,308,308,1
304,305,309,308,1
304,306,310,309,1
304,308,311,310,1
304,309,310,310,1
305,310,309,311,1
306,312,309,313,1
307,313,308,316,1
308,314,307,317,1
308,314,305,317,1
308,313,303,317,1
308,313,302,317,1
307,313,302,316,1
307,313,303,315,1
307,313,304,313,1
306,314,306,311,1
306,314,306,310,1
306,314,307,310,1
306,313,307,310,1
306,312,306,310,1
305,310,304,309,1
304,308,303,307,1
302,308,302,307,1
302,307,301,306,1
303,307,301,306,1
305,308,302,307,1
307,308,305,307,1
308,308,307,307,1
308,308,307,307,1
308,307,307,305,1
308,306,307,303,1
309,305,306,301,1
309,304,305,299,1
309,304,304,299,1
309,305,303,300,1
308,307,302,303,1
307,309,301,305,1
305,310,301,308,1
304,310,300,309,1
303,309,299,308,1
303,308,299,306,1
303,308,299,304,1
304,308,299,304,1
303,308,300,303,1
303,307,300,303,1
304,306,300,303,1
305,306,301,305,1
305,308,303,307,1
304,309,304,308,1
304,308,304,308,1
303,307,305,308,1
304,306,306,308,1
304,306,306,307,1
303,305,305,306,1
301,304,304,305,1
300,303,303,303,1
299,303,302,301,1
298,302,301,299,1
295,300,300,297,1
294,299,299,297,1
294,299,300,299,1
297,300,302,303,1
299,301,303,307,1
301,302,305,309,1
303,303,305,310,1
305,303,304,310,1
305,303,303,310,1
305,303,302,310,1
305,302,299,310,1
305,301,297,308,1
305,300,296,305,1
305,299,295,302,1
306,298,297,298,1
306,297,297,296,1
305,295,298,293,1
305,294,298,292,1
304,294,298,290,1
304,294,299,289,1
303,295,300,289,1
303,296,300,292,1
302,298,300,295,1
302,301,301,298,1
302,302,302,301,1
302,303,301,303,1
302,304,300,304,1
303,304,298,303,1
304,304,296,302,1
304,305,295,299,1
304,304,296,298,1
303,304,299,298,1
304,304,303,299,1
304,304,305,300,1
304,305,305,300,1
305,306,304,300,1
305,306,302,300,1
305,306,300,301,1
305,307,299,302,1
305,307,299,305,1
306,307,299,307,1
307,307,299,309,1
308,306,301,310,1
309,304,302,309,1
309,303,303,308,1
309,302,303,307,1
308,302,304,307,1
309,303,305,308,1
310,304,307,309,1
311,305,307,308,1
313,306,307,308,1
314,307,307,308,1
315,307,306,307,1
315,305,304,306,1
315,304,301,304,1
314,302,300,302,1
312,300,298,300,1
309,299,298,298,1
306,298,298,297,1
305,297,300,296,1
304,297,302,296,1
304,297,303,296,1
303,298,304,295,1
303,299,305,295,1
302,300,305,294,1
301,300,305,294,1
300,300,306,294,1
300,301,306,296,1
302,303,308,300,1
304,304,308,303,1
305,303,308,304,1
306,301,306,304,1
307,299,306,302,1
307,297,305,300,1
308,295,304,299,1
309,295,303,299,1
309,296,302,300,1
309,297,302,302,1
309,299,302,304,1
310,302,303,307,1
311,303,305,309,1
311,304,306,310,1
310,304,307,311,1
309,303,306,310,1
308,302,305,310,1
307,302,304,309,1
307,302,303,309,1
307,303,303,309,1
308,302,302,308,1
307,302,303,308,1
306,301,303,308,1
305,300,303,307,1
305,299,303,306,1
305,298,303,304,1
306,297,303,302,1
305,298,302,302,1
305,299,301,302,1
304,300,300,303,1
304,301,299,304,1
303,302,298,305,1
304,304,298,308,1
306,305,299,309,1
308,308,301,311,1
310,310,303,312,1
311,312,304,312,1
310,313,303,312,1
310,313,303,311,1
310,312,302,311,1
309,312,301,311,1
307,311,299,311,1
305,309,297,311,1
304,307,295,310,1
305,305,295,309,1
306,303,297,310,1
307,303,300,311,1
309,303,303,312,1
311,304,306,313,1
311,304,308,314,1
311,304,309,314,1
310,305,310,315,1
309,306,310,315,1
307,306,309,316,1
305,306,307,316,1
303,305,305,315,1
299,304,302,313,1
295,303,299,309,1
292,301,297,304,1
291,299,296,300,1
292,297,295,297,1
294,296,296,296,1
298,297,298,294,1
300,298,298,295,1
302,300,299,295,1
303,302,300,296,1
304,303,302,297,1
306,305,304,299,1
307,308,306,301,1
309,311,308,304,1
309,315,309,308,1
308,317,309,311,1
308,318,310,314,1
307,318,310,314,1
306,316,310,314,1
304,313,309,313,1
304,310,309,313,1
303,307,309,313,1
304,305,310,315,1
305,303,311,318,1
306,303,312,320,1
307,302,312,320,1
307,300,312,318,1
307,297,311,316,1
306,294,310,313,1
304,291,308,309,1
303,288,306,304,1
302,287,304,301,1
302,289,303,299,1
301,292,302,298,1
301,296,301,299,1
302,301,301,301,1
303,304,302,304,1
304,308,303,308,1
304,310,304,313,1
304,309,304,317,1
304,309,305,321,1
305,307,304,325,1
305,307,304,326,1
306,308,304,327,1
306,308,303,328,1
306,309,302,328,1
306,309,300,327,1
305,309,298,326,1
304,307,297,325,1
304,306,298,322,1
304,304,299,319,1
304,304,300,317,1
305,304,302,314,1
304,304,303,312,1
304,305,303,311,1
303,307,304,310,1
303,310,305,310,1
304,312,305,310,1
303,311,305,308,1
303,307,304,306,1
302,303,304,303,1
302,300,304,302,1
303,297,304,302,1
304,297,305,303,1
306,299,306,304,1
308,302,306,306,1
310,306,306,309,1
311,309,305,312,1
312,312,303,314,1
313,313,301,313,1
313,312,298,310,1
313,310,296,308,1
312,310,294,307,1
310,308,293,307,1
308,305,294,306,1
306,303,297,307,1
305,302,301,308,1
304,303,306,310,1
304,304,309,313,1
304,306,311,315,1
304,307,311,316,1
303,306,310,317,1
303,304,310,319,1
303,302,310,321,1
304,301,311,323,1
305,300,312,324,1
307,300,312,323,1
310,300,311,321,1
311,299,309,317,1
311,299,307,313,1
311,300,307,311,1
311,302,307,311,1
311,305,307,312,1
309,306,307,313,1
307,307,308,314,1
305,306,308,314,1
304,305,308,314,1
303,304,308,314,1
303,303,307,312,1
303,303,306,310,1
303,304,305,307,1
303,303,306,304,1
304,304,305,304,1
304,305,306,307,1
304,307,306,311,1
304,308,306,314,1
303,308,306,316,1
303,307,306,317,1
302,307,305,319,1
302,307,303,322,1
303,308,302,324,1
304,310,302,326,1
305,311,304,327,1
305,311,306,327,1
306,311,308,325,1
306,310,309,323,1
307,309,309,321,1
308,307,308,319,1
309,306,308,317,1
309,305,307,316,1
310,304,306,314,1
309,303,306,313,1
308,303,306,313,1
308,303,306,312,1
307,302,305,310,1
307,300,303,308,1
306,298,301,306,1
306,297,301,307,1
306,297,301,308,1
305,298,301,310,1
304,299,301,312,1
304,301,301,311,1
304,303,301,310,1
305,304,301,309,1
307,305,303,309,1
309,306,304,310,1
311,307,306,312,1
313,308,308,312,1
314,309,307,312,1
314,309,308,312,1
315,309,308,311,1
313,309,308,310,1
310,309,307,310,1
307,309,306,310,1
304,308,307,310,1
304,309,307,311,1
304,309,308,312,1
305,310,309,313,1
305,311,309,313,1
306,311,308,313,1
308,310,308,314,1
310,310,307,315,1
312,310,306,316,1
313,311,306,317,1
315,310,306,316,1
316,309,305,314,1
316,309,305,311,1
316,308,304,309,1
316,307,304,309,1
315,308,305,311,1
314,309,306,316,1
313,310,306,320,1
311,311,306,322,1
310,310,306,323,1
309,309,305,323,1
308,308,306,322,1
308,308,306,321,1
307,308,306,320,1
308,310,305,319,1
309,312,304,317,1
310,313,304,314,1
311,312,303,312,1
311,311,303,309,1
311,310,303,306,1
311,309,303,304,1
311,307,303,302,1
311,307,303,300,1
311,308,303,300,1
309,309,304,301,1
308,310,304,301,1
307,309,304,301,1
306,308,304,302,1
306,307,305,304,1
305,307,305,306,1
306,307,305,308,1
307,307,306,308,1
309,305,305,306,1
308,303,304,303,1
307,301,304,301,1
306,301,304,300,1
306,302,303,300,1
306,302,302,301,1
307,302,300,302,1
308,303,300,305,1
308,305,300,308,1
307,307,301,311,1
306,308,302,313,1
306,309,303,314,1
306,310,304,315,1
307,310,304,315,1
308,311,304,314,1
309,311,304,313,1
309,309,304,311,1
309,308,303,309,1
310,306,300,308,1
308,305,299,308,1
307,303,299,307,1
306,303,300,308,1
306,301,302,307,1
306,300,302,307,1
305,299,302,306,1
305,299,302,307,1
304,299,302,306,1
304,301,302,306,1
304,302,302,306,1
304,303,303,307,1
303,304,303,309,1
303,304,304,310,1
302,305,304,311,1
302,305,304,311,1
302,305,304,311,1
303,305,303,310,1
303,305,303,309,1
303,305,303,309,1
303,305,303,308,1
303,304,303,306,1
302,303,302,305,1
301,302,301,303,1
301,302,299,301,1
300,301,297,298,1
299,301,296,295,1
298,302,295,292,1
298,303,294,290,1
297,303,294,289,1
297,303,294,290,1
298,302,296,292,1
298,301,299,293,1
300,300,301,295,1
302,299,303,297,1
304,300,305,299,1
307,302,306,302,1
308,304,306,304,1
310,306,307,306,1
311,306,307,308,1
311,306,307,310,1
312,306,306,312,1
313,307,305,314,1
312,307,305,315,1
311,307,305,315,1
310,307,305,313,1
308,306,305,311,1
306,305,306,309,1
303,305,306,306,1
302,303,305,303,1
300,300,304,300,1
298,297,303,295,1
297,296,302,291,1
296,295,301,289,1
296,295,301,289,1
296,295,302,291,1
298,297,303,295,1
300,299,305,299,1
302,302,306,302,1
304,305,307,308,1
306,309,309,313,1
306,311,310,317,1
306,311,310,317,1
306,310,309,316,1
305,309,308,315,1
304,309,307,314,1
303,309,305,314,1
302,309,305,315,1
301,310,305,315,1
301,310,306,314,1
301,310,306,313,1
300,309,306,312,1
300,309,307,311,1
301,309,308,310,1
303,310,310,309,1
306,311,310,310,1
307,311,310,310,1
309,310,310,310,1
309,308,309,309,1
309,308,308,308,1
308,307,307,308,1
306,308,306,309,1
305,308,305,309,1
304,308,305,309,1
305,310,306,311,1
305,312,307,312,1
304,313,307,312,1
303,313,307,310,1
302,312,308,307,1
302,311,308,305,1
303,309,309,304,1
304,307,309,303,1
306,305,310,303,1
308,305,311,303,1
308,304,312,304,1
309,305,313,305,1
309,305,313,305,1
307,304,312,304,1
305,304,310,303,1
302,304,308,300,1
300,303,306,298,1
300,303,305,297,1
300,303,304,296,1
300,303,304,295,1
301,302,304,294,1
301,300,304,292,1
301,299,305,291,1
302,299,305,293,1
302,300,305,295,1
302,301,306,298,1
302,302,307,300,1
302,303,308,302,1
302,303,308,303,1
303,304,308,304,1
304,306,308,306,1
305,307,307,306,1
305,308,306,307,1
305,309,305,306,1
304,308,305,305,1
304,307,304,303,1
303,306,303,302,1
302,306,303,301,1
302,306,304,302,1
304,306,306,305,1
306,307,309,307,1
308,308,312,310,1
310,310,313,311,1
311,311,313,313,1
312,312,312,314,1
314,312,310,314,1
314,311,309,312,1
313,310,307,310,1
312,308,307,307,1
311,307,307,304,1
311,306,306,302,1
311,305,305,300,1
310,305,304,300,1
310,306,304,301,1
311,308,305,303,1
312,309,306,304,1
314,309,307,304,1
314,308,307,304,1
313,307,307,306,1
311,307,307,308,1
310,308,307,311,1
308,309,307,313,1
307,310,306,313,1
305,310,305,312,1
304,311,304,311,1
303,313,304,310,1
304,313,304,309,1
306,312,304,307,1
307,310,304,306,1
306,307,304,305,1
305,305,303,304,1
304,303,300,303,1
303,301,298,301,1
303,300,297,299,1
303,301,297,299,1
305,302,298,301,1
307,304,299,302,1
309,305,300,304,1
311,307,303,305,1
313,308,306,307,1
313,309,309,307,1
312,308,310,306,1
311,306,310,305,1
309,304,311,304,1
308,302,310,304,1
307,302,309,306,1
308,302,309,308,1
308,305,309,311,1
308,307,309,312,1
308,309,308,313,1
307,310,308,313,1
307,310,308,314,1
306,309,308,314,1
306,308,309,314,1
306,309,310,315,1
306,309,311,315,1
307,310,312,315,1
307,311,311,315,1
307,312,310,315,1
307,313,309,315,1
307,313,307,314,1
306,313,305,313,1
305,311,302,311,1
304,310,299,309,1
302,309,298,307,1
301,307,299,305,1
302,306,301,304,1
304,306,305,304,1
306,306,309,303,1
309,305,311,302,1
311,305,312,301,1
312,304,313,299,1
313,304,314,299,1
314,305,315,301,1
315,306,315,303,1
316,307,315,304,1
316,308,313,305,1
314,307,312,306,1
311,306,311,308,1
308,305,312,310,1
306,304,312,311,1
304,303,313,311,1
303,303,313,310,1
303,303,312,310,1
303,304,310,308,1
303,304,308,306,1
302,304,307,304,1
302,305,306,304,1
302,306,306,305,1
302,307,307,307,1
303,308,308,309,1
304,310,309,310,1
306,310,309,309,1
306,310,309,307,1
307,311,309,305,1
307,310,310,303,1
308,310,311,303,1
307,310,313,304,1
308,311,314,305,1
308,311,315,305,1
309,310,315,303,1
308,308,313,300,1
307,306,311,297,1
305,304,309,294,1
303,304,307,292,1
301,304,306,292,1
299,303,305,291,1
297,304,304,292,1
296,304,305,295,1
296,306,305,297,1
296,307,305,299,1
296,308,304,301,1
297,307,303,302,1
297,307,302,302,1
297,306,301,304,1
298,306,302,307,1
298,307,303,310,1
298,308,305,313,1
298,309,306,313,1
298,310,307,312,1
299,310,307,310,1
299,308,306,307,1
299,306,306,304,1
298,305,305,300,1
298,304,305,298,1
298,305,305,298,1
299,308,308,300,1
300,311,311,301,1
302,314,313,303,1
303,317,316,305,1
305,319,317,306,1
306,320,318,307,1
307,319,317,309,1
308,319,317,312,1
308,319,317,316,1
308,319,316,319,1
310,319,316,321,1
312,319,315,321,1
314,318,314,320,1
315,316,314,320,1
316,315,313,319,1
315,314,313,318,1
315,313,313,317,1
314,312,313,317,1
313,312,312,316,1
311,311,310,316,1
310,311,309,315,1
308,310,308,313,1
307,309,306,312,1
306,308,305,309,1
306,307,305,306,1
307,306,306,301,1
306,306,306,296,1
303,306,305,292,1
302,305,305,290,1
301,305,306,289,1
302,305,307,291,1
303,307,308,294,1
305,310,310,300,1
308,312,312,305,1
309,312,313,309,1
311,313,314,311,1
312,315,315,314,1
313,315,315,316,1
312,313,315,315,1
310,312,313,313,1
309,310,312,310,1
309,310,311,309,1
310,310,311,309,1
312,311,312,309,1
314,313,313,310,1
315,314,313,311,1
314,314,313,312,1
313,314,313,313,1
312,313,312,313,1
309,311,311,312,1
307,309,309,309,1
305,306,307,306,1
303,303,304,302,1
302,299,303,298,1
301,297,302,297,1
300,296,302,296,1
300,296,302,295,1
300,298,301,295,1
300,300,301,295,1
298,303,301,295,1
296,306,301,296,1
293,310,303,299,1
294,314,306,304,1
296,318,310,310,1
299,320,313,314,1
302,319,314,316,1
303,316,314,316,1
304,313,314,315,1
304,310,312,314,1
304,308,311,314,1
304,308,309,313,1
304,307,307,312,1
304,307,306,311,1
305,308,306,312,1
306,310,306,313,1
306,310,307,314,1
306,310,307,314,1
306,310,308,313,1
307,310,309,312,1
307,309,309,312,1
308,309,310,312,1
309,309,310,312,1
310,309,308,312,1
312,308,307,311,1
314,308,306,310,1
315,308,306,310,1
315,308,306,309,1
315,308,306,309,1
313,308,304,308,1
312,308,302,307,1
309,307,300,307,1
307,307,300,306,1
305,307,300,306,1
305,307,302,305,1
305,306,304,304,1
304,305,307,303,1
303,305,309,302,1
302,305,311,301,1
302,305,313,300,1
301,305,313,299,1
302,305,313,298,1
302,304,313,298,1
302,304,312,298,1
303,304,311,301,1
303,304,311,305,1
304,304,311,308,1
303,304,311,310,1
302,304,310,312,1
301,304,308,313,1
301,304,306,314,1
301,304,306,315,1
303,306,305,318,1
305,307,305,321,1
306,308,306,322,1
307,308,307,323,1
306,308,308,324,1
305,309,308,324,1
304,309,309,323,1
304,309,309,322,1
304,309,309,320,1
305,309,309,317,1
307,309,307,313,1
307,309,306,309,1
307,308,305,306,1
307,308,305,303,1
306,307,304,300,1
304,305,304,298,1
301,304,303,296,1
300,305,303,297,1
300,307,305,298,1
302,310,306,301,1
303,312,306,303,1
304,313,306,305,1
305,313,308,307,1
307,313,309,309,1
309,313,310,309,1
309,312,311,308,1
308,310,310,308,1
306,308,309,308,1
304,308,309,310,1
303,308,309,312,1
302,308,308,313,1
302,306,306,315,1
301,305,305,317,1
301,305,305,318,1
302,306,305,318,1
302,307,304,319,1
303,308,306,318,1
304,310,307,318,1
306,311,308,316,1
309,311,309,311,1
311,311,309,307,1
312,311,310,304,1
312,312,310,302,1
310,313,313,301,1
309,314,315,301,1
308,313,317,303,1
308,311,318,305,1
307,309,317,308,1
306,307,316,311,1
306,306,315,314,1
306,306,315,317,1
307,306,314,318,1
307,306,313,318,1
308,307,313,318,1
309,307,312,318,1
309,308,312,317,1
308,308,312,315,1
308,307,313,313,1
308,306,314,310,1
306,305,314,307,1
304,303,314,307,1
302,302,314,307,1
300,303,314,308,1
299,304,313,310,1
299,306,313,313,1
300,307,312,315,1
301,307,312,317,1
303,307,311,316,1
304,307,309,315,1
305,306,308,313,1
306,306,308,312,1
306,308,309,312,1
306,309,310,314,1
306,311,312,315,1
307,312,313,315,1
309,311,315,315,1
310,310,316,315,1
311,309,316,314,1
310,308,317,313,1
310,307,316,311,1
309,307,315,309,1
308,307,313,307,1
306,307,312,304,1
305,307,310,303,1
304,308,310,302,1
305,308,310,301,1
304,307,309,301,1
303,307,310,301,1
303,306,310,303,1
303,306,311,305,1
303,306,312,306,1
304,306,313,306,1
304,305,312,306,1
304,303,311,306,1
303,303,310,306,1
303,303,310,306,1
303,303,309,307,1
303,304,308,308,1
303,304,307,309,1
303,305,306,310,1
302,306,307,311,1
303,307,308,311,1
303,308,309,312,1
304,308,310,311,1
305,307,310,309,1
305,307,310,307,1
305,306,309,306,1
306,304,308,305,1
307,303,306,304,1
307,301,304,302,1
307,298,302,298,1
306,296,301,294,1
305,295,300,291,1
304,295,299,288,1
302,295,300,285,1
301,294,301,283,1
299,295,302,284,1
298,297,303,287,1
297,300,305,293,1
297,302,308,299,1
297,304,310,307,1
299,307,313,314,1
303,310,314,319,1
306,312,316,321,1
309,313,316,321,1
311,313,315,320,1
312,311,312,318,1
312,308,308,316,1
310,306,305,316,1
308,306,303,316,1
307,306,303,317,1
307,306,304,318,1
307,305,306,318,1
308,305,308,318,1
309,305,309,317,1
309,305,311,317,1
309,305,311,317,1
308,306,311,318,1
308,305,309,317,1
308,303,307,315,1
307,300,306,313,1
306,298,305,311,1
305,296,305,310,1
304,295,306,310,1
303,296,306,311,1
304,297,307,314,1
305,300,309,314,1
306,303,310,314,1
306,306,310,313,1
306,307,309,311,1
304,305,306,309,1
303,303,305,307,1
302,300,305,305,1
302,298,305,301,1
303,296,305,297,1
304,294,305,293,1
306,293,305,291,1
307,292,305,291,1
306,293,305,294,1
305,295,306,298,1
304,297,307,303,1
303,299,308,306,1
303,300,308,309,1
303,301,309,310,1
304,302,310,311,1
305,303,311,311,1
306,305,311,312,1
306,306,311,313,1
307,308,312,315,1
308,310,312,317,1
309,310,312,317,1
310,310,311,316,1
311,308,311,315,1
311,306,309,313,1
311,304,308,312,1
311,302,308,309,1
310,302,308,307,1
309,301,307,305,1
306,301,307,304,1
303,302,307,303,1
301,304,308,303,1
301,305,310,303,1
303,307,311,304,1
306,309,311,306,1
309,310,311,309,1
311,312,309,311,1
312,312,307,311,1
311,311,305,310,1
311,311,303,308,1
311,311,302,306,1
309,309,300,305,1
305,307,298,303,1
301,305,296,302,1
299,304,298,301,1
298,303,301,300,1
299,304,306,302,1
300,305,311,305,1
303,305,316,309,1
305,305,318,312,1
306,304,319,313,1
307,303,319,313,1
307,302,318,310,1
306,301,317,306,1
306,301,315,303,1
306,300,314,301,1
307,300,313,302,1
308,301,313,303,1
309,302,313,305,1
310,303,313,307,1
310,303,312,308,1
310,303,311,307,1
310,302,311,307,1
310,303,311,308,1
311,305,311,312,1
310,307,311,316,1
308,307,309,318,1
306,307,307,319,1
303,306,305,318,1
302,304,304,316,1
301,303,303,314,1
300,302,303,310,1
300,302,304,306,1
301,301,304,302,1
302,301,305,299,1
303,301,306,296,1
304,300,309,297,1
306,301,312,300,1
308,302,315,305,1
310,302,316,310,1
310,301,315,313,1
310,301,314,315,1
309,301,314,315,1
307,302,313,315,1
306,303,312,315,1
304,305,312,314,1
302,305,312,313,1
301,305,312,312,1
300,305,313,311,1
301,305,313,311,1
302,304,313,310,1
304,303,312,310,1
305,303,311,310,1
306,303,310,309,1
308,303,308,308,1
309,302,307,308,1
308,302,305,309,1
307,302,305,311,1
306,302,307,313,1
306,303,309,313,1
306,303,311,314,1
304,303,312,312,1
303,303,312,310,1
303,304,313,308,1
303,306,313,309,1
304,309,313,311,1
306,310,312,313,1
307,311,311,316,1
309,311,310,317,1
309,310,309,317,1
308,309,309,316,1
307,308,310,315,1
305,306,311,314,1
303,305,312,314,1
302,305,313,313,1
303,306,314,313,1
303,307,314,313,1
304,307,313,312,1
304,308,313,311,1
304,308,312,310,1
304,309,311,309,1
303,309,310,308,1
302,308,309,306,1
301,306,307,305,1
300,305,306,304,1
300,305,305,304,1
301,305,305,303,1
303,306,305,304,1
305,306,306,304,1
306,307,307,305,1
307,308,309,306,1
307,308,310,307,1
306,309,312,307,1
306,308,313,307,1
306,307,312,306,1
305,305,311,305,1
303,303,309,304,1
301,301,307,304,1
299,301,306,304,1
298,301,305,304,1
297,300,304,302,1
296,299,303,301,1
295,298,303,301,1
294,298,303,302,1
294,297,304,302,1
295,297,305,301,1
297,297,307,300,1
301,299,309,302,1
306,303,312,307,1
311,308,315,313,1
314,313,317,318,1
314,315,317,322,1
313,316,317,324,1
312,316,317,325,1
311,316,316,325,1
310,316,316,326,1
309,317,315,327,1
310,317,314,327,1
311,316,313,326,1
311,315,313,324,1
312,313,311,322,1
312,312,310,319,1
312,309,308,317,1
311,308,306,315,1
308,306,305,313,1
305,305,303,313,1
303,304,302,312,1
302,303,301,312,1
302,302,301,312,1
301,301,303,313,1
302,301,305,313,1
301,301,309,314,1
301,302,312,315,1
301,303,313,316,1
301,303,313,316,1
303,304,312,316,1
304,304,311,315,1
306,304,309,313,1
308,304,310,311,1
308,304,310,310,1
308,305,311,309,1
307,305,313,308,1
307,306,315,308,1
307,307,316,309,1
307,308,317,309,1
307,308,317,310,1
307,307,316,310,1
306,306,315,309,1
305,305,314,309,1
305,304,314,309,1
305,304,315,310,1
306,305,315,311,1
307,305,314,311,1
306,304,313,311,1
306,304,312,311,1
306,304,311,310,1
306,304,310,310,1
306,304,310,309,1
305,303,310,307,1
304,303,309,304,1
303,302,308,301,1
302,302,307,298,1
300,302,306,296,1
299,302,305,295,1
299,302,305,295,1
299,302,304,297,1
300,303,306,299,1
301,303,307,300,1
302,303,309,299,1
303,303,309,298,1
304,303,309,298,1
306,303,309,299,1
309,303,309,298,1
311,304,309,299,1
312,305,310,300,1
309,307,311,301,1
305,308,311,302,1
301,309,309,301,1
298,307,307,299,1
297,306,305,298,1
298,306,306,297,1
301,308,307,298,1
304,310,308,301,1
307,311,309,304,1
309,311,311,307,1
309,308,313,310,1
309,305,314,314,1
308,304,316,316,1
309,303,318,316,1
309,304,319,316,1
310,307,319,315,1
310,310,319,316,1
310,313,318,317,1
311,314,317,317,1
310,314,315,317,1
310,313,313,316,1
310,312,312,315,1
310,312,311,313,1
309,311,311,312,1
309,312,311,313,1
309,313,312,313,1
308,314,312,314,1
307,314,312,315,1
306,314,311,314,1
304,316,310,314,1
304,316,310,314,1
305,315,310,313,1
305,315,310,312,1
306,313,311,312,1
305,310,312,312,1
303,307,313,312,1
302,306,315,312,1
300,305,316,313,1
300,305,317,314,1
301,304,317,316,1
302,304,317,317,1
303,305,316,319,1
304,305,316,320,1
306,305,314,320,1
306,304,313,318,1
305,304,312,316,1
305,304,311,314,1
305,304,311,312,1
306,306,312,313,1
307,308,312,315,1
309,310,312,317,1
309,310,311,319,1
308,309,309,320,1
306,307,307,321,1
305,306,306,320,1
306,305,305,320,1
307,304,305,317,1
308,303,305,315,1
309,303,305,312,1
310,303,305,310,1
312,304,305,310,1
314,306,305,310,1
315,309,305,309,1
314,310,304,308,1
311,310,304,307,1
309,309,305,307,1
307,308,306,306,1
307,307,306,305,1
307,306,306,303,1
308,306,308,303,1
309,306,309,303,1
310,306,311,303,1
310,306,311,303,1
309,305,311,304,1
309,305,311,305,1
309,305,311,307,1
309,306,311,309,1
309,308,311,312,1
310,310,310,314,1
309,312,308,315,1
308,312,307,315,1
308,312,306,314,1
308,310,305,314,1
310,308,305,313,1
312,307,307,313,1
314,307,310,314,1
316,307,312,315,1
316,307,313,315,1
316,307,313,315,1
316,308,313,313,1
317,307,313,311,1
317,307,312,310,1
316,307,311,309,1
315,308,310,308,1
313,309,308,307,1
311,308,307,305,1
309,307,306,304,1
307,306,305,303,1
306,305,304,301,1
304,304,303,300,1
303,304,302,299,1
303,305,303,301,1
303,307,302,303,1
304,309,304,307,1
306,310,307,310,1
308,311,309,312,1
309,312,310,314,1
309,313,311,316,1
310,313,311,317,1
311,314,311,319,1
311,315,311,320,1
311,314,311,319,1
311,311,310,317,1
310,308,307,312,1
308,304,305,306,1
308,302,304,298,1
309,301,304,293,1
309,301,304,291,1
310,302,304,293,1
309,303,304,296,1
308,306,304,301,1
307,308,305,306,1
307,310,307,310,1
308,311,309,315,1
310,312,310,319,1
313,313,311,322,1
314,314,311,324,1
314,314,310,323,1
313,313,310,320,1
312,313,308,316,1
310,312,306,312,1
307,311,305,309,1
306,310,304,307,1
305,310,303,308,1
305,310,303,309,1
306,311,303,312,1
307,311,304,315,1
308,311,305,316,1
310,311,306,316,1
311,312,308,314,1
312,312,309,312,1
312,313,309,311,1
312,312,309,310,1
311,311,308,309,1
309,310,308,308,1
309,310,307,308,1
308,310,306,308,1
308,310,305,308,1
308,311,305,308,1
308,312,305,308,1
310,312,305,308,1
311,312,306,308,1
312,311,305,307,1
312,309,305,308,1
311,307,305,310,1
311,305,305,312,1
309,305,306,314,1
309,305,306,316,1
309,305,307,316,1
310,304,306,315,1
310,304,305,312,1
310,304,303,307,1
308,304,302,302,1
307,304,301,296,1
308,304,300,292,1
308,304,300,289,1
308,305,299,291,1
308,308,299,295,1
309,311,299,300,1
310,312,300,306,1
309,312,300,311,1
308,310,301,316,1
307,309,303,319,1
307,308,305,322,1
308,309,306,325,1
308,309,308,327,1
307,309,309,328,1
306,308,310,328,1
305,307,310,328,1
304,306,310,325,1
304,304,310,320,1
304,303,309,315,1
303,301,308,311,1
301,300,307,308,1
300,299,306,307,1
298,300,306,306,1
298,301,305,307,1
299,302,304,308,1
300,304,304,310,1
302,304,305,311,1
304,305,306,312,1
306,307,307,313,1
307,308,306,314,1
307,310,305,315,1
305,309,304,316,1
301,309,303,318,1
299,307,302,319,1
298,305,303,319,1
298,303,304,318,1
300,302,305,317,1
301,301,305,317,1
301,301,304,315,1
301,300,302,313,1
301,301,300,311,1
301,302,299,309,1
301,303,300,308,1
303,303,301,306,1
304,303,301,306,1
306,302,302,305,1
306,301,302,304,1
306,300,303,303,1
306,297,302,300,1
304,295,301,296,1
303,293,300,291,1
303,292,300,287,1
303,293,300,284,1
303,293,298,282,1
302,292,296,282,1
300,291,294,285,1
299,293,294,292,1
301,298,296,302,1
304,302,299,312,1
308,305,302,319,1
311,307,305,323,1
313,308,308,324,1
313,308,311,325,1
313,310,313,326,1
314,312,314,327,1
313,313,314,328,1
313,314,314,328,1
314,315,314,328,1
315,315,314,326,1
315,315,313,325,1
316,314,312,323,1
315,313,311,322,1
314,312,311,321,1
313,311,311,321,1
311,310,310,321,1
310,309,309,321,1
307,309,308,320,1
306,308,306,318,1
304,307,304,316,1
303,306,302,313,1
302,305,301,309,1
302,304,301,306,1
302,303,302,303,1
302,302,302,301,1
303,302,303,298,1
305,303,304,297,1
307,305,305,298,1
307,307,307,300,1
307,308,307,303,1
304,307,308,306,1
302,305,308,308,1
300,304,309,310,1
300,305,310,311,1
300,305,311,311,1
301,305,311,310,1
303,304,310,309,1
303,302,310,307,1
303,300,310,306,1
304,300,310,306,1
305,300,311,307,1
308,302,312,309,1
310,303,312,311,1
312,303,311,313,1
312,302,310,314,1
312,301,310,315,1
312,301,310,314,1
312,300,309,312,1
312,300,309,308,1
310,299,307,303,1
308,299,306,297,1
305,299,305,294,1
303,299,305,294,1
302,300,306,296,1
302,301,306,301,1
303,300,307,305,1
304,299,306,308,1
305,299,305,310,1
306,301,304,313,1
307,304,303,316,1
307,306,303,318,1
308,308,302,319,1
307,309,303,317,1
307,309,304,314,1
306,309,304,312,1
307,309,305,309,1
307,309,306,308,1
308,309,306,308,1
308,309,307,308,1
309,309,307,309,1
310,309,308,311,1
309,309,309,312,1
308,309,309,313,1
308,307,311,315,1
309,307,312,316,1
310,307,313,316,1
310,307,313,316,1
308,306,314,316,1
306,307,314,315,1
305,308,315,316,1
304,308,316,316,1
304,308,316,317,1
304,308,315,316,1
305,308,314,315,1
306,306,312,312,1
306,304,310,308,1
308,302,308,304,1
310,300,308,300,1
311,299,309,297,1
312,300,310,296,1
312,300,311,296,1
311,300,311,298,1
309,300,311,301,1
306,301,310,305,1
305,302,310,309,1
304,301,310,312,1
303,300,311,313,1
302,298,312,314,1
302,298,313,315,1
303,297,314,316,1
304,297,314,316,1
304,297,313,315,1
305,298,313,314,1
305,299,312,311,1
305,300,311,309,1
305,300,311,306,1
305,301,310,306,1
306,303,310,308,1
309,305,310,311,1
310,307,309,312,1
310,307,308,313,1
309,306,306,312,1
308,305,304,309,1
307,304,303,307,1
306,303,302,304,1
305,301,302,302,1
305,300,303,301,1
305,300,304,302,1
304,302,307,303,1
304,302,310,304,1
304,303,313,305,1
304,303,315,304,1
304,304,317,304,1
304,305,317,303,1
304,305,318,303,1
304,306,317,303,1
304,307,315,303,1
305,307,315,304,1
305,308,313,305,1
306,309,313,306,1
307,310,312,308,1
308,311,312,310,1
308,311,311,311,1
307,310,310,313,1
306,308,309,313,1
305,306,308,312,1
303,304,307,311,1
303,304,306,310,1
303,304,306,309,1
305,304,306,308,1
307,304,305,305,1
308,304,305,303,1
309,305,304,301,1
309,307,303,301,1
309,309,302,302,1
308,310,303,305,1
307,311,304,308,1
306,312,306,310,1
306,311,308,311,1
305,312,310,311,1
304,312,311,311,1
303,312,311,310,1
302,312,310,310,1
301,310,309,309,1
300,308,307,307,1
300,305,306,305,1
301,302,304,302,1
301,299,302,301,1
301,297,301,300,1
300,297,301,300,1
301,299,303,300,1
301,300,304,301,1
302,302,306,303,1
303,303,307,305,1
304,304,307,307,1
305,305,308,310,1
306,306,309,310,1
309,306,309,309,1
310,306,309,307,1
311,306,308,305,1
311,305,308,303,1
311,305,307,300,1
310,305,306,297,1
308,305,306,295,1
306,304,305,295,1
304,304,305,295,1
302,305,305,297,1
301,305,305,300,1
301,306,304,302,1
301,305,303,304,1
300,303,301,306,1
299,302,299,308,1
299,301,299,311,1
300,302,299,313,1
302,302,299,314,1
302,304,299,312,1
303,305,301,309,1
303,306,302,305,1
304,306,303,302,1
305,307,305,300,1
307,307,305,302,1
309,306,306,304,1
310,305,306,308,1
311,305,306,311,1
309,304,306,312,1
308,304,306,313,1
307,304,305,314,1
307,304,305,314,1
307,304,304,313,1
308,304,303,312,1
307,303,303,310,1
306,302,302,308,1
303,301,303,306,1
301,300,305,305,1
301,300,307,306,1
301,300,307,306,1
303,300,307,307,1
305,300,308,306,1
307,300,308,304,1
309,301,308,300,1
310,302,308,295,1
309,303,308,289,1
308,304,307,283,1
306,303,306,277,1
304,302,305,274,1
303,303,306,275,1
303,306,308,281,1
304,308,310,288,1
304,309,311,296,1
305,310,312,303,1
305,312,312,309,1
305,313,313,315,1
305,314,313,319,1
306,313,315,322,1
308,312,316,322,1
308,310,316,321,1
307,308,315,317,1
305,306,314,314,1
304,306,313,312,1
304,306,313,310,1
304,307,313,310,1
304,308,313,311,1
305,309,313,313,1
307,311,312,316,1
308,313,311,317,1
310,314,311,318,1
310,314,310,317,1
309,314,310,315,1
308,313,309,313,1
307,313,309,311,1
307,313,309,310,1
307,315,310,310,1
308,316,311,310,1
308,316,312,308,1
309,315,313,307,1
308,314,312,305,1
307,313,311,304,1
307,311,311,303,1
307,310,310,301,1
308,310,310,300,1
308,310,309,299,1
308,310,309,299,1
308,309,308,298,1
307,309,308,297,1
306,307,307,297,1
305,306,306,296,1
304,305,306,296,1
303,305,305,297,1
302,305,304,299,1
302,304,304,300,1
302,304,305,301,1
302,305,305,301,1
303,306,307,303,1
305,307,309,304,1
306,308,310,305,1
307,309,309,306,1
307,309,308,307,1
307,309,308,307,1
307,309,307,308,1
306,308,308,308,1
305,308,308,310,1
305,307,309,311,1
304,306,309,310,1
303,305,308,310,1
303,305,309,310,1
304,305,310,310,1
305,306,311,309,1
306,305,312,309,1
306,305,313,310,1
307,304,314,310,1
306,303,315,310,1
306,301,314,308,1
306,300,314,304,1
305,300,312,300,1
305,301,310,296,1
304,302,308,292,1
304,303,307,290,1
304,305,306,289,1
304,306,305,289,1
304,307,305,290,1
303,306,304,291,1
302,305,303,291,1
300,304,303,292,1
300,305,303,293,1
300,307,304,293,1
301,308,305,292,1
302,309,306,293,1
303,311,308,297,1
304,313,311,302,1
304,314,314,307,1
303,315,316,312,1
302,316,317,317,1
302,315,317,319,1
302,313,316,320,1
303,312,316,319,1
305,311,316,319,1
307,311,317,317,1
308,311,317,315,1
308,310,316,314,1
307,310,315,313,1
305,309,313,311,1
302,306,310,307,1
299,303,309,304,1
297,301,307,299,1
297,298,306,295,1
297,297,305,291,1
299,298,306,289,1
301,299,306,290,1
304,301,306,293,1
306,304,306,296,1
307,308,307,299,1
308,311,307,302,1
307,312,308,304,1
306,313,309,306,1
304,313,311,308,1
302,312,311,309,1
300,310,311,309,1
300,308,311,307,1
301,306,311,304,1
302,305,311,302,1
303,305,312,301,1
303,304,312,301,1
304,304,312,303,1
305,304,312,308,1
306,304,312,313,1
307,304,312,316,1
307,304,312,317,1
307,304,312,318,1
306,304,311,317,1
305,304,309,316,1
304,305,309,317,1
304,306,309,319,1
305,307,310,320,1
305,306,311,321,1
306,304,313,322,1
306,302,313,321,1
306,300,314,320,1
307,299,314,318,1
306,298,314,316,1
307,298,314,315,1
309,299,315,316,1
310,301,316,316,1
311,303,316,315,1
310,304,315,314,1
310,305,313,313,1
309,306,312,312,1
309,307,311,311,1
309,307,311,310,1
311,306,310,309,1
312,304,310,308,1
313,303,311,309,1
314,303,312,309,1
314,302,313,308,1
312,301,312,307,1
309,301,310,307,1
307,301,309,308,1
304,301,310,308,1
304,301,310,307,1
304,302,311,307,1
304,304,312,307,1
305,305,313,307,1
306,306,313,307,1
307,306,314,307,1
308,307,314,307,1
308,307,314,307,1
308,307,314,306,1
307,306,313,305,1
307,305,312,303,1
306,305,312,303,1
306,305,312,304,1
306,305,313,306,1
307,305,312,310,1
306,306,312,314,1
307,307,313,317,1
308,309,313,320,1
308,310,313,320,1
308,310,312,320,1
307,309,311,317,1
305,308,310,314,1
305,308,310,312,1
305,309,309,310,1
305,308,310,309,1
305,306,310,307,1
304,305,311,305,1
304,305,310,305,1
304,305,309,307,1
305,306,308,308,1
306,307,308,308,1
308,308,308,308,1
311,309,309,308,1
314,309,310,307,1
315,308,311,306,1
315,307,312,307,1
314,306,312,309,1
311,305,312,310,1
309,305,313,310,1
308,306,314,311,1
306,307,315,311,1
306,308,316,311,1
306,310,317,313,1
308,312,317,314,1
309,312,316,315,1
309,312,315,315,1
309,310,313,314,1
307,308,312,312,1
307,306,310,311,1
305,304,310,310,1
303,303,310,309,1
300,302,310,310,1
300,301,310,310,1
300,302,309,310,1
301,302,309,309,1
303,303,309,308,1
305,304,310,308,1
306,305,310,307,1
306,305,310,306,1
307,305,310,305,1
306,304,310,304,1
305,304,309,303,1
305,305,308,304,1
305,306,309,305,1
306,308,310,305,1
307,309,310,306,1
308,310,311,307,1
308,311,311,308,1
306,310,311,308,1
304,308,310,307,1
301,306,310,306,1
299,305,310,306,1
300,305,310,307,1
301,306,310,307,1
302,306,308,308,1
303,307,306,308,1
304,307,306,308,1
305,308,306,307,1
306,308,308,307,1
307,309,309,306,1
308,308,311,305,1
308,306,312,304,1
308,305,314,305,1
307,305,315,307,1
306,304,316,307,1
305,303,316,307,1
305,303,316,306,1
305,304,316,305,1
305,304,315,304,1
305,305,314,302,1
306,304,313,301,1
306,304,312,300,1
307,305,311,302,1
307,306,309,302,1
306,307,308,303,1
305,308,307,303,1
305,310,306,304,1
306,311,305,305,1
307,312,306,305,1
308,313,307,306,1
308,313,307,305,1
307,313,308,305,1
307,311,309,305,1
307,310,312,306,1
307,309,313,307,1
307,309,314,308,1
306,309,315,309,1
306,310,315,311,1
305,312,315,312,1
305,314,314,313,1
306,317,313,313,1
307,320,313,313,1
307,320,313,311,1
307,318,312,310,1
307,315,312,308,1
307,313,311,307,1
307,311,310,306,1
307,309,309,305,1
306,308,308,304,1
305,307,306,302,1
305,306,306,299,1
304,305,305,296,1
305,305,305,294,1
304,305,306,292,1
304,305,307,290,1
304,305,307,290,1
305,305,307,293,1
307,307,307,296,1
309,308,307,298,1
312,308,307,300,1
314,310,308,303,1
315,312,308,306,1
314,314,309,308,1
313,315,309,307,1
311,313,309,304,1
310,312,310,300,1
309,311,311,298,1
308,311,311,298,1
307,311,312,299,1
306,310,311,301,1
306,309,311,303,1
306,308,311,305,1
307,309,311,307,1
307,310,310,309,1
307,310,310,310,1
307,310,310,310,1
307,311,310,310,1
308,312,311,309,1
309,311,311,308,1
309,311,312,307,1
309,310,312,307,1
309,311,312,308,1
309,313,312,309,1
309,314,312,311,1
309,316,312,311,1
310,318,311,312,1
309,319,312,312,1
307,318,311,311,1
304,315,309,310,1
301,311,307,309,1
299,308,306,308,1
298,305,305,307,1
298,303,303,305,1
298,302,302,304,1
298,300,301,302,1
298,300,301,300,1
299,300,300,297,1
300,300,300,294,1
300,300,300,292,1
301,299,300,292,1
300,301,303,294,1
300,303,305,297,1
301,305,308,302,1
303,308,311,306,1
305,308,313,309,1
306,308,313,311,1
306,306,314,311,1
306,305,313,311,1
306,304,311,311,1
306,303,310,311,1
305,304,309,313,1
305,304,309,316,1
305,304,309,317,1
305,304,309,318,1
305,303,308,320,1
305,302,309,321,1
305,301,308,321,1
305,300,307,321,1
304,300,305,318,1
304,300,304,315,1
303,301,302,311,1
302,301,299,307,1
300,302,297,303,1
299,303,295,300,1
297,303,293,298,1
295,302,292,299,1
296,302,293,301,1
297,301,295,303,1
300,299,298,305,1
303,299,302,307,1
307,300,306,311,1
309,302,309,313,1
310,303,311,314,1
309,305,312,314,1
308,306,311,314,1
306,306,310,314,1
305,306,309,314,1
303,305,307,314,1
303,306,306,314,1
303,306,305,313,1
302,307,305,313,1
302,307,304,313,1
301,308,304,313,1
300,308,303,313,1
300,308,302,313,1
301,309,303,313,1
301,311,304,312,1
301,312,304,310,1
302,312,304,308,1
301,311,303,304,1
300,308,301,299,1
298,304,300,296,1
297,301,300,293,1
298,299,302,292,1
299,300,304,294,1
300,301,306,297,1
301,302,307,301,1
301,303,307,304,1
301,304,307,307,1
302,306,306,310,1
303,307,306,311,1
304,307,306,310,1
305,308,306,308,1
306,308,306,305,1
306,308,306,304,1
307,308,306,304,1
308,308,306,304,1
308,307,306,304,1
308,306,306,304,1
307,306,305,304,1
306,307,304,304,1
305,306,304,303,1
303,304,303,302,1
301,302,302,300,1
300,299,301,298,1
298,297,299,294,1
296,294,297,292,1
295,294,296,293,1
295,297,297,297,1
298,301,300,303,1
302,304,303,307,1
305,305,304,309,1
307,306,305,308,1
307,305,305,307,1
306,305,307,305,1
305,305,308,304,1
305,305,310,305,1
305,304,311,306,1
306,304,311,307,1
306,303,309,309,1
307,304,308,311,1
308,305,306,313,1
309,306,306,313,1
309,306,306,313,1
308,307,307,313,1
309,308,308,313,1
309,308,309,313,1
309,309,309,313,1
309,310,309,313,1
309,310,308,311,1
308,310,307,310,1
306,310,306,308,1
305,309,305,306,1
304,309,304,304,1
303,308,304,301,1
302,307,303,298,1
302,308,303,297,1
301,308,303,299,1
301,310,304,302,1
302,311,305,305,1
302,312,306,308,1
305,313,308,310,1
309,313,309,311,1
311,311,309,308,1
312,308,308,304,1
311,306,306,300,1
309,305,305,297,1
307,304,304,295,1
305,305,303,295,1
304,307,303,298,1
305,309,304,301,1
306,310,305,303,1
307,311,306,304,1
308,310,306,303,1
307,308,305,302,1
306,306,303,301,1
305,304,302,300,1
303,303,300,299,1
301,302,300,300,1
300,303,300,301,1
300,303,300,302,1
301,304,302,302,1
302,305,303,303,1
303,306,305,303,1
303,307,306,304,1
303,308,308,304,1
302,308,309,304,1
301,307,308,303,1
300,306,307,302,1
300,305,305,303,1
300,306,304,304,1
301,306,302,304,1
301,307,301,304,1
301,306,300,303,1
301,306,300,302,1
301,306,301,302,1
302,307,303,302,1
303,309,305,302,1
305,311,306,301,1
305,311,306,300,1
305,311,305,298,1
305,311,304,297,1
306,310,304,296,1
306,309,303,294,1
306,307,302,292,1
306,306,301,293,1
306,305,302,295,1
307,305,302,298,1
307,306,302,302,1
307,308,303,307,1
307,309,303,312,1
306,308,303,314,1
306,307,304,315,1
306,307,305,315,1
306,307,306,315,1
306,307,307,315,1
307,307,307,314,1
307,308,306,312,1
307,307,307,310,1
307,307,308,308,1
308,308,309,305,1
310,307,310,304,1
313,307,311,303,1
315,306,312,304,1
316,305,313,307,1
316,305,313,310,1
313,304,312,312,1
309,304,310,312,1
306,304,308,310,1
304,304,306,307,1
302,304,303,304,1
300,304,300,302,1
299,304,297,300,1
300,303,296,300,1
300,303,297,302,1
302,304,299,304,1
304,306,302,307,1
307,309,306,311,1
309,312,309,314,1
310,315,311,315,1
311,316,313,314,1
312,317,314,312,1
312,316,315,309,1
310,313,314,305,1
308,311,312,301,1
307,309,310,298,1
307,307,309,298,1
307,307,309,300,1
308,308,308,304,1
310,310,308,308,1
311,311,309,312,1
311,311,309,313,1
311,311,309,314,1
311,311,308,312,1
311,310,308,308,1
311,309,308,304,1
312,308,308,300,1
311,307,307,297,1
311,306,305,296,1
310,307,304,297,1
311,308,304,300,1
311,310,305,304,1
310,311,305,307,1
308,311,304,308,1
305,310,304,310,1
302,309,303,310,1
300,308,303,310,1
299,307,303,309,1
298,306,304,307,1
298,306,305,307,1
298,306,307,308,1
300,307,309,309,1
301,308,311,310,1
302,308,311,309,1
303,309,311,308,1
303,310,310,307,1
304,312,310,307,1
306,316,310,310,1
307,320,310,313,1
307,321,309,315,1
307,321,309,316,1
306,319,308,315,1
304,315,306,313,1
303,310,304,311,1
302,306,302,308,1
300,303,302,307,1
301,302,303,306,1
302,302,304,306,1
304,302,305,304,1
307,303,305,303,1
309,304,305,303,1
309,305,305,302,1
308,306,305,300,1
308,307,306,299,1
308,309,305,298,1
308,310,305,297,1
308,311,303,296,1
308,311,303,296,1
307,310,301,297,1
308,310,302,301,1
310,312,303,305,1
312,312,304,308,1
314,313,305,310,1
315,314,306,312,1
316,316,308,313,1
316,316,309,314,1
314,315,309,315,1
312,313,308,315,1
309,311,307,314,1
306,310,305,311,1
303,309,304,309,1
302,308,303,307,1
301,308,302,305,1
300,307,299,303,1
299,305,296,301,1
297,303,294,299,1
296,301,293,297,1
296,299,294,295,1
297,300,297,295,1
300,302,301,296,1
304,305,306,298,1
308,307,309,299,1
311,309,311,300,1
313,310,311,300,1
313,310,311,300,1
314,310,310,300,1
314,310,310,301,1
314,310,309,302,1
314,311,309,303,1
314,311,307,304,1
315,313,307,304,1
316,314,306,304,1
316,315,306,303,1
316,314,306,301,1
316,314,307,300,1
316,314,308,299,1
315,312,307,296,1
311,310,306,293,1
308,309,304,291,1
306,308,302,288,1
305,307,301,285,1
305,307,301,283,1
306,308,302,283,1
308,311,304,287,1
309,313,306,291,1
309,314,308,296,1
308,315,309,301,1
306,314,310,305,1
305,312,311,309,1
305,310,313,313,1
306,309,315,317,1
307,308,317,319,1
308,307,317,318,1
307,305,317,316,1
305,304,315,314,1
304,304,314,312,1
304,304,313,311,1
305,304,312,309,1
305,303,311,307,1
305,302,310,305,1
305,303,309,305,1
307,304,310,305,1
309,306,311,306,1
311,308,312,306,1
312,309,311,306,1
311,307,309,305,1
310,305,306,303,1
307,303,304,301,1
305,301,303,298,1
303,300,304,296,1
303,301,305,293,1
304,302,307,292,1
305,303,308,294,1
305,306,308,297,1
305,308,309,303,1
306,310,311,308,1
307,312,313,312,1
307,313,315,314,1
308,313,315,316,1
307,312,315,315,1
305,311,313,314,1
304,309,312,312,1
304,307,311,311,1
306,306,312,310,1
307,305,312,308,1
308,304,310,305,1
307,303,308,302,1
307,301,306,299,1
305,300,305,297,1
304,302,304,296,1
304,304,304,296,1
304,305,304,297,1
304,305,303,299,1
304,308,301,303,1
306,310,300,307,1
307,312,299,311,1
307,313,300,314,1
306,312,302,316,1
305,313,304,318,1
305,312,306,319,1
305,310,307,318,1
305,307,307,316,1
306,304,308,313,1
306,302,308,311,1
308,301,310,310,1
308,302,312,309,1
308,303,312,309,1
307,304,313,311,1
305,305,312,312,1
303,306,311,312,1
301,307,311,311,1
301,308,310,310,1
303,310,310,311,1
305,310,311,312,1
308,310,310,313,1
310,310,309,313,1
310,309,308,312,1
310,308,307,311,1
308,306,307,308,1
305,304,307,306,1
302,302,305,305,1
300,300,303,304,1
298,300,302,304,1
298,301,302,305,1
298,303,303,305,1
298,305,305,305,1
298,307,308,307,1
300,308,310,308,1
303,309,311,308,1
305,308,312,308,1
307,306,312,307,1
308,304,311,305,1
308,302,310,304,1
307,301,307,302,1
305,300,305,301,1
304,299,303,298,1
302,299,303,297,1
301,300,305,296,1
301,300,309,296,1
301,301,311,296,1
300,302,313,297,1
300,303,313,297,1
300,304,311,297,1
300,305,309,296,1
302,305,308,294,1
303,303,307,293,1
305,302,306,293,1
306,302,306,295,1
308,303,307,298,1
309,304,308,301,1
308,304,309,303,1
307,303,309,305,1
307,304,310,309,1
307,305,309,312,1
308,305,309,314,1
308,305,307,314,1
308,304,306,315,1
308,303,305,314,1
307,303,305,313,1
308,305,305,311,1
309,307,305,310,1
310,309,305,310,1
311,311,305,309,1
312,311,306,308,1
313,311,307,308,1
314,312,308,310,1
313,312,311,313,1
313,312,312,317,1
312,310,313,320,1
310,307,312,321,1
307,303,311,320,1
306,301,309,318,1
305,299,307,317,1
304,299,304,316,1
304,300,302,314,1
304,301,300,313,1
305,302,299,313,1
307,303,301,313,1
309,304,302,313,1
309,304,304,313,1
309,304,306,311,1
308,303,308,310,1
306,302,309,309,1
305,302,307,308,1
304,301,306,307,1
305,302,305,307,1
305,302,304,306,1
306,302,304,306,1
307,302,304,306,1
307,301,304,307,1
308,300,304,307,1
308,300,304,308,1
309,300,304,309,1
310,301,304,308,1
310,302,304,307,1
310,304,304,306,1
309,306,303,305,1
309,309,303,305,1
310,310,303,306,1
310,310,304,307,1
312,310,304,308,1
313,309,304,309,1
314,308,303,309,1
315,309,303,308,1
315,309,303,306,1
312,308,303,304,1
309,308,305,302,1
306,308,305,301,1
304,310,306,301,1
303,310,306,302,1
302,310,306,301,1
300,308,305,299,1
300,307,303,298,1
300,306,302,298,1
302,305,301,299,1
303,304,300,301,1
303,304,301,304,1
304,305,303,307,1
305,307,305,310,1
306,309,307,313,1
307,311,309,315,1
308,312,310,314,1
309,313,311,313,1
310,314,311,311,1
309,314,311,307,1
307,314,310,304,1
305,313,309,300,1
304,311,308,297,1
303,311,308,297,1
304,312,308,299,1
305,312,308,302,1
306,312,309,304,1
306,312,309,307,1
306,311,309,311,1
306,313,308,314,1
306,315,308,317,1
307,316,308,318,1
308,315,307,318,1
308,313,307,317,1
308,311,306,315,1
307,310,305,314,1
306,310,303,312,1
305,309,302,309,1
304,307,301,305,1
302,306,300,302,1
301,305,299,300,1
302,304,300,299,1
302,305,302,299,1
303,306,303,300,1
303,307,304,301,1
303,306,304,302,1
302,303,304,302,1
302,301,304,303,1
302,299,303,304,1
301,299,303,306,1
301,300,302,307,1
301,300,302,306,1
300,300,302,304,1
299,299,302,304,1
299,300,303,304,1
298,302,304,306,1
299,304,305,308,1
301,307,307,308,1
304,308,306,309,1
306,309,305,309,1
307,309,304,310,1
307,309,303,310,1
308,309,303,311,1
309,308,304,311,1
311,308,306,311,1
312,307,307,309,1
314,306,308,307,1
314,305,309,304,1
314,304,309,301,1
312,303,308,300,1
309,304,308,299,1
306,306,308,299,1
304,308,308,298,1
301,308,307,297,1
300,309,306,297,1
299,310,306,298,1
300,311,306,300,1
301,312,306,301,1
302,314,306,302,1
303,315,307,303,1
305,315,308,304,1
305,315,309,305,1
306,314,310,305,1
306,313,311,306,1
308,312,312,308,1
309,311,313,309,1
310,310,314,310,1
310,309,314,310,1
310,309,313,311,1
310,309,313,310,1
310,309,313,310,1
307,309,312,309,1
305,308,311,308,1
302,307,311,308,1
301,307,310,308,1
300,307,310,309,1
300,306,309,308,1
299,306,307,307,1
299,305,306,306,1
299,305,306,304,1
300,305,306,302,1
301,304,306,298,1
301,302,307,293,1
302,301,307,290,1
302,302,308,289,1
303,304,309,290,1
304,307,309,292,1
305,309,309,294,1
306,310,309,294,1
305,310,309,294,1
304,307,308,295,1
302,304,307,299,1
301,301,306,303,1
300,300,305,307,1
300,302,305,312,1
301,305,306,316,1
305,309,309,318,1
308,312,312,319,1
311,313,313,318,1
312,313,313,317,1
311,312,312,314,1
309,311,311,312,1
308,310,311,311,1
308,310,311,309,1
308,308,311,306,1
308,308,312,305,1
309,308,314,305,1
311,309,316,306,1
312,310,318,306,1
311,311,318,307,1
310,312,318,307,1
308,312,318,307,1
306,312,317,307,1
305,312,317,307,1
304,312,315,306,1
304,312,313,305,1
304,311,312,304,1
305,310,311,303,1
306,310,311,302,1
308,309,311,300,1
309,307,311,298,1
310,305,310,296,1
310,303,309,294,1
309,301,308,293,1
309,300,307,291,1
308,301,306,292,1
306,302,306,293,1
305,304,307,294,1
305,307,308,297,1
304,309,309,300,1
304,311,310,303,1
304,311,308,303,1
303,310,306,301,1
301,308,303,299,1
300,307,302,299,1
300,306,303,299,1
299,306,305,300,1
299,306,307,301,1
299,306,309,301,1
301,307,311,302,1
302,308,312,302,1
303,308,313,301,1
304,308,313,300,1
304,308,313,301,1
306,308,314,302,1
307,308,314,303,1
306,308,313,304,1
304,308,311,303,1
303,308,311,303,1
303,309,311,304,1
302,309,310,304,1
303,308,310,305,1
303,308,309,307,1
303,307,309,308,1
303,306,308,309,1
304,305,308,309,1
305,304,308,307,1
305,304,309,305,1
304,305,309,302,1
303,305,310,299,1
304,305,311,298,1
304,305,311,297,1
304,305,311,298,1
304,304,311,300,1
304,304,310,301,1
304,304,310,300,1
304,305,309,298,1
303,306,308,298,1
303,306,308,299,1
303,308,308,300,1
303,309,308,301,1
303,309,307,301,1
302,308,306,300,1
299,307,304,299,1
297,306,303,297,1
294,305,302,295,1
293,305,302,293,1
295,306,305,292,1
299,307,308,292,1
304,309,310,292,1
307,310,311,292,1
308,309,311,293,1
307,309,310,295,1
307,310,310,300,1
306,312,310,304,1
306,312,309,306,1
305,312,308,306,1
305,311,308,307,1
304,312,308,308,1
304,312,308,309,1
303,313,309,311,1
303,313,311,313,1
304,313,313,313,1
305,311,314,311,1
308,308,313,307,1
311,306,312,303,1
313,304,311,300,1
312,303,310,298,1
310,302,309,296,1
307,303,310,297,1
305,305,312,299,1
304,309,313,302,1
303,311,314,303,1
302,311,314,303,1
301,310,314,302,1
302,310,313,301,1
304,309,313,302,1
305,309,313,303,1
306,309,313,304,1
306,309,311,305,1
306,308,310,306,1
305,309,309,306,1
305,309,308,306,1
304,309,308,306,1
304,309,307,306,1
304,309,306,306,1
304,309,306,305,1
304,309,306,303,1
303,308,306,302,1
302,307,307,302,1
300,306,308,301,1
299,306,309,302,1
299,306,309,303,1
300,306,310,305,1
300,306,310,305,1
300,306,311,305,1
301,306,311,305,1
302,306,312,305,1
302,306,312,303,1
303,307,311,302,1
304,308,310,299,1
305,307,309,297,1
305,306,308,295,1
305,305,307,293,1
305,304,306,291,1
305,304,306,289,1
305,304,306,288,1
303,305,306,287,1
301,304,306,285,1
299,303,306,285,1
299,304,307,287,1
299,306,307,292,1
299,305,306,295,1
297,303,305,297,1
296,301,304,298,1
295,300,303,299,1
296,300,303,297,1
297,300,303,293,1
297,301,303,290,1
299,302,304,289,1
301,304,305,290,1
303,305,305,292,1
304,305,305,294,1
305,304,304,296,1
307,303,304,297,1
309,304,306,300,1
312,305,309,303,1
314,307,313,307,1
315,308,316,310,1
313,308,318,312,1
311,307,318,313,1
308,306,317,312,1
305,305,315,310,1
304,306,312,310,1
305,307,311,311,1
305,308,311,312,1
306,309,311,313,1
306,310,311,315,1
305,311,312,316,1
305,311,311,318,1
303,309,310,319,1
302,308,309,319,1
300,306,307,318,1
299,305,305,317,1
298,303,303,315,1
298,302,303,313,1
299,302,304,311,1
300,302,306,311,1
301,304,309,312,1
302,305,312,312,1
304,308,314,311,1
305,309,315,310,1
306,309,316,308,1
308,309,315,305,1
309,308,315,305,1
309,307,314,304,1
308,305,312,304,1
307,303,309,302,1
305,301,307,302,1
303,300,305,301,1
302,300,304,301,1
301,300,303,301,1
301,301,303,302,1
302,302,304,303,1
303,302,305,304,1
305,302,306,305,1
305,302,306,307,1
305,302,306,308,1
305,302,305,310,1
304,302,306,314,1
305,302,307,316,1
306,303,307,317,1
306,305,308,316,1
305,306,307,314,1
304,307,306,312,1
303,307,305,309,1
303,308,305,307,1
303,309,306,306,1
304,309,307,306,1
304,309,307,307,1
303,309,306,308,1
302,309,306,309,1
302,309,305,310,1
302,309,304,311,1
302,307,303,313,1
303,307,303,315,1
304,308,303,317,1
305,307,303,318,1
305,306,302,318,1
305,305,302,317,1
304,303,301,314,1
303,301,298,309,1
302,300,296,305,1
301,299,295,303,1
302,300,295,302,1
303,300,295,302,1
305,300,297,302,1
307,300,299,301,1
309,300,300,300,1
310,300,300,299,1
310,301,299,297,1
309,301,297,295,1
308,303,297,294,1
307,305,297,297,1
306,307,299,300,1
305,309,300,303,1
304,310,302,306,1
303,310,304,308,1
303,310,306,309,1
303,310,308,311,1
304,309,309,312,1
305,309,310,314,1
306,309,309,316,1
308,308,309,318,1
309,308,308,320,1
309,307,308,322,1
309,307,308,323,1
308,307,308,325,1
306,306,307,325,1
305,304,305,323,1
303,302,303,321,1
302,300,301,318,1
302,297,298,314,1
301,296,294,310,1
300,296,291,306,1
302,297,290,303,1
304,298,292,302,1
307,300,294,302,1
311,301,297,304,1
314,303,300,307,1
316,304,302,309,1
318,305,304,310,1
320,305,305,311,1
319,305,306,313,1
317,306,307,315,1
315,306,308,317,1
314,307,308,318,1
312,308,308,317,1
311,310,308,315,1
311,312,307,313,1
311,313,306,308,1
311,312,305,303,1
309,311,303,298,1
307,308,301,294,1
304,305,301,293,1
303,304,302,296,1
303,304,303,302,1
303,304,304,307,1
304,304,304,310,1
305,303,304,312,1
307,304,304,313,1
307,306,304,314,1
308,308,304,315,1
308,309,303,315,1
307,308,304,315,1
307,307,305,316,1
306,305,306,317,1
305,303,306,316,1
305,302,307,316,1
305,302,307,316,1
305,302,307,316,1
305,303,306,317,1
306,304,306,317,1
306,305,305,317,1
307,307,305,316,1
308,308,304,314,1
309,309,303,314,1
309,309,303,313,1
309,309,304,312,1
311,310,304,311,1
311,311,304,311,1
311,313,304,311,1
309,313,304,310,1
307,312,302,309,1
304,310,301,308,1
303,309,300,307,1
302,308,300,307,1
302,306,300,306,1
302,304,299,305,1
302,303,299,306,1
303,301,298,305,1
304,301,298,305,1
305,302,298,304,1
305,304,298,305,1
305,305,298,305,1
305,306,298,306,1
306,307,298,307,1
307,308,299,308,1
308,308,300,308,1
310,309,303,309,1
311,309,304,310,1
311,310,304,311,1
310,310,304,312,1
307,310,304,312,1
304,310,303,312,1
303,309,302,312,1
301,309,302,311,1
300,309,301,312,1
300,309,301,313,1
300,309,301,315,1
301,309,300,316,1
301,308,300,317,1
302,308,299,316,1
302,307,298,313,1
302,305,297,309,1
303,304,296,305,1
304,304,296,303,1
306,306,297,303,1
307,307,299,303,1
308,308,301,303,1
309,310,303,301,1
310,311,305,299,1
311,312,306,298,1
312,312,306,298,1
312,314,305,298,1
312,314,305,298,1
311,314,304,298,1
310,314,304,299,1
310,314,303,300,1
310,313,303,302,1
310,311,302,302,1
312,309,301,302,1
315,308,301,302,1
318,308,302,300,1
318,307,302,299,1
316,306,301,296,1
313,306,300,294,1
309,305,298,293,1
306,305,298,293,1
304,307,297,295,1
304,309,298,298,1
304,311,300,301,1
305,313,302,304,1
305,314,302,305,1
305,314,302,306,1
305,312,302,306,1
304,310,304,306,1
304,308,305,307,1
306,308,306,310,1
308,308,307,312,1
311,309,306,313,1
312,309,306,312,1
313,309,305,312,1
313,309,304,310,1
311,307,303,308,1
309,305,302,307,1
308,305,301,306,1
307,305,301,307,1
306,306,302,308,1
307,309,303,311,1
308,310,305,313,1
310,310,305,314,1
312,310,306,314,1
312,310,306,313,1
312,309,305,311,1
311,307,304,308,1
310,306,304,305,1
308,305,303,303,1
307,305,302,302,1
308,305,302,303,1
309,306,302,303,1
311,306,302,305,1
312,307,302,306,1
314,307,302,306,1
314,307,302,306,1
315,306,302,305,1
315,306,302,304,1
313,304,301,303,1
311,303,300,303,1
309,302,300,303,1
307,302,300,303,1
306,302,301,304,1
305,303,303,306,1
303,303,303,308,1
301,304,302,310,1
298,303,299,311,1
296,301,295,310,1
294,300,293,309,1
294,299,294,309,1
296,299,298,309,1
299,299,302,308,1
301,299,306,307,1
302,300,310,306,1
303,302,311,304,1
304,302,312,302,1
305,303,312,300,1
307,304,313,301,1
308,306,312,303,1
308,308,312,307,1
308,309,312,311,1
308,309,311,314,1
306,307,310,315,1
306,306,309,315,1
306,305,309,314,1
307,305,308,314,1
308,306,307,314,1
307,307,305,313,1
307,307,303,311,1
306,307,301,310,1
306,306,300,307,1
304,305,299,304,1
303,304,300,302,1
303,303,302,301,1
304,302,304,301,1
303,302,305,302,1
303,303,306,304,1
304,305,308,307,1
306,306,310,310,1
307,308,310,312,1
307,309,310,312,1
305,308,309,312,1
303,307,309,312,1
301,306,309,311,1
299,305,308,310,1
298,303,307,309,1
299,303,307,307,1
299,302,305,306,1
300,302,303,303,1
300,301,301,300,1
301,301,299,297,1
301,300,299,294,1
301,301,299,291,1
300,300,300,288,1
300,300,302,286,1
301,301,303,286,1
303,303,305,290,1
305,305,307,294,1
307,306,308,299,1
309,306,308,302,1
309,307,309,305,1
309,308,309,308,1
308,308,310,310,1
308,309,310,311,1
309,310,310,313,1
311,311,311,314,1
311,311,310,314,1
310,310,310,314,1
309,309,308,313,1
309,307,307,312,1
309,306,306,310,1
309,304,305,308,1
309,302,304,305,1
308,301,303,302,1
307,300,302,300,1
307,299,300,298,1
308,298,299,296,1
309,298,298,294,1
310,299,298,293,1
309,301,300,292,1
309,303,301,293,1
311,304,302,293,1
313,306,303,295,1
316,308,304,298,1
318,311,305,301,1
320,312,306,304,1
319,313,305,304,1
318,311,304,302,1
317,310,302,299,1
315,307,302,295,1
314,305,302,291,1
313,305,303,288,1
312,305,304,286,1
312,305,305,284,1
311,304,305,283,1
310,304,305,286,1
310,304,306,291,1
311,305,306,296,1
312,306,306,301,1
313,307,305,305,1
315,308,305,308,1
315,308,305,310,1
314,307,305,311,1
314,305,305,310,1
314,304,305,308,1
315,303,306,305,1
316,303,307,303,1
318,304,310,304,1
319,305,311,306,1
320,305,312,307,1
320,306,312,309,1
319,308,310,310,1
318,310,309,310,1
316,311,307,309,1
313,311,304,307,1
308,311,301,305,1
304,310,299,304,1
302,309,299,304,1
301,308,299,305,1
302,308,301,306,1
305,307,303,307,1
307,307,306,307,1
309,306,309,307,1
308,305,310,307,1
308,304,310,307,1
307,303,310,307,1
307,302,310,307,1
307,302,310,305,1
308,302,309,303,1
308,303,309,301,1
308,303,308,299,1
308,303,308,298,1
307,304,307,297,1
307,303,306,298,1
306,304,306,298,1
306,304,306,299,1
307,306,307,299,1
307,306,307,298,1
306,306,306,296,1
305,305,303,293,1
303,305,303,291,1
303,305,304,289,1
303,304,305,289,1
304,304,306,290,1
304,304,307,293,1
304,305,309,296,1
303,304,310,299,1
302,304,311,300,1
302,304,312,299,1
303,304,312,297,1
303,305,311,296,1
303,305,310,295,1
304,307,310,295,1
305,309,309,297,1
307,310,309,299,1
308,312,308,303,1
310,314,307,307,1
311,316,307,311,1
311,316,307,314,1
311,315,309,316,1
311,315,310,318,1
311,313,311,318,1
310,312,309,317,1
307,310,307,314,1
304,308,305,311,1
302,306,304,308,1
301,304,303,304,1
301,302,304,301,1
302,302,307,298,1
303,301,310,296,1
304,302,314,296,1
305,303,318,297,1
307,304,322,299,1
308,304,322,302,1
309,304,321,304,1
311,306,319,308,1
313,307,317,312,1
314,308,315,314,1
314,307,314,315,1
313,306,312,314,1
311,305,310,313,1
310,304,308,311,1
311,304,307,308,1
311,304,308,307,1
313,303,310,307,1
313,303,313,308,1
314,303,314,309,1
313,304,314,312,1
312,306,314,313,1
311,307,314,315,1
310,308,314,316,1
310,310,315,318,1
311,312,316,319,1
311,313,317,319,1
311,312,316,317,1
310,311,314,314,1
308,309,311,311,1
306,307,309,308,1
305,306,307,305,1
303,305,305,303,1
302,304,303,301,1
302,303,302,300,1
301,304,301,302,1
301,305,301,305,1
302,307,304,309,1
304,309,307,311,1
303,311,308,310,1
302,310,307,308,1
300,309,305,305,1
299,308,301,303,1
299,306,297,300,1
301,304,295,298,1
303,303,294,297,1
304,302,295,299,1
306,303,297,303,1
306,305,299,307,1
305,306,300,311,1
304,307,300,313,1
304,307,300,314,1
304,309,301,314,1
303,309,301,314,1
301,309,301,312,1
301,309,301,311,1
301,307,302,309,1
301,306,303,308,1
300,304,303,308,1
300,304,303,308,1
300,305,305,309,1
302,307,306,310,1
303,308,307,310,1
305,308,308,309,1
305,308,307,307,1
305,308,306,305,1
304,308,303,305,1
304,309,301,306,1
303,310,301,309,1
304,312,302,311,1
304,311,303,313,1
305,310,303,314,1
307,307,305,315,1
310,306,308,315,1
313,307,309,314,1
316,307,310,314,1
317,307,310,315,1
318,306,310,315,1
318,303,307,313,1
316,300,306,311,1
314,297,307,308,1
312,297,309,305,1
310,297,312,304,1
308,298,313,303,1
307,301,313,301,1
306,303,311,301,1
306,305,308,301,1
308,307,306,302,1
308,309,304,304,1
309,309,303,306,1
310,310,303,308,1
310,309,302,309,1
310,308,302,310,1
310,308,302,312,1
312,308,303,314,1
314,308,303,316,1
316,308,303,317,1
317,309,303,318,1
318,308,303,317,1
317,306,302,313,1
315,304,302,309,1
313,304,304,308,1
311,304,306,307,1
310,303,308,306,1
308,300,309,304,1
307,298,311,303,1
308,297,314,302,1
310,298,317,304,1
313,301,318,307,1
315,302,318,310,1
314,301,315,311,1
312,299,311,311,1
309,298,306,311,1
308,300,302,313,1
308,301,298,314,1
308,303,297,316,1
309,305,297,316,1
309,306,298,316,1
308,305,298,314,1
304,304,299,311,1
302,302,298,309,1
303,303,299,310,1
305,305,300,313,1
307,308,303,316,1
310,310,305,317,1
311,311,308,317,1
312,312,311,315,1
310,310,311,313,1
306,307,309,310,1
302,305,305,308,1
299,303,303,307,1
298,303,302,308,1
300,304,303,309,1
303,306,304,311,1
304,308,305,313,1
306,310,306,314,1
307,310,308,313,1
307,309,310,314,1
307,307,313,314,1
306,305,314,315,1
306,304,316,317,1
308,305,318,319,1
309,306,320,320,1
309,305,320,321,1
308,304,318,320,1
307,301,316,318,1
306,299,312,316,1
306,298,309,314,1
306,297,307,313,1
306,297,306,312,1
305,299,305,313,1
304,301,305,313,1
305,304,305,314,1
305,307,307,313,1
306,308,308,312,1
308,308,308,311,1
312,308,307,309,1
314,307,307,309,1
314,305,306,310,1
314,304,305,312,1
312,303,304,311,1
310,302,304,308,1
307,302,304,303,1
305,302,304,298,1
303,303,305,294,1
302,304,307,294,1
303,305,310,299,1
305,308,314,309,1
308,312,317,318,1
309,314,318,325,1
310,314,318,327,1
310,312,317,327,1
310,310,315,325,1
309,307,314,323,1
308,305,313,321,1
306,303,311,320,1
303,302,309,319,1
302,301,307,318,1
300,300,308,315,1
300,300,309,313,1
301,300,309,311,1
303,301,309,309,1
304,301,308,307,1
306,302,308,307,1
307,303,307,307,1
307,303,308,307,1
307,303,307,307,1
305,304,307,306,1
303,306,307,306,1
301,308,308,307,1
301,310,310,309,1
300,311,309,311,1
300,310,308,313,1
299,309,307,314,1
299,308,305,314,1
299,307,303,313,1
298,307,302,312,1
299,307,300,310,1
299,307,299,308,1
300,306,299,306,1
299,305,299,305,1
298,304,301,305,1
297,303,302,307,1
297,302,303,308,1
296,303,304,309,1
297,303,304,309,1
297,304,303,309,1
298,304,303,308,1
298,305,302,307,1
299,304,302,307,1
300,304,303,307,1
301,305,305,308,1
303,307,307,309,1
305,308,309,310,1
307,309,309,310,1
308,309,309,308,1
307,309,309,307,1
308,309,308,308,1
308,310,309,310,1
309,310,308,311,1
308,309,308,311,1
308,306,307,310,1
306,303,307,309,1
304,300,306,306,1
303,297,306,303,1
301,294,306,299,1
300,292,305,295,1
299,292,303,294,1
298,294,302,295,1
299,296,302,298,1
299,300,303,300,1
300,302,304,303,1
302,304,306,306,1
304,307,308,309,1
306,310,309,312,1
309,314,310,316,1
312,316,311,319,1
314,317,310,321,1
315,317,308,321,1
315,316,306,320,1
316,314,304,319,1
317,314,305,320,1
319,313,306,320,1
318,313,306,321,1
317,313,306,322,1
315,313,307,324,1
312,313,307,324,1
308,311,307,322,1
304,309,306,320,1
301,307,305,318,1
299,306,304,315,1
299,306,304,314,1
301,307,304,314,1
304,308,306,314,1
306,307,307,313,1
307,306,307,313,1
308,306,307,313,1
309,306,306,313,1
310,306,304,313,1
311,307,303,313,1
312,308,302,312,1
311,309,300,312,1
310,309,298,312,1
309,309,295,312,1
306,308,294,313,1
303,307,294,312,1
300,304,295,309,1
298,302,296,306,1
298,300,299,304,1
298,300,302,303,1
297,300,305,304,1
297,301,307,306,1
296,303,307,308,1
296,303,305,309,1
295,303,303,310,1
295,303,302,311,1
295,304,301,311,1
296,305,301,312,1
298,305,300,312,1
301,306,300,312,1
303,307,300,314,1
305,307,300,314,1
305,306,300,314,1
305,304,300,314,1
304,303,300,315,1
303,304,301,315,1
303,305,303,317,1
302,306,304,318,1
302,307,306,318,1
301,308,306,318,1
302,308,306,318,1
302,307,307,319,1
303,307,307,320,1
304,307,307,321,1
306,306,308,321,1
306,304,307,320,1
305,303,306,318,1
304,301,305,316,1
304,301,304,314,1
304,302,304,313,1
305,304,304,311,1
306,306,304,310,1
306,306,305,309,1
306,305,305,307,1
305,304,304,305,1
303,304,304,305,1
302,304,304,306,1
301,304,304,308,1
301,304,304,311,1
302,305,305,314,1
304,307,305,317,1
307,308,304,319,1
309,309,304,320,1
312,308,304,320,1
314,307,304,320,1
317,306,304,318,1
317,304,304,316,1
316,303,304,313,1
313,301,304,309,1
310,299,303,304,1
306,298,303,302,1
305,299,304,303,1
304,301,305,307,1
304,303,308,312,1
305,304,309,315,1
304,304,310,317,1
305,304,310,317,1
304,303,309,315,1
303,303,307,314,1
304,304,305,313,1
305,306,304,313,1
305,307,304,313,1
307,307,303,312,1
308,307,303,312,1
309,308,304,311,1
309,308,304,310,1
308,308,304,309,1
306,308,303,308,1
305,307,304,307,1
304,307,305,307,1
304,307,307,307,1
305,307,310,308,1
305,308,311,309,1
304,309,311,310,1
304,310,310,311,1
304,311,307,311,1
303,311,303,312,1
303,310,300,312,1
303,309,297,311,1
304,308,296,308,1
305,307,296,306,1
306,307,298,305,1
308,307,300,305,1
309,306,302,304,1
308,305,304,304,1
308,305,304,304,1
308,304,305,304,1
307,303,305,304,1
308,303,304,304,1
308,303,304,305,1
310,304,304,307,1
310,304,304,308,1
310,303,303,308,1
308,302,302,308,1
305,301,302,307,1
303,300,300,306,1
301,298,299,304,1
299,297,297,301,1
297,296,297,299,1
297,296,297,297,1
299,297,298,298,1
301,299,301,300,1
304,303,302,304,1
306,306,304,309,1
309,307,305,313,1
310,306,306,316,1
311,305,306,317,1
310,303,305,317,1
308,302,304,317,1
306,300,304,316,1
305,299,304,315,1
303,300,304,314,1
302,302,303,312,1
302,303,302,310,1
301,304,302,308,1
301,306,302,308,1
303,308,303,309,1
305,310,304,309,1
307,310,305,310,1
307,309,306,309,1
306,308,307,306,1
305,306,306,304,1
305,306,306,302,1
306,306,305,302,1
308,307,305,303,1
309,308,304,306,1
309,308,303,309,1
308,308,303,311,1
306,307,302,313,1
304,307,301,314,1
303,307,300,315,1
303,307,299,314,1
303,307,296,313,1
304,306,293,313,1
304,306,290,313,1
304,306,290,314,1
303,306,292,315,1
304,306,297,316,1
304,307,300,316,1
305,307,303,315,1
307,307,305,314,1
308,307,307,313,1
310,306,308,312,1
311,306,309,311,1
311,306,308,310,1
309,306,308,309,1
308,306,307,308,1
308,306,306,307,1
308,305,306,306,1
309,305,306,305,1
310,304,306,304,1
313,304,307,304,1
314,303,306,305,1
314,302,306,305,1
313,302,307,306,1
312,302,308,308,1
310,302,309,309,1
309,301,310,309,1
308,302,311,310,1
308,302,311,312,1
308,304,311,313,1
309,306,311,314,1
309,307,311,314,1
309,308,311,315,1
309,309,308,316,1
310,310,306,317,1
311,310,304,316,1
312,311,304,315,1
313,310,304,312,1
312,309,304,309,1
311,306,303,306,1
309,304,301,302,1
308,303,300,299,1
307,304,299,298,1
307,306,300,300,1
308,308,300,304,1
309,310,300,307,1
309,311,300,311,1
309,312,301,314,1
309,313,301,317,1
309,314,302,317,1
308,314,302,317,1
307,314,302,315,1
306,314,301,312,1
305,315,300,310,1
303,316,299,308,1
302,315,300,306,1
301,314,301,305,1
301,313,302,304,1
302,312,303,305,1
304,312,304,305,1
306,313,305,304,1
308,314,305,304,1
308,314,305,305,1
307,313,306,306,1
305,312,306,308,1
304,311,306,309,1
304,311,306,311,1
305,312,306,312,1
305,312,305,312,1
305,313,304,312,1
305,312,304,311,1
305,312,304,312,1
306,312,304,311,1
306,311,304,311,1
306,311,304,310,1
306,310,303,310,1
307,310,303,310,1
309,310,303,309,1
311,310,304,309,1
313,310,304,308,1
315,309,304,308,1
315,309,303,307,1
314,308,302,306,1
313,307,301,305,1
312,306,301,304,1
311,307,300,303,1
309,306,300,301,1
308,305,299,297,1
306,305,299,294,1
304,305,299,294,1
304,306,300,296,1
303,307,301,298,1
304,308,302,302,1
303,307,302,304,1
302,307,303,307,1
301,308,304,311,1
301,309,305,315,1
302,309,304,317,1
302,309,303,318,1
302,309,301,317,1
303,309,298,315,1
304,307,296,313,1
306,305,296,310,1
308,302,296,307,1
309,301,298,305,1
309,300,299,303,1
308,300,299,300,1
307,300,297,296,1
305,301,296,294,1
304,303,296,294,1
303,306,299,298,1
304,309,302,302,1
304,311,305,305,1
304,312,306,308,1
304,313,308,312,1
304,315,310,315,1
305,316,311,315,1
306,317,311,314,1
306,316,310,312,1
306,315,308,309,1
306,313,306,308,1
306,311,305,307,1
308,311,305,308,1
308,310,305,310,1
308,309,305,312,1
307,308,305,313,1
306,307,306,313,1
305,305,306,312,1
304,305,306,310,1
302,305,307,309,1
302,305,308,307,1
303,305,309,305,1
303,305,310,304,1
304,306,310,303,1
304,305,310,303,1
304,306,310,303,1
303,307,309,304,1
302,307,307,305,1
301,306,305,307,1
300,305,305,308,1
301,305,305,310,1
303,305,306,311,1
304,305,307,311,1
304,306,307,311,1
303,306,306,309,1
302,306,305,308,1
302,306,305,307,1
304,308,306,308,1
306,310,306,310,1
308,311,305,312,1
309,312,305,313,1
311,312,306,315,1
312,312,306,317,1
312,312,306,318,1
311,311,306,318,1
308,310,305,317,1
304,307,304,315,1
302,304,303,311,1
301,301,303,306,1
301,300,304,301,1
301,299,304,297,1
301,299,304,293,1
300,298,303,291,1
300,298,303,291,1
299,298,302,293,1
299,301,302,299,1
300,304,303,305,1
300,307,304,312,1
301,309,306,316,1
301,309,308,319,1
301,310,309,320,1
301,311,309,321,1
302,311,307,321,1
303,310,303,319,1
304,309,300,317,1
304,308,298,314,1
305,308,298,311,1
306,309,298,307,1
307,309,299,304,1
307,308,300,301,1
307,306,301,299,1
307,304,302,298,1
307,303,302,297,1
307,303,302,297,1
306,302,302,297,1
306,302,302,297,1
305,303,304,298,1
305,305,304,301,1
305,306,305,304,1
305,307,306,306,1
305,308,307,308,1
306,309,306,309,1
306,310,306,308,1
307,310,305,307,1
308,310,303,305,1
309,311,303,305,1
310,311,303,306,1
310,311,304,308,1
310,310,306,310,1
309,309,308,313,1
308,307,309,315,1
308,306,309,317,1
307,305,306,317,1
306,304,303,317,1
305,304,302,316,1
305,305,301,315,1
306,305,301,314,1
307,307,301,312,1
308,307,301,310,1
309,306,301,307,1
308,305,300,304,1
308,305,300,303,1
309,306,300,302,1
310,307,302,302,1
310,308,304,301,1
311,309,306,302,1
311,309,307,302,1
310,310,307,304,1
309,311,308,305,1
308,311,309,307,1
307,312,310,309,1
306,312,311,311,1
306,312,311,312,1
306,311,310,312,1
306,309,309,312,1
305,308,309,312,1
304,307,309,313,1
304,307,309,314,1
304,307,308,315,1
304,307,307,316,1
304,307,306,316,1
303,306,305,315,1
301,305,303,312,1
299,305,303,310,1
299,305,303,307,1
299,306,303,305,1
301,306,304,303,1
302,306,306,302,1
305,307,308,303,1
307,309,309,306,1
308,311,310,307,1
309,312,309,308,1
308,312,308,307,1
307,312,306,306,1
305,311,304,304,1
304,309,302,301,1
301,307,301,298,1
300,305,301,297,1
299,304,301,297,1
299,304,302,299,1
300,305,303,302,1
300,305,304,306,1
301,305,305,309,1
302,305,307,312,1
304,305,308,314,1
304,305,308,314,1
303,304,307,311,1
300,302,306,308,1
298,302,305,304,1
298,302,305,303,1
298,304,305,304,1
299,306,305,306,1
299,308,305,309,1
299,309,305,311,1
299,309,305,312,1
300,308,305,312,1
301,308,306,311,1
303,309,305,310,1
303,310,305,310,1
303,311,307,311,1
303,312,309,312,1
304,313,310,313,1
305,312,310,314,1
305,311,310,314,1
305,310,309,313,1
306,308,308,312,1
306,307,306,311,1
307,306,305,310,1
307,305,304,308,1
307,305,302,307,1
306,305,301,307,1
306,305,300,306,1
306,305,302,306,1
307,305,304,306,1
307,305,308,305,1
307,306,309,305,1
308,306,310,305,1
309,307,309,307,1
309,307,307,309,1
309,306,306,311,1
309,304,305,312,1
309,303,303,313,1
310,302,303,312,1
310,301,303,310,1
310,300,304,307,1
309,301,306,305,1
309,302,307,304,1
307,303,307,303,1
306,304,307,303,1
304,305,306,303,1
303,306,304,302,1
302,307,303,301,1
301,308,301,300,1
301,309,300,300,1
300,309,298,301,1
299,308,298,302,1
299,306,299,304,1
299,304,300,305,1
299,302,301,305,1
299,301,303,305,1
299,301,304,305,1
300,302,304,305,1
300,303,304,306,1
302,305,304,307,1
305,307,305,308,1
308,310,307,311,1
311,313,309,313,1
312,314,311,314,1
311,313,312,315,1
309,312,312,315,1
308,312,312,315,1
309,312,311,314,1
310,313,311,311,1
309,313,310,309,1
308,313,309,306,1
307,313,309,306,1
306,314,309,307,1
306,315,311,309,1
307,316,311,311,1
307,315,312,312,1
307,314,312,313,1
309,314,312,314,1
310,314,312,314,1
309,313,311,313,1
309,312,310,311,1
308,310,308,309,1
309,309,308,308,1
310,309,308,307,1
311,308,309,305,1
309,308,308,304,1
307,307,307,302,1
304,306,307,299,1
302,305,305,296,1
301,304,304,294,1
301,305,304,293,1
302,306,305,294,1
304,309,305,295,1
305,312,305,297,1
305,313,304,300,1
306,314,304,303,1
307,314,304,306,1
307,313,303,307,1
306,311,301,308,1
305,309,300,307,1
305,307,299,306,1
305,306,300,305,1
305,305,302,304,1
305,305,304,303,1
306,305,307,303,1
305,305,309,304,1
305,305,310,304,1
305,306,312,304,1
305,307,312,303,1
305,308,311,302,1
305,308,311,301,1
304,308,310,300,1
304,308,309,300,1
305,309,310,300,1
307,310,311,302,1
309,311,312,304,1
309,312,312,305,1
309,312,312,306,1
310,312,312,307,1
311,311,312,308,1
310,309,309,308,1
308,307,305,306,1
306,306,303,305,1
305,306,301,304,1
305,305,301,303,1
305,305,302,304,1
304,306,303,305,1
304,307,305,306,1
304,307,306,305,1
304,308,308,304,1
306,308,307,302,1
307,307,307,301,1
309,307,306,300,1
311,307,306,301,1
311,307,305,300,1
309,305,303,298,1
307,304,301,295,1
305,303,299,293,1
304,303,299,292,1
303,303,300,294,1
302,305,303,299,1
301,307,306,303,1
300,307,308,306,1
299,307,309,307,1
300,306,311,308,1
301,305,312,308,1
304,304,312,306,1
306,304,312,304,1
308,305,310,301,1
309,305,309,297,1
310,305,308,294,1
309,306,307,292,1
309,306,307,290,1
307,306,306,289,1
305,305,305,288,1
304,305,305,289,1
304,305,307,294,1
305,307,309,300,1
307,309,310,306,1
309,311,312,310,1
311,311,313,312,1
312,312,312,311,1
312,312,312,310,1
311,312,311,308,1
311,312,309,306,1
309,311,307,305,1
307,311,305,303,1
304,310,303,303,1
303,310,302,303,1
302,310,302,306,1
302,310,303,308,1
300,308,304,309,1
300,307,306,311,1
301,307,308,311,1
302,307,309,311,1
303,308,309,309,1
304,307,309,307,1
305,305,308,304,1
305,304,307,302,1
305,302,306,299,1
304,300,304,297,1
304,299,303,296,1
304,298,303,295,1
303,298,303,294,1
303,300,303,293,1
304,301,303,293,1
305,304,304,292,1
305,305,305,292,1
305,307,305,293,1
305,307,305,294,1
304,307,304,296,1
304,306,302,296,1
304,304,301,296,1
304,302,301,296,1
305,298,300,296,1
305,295,299,295,1
307,295,301,295,1
309,297,303,296,1
312,301,305,299,1
313,305,307,302,1
313,307,308,303,1
311,307,307,302,1
307,305,304,301,1
304,303,304,299,1
301,302,304,298,1
302,301,305,298,1
303,301,306,298,1
305,303,308,300,1
307,306,309,303,1
308,309,309,304,1
308,309,308,303,1
307,309,306,302,1
306,309,304,300,1
306,309,302,298,1
306,310,300,296,1
305,310,299,293,1
304,309,296,291,1
303,309,295,289,1
303,308,294,289,1
304,307,295,290,1
305,306,297,292,1
307,306,298,295,1
308,306,300,298,1
309,306,301,301,1
310,307,303,304,1
310,308,304,305,1
311,309,305,305,1
311,309,306,305,1
312,309,307,306,1
311,309,308,307,1
310,308,309,308,1
309,308,309,307,1
308,309,309,306,1
307,308,309,305,1
307,307,310,304,1
306,305,311,303,1
306,306,311,303,1
305,307,312,303,1
305,308,313,305,1
307,309,312,307,1
308,309,312,309,1
310,307,311,309,1
310,306,310,310,1
311,305,309,310,1
312,303,308,309,1
312,302,307,307,1
312,301,307,304,1
311,300,306,300,1
309,300,304,296,1
308,301,302,293,1
307,302,301,289,1
306,303,300,285,1
305,303,299,284,1
305,304,299,285,1
304,305,299,287,1
303,306,299,292,1
304,307,301,298,1
304,309,303,305,1
305,311,305,311,1
307,312,306,315,1
308,313,307,317,1
308,314,307,318,1
307,313,306,318,1
306,312,305,317,1
305,309,304,315,1
304,307,303,314,1
303,305,303,312,1
303,304,303,312,1
303,303,303,312,1
303,303,302,313,1
302,303,301,313,1
302,303,301,313,1
303,304,303,313,1
304,306,307,313,1
306,308,310,311,1
306,307,311,308,1
306,306,311,304,1
305,303,310,300,1
303,302,308,299,1
303,302,307,302,1
303,304,307,306,1
304,305,307,310,1
304,307,306,311,1
303,307,305,311,1
303,308,304,310,1
304,310,304,310,1
304,312,305,310,1
305,312,306,308,1
304,313,306,306,1
303,312,306,304,1
302,312,305,303,1
301,311,306,302,1
300,310,306,302,1
300,309,307,303,1
301,309,308,304,1
301,307,308,305,1
302,306,308,306,1
303,305,308,307,1
304,305,309,309,1
305,305,309,311,1
305,305,310,312,1
305,305,310,311,1
304,303,310,310,1
303,302,309,307,1
301,300,306,305,1
300,299,305,303,1
300,300,305,302,1
300,301,306,303,1
302,303,308,304,1
304,305,311,306,1
305,306,312,307,1
305,306,312,308,1
304,306,311,306,1
303,305,309,305,1
302,304,307,303,1
302,303,305,303,1
302,302,306,303,1
302,302,306,304,1
301,302,306,304,1
301,302,306,305,1
301,303,307,306,1
302,305,308,307,1
302,307,309,307,1
302,308,309,306,1
301,306,309,305,1
300,305,308,303,1
301,304,308,303,1
302,303,307,304,1
303,302,306,305,1
304,302,306,305,1
306,302,306,305,1
308,304,305,305,1
310,306,305,306,1
311,308,305,306,1
312,310,305,307,1
312,311,305,307,1
312,312,305,308,1
309,311,305,309,1
306,310,305,310,1
304,309,305,311,1
302,307,305,312,1
303,305,305,311,1
303,305,306,311,1
303,305,306,310,1
304,306,306,310,1
304,306,305,310,1
304,305,304,309,1
304,304,304,308,1
304,304,303,308,1
304,304,303,306,1
303,304,302,304,1
302,304,302,301,1
300,304,301,298,1
300,303,301,296,1
300,303,302,295,1
300,303,302,296,1
301,304,303,299,1
303,305,303,303,1
304,307,303,307,1
305,308,303,309,1
305,309,303,309,1
305,309,303,309,1
306,310,304,308,1
307,311,305,309,1
306,311,307,309,1
304,311,307,310,1
302,309,307,310,1
299,307,306,309,1
296,304,304,307,1
293,300,302,305,1
292,298,301,303,1
293,298,300,303,1
297,299,301,304,1
302,300,302,305,1
305,301,304,305,1
306,301,304,306,1
307,302,304,308,1
307,303,305,311,1
306,304,306,313,1
305,304,306,313,1
303,304,305,312,1
302,304,304,311,1
301,303,302,309,1
300,303,301,308,1
299,305,302,307,1
300,307,303,308,1
300,311,305,309,1
302,314,307,310,1
304,317,310,311,1
307,319,312,312,1
309,320,314,312,1
311,319,315,312,1
312,317,316,312,1
311,314,315,311,1
310,311,314,311,1
309,309,314,311,1
308,308,314,312,1
308,308,313,312,1
309,309,313,312,1
309,309,313,312,1
309,309,312,312,1
309,308,311,312,1
308,307,310,312,1
308,305,310,311,1
306,304,309,312,1
305,304,309,312,1
304,303,310,313,1
303,302,310,312,1
303,302,311,311,1
303,303,311,310,1
305,304,311,309,1
307,305,310,307,1
309,306,309,306,1
311,307,308,307,1
312,309,307,310,1
313,310,308,313,1
312,310,308,315,1
310,310,308,317,1
310,310,308,318,1
310,309,309,318,1
311,309,309,316,1
311,308,309,314,1
311,307,308,310,1
309,306,306,305,1
308,305,305,302,1
307,304,303,298,1
307,303,303,295,1
307,303,302,293,1
307,302,302,291,1
307,302,301,291,1
307,303,302,293,1
307,304,303,296,1
307,304,304,299,1
306,303,305,301,1
306,302,305,303,1
306,303,306,305,1
306,304,306,307,1
307,306,306,310,1
309,308,307,312,1
310,309,307,314,1
311,310,308,315,1
311,310,308,317,1
309,310,308,318,1
307,309,308,319,1
306,309,307,319,1
306,309,307,318,1
307,308,307,316,1
308,307,306,313,1
309,307,306,311,1
310,307,306,309,1
311,308,307,308,1
312,308,308,309,1
312,310,309,309,1
312,311,309,309,1
311,311,309,308,1
309,312,308,306,1
306,312,306,304,1
305,312,305,302,1
304,311,303,300,1
304,310,302,298,1
304,309,303,299,1
305,308,304,300,1
305,308,305,303,1
306,308,307,306,1
306,308,307,308,1
307,308,306,309,1
307,307,304,308,1
306,306,301,305,1
305,305,299,303,1
304,304,297,301,1
303,303,295,301,1
302,304,295,302,1
301,304,296,303,1
300,303,298,304,1
299,302,300,305,1
299,301,303,306,1
300,301,305,307,1
301,302,307,307,1
301,302,307,309,1
301,302,306,309,1
302,302,305,310,1
302,301,304,312,1
303,302,305,312,1
304,302,305,313,1
306,302,308,312,1
306,303,309,311,1
307,302,310,309,1
307,302,310,307,1
307,301,309,306,1
307,300,307,306,1
307,299,306,308,1
307,300,307,311,1
307,302,308,313,1
307,303,308,314,1
307,304,309,313,1
307,305,309,311,1
306,306,309,309,1
306,307,309,307,1
306,308,308,306,1
306,307,307,305,1
305,305,306,303,1
304,304,304,303,1
304,304,304,304,1
305,305,303,305,1
305,306,301,306,1
305,305,299,304,1
305,305,298,302,1
304,305,298,300,1
304,305,299,299,1
305,305,299,298,1
304,305,300,298,1
304,305,302,298,1
303,305,304,299,1
304,307,306,302,1
305,308,307,305,1
307,308,306,306,1
307,306,305,306,1
307,304,305,307,1
306,303,305,307,1
306,302,305,307,1
305,301,305,306,1
304,301,305,304,1
302,301,306,303,1
302,302,307,303,1
301,303,307,304,1
303,305,308,306,1
305,307,307,308,1
306,308,306,309,1
305,309,304,310,1
305,310,303,310,1
304,311,303,308,1
304,311,303,305,1
304,312,303,302,1
304,311,304,302,1
304,312,306,303,1
306,313,308,306,1
306,315,310,310,1
307,316,311,313,1
306,316,312,315,1
306,316,312,316,1
306,315,313,316,1
307,314,313,314,1
307,313,313,311,1
306,312,312,307,1
306,310,310,303,1
306,309,308,301,1
306,308,306,300,1
306,309,305,301,1
307,310,305,302,1
307,311,304,304,1
307,311,303,304,1
306,310,301,305,1
303,309,299,305,1
301,307,298,304,1
299,305,298,303,1
299,304,298,302,1
300,304,300,301,1
302,303,301,301,1
303,303,302,301,1
305,303,302,302,1
306,303,303,303,1
305,302,303,304,1
303,302,303,304,1
301,301,303,304,1
301,301,304,303,1
302,301,304,301,1
302,302,305,301,1
302,304,306,302,1
303,306,306,304,1
303,308,306,306,1
303,308,306,307,1
303,309,305,306,1
302,309,305,304,1
301,310,305,303,1
301,309,306,300,1
303,309,306,298,1
305,308,307,297,1
307,309,308,298,1
309,310,310,299,1
309,311,310,301,1
310,311,309,302,1
310,309,308,303,1
310,309,306,304,1
310,308,305,306,1
310,308,304,307,1
309,307,304,308,1
309,306,304,308,1
309,308,305,309,1
309,310,306,309,1
310,311,306,309,1
310,311,306,308,1
309,309,305,306,1
308,308,305,305,1
309,305,304,303,1
308,303,304,301,1
307,300,302,297,1
305,297,300,292,1
304,296,298,289,1
304,297,297,288,1
305,301,297,289,1
307,305,299,292,1
310,309,301,297,1
312,312,303,303,1
314,314,304,308,1
316,315,306,313,1
315,314,307,316,1
313,313,309,317,1
311,313,310,318,1
309,313,310,317,1
309,312,310,316,1
307,310,309,314,1
306,310,308,313,1
306,310,308,313,1
307,310,308,312,1
309,311,308,312,1
309,312,308,311,1
309,312,308,309,1
307,310,306,306,1
304,309,303,304,1
302,307,302,302,1
301,307,301,302,1
302,307,300,305,1
303,308,298,306,1
305,308,298,306,1
309,307,298,306,1
311,308,300,305,1
313,308,301,305,1
315,308,303,305,1
316,308,304,305,1
316,307,305,304,1
316,307,304,304,1
315,308,304,304,1
315,310,304,306,1
315,312,305,309,1
314,315,306,313,1
311,315,306,317,1
308,314,305,319,1
305,312,304,319,1
305,311,303,319,1
307,309,303,318,1
308,308,304,316,1
308,306,303,313,1
307,305,303,309,1
305,304,303,306,1
304,302,303,304,1
302,301,303,303,1
300,300,303,302,1
299,301,302,302,1
299,301,301,302,1
300,302,301,302,1
301,304,301,302,1
302,305,301,302,1
301,305,301,303,1
300,306,301,304,1
299,307,302,305,1
299,308,303,307,1
300,311,305,308,1
301,313,308,310,1
302,314,310,311,1
302,315,311,312,1
303,315,311,314,1
304,315,312,315,1
305,314,312,315,1
306,312,311,314,1
306,310,309,313,1
306,308,307,312,1
306,307,305,312,1
305,306,304,311,1
304,305,303,310,1
304,304,302,308,1
304,303,302,306,1
304,302,302,303,1
304,302,302,301,1
304,301,303,301,1
305,303,304,304,1
307,305,306,308,1
307,308,308,313,1
308,310,309,316,1
308,311,309,317,1
307,312,308,317,1
307,312,307,317,1
307,311,306,317,1
308,310,307,317,1
309,309,308,318,1
309,307,308,317,1
308,306,308,316,1
306,306,308,315,1
305,306,306,314,1
303,306,306,314,1
302,306,306,313,1
302,307,307,312,1
303,308,309,310,1
304,309,310,308,1
305,311,310,306,1
305,311,309,303,1
306,312,308,300,1
305,312,307,299,1
306,312,305,300,1
306,311,304,301,1
306,310,303,302,1
305,308,302,302,1
305,306,302,302,1
305,306,301,302,1
307,306,301,302,1
308,306,302,302,1
309,308,302,301,1
310,308,303,301,1
310,309,305,303,1
311,310,308,306,1
310,310,309,309,1
309,311,310,313,1
308,312,310,315,1
307,314,311,316,1
307,315,310,316,1
306,315,309,314,1
306,315,307,311,1
306,314,306,309,1
306,315,305,308,1
306,315,304,308,1
306,314,304,307,1
306,313,303,307,1
306,312,303,306,1
306,311,301,306,1
305,310,300,305,1
305,309,298,306,1
304,309,298,308,1
302,310,297,310,1
300,311,297,312,1
299,311,296,311,1
297,310,295,310,1
297,310,296,309,1
298,310,298,309,1
300,309,300,308,1
302,308,301,308,1
302,306,301,307,1
301,305,300,307,1
300,304,298,308,1
300,303,297,309,1
300,302,297,311,1
299,303,298,313,1
300,304,299,316,1
301,306,300,316,1
303,308,301,314,1
305,309,302,312,1
308,311,301,311,1
310,311,302,310,1
311,312,302,310,1
312,314,303,312,1
313,316,305,314,1
312,316,306,315,1
309,315,306,316,1
304,313,306,317,1
300,312,306,318,1
298,311,306,318,1
297,310,306,317,1
299,308,307,316,1
300,307,307,314,1
300,306,308,313,1
300,305,308,311,1
299,306,309,310,1
297,306,309,310,1
297,307,309,309,1
297,308,308,310,1
298,310,308,310,1
300,311,308,310,1
300,311,307,310,1
300,310,306,308,1
300,307,304,307,1
299,303,302,305,1
298,300,300,302,1
296,297,299,299,1
296,295,298,297,1
297,295,298,298,1
299,296,300,299,1
300,296,301,301,1
302,295,301,301,1
302,294,300,302,1
303,294,299,304,1
303,294,298,305,1
303,296,299,306,1
303,298,300,310,1
304,301,304,313,1
306,303,308,316,1
308,305,312,319,1
310,307,315,319,1
311,307,316,317,1
310,306,315,312,1
308,305,314,306,1
307,304,313,301,1
305,303,311,298,1
304,302,309,296,1
304,302,307,297,1
303,301,305,299,1
303,302,305,303,1
304,302,305,305,1
306,303,305,307,1
308,303,307,308,1
309,303,308,310,1
309,303,308,310,1
309,304,308,310,1
308,303,307,311,1
307,303,308,311,1
306,303,308,312,1
306,304,307,312,1
307,306,307,312,1
307,306,306,312,1
307,305,305,311,1
307,304,306,310,1
307,303,307,309,1
307,302,307,308,1
307,301,307,305,1
308,301,306,303,1
308,300,306,302,1
309,301,305,302,1
309,302,305,302,1
309,303,304,302,1
307,304,304,303,1
305,304,304,304,1
304,303,304,306,1
302,304,305,308,1
301,305,305,310,1
302,305,305,312,1
303,305,305,313,1
306,306,307,314,1
308,307,310,314,1
310,307,311,313,1
309,306,312,313,1
308,306,312,311,1
306,306,312,310,1
305,307,312,307,1
304,308,312,305,1
304,308,310,301,1
304,309,309,299,1
304,310,308,298,1
305,311,308,298,1
306,311,308,300,1
305,309,308,301,1
304,307,308,301,1
303,305,307,301,1
302,304,307,302,1
303,305,307,303,1
304,305,308,304,1
305,306,309,305,1
306,304,309,305,1
306,301,308,305,1
305,299,306,304,1
305,299,305,302,1
305,300,305,301,1
306,300,305,300,1
305,301,304,299,1
303,300,303,299,1
301,298,302,298,1
299,297,301,297,1
299,296,301,298,1
300,297,301,300,1
302,299,303,302,1
304,301,304,304,1
304,302,303,305,1
304,302,302,307,1
304,303,302,309,1
304,303,302,310,1
303,303,302,310,1
303,303,303,310,1
303,303,305,308,1
303,303,307,307,1
303,304,309,307,1
303,305,309,308,1
304,306,309,309,1
305,305,308,311,1
306,304,309,314,1
307,305,310,318,1
308,308,311,321,1
308,311,311,324,1
307,312,311,325,1
306,313,310,324,1
304,313,309,322,1
304,313,309,321,1
304,312,309,319,1
304,311,309,318,1
304,310,308,317,1
304,309,307,317,1
304,308,307,317,1
304,307,307,317,1
305,306,307,316,1
305,305,307,314,1
306,305,307,312,1
307,306,308,310,1
307,306,309,309,1
307,307,308,308,1
306,308,308,309,1
306,309,308,310,1
306,309,307,311,1
304,307,305,310,1
303,305,303,308,1
302,303,302,306,1
301,302,301,305,1
300,300,300,302,1
300,299,300,300,1
299,298,300,298,1
299,298,300,298,1
301,300,302,301,1
303,303,303,303,1
304,306,305,305,1
305,308,307,306,1
306,310,307,307,1
306,312,307,308,1
306,312,306,308,1
305,310,304,307,1
304,308,303,305,1
303,305,301,303,1
301,303,300,302,1
300,302,301,303,1
301,302,303,305,1
303,304,306,311,1
305,308,309,317,1
306,310,311,322,1
307,312,312,325,1
307,312,313,326,1
308,312,313,326,1
308,313,313,325,1
308,312,312,323,1
309,310,311,320,1
310,308,309,315,1
311,305,308,309,1
310,303,308,304,1
310,301,307,299,1
311,299,307,295,1
311,298,307,292,1
310,299,307,294,1
310,301,308,299,1
309,304,310,304,1
309,307,312,306,1
309,309,311,307,1
308,311,311,307,1
308,313,309,307,1
307,315,308,307,1
307,317,307,307,1
307,318,307,310,1
306,318,308,312,1
306,317,307,313,1
305,314,308,311,1
305,311,308,308,1
305,308,309,305,1
307,307,309,304,1
310,307,310,304,1
311,308,310,305,1
312,309,311,306,1
312,311,312,309,1
313,314,312,312,1
313,315,312,315,1
312,315,311,317,1
310,313,309,318,1
309,312,307,317,1
308,312,307,317,1
308,311,307,317,1
307,311,307,317,1
307,311,309,316,1
307,310,309,316,1
307,309,310,314,1
307,307,309,313,1
306,305,309,312,1
305,304,308,311,1
303,303,307,310,1
302,303,307,309,1
303,304,307,308,1
302,304,307,307,1
302,304,306,306,1
302,304,305,306,1
303,304,305,307,1
304,305,305,306,1
304,306,304,306,1
304,307,303,307,1
305,308,304,308,1
306,308,305,310,1
307,307,307,311,1
307,305,309,312,1
307,304,309,313,1
308,303,309,313,1
308,303,309,313,1
310,303,310,314,1
312,304,311,316,1
314,305,312,317,1
314,306,312,318,1
313,306,311,318,1
311,305,310,317,1
309,305,310,316,1
307,304,309,315,1
305,304,308,313,1
304,303,307,311,1
303,302,306,310,1
302,302,305,309,1
302,302,304,307,1
300,303,303,305,1
298,303,303,302,1
298,304,303,300,1
299,305,305,299,1
300,306,306,299,1
302,306,307,301,1
304,307,307,304,1
306,306,305,306,1
308,304,305,309,1
310,303,304,310,1
311,302,303,311,1
311,301,301,310,1
309,299,300,309,1
308,298,298,308,1
308,297,298,308,1
308,298,300,310,1
308,300,302,313,1
308,303,305,314,1
308,304,307,313,1
309,306,308,310,1
309,307,309,307,1
309,308,309,306,1
309,310,309,305,1
310,313,310,304,1
310,315,310,303,1
310,315,309,302,1
310,314,309,303,1
309,315,309,305,1
310,317,310,307,1
311,319,311,309,1
312,318,310,309,1
311,316,310,308,1
309,314,309,308,1
307,311,309,308,1
306,309,310,309,1
305,308,310,309,1
304,306,311,309,1
303,304,312,307,1
302,304,312,305,1
302,303,312,303,1
301,302,310,301,1
302,301,307,301,1
302,300,305,303,1
304,301,305,308,1
307,304,308,313,1
310,306,310,318,1
313,307,311,320,1
313,308,312,320,1
312,308,312,320,1
310,307,312,319,1
308,306,311,318,1
306,305,311,316,1
306,304,310,315,1
305,303,310,313,1
305,303,309,311,1
306,303,308,310,1
306,304,306,309,1
306,305,305,308,1
305,305,303,306,1
305,305,302,304,1
304,305,300,302,1
304,306,299,301,1
303,305,298,300,1
303,303,298,298,1
303,301,298,297,1
305,301,299,298,1
306,303,300,302,1
307,305,301,306,1
307,307,301,310,1
308,308,302,313,1
307,308,302,315,1
306,308,302,315,1
306,306,303,315,1
304,305,305,314,1
303,305,306,313,1
303,305,307,310,1
302,304,307,307,1
300,305,306,304,1
300,306,306,302,1
301,307,306,302,1
303,309,307,302,1
304,310,307,303,1
303,310,306,304,1
303,309,305,304,1
302,307,304,304,1
301,305,304,304,1
300,304,305,304,1
299,303,305,303,1
300,302,305,302,1
300,301,305,300,1
301,299,305,298,1
301,298,304,296,1
300,297,302,295,1
300,297,301,294,1
300,299,300,297,1
301,302,300,301,1
302,304,299,305,1
304,305,298,308,1
306,305,297,310,1
308,304,297,312,1
311,304,298,313,1
311,304,300,313,1
310,304,301,311,1
308,303,301,306,1
304,301,302,299,1
300,301,302,294,1
298,302,303,293,1
298,304,305,293,1
299,306,306,295,1
300,308,307,297,1
302,312,307,301,1
305,316,308,305,1
307,318,307,309,1
307,317,307,310,1
307,316,306,311,1
307,314,306,311,1
307,313,305,309,1
308,311,304,307,1
308,310,304,305,1
309,309,304,306,1
309,309,304,306,1
309,308,304,307,1
308,308,304,307,1
307,307,304,307,1
304,305,303,307,1
302,305,303,305,1
301,305,303,302,1
301,305,303,298,1
301,304,303,295,1
301,303,302,293,1
301,303,300,294,1
301,303,300,297,1
302,304,300,301,1
303,305,301,306,1
305,306,303,309,1
307,306,305,312,1
308,306,306,313,1
308,305,307,313,1
307,304,305,313,1
306,304,302,314,1
304,303,299,314,1
303,303,299,315,1
305,304,300,316,1
307,304,303,317,1
309,305,306,317,1
310,305,309,316,1
309,305,310,315,1
307,305,311,313,1
305,305,311,312,1
304,305,310,310,1
303,304,308,307,1
302,303,306,303,1
302,302,305,299,1
303,302,305,297,1
304,302,305,296,1
305,303,305,298,1
306,302,305,300,1
307,302,306,302,1
309,302,306,304,1
310,302,307,306,1
310,302,308,307,1
311,301,308,307,1
312,301,309,307,1
312,302,310,308,1
312,302,309,310,1
311,302,310,311,1
310,302,310,313,1
307,302,309,314,1
306,302,308,314,1
304,301,307,313,1
303,300,305,310,1
302,300,304,306,1
302,302,303,303,1
302,303,303,299,1
302,304,303,296,1
302,306,303,295,1
303,309,304,298,1
304,312,304,302,1
306,315,305,307,1
307,316,306,311,1
308,317,305,312,1
309,316,304,311,1
310,316,303,308,1
311,316,302,304,1
311,315,302,301,1
311,314,303,300,1
310,313,304,302,1
309,311,305,307,1
309,309,306,313,1
308,308,307,319,1
308,307,308,323,1
308,307,309,324,1
309,307,310,323,1
310,308,310,321,1
310,309,310,319,1
310,309,309,317,1
309,309,308,314,1
307,309,306,312,1
305,308,305,311,1
304,309,305,311,1
304,310,306,312,1
304,310,307,313,1
304,311,308,314,1
306,311,309,313,1
309,310,310,313,1
311,309,309,311,1
312,308,308,308,1
312,307,306,306,1
312,305,305,303,1
310,303,304,300,1
308,303,303,300,1
306,302,303,300,1
305,302,302,301,1
305,304,302,303,1
306,305,301,304,1
306,307,300,305,1
306,308,299,304,1
306,308,299,304,1
306,308,299,305,1
306,310,299,306,1
306,311,299,306,1
307,312,299,307,1
308,312,300,309,1
309,314,301,311,1
309,314,302,312,1
309,314,303,313,1
309,314,306,314,1
308,312,307,315,1
307,310,308,315,1
306,308,308,314,1
304,306,306,311,1
303,304,303,309,1
303,303,302,307,1
303,303,301,307,1
304,304,302,308,1
306,304,303,308,1
307,304,303,308,1
307,304,304,306,1
305,303,303,304,1
305,302,303,303,1
305,303,304,303,1
306,304,305,303,1
308,305,305,303,1
308,305,305,302,1
308,306,304,301,1
306,307,303,301,1
306,308,303,301,1
306,310,303,302,1
307,312,304,303,1
309,312,304,304,1
310,310,304,304,1
310,308,304,304,1
309,305,303,303,1
308,303,303,302,1
306,304,303,302,1
305,306,302,303,1
304,308,303,303,1
306,311,304,304,1
307,313,307,304,1
308,315,308,304,1
309,316,309,304,1
309,316,308,305,1
309,315,308,306,1
308,314,308,307,1
308,313,308,310,1
307,312,308,312,1
306,311,308,315,1
305,310,308,316,1
305,308,308,317,1
305,306,307,317,1
306,305,307,317,1
308,305,306,316,1
310,305,306,315,1
312,305,307,315,1
314,306,307,315,1
314,306,307,315,1
313,306,307,315,1
312,305,307,315,1
311,305,307,315,1
310,306,307,316,1
310,308,307,315,1
311,309,307,313,1
311,311,306,311,1
311,311,304,307,1
311,310,303,303,1
310,310,301,300,1
309,309,300,299,1
308,308,299,299,1
309,308,299,300,1
309,309,301,302,1
310,310,303,305,1
311,310,304,307,1
311,309,304,307,1
309,308,302,307,1
306,307,301,306,1
305,306,299,304,1
306,306,299,303,1
308,306,299,302,1
310,306,299,302,1
313,307,300,302,1
315,307,301,303,1
317,307,302,304,1
317,309,304,308,1
315,311,305,311,1
312,312,306,314,1
309,313,306,317,1
307,314,307,319,1
306,314,307,319,1
305,314,308,319,1
305,312,308,317,1
305,310,308,315,1
305,308,308,313,1
305,306,308,309,1
305,304,308,307,1
305,303,308,304,1
306,303,309,303,1
307,304,310,304,1
309,305,310,304,1
309,305,309,304,1
309,306,308,304,1
309,306,307,303,1
309,306,308,303,1
311,307,310,305,1
313,309,311,307,1
315,310,313,309,1
315,310,313,309,1
315,309,312,309,1
314,308,310,308,1
312,307,308,306,1
311,307,307,304,1
310,308,305,303,1
308,309,304,304,1
308,309,303,306,1
308,309,303,307,1
309,309,304,308,1
309,310,304,309,1
308,311,305,308,1
307,310,305,307,1
307,309,305,305,1
306,308,305,304,1
306,307,305,302,1
306,306,306,302,1
308,306,307,304,1
309,307,308,307,1
310,309,309,310,1
312,311,311,313,1
313,314,313,315,1
314,316,315,318,1
316,317,316,321,1
317,318,318,323,1
317,317,317,323,1
316,315,316,322,1
314,311,313,319,1
311,308,311,315,1
308,306,309,311,1
305,305,307,306,1
303,304,306,302,1
302,303,306,301,1
303,305,305,302,1
303,306,306,305,1
304,308,307,308,1
305,310,308,310,1
306,311,309,312,1
309,312,310,312,1
311,312,311,313,1
314,312,312,313,1
315,312,313,313,1
315,311,314,315,1
315,310,315,316,1
313,310,315,318,1
312,308,315,318,1
310,307,314,317,1
308,306,313,314,1
306,304,312,312,1
304,302,311,310,1
303,300,310,309,1
302,298,308,309,1
304,298,308,311,1
305,298,307,311,1
307,299,306,311,1
308,300,305,310,1
307,301,304,308,1
305,302,304,305,1
304,304,304,302,1
304,306,304,303,1
304,308,304,305,1
304,308,304,307,1
304,307,304,308,1
303,305,305,307,1
302,302,306,306,1
301,300,308,305,1
300,300,309,304,1
300,300,310,305,1
301,301,309,306,1
302,304,309,309,1
303,307,308,311,1
305,310,308,313,1
306,311,308,314,1
307,312,309,313,1
307,310,309,311,1
307,309,308,309,1
306,308,308,307,1
306,307,308,306,1
305,306,308,305,1
304,305,307,304,1
304,303,306,304,1
303,304,306,307,1
302,305,304,310,1
301,306,303,313,1
301,306,303,315,1
302,307,303,317,1
302,307,304,316,1
302,307,304,314,1
301,307,303,311,1
300,307,303,307,1
300,307,303,306,1
300,308,303,305,1
301,308,303,305,1
302,309,302,305,1
304,309,301,304,1
305,308,300,303,1
307,308,299,302,1
309,309,300,302,1
311,311,301,303,1
312,312,302,306,1
311,311,303,310,1
310,310,303,313,1
308,308,302,315,1
306,307,302,317,1
306,307,302,319,1
306,308,302,320,1
306,309,302,319,1
306,309,302,318,1
306,308,302,315,1
307,308,303,313,1
308,309,304,311,1
310,310,306,308,1
310,309,307,306,1
309,309,308,305,1
307,308,308,305,1
305,308,308,305,1
305,307,308,305,1
305,307,309,307,1
308,306,309,308,1
311,305,310,308,1
313,303,309,307,1
314,301,308,306,1
313,299,307,304,1
311,296,306,303,1
309,293,304,302,1
306,292,304,304,1
305,294,304,308,1
305,296,305,311,1
305,297,305,313,1
305,298,305,315,1
304,300,305,316,1
303,301,304,316,1
302,302,303,315,1
301,304,302,313,1
301,304,301,311,1
302,305,301,310,1
303,305,302,310,1
304,307,303,310,1
305,307,303,311,1
305,306,303,310,1
305,304,303,310,1
305,302,304,309,1
305,300,305,309,1
305,299,305,307,1
304,298,304,306,1
304,298,303,306,1
304,298,304,305,1
304,299,304,306,1
305,302,305,307,1
306,304,306,308,1
307,306,307,307,1
309,308,307,306,1
310,309,307,305,1
312,310,306,304,1
314,310,305,304,1
314,309,304,304,1
313,307,304,305,1
311,305,304,306,1
309,304,303,307,1
307,303,304,309,1
306,303,304,311,1
305,303,304,313,1
305,303,304,313,1
306,303,304,314,1
307,304,305,314,1
309,305,306,314,1
311,306,306,313,1
312,306,306,311,1
312,306,306,310,1
312,305,305,310,1
310,305,305,310,1
310,305,306,309,1
310,306,307,309,1
310,305,307,307,1
310,305,307,306,1
309,304,307,305,1
308,304,307,303,1
307,304,306,302,1
306,304,305,302,1
305,305,303,300,1
304,305,301,298,1
304,305,299,297,1
303,306,297,297,1
302,306,297,298,1
300,305,296,299,1
300,304,297,301,1
301,304,300,303,1
303,305,302,306,1
305,305,304,308,1
307,306,305,308,1
308,308,305,310,1
308,309,304,312,1
309,310,304,313,1
309,311,305,312,1
309,311,306,311,1
309,311,307,310,1
308,310,308,309,1
307,310,309,308,1
306,309,309,307,1
306,309,310,305,1
305,309,310,305,1
304,309,309,306,1
303,310,309,308,1
303,310,308,309,1
303,310,306,310,1
303,309,304,310,1
303,307,303,308,1
303,305,303,307,1
305,304,302,305,1
305,304,300,303,1
305,304,298,302,1
305,305,296,301,1
304,308,295,301,1
303,309,295,302,1
303,310,294,302,1
303,312,296,304,1
304,313,298,304,1
306,314,300,304,1
306,315,302,304,1
307,314,304,303,1
308,313,305,304,1
308,313,306,305,1
308,311,307,305,1
307,310,307,306,1
306,309,306,308,1
305,308,305,310,1
306,308,304,312,1
305,309,304,312,1
304,309,302,312,1
302,310,301,311,1
301,309,299,310,1
300,309,298,308,1
300,308,298,308,1
301,307,299,308,1
302,307,300,309,1
302,307,300,310,1
303,306,300,310,1
304,306,300,310,1
305,306,300,309,1
305,306,300,308,1
305,306,301,307,1
307,307,302,306,1
309,308,304,306,1
310,310,306,305,1
311,311,306,305,1
311,312,307,305,1
312,313,308,307,1
312,314,308,308,1
310,313,308,308,1
309,310,306,308,1
308,306,304,307,1
307,303,302,307,1
308,301,302,308,1
309,301,303,309,1
310,302,303,311,1
310,304,302,314,1
308,306,303,316,1
306,308,303,316,1
303,307,303,315,1
300,307,303,314,1
299,306,304,312,1
298,306,306,311,1
299,306,307,309,1
299,306,308,306,1
300,304,308,302,1
301,303,310,300,1
302,301,311,298,1
302,300,311,296,1
303,300,311,295,1
304,300,311,296,1
306,302,312,297,1
307,304,312,299,1
306,306,312,301,1
305,308,311,303,1
303,309,310,304,1
302,309,309,304,1
301,308,307,302,1
302,307,306,300,1
301,305,305,297,1
301,305,306,296,1
301,305,307,296,1
301,306,310,299,1
302,307,312,303,1
303,308,314,306,1
304,309,315,308,1
304,309,314,310,1
304,308,313,311,1
304,307,311,310,1
303,305,309,308,1
303,304,308,305,1
302,302,306,302,1
300,301,305,299,1
299,301,304,297,1
300,301,305,297,1
302,304,306,299,1
304,306,309,301,1
305,308,311,303,1
305,308,314,304,1
305,308,315,305,1
305,307,316,306,1
304,307,315,305,1
304,306,314,305,1
303,305,312,305,1
303,305,311,305,1
301,306,309,305,1
300,306,306,304,1
299,307,303,304,1
299,307,302,304,1
299,307,304,305,1
301,307,306,306,1
304,307,307,308,1
306,307,308,310,1
307,307,309,311,1
307,308,310,312,1
308,309,311,312,1
309,310,313,312,1
309,311,314,312,1
309,310,314,312,1
308,309,314,312,1
307,308,313,311,1
306,307,311,310,1
305,306,310,309,1
305,305,309,309,1
306,304,308,309,1
307,304,309,308,1
308,304,310,307,1
308,304,310,306,1
309,305,311,305,1
310,305,311,305,1
311,306,310,305,1
313,307,310,305,1
313,308,310,305,1
313,309,309,306,1
312,310,308,306,1
310,310,307,306,1
306,308,306,307,1
303,306,305,306,1
302,304,305,306,1
302,303,306,306,1
304,302,308,306,1
306,302,308,306,1
308,302,307,305,1
310,301,307,303,1
310,300,305,302,1
311,302,305,303,1
311,305,305,305,1
311,307,307,307,1
309,310,307,309,1
308,311,307,310,1
306,313,306,310,1
305,313,305,310,1
304,311,304,309,1
303,310,304,307,1
303,307,303,305,1
304,306,303,303,1
304,304,302,300,1
304,302,301,300,1
304,302,302,301,1
304,301,303,303,1
304,301,303,304,1
303,300,304,305,1
302,300,304,307,1
303,301,305,309,1
303,302,306,309,1
305,303,307,308,1
306,303,307,306,1
307,303,307,304,1
308,302,306,302,1
308,301,306,300,1
308,301,305,299,1
308,301,305,298,1
307,302,305,297,1
305,303,305,296,1
303,303,305,297,1
302,304,305,297,1
301,305,305,299,1
302,308,305,300,1
303,310,304,303,1
302,310,304,305,1
301,309,304,308,1
301,308,304,311,1
302,308,305,314,1
304,310,306,316,1
306,312,308,319,1
309,314,309,321,1
310,316,309,321,1
310,315,307,320,1
310,313,306,317,1
307,311,303,313,1
303,308,301,309,1
301,305,300,305,1
299,304,300,302,1
299,303,301,300,1
299,304,303,301,1
300,307,305,302,1
302,309,306,305,1
304,311,307,307,1
306,311,306,308,1
306,312,305,308,1
307,311,304,308,1
307,311,305,308,1
306,312,307,309,1
305,312,308,311,1
305,312,309,312,1
304,313,310,312,1
305,313,309,311,1
306,313,308,310,1
307,313,307,308,1
307,313,306,307,1
308,312,305,306,1
308,312,305,306,1
307,312,305,306,1
306,312,305,305,1
305,311,305,304,1
304,311,305,302,1
304,310,304,299,1
304,310,303,298,1
304,310,302,298,1
304,310,301,298,1
303,309,300,299,1
302,308,299,301,1
303,308,299,303,1
304,309,300,307,1
305,310,302,310,1
307,311,304,314,1
308,313,306,317,1
310,314,308,318,1
310,315,309,318,1
309,314,309,316,1
307,313,308,315,1
306,313,308,313,1
304,311,307,312,1
304,309,306,312,1
304,306,304,311,1
304,303,303,310,1
304,301,302,309,1
303,300,301,311,1
303,301,302,313,1
305,304,303,314,1
305,306,303,313,1
306,307,303,310,1
306,306,302,307,1
306,304,302,304,1
306,303,301,302,1
305,304,300,303,1
304,305,300,307,1
304,306,301,312,1
304,306,301,317,1
304,307,302,320,1
304,307,302,321,1
304,307,302,319,1
303,306,302,316,1
302,304,302,313,1
301,303,303,309,1
299,302,303,306,1
298,301,303,303,1
296,300,302,300,1
296,299,302,298,1
297,299,301,299,1
299,300,302,301,1
303,301,304,304,1
305,302,305,305,1
306,303,306,307,1
307,303,307,309,1
309,304,308,313,1
310,305,309,317,1
311,307,308,319,1
311,308,307,319,1
311,308,306,316,1
310,308,307,312,1
309,309,308,309,1
309,308,310,306,1
308,308,313,305,1
307,308,314,306,1
305,307,315,308,1
304,305,315,310,1
302,304,314,311,1
301,303,313,312,1
301,301,312,311,1
302,300,312,310,1
302,299,312,309,1
303,299,312,309,1
305,299,312,310,1
307,301,312,312,1
308,303,311,312,1
307,304,310,311,1
307,305,309,310,1
306,305,308,308,1
305,304,307,305,1
305,302,306,301,1
305,301,305,297,1
305,299,303,293,1
304,298,304,293,1
304,299,305,295,1
304,302,307,299,1
305,305,309,306,1
305,309,311,313,1
306,311,312,318,1
306,313,313,322,1
307,314,314,325,1
310,316,315,328,1
312,318,315,329,1
314,318,314,329,1
314,315,313,327,1
314,313,311,325,1
314,311,309,322,1
314,309,307,320,1
313,305,304,316,1
310,303,302,313,1
307,301,300,311,1
305,299,300,309,1
303,298,300,306,1
301,297,301,303,1
300,299,302,302,1
301,301,304,302,1
302,303,306,303,1
303,304,307,306,1
304,306,308,309,1
304,307,308,313,1
304,307,309,315,1
305,308,309,317,1
306,308,310,319,1
308,309,310,320,1
310,309,309,319,1
311,309,309,317,1
312,308,308,314,1
313,306,306,311,1
312,305,303,308,1
311,303,301,306,1
309,303,299,305,1
308,303,299,303,1
305,302,300,302,1
302,303,301,300,1
300,302,301,299,1
298,302,300,299,1
297,302,301,300,1
297,301,302,302,1
298,301,303,306,1
300,302,304,312,1
303,304,304,316,1
305,306,305,319,1
307,308,304,320,1
308,309,304,319,1
309,309,303,319,1
310,309,303,319,1
312,310,303,319,1
314,309,304,317,1
315,307,304,314,1
313,305,304,311,1
310,303,304,308,1
308,303,304,306,1
308,303,304,304,1
306,304,304,304,1
305,305,303,305,1
304,306,304,308,1
304,306,305,311,1
306,306,306,313,1
307,305,307,314,1
307,305,308,315,1
306,304,308,314,1
305,303,308,313,1
303,302,308,312,1
301,302,308,313,1
300,302,309,314,1
301,302,310,316,1
303,304,311,318,1
305,305,312,319,1
308,306,313,320,1
309,308,314,320,1
310,310,314,320,1
309,311,313,320,1
309,312,312,319,1
308,311,311,318,1
306,311,310,314,1
304,310,309,310,1
303,311,308,308,1
303,311,307,306,1
302,311,307,305,1
302,310,305,303,1
302,309,304,301,1
303,307,303,300,1
303,305,303,300,1
304,304,305,301,1
305,304,307,303,1
306,304,309,306,1
308,304,310,308,1
308,304,310,310,1
309,304,310,312,1
308,305,311,313,1
308,306,310,313,1
308,307,309,314,1
308,309,308,315,1
309,311,307,316,1
308,313,306,318,1
308,314,305,318,1
