311,306,309,314,2
312,313,308,313,2
312,319,307,311,2
311,321,306,309,2
310,321,307,307,2
309,319,308,306,2
310,315,308,305,2
310,307,308,304,2
311,300,308,303,2
311,296,308,303,2
311,295,307,304,2
311,297,307,305,2
312,302,307,307,2
312,310,307,308,2
312,317,307,309,2
311,320,306,310,2
311,319,305,309,2
310,315,304,307,2
309,310,304,306,2
309,306,304,304,2
309,304,304,304,2
308,303,305,303,2
307,302,306,303,2
306,301,307,302,2
305,301,308,301,2
304,304,308,299,2
304,307,308,299,2
305,307,308,299,2
306,301,309,299,2
307,295,310,299,2
307,292,311,299,2
308,292,312,300,2
308,295,313,302,2
308,298,314,304,2
308,301,314,307,2
307,304,312,310,2
307,305,310,311,2
307,304,307,312,2
307,301,305,312,2
307,298,303,310,2
308,295,302,309,2
308,292,301,308,2
308,290,302,306,2
309,288,303,306,2
309,287,305,305,2
308,288,307,305,2
307,288,308,304,2
307,291,309,303,2
307,296,310,303,2
308,304,310,305,2
308,310,310,307,2
309,314,310,309,2
309,315,310,310,2
309,314,310,311,2
309,312,309,310,2
310,312,309,309,2
310,312,308,307,2
309,312,308,305,2
308,312,308,303,2
308,313,307,301,2
307,313,307,299,2
307,311,306,298,2
307,309,306,298,2
307,306,306,298,2
307,305,305,299,2
307,305,305,300,2
307,307,305,301,2
307,309,305,302,2
308,311,305,305,2
308,313,305,307,2
308,313,305,309,2
308,311,306,310,2
308,309,308,310,2
308,307,311,310,2
310,304,313,311,2
309,301,314,310,2
309,298,312,310,2
309,297,310,309,2
308,298,308,307,2
308,300,307,306,2
308,302,306,306,2
309,303,306,305,2
309,304,306,305,2
309,304,306,304,2
308,304,306,303,2
307,303,306,301,2
307,302,307,301,2
307,300,308,301,2
308,300,308,302,2
309,300,307,303,2
310,300,306,304,2
310,297,306,305,2
311,292,306,306,2
311,285,307,306,2
311,276,308,305,2
311,269,308,306,2
311,266,308,306,2
311,266,308,306,2
311,272,308,306,2
311,283,307,306,2
311,296,306,306,2
310,308,305,305,2
308,317,304,305,2
307,322,303,305,2
306,325,303,306,2
306,326,302,307,2
305,325,302,308,2
306,320,301,308,2
306,312,300,307,2
306,300,299,307,2
306,286,299,306,2
307,272,299,306,2
309,260,300,306,2
310,251,301,306,2
311,250,303,306,2
311,257,306,307,2
311,269,308,307,2
311,282,310,308,2
310,292,311,308,2
308,298,312,308,2
308,300,312,308,2
307,300,312,307,2
307,298,313,306,2
307,299,313,306,2
308,305,312,307,2
309,314,310,309,2
309,323,309,310,2
310,330,308,311,2
310,336,308,312,2
311,340,309,312,2
312,342,311,313,2
313,341,312,313,2
313,337,312,311,2
312,330,311,308,2
312,324,309,307,2
311,321,309,305,2
310,319,309,305,2
309,319,308,304,2
308,319,308,304,2
307,319,307,304,2
306,318,307,303,2
305,318,307,302,2
305,317,307,302,2
305,314,308,303,2
305,310,309,303,2
306,305,310,304,2
306,302,310,302,2
306,299,309,300,2
306,298,309,299,2
306,297,311,298,2
306,296,313,298,2
308,293,317,300,2
309,289,320,301,2
310,285,322,302,2
310,280,320,303,2
309,278,316,305,2
308,279,312,307,2
308,282,308,308,2
308,285,306,309,2
308,287,305,309,2
308,289,305,308,2
308,289,304,307,2
309,290,305,306,2
310,294,306,305,2
310,299,306,305,2
310,304,306,307,2
310,309,305,307,2
309,313,303,306,2
307,316,300,305,2
306,318,298,304,2
306,317,298,303,2
306,312,299,303,2
307,305,302,302,2
308,297,304,300,2
309,289,305,299,2
309,285,306,299,2
309,282,307,299,2
309,280,307,300,2
308,281,308,300,2
307,285,308,301,2
305,293,308,301,2
305,301,307,302,2
304,307,306,302,2
303,311,306,302,2
303,314,306,301,2
303,316,306,300,2
303,318,306,299,2
303,317,307,299,2
304,315,307,298,2
304,313,307,298,2
306,311,308,300,2
306,311,308,301,2
306,312,307,301,2
305,312,306,302,2
304,313,305,301,2
304,311,304,301,2
304,308,303,299,2
305,303,302,298,2
305,296,301,297,2
306,288,300,298,2
306,282,299,298,2
307,279,299,299,2
307,280,299,300,2
306,284,301,301,2
304,290,303,301,2
303,297,306,301,2
302,304,307,301,2
302,308,308,302,2
302,309,308,301,2
303,307,307,301,2
303,304,307,299,2
303,301,306,296,2
303,300,306,294,2
303,300,306,293,2
303,301,307,292,2
302,304,307,292,2
301,307,306,292,2
301,309,306,292,2
301,309,306,293,2
301,309,307,294,2
302,311,308,295,2
303,314,308,297,2
303,317,308,299,2
304,318,308,300,2
305,316,308,301,2
305,314,308,301,2
305,310,308,301,2
305,306,309,301,2
306,302,310,301,2
306,298,310,302,2
307,295,310,302,2
307,292,309,303,2
307,290,309,303,2
308,289,308,303,2
309,290,308,303,2
310,294,308,303,2
310,297,308,302,2
311,298,309,302,2
311,298,310,302,2
311,299,311,303,2
311,300,310,304,2
310,301,308,305,2
310,300,305,306,2
309,295,303,307,2
309,288,301,307,2
309,280,301,307,2
309,271,302,305,2
308,265,304,304,2
307,263,306,302,2
306,268,306,300,2
304,280,306,299,2
302,294,305,299,2
300,305,305,299,2
298,313,305,299,2
297,319,306,300,2
297,323,308,300,2
297,326,312,300,2
298,327,315,300,2
298,329,317,300,2
298,333,318,300,2
299,337,319,301,2
299,339,319,303,2
300,339,319,304,2
300,337,319,305,2
300,333,318,305,2
301,329,317,304,2
301,323,315,304,2
301,318,314,304,2
302,312,314,303,2
303,307,314,303,2
305,304,315,302,2
307,303,314,300,2
308,302,313,298,2
308,299,311,296,2
307,293,308,295,2
306,287,305,294,2
305,284,304,295,2
305,284,304,295,2
305,287,304,296,2
303,291,303,296,2
301,297,303,297,2
300,301,303,300,2
301,303,305,303,2
301,303,309,305,2
303,303,313,306,2
303,306,316,308,2
305,312,318,310,2
306,318,319,311,2
307,323,319,310,2
307,325,318,308,2
306,324,316,307,2
305,321,314,305,2
306,314,312,304,2
307,303,310,303,2
308,289,310,303,2
310,275,309,303,2
311,263,310,304,2
311,256,312,305,2
312,257,314,306,2
313,266,315,307,2
312,283,315,307,2
310,299,314,306,2
308,310,312,305,2
306,315,312,305,2
305,317,311,304,2
304,316,310,303,2
304,311,309,303,2
305,304,308,303,2
305,298,308,303,2
306,294,308,302,2
306,293,308,301,2
306,295,309,299,2
306,300,310,298,2
305,305,310,296,2
305,310,309,296,2
305,312,308,296,2
305,314,306,296,2
305,315,306,296,2
305,317,305,297,2
306,316,305,298,2
307,312,305,299,2
308,305,306,301,2
309,299,308,302,2
310,294,310,304,2
311,293,310,306,2
311,296,310,309,2
311,303,309,310,2
310,309,307,312,2
309,311,307,312,2
308,309,306,311,2
308,304,306,309,2
308,300,306,308,2
308,299,307,308,2
308,301,307,307,2
307,304,309,306,2
307,305,309,306,2
307,305,310,307,2
308,304,311,307,2
308,304,312,308,2
308,306,312,309,2
308,307,311,310,2
308,307,311,310,2
309,309,310,310,2
309,310,310,309,2
308,308,309,307,2
307,305,307,304,2
307,300,306,301,2
307,297,306,299,2
307,296,306,297,2
307,295,307,297,2
308,293,307,297,2
309,291,306,298,2
310,287,306,300,2
312,283,307,302,2
313,281,307,304,2
313,281,307,306,2
313,283,306,308,2
313,287,306,308,2
312,294,306,308,2
311,302,308,307,2
311,309,309,307,2
311,314,310,307,2
311,316,310,308,2
310,317,310,308,2
309,316,309,307,2
307,314,309,306,2
306,313,308,304,2
305,312,307,303,2
305,312,307,301,2
304,313,307,300,2
304,315,306,299,2
303,316,306,298,2
303,316,305,298,2
304,316,305,300,2
305,316,304,301,2
306,314,303,302,2
307,312,302,302,2
307,309,301,302,2
308,306,300,301,2
308,303,300,300,2
309,301,301,300,2
309,299,303,300,2
309,297,305,299,2
308,295,306,299,2
306,293,305,298,2
305,290,305,297,2
304,291,305,296,2
304,291,306,295,2
305,290,307,294,2
305,286,306,294,2
305,280,306,294,2
306,274,305,294,2
306,271,305,294,2
307,269,306,294,2
307,271,308,294,2
306,277,309,297,2
305,288,310,300,2
304,299,310,302,2
303,306,310,304,2
303,309,310,305,2
304,306,310,307,2
306,299,310,308,2
307,290,310,310,2
308,283,310,312,2
309,280,311,312,2
309,281,312,313,2
309,288,312,312,2
308,300,311,312,2
306,313,311,311,2
305,323,310,310,2
304,331,309,309,2
303,335,308,307,2
303,338,308,306,2
303,342,307,305,2
304,343,308,304,2
304,340,308,302,2
305,335,308,300,2
305,329,308,299,2
304,323,307,298,2
304,317,306,299,2
303,313,306,300,2
304,309,306,303,2
304,305,307,305,2
304,302,307,307,2
304,298,309,308,2
305,296,309,309,2
305,295,309,309,2
304,296,309,310,2
304,298,310,310,2
304,303,310,311,2
304,311,310,311,2
304,318,310,310,2
304,323,309,308,2
304,325,307,306,2
304,324,306,305,2
304,320,305,304,2
305,314,304,302,2
306,306,304,301,2
307,300,303,300,2
308,295,303,299,2
308,293,302,298,2
307,292,300,298,2
306,293,297,298,2
305,294,296,299,2
304,295,296,300,2
303,297,299,300,2
303,296,301,300,2
303,295,304,301,2
304,294,304,301,2
304,296,304,301,2
304,302,304,303,2
305,308,303,304,2
305,312,302,305,2
305,312,300,304,2
304,310,300,304,2
304,305,300,304,2
306,297,301,304,2
308,288,302,305,2
309,281,302,305,2
310,279,302,305,2
310,282,301,304,2
311,288,301,303,2
310,295,302,303,2
310,304,303,303,2
309,312,306,303,2
308,318,308,304,2
307,322,309,305,2
306,324,309,305,2
306,323,309,306,2
305,320,308,306,2
305,317,307,306,2
304,312,306,305,2
304,307,305,304,2
304,302,303,302,2
305,297,302,301,2
306,292,302,299,2
307,287,303,299,2
309,285,305,300,2
310,285,307,302,2
311,289,308,305,2
310,297,309,308,2
309,307,310,310,2
308,315,311,313,2
307,320,312,315,2
306,318,311,316,2
305,311,311,316,2
305,299,310,313,2
304,288,309,310,2
304,282,308,306,2
303,283,307,304,2
303,290,307,303,2
303,298,307,303,2
303,302,307,303,2
304,301,307,303,2
304,296,307,302,2
306,291,307,302,2
307,287,308,303,2
308,285,309,304,2
310,287,309,305,2
310,293,310,306,2
311,303,311,306,2
311,313,310,306,2
310,322,310,306,2
310,329,310,306,2
311,332,310,307,2
311,333,310,308,2
311,330,309,309,2
310,327,309,311,2
309,322,308,311,2
308,316,308,311,2
307,312,308,311,2
306,308,308,309,2
306,307,308,309,2
306,308,306,308,2
307,311,304,307,2
307,314,301,306,2
307,316,298,304,2
307,317,295,303,2
306,316,292,301,2
304,314,291,299,2
304,313,293,299,2
304,311,296,300,2
305,308,300,301,2
307,303,304,302,2
309,298,307,303,2
310,294,309,303,2
310,292,309,304,2
309,292,308,304,2
307,296,308,304,2
306,302,308,305,2
305,307,309,306,2
304,310,308,305,2
304,311,305,303,2
303,310,303,302,2
303,310,302,302,2
303,311,305,303,2
303,312,310,304,2
304,312,315,305,2
304,311,319,307,2
304,309,321,307,2
304,307,322,307,2
305,304,322,306,2
306,302,321,306,2
306,303,320,305,2
306,307,318,305,2
306,310,316,304,2
305,313,315,303,2
303,313,313,301,2
302,311,311,299,2
302,306,311,299,2
303,297,311,300,2
303,287,311,301,2
304,279,311,301,2
304,274,311,302,2
304,273,311,304,2
305,277,310,304,2
304,284,310,305,2
304,294,310,306,2
304,305,310,307,2
305,314,311,308,2
306,320,311,308,2
306,326,312,308,2
305,330,312,309,2
305,332,312,309,2
305,331,312,309,2
305,326,312,309,2
304,319,311,307,2
304,311,310,306,2
303,304,308,306,2
303,300,307,306,2
303,298,306,306,2
303,295,305,305,2
303,295,304,305,2
303,298,304,304,2
303,302,304,305,2
303,305,304,305,2
304,305,305,306,2
305,301,305,306,2
306,294,305,307,2
307,284,305,308,2
309,274,305,309,2
310,268,305,310,2
309,268,304,310,2
308,278,304,310,2
305,292,304,310,2
303,307,305,310,2
302,318,307,310,2
301,324,309,309,2
300,323,309,307,2
301,317,309,304,2
301,310,308,301,2
302,304,308,299,2
303,299,307,298,2
304,296,307,298,2
305,295,307,297,2
305,296,306,297,2
306,300,305,297,2
306,304,305,298,2
307,311,305,299,2
306,316,305,300,2
306,320,304,300,2
306,320,304,301,2
306,315,305,302,2
307,308,305,303,2
307,302,305,304,2
307,297,305,304,2
306,297,304,304,2
306,301,303,305,2
305,307,303,306,2
305,315,303,307,2
306,322,304,308,2
307,326,304,309,2
309,327,305,310,2
310,326,306,310,2
311,322,307,311,2
312,316,307,311,2
313,309,306,311,2
314,302,306,312,2
315,297,305,313,2
316,295,304,313,2
316,296,303,313,2
315,299,302,312,2
314,303,303,312,2
313,307,305,312,2
312,311,308,312,2
311,313,311,313,2
310,312,312,313,2
310,310,312,313,2
308,308,311,313,2
307,305,310,311,2
306,303,309,309,2
306,301,309,307,2
307,300,309,305,2
308,300,309,304,2
309,303,309,305,2
309,308,309,307,2
309,310,308,309,2
309,310,308,312,2
310,305,308,315,2
310,298,308,317,2
310,289,307,317,2
309,282,306,316,2
308,279,306,315,2
308,278,305,313,2
308,280,305,311,2
308,286,304,309,2
308,296,304,307,2
308,305,302,306,2
307,313,299,304,2
305,318,297,303,2
305,319,294,302,2
304,318,294,302,2
303,316,295,301,2
302,313,298,300,2
303,308,302,299,2
304,301,305,300,2
305,290,308,300,2
306,277,309,300,2
307,262,308,300,2
307,250,308,299,2
307,245,307,298,2
307,246,305,298,2
307,255,304,299,2
306,269,303,300,2
305,287,303,301,2
304,305,304,303,2
303,318,305,304,2
302,327,306,306,2
301,333,306,307,2
301,336,307,308,2
301,337,306,307,2
301,334,306,306,2
301,329,305,304,2
301,321,304,303,2
302,311,304,301,2
302,302,303,300,2
302,295,303,300,2
302,291,304,301,2
302,293,305,302,2
302,298,305,304,2
302,304,306,305,2
302,310,306,306,2
303,315,306,308,2
303,318,307,310,2
304,318,307,312,2
305,315,307,313,2
306,312,307,314,2
306,310,307,314,2
306,312,307,314,2
306,315,307,313,2
307,316,306,312,2
307,315,306,311,2
306,310,306,309,2
305,304,306,308,2
305,298,306,306,2
305,294,307,305,2
305,292,307,304,2
305,293,307,304,2
305,296,306,304,2
305,300,305,303,2
305,302,304,304,2
305,303,304,304,2
305,302,305,305,2
306,302,306,307,2
306,302,306,309,2
306,304,307,309,2
307,305,308,309,2
307,308,308,307,2
307,313,308,305,2
307,317,309,304,2
307,320,309,302,2
307,318,308,301,2
307,314,307,300,2
307,307,306,300,2
307,299,306,299,2
308,292,307,299,2
308,283,306,299,2
308,274,306,299,2
308,267,305,299,2
308,264,304,299,2
309,265,303,301,2
309,270,303,302,2
309,280,303,304,2
308,292,304,305,2
308,306,305,306,2
307,319,308,306,2
305,329,310,306,2
303,334,312,304,2
302,336,312,302,2
301,335,310,300,2
301,332,309,299,2
302,328,308,299,2
303,324,307,298,2
304,320,306,297,2
305,316,305,296,2
306,315,304,297,2
306,314,305,297,2
307,312,306,298,2
307,310,308,298,2
308,310,307,298,2
308,310,306,299,2
308,311,304,299,2
307,312,303,301,2
306,313,305,303,2
306,314,308,306,2
308,314,312,308,2
309,313,316,310,2
309,311,317,310,2
310,308,317,310,2
310,305,317,309,2
311,302,315,308,2
312,298,314,307,2
313,295,313,306,2
314,293,312,304,2
315,290,311,301,2
315,287,310,299,2
315,283,310,299,2
314,279,310,301,2
314,276,311,304,2
313,277,311,306,2
313,281,311,307,2
311,287,311,306,2
309,292,310,305,2
308,293,309,304,2
307,291,307,303,2
307,288,307,304,2
307,284,308,305,2
307,281,308,306,2
306,282,309,306,2
306,288,309,306,2
306,296,309,307,2
306,305,310,307,2
305,316,309,306,2
305,324,309,306,2
305,330,309,305,2
304,332,310,304,2
305,331,310,304,2
306,326,310,305,2
307,319,311,306,2
308,312,312,308,2
309,306,312,310,2
310,302,312,312,2
310,300,311,314,2
310,297,308,315,2
309,294,304,315,2
308,293,300,312,2
308,294,296,309,2
308,296,294,306,2
307,303,293,305,2
306,313,294,305,2
304,323,295,305,2
303,331,298,305,2
302,334,301,306,2
302,336,304,307,2
303,335,306,307,2
304,331,308,307,2
304,326,309,307,2
304,321,309,306,2
304,316,309,304,2
303,313,309,301,2
303,311,309,298,2
302,308,309,296,2
302,308,309,295,2
303,310,310,296,2
304,314,312,299,2
306,317,313,302,2
307,320,314,305,2
308,323,314,308,2
310,324,314,310,2
311,323,314,311,2
312,322,314,310,2
312,319,313,308,2
312,314,312,307,2
313,310,311,306,2
313,305,310,305,2
313,301,310,305,2
313,294,309,304,2
312,289,308,304,2
312,285,307,304,2
310,283,305,304,2
309,283,305,303,2
308,286,306,303,2
307,293,308,304,2
305,302,310,304,2
305,312,311,305,2
304,318,312,306,2
305,320,312,307,2
305,318,312,309,2
306,314,312,310,2
306,306,311,310,2
307,296,311,310,2
308,286,312,308,2
308,279,312,305,2
309,276,312,302,2
310,279,312,300,2
309,285,310,297,2
308,295,307,296,2
306,305,304,296,2
304,314,302,295,2
303,322,299,296,2
302,328,298,297,2
301,331,298,298,2
302,331,300,298,2
302,328,300,298,2
302,323,301,299,2
304,319,303,300,2
305,316,304,301,2
307,316,306,303,2
308,317,307,305,2
309,316,308,306,2
309,313,309,307,2
309,308,310,307,2
309,304,309,306,2
308,302,307,304,2
307,302,304,302,2
306,304,302,302,2
306,309,298,301,2
306,312,296,301,2
306,314,295,302,2
306,313,294,302,2
305,309,296,302,2
304,305,299,303,2
304,301,303,304,2
304,297,307,306,2
304,294,309,307,2
305,292,310,308,2
306,294,311,309,2
306,299,311,308,2
307,303,311,307,2
307,305,311,306,2
308,306,311,305,2
308,307,311,305,2
308,307,311,304,2
308,308,310,303,2
307,308,309,302,2
306,307,307,300,2
305,306,307,299,2
305,304,306,299,2
306,303,307,298,2
306,302,307,298,2
307,300,307,298,2
306,296,307,298,2
304,290,307,298,2
304,284,306,298,2
304,278,307,299,2
306,276,307,300,2
306,277,308,301,2
307,280,309,303,2
308,286,309,306,2
307,297,308,307,2
306,309,306,307,2
304,321,304,307,2
302,329,303,306,2
301,335,303,306,2
300,336,304,306,2
301,335,306,305,2
302,331,307,306,2
304,327,309,307,2
305,322,311,308,2
307,318,312,310,2
308,315,313,312,2
308,314,314,313,2
308,314,315,315,2
308,315,314,315,2
306,314,313,314,2
305,309,310,311,2
304,302,309,307,2
304,295,309,305,2
305,289,311,304,2
306,286,312,303,2
307,284,312,304,2
308,284,312,303,2
307,288,311,304,2
306,295,310,304,2
304,304,308,304,2
303,314,306,303,2
301,320,305,302,2
301,323,305,303,2
301,322,306,305,2
303,318,307,307,2
304,311,308,308,2
306,304,310,308,2
307,299,311,308,2
308,297,311,307,2
309,299,311,307,2
309,305,311,306,2
309,312,311,306,2
309,319,311,305,2
309,323,309,303,2
308,324,308,302,2
306,323,306,301,2
305,320,305,301,2
305,315,305,301,2
304,310,304,301,2
304,306,304,301,2
303,302,304,301,2
303,300,305,301,2
303,298,306,302,2
303,299,306,303,2
302,303,306,304,2
302,307,306,304,2
302,310,306,305,2
303,313,306,306,2
304,314,306,308,2
304,315,305,309,2
305,313,305,310,2
304,311,306,310,2
304,309,307,310,2
304,306,308,310,2
304,301,309,310,2
303,293,311,309,2
304,287,311,309,2
305,283,312,309,2
306,281,312,308,2
306,280,312,307,2
307,281,311,306,2
306,282,311,304,2
305,287,310,302,2
304,292,309,300,2
303,294,308,299,2
303,293,307,298,2
303,290,307,298,2
304,289,307,298,2
304,293,307,299,2
304,297,306,299,2
304,303,305,299,2
303,310,304,300,2
302,316,304,302,2
302,321,305,305,2
302,323,307,308,2
302,322,310,310,2
303,320,313,313,2
303,319,316,315,2
304,318,317,316,2
304,316,317,317,2
305,313,316,317,2
306,309,315,316,2
307,303,314,315,2
308,297,314,315,2
309,290,315,314,2
310,284,315,313,2
311,280,315,312,2
311,277,313,311,2
312,275,312,311,2
312,273,310,310,2
312,273,309,309,2
311,275,307,308,2
310,281,306,307,2
309,288,306,306,2
307,294,308,305,2
306,300,309,303,2
305,306,309,300,2
304,310,308,298,2
304,313,307,297,2
304,314,307,296,2
304,316,306,297,2
304,319,306,298,2
304,322,306,300,2
304,324,306,304,2
304,325,307,306,2
305,324,308,309,2
306,323,310,311,2
308,321,311,312,2
309,320,312,312,2
310,317,312,310,2
310,316,313,307,2
312,314,313,304,2
314,312,316,303,2
316,310,318,303,2
317,306,319,304,2
315,302,318,304,2
312,300,314,305,2
309,303,308,307,2
308,305,303,310,2
307,306,299,312,2
306,304,297,313,2
305,300,296,312,2
305,292,298,310,2
306,283,301,308,2
305,274,305,307,2
305,268,307,305,2
304,266,308,304,2
304,268,308,303,2
302,275,307,302,2
301,288,306,302,2
300,302,306,302,2
300,316,307,302,2
301,324,307,302,2
301,327,307,300,2
301,327,307,300,2
301,326,308,300,2
301,325,308,301,2
301,324,309,303,2
301,323,310,303,2
301,321,311,303,2
302,319,312,303,2
303,314,313,303,2
303,309,314,302,2
304,302,315,302,2
306,296,315,301,2
307,293,315,302,2
307,292,315,302,2
307,290,315,303,2
306,289,314,304,2
306,287,312,304,2
306,287,311,304,2
305,287,310,304,2
305,289,310,304,2
305,292,310,305,2
304,299,310,305,2
304,305,309,305,2
303,311,307,304,2
302,315,305,304,2
301,317,304,304,2
301,316,304,305,2
301,311,304,305,2
301,306,306,305,2
301,301,308,306,2
302,298,311,307,2
302,297,312,308,2
302,298,313,308,2
302,302,313,308,2
302,309,313,308,2
301,318,313,307,2
300,325,313,307,2
300,331,314,307,2
300,334,315,306,2
301,333,316,306,2
302,329,316,306,2
302,324,316,305,2
302,318,316,304,2
303,313,316,304,2
303,311,316,305,2
303,309,316,307,2
304,308,317,309,2
304,307,317,310,2
304,306,317,312,2
304,304,316,313,2
303,301,316,313,2
303,297,314,313,2
303,293,312,311,2
303,290,311,308,2
304,290,310,307,2
304,293,310,307,2
305,297,310,308,2
306,301,310,308,2
305,305,311,306,2
304,309,310,304,2
303,312,310,300,2
303,311,310,298,2
302,309,310,296,2
302,305,310,295,2
302,302,310,296,2
303,300,311,296,2
304,299,310,298,2
304,299,310,299,2
305,298,310,300,2
306,298,311,301,2
307,299,311,303,2
307,303,312,305,2
308,307,312,308,2
308,312,312,311,2
308,316,312,314,2
308,318,312,317,2
308,320,312,318,2
307,321,311,317,2
307,320,310,315,2
307,316,309,314,2
307,311,309,312,2
307,303,309,312,2
307,296,308,313,2
309,289,308,314,2
311,283,308,314,2
312,278,308,314,2
312,274,307,312,2
312,275,306,310,2
310,281,306,308,2
308,291,306,306,2
307,300,306,305,2
305,308,306,304,2
304,314,306,304,2
302,319,307,305,2
301,321,308,307,2
301,318,308,308,2
301,310,308,308,2
301,300,307,308,2
302,292,307,307,2
303,286,306,308,2
304,285,306,308,2
305,287,306,309,2
306,294,306,309,2
306,303,305,309,2
306,312,304,308,2
306,320,304,308,2
306,327,305,308,2
306,331,305,306,2
306,332,306,305,2
306,330,307,305,2
306,327,307,304,2
306,322,307,303,2
306,318,306,303,2
306,314,306,303,2
306,311,306,303,2
306,308,305,303,2
306,307,305,304,2
306,309,305,305,2
306,314,305,307,2
306,316,304,307,2
305,316,303,306,2
305,314,302,304,2
305,311,301,303,2
304,308,301,303,2
304,306,302,302,2
304,304,302,303,2
304,302,303,303,2
304,300,304,303,2
305,297,305,304,2
306,294,307,306,2
307,292,309,308,2
308,289,310,310,2
308,285,310,310,2
308,281,309,310,2
308,279,308,309,2
308,279,307,309,2
308,284,306,310,2
308,293,305,311,2
308,302,304,313,2
307,309,302,315,2
305,313,301,315,2
303,314,300,314,2
302,315,300,312,2
302,314,302,311,2
302,314,303,310,2
302,314,305,308,2
302,313,306,308,2
302,314,308,308,2
303,313,308,309,2
303,308,308,310,2
303,302,308,310,2
303,295,308,308,2
303,288,306,306,2
303,283,305,303,2
303,281,304,303,2
303,285,304,302,2
303,292,304,302,2
303,303,304,303,2
302,314,303,303,2
302,323,302,302,2
302,330,301,301,2
304,334,300,300,2
305,336,300,300,2
307,335,301,302,2
308,333,302,304,2
309,331,303,306,2
311,327,305,308,2
311,322,305,309,2
311,316,306,308,2
310,311,305,308,2
309,305,304,308,2
308,301,304,308,2
307,298,304,308,2
308,296,305,307,2
308,293,306,306,2
307,290,306,305,2
307,287,306,304,2
307,285,306,304,2
307,284,305,304,2
308,286,304,303,2
308,289,303,304,2
309,294,302,304,2
309,301,300,303,2
308,306,298,302,2
307,310,297,302,2
305,314,296,301,2
305,318,297,301,2
304,322,299,301,2
305,324,300,301,2
305,324,302,301,2
305,323,303,301,2
305,322,303,302,2
305,321,304,302,2
305,320,305,303,2
306,318,306,303,2
305,315,306,303,2
305,314,306,303,2
304,314,306,304,2
304,313,306,306,2
305,311,306,307,2
305,309,307,307,2
306,308,307,306,2
305,305,305,304,2
305,302,303,302,2
306,299,300,300,2
307,295,299,299,2
308,291,298,296,2
307,289,298,294,2
307,289,300,292,2
307,291,303,291,2
307,292,305,292,2
308,291,307,294,2
309,288,308,295,2
310,281,308,297,2
310,273,309,299,2
311,267,308,302,2
311,264,307,303,2
311,265,307,303,2
312,271,305,302,2
311,281,304,301,2
310,296,303,299,2
308,310,302,298,2
307,321,301,297,2
306,328,300,295,2
306,332,300,294,2
306,334,300,294,2
306,334,300,294,2
306,332,300,295,2
307,330,301,295,2
307,327,301,296,2
308,323,303,297,2
309,321,303,297,2
310,320,304,299,2
310,320,304,301,2
311,319,305,304,2
311,318,305,306,2
311,315,306,309,2
311,311,306,310,2
310,306,307,311,2
309,302,307,312,2
308,299,307,312,2
308,298,307,312,2
308,299,308,312,2
308,303,308,313,2
308,308,308,315,2
308,312,308,315,2
308,315,307,314,2
306,315,306,311,2
305,313,305,309,2
305,311,305,308,2
305,308,305,307,2
306,304,305,306,2
307,300,305,306,2
308,298,305,306,2
309,298,306,305,2
310,300,306,305,2
310,303,306,305,2
311,305,306,305,2
311,307,305,305,2
310,304,305,305,2
308,294,304,304,2
307,280,304,303,2
306,268,304,302,2
306,259,303,302,2
306,256,303,303,2
307,258,303,304,2
308,266,302,304,2
308,276,302,303,2
308,286,302,302,2
307,294,302,302,2
307,302,302,301,2
306,309,303,301,2
305,318,304,301,2
305,326,304,301,2
305,335,304,301,2
304,342,303,302,2
303,346,303,303,2
302,346,303,303,2
301,342,303,303,2
301,336,304,304,2
301,329,304,305,2
301,323,305,305,2
302,318,306,305,2
302,315,307,305,2
302,314,307,305,2
302,312,308,304,2
302,308,309,304,2
302,304,310,304,2
303,300,311,304,2
304,297,313,304,2
304,296,312,304,2
304,297,311,304,2
304,300,309,304,2
303,304,307,305,2
304,311,306,306,2
305,318,306,307,2
306,325,306,307,2
306,330,306,307,2
306,334,305,306,2
307,337,305,306,2
308,337,304,306,2
308,333,304,305,2
309,322,304,304,2
309,308,303,303,2
309,296,303,303,2
309,289,304,303,2
308,287,304,304,2
308,286,305,305,2
307,286,304,305,2
307,287,304,304,2
307,289,304,304,2
307,291,304,306,2
307,291,305,307,2
307,291,307,310,2
307,292,308,313,2
308,294,310,317,2
308,295,310,319,2
307,294,309,320,2
307,292,307,319,2
306,288,304,318,2
306,286,302,315,2
304,288,300,311,2
303,294,299,306,2
303,305,300,304,2
302,318,302,302,2
303,327,305,302,2
304,329,307,303,2
305,327,309,303,2
305,321,309,305,2
305,315,309,306,2
305,310,309,308,2
305,307,308,308,2
305,306,308,307,2
305,307,309,305,2
305,311,310,304,2
306,317,313,303,2
307,323,316,302,2
308,326,318,302,2
309,325,319,302,2
309,322,318,302,2
309,317,316,302,2
309,313,313,303,2
309,309,310,303,2
309,306,308,304,2
308,303,306,304,2
307,302,304,305,2
305,304,302,306,2
305,306,302,308,2
306,310,302,310,2
307,316,302,311,2
308,323,302,312,2
309,329,302,312,2
309,332,301,311,2
309,330,300,311,2
308,327,300,311,2
308,323,300,312,2
308,320,302,312,2
308,318,304,312,2
307,316,305,310,2
306,313,306,309,2
306,310,305,307,2
305,306,305,306,2
305,302,306,305,2
306,297,307,305,2
307,293,309,306,2
308,291,310,306,2
308,289,310,306,2
308,288,309,304,2
307,289,308,302,2
307,291,307,300,2
306,293,306,298,2
307,294,306,297,2
307,292,306,298,2
308,290,307,300,2
309,288,308,303,2
310,289,310,306,2
310,292,311,308,2
310,295,312,309,2
309,297,312,311,2
308,300,312,312,2
306,305,312,312,2
304,308,311,311,2
303,310,310,311,2
303,309,309,309,2
304,306,309,308,2
305,302,309,306,2
306,298,309,304,2
307,295,309,302,2
307,288,309,301,2
308,281,308,299,2
308,277,307,299,2
308,277,306,300,2
309,278,306,301,2
308,282,305,301,2
308,290,305,301,2
308,304,304,301,2
308,321,303,301,2
308,336,303,301,2
308,345,303,301,2
307,350,304,303,2
307,352,305,306,2
308,350,307,310,2
309,348,310,312,2
310,346,312,314,2
309,344,313,314,2
309,341,313,312,2
308,336,312,311,2
307,331,310,310,2
306,327,308,309,2
306,324,306,309,2
306,322,305,309,2
307,320,304,309,2
308,318,304,309,2
309,315,304,308,2
309,312,304,307,2
308,310,304,307,2
308,308,305,307,2
308,306,307,308,2
308,303,309,307,2
308,301,311,307,2
308,299,312,307,2
309,297,312,308,2
310,296,312,309,2
310,297,311,310,2
311,301,309,310,2
310,307,308,310,2
309,312,306,310,2
307,317,304,310,2
306,319,303,309,2
305,319,302,309,2
305,315,302,308,2
305,309,302,306,2
305,300,303,305,2
306,289,303,305,2
306,280,304,305,2
307,272,305,306,2
308,266,306,307,2
309,264,307,307,2
309,268,307,306,2
308,278,307,305,2
307,292,306,305,2
307,306,306,306,2
307,317,306,307,2
307,323,306,308,2
307,326,306,309,2
307,325,306,308,2
307,323,306,307,2
306,319,306,307,2
306,315,306,306,2
307,313,306,306,2
307,315,306,306,2
306,320,306,306,2
305,323,305,305,2
305,325,304,304,2
305,325,304,304,2
306,323,304,304,2
307,320,304,304,2
307,316,304,304,2
308,311,304,304,2
308,306,304,304,2
307,302,304,305,2
306,302,303,305,2
305,305,302,305,2
304,311,302,306,2
303,316,301,305,2
303,318,301,304,2
303,318,302,304,2
303,317,302,304,2
304,313,303,305,2
304,309,304,306,2
304,306,306,307,2
305,304,306,308,2
304,304,306,308,2
304,305,306,308,2
304,307,305,308,2
304,311,305,307,2
303,314,304,306,2
303,317,303,305,2
302,319,303,304,2
302,319,301,302,2
302,316,300,300,2
302,310,299,299,2
303,303,299,298,2
305,296,299,299,2
307,289,299,301,2
308,283,300,303,2
309,280,300,305,2
308,282,300,307,2
307,288,300,310,2
305,295,301,314,2
304,302,303,316,2
303,308,305,318,2
303,314,307,319,2
302,319,308,319,2
302,323,308,317,2
303,324,307,314,2
304,324,307,313,2
304,322,307,311,2
305,319,307,309,2
305,317,307,307,2
305,315,308,306,2
306,312,309,307,2
307,307,310,307,2
308,301,310,307,2
308,294,310,308,2
309,288,309,308,2
309,284,308,309,2
310,284,307,310,2
310,289,307,312,2
310,300,307,312,2
309,311,306,312,2
308,321,306,311,2
307,326,305,310,2
307,328,305,309,2
306,327,304,308,2
306,326,304,307,2
306,327,304,308,2
306,329,304,309,2
307,332,305,310,2
308,336,307,312,2
308,339,309,313,2
309,340,309,314,2
309,337,310,316,2
310,332,311,316,2
310,323,310,315,2
310,312,309,313,2
310,300,308,310,2
309,290,307,307,2
309,281,306,303,2
307,273,305,300,2
306,269,304,297,2
305,270,303,296,2
305,275,303,296,2
305,283,304,297,2
306,292,305,299,2
306,300,308,300,2
308,307,311,302,2
309,313,314,305,2
310,315,316,306,2
310,314,318,307,2
310,312,319,308,2
310,308,320,307,2
309,302,319,305,2
306,298,315,304,2
305,298,311,303,2
304,301,308,302,2
303,304,304,300,2
301,306,303,299,2
300,306,301,299,2
300,304,301,299,2
300,300,302,300,2
301,296,302,302,2
303,292,303,303,2
304,288,304,305,2
305,288,304,306,2
305,292,305,307,2
304,300,304,308,2
303,308,304,308,2
302,313,304,307,2
301,315,303,306,2
301,315,303,305,2
301,312,303,303,2
301,307,304,301,2
302,301,305,299,2
302,295,305,298,2
303,291,306,296,2
303,290,306,296,2
303,292,306,295,2
303,298,306,296,2
301,307,305,296,2
300,315,304,296,2
298,320,303,297,2
298,324,303,298,2
298,326,304,300,2
299,327,305,303,2
299,327,306,304,2
300,327,307,306,2
301,325,308,307,2
301,321,308,307,2
301,314,306,307,2
301,308,304,306,2
303,303,304,306,2
304,300,303,305,2
306,298,304,305,2
308,299,304,304,2
309,301,305,303,2
309,302,305,302,2
309,303,307,302,2
309,305,309,303,2
309,309,310,305,2
309,312,310,306,2
308,314,309,307,2
307,314,309,307,2
307,313,309,308,2
307,312,309,310,2
307,311,309,312,2
307,310,309,313,2
306,309,308,312,2
306,308,308,311,2
306,308,306,310,2
305,308,305,308,2
305,307,305,305,2
304,308,304,302,2
303,309,304,299,2
303,310,304,297,2
302,310,303,295,2
301,308,302,294,2
301,303,300,295,2
302,297,300,295,2
303,291,300,296,2
304,285,301,297,2
306,282,302,299,2
307,283,304,301,2
308,288,305,302,2
308,297,305,304,2
308,308,306,306,2
307,316,306,309,2
307,322,307,311,2
306,325,308,313,2
306,326,308,315,2
305,326,308,316,2
304,324,307,315,2
304,322,306,313,2
303,319,305,310,2
303,317,305,308,2
304,314,306,307,2
304,310,307,306,2
304,305,307,305,2
303,301,307,304,2
302,299,307,304,2
302,298,308,305,2
302,299,308,306,2
302,302,309,306,2
302,307,308,306,2
302,313,307,305,2
302,319,306,304,2
302,322,305,303,2
302,321,304,302,2
303,318,304,302,2
303,314,304,302,2
302,310,304,302,2
303,305,305,302,2
302,300,306,302,2
302,295,307,302,2
303,292,309,304,2
304,291,311,306,2
306,294,313,308,2
308,298,314,309,2
309,303,314,310,2
309,307,313,310,2
309,310,312,310,2
308,314,312,311,2
307,318,311,312,2
306,323,309,312,2
305,327,309,314,2
304,329,309,315,2
303,330,309,316,2
303,330,309,316,2
303,328,309,315,2
303,324,310,314,2
303,320,310,313,2
303,318,311,312,2
304,316,311,312,2
303,316,311,312,2
304,315,310,312,2
303,313,309,312,2
303,310,308,311,2
303,306,308,310,2
303,301,308,310,2
304,297,309,310,2
305,294,310,309,2
306,293,312,307,2
306,295,313,306,2
306,298,313,304,2
305,299,312,302,2
304,299,312,300,2
304,297,311,299,2
304,295,309,299,2
304,293,307,300,2
303,294,304,300,2
302,295,301,300,2
300,295,298,300,2
299,295,296,299,2
298,294,296,297,2
298,294,298,297,2
299,297,301,297,2
301,300,303,297,2
302,303,305,297,2
303,307,305,296,2
303,314,305,295,2
302,322,304,295,2
302,330,304,297,2
301,336,304,300,2
302,340,305,304,2
303,341,306,308,2
304,339,307,310,2
304,332,307,312,2
305,324,307,311,2
305,315,307,311,2
305,308,307,310,2
305,303,307,310,2
305,303,308,309,2
305,308,310,309,2
304,314,312,308,2
303,319,313,307,2
303,322,314,307,2
303,324,315,306,2
303,322,315,306,2
303,319,316,306,2
303,314,316,307,2
303,308,316,307,2
303,301,315,308,2
303,293,314,309,2
304,285,313,307,2
305,280,312,306,2
306,278,312,305,2
308,280,312,305,2
308,285,311,304,2
307,292,309,303,2
306,298,308,302,2
304,302,307,300,2
302,307,306,300,2
301,311,305,301,2
300,314,306,302,2
299,314,306,303,2
299,313,306,302,2
298,311,306,302,2
299,306,307,302,2
300,302,307,302,2
301,298,307,302,2
301,295,307,302,2
301,292,307,302,2
301,290,307,301,2
301,289,308,301,2
301,287,308,302,2
302,283,308,303,2
302,278,309,304,2
302,273,309,304,2
302,271,309,304,2
301,273,308,304,2
301,279,307,304,2
300,287,306,304,2
300,297,306,304,2
300,310,307,305,2
300,323,307,304,2
299,331,306,303,2
298,335,306,301,2
297,335,305,300,2
297,333,305,300,2
298,328,305,300,2
298,321,305,300,2
299,312,305,300,2
300,302,305,301,2
302,294,306,303,2
304,288,306,306,2
306,287,306,310,2
307,291,307,313,2
308,297,308,315,2
307,303,308,316,2
306,310,308,315,2
304,319,308,314,2
302,329,307,312,2
301,337,306,311,2
300,340,306,310,2
300,340,306,309,2
301,338,306,308,2
302,336,305,306,2
302,333,304,305,2
303,330,303,303,2
303,327,302,302,2
303,323,302,301,2
304,320,301,301,2
304,316,301,301,2
305,312,300,301,2
306,309,300,302,2
307,307,300,303,2
308,306,300,305,2
308,305,299,307,2
307,303,298,308,2
307,303,299,308,2
307,303,301,307,2
307,303,304,306,2
308,304,308,306,2
308,304,311,306,2
308,304,313,307,2
307,303,313,306,2
307,299,310,306,2
306,294,306,304,2
306,287,303,304,2
307,282,302,304,2
308,278,302,304,2
309,278,302,306,2
309,282,303,309,2
309,292,303,311,2
308,306,302,313,2
306,320,301,315,2
305,331,299,315,2
303,336,298,313,2
303,336,298,310,2
302,333,298,307,2
303,328,299,304,2
304,323,300,303,2
304,318,301,302,2
305,313,302,302,2
305,310,302,302,2
305,308,302,303,2
306,307,303,304,2
306,308,303,305,2
306,310,303,306,2
306,312,303,307,2
306,313,303,308,2
306,314,303,308,2
306,315,303,309,2
306,315,304,310,2
305,316,305,311,2
305,315,306,312,2
305,315,307,312,2
305,316,308,310,2
305,316,308,308,2
306,315,308,306,2
307,312,307,304,2
307,306,307,302,2
308,301,306,302,2
308,297,306,301,2
309,293,306,300,2
309,289,306,299,2
308,285,305,299,2
308,283,305,298,2
307,283,305,298,2
306,285,305,298,2
306,288,306,299,2
305,292,306,300,2
304,297,307,302,2
303,303,306,304,2
303,309,305,305,2
302,313,305,307,2
302,315,306,309,2
303,315,306,309,2
303,312,307,309,2
303,308,307,308,2
303,303,307,308,2
304,296,306,308,2
305,287,305,306,2
305,277,304,305,2
306,270,303,304,2
305,267,301,304,2
304,270,300,303,2
303,278,301,303,2
302,290,302,304,2
301,303,303,304,2
299,314,304,305,2
298,322,304,305,2
298,325,305,305,2
298,323,305,304,2
299,318,306,303,2
300,315,307,302,2
301,313,308,302,2
303,315,308,302,2
303,319,308,302,2
304,324,308,303,2
304,328,307,304,2
304,332,306,306,2
304,335,306,306,2
304,336,306,307,2
304,335,305,308,2
305,334,305,309,2
305,332,304,311,2
306,330,304,313,2
306,326,304,313,2
307,320,304,312,2
307,314,304,310,2
307,308,305,309,2
306,303,306,308,2
306,300,307,308,2
307,300,307,309,2
307,303,307,310,2
307,307,305,311,2
307,310,303,311,2
306,312,303,310,2
305,312,302,309,2
305,310,302,309,2
306,306,303,308,2
306,301,304,307,2
307,296,305,306,2
307,292,306,305,2
307,288,308,305,2
307,286,310,305,2
307,287,312,305,2
307,289,312,305,2
308,291,311,306,2
308,292,310,306,2
308,293,308,305,2
308,293,308,305,2
308,294,307,305,2
308,296,308,307,2
308,300,308,309,2
307,305,308,309,2
306,312,307,309,2
305,317,307,309,2
304,321,307,309,2
303,322,307,308,2
303,322,307,308,2
303,321,307,307,2
302,320,307,306,2
302,318,307,305,2
303,314,307,305,2
304,310,307,306,2
306,305,308,307,2
309,299,311,308,2
311,292,313,308,2
312,287,315,307,2
311,285,315,306,2
308,288,314,306,2
305,295,311,306,2
302,306,308,307,2
301,317,306,309,2
301,323,304,311,2
301,326,304,312,2
301,326,303,313,2
302,323,303,313,2
302,317,302,312,2
302,310,301,310,2
302,303,300,308,2
302,297,299,306,2
302,293,298,304,2
302,291,298,303,2
301,293,299,302,2
301,298,300,302,2
300,304,301,303,2
300,310,301,304,2
300,314,303,306,2
301,316,304,307,2
301,317,305,308,2
302,315,306,308,2
302,311,306,308,2
303,305,306,307,2
305,299,308,307,2
307,293,309,306,2
308,287,311,306,2
309,282,311,305,2
308,279,311,306,2
308,279,310,307,2
306,283,309,308,2
305,291,308,309,2
304,298,307,310,2
303,305,306,311,2
303,310,306,312,2
303,314,306,311,2
302,316,305,310,2
302,316,305,309,2
302,314,305,309,2
303,313,305,311,2
304,313,305,313,2
305,313,305,315,2
305,314,305,315,2
305,315,304,316,2
306,318,304,315,2
307,320,304,315,2
307,323,304,315,2
307,324,304,314,2
307,324,305,313,2
308,325,306,311,2
309,326,308,310,2
310,328,310,309,2
311,327,311,308,2
311,327,310,308,2
310,327,310,308,2
309,325,309,309,2
309,320,308,310,2
308,314,308,312,2
308,306,308,313,2
308,301,308,314,2
308,297,308,314,2
307,295,308,313,2
306,296,307,311,2
305,302,306,310,2
304,311,306,309,2
304,318,306,309,2
303,323,307,310,2
303,325,307,310,2
302,326,307,309,2
302,329,307,309,2
303,330,307,309,2
305,330,309,310,2
308,330,311,312,2
311,329,314,314,2
315,328,316,316,2
317,327,317,317,2
317,321,317,315,2
314,314,315,313,2
312,307,312,311,2
309,301,308,308,2
307,297,304,306,2
306,294,301,305,2
305,294,299,304,2
306,295,299,305,2
307,296,299,307,2
307,299,300,310,2
309,301,301,313,2
309,302,302,317,2
310,301,302,321,2
309,300,302,323,2
310,300,302,323,2
310,301,304,321,2
311,302,307,318,2
312,305,311,314,2
312,310,314,312,2
312,314,316,311,2
310,316,317,310,2
309,316,316,311,2
309,314,313,312,2
308,312,311,313,2
309,310,308,313,2
309,308,306,313,2
308,306,304,313,2
307,306,303,314,2
307,308,303,315,2
306,311,302,314,2
306,312,301,313,2
306,311,299,312,2
306,311,299,310,2
306,312,299,309,2
306,316,300,309,2
307,320,301,308,2
307,323,302,306,2
307,325,302,304,2
307,325,302,302,2
308,323,301,301,2
308,322,301,300,2
308,320,301,300,2
308,318,301,300,2
309,314,302,301,2
310,309,302,302,2
311,302,303,304,2
311,294,304,306,2
312,286,305,308,2
313,281,306,309,2
313,280,307,311,2
313,283,307,311,2
313,290,307,313,2
312,302,307,315,2
311,314,307,318,2
310,324,307,319,2
309,329,306,319,2
307,330,305,318,2
306,330,303,315,2
306,329,302,312,2
306,328,300,309,2
307,324,299,307,2
307,320,298,305,2
307,313,299,303,2
308,304,301,302,2
308,294,304,302,2
309,286,306,303,2
310,280,308,304,2
310,277,308,305,2
311,277,307,307,2
310,281,306,308,2
310,288,305,310,2
310,295,304,310,2
309,301,303,310,2
308,304,303,310,2
308,306,303,311,2
308,308,303,311,2
307,309,301,309,2
306,314,300,307,2
305,320,299,307,2
305,325,299,309,2
306,327,299,310,2
307,326,299,312,2
308,323,300,312,2
308,319,301,312,2
309,316,303,313,2
309,314,304,314,2
309,311,305,315,2
309,307,306,316,2
309,303,307,316,2
309,302,306,316,2
308,302,305,316,2
308,303,303,315,2
308,306,300,314,2
307,306,298,313,2
306,305,298,310,2
307,302,299,308,2
309,299,301,306,2
311,297,303,305,2
312,298,304,304,2
311,300,305,304,2
310,303,305,304,2
308,307,304,305,2
306,314,303,305,2
305,323,303,306,2
304,333,303,308,2
304,341,304,310,2
304,345,305,312,2
304,343,305,312,2
303,337,305,313,2
302,328,305,313,2
301,318,305,312,2
300,308,305,312,2
299,300,305,311,2
299,292,305,311,2
299,285,305,310,2
300,278,305,310,2
302,272,306,310,2
303,268,306,310,2
304,266,305,310,2
305,269,305,309,2
306,276,305,310,2
305,286,304,310,2
304,294,302,311,2
302,300,301,309,2
301,303,299,308,2
300,305,299,306,2
300,305,301,306,2
300,305,303,305,2
301,306,306,305,2
301,308,307,304,2
302,312,307,304,2
302,318,307,304,2
302,323,306,304,2
302,327,306,304,2
302,330,306,304,2
302,331,307,305,2
301,330,307,305,2
300,328,306,304,2
299,326,305,303,2
299,323,304,301,2
300,320,303,301,2
301,318,303,302,2
302,316,303,302,2
303,313,303,304,2
304,310,303,304,2
304,306,302,305,2
303,303,302,305,2
303,301,301,306,2
303,301,301,306,2
303,301,302,306,2
303,300,303,307,2
304,300,305,307,2
305,301,308,307,2
307,301,309,308,2
308,303,310,308,2
309,307,311,309,2
309,311,311,311,2
310,315,313,313,2
310,317,314,315,2
310,318,315,316,2
310,316,315,317,2
311,313,316,316,2
311,310,316,317,2
311,305,315,316,2
311,300,314,317,2
311,298,313,317,2
309,293,312,318,2
308,285,311,317,2
308,274,311,317,2
309,261,312,317,2
310,249,314,316,2
312,240,316,314,2
313,238,317,312,2
314,243,316,311,2
313,255,314,311,2
312,270,312,310,2
311,284,309,308,2
309,298,307,307,2
308,312,306,306,2
307,325,305,306,2
305,338,304,305,2
303,351,303,304,2
301,361,302,304,2
300,365,302,303,2
300,362,304,304,2
301,355,307,305,2
302,346,309,307,2
302,338,310,309,2
303,332,310,311,2
303,330,309,312,2
303,331,309,314,2
304,331,310,316,2
304,332,312,316,2
305,333,313,315,2
306,335,313,314,2
305,334,312,311,2
304,333,312,308,2
303,331,311,306,2
303,328,310,305,2
303,326,309,303,2
303,322,309,301,2
303,317,309,299,2
303,311,309,297,2
304,306,309,297,2
304,300,309,300,2
305,296,310,303,2
306,292,311,307,2
306,289,311,310,2
306,286,312,313,2
307,284,312,315,2
307,283,312,317,2
307,282,313,317,2
308,278,313,316,2
308,275,312,314,2
307,274,311,312,2
307,275,309,310,2
306,278,308,308,2
304,281,306,307,2
303,284,306,308,2
302,289,306,309,2
302,295,307,309,2
301,300,307,310,2
300,304,307,311,2
300,308,307,312,2
301,311,307,312,2
302,314,308,313,2
302,317,308,313,2
302,320,307,312,2
303,322,306,311,2
303,323,305,310,2
303,322,304,310,2
303,319,303,310,2
304,315,303,310,2
304,311,302,310,2
305,308,302,310,2
305,306,302,310,2
305,304,302,309,2
304,302,303,309,2
303,299,304,309,2
302,294,305,309,2
301,289,305,309,2
300,286,306,310,2
300,284,306,309,2
300,286,306,309,2
301,293,306,309,2
302,303,306,310,2
303,312,306,311,2
304,317,305,311,2
304,319,304,311,2
305,317,303,310,2
305,314,303,309,2
306,312,303,308,2
306,310,304,307,2
306,307,305,306,2
305,305,305,306,2
305,301,305,306,2
303,297,303,305,2
302,294,301,304,2
301,292,300,303,2
300,293,299,303,2
301,297,301,303,2
302,302,303,304,2
303,307,306,306,2
305,313,307,307,2
306,318,308,309,2
307,322,309,311,2
307,325,310,311,2
306,325,310,310,2
306,324,311,309,2
306,323,311,309,2
307,322,312,308,2
309,318,314,308,2
310,312,315,307,2
310,305,315,304,2
309,300,313,302,2
308,295,310,300,2
307,290,308,299,2
306,288,306,300,2
307,289,305,301,2
307,293,305,303,2
308,297,306,305,2
309,299,306,307,2
310,297,307,308,2
311,289,307,309,2
312,277,308,310,2
313,263,309,310,2
314,254,311,310,2
315,252,313,310,2
314,259,313,310,2
312,275,312,311,2
310,296,311,312,2
308,316,309,312,2
306,330,307,313,2
305,339,306,314,2
305,342,306,314,2
304,340,305,313,2
304,335,305,312,2
305,330,304,311,2
305,326,305,310,2
305,324,305,310,2
305,322,306,309,2
306,320,307,308,2
306,316,308,307,2
307,313,309,307,2
307,311,309,307,2
307,312,309,308,2
307,313,308,308,2
306,314,308,309,2
306,315,308,309,2
306,317,308,310,2
306,318,308,312,2
307,319,308,314,2
308,318,307,315,2
308,316,308,315,2
308,314,308,314,2
308,309,309,312,2
308,302,310,309,2
308,294,310,307,2
308,290,309,305,2
308,288,308,303,2
308,290,307,302,2
308,294,306,302,2
308,299,306,302,2
308,304,307,303,2
308,308,308,303,2
308,307,308,303,2
308,305,309,302,2
308,300,310,302,2
308,296,310,302,2
308,293,308,304,2
307,291,306,306,2
307,292,305,308,2
307,295,305,309,2
307,298,305,308,2
307,300,305,307,2
306,299,306,306,2
307,295,306,306,2
307,290,306,306,2
308,282,306,306,2
308,276,306,307,2
309,271,305,306,2
309,272,305,306,2
309,276,304,306,2
309,283,304,307,2
309,294,303,308,2
308,307,302,309,2
307,321,301,308,2
306,331,301,307,2
305,337,301,306,2
305,338,300,304,2
306,337,300,303,2
306,334,299,302,2
306,331,299,300,2
306,329,298,299,2
306,326,298,298,2
306,322,298,298,2
306,317,298,299,2
306,314,299,300,2
306,311,299,302,2
305,308,300,304,2
304,303,302,305,2
304,298,304,305,2
305,294,305,305,2
306,291,306,305,2
307,289,307,305,2
308,289,306,305,2
309,292,306,305,2
309,297,305,306,2
308,303,304,306,2
308,308,303,305,2
307,312,302,305,2
306,313,300,304,2
306,312,299,304,2
306,312,299,305,2
306,312,300,306,2
306,312,302,307,2
307,313,304,306,2
307,313,306,307,2
307,312,308,307,2
307,312,308,308,2
307,311,308,308,2
308,309,307,309,2
308,306,307,310,2
309,302,306,311,2
309,300,306,310,2
309,298,305,309,2
309,295,305,307,2
309,292,305,306,2
309,290,305,304,2
309,289,306,303,2
308,289,306,304,2
308,290,306,304,2
307,291,305,304,2
306,295,304,305,2
306,300,304,305,2
305,307,303,305,2
304,314,303,305,2
303,321,302,305,2
303,326,301,305,2
303,329,301,304,2
304,330,301,305,2
304,329,301,306,2
304,325,301,307,2
304,321,302,306,2
304,318,302,307,2
304,314,302,306,2
304,308,302,306,2
305,302,301,306,2
305,298,301,306,2
304,296,301,305,2
304,297,301,304,2
304,302,300,303,2
304,311,301,303,2
304,319,301,303,2
304,327,302,304,2
304,334,302,305,2
304,338,302,306,2
304,339,302,306,2
306,338,302,306,2
306,334,302,305,2
307,328,303,304,2
307,321,303,303,2
306,314,303,303,2
306,307,303,303,2
305,301,303,303,2
305,296,303,304,2
305,293,303,305,2
304,290,303,306,2
304,288,303,307,2
304,285,303,308,2
304,280,303,307,2
304,275,303,305,2
304,270,302,304,2
304,267,302,304,2
305,265,302,304,2
306,267,303,304,2
306,274,304,303,2
306,284,304,302,2
306,293,303,302,2
306,300,303,303,2
305,308,302,303,2
303,315,302,304,2
303,319,302,305,2
302,320,302,306,2
301,320,302,307,2
302,317,302,309,2
302,313,302,310,2
302,306,302,311,2
303,299,303,311,2
305,293,303,311,2
306,290,304,310,2
307,290,304,309,2
307,295,305,308,2
306,303,305,308,2
304,311,305,308,2
303,318,306,309,2
302,320,307,311,2
302,318,309,312,2
303,313,310,313,2
303,307,311,314,2
304,299,311,315,2
304,291,312,317,2
305,285,312,318,2
306,283,313,318,2
307,284,313,317,2
306,287,312,316,2
306,293,310,314,2
304,301,307,313,2
304,308,306,314,2
304,312,305,314,2
304,314,305,315,2
305,315,305,316,2
306,316,305,316,2
307,317,305,316,2
308,317,306,316,2
308,318,306,316,2
308,317,307,314,2
308,315,307,313,2
307,312,308,313,2
308,309,308,312,2
308,306,308,312,2
308,305,308,311,2
309,306,308,312,2
309,309,309,312,2
310,314,309,313,2
309,318,309,313,2
307,321,308,313,2
305,322,307,313,2
303,321,306,314,2
303,319,305,314,2
303,313,306,314,2
304,306,306,312,2
305,297,306,311,2
306,289,307,309,2
308,280,307,308,2
309,272,308,307,2
310,266,309,307,2
310,267,309,309,2
310,273,309,311,2
309,284,308,312,2
307,296,306,312,2
305,310,304,311,2
305,322,302,309,2
305,331,300,307,2
305,337,299,306,2
305,336,299,305,2
305,333,300,303,2
307,330,304,302,2
307,327,308,301,2
308,325,313,301,2
308,322,315,299,2
307,316,314,297,2
306,309,311,295,2
304,302,307,295,2
304,296,305,295,2
304,291,303,296,2
303,289,303,296,2
303,293,303,297,2
302,302,302,299,2
301,312,301,301,2
301,319,301,303,2
301,321,300,303,2
302,319,301,302,2
303,316,302,301,2
304,313,302,300,2
306,310,303,300,2
307,309,304,302,2
307,309,305,303,2
308,308,306,304,2
308,311,307,305,2
309,315,308,305,2
309,319,308,305,2
309,323,308,305,2
309,325,309,306,2
308,328,309,307,2
307,329,309,308,2
307,330,309,310,2
306,330,308,313,2
307,330,307,316,2
307,328,307,319,2
309,323,307,322,2
309,316,308,323,2
310,309,307,323,2
310,304,306,322,2
309,302,305,320,2
308,303,303,317,2
307,307,301,315,2
306,312,301,314,2
305,316,301,315,2
305,317,303,315,2
305,310,305,316,2
305,299,308,317,2
306,287,309,316,2
307,277,310,314,2
307,272,309,311,2
307,274,309,309,2
308,282,308,308,2
308,292,308,307,2
307,300,308,307,2
305,306,307,306,2
304,312,307,306,2
304,316,307,307,2
303,321,307,307,2
303,324,306,308,2
302,326,306,309,2
302,327,306,311,2
302,326,306,312,2
302,324,307,313,2
303,320,308,314,2
303,316,308,313,2
303,312,308,312,2
303,308,307,311,2
303,305,306,310,2
303,304,305,309,2
303,304,304,308,2
303,304,303,306,2
303,304,303,304,2
303,306,303,304,2
303,311,303,304,2
303,317,304,305,2
304,324,304,305,2
304,330,305,306,2
305,335,307,308,2
306,336,309,311,2
307,332,312,314,2
309,324,315,315,2
309,313,317,315,2
308,301,318,314,2
308,292,316,312,2
307,284,314,311,2
307,281,311,310,2
307,284,309,311,2
306,292,307,310,2
306,299,304,310,2
305,307,300,309,2
306,313,299,308,2
305,319,298,307,2
305,321,296,306,2
304,319,296,306,2
304,315,297,307,2
305,310,298,307,2
305,305,299,307,2
306,302,301,307,2
307,301,303,306,2
307,302,306,306,2
308,305,309,307,2
308,307,310,308,2
308,305,310,308,2
307,300,309,308,2
306,297,308,308,2
306,298,307,309,2
306,304,307,309,2
306,310,308,310,2
306,315,308,311,2
306,320,307,312,2
305,323,306,313,2
304,322,305,312,2
303,318,304,312,2
302,311,303,311,2
303,303,302,311,2
303,296,301,309,2
303,293,301,307,2
304,294,301,305,2
304,298,301,303,2
304,303,302,301,2
304,306,303,300,2
305,307,304,300,2
305,307,304,300,2
304,307,305,301,2
304,307,304,303,2
304,310,304,306,2
304,313,303,308,2
303,316,303,310,2
304,319,303,311,2
304,320,303,312,2
306,320,303,313,2
307,319,304,313,2
308,316,304,312,2
309,311,305,311,2
311,305,306,311,2
312,297,307,312,2
313,288,308,312,2
313,279,308,314,2
312,273,307,314,2
311,268,306,313,2
309,266,305,310,2
308,268,303,305,2
306,276,302,303,2
306,288,301,301,2
305,303,301,301,2
305,316,301,301,2
305,326,301,301,2
305,334,301,302,2
305,337,300,303,2
304,337,300,305,2
305,332,300,308,2
306,324,301,310,2
307,316,303,313,2
309,308,306,315,2
310,302,307,317,2
311,298,308,318,2
310,295,308,317,2
309,292,307,314,2
308,289,307,311,2
308,285,308,308,2
309,282,308,306,2
309,281,308,305,2
309,284,308,305,2
309,288,308,305,2
308,292,307,307,2
308,299,307,308,2
307,307,306,310,2
307,316,306,311,2
308,324,306,313,2
309,330,307,315,2
308,334,307,317,2
308,335,307,317,2
308,334,307,316,2
308,330,308,314,2
308,324,307,311,2
308,317,306,308,2
307,309,304,305,2
306,301,303,303,2
305,296,302,301,2
304,293,301,300,2
304,292,301,300,2
305,296,301,301,2
306,302,301,303,2
306,309,301,304,2
306,312,301,303,2
305,311,300,302,2
304,306,300,302,2
305,298,299,301,2
306,289,300,300,2
307,280,300,299,2
308,272,301,299,2
309,270,302,299,2
310,274,304,300,2
311,285,304,302,2
310,300,303,303,2
309,313,302,306,2
308,321,301,307,2
308,324,300,309,2
307,320,300,309,2
306,312,300,308,2
305,303,301,307,2
305,294,302,307,2
306,289,303,308,2
307,287,303,308,2
307,288,303,308,2
307,295,303,308,2
307,302,302,307,2
307,307,302,306,2
307,312,301,306,2
307,318,301,306,2
308,323,303,307,2
310,328,304,308,2
311,330,306,307,2
312,332,307,307,2
313,332,307,305,2
311,329,305,304,2
309,325,301,302,2
306,319,299,301,2
305,313,297,300,2
303,307,296,300,2
303,300,296,300,2
304,294,298,300,2
304,289,301,299,2
304,288,303,299,2
305,289,305,300,2
305,292,307,301,2
306,295,308,302,2
306,299,308,304,2
306,304,309,307,2
306,308,310,311,2
305,311,311,314,2
305,313,311,315,2
304,313,312,315,2
304,313,312,313,2
304,312,313,310,2
303,310,313,308,2
303,308,314,306,2
304,306,315,305,2
305,305,316,305,2
306,306,316,306,2
307,306,316,306,2
308,302,315,306,2
307,295,313,306,2
307,287,311,306,2
307,280,310,306,2
308,278,308,307,2
307,280,307,307,2
306,288,305,307,2
304,301,303,306,2
303,316,302,306,2
301,328,301,306,2
300,334,300,306,2
300,336,300,306,2
300,334,300,305,2
300,330,299,305,2
300,325,299,304,2
300,319,299,304,2
300,313,300,305,2
301,308,301,307,2
302,303,302,309,2
304,300,304,311,2
306,300,305,312,2
308,303,307,313,2
309,306,307,313,2
308,309,307,311,2
308,310,306,309,2
306,310,305,307,2
305,311,305,308,2
305,311,304,309,2
304,311,304,310,2
304,310,304,311,2
304,310,304,312,2
305,310,305,312,2
305,308,305,312,2
306,305,305,312,2
306,300,305,312,2
307,295,306,312,2
308,289,306,313,2
308,286,307,313,2
308,285,307,312,2
307,288,308,311,2
306,294,309,308,2
306,303,311,306,2
305,311,312,303,2
304,317,313,301,2
305,319,313,299,2
306,319,313,299,2
308,315,312,302,2
310,310,311,304,2
311,303,310,306,2
310,298,309,308,2
310,295,307,310,2
310,293,306,312,2
310,293,305,313,2
310,297,304,313,2
310,304,303,313,2
310,312,303,313,2
309,319,304,313,2
309,323,305,312,2
308,326,306,311,2
308,325,306,310,2
308,323,306,310,2
308,321,305,309,2
308,318,304,309,2
309,315,303,308,2
309,312,303,307,2
308,309,303,306,2
308,305,303,304,2
308,302,302,303,2
308,301,301,302,2
308,299,300,301,2
308,298,299,300,2
307,297,298,299,2
306,295,297,298,2
304,292,296,297,2
303,288,295,295,2
302,281,295,293,2
301,275,294,292,2
301,270,295,291,2
302,266,295,291,2
302,265,296,291,2
302,267,296,291,2
303,274,297,292,2
304,286,298,295,2
305,297,299,298,2
306,304,300,302,2
306,308,301,306,2
307,310,301,311,2
307,311,302,314,2
307,311,302,316,2
307,311,302,315,2
306,311,301,312,2
306,312,301,308,2
306,312,300,303,2
305,312,299,297,2
305,310,297,291,2
304,307,296,284,2
303,304,295,279,2
302,300,295,277,2
302,297,296,280,2
303,295,299,288,2
305,294,302,298,2
308,293,307,308,2
311,292,309,317,2
312,292,311,322,2
311,294,311,325,2
311,297,310,324,2
310,302,309,322,2
308,311,309,321,2
306,318,308,320,2
305,324,308,319,2
305,328,309,319,2
306,332,309,320,2
306,334,310,321,2
306,335,309,320,2
305,334,309,319,2
305,333,308,318,2
304,330,308,317,2
304,326,308,317,2
305,322,309,318,2
305,319,309,319,2
305,315,309,319,2
306,311,309,317,2
306,307,309,315,2
306,303,308,312,2
306,298,308,310,2
306,294,307,309,2
306,289,307,309,2
306,287,307,309,2
307,284,307,309,2
307,282,307,308,2
307,280,307,307,2
307,278,307,307,2
307,275,307,308,2
307,274,307,308,2
307,276,306,310,2
306,280,306,310,2
306,288,306,310,2
306,297,306,311,2
307,306,307,312,2
307,312,308,314,2
307,316,309,315,2
306,318,307,314,2
306,318,305,312,2
307,318,303,310,2
308,320,302,309,2
309,321,302,309,2
309,321,302,309,2
309,320,302,309,2
308,318,303,309,2
308,313,302,309,2
307,307,302,309,2
306,301,302,309,2
306,296,302,307,2
305,294,301,305,2
305,297,300,304,2
305,302,299,304,2
305,309,298,306,2
304,317,297,306,2
305,325,296,307,2
306,331,297,307,2
307,335,299,308,2
307,335,301,308,2
308,334,304,310,2
309,333,306,312,2
309,333,307,312,2
309,333,307,312,2
310,331,306,311,2
310,328,306,310,2
308,322,305,307,2
307,313,303,304,2
305,304,301,300,2
305,297,299,298,2
304,290,299,298,2
304,283,299,298,2
304,276,300,298,2
305,271,302,300,2
307,267,304,302,2
309,263,305,305,2
310,262,306,308,2
311,265,306,311,2
310,272,306,314,2
309,282,305,315,2
307,293,304,316,2
306,306,303,317,2
305,320,301,317,2
304,330,300,316,2
303,335,299,315,2
304,337,299,314,2
304,336,299,313,2
305,333,300,312,2
305,328,301,311,2
306,322,302,311,2
306,314,303,311,2
306,307,303,311,2
306,302,303,311,2
306,301,304,311,2
307,303,304,311,2
307,307,306,311,2
307,310,307,312,2
307,311,308,313,2
307,309,309,313,2
307,305,310,314,2
307,299,312,315,2
308,292,312,313,2
307,287,312,310,2
306,285,310,307,2
304,287,307,305,2
302,293,303,305,2
301,301,302,307,2
301,309,302,310,2
301,314,302,312,2
302,317,302,313,2
302,319,302,312,2
302,322,302,311,2
302,324,302,309,2
302,324,301,307,2
303,321,301,306,2
303,318,301,305,2
305,314,303,306,2
306,309,305,307,2
307,304,307,309,2
308,300,308,311,2
307,298,310,313,2
306,300,311,314,2
304,303,311,316,2
303,307,312,317,2
303,309,313,318,2
304,308,313,318,2
304,303,314,317,2
305,296,314,316,2
305,287,314,314,2
306,279,314,313,2
306,272,314,313,2
307,268,314,313,2
308,269,315,313,2
308,276,315,312,2
309,287,315,311,2
309,300,314,309,2
309,313,313,309,2
308,325,311,309,2
307,334,310,309,2
306,339,309,310,2
304,341,308,312,2
304,340,308,312,2
304,335,307,312,2
303,328,307,310,2
302,321,306,310,2
302,315,306,309,2
302,311,306,308,2
303,308,306,307,2
303,305,307,307,2
303,303,307,307,2
304,300,308,308,2
304,297,309,308,2
304,294,309,309,2
305,293,310,309,2
305,292,311,309,2
305,292,311,309,2
306,291,311,310,2
306,291,312,310,2
306,290,314,311,2
306,286,314,312,2
306,282,315,311,2
305,280,315,310,2
305,280,315,309,2
305,284,314,309,2
304,291,313,308,2
304,300,312,306,2
304,306,310,303,2
303,310,308,299,2
303,312,306,296,2
302,316,304,294,2
301,320,302,294,2
300,324,300,294,2
300,326,297,294,2
300,325,296,296,2
300,321,296,297,2
301,316,296,300,2
302,310,297,302,2
303,305,300,306,2
304,303,303,310,2
305,301,306,312,2
306,300,309,314,2
306,298,313,316,2
306,297,315,317,2
306,297,317,318,2
307,296,319,317,2
307,296,321,317,2
308,298,322,316,2
308,302,323,317,2
309,306,321,316,2
308,309,319,316,2
308,309,316,315,2
307,308,314,315,2
307,305,312,315,2
307,304,311,315,2
306,305,311,314,2
305,309,311,314,2
303,313,310,314,2
302,318,309,313,2
300,322,308,312,2
300,326,308,311,2
300,328,308,310,2
300,329,309,310,2
302,327,310,311,2
302,324,311,314,2
304,321,311,316,2
305,317,311,316,2
306,314,311,316,2
305,310,311,315,2
305,305,311,313,2
305,302,311,312,2
304,302,310,311,2
304,302,310,310,2
304,303,310,310,2
304,304,309,309,2
304,304,309,309,2
304,303,308,308,2
304,302,308,307,2
303,301,308,307,2
303,299,308,306,2
303,296,307,305,2
303,294,307,304,2
303,292,307,305,2
303,291,308,304,2
303,291,308,305,2
303,294,308,304,2
304,299,308,303,2
305,304,308,303,2
306,309,308,304,2
307,312,308,304,2
307,314,307,306,2
307,314,307,307,2
308,314,306,308,2
308,315,305,310,2
309,316,305,311,2
309,316,306,312,2
308,314,307,313,2
307,310,308,313,2
305,306,308,314,2
304,304,309,314,2
303,303,311,314,2
303,305,312,314,2
302,307,313,313,2
303,308,313,313,2
303,307,313,312,2
304,303,314,312,2
305,298,314,312,2
305,292,314,311,2
305,289,315,309,2
305,289,314,307,2
305,293,314,304,2
304,302,313,303,2
304,311,313,302,2
303,317,313,301,2
303,319,312,301,2
303,316,311,301,2
304,312,310,301,2
304,309,310,302,2
305,306,310,304,2
306,305,311,305,2
306,304,311,307,2
306,302,311,307,2
305,302,310,306,2
304,301,310,305,2
304,303,309,304,2
304,304,309,303,2
304,306,308,301,2
304,308,307,301,2
304,310,306,300,2
304,308,306,299,2
303,305,307,297,2
302,301,307,296,2
301,298,307,294,2
301,295,307,293,2
300,292,305,292,2
300,290,304,292,2
301,290,303,293,2
302,288,303,295,2
303,286,302,296,2
305,284,303,297,2
305,284,303,298,2
306,285,303,299,2
305,287,303,301,2
305,291,303,303,2
304,296,304,305,2
304,302,305,307,2
303,310,305,310,2
304,318,306,313,2
304,323,307,314,2
305,327,307,315,2
306,328,308,316,2
307,328,307,315,2
307,326,307,315,2
308,322,307,315,2
308,316,307,315,2
308,309,307,314,2
308,298,307,313,2
309,288,308,313,2
310,278,310,314,2
311,272,311,315,2
311,272,312,315,2
310,275,312,313,2
307,281,311,309,2
304,291,307,304,2
301,303,303,301,2
300,314,300,299,2
300,322,297,299,2
300,326,296,299,2
301,327,294,300,2
302,326,294,301,2
303,324,294,303,2
304,319,295,304,2
304,313,298,306,2
305,306,301,308,2
305,301,304,309,2
305,297,306,309,2
305,296,306,308,2
305,295,306,308,2
305,298,306,307,2
305,301,306,307,2
306,304,305,307,2
306,306,305,307,2
307,306,304,308,2
308,305,304,309,2
309,302,304,310,2
309,300,303,310,2
309,300,303,309,2
308,302,303,309,2
308,305,304,310,2
308,308,304,310,2
307,312,304,310,2
307,316,304,311,2
306,319,304,312,2
306,322,305,313,2
306,321,305,314,2
306,320,306,314,2
306,318,306,314,2
307,317,306,314,2
307,315,306,314,2
306,312,305,313,2
306,310,305,312,2
306,307,305,311,2
307,303,305,309,2
307,299,306,307,2
308,295,306,305,2
308,292,306,303,2
308,289,306,302,2
308,287,305,301,2
308,285,305,300,2
307,282,305,300,2
307,277,306,300,2
308,272,309,302,2
310,267,312,306,2
312,264,316,312,2
313,263,319,316,2
313,268,319,319,2
311,279,317,319,2
309,294,314,317,2
308,308,310,313,2
305,318,307,307,2
303,326,304,304,2
302,332,302,303,2
302,335,301,302,2
303,334,300,303,2
303,330,299,303,2
303,324,298,303,2
303,317,298,302,2
304,309,298,301,2
304,302,299,302,2
306,295,299,303,2
307,290,300,305,2
309,285,301,307,2
310,280,302,307,2
311,277,304,307,2
311,278,306,307,2
311,283,308,308,2
309,291,309,308,2
307,300,308,308,2
305,310,307,310,2
304,319,307,312,2
304,326,307,313,2
304,329,307,314,2
304,331,308,314,2
304,330,309,312,2
304,328,310,310,2
305,326,310,310,2
305,324,310,310,2
306,321,310,311,2
306,318,310,311,2
305,317,310,312,2
306,317,310,314,2
306,318,310,315,2
307,319,310,316,2
308,319,310,315,2
308,320,308,314,2
307,320,306,313,2
307,320,304,311,2
306,320,303,310,2
306,320,302,308,2
306,318,302,306,2
306,316,302,305,2
306,314,302,305,2
305,313,304,305,2
305,311,305,306,2
306,308,306,306,2
305,304,306,305,2
304,299,304,305,2
304,295,303,306,2
304,290,303,307,2
305,286,303,308,2
305,283,304,309,2
306,280,304,310,2
307,280,305,311,2
308,281,305,312,2
308,285,306,313,2
309,290,307,313,2
309,297,309,314,2
308,303,310,314,2
307,308,310,314,2
305,312,310,313,2
304,313,309,314,2
304,311,307,313,2
303,307,306,312,2
302,301,304,310,2
302,298,303,309,2
302,296,302,307,2
302,296,302,305,2
303,296,301,303,2
303,298,300,302,2
303,304,299,302,2
303,311,299,302,2
303,317,300,303,2
303,320,302,304,2
303,323,305,306,2
304,326,307,307,2
305,329,309,308,2
305,331,310,308,2
305,332,311,308,2
305,332,311,308,2
304,330,310,307,2
304,329,310,305,2
304,326,310,305,2
304,324,311,304,2
304,321,311,304,2
304,319,312,305,2
305,317,312,306,2
306,314,312,308,2
306,310,312,310,2
306,304,311,312,2
307,297,311,314,2
306,294,310,316,2
306,293,310,316,2
307,293,310,316,2
307,294,309,315,2
308,295,308,315,2
307,297,308,314,2
307,299,308,313,2
307,300,308,311,2
307,299,308,310,2
307,295,309,309,2
307,291,308,307,2
306,288,308,306,2
306,289,307,304,2
305,294,307,303,2
304,300,306,302,2
304,306,306,301,2
304,312,306,302,2
305,315,306,303,2
306,317,307,305,2
307,319,307,307,2
308,321,308,310,2
308,323,308,311,2
307,326,307,312,2
306,327,306,312,2
305,329,305,313,2
305,330,305,313,2
305,329,304,314,2
305,325,304,314,2
305,318,304,313,2
305,311,304,313,2
305,303,304,312,2
304,295,304,312,2
304,291,304,310,2
304,290,304,308,2
303,292,302,305,2
303,296,302,304,2
302,301,301,302,2
302,306,301,301,2
301,312,302,300,2
301,317,302,300,2
302,319,302,300,2
302,320,303,301,2
303,319,304,301,2
304,318,304,302,2
305,316,305,301,2
306,314,305,301,2
306,312,306,301,2
307,310,307,302,2
307,307,307,303,2
307,303,307,304,2
307,296,307,305,2
307,288,307,306,2
308,279,307,308,2
310,268,308,309,2
310,257,309,310,2
312,249,309,309,2
312,246,309,308,2
312,250,309,308,2
311,261,309,308,2
310,276,308,308,2
308,293,307,308,2
307,310,306,309,2
306,322,307,309,2
306,325,308,307,2
306,321,310,307,2
307,313,312,307,2
308,304,313,308,2
309,298,314,309,2
308,297,314,309,2
307,302,313,309,2
305,312,312,309,2
304,323,311,309,2
303,329,309,310,2
303,330,308,311,2
303,327,307,311,2
303,324,306,311,2
304,322,306,310,2
304,321,305,307,2
304,322,304,304,2
305,326,305,301,2
305,331,305,300,2
305,335,307,299,2
305,335,308,299,2
305,330,309,299,2
304,321,309,299,2
304,309,307,300,2
304,300,306,302,2
306,293,306,303,2
306,289,307,305,2
307,290,308,307,2
307,297,309,310,2
307,308,309,312,2
307,318,308,314,2
308,326,307,315,2
307,330,306,315,2
307,332,306,313,2
307,330,305,311,2
307,327,305,309,2
307,322,305,307,2
308,316,305,304,2
309,310,306,304,2
309,308,307,305,2
310,309,308,306,2
311,312,309,308,2
311,314,309,308,2
311,316,310,309,2
311,314,310,309,2
311,310,311,309,2
311,305,310,310,2
311,301,310,309,2
310,298,310,309,2
311,298,310,310,2
311,297,309,310,2
311,296,309,310,2
311,292,309,311,2
311,288,309,311,2
311,283,308,312,2
311,279,307,312,2
311,278,307,312,2
309,283,305,311,2
307,291,303,309,2
304,300,301,307,2
302,306,299,304,2
300,311,297,301,2
299,316,297,299,2
299,320,297,297,2
300,322,298,297,2
301,320,301,297,2
302,317,302,297,2
302,313,303,297,2
302,309,303,297,2
302,306,303,297,2
302,304,303,299,2
302,303,304,303,2
302,301,306,306,2
302,297,307,308,2
302,293,308,309,2
302,291,309,310,2
303,291,310,310,2
303,293,311,310,2
303,297,311,309,2
302,302,310,309,2
302,307,310,310,2
303,311,309,310,2
303,314,308,311,2
304,315,308,312,2
305,318,308,313,2
306,321,307,314,2
306,323,307,313,2
307,323,307,312,2
307,320,307,311,2
308,318,306,308,2
308,316,307,306,2
309,314,308,304,2
311,313,310,302,2
311,312,311,301,2
311,311,312,301,2
309,308,310,301,2
307,304,307,301,2
306,301,304,301,2
306,299,303,302,2
305,297,302,304,2
306,296,302,306,2
306,295,302,309,2
307,296,303,311,2
308,298,303,312,2
308,300,304,311,2
307,303,305,310,2
307,303,306,310,2
307,299,307,310,2
306,294,308,310,2
307,288,308,311,2
306,284,309,312,2
306,283,308,313,2
306,288,309,314,2
305,299,308,314,2
304,311,307,313,2
302,321,305,311,2
301,327,303,310,2
301,328,302,309,2
301,323,301,308,2
302,315,301,307,2
303,304,300,306,2
303,296,300,305,2
304,291,299,304,2
304,288,298,305,2
304,288,298,306,2
303,292,298,307,2
302,298,298,308,2
300,305,300,309,2
300,312,302,310,2
301,316,304,313,2
302,319,305,314,2
303,320,306,316,2
303,322,306,316,2
303,323,306,317,2
303,324,306,316,2
304,324,307,316,2
305,321,307,316,2
306,317,307,316,2
306,311,308,314,2
306,305,307,311,2
306,301,307,310,2
306,299,308,310,2
306,299,308,311,2
307,301,309,312,2
308,303,310,314,2
309,303,310,314,2
310,301,309,315,2
310,299,309,315,2
309,300,308,315,2
308,305,308,315,2
307,313,307,315,2
306,320,307,316,2
305,324,308,316,2
305,326,308,316,2
306,325,307,315,2
306,324,306,315,2
307,321,305,314,2
307,318,304,313,2
307,314,304,313,2
308,311,304,312,2
309,308,305,312,2
309,305,305,310,2
308,302,305,309,2
308,300,305,307,2
307,298,306,305,2
307,295,305,304,2
307,292,306,304,2
308,289,306,304,2
308,288,306,305,2
308,288,306,305,2
307,291,306,305,2
307,296,305,306,2
306,300,305,307,2
306,304,305,308,2
305,309,304,307,2
304,312,303,306,2
303,313,302,305,2
301,313,301,304,2
300,311,300,303,2
299,309,299,302,2
299,308,300,302,2
301,311,301,304,2
303,315,303,308,2
305,319,305,313,2
307,322,306,316,2
308,323,307,319,2
307,323,307,320,2
307,323,307,319,2
306,321,306,316,2
305,319,305,314,2
305,317,305,312,2
305,315,306,311,2
306,312,306,310,2
306,306,307,310,2
306,299,308,309,2
306,290,308,309,2
307,281,308,309,2
307,275,309,309,2
307,271,309,310,2
307,271,311,312,2
307,273,313,313,2
307,278,312,312,2
306,285,310,310,2
306,292,308,307,2
305,300,306,305,2
304,306,305,304,2
304,312,304,304,2
303,318,303,303,2
303,323,301,303,2
302,325,299,303,2
302,325,298,303,2
301,323,297,304,2
300,320,297,304,2
300,316,298,303,2
301,312,299,302,2
301,309,300,300,2
301,307,299,300,2
301,307,299,300,2
302,305,299,300,2
301,303,300,300,2
302,301,300,300,2
302,301,302,302,2
304,302,302,304,2
305,303,304,308,2
307,304,305,311,2
307,304,307,314,2
307,303,309,317,2
307,300,310,318,2
307,296,311,320,2
308,291,312,320,2
308,288,311,320,2
307,287,311,319,2
307,289,310,318,2
306,293,309,317,2
305,297,307,315,2
304,302,305,313,2
302,307,304,312,2
301,311,304,312,2
301,314,305,312,2
302,317,305,312,2
302,317,305,312,2
303,318,304,312,2
303,318,305,311,2
303,319,305,310,2
303,319,304,308,2
303,319,304,306,2
302,316,303,304,2
302,311,302,302,2
302,304,301,302,2
302,297,300,301,2
302,289,300,302,2
303,282,299,303,2
303,279,299,304,2
302,283,297,304,2
302,291,296,307,2
302,299,295,310,2
302,306,295,313,2
302,313,296,314,2
303,320,298,314,2
303,329,300,313,2
304,337,302,313,2
305,342,303,314,2
305,345,304,315,2
306,345,305,316,2
307,341,305,316,2
307,336,306,316,2
307,330,306,315,2
306,324,306,315,2
305,319,305,314,2
305,315,305,313,2
305,311,304,313,2
304,307,304,312,2
303,304,303,313,2
303,301,304,313,2
304,297,304,314,2
304,295,304,314,2
305,293,304,314,2
306,293,304,313,2
306,294,303,312,2
305,296,303,311,2
305,297,302,310,2
305,298,302,308,2
305,300,302,307,2
306,303,303,308,2
306,304,303,309,2
306,304,303,310,2
306,303,303,310,2
307,302,303,311,2
307,302,304,311,2
307,304,304,310,2
307,308,304,309,2
306,311,305,308,2
305,314,305,307,2
304,315,305,306,2
303,315,304,305,2
302,314,304,305,2
301,312,304,305,2
300,309,305,305,2
299,308,304,305,2
299,310,304,305,2
298,312,304,305,2
299,313,303,305,2
299,315,303,305,2
300,317,303,306,2
300,318,304,307,2
301,317,305,307,2
302,315,306,308,2
302,311,307,307,2
303,307,308,307,2
303,303,308,307,2
304,300,308,308,2
304,297,308,309,2
304,294,307,309,2
303,289,306,309,2
302,283,304,309,2
301,277,303,309,2
302,275,301,311,2
303,277,301,313,2
305,282,301,313,2
306,289,302,313,2
306,295,302,312,2
307,299,303,311,2
306,299,303,310,2
307,298,302,310,2
307,297,301,309,2
308,297,300,309,2
309,301,300,307,2
308,309,301,305,2
307,321,303,306,2
307,332,304,307,2
306,340,303,308,2
306,343,303,309,2
305,341,302,309,2
304,337,301,309,2
304,333,300,309,2
305,329,301,309,2
305,325,301,309,2
307,322,302,309,2
308,318,304,309,2
308,314,304,308,2
307,311,304,308,2
307,309,305,308,2
307,307,305,308,2
307,304,305,308,2
308,303,306,310,2
310,303,307,312,2
310,304,307,314,2
310,305,306,316,2
309,306,305,317,2
308,307,304,316,2
307,308,304,316,2
306,309,305,315,2
305,308,306,315,2
305,307,306,314,2
304,308,305,313,2
304,308,305,312,2
304,310,304,310,2
304,311,304,308,2
304,312,303,308,2
304,312,303,308,2
305,310,304,309,2
305,307,304,310,2
305,303,305,310,2
306,299,306,310,2
307,296,307,311,2
307,293,308,311,2
308,292,308,312,2
308,290,308,313,2
308,289,306,313,2
307,286,305,313,2
307,283,303,312,2
307,279,303,311,2
307,277,303,311,2
306,275,303,311,2
305,276,303,311,2
304,283,303,311,2
304,294,303,310,2
303,306,303,309,2
303,318,303,308,2
303,327,303,307,2
302,332,302,307,2
302,333,302,307,2
301,331,303,308,2
301,327,303,308,2
302,321,303,309,2
304,315,304,310,2
305,308,304,311,2
306,302,304,311,2
306,297,303,310,2
305,293,302,311,2
305,291,301,311,2
303,291,301,312,2
303,293,301,313,2
302,297,301,312,2
302,300,304,312,2
303,301,306,310,2
302,299,308,309,2
301,297,309,307,2
299,297,309,307,2
299,300,309,307,2
298,305,309,307,2
298,313,308,308,2
297,321,308,310,2
296,328,307,311,2
296,333,307,310,2
296,335,306,308,2
297,336,305,306,2
297,335,304,304,2
297,330,302,301,2
297,325,302,299,2
297,320,302,299,2
297,316,303,300,2
298,313,303,300,2
300,310,304,300,2
301,308,304,299,2
302,306,303,297,2
303,303,303,297,2
303,302,303,298,2
304,301,304,300,2
305,301,304,304,2
307,300,305,308,2
307,298,307,310,2
307,295,307,312,2
307,294,307,312,2
306,296,307,312,2
305,299,306,311,2
304,304,305,310,2
303,309,304,309,2
303,311,303,308,2
304,312,303,306,2
304,312,304,306,2
305,311,306,305,2
306,310,308,305,2
307,310,310,305,2
308,307,313,306,2
308,302,314,307,2
308,295,313,308,2
308,288,310,310,2
308,282,309,310,2
309,277,307,310,2
309,276,307,310,2
310,277,307,310,2
310,282,308,310,2
310,288,308,311,2
309,297,309,312,2
309,304,309,312,2
308,308,309,312,2
307,309,308,310,2
306,307,307,307,2
305,305,306,305,2
305,302,307,304,2
306,298,308,303,2
308,295,309,303,2
309,293,309,303,2
310,294,309,302,2
310,298,309,303,2
310,305,308,304,2
308,312,308,306,2
307,318,307,308,2
306,321,306,309,2
305,324,306,309,2
306,327,306,309,2
306,328,306,308,2
306,325,305,306,2
306,321,304,305,2
305,317,304,305,2
305,314,306,305,2
305,314,308,305,2
305,314,310,306,2
305,314,312,306,2
305,315,312,306,2
306,316,312,306,2
307,316,311,307,2
307,317,310,307,2
306,318,309,308,2
305,320,308,308,2
305,322,307,308,2
304,322,306,309,2
304,321,306,308,2
304,319,305,308,2
304,316,305,306,2
304,314,305,305,2
303,313,305,304,2
303,313,306,305,2
304,313,307,305,2
304,313,308,307,2
305,312,310,308,2
305,311,311,309,2
305,310,311,310,2
305,309,311,311,2
304,307,311,311,2
304,306,310,312,2
303,304,309,313,2
302,301,308,313,2
302,297,306,313,2
302,291,304,310,2
303,284,303,307,2
304,279,302,304,2
304,275,303,302,2
304,274,303,301,2
304,275,304,300,2
304,280,305,300,2
304,288,305,302,2
304,296,306,304,2
304,304,307,307,2
304,309,307,309,2
305,311,309,311,2
305,313,310,313,2
305,313,310,312,2
304,313,310,311,2
304,314,310,310,2
304,315,309,309,2
304,314,307,309,2
305,312,306,310,2
306,309,306,310,2
306,304,305,309,2
306,299,305,308,2
306,294,305,308,2
306,291,306,307,2
307,286,307,308,2
308,280,308,308,2
309,276,309,309,2
310,273,309,310,2
309,272,308,309,2
308,272,306,308,2
307,278,305,307,2
306,288,304,307,2
305,303,303,307,2
305,315,302,308,2
304,323,301,309,2
303,325,300,309,2
304,323,300,308,2
304,318,301,307,2
306,313,302,305,2
307,310,302,303,2
308,309,302,301,2
308,311,300,300,2
307,313,299,299,2
307,316,298,299,2
307,321,299,301,2
307,326,301,303,2
307,328,305,306,2
307,324,308,309,2
307,317,310,311,2
307,307,311,311,2
308,299,311,311,2
308,293,311,309,2
308,292,310,307,2
308,294,310,305,2
307,298,309,304,2
307,301,308,303,2
307,300,308,303,2
308,298,308,303,2
308,296,308,304,2
308,296,309,305,2
308,298,309,307,2
308,303,310,309,2
307,312,310,311,2
306,322,310,313,2
305,331,310,314,2
304,336,309,314,2
303,339,309,313,2
302,339,309,312,2
302,336,309,310,2
302,334,309,308,2
303,331,309,307,2
304,328,309,306,2
304,325,308,306,2
305,322,307,306,2
305,317,306,305,2
305,311,305,305,2
305,303,305,305,2
306,296,305,306,2
308,290,306,307,2
309,287,307,307,2
310,287,307,305,2
310,289,307,304,2
309,295,307,303,2
309,301,306,304,2
310,308,307,307,2
310,314,307,309,2
310,321,307,311,2
310,328,308,311,2
310,333,308,310,2
311,335,308,308,2
310,335,308,305,2
310,333,308,304,2
309,330,308,302,2
308,327,308,301,2
308,324,309,301,2
308,322,309,303,2
308,320,308,303,2
307,318,306,304,2
307,316,304,303,2
307,314,303,303,2
306,313,301,303,2
306,311,300,303,2
305,307,299,303,2
305,302,299,302,2
305,297,299,302,2
304,293,301,302,2
304,291,304,303,2
305,291,307,305,2
306,294,309,307,2
306,299,311,310,2
307,304,312,310,2
307,308,312,311,2
307,310,312,310,2
306,312,311,308,2
306,314,311,307,2
305,315,311,305,2
305,314,311,303,2
305,313,311,301,2
306,311,311,300,2
306,307,311,299,2
305,304,310,298,2
305,303,309,299,2
306,305,307,300,2
308,309,306,301,2
309,312,305,302,2
309,313,304,301,2
308,312,303,300,2
308,308,302,299,2
308,302,302,299,2
308,293,302,299,2
309,284,303,300,2
309,276,304,302,2
310,270,305,306,2
311,269,307,309,2
312,273,308,312,2
312,282,308,315,2
312,294,308,317,2
311,305,308,318,2
310,315,308,319,2
309,321,308,321,2
308,323,308,321,2
307,321,307,322,2
306,315,306,321,2
305,309,306,320,2
305,305,305,320,2
304,304,305,319,2
304,305,305,319,2
305,307,306,320,2
305,309,307,321,2
306,312,307,323,2
307,313,307,323,2
307,312,306,321,2
306,309,305,318,2
306,305,304,315,2
306,302,304,313,2
307,301,304,312,2
307,301,304,312,2
308,303,304,313,2
309,306,305,314,2
309,312,306,316,2
309,318,306,317,2
308,322,305,317,2
307,323,304,317,2
308,322,303,318,2
308,318,302,319,2
309,315,302,320,2
309,311,301,320,2
308,309,300,319,2
307,310,300,318,2
307,312,299,316,2
307,314,299,315,2
306,318,299,314,2
307,319,299,314,2
309,319,300,314,2
310,315,303,315,2
311,308,306,316,2
312,300,309,318,2
313,291,311,320,2
314,283,313,322,2
314,277,313,324,2
314,273,313,323,2
312,275,312,320,2
310,280,310,316,2
308,289,309,312,2
306,299,307,309,2
304,311,305,306,2
303,321,303,304,2
302,329,302,302,2
301,333,301,302,2
301,335,302,303,2
302,335,304,303,2
304,332,306,304,2
306,327,308,306,2
307,319,310,307,2
309,311,311,310,2
310,303,311,312,2
310,296,312,313,2
311,291,313,313,2
311,289,313,313,2
312,291,313,311,2
312,295,313,309,2
312,299,312,306,2
312,299,309,303,2
311,297,306,301,2
310,294,304,300,2
309,292,304,300,2
309,292,304,301,2
310,295,304,302,2
311,303,305,304,2
311,313,304,306,2
311,324,304,309,2
310,332,304,311,2
309,334,304,312,2
309,333,304,312,2
308,329,303,310,2
308,325,303,308,2
308,320,303,306,2
308,314,303,303,2
308,308,303,302,2
308,304,303,300,2
308,302,303,299,2
309,301,303,299,2
308,301,303,300,2
308,301,303,300,2
307,301,302,301,2
307,299,303,303,2
307,298,304,304,2
307,298,306,305,2
307,300,308,306,2
308,301,310,308,2
308,300,311,310,2
309,297,311,314,2
310,295,310,317,2
311,291,310,321,2
311,288,309,324,2
311,287,309,327,2
310,290,309,329,2
309,297,308,328,2
308,305,306,327,2
307,312,305,324,2
306,316,304,321,2
305,318,302,317,2
304,319,301,314,2
303,321,300,311,2
303,322,298,309,2
303,324,298,309,2
304,327,298,309,2
304,328,300,309,2
306,327,303,310,2
306,324,306,310,2
307,319,308,312,2
308,312,310,312,2
308,306,311,313,2
308,300,312,313,2
308,298,312,312,2
308,297,312,311,2
307,299,311,309,2
307,301,310,307,2
307,302,310,306,2
308,300,309,305,2
308,298,309,305,2
309,297,309,306,2
310,298,308,308,2
311,302,308,309,2
310,308,308,309,2
310,316,306,308,2
308,322,306,306,2
306,325,304,303,2
304,325,304,300,2
304,323,305,299,2
304,319,307,298,2
305,316,310,299,2
306,313,313,301,2
306,310,315,303,2
306,309,314,306,2
306,312,313,310,2
307,316,311,312,2
308,319,311,313,2
308,320,310,313,2
307,322,309,313,2
307,322,308,312,2
306,322,308,312,2
305,321,308,311,2
305,319,308,311,2
305,317,308,310,2
305,315,308,310,2
305,313,309,309,2
305,310,308,308,2
305,308,308,307,2
305,306,308,306,2
304,304,308,305,2
304,299,307,304,2
304,292,307,302,2
304,284,306,301,2
304,278,306,301,2
304,274,306,301,2
304,273,305,301,2
304,273,305,301,2
304,278,304,302,2
303,286,304,302,2
304,296,304,302,2
304,304,304,303,2
305,309,304,303,2
305,312,304,303,2
305,314,306,303,2
306,315,306,302,2
306,315,308,302,2
306,314,309,302,2
307,312,310,304,2
307,312,309,304,2
307,314,308,305,2
306,317,307,304,2
305,319,306,304,2
304,319,304,304,2
304,317,304,304,2
303,314,303,304,2
303,309,302,304,2
303,302,301,304,2
303,295,300,303,2
304,290,299,302,2
305,288,299,303,2
306,287,299,303,2
307,287,300,305,2
308,287,303,307,2
310,288,306,309,2
311,290,310,310,2
310,293,313,312,2
310,298,314,313,2
310,305,315,314,2
309,311,315,314,2
308,316,314,314,2
307,318,313,314,2
306,320,313,314,2
306,321,312,316,2
306,323,312,318,2
307,324,312,319,2
307,324,311,321,2
308,323,311,321,2
307,320,311,320,2
307,316,311,318,2
306,311,311,316,2
306,307,311,315,2
306,304,312,314,2
307,302,312,312,2
306,299,312,309,2
305,294,310,305,2
304,288,309,303,2
304,284,308,302,2
304,281,307,302,2
304,282,306,303,2
304,285,306,303,2
304,291,306,302,2
304,299,305,301,2
304,307,303,299,2
303,313,302,298,2
303,318,303,298,2
304,321,304,301,2
306,324,305,304,2
307,325,307,307,2
308,324,308,310,2
309,322,310,312,2
308,319,310,313,2
308,316,310,313,2
308,312,310,313,2
308,311,309,311,2
307,310,308,310,2
307,311,307,309,2
307,312,307,309,2
307,312,307,308,2
307,313,307,308,2
307,314,308,307,2
307,316,307,307,2
307,316,307,307,2
307,314,307,307,2
308,311,307,307,2
309,307,307,307,2
311,302,307,306,2
312,297,308,306,2
314,292,308,305,2
315,288,309,305,2
315,285,308,304,2
315,283,308,305,2
314,281,308,305,2
313,281,306,306,2
311,284,305,306,2
310,288,305,307,2
310,295,305,307,2
309,303,305,308,2
309,310,307,309,2
309,315,308,310,2
309,316,309,311,2
309,315,309,311,2
309,313,310,311,2
309,310,311,311,2
309,306,311,311,2
309,302,310,311,2
308,297,310,311,2
308,293,309,311,2
308,288,308,311,2
308,284,308,310,2
308,281,307,308,2
308,280,306,305,2
307,283,304,302,2
306,290,303,300,2
306,300,302,298,2
306,311,301,295,2
306,320,300,292,2
306,326,298,289,2
306,328,298,287,2
306,329,298,287,2
307,328,299,288,2
307,326,300,292,2
308,324,301,296,2
308,320,302,302,2
309,317,304,307,2
309,314,305,310,2
309,313,306,313,2
309,313,306,314,2
309,313,306,313,2
309,313,305,313,2
309,313,304,312,2
309,311,304,312,2
309,310,303,313,2
310,309,303,313,2
311,308,304,314,2
312,306,303,313,2
312,305,303,312,2
311,303,301,311,2
309,301,300,310,2
307,300,299,308,2
306,298,299,307,2
305,297,299,305,2
306,297,300,304,2
306,301,302,304,2
306,305,302,305,2
307,310,304,307,2
307,314,305,309,2
307,314,305,312,2
308,309,306,313,2
308,300,306,314,2
309,289,308,315,2
310,278,309,315,2
311,270,310,315,2
312,266,311,313,2
312,268,311,312,2
311,274,311,311,2
310,285,310,311,2
309,296,308,311,2
308,305,307,310,2
307,312,306,310,2
306,317,306,310,2
306,323,306,310,2
306,329,306,310,2
305,335,305,310,2
305,338,304,309,2
303,340,302,308,2
302,339,302,308,2
302,337,302,308,2
304,332,302,309,2
305,328,303,310,2
306,324,302,309,2
306,321,302,308,2
305,318,302,305,2
305,313,302,303,2
305,307,303,302,2
304,299,305,304,2
304,291,308,306,2
304,285,311,309,2
305,282,312,311,2
307,280,313,312,2
308,281,313,312,2
308,285,312,310,2
308,292,311,309,2
308,300,311,309,2
308,307,311,308,2
307,313,310,308,2
307,317,310,306,2
306,318,309,304,2
306,319,310,303,2
307,318,311,302,2
308,318,312,302,2
309,318,312,302,2
310,318,311,303,2
309,316,311,303,2
308,315,310,304,2
307,313,310,305,2
305,311,310,305,2
304,309,309,304,2
303,307,308,304,2
302,306,307,303,2
302,303,306,303,2
302,300,306,303,2
303,297,306,301,2
304,293,306,298,2
304,289,305,294,2
304,284,305,289,2
304,278,305,286,2
304,274,305,282,2
304,272,306,281,2
304,272,306,281,2
305,276,307,283,2
306,283,306,287,2
306,292,304,291,2
306,300,303,295,2
306,307,302,299,2
305,314,301,302,2
305,320,301,305,2
306,324,300,309,2
307,325,300,312,2
308,325,301,315,2
308,326,301,316,2
308,327,302,317,2
309,330,303,318,2
309,333,304,318,2
309,334,305,318,2
309,332,306,315,2
309,330,306,312,2
309,326,308,310,2
309,323,309,308,2
309,320,310,306,2
309,317,309,305,2
310,314,309,304,2
309,309,308,302,2
309,302,307,301,2
309,294,306,301,2
309,286,307,303,2
310,279,307,306,2
310,273,308,308,2
311,268,309,309,2
311,268,310,309,2
312,271,310,310,2
313,276,310,312,2
313,280,309,313,2
313,283,309,313,2
313,285,309,313,2
312,287,309,313,2
311,292,310,312,2
310,300,311,311,2
308,310,311,309,2
306,319,310,306,2
304,326,309,304,2
304,332,308,303,2
304,335,308,303,2
304,336,307,303,2
304,334,306,303,2
304,331,305,303,2
304,325,304,302,2
304,320,304,300,2
304,314,304,299,2
305,310,305,300,2
305,307,306,301,2
306,304,307,303,2
306,301,307,304,2
306,300,307,305,2
307,299,307,306,2
307,297,306,305,2
307,297,306,305,2
306,298,305,304,2
306,299,305,303,2
306,300,305,302,2
305,299,305,301,2
305,299,305,299,2
305,299,305,298,2
305,298,305,296,2
305,297,305,295,2
305,295,306,295,2
306,291,307,295,2
307,285,307,295,2
307,277,308,296,2
308,270,309,298,2
309,264,310,301,2
309,260,310,303,2
309,256,311,304,2
309,255,310,304,2
308,259,310,305,2
307,267,310,307,2
306,274,310,309,2
306,283,310,310,2
305,293,310,311,2
305,304,309,309,2
304,315,307,307,2
304,325,304,305,2
304,331,301,303,2
303,335,301,301,2
304,338,300,300,2
304,341,301,300,2
304,342,302,301,2
303,342,303,302,2
303,341,303,304,2
303,336,304,305,2
304,330,304,307,2
305,324,304,308,2
305,321,305,309,2
305,320,306,310,2
305,320,306,311,2
305,320,306,313,2
306,321,307,315,2
306,321,307,317,2
306,323,307,318,2
306,322,306,318,2
306,321,306,318,2
305,318,306,319,2
305,315,306,318,2
305,313,306,318,2
304,311,306,317,2
305,311,305,317,2
305,311,304,317,2
305,310,303,316,2
305,311,304,317,2
306,312,304,317,2
306,311,304,316,2
306,308,304,314,2
305,305,303,313,2
304,300,302,310,2
304,296,303,308,2
304,292,304,306,2
305,288,306,303,2
306,285,310,299,2
307,281,313,296,2
307,279,315,295,2
307,276,316,296,2
306,275,315,298,2
306,275,313,302,2
306,276,312,306,2
306,277,310,308,2
306,277,309,308,2
306,278,308,307,2
305,281,307,304,2
304,286,306,303,2
304,293,305,302,2
304,302,305,303,2
305,313,306,304,2
304,323,306,306,2
303,332,306,307,2
302,338,306,308,2
302,343,306,308,2
302,346,307,309,2
303,348,306,308,2
303,347,305,307,2
302,346,305,306,2
302,343,304,304,2
303,339,304,303,2
304,334,304,302,2
305,328,304,301,2
305,323,305,300,2
306,318,305,300,2
307,313,305,302,2
308,310,306,304,2
308,309,306,305,2
307,309,306,306,2
307,310,305,307,2
306,312,304,308,2
306,312,303,310,2
305,312,303,312,2
305,312,303,313,2
306,312,303,314,2
306,311,303,314,2
307,311,302,313,2
307,308,302,310,2
308,303,300,307,2
308,296,300,303,2
307,290,299,301,2
307,286,298,301,2
306,284,298,301,2
305,283,299,301,2
305,285,300,302,2
306,291,301,304,2
307,296,303,306,2
307,301,304,308,2
308,304,304,310,2
308,307,304,311,2
307,309,304,312,2
306,311,303,314,2
305,313,303,314,2
305,314,303,314,2
305,317,302,313,2
305,319,302,312,2
305,319,302,310,2
305,316,302,308,2
305,308,303,307,2
305,299,305,305,2
306,290,306,304,2
307,284,307,304,2
307,281,307,304,2
307,283,305,305,2
307,291,303,307,2
307,303,301,308,2
305,316,298,308,2
304,329,296,308,2
302,338,296,308,2
302,343,296,308,2
302,344,297,308,2
302,342,299,308,2
302,339,302,307,2
302,335,303,306,2
301,330,304,304,2
300,325,305,302,2
300,320,306,301,2
301,315,306,301,2
302,309,307,301,2
303,301,307,304,2
304,294,307,305,2
304,289,307,308,2
304,287,306,308,2
304,286,306,309,2
304,287,307,310,2
304,290,307,310,2
303,298,307,310,2
302,306,305,310,2
301,312,303,308,2
300,316,301,307,2
299,318,300,306,2
298,320,298,305,2
298,320,297,302,2
298,321,296,300,2
299,321,297,298,2
301,320,298,298,2
302,320,299,299,2
304,319,300,300,2
306,319,301,302,2
308,317,302,303,2
308,314,303,303,2
308,310,304,303,2
308,306,304,302,2
307,303,305,302,2
308,301,306,303,2
308,301,307,304,2
309,302,307,304,2
308,304,307,303,2
306,306,306,303,2
305,307,306,303,2
304,309,305,303,2
304,311,304,303,2
303,313,303,302,2
303,313,302,302,2
303,312,301,301,2
304,310,301,302,2
305,308,301,302,2
305,304,302,301,2
305,299,304,300,2
306,294,305,299,2
306,289,306,297,2
305,286,307,296,2
305,283,307,296,2
305,283,307,296,2
306,286,307,296,2
307,290,307,297,2
308,295,308,299,2
309,299,309,300,2
310,301,310,302,2
310,304,310,302,2
309,307,310,303,2
308,308,309,303,2
307,308,308,302,2
307,306,307,302,2
306,303,306,302,2
307,301,306,302,2
307,300,306,304,2
308,300,306,306,2
307,301,306,309,2
308,300,307,312,2
308,302,309,315,2
308,304,310,318,2
307,304,310,320,2
307,302,310,321,2
307,300,310,321,2
307,299,309,321,2
307,298,309,319,2
307,298,309,316,2
307,300,309,314,2
308,304,309,312,2
308,308,308,311,2
308,311,306,309,2
307,312,304,309,2
306,311,302,308,2
305,310,302,308,2
304,310,303,308,2
304,312,304,309,2
304,313,307,310,2
305,313,308,310,2
305,309,307,309,2
304,304,306,308,2
304,299,305,307,2
304,295,304,306,2
303,293,304,305,2
303,292,304,305,2
302,292,304,304,2
301,293,304,303,2
300,297,304,302,2
299,302,304,302,2
299,308,304,303,2
299,314,305,305,2
299,319,305,307,2
300,323,306,309,2
300,326,306,310,2
301,327,306,310,2
302,327,307,310,2
303,326,308,310,2
304,324,308,310,2
304,323,307,311,2
304,320,307,310,2
303,317,305,310,2
303,315,304,310,2
303,312,304,309,2
303,309,303,308,2
304,305,303,307,2
305,302,303,305,2
305,298,303,305,2
306,294,303,305,2
307,289,303,306,2
307,284,304,307,2
306,280,304,307,2
305,278,304,306,2
304,277,303,306,2
304,280,303,306,2
304,288,303,307,2
305,298,303,309,2
305,306,302,310,2
305,310,302,311,2
306,309,302,311,2
306,306,302,310,2
306,304,303,309,2
305,304,304,309,2
305,306,305,308,2
305,310,305,308,2
305,315,305,308,2
304,319,304,308,2
303,320,304,307,2
302,318,304,306,2
302,315,304,305,2
302,312,304,304,2
302,311,306,303,2
302,310,307,302,2
301,310,308,300,2
301,308,308,300,2
301,307,307,299,2
301,305,306,298,2
301,305,306,297,2
300,305,305,295,2
299,307,305,293,2
298,309,304,293,2
297,311,304,295,2
297,313,305,297,2
298,314,306,301,2
299,315,307,305,2
300,315,307,309,2
301,314,308,312,2
301,311,308,313,2
302,310,308,313,2
302,309,308,314,2
303,306,309,316,2
305,303,310,318,2
306,299,310,320,2
308,295,311,321,2
308,291,312,321,2
309,288,313,321,2
308,286,313,319,2
307,288,312,318,2
305,294,311,317,2
304,302,309,314,2
301,310,307,311,2
299,317,305,308,2
299,319,305,306,2
299,319,306,304,2
300,317,307,303,2
301,315,309,304,2
303,314,311,306,2
304,311,312,307,2
305,306,312,309,2
305,302,312,309,2
305,298,311,309,2
305,296,311,308,2
304,298,310,307,2
303,302,309,306,2
303,308,308,305,2
302,316,307,303,2
302,322,307,303,2
302,324,307,302,2
303,321,307,302,2
304,315,307,301,2
304,308,308,300,2
305,302,309,301,2
307,300,310,302,2
308,300,310,303,2
308,303,311,305,2
308,308,310,307,2
308,314,309,310,2
307,320,309,312,2
306,323,309,313,2
306,323,308,314,2
306,321,308,314,2
306,316,307,314,2
307,312,307,313,2
308,307,307,312,2
308,302,306,311,2
309,300,306,310,2
310,299,306,310,2
310,300,305,311,2
310,302,306,312,2
309,305,306,313,2
309,307,306,313,2
308,310,307,312,2
308,311,307,310,2
307,313,308,308,2
307,313,308,306,2
306,314,309,305,2
306,315,309,304,2
305,315,309,303,2
305,315,308,301,2
305,314,308,301,2
305,314,307,300,2
305,314,306,300,2
305,312,305,299,2
304,309,304,299,2
304,305,302,298,2
304,300,300,298,2
304,294,299,299,2
304,288,298,300,2
305,284,298,302,2
305,281,299,304,2
306,280,300,306,2
307,282,302,308,2
307,287,305,311,2
307,295,306,314,2
307,302,307,316,2
306,306,309,316,2
306,306,310,315,2
306,302,310,313,2
306,296,311,312,2
307,289,311,310,2
307,281,310,307,2
308,276,310,304,2
309,275,310,303,2
310,277,309,304,2
310,281,309,305,2
310,286,308,307,2
308,293,307,308,2
307,301,306,309,2
306,308,306,309,2
306,314,306,309,2
306,318,306,308,2
307,319,305,307,2
308,318,305,306,2
308,317,304,305,2
308,314,304,304,2
307,314,305,303,2
306,317,305,303,2
306,323,306,303,2
306,327,307,303,2
306,329,309,304,2
306,330,311,304,2
307,328,312,304,2
307,325,312,304,2
307,322,311,305,2
307,321,309,306,2
307,319,307,306,2
307,318,306,307,2
307,317,305,307,2
307,315,304,307,2
307,313,304,307,2
307,310,303,306,2
308,305,303,307,2
309,300,304,309,2
311,293,304,312,2
313,286,305,313,2
314,279,306,314,2
314,276,307,313,2
314,276,307,313,2
314,275,308,312,2
315,277,308,311,2
314,280,308,312,2
314,284,307,313,2
313,288,307,315,2
312,294,306,316,2
312,299,305,317,2
310,306,304,316,2
308,315,302,315,2
306,324,301,312,2
305,332,299,309,2
304,337,297,306,2
303,338,296,304,2
302,336,297,302,2
302,332,298,300,2
302,326,301,299,2
303,320,304,298,2
304,313,307,299,2
306,306,310,299,2
308,300,313,301,2
309,295,315,303,2
311,292,316,306,2
312,289,317,309,2
312,289,316,310,2
311,291,315,310,2
310,293,314,308,2
308,295,313,306,2
306,294,313,304,2
305,294,312,302,2
304,295,312,302,2
304,297,311,302,2
304,299,310,301,2
304,302,309,301,2
303,306,308,301,2
304,310,308,302,2
304,314,308,303,2
305,318,308,305,2
305,321,309,306,2
306,323,311,308,2
306,323,311,311,2
307,322,312,312,2
307,323,312,314,2
308,324,313,314,2
309,326,313,314,2
310,327,313,314,2
311,327,313,313,2
312,325,314,313,2
312,323,314,312,2
311,321,314,312,2
310,319,315,311,2
310,315,315,311,2
309,311,314,309,2
309,307,314,308,2
309,303,313,307,2
309,300,312,307,2
310,297,312,306,2
309,294,311,306,2
309,293,311,305,2
309,292,310,305,2
308,292,309,303,2
307,292,308,302,2
307,295,307,301,2
307,299,307,302,2
308,304,307,304,2
308,306,308,306,2
309,305,309,307,2
311,302,310,308,2
312,297,311,307,2
313,292,312,306,2
314,289,313,305,2
314,288,315,305,2
314,290,315,304,2
313,295,314,304,2
312,301,311,306,2
311,307,310,308,2
310,313,308,310,2
309,316,308,312,2
309,316,308,314,2
309,313,308,315,2
309,308,308,315,2
309,301,308,314,2
308,295,309,314,2
309,290,309,313,2
309,287,309,312,2
309,287,309,311,2
309,290,309,309,2
309,292,309,309,2
309,296,309,308,2
309,300,310,307,2
309,303,310,307,2
308,307,310,306,2
307,312,310,305,2
307,316,308,304,2
306,318,306,303,2
305,319,304,301,2
303,319,301,298,2
301,319,300,297,2
300,319,299,297,2
300,320,299,298,2
300,320,299,300,2
300,318,300,302,2
301,314,302,302,2
303,309,305,302,2
305,305,309,303,2
307,301,312,304,2
309,300,314,306,2
311,301,316,308,2
311,304,316,310,2
311,306,316,312,2
311,310,315,313,2
310,312,313,314,2
309,313,312,312,2
308,312,310,310,2
307,312,309,308,2
306,312,308,307,2
306,312,308,307,2
306,313,308,306,2
305,314,308,306,2
304,316,309,305,2
304,316,309,305,2
305,317,309,304,2
306,316,309,304,2
307,314,311,306,2
307,311,312,308,2
308,308,313,310,2
309,304,313,313,2
309,302,314,316,2
311,300,314,317,2
311,297,314,317,2
311,293,313,315,2
310,286,313,313,2
310,278,314,311,2
309,272,314,311,2
310,271,314,312,2
310,274,314,313,2
309,280,313,312,2
309,290,312,311,2
307,303,310,310,2
306,316,309,310,2
306,326,308,310,2
306,332,307,311,2
306,335,307,310,2
306,335,306,309,2
306,333,306,309,2
305,329,306,307,2
304,325,306,306,2
302,321,306,305,2
301,318,306,304,2
301,315,306,302,2
301,311,307,302,2
303,305,308,303,2
304,298,310,305,2
306,292,312,306,2
308,287,313,308,2
309,285,314,310,2
309,286,313,311,2
308,291,311,311,2
307,297,308,312,2
306,304,306,313,2
305,309,304,313,2
305,311,303,313,2
305,313,303,313,2
304,315,304,313,2
304,316,306,313,2
304,316,308,312,2
304,316,311,312,2
304,316,311,313,2
305,316,311,313,2
306,315,311,313,2
306,314,311,312,2
306,313,310,311,2
306,314,310,309,2
305,316,308,308,2
305,318,307,307,2
304,318,306,305,2
304,316,306,305,2
303,312,306,304,2
302,308,308,305,2
302,305,309,305,2
302,300,309,306,2
302,293,309,307,2
303,285,309,307,2
304,275,308,307,2
304,267,307,307,2
305,262,307,307,2
305,262,306,307,2
305,267,305,305,2
304,279,304,304,2
303,293,304,303,2
302,305,304,303,2
301,315,303,303,2
300,323,302,303,2
299,329,302,303,2
299,333,303,305,2
300,336,304,306,2
301,336,305,307,2
303,335,305,308,2
304,331,306,307,2
305,325,306,307,2
305,318,305,306,2
306,308,305,305,2
306,298,306,306,2
306,289,307,306,2
307,282,309,307,2
307,280,310,308,2
306,284,311,309,2
306,292,311,309,2
305,302,311,310,2
304,312,311,311,2
303,321,310,312,2
303,327,310,313,2
302,329,308,312,2
300,329,307,311,2
298,327,305,309,2
297,325,304,309,2
297,324,303,310,2
297,323,303,312,2
299,321,303,313,2
300,318,302,314,2
300,316,302,314,2
300,314,302,313,2
300,312,302,312,2
300,312,302,311,2
301,312,302,311,2
302,313,302,312,2
303,312,303,313,2
304,312,303,314,2
305,311,304,315,2
305,311,304,315,2
306,311,304,316,2
307,313,304,317,2
307,314,304,317,2
306,316,304,318,2
306,317,303,317,2
305,315,302,318,2
304,314,302,318,2
304,312,303,319,2
304,312,304,319,2
305,311,307,319,2
305,310,309,318,2
305,309,311,315,2
305,309,311,313,2
306,310,311,312,2
306,311,310,311,2
306,312,309,311,2
305,311,308,310,2
305,310,308,308,2
304,308,308,307,2
305,305,308,307,2
305,304,309,307,2
305,303,310,308,2
305,302,310,307,2
306,301,310,306,2
306,300,309,304,2
306,299,307,304,2
306,299,306,304,2
306,297,304,304,2
306,294,304,304,2
306,290,303,305,2
306,288,304,306,2
307,286,304,308,2
308,285,305,310,2
308,285,306,311,2
309,287,306,311,2
308,290,306,312,2
307,292,306,313,2
307,290,306,315,2
306,286,305,317,2
306,281,304,316,2
306,279,304,315,2
307,278,303,314,2
306,283,303,312,2
306,293,304,311,2
306,304,305,309,2
305,315,306,308,2
304,323,305,307,2
303,325,305,306,2
303,321,304,306,2
303,315,303,306,2
304,307,303,307,2
305,299,304,307,2
306,292,304,307,2
306,288,305,308,2
307,287,306,309,2
307,291,307,311,2
306,299,306,312,2
305,309,306,312,2
304,318,304,312,2
303,323,303,312,2
303,325,302,311,2
302,324,301,311,2
302,322,300,309,2
301,320,300,307,2
301,318,301,305,2
301,316,301,304,2
302,314,302,302,2
303,312,303,301,2
303,310,304,300,2
303,309,304,300,2
303,308,304,300,2
303,306,304,300,2
305,304,304,302,2
306,301,304,303,2
307,298,304,305,2
307,295,304,305,2
307,293,303,305,2
307,293,303,305,2
307,295,302,305,2
307,298,301,305,2
306,300,301,305,2
306,302,300,304,2
305,304,300,304,2
306,304,301,306,2
307,302,303,307,2
308,298,305,310,2
308,293,307,312,2
308,289,308,313,2
308,287,308,313,2
308,288,307,312,2
308,289,306,311,2
308,292,306,311,2
307,300,306,311,2
307,307,306,311,2
306,313,306,311,2
306,317,306,311,2
305,321,306,311,2
305,322,305,309,2
305,321,305,308,2
305,320,306,305,2
305,317,305,304,2
305,315,306,304,2
304,311,305,305,2
304,306,304,306,2
304,299,304,308,2
304,293,304,309,2
304,288,305,310,2
304,286,305,310,2
305,288,306,310,2
305,292,306,309,2
305,297,306,308,2
304,301,306,307,2
304,304,306,307,2
303,306,306,306,2
303,306,305,305,2
303,304,305,306,2
303,302,306,307,2
302,301,307,308,2
302,300,308,310,2
302,302,310,311,2
302,304,311,311,2
302,306,312,311,2
302,309,311,311,2
302,312,309,310,2
302,315,309,309,2
303,316,308,308,2
303,314,309,308,2
304,311,309,309,2
303,308,308,309,2
304,304,307,310,2
305,303,306,312,2
305,302,306,313,2
304,304,306,313,2
303,304,306,313,2
302,302,306,313,2
302,300,305,312,2
303,296,305,310,2
304,292,304,307,2
305,287,304,305,2
305,285,304,303,2
304,288,304,302,2
304,294,304,303,2
304,299,305,305,2
304,302,306,306,2
304,303,306,307,2
304,305,305,309,2
304,308,305,311,2
305,310,304,312,2
305,315,303,312,2
305,320,303,312,2
305,325,302,310,2
305,328,302,309,2
305,329,302,308,2
305,329,302,307,2
304,327,302,307,2
304,325,302,308,2
305,322,303,309,2
305,318,304,309,2
306,313,306,309,2
307,310,308,310,2
307,307,310,312,2
307,305,311,313,2
307,303,311,314,2
307,303,312,314,2
307,304,311,313,2
307,305,310,312,2
307,305,309,311,2
307,306,309,310,2
308,308,309,310,2
308,310,309,309,2
309,310,308,308,2
309,309,308,307,2
310,307,308,307,2
309,305,308,306,2
309,303,308,307,2
308,302,309,308,2
307,302,310,308,2
307,304,311,309,2
306,309,312,311,2
306,312,312,311,2
306,313,313,312,2
306,312,313,310,2
306,309,313,308,2
307,305,312,307,2
308,300,312,305,2
309,295,311,304,2
310,291,311,303,2
311,288,310,303,2
311,287,310,303,2
311,286,309,304,2
311,289,309,306,2
310,294,308,308,2
309,301,307,311,2
308,308,306,312,2
308,317,306,313,2
308,326,306,313,2
308,332,305,312,2
308,335,305,312,2
309,335,306,311,2
310,334,308,312,2
311,331,309,311,2
311,327,310,311,2
311,323,311,310,2
310,320,311,309,2
309,318,310,308,2
308,316,310,308,2
307,314,309,307,2
306,312,307,308,2
306,309,307,308,2
307,306,307,309,2
307,304,309,310,2
307,303,311,311,2
308,303,312,312,2
309,304,313,313,2
309,304,313,313,2
308,304,312,312,2
307,303,310,311,2
306,304,307,310,2
305,306,305,309,2
304,308,303,308,2
303,307,302,307,2
303,304,301,306,2
303,297,301,306,2
304,289,301,305,2
305,279,300,304,2
306,271,300,305,2
307,267,301,307,2
307,267,302,309,2
307,274,305,311,2
307,285,307,314,2
307,296,309,317,2
306,306,309,318,2
305,311,309,318,2
304,313,308,317,2
303,311,307,315,2
302,308,307,313,2
302,307,306,313,2
302,308,306,313,2
302,311,306,313,2
302,313,306,313,2
302,316,306,313,2
302,319,305,312,2
301,322,305,311,2
301,324,305,309,2
302,322,304,308,2
302,318,304,306,2
303,312,303,306,2
303,304,303,307,2
303,296,304,309,2
304,289,305,310,2
305,283,306,312,2
306,280,307,314,2
306,281,308,315,2
306,286,307,317,2
305,294,307,318,2
305,303,307,318,2
304,312,307,316,2
305,319,307,314,2
305,323,308,312,2
306,325,308,310,2
306,324,308,310,2
306,323,307,311,2
306,321,306,312,2
306,319,305,312,2
305,318,304,312,2
304,318,304,311,2
304,320,305,310,2
304,321,305,308,2
303,320,306,306,2
303,317,306,305,2
302,313,306,304,2
302,309,306,305,2
301,305,306,306,2
302,303,307,307,2
302,300,308,308,2
302,298,308,308,2
302,296,308,307,2
302,294,308,306,2
302,292,307,304,2
302,290,306,303,2
302,290,305,301,2
302,292,305,300,2
303,297,305,300,2
304,302,306,301,2
304,306,307,303,2
304,311,306,304,2
303,314,305,305,2
302,315,304,306,2
302,316,304,308,2
302,317,304,310,2
303,315,304,312,2
304,312,305,312,2
305,309,305,311,2
305,307,305,310,2
305,305,305,309,2
305,306,305,309,2
304,307,304,308,2
303,310,304,308,2
303,312,302,306,2
302,312,301,304,2
301,310,301,302,2
300,307,302,299,2
301,304,304,298,2
302,300,306,298,2
304,294,308,300,2
306,287,308,303,2
307,283,306,305,2
308,282,304,305,2
308,285,302,304,2
307,291,300,301,2
305,303,300,297,2
303,315,300,296,2
302,326,300,296,2
301,334,300,296,2
300,338,300,296,2
300,340,300,295,2
299,338,300,294,2
299,336,300,293,2
299,333,300,293,2
299,331,299,294,2
300,328,299,294,2
300,324,299,293,2
300,319,298,294,2
301,313,298,294,2
301,307,298,295,2
301,303,298,298,2
303,301,299,302,2
304,300,300,305,2
306,302,302,309,2
307,307,303,312,2
308,314,305,314,2
309,319,306,315,2
309,321,307,314,2
309,320,308,313,2
310,317,308,311,2
310,313,309,311,2
311,309,309,310,2
310,306,309,310,2
310,303,309,308,2
309,301,308,307,2
310,300,308,305,2
310,299,307,305,2
312,299,306,304,2
312,297,306,304,2
312,294,305,304,2
311,291,304,304,2
311,289,304,304,2
309,288,304,304,2
309,290,304,304,2
308,292,304,304,2
309,296,304,304,2
308,301,304,303,2
307,306,303,302,2
307,308,304,302,2
308,306,304,302,2
308,300,304,302,2
309,293,304,303,2
309,287,304,302,2
309,285,304,301,2
309,286,304,301,2
310,290,304,300,2
309,297,304,300,2
309,305,304,300,2
308,314,304,301,2
307,319,304,300,2
306,320,304,299,2
305,317,304,298,2
305,312,303,296,2
304,307,303,295,2
305,303,303,295,2
305,302,304,297,2
306,304,305,300,2
307,309,306,301,2
308,314,306,302,2
308,317,306,302,2
308,319,304,300,2
307,318,302,299,2
306,315,299,296,2
305,314,298,294,2
305,315,297,293,2
305,318,297,295,2
306,321,298,298,2
308,323,298,301,2
310,324,298,304,2
311,325,298,305,2
311,325,298,304,2
309,323,297,303,2
308,320,298,301,2
306,317,300,300,2
305,313,303,299,2
305,309,305,299,2
305,304,307,300,2
306,298,308,300,2
307,291,309,300,2
308,284,309,300,2
310,277,310,302,2
310,274,310,304,2
310,274,310,305,2
311,280,310,305,2
311,291,310,305,2
311,302,308,303,2
310,309,307,303,2
310,310,307,302,2
311,306,306,302,2
311,301,307,301,2
311,296,307,301,2
311,295,307,302,2
311,298,308,304,2
311,303,307,306,2
310,309,305,307,2
309,316,303,307,2
307,321,302,306,2
306,325,301,305,2
306,326,301,305,2
306,326,302,304,2
306,327,302,304,2
307,325,301,304,2
308,321,301,304,2
309,316,301,302,2
310,309,301,301,2
311,302,303,301,2
311,298,304,301,2
311,298,305,303,2
312,300,306,305,2
312,304,306,306,2
311,307,306,306,2
309,309,305,304,2
308,309,303,303,2
307,311,303,301,2
308,312,303,300,2
308,313,303,299,2
308,316,303,299,2
308,319,304,300,2
309,320,305,301,2
309,321,305,302,2
309,322,306,302,2
309,322,306,301,2
308,322,306,301,2
308,322,306,301,2
307,323,305,301,2
306,325,303,301,2
306,326,303,300,2
307,327,303,300,2
308,325,304,299,2
308,323,304,298,2
308,320,304,296,2
308,317,302,295,2
308,314,300,293,2
308,312,297,292,2
308,309,296,292,2
307,308,296,293,2
308,309,296,294,2
308,309,298,296,2
309,308,300,297,2
309,308,303,299,2
309,309,305,300,2
309,310,306,301,2
308,311,307,301,2
308,311,307,302,2
308,310,308,302,2
308,309,308,303,2
307,308,309,304,2
308,306,309,306,2
308,304,309,307,2
308,300,309,308,2
307,294,310,310,2
307,285,309,312,2
306,275,309,314,2
307,265,308,315,2
307,256,308,315,2
306,249,307,314,2
305,247,306,310,2
303,251,304,306,2
302,263,303,303,2
301,281,303,300,2
300,301,303,299,2
299,316,302,299,2
299,326,302,299,2
299,331,302,300,2
299,333,301,300,2
297,333,300,299,2
296,332,298,299,2
296,331,297,298,2
297,328,298,298,2
298,325,299,299,2
300,321,300,299,2
301,318,302,300,2
303,314,303,302,2
304,311,305,304,2
304,309,306,306,2
304,309,307,308,2
304,311,307,310,2
304,314,308,311,2
304,316,307,312,2
304,317,308,312,2
305,318,308,314,2
306,319,309,315,2
307,318,310,315,2
306,314,309,315,2
306,309,308,313,2
306,303,308,313,2
306,298,307,312,2
306,295,306,312,2
306,295,305,311,2
307,295,305,311,2
309,295,305,310,2
310,296,305,310,2
311,299,306,309,2
311,304,305,309,2
311,312,306,309,2
311,319,306,309,2
311,324,307,308,2
311,328,307,307,2
311,330,307,306,2
311,330,307,306,2
310,329,307,307,2
310,328,306,307,2
308,327,305,307,2
308,325,304,306,2
307,321,304,305,2
307,315,304,304,2
307,310,304,303,2
307,304,305,301,2
308,299,305,300,2
308,294,305,298,2
308,292,304,297,2
308,294,303,296,2
309,299,303,296,2
310,306,303,297,2
311,312,304,300,2
313,317,306,303,2
314,319,307,305,2
314,320,307,306,2
314,319,307,307,2
313,316,306,306,2
311,312,306,305,2
310,308,307,304,2
310,305,308,304,2
310,303,310,304,2
310,301,312,305,2
310,299,313,306,2
310,297,313,306,2
310,293,313,305,2
309,290,312,305,2
309,289,312,305,2
309,292,311,307,2
309,298,310,309,2
309,304,309,310,2
308,307,308,311,2
307,308,308,310,2
306,309,307,308,2
305,309,307,306,2
305,309,306,305,2
306,308,306,304,2
306,308,306,304,2
305,309,305,305,2
305,312,304,305,2
303,314,304,306,2
302,316,304,306,2
301,316,304,308,2
301,316,305,310,2
302,313,305,311,2
303,310,306,312,2
303,308,307,312,2
303,307,307,311,2
302,305,307,309,2
300,304,306,306,2
299,302,306,303,2
298,301,306,301,2
298,302,306,301,2
298,303,308,301,2
299,304,309,303,2
300,303,310,303,2
301,298,310,303,2
301,292,309,303,2
302,285,308,304,2
303,276,308,305,2
304,268,308,306,2
305,264,307,306,2
305,264,307,307,2
305,270,307,307,2
306,281,308,309,2
306,296,309,310,2
305,309,309,312,2
304,319,309,313,2
303,324,309,315,2
302,325,310,316,2
302,323,310,318,2
301,320,310,320,2
301,320,310,320,2
301,321,310,321,2
301,324,310,321,2
300,325,310,321,2
299,326,310,320,2
300,325,310,319,2
300,322,311,317,2
300,319,310,314,2
300,315,309,313,2
302,311,308,312,2
303,307,307,312,2
303,304,305,312,2
304,301,304,313,2
305,300,304,316,2
306,302,304,319,2
307,303,305,321,2
309,305,306,323,2
310,306,308,323,2
309,306,309,322,2
307,306,310,319,2
305,306,310,316,2
303,307,310,315,2
302,310,309,315,2
301,312,310,315,2
301,312,310,315,2
301,311,310,315,2
302,309,310,315,2
303,305,310,316,2
304,298,311,317,2
305,289,311,317,2
306,279,311,317,2
306,271,312,317,2
307,267,311,316,2
307,269,311,315,2
306,278,310,315,2
304,289,309,314,2
303,298,307,313,2
302,301,307,311,2
301,299,307,309,2
301,295,308,306,2
301,292,308,305,2
301,293,309,305,2
301,297,309,305,2
301,304,309,306,2
300,314,307,306,2
299,324,305,307,2
298,330,304,308,2
298,334,303,309,2
298,335,304,311,2
300,334,305,312,2
301,332,307,312,2
302,331,309,313,2
303,328,310,313,2
304,324,310,313,2
304,319,310,312,2
304,315,309,310,2
303,312,308,309,2
303,311,307,309,2
303,311,307,310,2
302,312,307,311,2
302,314,307,311,2
303,314,307,311,2
303,313,307,310,2
303,311,307,310,2
303,309,308,310,2
303,307,308,311,2
303,305,308,313,2
302,304,307,314,2
301,303,306,314,2
300,303,306,314,2
300,304,306,314,2
300,306,306,314,2
301,308,306,314,2
301,310,307,314,2
300,311,308,315,2
300,310,308,315,2
301,307,308,315,2
301,304,309,316,2
301,300,309,316,2
302,298,309,316,2
302,296,310,316,2
303,296,310,316,2
303,297,311,316,2
303,298,311,316,2
302,298,311,315,2
303,296,310,315,2
303,293,309,314,2
303,290,308,312,2
303,287,307,309,2
302,285,305,307,2
301,285,304,305,2
301,288,304,305,2
302,292,303,305,2
302,298,302,306,2
303,306,302,307,2
303,314,301,307,2
303,320,300,307,2
303,323,300,306,2
302,323,300,306,2
301,317,300,306,2
301,306,302,307,2
302,293,304,307,2
303,278,307,307,2
303,267,310,307,2
304,262,313,307,2
304,264,314,307,2
303,275,314,307,2
302,291,313,307,2
301,307,313,308,2
300,319,311,308,2
299,324,309,308,2
299,326,308,307,2
300,325,306,307,2
300,323,306,308,2
301,321,306,308,2
302,320,307,310,2
303,320,306,312,2
304,321,306,313,2
304,321,305,313,2
304,320,304,313,2
303,320,303,310,2
303,321,302,308,2
303,323,302,306,2
302,324,302,305,2
302,325,303,304,2
301,324,303,303,2
301,324,303,303,2
302,324,303,304,2
303,324,304,308,2
304,324,305,312,2
305,323,307,315,2
306,320,308,316,2
306,316,308,317,2
306,310,308,315,2
306,304,307,312,2
306,298,307,309,2
306,295,306,307,2
306,293,306,306,2
306,294,305,305,2
306,298,305,304,2
305,302,304,303,2
305,306,304,303,2
305,309,304,302,2
305,312,306,302,2
305,313,307,301,2
305,313,308,300,2
305,313,309,300,2
305,313,309,301,2
305,311,309,301,2
305,311,309,302,2
305,310,308,303,2
306,308,307,303,2
306,305,306,303,2
306,303,306,303,2
306,300,306,303,2
306,297,305,302,2
306,295,305,301,2
307,293,306,301,2
307,289,306,302,2
309,283,307,303,2
311,275,308,304,2
312,268,309,304,2
312,265,308,304,2
311,267,307,304,2
310,273,305,302,2
308,282,304,302,2
307,293,303,300,2
306,305,303,300,2
305,316,302,300,2
304,323,302,301,2
305,326,302,302,2
306,328,302,303,2
306,329,301,302,2
306,330,299,302,2
305,330,298,300,2
305,328,297,299,2
305,323,298,298,2
307,318,301,298,2
308,312,304,299,2
309,306,306,301,2
310,303,308,303,2
311,301,309,307,2
312,301,309,310,2
313,303,310,312,2
314,306,310,313,2
314,309,310,314,2
314,312,308,314,2
313,316,307,314,2
312,319,306,314,2
312,320,305,315,2
313,320,306,315,2
313,320,306,315,2
313,319,306,316,2
313,319,306,314,2
313,317,306,311,2
312,315,306,307,2
311,312,306,304,2
312,308,307,302,2
313,305,307,300,2
313,301,308,299,2
313,296,308,296,2
311,292,308,294,2
310,288,308,292,2
309,285,308,291,2
308,282,307,290,2
306,280,306,290,2
305,279,304,293,2
305,278,304,298,2
305,278,305,303,2
306,281,306,307,2
308,287,308,311,2
309,296,309,314,2
309,306,310,315,2
309,317,310,317,2
309,324,310,318,2
310,326,311,319,2
310,325,311,319,2
311,321,312,318,2
313,314,312,317,2
314,302,313,315,2
315,289,313,314,2
315,277,313,313,2
316,267,312,312,2
315,261,310,311,2
314,263,309,311,2
312,275,308,311,2
310,294,307,310,2
307,315,306,309,2
305,334,305,307,2
304,347,305,306,2
303,355,304,305,2
303,358,304,305,2
303,358,303,306,2
303,356,303,308,2
304,353,304,310,2
304,349,305,311,2
304,345,306,312,2
305,341,306,312,2
306,336,307,312,2
307,327,307,311,2
307,317,307,310,2
307,304,306,308,2
307,292,306,307,2
307,282,306,306,2
307,277,306,305,2
307,278,307,304,2
307,285,307,304,2
306,295,307,304,2
306,307,307,306,2
306,318,306,308,2
306,326,306,311,2
305,332,305,313,2
305,334,305,315,2
304,333,304,315,2
304,331,304,314,2
304,329,305,313,2
305,328,307,313,2
307,327,309,312,2
308,324,310,312,2
308,321,311,311,2
309,317,311,312,2
309,312,312,313,2
309,308,312,314,2
308,306,312,314,2
307,304,311,314,2
306,304,310,313,2
305,304,310,311,2
304,303,309,308,2
303,302,308,305,2
303,300,307,304,2
304,299,307,303,2
304,298,306,303,2
305,300,305,303,2
305,303,305,304,2
305,307,304,304,2
305,309,303,304,2
305,310,302,304,2
306,311,302,304,2
306,310,302,304,2
306,304,302,304,2
307,294,303,305,2
307,282,304,307,2
308,269,307,309,2
309,259,309,311,2
309,254,311,314,2
309,257,312,317,2
309,269,312,319,2
308,286,312,320,2
308,303,311,321,2
306,317,310,321,2
305,327,309,320,2
304,334,308,320,2
304,336,307,319,2
304,336,307,317,2
304,332,308,315,2
304,325,308,313,2
304,318,308,313,2
305,312,309,313,2
305,305,308,313,2
306,300,307,313,2
307,295,306,313,2
308,292,305,312,2
308,293,304,311,2
308,296,303,311,2
308,299,304,312,2
308,302,306,313,2
309,306,307,315,2
308,311,308,317,2
307,316,308,319,2
306,320,309,320,2
305,324,309,320,2
304,328,309,321,2
304,331,309,322,2
304,333,309,323,2
303,332,309,322,2
302,328,309,321,2
302,323,308,319,2
302,320,309,318,2
303,316,310,318,2
304,314,310,318,2
304,314,310,318,2
305,315,309,317,2
304,314,308,315,2
304,312,307,313,2
303,310,306,311,2
303,310,305,310,2
303,310,305,309,2
303,310,305,308,2
303,309,305,307,2
303,307,304,306,2
303,306,304,306,2
304,304,304,306,2
305,300,304,305,2
305,292,305,304,2
305,281,306,302,2
304,272,307,301,2
304,265,308,300,2
304,262,309,301,2
305,265,309,302,2
306,274,309,304,2
305,288,308,307,2
304,301,307,309,2
304,311,307,310,2
303,318,306,311,2
303,322,306,311,2
303,324,306,311,2
303,324,306,310,2
304,324,306,308,2
304,322,306,307,2
304,321,306,306,2
304,319,306,305,2
304,318,306,304,2
304,316,306,303,2
304,313,306,302,2
304,308,305,300,2
303,302,304,299,2
304,297,303,299,2
304,295,303,298,2
305,295,303,299,2
305,298,303,299,2
305,303,303,299,2
304,307,303,299,2
304,311,302,299,2
304,314,303,301,2
304,317,304,305,2
305,320,306,310,2
306,322,308,315,2
308,322,309,317,2
309,320,309,318,2
310,317,309,317,2
310,313,308,316,2
309,310,306,314,2
308,307,305,313,2
308,307,305,311,2
308,308,305,309,2
307,311,305,307,2
306,314,305,306,2
306,316,305,305,2
306,317,305,304,2
306,318,305,303,2
305,318,305,302,2
304,316,304,301,2
304,313,304,302,2
304,309,304,303,2
305,305,303,305,2
305,302,303,307,2
306,298,303,308,2
306,292,304,309,2
307,284,304,308,2
307,275,305,307,2
308,267,306,305,2
309,261,307,303,2
309,259,308,301,2
309,263,309,301,2
307,273,308,301,2
305,288,308,301,2
303,304,308,301,2
302,318,308,301,2
301,328,308,301,2
300,336,308,301,2
299,340,307,302,2
300,343,307,303,2
301,343,307,305,2
302,341,308,307,2
303,339,308,308,2
304,335,308,309,2
304,331,307,309,2
305,329,305,309,2
306,326,304,308,2
306,322,303,307,2
307,317,302,307,2
307,312,303,306,2
307,309,305,306,2
307,306,307,307,2
308,305,308,308,2
307,305,308,308,2
306,306,308,308,2
305,307,307,307,2
305,308,306,307,2
304,309,305,307,2
303,308,304,307,2
303,306,304,307,2
303,304,303,307,2
303,301,303,307,2
304,302,302,308,2
304,303,302,310,2
305,304,302,310,2
305,303,302,309,2
305,301,302,308,2
305,300,303,307,2
305,299,303,305,2
305,298,303,305,2
306,298,304,305,2
305,299,304,305,2
305,300,304,305,2
305,300,304,305,2
305,299,305,306,2
306,298,306,307,2
306,298,307,307,2
305,296,307,307,2
303,292,307,307,2
303,287,307,307,2
303,283,308,307,2
304,281,308,307,2
305,280,309,307,2
306,278,308,307,2
306,279,308,307,2
306,283,308,308,2
306,291,308,309,2
305,301,308,311,2
306,309,307,313,2
307,318,307,315,2
307,327,307,317,2
307,335,306,319,2
306,340,306,319,2
304,341,305,318,2
302,338,303,316,2
302,335,303,314,2
301,332,302,312,2
301,328,302,310,2
300,324,301,308,2
301,320,301,308,2
301,316,301,308,2
302,314,301,309,2
302,312,302,310,2
302,309,302,312,2
302,305,304,314,2
303,301,304,315,2
303,298,305,315,2
303,296,306,315,2
304,296,306,315,2
304,297,306,315,2
304,299,306,314,2
304,300,306,313,2
305,299,306,311,2
306,298,307,310,2
307,298,306,308,2
307,300,306,308,2
307,303,306,307,2
306,307,305,306,2
305,308,304,305,2
305,309,304,305,2
304,307,303,304,2
304,305,302,304,2
303,303,302,306,2
303,302,302,307,2
303,303,301,308,2
303,305,301,309,2
303,307,300,307,2
302,308,299,306,2
302,306,298,304,2
302,304,298,303,2
302,300,299,303,2
303,296,300,304,2
304,294,303,304,2
305,294,306,305,2
306,298,308,306,2
306,302,308,308,2
306,305,308,309,2
305,307,308,308,2
304,306,307,306,2
304,301,306,304,2
304,295,305,301,2
305,287,306,298,2
306,280,307,297,2
308,274,309,296,2
310,271,311,297,2
311,272,311,298,2
311,279,311,301,2
310,289,309,303,2
309,298,307,305,2
308,303,304,306,2
307,304,303,306,2
307,304,302,306,2
307,303,302,306,2
308,302,303,306,2
309,302,303,307,2
309,305,304,308,2
309,309,303,308,2
308,315,302,308,2
307,319,300,308,2
306,325,300,309,2
306,331,299,309,2
306,334,299,308,2
305,332,299,306,2
304,329,299,305,2
304,326,300,304,2
304,324,301,305,2
305,322,302,306,2
305,320,303,307,2
306,317,303,308,2
306,315,303,309,2
306,314,302,309,2
306,312,302,309,2
306,310,303,309,2
306,307,303,309,2
306,304,304,310,2
307,301,305,311,2
307,299,306,312,2
308,297,307,312,2
309,296,307,312,2
309,294,307,311,2
310,293,306,310,2
310,295,305,309,2
310,298,304,308,2
310,302,303,308,2
310,305,303,309,2
309,308,303,310,2
308,309,303,313,2
308,310,302,315,2
308,310,302,316,2
307,310,301,315,2
307,310,301,314,2
306,311,300,313,2
306,312,299,312,2
305,312,299,311,2
305,312,299,311,2
305,311,299,312,2
305,311,299,311,2
304,310,299,310,2
304,307,299,309,2
304,302,301,309,2
304,296,303,310,2
304,289,306,310,2
304,282,308,309,2
304,275,309,307,2
304,272,310,305,2
304,274,311,304,2
305,282,311,304,2
306,292,310,305,2
307,302,309,307,2
307,309,309,310,2
307,311,309,311,2
307,310,308,312,2
307,305,308,312,2
307,300,307,311,2
306,298,307,309,2
306,298,306,308,2
306,302,305,306,2
305,309,305,306,2
305,317,305,306,2
305,325,305,307,2
304,331,305,308,2
305,334,304,309,2
306,333,305,311,2
306,330,306,312,2
307,325,308,313,2
308,320,309,313,2
308,314,309,312,2
307,309,309,310,2
307,305,308,307,2
305,301,308,304,2
305,299,307,301,2
305,299,307,299,2
305,301,306,298,2
306,304,305,299,2
306,307,305,300,2
305,309,305,302,2
304,309,305,303,2
303,310,306,304,2
302,311,306,306,2
302,312,307,308,2
302,315,308,309,2
302,317,309,310,2
302,318,309,310,2
302,318,309,310,2
302,318,309,310,2
302,318,308,311,2
302,317,307,312,2
302,316,307,313,2
303,313,307,313,2
303,308,308,313,2
303,305,309,312,2
303,303,309,311,2
304,300,310,309,2
304,297,309,306,2
305,294,309,304,2
305,294,308,301,2
305,296,309,300,2
306,297,309,300,2
306,298,309,301,2
306,298,309,302,2
307,299,309,304,2
307,300,309,306,2
308,299,309,308,2
309,295,309,309,2
309,288,309,309,2
309,282,309,309,2
308,277,309,310,2
308,275,309,310,2
308,277,309,311,2
307,282,309,310,2
307,291,310,309,2
305,303,310,308,2
304,312,309,307,2
303,318,308,306,2
303,319,307,306,2
304,317,308,307,2
305,314,309,308,2
306,312,311,310,2
307,311,312,312,2
307,311,313,313,2
308,311,314,313,2
308,310,314,314,2
309,308,314,314,2
310,304,314,314,2
310,298,313,313,2
310,291,312,312,2
310,284,311,311,2
310,280,311,311,2
311,282,311,310,2
310,290,310,309,2
309,300,309,309,2
307,311,309,309,2
306,321,308,309,2
304,329,308,310,2
303,335,308,310,2
303,338,308,311,2
303,338,309,312,2
304,336,309,312,2
305,333,311,313,2
306,329,312,313,2
308,324,312,313,2
308,320,313,313,2
309,317,314,314,2
309,313,313,315,2
310,310,313,316,2
310,307,312,317,2
309,307,311,317,2
310,307,311,316,2
310,308,312,314,2
310,309,311,311,2
310,310,310,308,2
310,310,307,305,2
310,311,306,304,2
309,312,304,303,2
308,311,303,302,2
308,309,301,302,2
307,308,300,302,2
308,308,300,303,2
308,310,300,303,2
308,310,300,302,2
307,308,300,300,2
307,306,301,298,2
307,302,302,296,2
307,299,303,296,2
307,294,304,296,2
307,287,304,297,2
307,278,305,297,2
308,270,305,299,2
309,263,306,300,2
310,261,307,303,2
311,264,307,306,2
312,271,307,307,2
311,284,307,309,2
311,299,306,310,2
310,311,306,310,2
309,318,305,309,2
309,322,304,309,2
309,325,302,307,2
308,326,300,306,2
308,327,299,306,2
308,325,298,306,2
308,324,298,306,2
308,321,299,307,2
309,317,301,307,2
309,312,304,307,2
310,305,307,307,2
310,299,309,307,2
310,293,311,307,2
311,288,313,308,2
311,287,314,308,2
311,290,314,309,2
310,296,315,311,2
309,302,315,314,2
308,307,315,316,2
307,311,314,317,2
306,315,313,316,2
305,318,312,314,2
304,319,311,312,2
304,319,310,311,2
304,319,310,311,2
305,321,311,312,2
305,323,310,313,2
304,325,310,314,2
304,327,309,315,2
304,329,309,315,2
305,329,308,315,2
305,327,308,313,2
305,324,307,311,2
305,321,306,308,2
306,317,306,306,2
306,313,307,305,2
307,310,307,304,2
307,307,308,303,2
307,306,309,303,2
308,307,310,303,2
308,310,310,302,2
307,312,309,301,2
306,312,308,300,2
305,312,307,299,2
304,312,306,298,2
304,312,306,298,2
305,310,307,299,2
305,306,307,300,2
306,301,307,301,2
307,294,306,302,2
307,287,306,304,2
308,281,305,304,2
308,277,305,304,2
308,277,305,304,2
308,282,304,303,2
306,290,303,302,2
304,300,302,299,2
303,309,302,297,2
302,316,303,294,2
302,321,303,292,2
303,323,303,292,2
304,324,304,292,2
305,322,304,293,2
305,318,306,296,2
306,314,307,298,2
307,310,308,300,2
307,307,308,301,2
306,304,308,303,2
306,302,306,305,2
307,300,306,307,2
308,299,305,308,2
309,298,305,309,2
310,297,305,309,2
310,295,305,309,2
311,293,304,310,2
311,292,303,309,2
310,292,301,308,2
308,295,299,306,2
307,303,297,303,2
304,313,296,301,2
303,322,297,298,2
303,330,299,297,2
303,335,302,297,2
303,337,304,298,2
303,336,304,298,2
303,332,304,300,2
303,328,303,302,2
304,322,304,305,2
306,316,304,307,2
307,310,305,307,2
308,304,305,306,2
309,297,305,304,2
309,290,305,302,2
309,284,304,301,2
309,280,304,301,2
309,279,304,302,2
309,281,304,303,2
308,285,304,305,2
308,292,305,307,2
308,302,306,308,2
307,311,307,309,2
307,316,309,310,2
307,319,310,310,2
308,318,311,311,2
308,315,312,313,2
309,310,312,313,2
309,305,312,312,2
309,300,312,312,2
309,297,311,311,2
308,296,309,310,2
307,296,309,310,2
306,299,309,310,2
305,303,309,310,2
305,308,309,312,2
304,313,309,314,2
305,317,309,316,2
305,318,309,318,2
305,318,309,319,2
305,316,309,319,2
305,314,309,319,2
305,309,309,318,2
304,303,309,316,2
303,297,309,313,2
302,292,308,310,2
301,290,307,307,2
302,290,307,306,2
303,292,306,305,2
304,298,305,304,2
305,305,305,303,2
305,312,304,302,2
304,318,304,302,2
304,324,304,303,2
305,327,304,305,2
305,328,304,307,2
305,327,304,308,2
305,324,304,309,2
305,321,303,308,2
304,318,303,308,2
304,314,303,307,2
304,310,304,305,2
303,307,305,304,2
303,306,305,303,2
304,305,304,303,2
304,305,303,303,2
304,305,303,304,2
305,306,302,304,2
305,305,302,304,2
306,302,302,304,2
306,299,303,304,2
308,295,304,305,2
309,290,305,306,2
311,283,306,307,2
312,277,308,307,2
313,272,310,307,2
313,270,311,306,2
313,270,311,305,2
313,272,310,305,2
312,277,308,304,2
309,285,304,302,2
306,294,300,300,2
304,304,297,298,2
302,314,295,298,2
302,324,295,297,2
303,332,294,298,2
304,336,293,299,2
304,337,293,301,2
305,335,294,304,2
306,331,295,306,2
306,326,297,307,2
307,321,300,307,2
308,316,303,307,2
308,312,306,305,2
308,309,307,304,2
308,307,307,302,2
308,306,307,301,2
307,304,306,300,2
307,301,305,299,2
306,298,304,299,2
306,294,305,301,2
305,290,305,301,2
305,288,305,303,2
305,287,305,304,2
305,290,305,306,2
305,295,306,307,2
305,298,305,308,2
304,301,304,309,2
304,303,304,309,2
304,305,304,310,2
305,307,306,310,2
307,308,306,311,2
308,310,307,312,2
308,313,307,312,2
309,314,306,312,2
310,312,306,312,2
310,306,306,311,2
310,297,307,309,2
310,285,307,308,2
309,273,306,307,2
309,263,305,307,2
309,257,304,307,2
308,259,302,306,2
307,268,300,304,2
306,285,298,303,2
306,302,297,303,2
305,316,297,303,2
305,324,298,303,2
306,327,299,303,2
307,327,301,303,2
308,326,302,304,2
309,326,304,306,2
310,329,306,309,2
311,332,308,310,2
312,336,308,310,2
312,336,309,309,2
312,336,310,307,2
312,334,310,305,2
311,331,310,303,2
310,328,308,301,2
309,324,306,301,2
308,322,305,302,2
308,320,305,302,2
308,316,304,303,2
309,310,304,303,2
309,303,304,303,2
310,298,304,304,2
311,293,303,306,2
311,290,303,307,2
311,289,304,308,2
311,290,304,309,2
312,292,306,309,2
312,294,307,308,2
313,295,309,308,2
313,295,309,307,2
313,293,309,305,2
313,292,309,303,2
312,294,308,301,2
311,297,308,301,2
309,302,308,301,2
308,305,308,301,2
308,307,308,302,2
308,309,309,303,2
309,312,309,303,2
309,314,309,304,2
309,316,309,304,2
309,317,309,303,2
308,317,308,304,2
307,317,307,304,2
307,316,305,304,2
306,315,304,303,2
306,314,303,302,2
306,313,303,301,2
306,312,303,299,2
306,311,304,298,2
305,308,304,296,2
305,303,304,295,2
304,297,304,293,2
304,290,304,293,2
304,285,304,292,2
304,282,304,292,2
304,281,304,292,2
305,281,304,292,2
306,284,304,294,2
307,290,306,297,2
308,296,307,301,2
310,302,309,304,2
311,307,309,307,2
311,310,308,310,2
310,313,308,311,2
309,316,307,311,2
308,319,307,311,2
307,321,307,311,2
307,320,308,311,2
307,318,309,312,2
307,315,309,311,2
307,312,309,311,2
307,309,309,311,2
307,307,309,311,2
306,304,308,311,2
306,302,307,310,2
306,302,306,309,2
307,303,305,307,2
307,305,305,306,2
308,309,306,305,2
309,312,307,304,2
309,310,308,303,2
309,304,308,303,2
309,296,309,303,2
309,286,309,304,2
310,277,309,304,2
309,270,308,305,2
309,268,308,305,2
308,272,309,307,2
307,281,308,309,2
306,291,309,311,2
306,302,310,314,2
306,311,310,315,2
306,320,311,315,2
306,327,311,315,2
306,333,312,315,2
305,339,311,315,2
305,341,311,314,2
305,339,311,313,2
304,335,310,311,2
303,332,310,311,2
303,329,310,310,2
302,327,309,310,2
302,326,308,310,2
302,325,306,309,2
302,324,304,308,2
302,322,302,307,2
302,320,301,306,2
303,316,301,306,2
304,310,300,306,2
