312,307,317,314,2
311,308,313,313,2
309,312,309,312,2
306,317,307,311,2
305,320,305,310,2
304,320,305,309,2
302,318,305,308,2
302,317,305,307,2
301,315,305,307,2
302,311,307,308,2
302,307,309,308,2
303,306,310,307,2
303,307,311,305,2
304,308,311,305,2
305,306,311,306,2
306,303,310,306,2
306,298,310,307,2
307,293,310,307,2
306,289,310,308,2
306,285,308,307,2
305,285,308,307,2
305,291,307,306,2
303,302,306,305,2
302,315,306,304,2
301,328,305,304,2
300,337,305,304,2
299,342,304,304,2
299,343,304,305,2
299,342,305,306,2
300,339,306,307,2
301,336,307,308,2
302,331,307,308,2
303,326,307,309,2
303,321,307,309,2
303,316,307,310,2
304,312,308,310,2
305,311,308,310,2
306,311,308,310,2
307,313,308,311,2
307,315,307,310,2
307,314,306,308,2
307,311,305,306,2
307,308,304,305,2
307,306,303,304,2
307,307,302,304,2
306,308,302,304,2
306,310,303,305,2
305,308,304,306,2
305,304,306,308,2
305,298,307,309,2
305,293,306,309,2
304,292,306,308,2
304,295,305,308,2
305,299,305,308,2
305,302,304,307,2
304,303,304,306,2
304,304,304,305,2
304,305,304,305,2
304,306,304,304,2
303,306,304,304,2
302,306,304,305,2
302,305,303,305,2
302,303,301,306,2
302,300,301,305,2
302,296,301,304,2
301,291,301,302,2
301,290,302,300,2
300,291,304,298,2
301,294,304,297,2
301,298,305,296,2
301,304,305,295,2
301,310,305,295,2
301,315,304,296,2
300,317,303,297,2
299,320,302,299,2
299,320,302,302,2
299,319,303,305,2
299,317,304,308,2
300,315,306,310,2
300,312,307,311,2
301,309,308,312,2
301,304,308,311,2
301,299,308,311,2
302,294,307,310,2
302,291,306,310,2
302,292,305,309,2
302,294,304,308,2
302,298,302,307,2
301,303,300,306,2
300,307,298,306,2
299,311,297,305,2
298,314,297,306,2
298,317,297,306,2
299,318,298,306,2
299,318,300,306,2
300,316,302,305,2
301,312,304,304,2
301,305,308,303,2
302,297,311,304,2
303,289,313,304,2
302,283,312,304,2
302,281,310,304,2
302,281,307,304,2
302,284,306,304,2
302,290,305,305,2
302,297,305,305,2
302,301,305,305,2
301,305,306,305,2
300,312,306,306,2
300,322,307,306,2
299,331,307,306,2
298,334,307,305,2
298,330,306,304,2
297,324,306,304,2
299,318,306,304,2
300,311,307,305,2
302,306,307,305,2
304,304,308,304,2
305,305,308,303,2
306,306,308,304,2
307,309,308,304,2
307,312,307,306,2
307,316,306,307,2
305,319,304,307,2
303,320,302,305,2
301,318,300,304,2
300,316,299,302,2
300,313,299,302,2
301,310,299,301,2
302,308,299,300,2
302,304,299,300,2
303,296,299,300,2
304,282,298,301,2
305,263,297,302,2
306,240,298,302,2
308,217,301,303,2
309,201,303,304,2
312,195,307,305,2
313,202,310,307,2
314,222,313,309,2
313,251,315,311,2
311,282,316,313,2
309,307,317,313,2
307,326,317,313,2
306,338,316,312,2
305,349,315,311,2
304,361,313,310,2
302,371,310,309,2
301,376,309,308,2
300,375,307,308,2
299,371,307,307,2
299,366,307,307,2
300,360,307,308,2
300,352,307,309,2
301,344,307,309,2
302,335,307,310,2
302,326,307,311,2
302,319,306,311,2
303,315,306,310,2
304,312,307,308,2
305,310,308,306,2
305,309,307,303,2
305,309,307,301,2
306,309,307,299,2
306,311,306,298,2
307,312,305,298,2
308,313,303,299,2
307,314,301,299,2
306,313,298,298,2
306,312,296,297,2
306,310,295,297,2
306,305,296,297,2
306,297,298,297,2
306,287,300,298,2
307,278,303,300,2
308,270,305,303,2
311,266,308,306,2
312,268,310,308,2
312,276,312,310,2
312,289,313,312,2
311,301,313,313,2
310,305,311,314,2
310,301,307,313,2
309,292,303,311,2
309,280,301,309,2
309,270,299,307,2
309,266,299,305,2
310,270,300,304,2
310,278,301,302,2
310,289,301,302,2
310,300,301,303,2
310,308,301,303,2
310,316,301,304,2
309,321,302,304,2
308,326,303,305,2
307,332,305,306,2
307,338,307,308,2
307,342,309,309,2
308,344,312,309,2
310,346,315,310,2
312,346,317,309,2
315,346,320,309,2
318,345,321,308,2
320,343,321,307,2
320,338,320,306,2
320,333,318,305,2
318,327,314,304,2
315,323,310,303,2
313,319,306,303,2
312,315,302,303,2
311,309,299,303,2
311,299,298,303,2
311,286,300,303,2
311,271,301,303,2
311,257,301,303,2
312,247,302,303,2
312,243,304,304,2
312,248,305,305,2
312,262,305,306,2
313,280,305,308,2
314,299,305,310,2
313,316,305,311,2
313,328,304,311,2
311,336,303,310,2
309,341,301,308,2
308,344,301,306,2
307,345,301,306,2
308,344,304,306,2
311,341,309,307,2
312,336,312,307,2
313,329,314,308,2
312,322,312,308,2
312,315,309,308,2
312,307,304,308,2
312,299,300,309,2
312,293,297,309,2
311,287,295,308,2
310,283,292,307,2
309,279,291,305,2
309,280,291,304,2
308,283,292,304,2
308,289,296,304,2
307,294,300,305,2
308,296,304,306,2
309,295,306,307,2
310,293,307,307,2
310,290,306,306,2
309,289,306,305,2
309,289,305,304,2
309,290,305,303,2
309,293,306,302,2
310,297,306,301,2
310,301,306,300,2
310,305,306,299,2
309,310,306,299,2
309,312,306,299,2
309,314,307,301,2
310,315,308,304,2
312,317,310,308,2
314,323,312,311,2
316,329,312,315,2
318,335,312,318,2
319,337,311,320,2
318,335,310,320,2
318,329,308,318,2
317,322,307,317,2
317,314,306,316,2
316,307,306,313,2
316,300,306,311,2
315,296,306,308,2
315,294,306,306,2
315,296,306,305,2
315,299,307,306,2
315,301,308,307,2
314,304,309,308,2
314,307,310,311,2
313,311,311,312,2
313,314,312,312,2
312,317,312,311,2
311,317,312,310,2
310,314,312,307,2
310,311,312,306,2
310,310,313,305,2
310,312,313,305,2
309,315,313,304,2
307,321,311,305,2
305,327,308,305,2
304,331,307,306,2
304,333,305,306,2
304,333,305,306,2
305,332,304,306,2
306,330,305,305,2
307,326,305,304,2
308,321,305,304,2
308,315,306,303,2
308,310,307,304,2
309,304,309,306,2
310,299,309,307,2
310,293,308,309,2
311,286,306,310,2
310,279,305,310,2
310,272,304,311,2
310,270,304,312,2
309,271,304,313,2
309,276,304,313,2
309,281,304,312,2
309,288,304,311,2
309,296,305,311,2
310,302,305,310,2
310,306,305,309,2
310,309,304,309,2
308,310,302,307,2
307,311,299,305,2
305,312,298,303,2
303,312,298,301,2
303,311,299,301,2
303,311,300,301,2
304,313,302,302,2
305,317,303,304,2
307,322,304,306,2
308,326,305,308,2
309,327,306,309,2
308,326,307,310,2
307,322,306,310,2
306,316,305,310,2
305,309,305,310,2
304,302,305,310,2
304,296,305,311,2
304,293,304,310,2
305,291,304,309,2
305,291,304,308,2
306,292,305,308,2
306,295,305,308,2
307,299,306,309,2
307,303,306,309,2
307,308,305,308,2
306,313,305,307,2
306,318,303,305,2
305,323,302,304,2
305,325,301,304,2
304,324,300,304,2
305,320,299,305,2
305,317,300,306,2
306,314,301,306,2
307,312,302,307,2
308,312,304,310,2
309,314,306,314,2
310,316,308,317,2
309,317,310,319,2
309,316,312,319,2
310,314,314,318,2
311,311,314,316,2
312,309,313,315,2
314,308,313,315,2
315,307,312,315,2
315,305,311,316,2
316,303,310,317,2
316,298,308,317,2
315,289,307,317,2
314,278,305,315,2
314,268,303,313,2
313,262,301,312,2
313,264,301,311,2
312,274,302,310,2
311,286,303,308,2
309,298,303,307,2
308,309,303,306,2
307,319,303,306,2
306,327,303,306,2
306,333,303,306,2
306,336,303,307,2
306,338,303,309,2
307,336,304,310,2
307,332,304,310,2
307,327,304,311,2
307,322,304,312,2
307,318,304,312,2
307,315,304,312,2
307,313,304,312,2
308,312,303,310,2
307,313,303,308,2
308,313,303,307,2
308,313,303,307,2
308,309,303,306,2
307,304,302,306,2
307,297,302,305,2
307,290,303,304,2
308,285,303,304,2
309,282,304,303,2
308,285,304,303,2
308,293,304,304,2
307,303,305,305,2
306,313,305,307,2
306,319,307,308,2
306,323,308,309,2
305,325,309,310,2
306,325,310,309,2
306,322,310,307,2
305,317,308,304,2
305,309,305,302,2
306,298,303,300,2
306,285,301,299,2
307,272,301,299,2
308,261,301,300,2
309,253,302,302,2
309,248,302,304,2
310,251,303,305,2
309,262,304,306,2
309,275,305,306,2
308,287,305,305,2
307,296,305,306,2
306,307,306,307,2
306,319,306,307,2
304,331,306,308,2
302,341,305,307,2
301,346,305,307,2
300,348,305,307,2
300,345,305,306,2
300,339,305,305,2
300,332,305,305,2
301,325,305,306,2
302,320,305,306,2
304,316,303,307,2
304,313,302,306,2
304,313,300,304,2
303,315,298,303,2
303,318,296,302,2
301,319,295,301,2
300,319,295,301,2
300,318,296,301,2
300,318,298,301,2
300,316,301,301,2
299,314,303,301,2
299,311,303,302,2
299,308,304,303,2
301,302,304,305,2
302,296,305,306,2
304,289,306,307,2
305,284,306,308,2
307,282,307,309,2
308,282,308,309,2
309,286,308,310,2
308,294,307,311,2
308,302,306,312,2
307,309,305,313,2
306,315,305,313,2
305,321,304,312,2
303,324,303,311,2
303,324,302,309,2
302,320,302,307,2
301,312,302,307,2
301,302,302,308,2
302,290,302,308,2
303,278,303,309,2
304,269,303,309,2
304,264,303,308,2
304,265,303,307,2
304,273,303,307,2
303,287,303,307,2
302,302,303,307,2
302,316,301,308,2
301,325,301,308,2
300,328,300,308,2
300,327,299,308,2
299,325,299,308,2
298,323,300,308,2
297,323,301,307,2
297,326,301,307,2
296,329,301,307,2
296,331,301,307,2
297,329,301,307,2
299,325,301,307,2
300,320,303,307,2
302,316,305,308,2
302,310,306,307,2
303,306,306,308,2
303,304,307,308,2
304,303,307,309,2
304,302,308,309,2
304,300,306,309,2
303,299,305,309,2
302,299,303,308,2
301,299,302,307,2
301,299,301,307,2
301,299,301,307,2
300,300,300,307,2
300,300,301,307,2
300,303,304,307,2
300,306,307,306,2
299,310,310,305,2
299,314,312,305,2
298,317,314,305,2
298,319,314,305,2
298,321,313,307,2
298,323,310,308,2
299,322,308,308,2
299,318,306,307,2
299,313,304,306,2
299,308,302,306,2
300,302,301,305,2
301,295,300,305,2
303,282,300,304,2
304,267,300,302,2
305,253,300,300,2
305,242,300,298,2
305,236,300,295,2
304,242,299,293,2
302,262,298,293,2
300,290,298,293,2
299,316,298,295,2
297,334,298,298,2
296,344,299,300,2
296,345,301,302,2
296,341,302,304,2
296,333,302,305,2
297,325,302,305,2
298,318,302,305,2
300,314,301,305,2
302,311,301,305,2
302,307,300,304,2
302,303,299,304,2
301,302,297,303,2
301,299,297,302,2
301,297,298,301,2
302,295,300,302,2
303,293,304,302,2
305,288,306,303,2
306,279,308,304,2
308,270,310,304,2
309,263,311,305,2
310,258,312,305,2
311,256,313,306,2
311,254,313,306,2
310,255,312,305,2
307,261,311,305,2
305,273,311,305,2
304,286,312,305,2
305,294,315,306,2
306,299,317,307,2
306,303,317,309,2
306,308,315,310,2
306,314,313,312,2
306,320,310,313,2
305,326,308,314,2
303,330,306,314,2
300,333,303,312,2
298,334,301,309,2
297,334,299,307,2
297,334,298,304,2
297,338,298,301,2
296,345,298,300,2
295,352,298,299,2
294,354,300,299,2
294,354,304,301,2
295,350,308,304,2
297,344,313,307,2
299,337,316,309,2
299,330,317,311,2
300,326,315,312,2
300,323,312,313,2
300,322,307,312,2
301,321,304,309,2
302,318,302,307,2
303,314,303,305,2
303,308,303,303,2
303,298,304,302,2
304,286,305,302,2
306,273,306,303,2
308,261,306,304,2
309,250,307,306,2
309,243,306,307,2
308,239,306,308,2
308,244,305,310,2
307,259,305,312,2
306,279,305,313,2
305,302,305,314,2
303,321,306,313,2
301,333,307,312,2
300,338,309,311,2
300,338,311,311,2
301,333,313,310,2
302,328,314,308,2
303,324,315,307,2
305,322,316,306,2
305,320,316,304,2
305,321,315,304,2
305,325,313,304,2
304,327,312,303,2
303,328,310,302,2
302,326,309,300,2
302,323,309,300,2
303,319,310,300,2
304,316,310,301,2
305,313,311,301,2
306,311,312,302,2
306,309,312,303,2
306,307,313,304,2
307,306,312,305,2
307,306,312,306,2
307,306,312,306,2
307,305,313,306,2
306,302,312,306,2
304,294,312,306,2
304,283,311,305,2
304,270,310,304,2
305,261,310,303,2
307,256,310,303,2
309,255,311,305,2
312,261,312,308,2
313,273,312,310,2
313,287,310,310,2
312,301,308,309,2
309,310,306,306,2
307,310,304,302,2
305,302,304,299,2
304,290,302,297,2
304,281,302,296,2
304,279,300,296,2
304,285,299,296,2
304,296,298,297,2
303,311,298,297,2
302,325,298,298,2
301,335,299,298,2
301,339,301,299,2
301,338,304,299,2
302,337,305,300,2
302,336,306,299,2
303,336,307,300,2
304,335,307,300,2
305,333,308,301,2
306,327,308,302,2
306,320,307,303,2
306,313,307,304,2
306,307,306,304,2
305,301,306,306,2
305,296,306,308,2
305,295,306,311,2
305,296,307,312,2
305,298,307,313,2
305,298,307,312,2
304,298,306,310,2
303,300,306,308,2
302,302,305,308,2
302,306,306,309,2
303,309,306,311,2
304,311,308,312,2
305,313,310,313,2
306,316,312,314,2
306,322,312,313,2
305,327,311,312,2
304,331,308,311,2
304,332,306,311,2
305,326,304,311,2
306,315,305,312,2
308,299,307,313,2
311,283,309,314,2
312,270,311,314,2
313,263,312,313,2
313,269,312,312,2
312,282,311,312,2
309,300,309,311,2
306,319,307,311,2
303,332,305,309,2
301,339,304,308,2
300,341,303,307,2
299,339,303,306,2
299,336,303,306,2
298,333,304,306,2
299,331,304,306,2
299,329,305,307,2
301,326,306,308,2
301,324,308,309,2
301,322,309,309,2
301,320,310,309,2
301,318,310,309,2
302,315,310,309,2
303,312,309,308,2
304,309,308,308,2
305,306,306,308,2
305,302,305,308,2
306,295,304,307,2
307,289,305,307,2
308,285,306,307,2
308,283,307,307,2
308,283,308,307,2
308,281,309,307,2
308,277,310,308,2
307,272,312,308,2
306,267,313,307,2
306,262,315,306,2
307,259,315,306,2
307,261,315,306,2
307,270,313,307,2
306,282,312,307,2
304,297,310,306,2
302,313,310,305,2
301,329,308,304,2
299,342,307,304,2
298,350,306,304,2
298,350,305,303,2
298,345,305,302,2
299,334,304,301,2
300,318,303,301,2
301,301,303,301,2
302,286,303,302,2
304,278,303,302,2
304,277,304,303,2
305,283,304,304,2
305,293,304,304,2
304,304,303,304,2
302,314,302,304,2
301,321,303,304,2
301,324,304,304,2
301,325,303,303,2
302,326,302,302,2
303,329,302,301,2
304,332,302,301,2
304,334,303,301,2
304,333,304,301,2
304,329,306,301,2
305,322,308,301,2
305,315,310,302,2
306,310,311,303,2
307,307,310,305,2
307,306,310,306,2
307,305,309,307,2
307,303,308,308,2
307,300,309,310,2
307,297,309,311,2
308,295,309,311,2
308,296,310,311,2
308,299,310,311,2
307,306,310,311,2
306,311,310,310,2
306,314,311,310,2
305,316,311,309,2
304,317,309,308,2
303,319,306,307,2
304,319,304,306,2
304,320,301,305,2
303,319,299,303,2
302,317,298,303,2
302,313,298,302,2
303,309,300,302,2
303,304,302,302,2
303,300,304,302,2
303,298,307,302,2
303,300,308,302,2
303,302,308,302,2
303,303,308,302,2
304,297,308,302,2
305,286,309,303,2
306,272,310,304,2
309,261,311,305,2
312,256,312,306,2
314,259,312,307,2
314,270,311,307,2
314,288,309,307,2
313,307,307,308,2
311,322,306,309,2
309,331,305,309,2
307,335,305,309,2
306,337,305,308,2
305,336,304,307,2
304,336,304,306,2
303,335,304,305,2
303,333,304,304,2
302,330,303,303,2
302,326,302,302,2
302,322,300,302,2
302,317,299,302,2
302,313,299,302,2
303,309,300,303,2
303,305,300,303,2
303,302,299,304,2
304,299,300,305,2
305,296,300,307,2
306,292,302,309,2
306,289,302,311,2
306,286,303,310,2
305,281,303,307,2
305,280,304,305,2
304,286,304,303,2
303,297,305,303,2
302,308,304,302,2
300,318,303,301,2
299,327,301,300,2
299,333,300,300,2
298,334,299,300,2
298,332,298,301,2
299,328,298,302,2
300,324,299,303,2
301,319,301,304,2
302,314,303,305,2
303,310,306,306,2
304,306,308,306,2
304,303,310,307,2
304,301,311,308,2
304,299,310,308,2
304,298,309,308,2
303,296,308,308,2
302,292,307,307,2
302,286,306,306,2
302,279,305,305,2
304,274,305,305,2
305,275,304,304,2
305,279,304,304,2
305,286,303,303,2
305,293,303,303,2
305,299,304,303,2
306,302,305,303,2
307,302,308,303,2
307,302,309,303,2
307,305,310,304,2
308,311,311,305,2
309,316,313,306,2
309,321,314,306,2
309,324,316,308,2
308,325,317,309,2
308,321,316,310,2
307,317,314,310,2
307,312,312,309,2
306,308,310,309,2
306,306,308,308,2
306,307,308,309,2
307,307,309,310,2
307,307,310,311,2
307,307,309,312,2
306,306,308,311,2
305,304,306,310,2
305,302,305,309,2
306,303,305,309,2
306,307,305,309,2
306,313,306,309,2
306,317,306,309,2
306,320,305,308,2
306,319,304,308,2
305,318,304,307,2
305,318,303,307,2
306,319,304,308,2
306,320,304,308,2
307,321,304,308,2
307,322,304,308,2
308,323,304,309,2
309,323,304,310,2
311,322,304,311,2
312,319,303,312,2
312,316,303,311,2
311,313,304,311,2
311,310,305,310,2
310,305,306,308,2
310,300,307,307,2
309,293,308,307,2
309,287,309,308,2
309,278,311,308,2
310,268,312,308,2
310,256,313,307,2
311,244,313,306,2
312,235,313,304,2
312,229,313,303,2
313,230,312,302,2
314,241,311,302,2
314,259,310,302,2
314,281,309,302,2
313,303,308,302,2
311,324,306,302,2
307,341,304,302,2
306,351,303,302,2
304,356,302,303,2
303,355,301,303,2
303,351,301,303,2
304,344,302,303,2
306,335,304,304,2
308,328,305,305,2
309,323,307,306,2
309,322,307,307,2
309,322,307,309,2
307,324,306,310,2
307,326,307,312,2
306,329,309,312,2
305,331,310,313,2
305,332,310,313,2
305,330,310,312,2
305,326,310,312,2
305,320,309,311,2
306,313,309,308,2
307,306,309,306,2
308,301,311,305,2
309,299,314,306,2
310,300,318,307,2
310,304,319,309,2
309,308,319,311,2
309,312,317,313,2
310,315,314,315,2
310,314,312,315,2
310,311,311,314,2
309,308,310,311,2
308,306,309,310,2
308,306,309,309,2
307,307,308,308,2
306,307,307,307,2
305,308,306,306,2
303,308,305,304,2
303,309,304,304,2
303,310,304,304,2
303,311,303,305,2
302,311,303,304,2
302,311,303,304,2
301,311,303,303,2
301,311,304,303,2
301,309,306,303,2
303,307,308,303,2
304,303,309,304,2
306,298,311,305,2
307,291,312,308,2
309,279,314,311,2
310,263,315,313,2
312,246,316,315,2
314,232,316,316,2
314,225,316,316,2
314,225,314,315,2
313,234,313,314,2
312,251,311,313,2
310,270,309,312,2
309,286,308,312,2
308,298,308,312,2
307,309,307,312,2
306,319,307,312,2
305,328,306,311,2
305,337,305,310,2
305,344,305,309,2
304,349,305,307,2
304,352,306,306,2
302,353,307,306,2
302,352,310,307,2
302,347,313,307,2
302,340,315,308,2
303,332,316,309,2
304,323,316,309,2
306,313,315,310,2
308,306,314,309,2
309,299,314,308,2
310,294,313,308,2
309,291,313,307,2
309,290,312,306,2
309,290,313,305,2
309,294,314,305,2
309,300,313,305,2
309,308,313,306,2
308,316,312,307,2
307,324,310,309,2
306,329,309,311,2
305,331,308,312,2
305,327,308,311,2
305,317,308,311,2
305,301,308,311,2
306,282,309,312,2
307,265,310,313,2
309,253,311,313,2
310,250,311,313,2
309,257,310,313,2
308,274,309,311,2
308,297,309,309,2
307,319,309,308,2
307,336,309,308,2
307,347,309,308,2
306,351,309,307,2
305,352,307,305,2
304,350,306,304,2
303,347,305,304,2
302,344,304,304,2
302,341,303,305,2
303,337,303,305,2
304,334,303,306,2
305,331,303,307,2
305,327,303,308,2
304,323,303,307,2
304,319,303,307,2
304,313,305,305,2
303,306,305,304,2
302,298,304,301,2
302,292,302,299,2
300,289,300,297,2
299,292,299,297,2
299,297,300,297,2
299,304,301,298,2
299,311,302,299,2
300,316,303,301,2
300,319,303,303,2
301,321,303,304,2
302,321,304,305,2
302,321,305,306,2
302,319,305,306,2
302,318,306,306,2
303,316,307,307,2
303,315,308,307,2
304,313,311,307,2
306,312,314,308,2
308,310,316,309,2
310,308,318,310,2
311,304,318,310,2
311,301,317,311,2
310,299,316,312,2
309,298,314,313,2
307,298,311,315,2
306,299,310,316,2
306,302,309,317,2
306,304,309,317,2
306,305,308,317,2
306,307,307,316,2
307,308,307,315,2
307,309,308,315,2
308,309,308,314,2
307,308,307,313,2
307,307,307,313,2
307,306,307,313,2
307,305,307,313,2
307,302,308,313,2
307,300,309,312,2
307,297,309,310,2
307,295,308,308,2
307,295,308,307,2
307,299,308,307,2
307,304,307,307,2
306,308,306,306,2
305,309,304,306,2
304,309,303,306,2
304,307,302,307,2
304,302,303,308,2
305,294,305,309,2
307,284,309,310,2
308,273,312,310,2
309,263,314,310,2
310,255,316,309,2
310,252,316,309,2
311,253,316,310,2
311,261,315,310,2
311,272,314,311,2
310,283,314,313,2
311,292,315,315,2
310,298,315,317,2
310,303,315,317,2
309,310,315,315,2
308,319,313,314,2
307,330,311,313,2
307,340,309,312,2
306,348,308,311,2
306,353,309,310,2
306,355,310,310,2
306,353,311,310,2
306,349,310,309,2
305,344,307,310,2
305,337,304,310,2
305,329,302,310,2
305,318,302,310,2
305,306,303,310,2
305,295,304,311,2
307,285,306,312,2
308,277,308,313,2
309,275,309,314,2
309,280,309,313,2
309,293,307,312,2
306,308,305,310,2
304,320,303,309,2
301,329,302,309,2
300,335,302,309,2
299,337,302,309,2
299,336,302,309,2
299,335,302,310,2
299,333,301,310,2
299,331,301,311,2
300,330,300,311,2
300,328,299,312,2
301,322,298,312,2
301,312,298,312,2
302,298,298,311,2
303,283,298,310,2
305,267,300,310,2
307,255,302,309,2
308,250,303,308,2
309,254,303,307,2
308,268,303,307,2
308,287,303,308,2
308,307,303,310,2
308,323,303,313,2
308,335,303,315,2
308,342,303,318,2
308,346,303,320,2
307,345,304,320,2
308,343,306,319,2
308,339,308,318,2
309,335,309,316,2
309,330,309,315,2
309,325,309,313,2
308,319,309,312,2
307,314,308,310,2
306,312,307,309,2
306,310,307,309,2
307,310,307,310,2
307,310,306,311,2
308,311,304,312,2
307,312,303,312,2
307,313,302,312,2
306,312,302,311,2
305,310,304,309,2
305,307,306,308,2
305,305,308,306,2
305,304,310,306,2
306,306,311,305,2
306,308,312,305,2
306,311,312,306,2
305,315,311,307,2
304,318,310,308,2
303,321,310,310,2
303,323,310,311,2
304,323,311,311,2
305,321,312,310,2
306,318,313,309,2
308,313,314,307,2
309,307,314,306,2
308,302,312,305,2
308,297,310,304,2
307,292,308,304,2
307,288,308,305,2
306,284,307,305,2
306,281,306,305,2
306,276,306,306,2
307,269,306,307,2
308,261,306,306,2
309,254,307,305,2
308,251,307,305,2
308,252,307,306,2
308,257,308,307,2
308,269,308,309,2
308,285,307,310,2
307,300,306,310,2
306,311,305,311,2
306,317,305,312,2
307,320,304,313,2
308,320,304,314,2
308,319,305,314,2
309,318,306,314,2
310,319,307,314,2
310,321,307,313,2
310,323,309,313,2
310,324,310,313,2
310,324,312,313,2
310,323,312,313,2
310,319,312,314,2
310,315,312,315,2
309,311,311,316,2
309,308,310,316,2
310,306,309,316,2
309,307,308,316,2
309,312,308,315,2
309,318,308,315,2
309,324,307,315,2
310,328,307,315,2
309,330,306,314,2
309,329,305,313,2
308,327,305,311,2
306,323,304,308,2
304,321,304,305,2
303,320,304,304,2
302,320,303,303,2
303,322,304,301,2
304,325,306,302,2
305,327,309,303,2
306,327,311,306,2
307,326,314,308,2
309,324,315,309,2
309,320,315,310,2
309,314,315,311,2
308,307,314,311,2
308,301,312,312,2
308,296,310,313,2
309,293,309,313,2
308,292,309,312,2
308,294,309,311,2
308,299,309,310,2
308,305,309,310,2
308,308,309,310,2
307,309,309,310,2
307,306,308,310,2
306,304,308,310,2
306,300,307,311,2
305,295,307,311,2
305,288,305,310,2
304,281,304,310,2
304,275,303,309,2
305,273,304,309,2
306,277,305,310,2
306,284,307,311,2
306,293,310,311,2
305,304,311,310,2
304,313,312,309,2
302,320,312,307,2
302,324,311,305,2
302,326,311,305,2
303,327,311,304,2
303,329,311,304,2
304,329,312,305,2
305,328,312,305,2
305,325,312,306,2
305,321,312,307,2
305,316,313,309,2
305,313,313,311,2
305,311,314,313,2
304,309,314,313,2
304,310,314,312,2
302,313,313,311,2
301,316,311,310,2
300,318,310,309,2
300,318,309,309,2
300,316,308,309,2
300,313,307,310,2
300,308,306,311,2
300,303,305,312,2
299,297,304,311,2
298,292,303,310,2
298,287,302,310,2
298,282,302,309,2
298,278,302,308,2
299,277,301,308,2
300,278,301,308,2
300,279,301,308,2
300,283,300,308,2
300,289,299,306,2
299,299,299,304,2
300,308,301,302,2
300,315,304,301,2
301,320,306,301,2
302,323,307,302,2
303,325,307,304,2
305,325,307,306,2
306,325,308,308,2
307,323,309,310,2
307,320,309,311,2
307,317,310,311,2
305,313,310,312,2
305,309,309,312,2
305,304,309,313,2
306,296,309,313,2
306,286,309,313,2
307,275,309,312,2
307,267,310,310,2
308,262,310,309,2
309,263,311,308,2
310,269,312,307,2
309,281,312,308,2
308,294,311,309,2
306,305,311,309,2
304,315,309,309,2
302,323,307,310,2
301,331,305,310,2
301,336,304,311,2
300,339,304,311,2
301,339,304,312,2
302,338,305,311,2
304,335,306,310,2
305,330,306,309,2
306,326,306,308,2
307,320,306,308,2
308,313,307,307,2
309,306,308,307,2
309,299,308,306,2
309,293,308,306,2
309,288,308,306,2
308,286,308,305,2
307,288,308,305,2
307,291,309,307,2
308,293,311,309,2
309,293,313,311,2
309,291,313,312,2
309,288,312,313,2
308,287,310,313,2
307,288,308,312,2
306,294,306,310,2
305,301,304,309,2
304,308,302,308,2
303,313,301,307,2
302,316,299,307,2
301,317,297,306,2
301,317,296,305,2
300,316,295,304,2
300,314,295,303,2
300,311,296,302,2
301,307,297,302,2
302,302,300,301,2
303,298,303,301,2
304,294,305,302,2
304,285,307,302,2
304,274,307,303,2
305,263,308,304,2
305,255,309,305,2
306,251,309,306,2
306,256,308,308,2
308,267,307,309,2
308,284,306,311,2
308,303,306,313,2
308,321,305,313,2
307,335,303,313,2
306,342,302,313,2
304,347,300,312,2
303,350,299,312,2
303,349,299,312,2
302,346,300,312,2
302,341,301,312,2
302,333,302,312,2
303,324,301,311,2
303,315,300,310,2
303,307,300,309,2
304,302,300,308,2
304,300,300,309,2
303,303,300,309,2
303,308,300,310,2
301,312,300,309,2
300,313,301,308,2
300,311,302,306,2
300,309,304,303,2
301,306,305,302,2
303,303,307,301,2
304,300,307,300,2
305,298,309,301,2
306,297,310,302,2
306,297,311,303,2
307,300,311,305,2
307,303,311,307,2
307,308,310,308,2
307,312,309,309,2
307,313,308,310,2
307,312,306,310,2
307,308,305,310,2
308,302,305,310,2
308,295,304,309,2
309,289,306,307,2
309,285,307,306,2
309,284,309,306,2
308,286,310,307,2
307,290,312,308,2
305,297,312,310,2
304,306,312,311,2
303,316,311,312,2
303,322,310,313,2
303,326,309,312,2
303,327,307,310,2
303,326,307,308,2
304,325,306,306,2
304,324,305,305,2
305,322,304,303,2
306,320,304,303,2
307,317,304,302,2
309,310,305,303,2
311,302,308,304,2
312,294,311,306,2
313,285,313,307,2
314,276,314,309,2
313,269,312,311,2
312,266,309,313,2
311,267,305,314,2
310,270,302,315,2
309,273,300,315,2
308,279,299,313,2
307,289,299,311,2
305,302,300,309,2
304,315,302,307,2
304,326,304,307,2
304,334,307,306,2
305,338,309,306,2
306,337,310,306,2
305,333,309,304,2
304,329,308,303,2
304,325,307,301,2
304,323,307,301,2
304,322,306,300,2
304,320,306,300,2
304,319,306,300,2
304,316,306,300,2
304,311,306,300,2
303,306,306,300,2
303,302,306,301,2
304,301,307,303,2
304,302,307,304,2
305,302,307,304,2
305,306,307,304,2
305,310,306,303,2
305,314,306,303,2
304,316,306,303,2
304,315,307,303,2
304,315,307,304,2
304,315,308,305,2
305,314,309,306,2
306,313,311,307,2
307,311,313,308,2
308,307,312,309,2
308,304,312,309,2
307,302,311,310,2
306,300,310,310,2
304,299,308,309,2
303,298,308,308,2
303,295,310,307,2
303,292,313,307,2
304,291,314,306,2
305,295,314,306,2
305,303,313,306,2
304,312,309,305,2
302,320,304,304,2
300,326,299,303,2
299,328,295,301,2
300,323,293,299,2
300,312,291,298,2
301,297,289,297,2
302,282,290,297,2
304,269,292,298,2
307,261,296,299,2
309,257,302,302,2
311,259,307,303,2
310,267,310,303,2
307,280,310,301,2
304,296,309,301,2
302,313,307,300,2
301,327,307,299,2
300,336,307,299,2
300,340,307,299,2
301,340,307,299,2
302,339,307,300,2
303,337,307,300,2
303,336,306,300,2
303,334,306,300,2
304,335,306,301,2
304,336,306,302,2
304,337,305,304,2
305,337,305,306,2
306,336,305,307,2
307,332,306,308,2
308,329,307,308,2
308,325,308,308,2
308,322,310,307,2
308,320,310,307,2
307,319,310,305,2
307,318,309,304,2
306,317,309,303,2
304,316,309,302,2
303,315,309,301,2
302,315,309,300,2
301,314,309,300,2
301,313,308,300,2
301,311,308,299,2
301,308,308,299,2
301,304,309,298,2
302,298,309,299,2
303,289,309,300,2
304,279,311,301,2
306,268,312,303,2
307,259,313,304,2
308,253,314,305,2
310,252,315,305,2
310,257,316,305,2
309,268,316,304,2
308,282,316,303,2
306,297,316,303,2
305,311,315,302,2
304,323,313,303,2
303,330,310,304,2
304,332,308,304,2
304,330,306,305,2
305,325,306,304,2
306,319,305,303,2
307,311,305,302,2
308,302,305,300,2
308,295,305,299,2
309,288,305,298,2
309,283,304,298,2
309,280,303,299,2
309,280,302,299,2
308,284,302,301,2
307,291,301,301,2
306,298,299,300,2
305,307,299,300,2
304,316,299,299,2
303,324,299,299,2
303,329,300,299,2
303,332,302,299,2
304,335,302,299,2
304,336,301,299,2
304,335,299,300,2
305,332,297,299,2
306,326,296,298,2
307,318,296,296,2
308,310,297,296,2
309,302,299,296,2
310,295,302,296,2
309,292,303,297,2
309,293,304,298,2
308,299,303,299,2
307,305,303,300,2
305,311,302,301,2
305,317,302,303,2
304,321,302,304,2
304,323,302,305,2
304,325,302,306,2
304,325,302,307,2
304,324,302,308,2
304,321,301,308,2
303,316,301,308,2
303,305,301,309,2
304,291,300,310,2
304,274,301,310,2
304,258,301,310,2
304,247,302,309,2
304,246,303,309,2
303,256,304,308,2
301,274,304,307,2
300,297,304,305,2
299,317,303,303,2
298,332,303,303,2
298,341,303,304,2
300,344,304,305,2
301,342,305,306,2
301,335,305,307,2
302,326,305,307,2
303,317,304,307,2
303,308,303,306,2
304,302,302,305,2
305,296,302,304,2
307,292,302,304,2
308,289,302,305,2
309,290,303,305,2
308,295,303,305,2
307,302,304,305,2
306,311,304,305,2
306,320,305,305,2
305,326,306,305,2
305,329,306,305,2
305,329,306,304,2
305,329,305,304,2
306,326,303,303,2
306,323,301,302,2
306,319,300,301,2
306,315,299,301,2
306,313,300,301,2
306,310,301,303,2
307,307,303,304,2
307,304,304,307,2
308,302,304,309,2
308,302,304,310,2
308,301,304,311,2
308,301,304,310,2
307,301,304,308,2
307,301,304,309,2
307,303,305,310,2
308,304,306,311,2
307,303,307,311,2
306,301,307,312,2
305,301,308,312,2
306,303,310,313,2
307,307,311,314,2
307,311,313,315,2
308,315,314,315,2
307,317,313,313,2
305,317,309,311,2
304,317,305,308,2
304,316,302,304,2
303,314,299,300,2
302,310,297,297,2
303,305,296,296,2
304,299,297,297,2
305,291,300,298,2
306,281,302,299,2
306,271,303,300,2
306,265,304,302,2
307,267,304,303,2
307,275,304,305,2
308,288,304,307,2
307,304,304,309,2
306,319,303,309,2
304,330,302,308,2
302,336,301,306,2
300,338,300,305,2
300,338,299,305,2
300,339,299,306,2
301,338,300,308,2
302,335,302,309,2
303,330,304,309,2
304,323,306,308,2
305,315,307,305,2
305,308,307,302,2
306,303,307,300,2
306,302,307,299,2
307,303,307,298,2
307,305,307,298,2
308,304,308,299,2
308,300,308,300,2
308,295,309,301,2
308,288,308,302,2
308,283,308,303,2
309,281,308,304,2
309,282,308,304,2
310,286,307,304,2
309,294,306,304,2
308,300,305,303,2
307,303,304,301,2
306,303,304,300,2
306,300,303,298,2
306,299,304,297,2
306,300,304,297,2
306,304,304,297,2
305,309,304,297,2
305,313,304,299,2
304,317,305,301,2
304,319,305,304,2
304,320,305,307,2
305,320,306,310,2
305,318,306,312,2
306,316,307,313,2
306,314,308,313,2
307,312,310,314,2
310,310,313,314,2
311,306,315,313,2
311,301,316,312,2
309,298,314,311,2
307,297,310,310,2
305,300,306,310,2
304,307,303,309,2
304,316,301,309,2
304,325,302,309,2
304,329,303,309,2
304,328,305,309,2
304,321,306,309,2
304,312,306,309,2
304,304,306,309,2
304,298,305,309,2
304,298,305,308,2
305,301,306,309,2
306,307,306,310,2
306,312,307,312,2
307,314,308,313,2
307,315,309,314,2
308,316,311,315,2
308,315,311,314,2
307,314,310,311,2
307,313,308,308,2
307,311,306,305,2
306,309,304,302,2
305,306,303,299,2
305,304,303,298,2
305,303,304,297,2
306,304,304,297,2
306,307,305,297,2
306,308,305,297,2
306,307,305,298,2
307,306,306,299,2
307,304,306,301,2
307,302,307,302,2
307,302,307,304,2
307,302,307,306,2
307,303,306,307,2
306,305,305,307,2
305,305,303,305,2
304,303,302,303,2
303,302,302,301,2
304,301,304,300,2
304,301,306,300,2
305,303,307,301,2
305,307,309,303,2
305,312,310,305,2
305,315,310,308,2
304,316,309,309,2
303,316,308,310,2
303,317,307,310,2
303,317,307,310,2
303,318,307,311,2
304,318,309,312,2
305,317,311,314,2
305,316,312,315,2
305,313,313,316,2
306,310,313,317,2
307,304,312,317,2
308,295,311,316,2
308,283,311,315,2
308,269,310,314,2
309,259,311,314,2
310,251,312,313,2
311,247,313,311,2
311,248,313,308,2
309,257,313,305,2
308,273,312,304,2
306,291,311,304,2
305,305,310,304,2
304,313,309,304,2
304,315,309,303,2
305,313,309,303,2
306,310,310,303,2
307,309,311,304,2
308,311,311,304,2
308,319,310,305,2
308,331,308,308,2
308,343,306,310,2
307,351,304,310,2
306,355,303,310,2
305,358,303,310,2
304,358,306,310,2
305,353,310,310,2
305,345,313,310,2
306,337,316,309,2
307,329,317,308,2
308,323,317,308,2
307,318,316,308,2
307,313,313,307,2
306,309,312,307,2
306,308,311,306,2
306,309,310,305,2
307,311,311,305,2
306,312,310,304,2
306,312,309,304,2
306,312,308,304,2
306,312,308,304,2
307,312,308,304,2
307,310,308,304,2
308,308,308,304,2
309,304,308,305,2
309,301,307,305,2
310,297,306,304,2
309,294,304,304,2
310,289,304,304,2
310,286,303,305,2
311,282,303,306,2
312,278,303,308,2
313,273,304,309,2
313,268,304,309,2
313,264,305,309,2
313,263,306,308,2
314,266,308,307,2
314,273,309,306,2
313,286,309,304,2
311,301,308,302,2
308,315,306,300,2
306,323,305,299,2
305,324,305,299,2
305,320,305,300,2
306,313,306,302,2
307,305,307,304,2
308,298,307,306,2
310,298,307,309,2
310,303,307,311,2
311,313,307,311,2
310,319,306,311,2
310,321,306,310,2
311,320,305,310,2
311,318,306,308,2
311,317,305,307,2
311,316,305,306,2
311,315,305,305,2
311,312,304,304,2
310,309,304,304,2
310,304,303,304,2
310,297,302,304,2
310,291,302,304,2
310,287,302,305,2
310,285,302,306,2
311,288,302,307,2
311,293,301,308,2
311,303,300,308,2
311,313,298,308,2
310,323,297,307,2
309,330,296,305,2
308,336,297,303,2
307,339,300,302,2
307,341,304,302,2
307,341,307,301,2
307,341,309,301,2
307,341,309,301,2
307,339,308,300,2
306,335,306,300,2
305,330,303,300,2
305,324,302,301,2
305,320,302,302,2
307,315,303,303,2
307,309,306,305,2
308,302,307,306,2
309,293,309,307,2
309,283,309,308,2
309,276,309,310,2
309,273,309,312,2
310,275,310,314,2
310,281,310,315,2
310,291,311,315,2
309,304,311,315,2
309,315,310,314,2
308,320,309,313,2
308,319,309,312,2
307,315,308,312,2
307,308,307,312,2
306,301,307,312,2
305,297,306,313,2
305,297,306,313,2
304,301,306,313,2
304,304,305,313,2
304,305,305,313,2
304,305,304,313,2
304,304,303,313,2
305,304,303,313,2
306,304,304,313,2
307,304,305,313,2
308,302,306,312,2
309,300,308,311,2
309,297,309,309,2
309,296,310,307,2
308,296,311,307,2
307,298,311,307,2
307,299,310,307,2
306,303,308,306,2
305,309,306,306,2
304,315,304,307,2
304,321,303,309,2
304,327,303,311,2
305,332,304,313,2
305,335,303,315,2
306,334,303,316,2
306,328,303,316,2
307,319,303,316,2
307,309,302,315,2
308,299,302,314,2
309,293,302,314,2
310,291,302,314,2
309,291,301,313,2
308,293,299,312,2
306,297,298,312,2
305,301,297,311,2
305,305,297,310,2
305,309,297,310,2
307,311,299,311,2
308,312,301,313,2
309,312,302,316,2
310,310,303,318,2
310,308,304,318,2
310,305,303,317,2
309,303,303,315,2
308,301,303,313,2
307,300,303,311,2
307,301,303,309,2
306,300,303,307,2
306,295,304,307,2
306,288,306,306,2
306,280,309,306,2
307,273,312,305,2
308,269,313,305,2
308,275,312,305,2
308,287,310,305,2
306,302,309,305,2
305,316,308,306,2
305,328,309,307,2
305,335,309,309,2
305,338,310,310,2
306,337,310,310,2
307,334,310,311,2
307,329,309,311,2
308,324,308,312,2
309,319,308,312,2
309,314,307,313,2
308,309,305,313,2
307,305,303,312,2
305,301,302,311,2
304,299,300,309,2
303,299,299,307,2
302,302,299,305,2
303,305,299,303,2
303,304,299,301,2
303,301,301,299,2
303,299,302,298,2
304,297,303,298,2
304,296,304,299,2
305,297,304,301,2
306,298,304,303,2
307,298,304,304,2
309,296,304,305,2
310,294,305,306,2
310,293,304,307,2
309,295,303,306,2
309,298,302,305,2
307,306,300,305,2
307,315,299,305,2
307,323,300,305,2
307,328,303,306,2
308,330,306,306,2
309,328,309,307,2
309,323,310,307,2
310,316,311,309,2
311,308,312,310,2
311,301,313,312,2
311,296,312,314,2
311,295,311,316,2
310,297,310,318,2
310,300,310,319,2
310,304,309,318,2
309,310,308,317,2
308,315,307,316,2
308,317,306,315,2
307,318,306,314,2
306,319,306,315,2
306,320,306,314,2
305,319,305,312,2
304,320,305,310,2
303,322,305,309,2
304,322,305,308,2
305,319,304,306,2
305,314,304,305,2
306,309,303,305,2
307,304,303,305,2
308,302,303,306,2
309,301,302,308,2
309,302,301,310,2
309,302,300,312,2
309,301,299,312,2
308,299,299,313,2
307,297,300,314,2
307,297,302,315,2
307,297,305,316,2
306,300,308,316,2
306,303,308,316,2
306,305,308,316,2
306,304,306,315,2
307,302,305,314,2
308,299,305,313,2
308,295,304,312,2
309,294,303,312,2
308,296,303,312,2
308,302,303,311,2
308,308,304,311,2
307,312,305,310,2
307,313,306,310,2
308,311,308,310,2
308,307,309,311,2
309,305,311,312,2
308,303,312,314,2
307,306,311,316,2
306,314,310,318,2
304,325,309,319,2
303,333,308,318,2
303,333,307,318,2
302,326,307,317,2
303,317,306,316,2
303,308,305,315,2
304,303,304,314,2
305,303,303,314,2
306,306,303,312,2
307,312,302,311,2
307,321,302,311,2
308,328,303,311,2
308,330,303,309,2
308,326,303,308,2
308,321,303,306,2
308,316,303,305,2
306,311,302,304,2
306,307,302,304,2
305,307,302,303,2
304,310,302,303,2
304,314,302,304,2
304,317,302,304,2
304,320,302,305,2
304,322,301,306,2
304,322,301,306,2
304,321,302,306,2
304,318,303,308,2
305,315,305,310,2
306,312,306,312,2
307,309,306,313,2
308,307,307,313,2
308,308,307,313,2
307,310,307,312,2
306,312,307,313,2
306,313,307,314,2
305,313,307,315,2
305,312,306,315,2
305,309,306,316,2
305,306,306,316,2
305,302,305,316,2
305,298,304,315,2
305,294,302,314,2
305,291,301,313,2
305,291,300,311,2
303,289,299,309,2
302,288,299,308,2
301,287,299,307,2
300,290,300,307,2
300,293,301,309,2
300,296,303,310,2
301,300,304,312,2
301,304,306,313,2
302,309,308,313,2
302,312,309,313,2
302,315,309,315,2
303,316,309,316,2
303,317,309,316,2
303,317,308,315,2
303,317,307,315,2
304,319,307,313,2
304,321,306,313,2
303,322,305,312,2
303,321,304,311,2
302,319,303,309,2
301,315,303,308,2
301,309,304,307,2
301,302,304,307,2
301,293,305,307,2
302,285,306,307,2
303,281,307,306,2
305,282,307,306,2
305,288,307,305,2
306,301,307,306,2
306,315,307,308,2
306,325,306,309,2
305,329,304,310,2
304,330,304,312,2
303,328,304,314,2
303,324,305,316,2
302,319,306,317,2
302,314,308,317,2
302,312,310,317,2
303,310,311,317,2
303,307,311,317,2
303,303,310,315,2
303,300,309,313,2
303,298,309,311,2
302,294,309,309,2
303,288,308,308,2
304,283,307,307,2
305,278,308,306,2
306,276,308,305,2
305,278,308,305,2
304,282,309,304,2
303,291,309,304,2
302,301,309,305,2
301,309,309,306,2
300,314,307,307,2
300,315,306,308,2
299,313,304,307,2
299,312,303,307,2
300,312,303,306,2
301,312,304,306,2
303,310,306,306,2
304,304,307,306,2
305,297,309,306,2
306,290,310,306,2
307,285,310,307,2
308,282,310,307,2
308,284,308,308,2
307,292,305,308,2
304,303,302,307,2
301,315,299,307,2
299,323,299,307,2
298,326,299,307,2
298,327,301,308,2
298,325,304,309,2
299,322,307,310,2
300,319,309,312,2
301,316,310,313,2
302,316,309,315,2
302,316,308,315,2
302,316,307,314,2
302,314,306,313,2
302,312,305,311,2
302,309,305,309,2
303,305,307,307,2
303,301,308,305,2
304,297,308,303,2
304,293,308,301,2
304,292,306,300,2
304,292,306,299,2
305,296,305,298,2
305,301,304,298,2
305,304,305,300,2
305,304,305,302,2
305,303,305,305,2
305,300,305,308,2
305,294,306,311,2
305,285,307,312,2
305,275,307,311,2
305,268,308,311,2
305,266,309,311,2
306,270,311,311,2
307,280,312,311,2
306,295,312,311,2
304,309,311,310,2
302,319,309,309,2
301,323,306,307,2
299,324,304,305,2
297,322,302,303,2
297,320,300,302,2
296,319,298,300,2
297,318,297,301,2
297,317,296,302,2
298,315,297,304,2
300,312,300,306,2
301,307,302,308,2
302,302,305,310,2
303,298,308,311,2
304,296,310,312,2
304,298,311,312,2
303,306,312,313,2
303,315,313,313,2
301,325,313,313,2
300,332,313,313,2
299,334,313,314,2
299,334,313,314,2
299,332,312,313,2
299,329,311,311,2
300,327,309,308,2
299,325,308,306,2
299,324,306,304,2
299,322,305,303,2
299,319,305,302,2
300,316,306,302,2
300,313,306,302,2
301,310,307,303,2
301,308,307,304,2
302,307,307,304,2
302,307,307,303,2
302,306,306,302,2
301,305,304,301,2
301,303,302,300,2
300,299,300,301,2
301,293,298,302,2
301,286,298,303,2
302,280,298,304,2
303,275,298,305,2
303,274,298,306,2
303,278,298,307,2
303,286,300,309,2
303,295,302,311,2
304,303,305,311,2
304,310,307,313,2
306,315,309,314,2
307,319,311,315,2
308,324,312,316,2
309,328,312,317,2
309,328,311,317,2
309,325,311,315,2
309,320,311,313,2
308,314,310,311,2
308,307,310,308,2
308,302,309,307,2
309,301,309,305,2
309,304,309,304,2
309,309,308,303,2
308,313,308,301,2
309,315,307,302,2
309,314,307,302,2
309,309,307,302,2
308,303,305,303,2
308,298,304,303,2
307,295,303,304,2
306,293,302,304,2
305,293,301,304,2
302,295,299,302,2
301,296,298,302,2
300,296,297,302,2
300,294,297,302,2
300,292,298,302,2
301,293,298,302,2
301,297,298,303,2
301,304,297,303,2
301,310,297,303,2
301,315,298,304,2
302,318,299,305,2
303,319,301,307,2
304,317,302,308,2
304,311,304,308,2
305,303,305,309,2
306,295,306,309,2
307,288,306,309,2
307,284,307,309,2
308,286,307,310,2
308,293,308,311,2
308,303,308,311,2
308,314,308,311,2
307,321,308,311,2
307,326,308,310,2
306,327,307,310,2
305,325,307,310,2
305,321,307,309,2
304,317,307,310,2
303,313,307,310,2
302,308,306,310,2
302,304,305,309,2
301,299,304,308,2
301,296,303,307,2
301,295,302,307,2
301,295,301,306,2
301,295,301,306,2
301,294,302,305,2
301,295,302,306,2
302,300,302,307,2
302,307,302,307,2
301,313,303,307,2
301,318,303,306,2
300,322,305,306,2
300,325,308,306,2
300,328,310,307,2
299,332,311,307,2
300,335,312,307,2
300,337,312,307,2
300,338,311,308,2
301,338,311,309,2
301,339,310,311,2
301,339,310,313,2
302,338,310,314,2
303,335,310,316,2
304,328,311,315,2
305,318,312,314,2
306,307,313,313,2
307,296,313,312,2
307,285,313,312,2
308,276,312,311,2
308,272,313,311,2
307,272,314,310,2
307,277,315,310,2
306,281,316,311,2
306,285,316,311,2
305,287,315,312,2
304,288,314,312,2
303,288,311,312,2
303,289,310,312,2
302,290,309,311,2
302,292,308,311,2
302,295,308,310,2
301,298,306,310,2
301,303,306,310,2
301,309,306,311,2
301,317,308,312,2
300,324,309,313,2
300,328,310,313,2
300,330,311,313,2
300,331,310,312,2
301,330,309,311,2
301,327,309,310,2
302,323,309,308,2
302,321,308,307,2
302,319,308,306,2
302,317,307,306,2
303,314,305,306,2
302,309,304,306,2
303,303,302,307,2
303,298,301,308,2
303,294,301,308,2
304,293,301,309,2
304,295,302,309,2
305,297,302,309,2
307,300,303,310,2
308,302,304,310,2
310,302,305,312,2
312,300,306,312,2
312,298,307,312,2
312,296,307,312,2
312,294,308,312,2
312,291,310,311,2
313,286,311,312,2
314,283,312,313,2
314,282,311,313,2
313,285,309,314,2
313,288,307,313,2
312,292,304,313,2
311,295,303,312,2
310,301,302,312,2
309,304,301,312,2
309,304,300,312,2
310,300,299,311,2
310,294,298,310,2
311,288,299,310,2
312,284,301,310,2
312,281,303,310,2
312,282,306,310,2
312,284,308,311,2
312,287,309,311,2
311,291,310,313,2
310,296,310,313,2
310,303,310,313,2
310,312,311,313,2
310,320,312,314,2
310,327,313,314,2
310,333,313,315,2
310,336,312,316,2
310,339,311,316,2
310,340,309,317,2
310,339,308,316,2
310,336,307,314,2
310,334,307,313,2
310,332,308,313,2
310,328,308,313,2
311,323,308,312,2
310,318,307,312,2
310,313,305,311,2
309,308,304,311,2
308,302,304,311,2
308,297,304,311,2
308,291,306,312,2
308,286,306,312,2
308,283,306,312,2
308,280,306,311,2
307,278,306,310,2
307,275,306,309,2
306,272,307,308,2
307,272,307,307,2
306,275,308,306,2
305,283,308,305,2
305,295,308,305,2
304,308,306,304,2
303,320,305,304,2
302,329,303,304,2
302,335,301,304,2
302,336,300,306,2
303,335,300,307,2
303,333,300,307,2
304,332,301,307,2
305,332,302,308,2
306,332,304,309,2
306,333,306,310,2
306,333,308,311,2
306,332,309,311,2
306,329,310,311,2
305,326,310,310,2
305,323,309,308,2
305,320,309,307,2
304,315,308,305,2
305,308,308,304,2
305,298,307,303,2
305,287,306,302,2
305,273,306,302,2
305,260,304,302,2
306,251,303,302,2
306,250,301,303,2
306,256,300,304,2
307,266,300,306,2
306,280,300,307,2
306,296,299,308,2
305,311,299,309,2
305,322,299,311,2
305,330,300,312,2
305,335,303,312,2
305,337,306,311,2
306,334,308,310,2
306,329,309,309,2
306,322,310,308,2
307,315,311,307,2
307,309,312,308,2
308,305,312,308,2
309,303,313,308,2
308,302,313,308,2
308,301,313,307,2
307,299,313,306,2
306,295,313,305,2
307,289,314,305,2
308,282,315,306,2
309,274,315,306,2
310,266,316,306,2
311,261,316,305,2
311,263,316,305,2
311,273,316,306,2
310,289,314,308,2
308,310,312,308,2
305,328,310,309,2
302,339,308,308,2
300,344,306,307,2
299,344,306,306,2
298,343,306,305,2
298,340,306,303,2
298,336,306,302,2
298,331,305,300,2
297,326,304,298,2
297,320,304,296,2
297,314,303,296,2
298,308,304,295,2
299,304,305,296,2
301,298,306,296,2
303,291,307,297,2
304,282,308,300,2
306,269,310,302,2
308,253,311,304,2
309,239,312,307,2
310,231,313,310,2
310,234,314,313,2
309,244,314,314,2
308,258,313,315,2
308,275,313,315,2
309,295,313,315,2
309,317,313,315,2
309,338,313,317,2
308,352,313,318,2
308,356,314,319,2
307,353,315,320,2
307,348,317,320,2
307,342,318,318,2
306,336,318,317,2
306,332,316,315,2
306,330,314,314,2
307,329,312,313,2
308,327,311,313,2
309,321,311,312,2
311,312,312,312,2
311,300,313,311,2
311,286,313,310,2
310,276,313,310,2
309,274,312,309,2
307,280,311,307,2
305,293,309,305,2
303,308,305,304,2
302,321,303,303,2
302,328,300,302,2
301,330,298,300,2
301,327,297,298,2
302,321,298,296,2
302,314,301,295,2
304,307,303,295,2
305,301,306,296,2
307,297,308,298,2
308,297,309,300,2
308,300,309,302,2
308,307,309,304,2
308,313,309,304,2
307,314,308,304,2
306,310,308,304,2
306,304,309,305,2
306,299,309,306,2
306,293,309,308,2
307,288,309,308,2
308,287,308,306,2
308,290,309,303,2
308,297,308,302,2
307,302,307,301,2
306,304,305,300,2
304,303,304,300,2
302,304,304,299,2
301,307,303,298,2
301,310,303,298,2
302,311,303,298,2
303,309,302,299,2
303,304,301,299,2
303,300,301,298,2
303,296,302,298,2
304,292,302,297,2
304,287,303,296,2
304,282,304,295,2
305,281,304,296,2
306,284,305,298,2
307,290,306,302,2
308,300,307,306,2
309,309,308,310,2
309,315,308,314,2
308,316,307,316,2
307,315,306,317,2
307,313,305,317,2
306,312,305,316,2
306,311,304,315,2
306,311,306,314,2
307,311,307,313,2
307,309,308,313,2
309,305,309,312,2
310,302,311,312,2
312,300,312,312,2
313,301,314,313,2
314,305,315,314,2
314,314,315,314,2
313,323,315,314,2
312,330,314,313,2
310,335,313,313,2
309,339,311,312,2
308,342,310,312,2
308,344,309,313,2
307,344,308,313,2
307,341,308,313,2
306,337,307,313,2
306,334,307,312,2
306,330,307,312,2
307,328,306,311,2
306,326,306,310,2
306,323,306,309,2
306,320,306,309,2
306,318,307,309,2
305,316,306,310,2
305,315,306,310,2
303,313,307,309,2
303,312,308,307,2
303,312,310,304,2
303,313,312,303,2
303,314,313,301,2
304,311,312,300,2
304,304,310,299,2
303,295,309,297,2
303,289,308,296,2
303,286,308,296,2
304,287,309,296,2
304,288,310,297,2
304,288,310,297,2
303,288,309,298,2
303,289,309,300,2
303,291,309,303,2
303,294,309,306,2
304,296,310,310,2
304,297,311,313,2
305,298,312,316,2
305,297,313,317,2
305,296,313,318,2
305,293,312,317,2
305,288,312,315,2
305,281,311,312,2
305,274,309,310,2
305,269,308,307,2
305,270,308,305,2
305,276,307,304,2
305,286,307,304,2
305,296,306,304,2
303,303,306,305,2
303,305,306,306,2
303,306,306,307,2
303,306,306,307,2
304,307,305,308,2
304,309,305,308,2
304,311,304,309,2
304,313,304,309,2
304,313,304,309,2
304,313,304,309,2
304,312,304,309,2
305,310,305,310,2
305,308,305,310,2
305,305,304,310,2
306,300,303,309,2
305,296,303,309,2
305,296,302,308,2
304,299,301,307,2
303,303,301,307,2
302,310,301,307,2
301,318,301,307,2
301,326,301,308,2
300,334,300,308,2
300,339,300,309,2
301,339,301,309,2
301,336,301,309,2
302,330,302,309,2
303,323,303,309,2
303,315,303,308,2
303,306,302,308,2
304,298,302,308,2
304,292,301,307,2
304,289,301,306,2
305,290,301,305,2
305,293,300,303,2
304,298,299,301,2
304,304,299,300,2
304,310,299,299,2
305,318,299,300,2
305,324,300,302,2
305,329,300,303,2
305,332,301,304,2
304,333,302,305,2
303,334,302,307,2
303,334,303,309,2
303,332,304,311,2
304,327,305,313,2
305,322,305,315,2
305,316,305,317,2
305,311,304,318,2
304,306,303,319,2
303,300,303,319,2
303,294,304,318,2
302,288,304,315,2
302,283,304,313,2
302,276,304,310,2
302,266,304,308,2
303,256,304,306,2
303,247,304,305,2
304,240,305,303,2
306,238,306,303,2
307,245,307,304,2
308,261,308,304,2
309,281,309,303,2
309,301,308,300,2
308,318,307,298,2
307,330,306,296,2
307,338,304,295,2
306,342,303,295,2
307,343,303,295,2
307,341,303,295,2
307,337,302,295,2
308,332,303,296,2
308,324,304,297,2
309,315,305,297,2
309,304,307,298,2
309,291,307,297,2
309,276,307,297,2
311,261,305,297,2
312,247,304,297,2
313,239,304,298,2
314,240,303,299,2
313,248,304,301,2
312,264,303,302,2
309,288,302,304,2
307,314,301,304,2
304,334,300,305,2
303,346,300,307,2
302,350,300,308,2
302,348,301,309,2
302,342,300,308,2
301,336,300,308,2
301,333,300,306,2
301,333,300,305,2
300,334,299,304,2
299,335,299,301,2
298,334,298,300,2
298,332,298,299,2
298,328,297,298,2
299,324,298,299,2
301,319,299,300,2
302,313,300,301,2
303,308,301,302,2
303,303,303,304,2
304,300,304,306,2
305,299,305,308,2
305,299,305,310,2
306,296,305,311,2
307,292,305,311,2
307,290,304,311,2
307,290,303,311,2
306,292,302,311,2
306,296,301,310,2
306,304,300,310,2
306,313,299,310,2
305,323,298,309,2
304,329,297,308,2
303,332,297,307,2
302,330,299,307,2
303,325,301,307,2
302,319,302,307,2
303,312,303,308,2
303,306,302,309,2
304,300,302,310,2
304,296,302,311,2
304,293,303,312,2
304,293,303,312,2
303,295,302,313,2
303,298,301,314,2
302,305,300,314,2
301,313,301,315,2
300,320,301,316,2
300,323,302,315,2
300,323,303,314,2
301,322,303,313,2
302,318,304,311,2
302,314,304,310,2
303,312,304,309,2
303,310,304,309,2
303,307,304,308,2
303,305,305,308,2
304,302,307,307,2
305,300,308,308,2
307,298,308,310,2
308,298,309,311,2
308,300,308,311,2
308,303,307,311,2
307,309,306,311,2
306,315,305,310,2
305,321,305,310,2
305,326,305,311,2
304,327,304,311,2
304,327,305,311,2
304,325,305,311,2
304,323,306,312,2
305,321,305,311,2
304,319,304,311,2
304,317,304,309,2
304,314,303,308,2
304,310,302,307,2
305,306,302,307,2
306,302,301,307,2
306,301,301,307,2
307,301,302,307,2
307,304,303,308,2
306,306,303,308,2
305,307,304,307,2
305,307,306,307,2
305,306,307,306,2
305,303,307,307,2
306,299,306,308,2
306,293,305,309,2
306,288,304,309,2
305,284,303,308,2
305,280,302,306,2
305,278,303,304,2
305,278,302,303,2
305,281,302,302,2
304,286,301,301,2
304,292,300,300,2
302,299,299,300,2
301,307,297,300,2
301,314,296,300,2
301,317,295,300,2
301,318,295,300,2
301,317,295,301,2
302,316,295,302,2
303,314,295,302,2
303,314,296,303,2
304,313,299,303,2
304,313,302,304,2
304,312,304,304,2
304,310,304,304,2
304,306,304,304,2
305,301,303,304,2
306,297,303,304,2
307,295,303,304,2
309,296,303,306,2
310,298,303,308,2
309,301,304,309,2
310,304,304,310,2
310,306,305,311,2
310,307,306,311,2
310,305,307,311,2
309,303,306,310,2
308,301,305,310,2
308,302,303,310,2
308,304,303,310,2
307,309,302,311,2
306,317,302,311,2
305,323,302,310,2
304,328,302,308,2
303,330,302,307,2
303,333,302,305,2
302,336,303,305,2
303,339,305,306,2
304,341,307,306,2
305,339,308,307,2
306,335,308,307,2
306,328,308,308,2
307,319,307,308,2
306,307,306,307,2
307,292,306,306,2
307,278,306,305,2
307,268,307,305,2
308,260,307,305,2
307,257,306,304,2
307,261,306,303,2
306,269,305,302,2
305,283,304,300,2
304,298,303,299,2
303,313,302,298,2
302,324,302,298,2
302,331,302,298,2
301,336,302,298,2
301,338,302,299,2
300,339,302,301,2
299,339,301,302,2
299,338,301,304,2
299,337,301,304,2
299,334,302,305,2
299,331,302,305,2
299,327,303,306,2
300,322,306,307,2
302,318,308,308,2
303,315,310,309,2
304,313,311,309,2
305,310,312,310,2
305,308,311,310,2
305,305,309,310,2
304,304,307,310,2
304,303,305,310,2
304,302,304,310,2
304,300,302,311,2
305,298,301,312,2
306,294,302,313,2
306,290,303,313,2
306,285,304,312,2
306,279,306,312,2
307,276,309,311,2
308,277,310,311,2
308,281,311,311,2
307,289,310,310,2
306,300,308,309,2
304,310,306,307,2
303,319,303,305,2
302,326,302,303,2
301,331,302,302,2
301,333,301,301,2
301,331,302,301,2
302,328,302,300,2
302,324,303,300,2
303,320,303,301,2
304,318,302,302,2
305,318,302,302,2
305,316,302,303,2
305,314,303,303,2
306,311,303,304,2
306,309,303,305,2
306,305,303,305,2
306,301,304,305,2
306,299,304,306,2
306,299,304,306,2
306,299,305,307,2
307,300,305,307,2
307,301,306,307,2
308,304,306,307,2
310,305,307,308,2
311,304,307,308,2
312,300,306,307,2
311,294,306,304,2
311,288,305,303,2
311,285,305,301,2
310,286,304,301,2
310,291,304,301,2
309,301,304,302,2
309,314,304,303,2
310,325,304,305,2
310,331,304,306,2
311,330,305,307,2
311,325,306,307,2
311,318,306,306,2
310,310,308,306,2
310,305,309,306,2
309,299,310,306,2
308,295,310,306,2
308,290,310,306,2
308,288,308,307,2
309,288,307,308,2
309,292,307,308,2
309,299,307,309,2
309,305,306,310,2
308,309,305,310,2
306,310,304,310,2
306,309,304,311,2
306,305,304,312,2
308,299,304,312,2
309,292,304,313,2
312,286,305,314,2
313,282,306,313,2
313,282,306,313,2
312,285,304,311,2
311,292,302,310,2
309,303,300,309,2
308,315,299,309,2
307,329,299,310,2
307,342,300,310,2
308,353,302,310,2
309,358,305,309,2
309,357,306,309,2
310,349,307,308,2
309,337,307,308,2
308,325,305,309,2
308,315,305,311,2
308,309,306,313,2
309,306,307,314,2
310,307,307,314,2
311,307,308,314,2
312,304,309,313,2
312,298,310,313,2
313,293,311,313,2
314,291,311,313,2
314,292,311,314,2
314,294,311,313,2
314,299,310,312,2
313,305,308,311,2
313,311,307,311,2
312,315,306,311,2
311,317,305,312,2
310,317,303,312,2
308,318,302,313,2
308,318,302,313,2
308,316,301,313,2
308,312,300,312,2
309,307,300,312,2
311,302,301,311,2
312,297,302,310,2
314,292,303,309,2
315,288,303,308,2
315,285,303,306,2
314,284,304,304,2
314,286,303,303,2
313,293,303,303,2
312,303,302,303,2
311,313,302,304,2
309,320,302,305,2
309,322,302,306,2
309,321,303,308,2
309,320,303,310,2
310,321,303,312,2
310,324,303,314,2
310,330,303,316,2
310,334,302,318,2
311,333,302,318,2
310,328,301,317,2
310,320,300,316,2
310,312,300,313,2
309,304,299,311,2
309,298,299,310,2
308,291,300,309,2
307,288,301,310,2
307,290,303,312,2
307,295,304,313,2
306,298,305,314,2
307,298,306,314,2
307,298,306,314,2
307,298,306,314,2
308,299,306,314,2
309,301,306,313,2
309,306,306,313,2
309,313,306,312,2
309,319,306,313,2
308,324,306,313,2
308,326,307,313,2
309,327,307,313,2
309,326,308,312,2
308,321,307,309,2
308,316,307,308,2
308,311,306,307,2
307,306,304,305,2
307,300,303,304,2
307,296,301,304,2
306,294,300,303,2
306,293,299,303,2
306,295,299,303,2
306,299,299,303,2
305,304,300,303,2
305,309,302,304,2
306,311,304,304,2
308,312,307,304,2
308,308,308,303,2
309,303,308,301,2
309,299,307,301,2
309,296,308,301,2
310,295,309,302,2
310,296,310,303,2
309,299,311,303,2
308,301,311,304,2
307,302,312,305,2
307,300,311,306,2
306,295,312,307,2
307,290,311,306,2
307,287,310,305,2
308,286,310,304,2
309,288,310,304,2
309,292,310,302,2
310,298,309,301,2
310,305,309,301,2
310,310,308,302,2
309,311,309,302,2
309,307,309,303,2
308,301,311,303,2
308,293,312,303,2
308,289,313,304,2
308,284,312,305,2
308,283,311,305,2
309,285,311,306,2
308,292,310,306,2
307,301,308,307,2
307,308,307,307,2
306,309,306,307,2
306,305,306,307,2
307,298,306,308,2
307,290,307,309,2
307,284,308,310,2
306,280,308,310,2
304,282,307,310,2
303,289,306,311,2
302,297,305,312,2
301,305,304,312,2
301,313,303,312,2
301,319,303,312,2
301,323,303,311,2
302,324,303,311,2
303,323,304,311,2
304,320,305,312,2
304,319,306,314,2
305,316,307,316,2
305,314,309,317,2
305,311,309,318,2
305,309,310,319,2
306,308,311,320,2
306,306,311,320,2
306,304,311,319,2
306,302,311,318,2
306,301,311,316,2
306,301,310,313,2
306,301,309,310,2
306,301,309,307,2
305,300,308,305,2
304,298,307,303,2
304,296,306,302,2
304,291,306,302,2
304,286,305,302,2
305,282,304,302,2
304,282,303,302,2
304,285,302,303,2
304,291,302,303,2
304,297,302,304,2
305,302,302,305,2
305,305,302,305,2
305,304,301,305,2
306,302,300,306,2
307,300,301,306,2
307,300,303,306,2
306,302,305,305,2
305,304,305,304,2
304,305,306,304,2
304,305,305,303,2
304,303,305,303,2
305,300,306,304,2
305,298,307,305,2
306,296,307,306,2
307,296,307,308,2
307,300,306,309,2
305,308,305,309,2
304,319,303,308,2
302,327,301,307,2
300,331,300,306,2
298,332,299,306,2
298,329,299,306,2
298,325,299,307,2
300,321,300,308,2
301,319,302,309,2
303,317,303,310,2
304,315,304,309,2
304,311,305,309,2
304,307,305,308,2
304,301,305,306,2
304,295,305,305,2
305,290,305,304,2
305,288,305,304,2
306,289,306,305,2
306,292,306,304,2
306,298,306,304,2
305,305,306,304,2
305,310,307,303,2
304,311,306,302,2
303,310,306,300,2
303,309,305,300,2
303,309,304,300,2
304,309,304,301,2
305,309,304,303,2
305,309,304,304,2
305,308,304,305,2
305,306,304,306,2
305,304,303,306,2
304,303,303,304,2
304,301,303,303,2
304,300,303,302,2
304,299,304,301,2
304,298,304,301,2
305,296,304,302,2
305,292,303,302,2
306,287,303,302,2
306,283,303,303,2
306,279,303,304,2
306,277,304,305,2
306,278,304,307,2
306,283,304,308,2
306,289,304,308,2
306,294,305,308,2
306,297,306,308,2
307,298,307,308,2
307,299,308,308,2
308,299,308,309,2
308,301,308,310,2
308,307,308,311,2
307,313,307,312,2
306,318,306,312,2
305,323,305,312,2
306,325,306,312,2
306,324,307,311,2
306,320,308,311,2
306,314,309,310,2
306,307,308,309,2
306,301,306,309,2
305,299,303,308,2
304,304,301,307,2
304,312,299,307,2
303,319,298,307,2
302,325,299,308,2
301,327,300,309,2
301,326,303,311,2
301,323,306,311,2
301,318,308,311,2
301,313,309,311,2
301,310,310,311,2
302,308,310,311,2
302,308,311,310,2
302,310,311,309,2
301,314,310,309,2
301,317,309,308,2
301,318,307,307,2
301,316,306,306,2
302,311,306,305,2
302,304,305,304,2
303,298,305,304,2
303,293,306,303,2
304,290,307,302,2
304,291,308,302,2
304,292,308,302,2
304,292,308,302,2
304,290,308,303,2
304,287,307,304,2
306,283,306,306,2
307,277,307,306,2
308,271,307,306,2
308,266,307,306,2
308,264,307,306,2
308,266,307,305,2
307,271,306,304,2
306,281,305,304,2
305,295,304,304,2
304,312,304,305,2
303,325,303,306,2
303,335,302,307,2
303,342,302,308,2
304,347,302,307,2
304,350,303,306,2
304,350,303,305,2
304,347,304,304,2
304,342,305,303,2
304,336,305,303,2
305,330,305,303,2
305,326,306,303,2
305,323,306,302,2
305,318,306,302,2
305,312,306,301,2
305,305,306,301,2
305,299,306,301,2
305,296,306,302,2
305,298,306,305,2
305,302,307,308,2
306,308,308,310,2
306,312,309,312,2
306,313,309,313,2
306,312,309,314,2
307,310,309,314,2
307,308,309,313,2
307,306,308,312,2
307,306,308,311,2
307,307,307,310,2
307,308,306,308,2
307,308,305,308,2
306,307,305,307,2
306,304,305,307,2
304,303,305,306,2
304,300,305,306,2
304,296,306,307,2
304,290,307,307,2
305,284,308,308,2
306,281,310,310,2
307,283,312,310,2
307,289,315,311,2
306,299,317,311,2
305,310,316,310,2
304,320,315,309,2
303,327,313,308,2
303,332,312,307,2
303,334,311,307,2
303,332,311,307,2
303,328,311,306,2
304,322,310,305,2
304,314,310,304,2
304,304,309,304,2
303,296,309,302,2
303,291,310,302,2
303,288,310,301,2
303,290,310,300,2
303,296,311,300,2
303,307,310,300,2
303,320,311,301,2
304,332,312,304,2
305,341,314,307,2
306,345,316,309,2
306,345,318,310,2
306,341,318,309,2
305,334,317,307,2
304,326,314,305,2
303,318,312,304,2
303,312,310,304,2
304,309,310,305,2
305,306,309,306,2
305,304,309,307,2
306,303,309,309,2
307,302,309,310,2
308,302,309,311,2
308,303,309,311,2
307,303,309,311,2
307,305,309,310,2
307,309,309,309,2
307,314,309,308,2
306,318,309,307,2
305,322,309,307,2
305,326,308,307,2
303,329,307,307,2
303,331,308,306,2
302,330,308,305,2
302,328,308,303,2
302,324,309,301,2
303,317,308,299,2
303,310,308,297,2
303,305,308,295,2
304,302,307,295,2
305,302,306,295,2
306,305,306,297,2
306,308,305,299,2
307,309,305,302,2
307,306,305,305,2
307,299,305,308,2
307,291,306,311,2
307,285,306,312,2
306,284,306,314,2
306,285,307,315,2
305,289,308,315,2
306,294,309,315,2
305,300,311,314,2
305,303,312,312,2
304,305,312,311,2
304,305,312,309,2
303,304,311,308,2
303,304,311,308,2
304,303,310,309,2
304,300,310,309,2
305,295,310,308,2
305,290,310,308,2
306,287,310,308,2
306,287,310,309,2
305,290,310,309,2
304,294,310,309,2
304,300,310,308,2
304,306,310,307,2
303,312,311,307,2
304,316,311,307,2
304,317,311,307,2
305,316,311,307,2
307,313,311,307,2
308,312,311,308,2
308,311,310,308,2
308,310,310,309,2
308,309,310,308,2
307,308,308,309,2
307,307,305,309,2
307,304,302,310,2
306,298,302,309,2
306,290,302,308,2
307,284,304,305,2
307,283,304,303,2
307,287,304,302,2
308,295,304,303,2
308,304,304,303,2
308,314,303,304,2
307,323,303,305,2
305,329,303,304,2
304,332,302,304,2
303,332,302,302,2
302,331,301,301,2
302,331,301,300,2
303,330,301,299,2
303,330,302,299,2
304,328,303,299,2
305,324,303,299,2
306,318,304,298,2
307,311,305,298,2
307,305,305,298,2
306,300,304,298,2
305,296,302,299,2
304,296,301,301,2
304,297,301,302,2
304,299,301,304,2
304,302,301,304,2
304,305,301,305,2
304,308,301,306,2
304,309,301,306,2
304,309,301,306,2
305,307,301,306,2
305,306,302,306,2
305,305,301,307,2
305,306,302,308,2
305,307,302,309,2
305,309,302,311,2
306,309,302,311,2
306,308,303,312,2
306,306,302,311,2
305,303,302,310,2
305,300,302,309,2
305,297,301,308,2
305,294,301,307,2
305,293,301,306,2
305,294,300,305,2
305,299,300,304,2
304,305,299,303,2
303,310,299,302,2
304,312,299,301,2
304,310,300,301,2
304,305,300,302,2
305,300,300,304,2
305,295,301,306,2
305,292,302,308,2
305,292,303,309,2
305,296,304,309,2
305,302,306,309,2
304,308,307,308,2
304,310,307,308,2
304,308,307,307,2
304,303,307,306,2
304,297,308,305,2
304,291,309,304,2
305,287,310,304,2
306,284,310,304,2
307,284,310,303,2
307,286,309,303,2
306,289,307,302,2
305,292,304,300,2
304,295,302,300,2
303,299,300,300,2
302,306,299,300,2
302,313,299,300,2
302,321,300,301,2
303,327,302,302,2
304,330,303,305,2
305,329,305,307,2
307,327,306,309,2
308,322,307,310,2
310,317,308,310,2
309,312,308,310,2
309,308,307,309,2
309,308,306,309,2
310,309,306,309,2
309,309,306,308,2
308,310,306,307,2
308,310,306,306,2
308,309,305,304,2
308,308,304,303,2
307,310,304,303,2
307,312,305,302,2
306,313,307,303,2
306,313,308,304,2
306,312,309,305,2
306,308,309,304,2
306,305,308,304,2
306,304,307,304,2
305,304,306,303,2
304,305,305,303,2
304,304,304,303,2
304,302,304,303,2
303,298,304,304,2
304,295,305,304,2
304,294,306,304,2
305,296,307,304,2
305,303,307,303,2
304,313,306,302,2
303,324,305,301,2
302,332,304,299,2
302,336,303,298,2
302,337,304,298,2
303,336,305,298,2
303,334,306,299,2
304,331,306,300,2
305,327,307,301,2
305,323,308,302,2
305,320,309,304,2
306,316,310,306,2
306,312,312,309,2
307,308,313,311,2
308,303,314,312,2
309,299,315,312,2
309,296,315,311,2
310,295,316,310,2
310,296,316,310,2
310,297,316,310,2
309,299,314,309,2
308,300,311,308,2
308,301,308,307,2
308,301,306,306,2
309,302,304,305,2
309,301,303,303,2
309,301,302,302,2
308,300,301,301,2
307,301,299,300,2
306,304,298,301,2
305,306,298,303,2
304,308,299,304,2
304,307,301,306,2
304,305,303,307,2
304,300,303,305,2
303,295,303,303,2
303,291,303,302,2
304,288,302,302,2
305,287,303,302,2
305,286,303,302,2
305,284,304,302,2
305,284,305,302,2
305,284,306,303,2
305,284,307,303,2
305,286,308,303,2
306,290,309,304,2
306,295,310,306,2
306,300,311,308,2
306,305,311,310,2
306,308,311,310,2
306,308,310,310,2
307,304,310,310,2
307,299,310,311,2
308,292,310,312,2
309,284,311,312,2
310,275,312,312,2
310,266,312,312,2
310,257,312,312,2
311,251,313,311,2
311,251,313,311,2
311,257,313,310,2
310,270,312,309,2
310,288,310,309,2
309,306,309,308,2
308,319,309,307,2
308,327,310,307,2
308,333,310,306,2
308,336,312,307,2
308,338,313,308,2
309,338,313,309,2
309,339,313,310,2
309,339,313,311,2
309,337,313,312,2
310,332,313,313,2
310,326,313,314,2
311,319,313,314,2
311,311,312,314,2
311,305,311,312,2
310,301,310,309,2
309,300,309,306,2
308,299,308,304,2
308,301,307,301,2
308,305,306,300,2
307,309,306,299,2
307,313,305,299,2
307,315,305,299,2
307,316,305,299,2
307,316,306,300,2
307,316,306,302,2
307,315,306,303,2
308,315,307,305,2
308,315,308,306,2
308,314,309,307,2
308,313,308,308,2
308,312,308,309,2
308,311,308,310,2
308,310,309,311,2
308,310,310,313,2
307,309,312,314,2
307,309,313,314,2
307,309,315,314,2
306,308,315,314,2
305,307,313,314,2
304,306,312,313,2
304,305,310,313,2
304,304,309,312,2
304,303,308,310,2
304,302,308,308,2
304,301,308,306,2
304,301,309,305,2
304,300,309,305,2
305,299,310,304,2
305,297,310,304,2
304,295,310,304,2
304,294,309,304,2
303,292,309,303,2
304,289,308,302,2
304,286,308,302,2
304,283,307,302,2
305,280,307,302,2
305,278,307,302,2
306,278,306,301,2
306,282,306,302,2
306,291,306,303,2
306,301,306,304,2
305,309,306,306,2
305,315,306,307,2
303,317,306,307,2
302,315,306,307,2
301,309,307,307,2
302,300,308,308,2
302,290,308,308,2
301,282,308,308,2
301,275,307,308,2
302,271,307,307,2
302,270,307,306,2
303,273,307,306,2
303,278,307,306,2
304,284,307,305,2
304,288,308,305,2
305,293,308,305,2
304,298,307,305,2
304,304,307,305,2
304,309,307,305,2
304,311,307,306,2
304,312,308,308,2
305,315,309,311,2
304,318,310,313,2
303,320,311,314,2
302,321,312,316,2
301,322,312,316,2
300,323,311,315,2
299,322,310,313,2
298,322,309,311,2
298,322,308,310,2
299,321,307,309,2
301,320,308,308,2
302,317,307,307,2
303,314,307,306,2
303,311,307,306,2
304,308,308,306,2
304,306,309,307,2
305,306,311,309,2
305,306,311,311,2
306,305,312,311,2
306,303,312,310,2
306,302,312,308,2
306,303,312,307,2
306,304,311,307,2
305,306,310,306,2
304,309,309,306,2
303,312,308,306,2
302,314,307,305,2
301,314,306,304,2
300,312,305,303,2
299,310,304,302,2
299,307,304,302,2
300,304,303,301,2
300,302,303,301,2
301,300,302,300,2
301,299,303,300,2
301,298,303,301,2
302,298,305,301,2
302,296,307,301,2
302,294,308,301,2
302,291,307,302,2
303,289,306,303,2
304,286,305,304,2
306,282,304,305,2
307,277,303,304,2
308,274,302,305,2
308,276,301,307,2
309,282,300,309,2
308,291,301,311,2
307,302,302,313,2
305,313,304,314,2
305,321,308,315,2
305,326,312,316,2
306,327,314,317,2
306,326,314,318,2
306,323,313,317,2
305,321,311,316,2
305,321,309,315,2
305,321,307,313,2
306,318,306,311,2
306,311,307,308,2
307,302,307,306,2
307,292,307,304,2
306,285,308,302,2
306,282,307,302,2
306,283,307,302,2
305,289,306,302,2
304,300,305,303,2
303,311,304,304,2
304,317,303,305,2
304,320,303,304,2
305,320,303,303,2
305,318,303,302,2
306,315,303,301,2
306,314,303,301,2
306,314,304,301,2
306,314,305,302,2
306,312,306,302,2
306,310,307,303,2
305,307,308,303,2
305,303,308,305,2
305,301,309,306,2
305,297,311,308,2
306,293,312,309,2
306,288,312,308,2
305,283,311,307,2
304,281,310,305,2
304,282,308,303,2
303,285,307,302,2
302,291,307,301,2
302,299,307,300,2
302,307,306,299,2
302,313,306,300,2
301,316,305,299,2
301,317,305,299,2
301,316,305,298,2
301,313,304,298,2
302,308,304,298,2
303,304,304,300,2
305,300,305,302,2
306,299,306,305,2
308,300,307,309,2
310,305,308,313,2
310,313,309,316,2
311,323,310,318,2
311,329,310,319,2
311,332,310,319,2
310,332,310,318,2
309,331,309,317,2
309,329,308,316,2
308,328,308,314,2
308,327,307,312,2
308,324,307,310,2
308,320,306,309,2
309,315,305,308,2
309,310,304,307,2
309,304,304,306,2
309,297,304,305,2
308,290,305,305,2
308,284,306,305,2
308,278,307,305,2
309,275,308,305,2
308,275,309,305,2
308,279,308,306,2
309,286,308,308,2
309,293,307,311,2
309,302,306,312,2
309,310,305,313,2
309,317,304,313,2
309,323,305,313,2
309,328,307,311,2
308,333,308,309,2
308,336,309,309,2
308,338,309,309,2
307,337,309,310,2
307,335,309,311,2
307,332,310,311,2
307,329,309,311,2
307,325,310,311,2
307,321,309,310,2
307,317,308,309,2
307,312,308,308,2
307,307,308,307,2
307,303,308,306,2
308,299,309,304,2
308,298,309,303,2
308,297,310,303,2
308,299,310,303,2
309,302,311,304,2
310,306,311,304,2
310,309,311,305,2
311,311,311,305,2
311,312,311,307,2
312,313,312,308,2
312,314,312,309,2
312,314,313,310,2
312,315,313,311,2
311,314,313,311,2
311,313,312,311,2
310,311,311,311,2
310,308,311,309,2
309,303,311,308,2
309,297,310,307,2
308,287,311,306,2
308,276,311,306,2
308,265,312,306,2
308,256,313,306,2
309,249,314,307,2
310,246,314,308,2
308,249,313,308,2
306,256,311,307,2
304,267,309,305,2
302,279,308,304,2
301,289,307,303,2
300,297,306,302,2
301,305,306,301,2
302,312,306,301,2
302,315,306,301,2
302,314,306,301,2
302,309,305,300,2
302,306,303,300,2
302,306,302,299,2
303,310,301,298,2
302,315,300,296,2
302,321,299,295,2
301,326,298,294,2
300,330,297,294,2
300,332,297,294,2
300,333,297,294,2
300,335,298,295,2
301,335,301,296,2
302,334,304,298,2
304,332,306,300,2
304,329,308,301,2
305,326,309,303,2
306,323,309,304,2
307,320,309,306,2
308,316,309,308,2
309,311,310,310,2
309,305,310,311,2
309,300,310,311,2
308,295,309,311,2
307,292,308,310,2
307,293,307,309,2
306,296,306,308,2
306,301,306,308,2
307,304,305,308,2
307,305,306,309,2
307,304,306,310,2
306,301,305,310,2
307,296,305,310,2
307,292,305,310,2
307,289,305,310,2
307,290,305,310,2
306,293,304,310,2
305,300,304,311,2
305,308,305,313,2
305,316,306,313,2
305,322,306,314,2
305,325,305,312,2
304,324,305,310,2
304,323,304,307,2
304,320,305,305,2
304,314,305,304,2
304,306,307,304,2
305,296,308,304,2
305,285,309,305,2
307,276,309,307,2
308,271,310,309,2
309,272,311,310,2
309,278,311,310,2
307,289,310,310,2
305,300,309,309,2
304,309,307,308,2
303,314,305,308,2
303,315,304,308,2
303,315,302,308,2
304,314,301,309,2
304,314,301,308,2
304,314,301,307,2
305,314,301,306,2
306,311,301,306,2
307,309,302,305,2
308,309,302,306,2
309,308,303,306,2
309,306,304,306,2
309,307,305,307,2
309,313,305,308,2
308,320,306,310,2
307,324,306,312,2
305,324,305,313,2
304,323,304,313,2
304,322,304,313,2
303,321,303,312,2
302,320,303,311,2
302,319,303,309,2
302,317,303,307,2
302,315,304,306,2
302,313,304,305,2
302,311,303,305,2
303,310,303,304,2
303,310,302,304,2
303,310,301,302,2
302,310,299,301,2
302,309,298,301,2
302,306,299,301,2
303,303,299,300,2
304,300,301,301,2
304,298,302,301,2
305,297,303,302,2
306,296,303,303,2
306,294,303,304,2
306,290,304,305,2
307,285,304,306,2
307,279,305,308,2
308,275,307,308,2
309,273,309,309,2
310,276,312,310,2
310,282,313,312,2
310,289,314,314,2
310,297,314,316,2
310,305,314,318,2
308,313,313,318,2
307,320,311,317,2
305,324,310,316,2
304,327,309,315,2
304,327,308,314,2
304,326,307,314,2
304,323,306,314,2
304,319,305,314,2
304,315,304,314,2
304,309,303,313,2
304,302,303,313,2
304,294,302,312,2
304,285,303,311,2
304,278,303,310,2
304,275,305,309,2
305,276,306,309,2
306,282,307,308,2
306,293,308,308,2
306,305,309,308,2
306,315,309,309,2
305,322,308,310,2
305,323,307,311,2
305,320,307,312,2
305,315,307,312,2
305,309,307,312,2
304,304,307,312,2
304,301,307,312,2
303,302,307,312,2
303,304,306,312,2
303,308,306,310,2
303,312,306,309,2
303,316,306,307,2
303,319,306,306,2
303,319,307,305,2
303,316,308,304,2
302,313,309,304,2
302,311,310,303,2
302,308,311,304,2
301,307,311,304,2
301,309,310,305,2
301,313,308,306,2
301,317,307,307,2
300,320,306,308,2
300,318,306,307,2
301,315,305,306,2
301,311,305,306,2
302,308,305,307,2
303,306,305,307,2
304,301,305,307,2
304,298,304,308,2
306,296,304,308,2
307,295,305,308,2
308,294,304,308,2
310,295,304,308,2
311,296,304,308,2
311,298,305,308,2
311,300,306,308,2
311,302,307,309,2
312,306,307,310,2
312,310,307,310,2
311,315,307,310,2
309,318,306,309,2
308,319,305,310,2
306,318,304,310,2
306,315,303,311,2
306,312,302,312,2
306,306,301,313,2
307,300,301,313,2
308,295,302,313,2
309,288,304,312,2
310,280,306,311,2
311,274,308,310,2
311,269,309,309,2
311,270,310,308,2
311,276,310,308,2
310,288,310,309,2
309,303,310,310,2
308,320,310,311,2
308,332,310,311,2
307,338,310,311,2
306,340,310,310,2
306,339,310,311,2
306,336,310,312,2
307,333,310,313,2
307,330,311,313,2
307,330,310,313,2
306,329,309,313,2
306,328,308,313,2
305,327,308,312,2
305,325,309,311,2
305,322,309,311,2
305,319,309,310,2
305,315,309,310,2
305,309,309,311,2
305,302,309,312,2
306,295,309,313,2
307,291,310,314,2
309,290,311,314,2
310,291,312,314,2
310,293,312,315,2
310,297,312,316,2
310,302,312,316,2
309,308,310,316,2
308,314,309,315,2
307,318,308,315,2
306,320,308,314,2
306,320,308,314,2
306,318,308,313,2
306,314,308,311,2
306,308,308,309,2
305,300,307,307,2
305,291,307,305,2
305,283,306,305,2
306,278,305,304,2
306,276,304,305,2
306,278,304,305,2
306,284,303,306,2
305,295,302,307,2
305,306,302,307,2
305,313,303,306,2
306,316,304,306,2
306,315,304,305,2
306,312,305,305,2
305,308,306,305,2
305,305,306,305,2
304,305,307,305,2
304,308,307,305,2
303,311,307,307,2
303,314,306,308,2
302,313,305,309,2
302,308,304,309,2
302,301,303,308,2
303,296,302,307,2
304,292,303,306,2
305,292,304,307,2
307,295,306,308,2
308,299,308,309,2
309,305,308,309,2
309,309,307,308,2
309,310,306,308,2
309,311,305,309,2
308,311,306,309,2
308,311,309,309,2
308,310,312,309,2
308,308,314,310,2
307,307,315,310,2
306,306,314,311,2
305,305,312,312,2
305,303,311,313,2
305,300,310,314,2
306,298,310,314,2
307,298,310,314,2
308,300,311,314,2
308,303,310,313,2
307,307,309,311,2
306,315,307,310,2
305,324,306,310,2
305,329,305,310,2
304,330,304,308,2
304,328,303,307,2
303,326,302,305,2
304,321,302,303,2
305,316,302,302,2
307,310,301,301,2
308,304,302,302,2
309,299,301,302,2
309,295,302,301,2
309,293,302,300,2
308,293,303,300,2
308,294,303,301,2
307,297,304,302,2
307,301,303,304,2
307,304,303,305,2
306,306,304,305,2
306,308,304,305,2
306,310,304,305,2
306,313,304,305,2
306,316,304,306,2
307,321,304,307,2
308,325,305,308,2
310,327,306,307,2
311,328,307,307,2
311,328,308,307,2
312,327,308,308,2
311,326,308,308,2
311,325,308,309,2
311,322,308,311,2
311,317,308,312,2
311,310,308,313,2
311,300,307,313,2
311,291,306,312,2
311,283,305,310,2
310,277,303,308,2
309,273,302,306,2
308,276,301,304,2
307,282,300,303,2
306,289,300,303,2
306,293,300,303,2
306,292,301,303,2
307,288,302,302,2
308,282,302,302,2
310,276,303,304,2
311,276,304,305,2
310,281,304,307,2
309,292,304,307,2
306,307,303,308,2
304,324,304,309,2
303,335,306,311,2
303,340,309,312,2
303,340,311,313,2
303,337,311,313,2
303,333,311,312,2
303,329,311,310,2
303,326,311,309,2
303,323,311,307,2
304,320,311,306,2
304,316,311,306,2
305,313,312,307,2
306,312,313,307,2
307,314,313,309,2
308,316,313,311,2
309,319,312,312,2
309,320,311,313,2
309,321,311,314,2
309,321,311,315,2
309,319,311,315,2
308,316,310,315,2
307,311,310,314,2
306,306,310,313,2
305,303,310,312,2
304,301,310,310,2
304,300,309,308,2
304,301,307,306,2
303,302,305,305,2
303,304,304,304,2
304,303,303,304,2
304,300,303,305,2
305,296,303,307,2
306,293,304,309,2
307,293,305,312,2
307,294,305,313,2
307,297,305,313,2
306,300,304,311,2
306,303,303,309,2
306,304,304,308,2
306,304,304,308,2
306,305,305,308,2
306,310,306,308,2
306,316,306,309,2
306,324,306,309,2
305,329,306,309,2
304,332,306,308,2
303,333,305,308,2
302,332,305,308,2
302,329,305,308,2
302,324,305,308,2
303,319,305,308,2
303,314,305,308,2
304,309,306,307,2
304,305,307,306,2
304,300,308,306,2
304,293,309,305,2
304,286,311,305,2
305,280,312,306,2
306,275,313,306,2
307,272,313,305,2
308,273,311,305,2
309,276,308,305,2
309,284,306,305,2
308,295,304,305,2
307,307,301,304,2
306,314,300,305,2
306,320,300,305,2
305,325,302,306,2
305,329,305,306,2
305,331,307,307,2
305,332,308,308,2
306,333,308,308,2
306,334,309,309,2
306,334,309,309,2
306,331,310,310,2
306,328,310,310,2
305,324,310,310,2
305,319,310,310,2
305,314,311,311,2
305,310,311,311,2
306,307,312,311,2
306,304,312,311,2
306,300,312,311,2
306,295,312,311,2
307,291,312,311,2
308,286,312,311,2
309,283,313,311,2
309,285,312,312,2
308,291,312,311,2
307,299,311,311,2
306,308,310,310,2
304,318,309,310,2
304,328,308,311,2
303,335,307,312,2
302,340,305,313,2
301,342,304,313,2
300,342,303,311,2
299,340,303,309,2
299,338,304,307,2
301,334,304,304,2
302,330,305,302,2
304,324,306,301,2
304,317,306,299,2
305,309,305,297,2
304,302,304,296,2
304,297,303,295,2
304,296,303,295,2
304,297,303,296,2
303,300,304,298,2
303,302,305,300,2
303,303,306,303,2
304,303,307,305,2
305,303,309,307,2
306,302,310,308,2
308,301,311,309,2
310,300,312,310,2
311,298,313,311,2
311,298,313,311,2
312,301,313,312,2
311,304,314,313,2
311,306,313,314,2
310,306,313,314,2
309,305,311,314,2
307,302,310,313,2
307,298,309,313,2
307,295,309,312,2
307,295,308,312,2
306,300,308,312,2
305,306,307,312,2
304,311,306,311,2
304,314,305,310,2
303,314,304,309,2
303,313,304,308,2
303,309,303,307,2
303,305,303,306,2
303,302,303,306,2
303,298,304,305,2
302,294,306,304,2
302,290,307,304,2
303,290,308,304,2
304,293,310,305,2
306,297,311,307,2
307,302,311,308,2
307,307,310,309,2
307,310,309,310,2
307,310,309,310,2
307,308,310,310,2
307,306,311,309,2
308,305,312,309,2
308,306,313,308,2
307,310,312,307,2
306,316,310,307,2
305,321,309,308,2
305,324,308,309,2
305,327,308,310,2
305,327,308,311,2
305,326,308,312,2
305,324,308,313,2
305,321,307,313,2
306,319,307,313,2
307,316,307,313,2
308,312,308,313,2
308,308,308,312,2
308,305,309,311,2
308,302,310,310,2
308,299,310,308,2
308,298,310,306,2
308,298,310,303,2
307,300,309,301,2
306,303,307,300,2
306,304,306,300,2
306,306,305,300,2
306,307,304,302,2
307,308,304,304,2
308,306,304,306,2
308,302,304,308,2
308,297,305,308,2
308,293,306,307,2
308,289,307,306,2
308,288,307,305,2
308,287,308,305,2
307,290,308,304,2
306,295,307,304,2
304,301,305,304,2
302,307,304,304,2
301,311,303,305,2
299,311,302,306,2
298,310,302,306,2
298,308,302,306,2
299,305,303,305,2
300,302,304,305,2
302,299,305,304,2
303,300,306,306,2
304,306,307,307,2
305,313,308,307,2
305,319,308,309,2
304,325,307,310,2
304,327,307,311,2
303,326,306,311,2
304,321,305,312,2
305,312,305,312,2
306,300,304,312,2
307,288,304,312,2
308,280,304,312,2
308,277,304,311,2
309,279,304,310,2
309,288,304,308,2
308,303,304,307,2
308,320,306,308,2
308,333,308,310,2
308,339,310,312,2
309,338,310,313,2
309,332,310,314,2
309,325,309,314,2
309,316,309,314,2
309,309,309,314,2
309,306,309,314,2
309,307,309,313,2
309,311,309,313,2
309,316,309,312,2
309,321,309,311,2
308,324,308,310,2
308,325,307,308,2
308,325,306,306,2
307,324,306,305,2
307,322,305,304,2
307,321,304,304,2
306,320,303,304,2
306,318,302,304,2
307,314,302,304,2
307,307,302,304,2
308,301,303,304,2
309,294,305,305,2
310,286,306,306,2
311,279,307,308,2
312,274,308,311,2
313,271,309,313,2
313,272,309,313,2
312,275,309,314,2
312,281,310,313,2
311,289,311,313,2
310,299,311,312,2
309,309,311,311,2
308,317,310,310,2
307,322,309,309,2
307,324,306,309,2
307,323,304,308,2
307,320,302,307,2
307,314,302,307,2
307,309,302,306,2
306,304,303,305,2
306,301,303,306,2
307,299,304,307,2
307,297,305,308,2
308,292,306,309,2
309,285,307,310,2
309,278,307,312,2
309,273,308,314,2
308,271,309,314,2
307,272,309,315,2
307,279,309,314,2
306,291,309,313,2
304,304,308,312,2
303,315,308,309,2
302,324,307,307,2
302,330,305,305,2
302,333,304,303,2
301,333,304,302,2
301,332,304,302,2
301,331,304,302,2
302,331,304,303,2
302,329,304,304,2
302,325,304,304,2
303,318,304,305,2
303,310,305,305,2
303,302,305,306,2
303,296,305,307,2
303,293,305,308,2
303,294,305,309,2
301,298,304,309,2
300,302,303,309,2
299,306,301,309,2
298,308,299,308,2
297,309,297,308,2
298,312,297,307,2
298,314,297,305,2
297,317,298,304,2
298,319,301,302,2
298,317,304,301,2
298,313,307,301,2
298,306,309,301,2
299,300,311,302,2
300,295,313,304,2
301,292,314,306,2
302,292,315,307,2
303,294,315,309,2
303,299,315,311,2
303,304,316,312,2
303,307,316,314,2
304,307,316,315,2
304,307,317,316,2
304,307,317,317,2
304,306,317,317,2
304,306,316,315,2
304,306,315,313,2
304,305,313,310,2
304,306,311,307,2
304,308,309,305,2
304,309,308,303,2
304,311,309,301,2
304,313,311,301,2
305,312,313,302,2
306,310,315,303,2
307,307,316,304,2
307,303,314,305,2
307,300,313,305,2
307,296,310,306,2
307,293,309,307,2
307,291,307,308,2
307,291,307,309,2
308,289,306,311,2
308,286,306,311,2
308,280,306,310,2
306,274,305,308,2
305,269,305,307,2
304,267,305,306,2
304,271,305,305,2
304,281,305,306,2
305,293,305,308,2
306,303,306,311,2
306,310,306,313,2
306,315,307,314,2
306,319,308,315,2
305,322,308,316,2
305,323,309,317,2
305,320,310,318,2
305,315,311,318,2
305,310,311,319,2
306,305,312,318,2
307,302,313,318,2
307,300,313,317,2
307,299,313,316,2
307,300,312,315,2
307,302,311,315,2
307,306,310,315,2
306,310,309,314,2
305,313,309,313,2
305,317,308,312,2
305,320,308,312,2
305,323,308,311,2
305,323,307,310,2
305,321,306,309,2
305,318,306,309,2
305,314,305,309,2
305,310,304,309,2
305,305,304,309,2
306,302,304,310,2
306,301,303,310,2
307,302,302,311,2
307,303,301,312,2
306,304,300,312,2
306,306,300,313,2
306,308,302,313,2
306,310,304,313,2
308,313,306,313,2
309,316,307,312,2
309,317,306,310,2
309,315,305,309,2
309,312,305,307,2
310,307,305,306,2
312,303,306,306,2
313,300,306,307,2
314,294,307,307,2
315,287,307,307,2
314,280,307,306,2
312,277,306,305,2
310,278,305,305,2
308,280,303,304,2
306,285,302,303,2
305,292,300,301,2
303,301,300,301,2
303,308,301,301,2
304,313,302,302,2
304,317,304,302,2
306,320,304,303,2
306,324,305,304,2
306,329,305,306,2
306,332,304,308,2
305,333,304,310,2
305,331,304,312,2
305,328,304,314,2
306,322,306,316,2
306,315,308,316,2
307,309,310,315,2
308,307,311,315,2
308,307,312,314,2
308,310,312,314,2
307,313,312,314,2
306,315,311,313,2
305,317,309,312,2
304,316,308,311,2
304,314,306,311,2
304,308,305,311,2
304,301,305,310,2
305,296,305,309,2
305,294,305,309,2
305,296,305,308,2
306,299,305,308,2
306,304,305,309,2
306,309,304,309,2
306,313,303,310,2
305,314,302,310,2
304,312,299,310,2
304,309,297,310,2
303,307,296,310,2
302,308,297,311,2
303,309,299,312,2
302,312,301,312,2
302,315,303,313,2
303,316,304,313,2
303,315,306,314,2
303,311,308,315,2
304,306,309,316,2
304,301,309,317,2
304,297,310,318,2
305,296,311,318,2
306,298,312,318,2
306,303,312,317,2
305,309,311,316,2
304,313,311,315,2
304,313,310,313,2
304,309,310,312,2
305,301,309,311,2
306,293,308,310,2
307,285,308,310,2
308,281,308,310,2
309,279,307,310,2
309,282,306,310,2
307,290,304,309,2
306,301,302,309,2
305,312,301,308,2
304,320,301,307,2
304,327,300,305,2
304,330,299,305,2
304,333,298,304,2
304,332,298,304,2
303,328,299,305,2
303,323,300,305,2
302,317,302,305,2
302,313,303,306,2
303,311,304,308,2
304,306,305,308,2
304,299,305,309,2
304,292,305,308,2
305,285,304,308,2
305,282,304,308,2
305,282,303,307,2
305,286,302,305,2
304,291,301,304,2
304,298,300,302,2
303,304,300,301,2
303,308,300,300,2
304,309,300,300,2
305,308,300,300,2
306,307,300,301,2
307,306,300,302,2
307,304,299,303,2
307,302,300,304,2
307,301,300,304,2
307,303,300,304,2
307,307,301,303,2
307,308,302,303,2
307,308,303,303,2
307,307,303,303,2
307,306,303,302,2
307,305,303,302,2
309,304,304,301,2
310,304,305,302,2
312,305,305,303,2
313,307,305,304,2
313,309,304,304,2
312,310,303,305,2
311,310,302,305,2
310,311,301,305,2
309,311,300,306,2
307,311,299,306,2
306,309,299,305,2
304,307,301,303,2
304,303,302,300,2
304,298,303,297,2
305,294,304,296,2
306,292,305,296,2
306,293,305,296,2
305,295,305,296,2
305,299,305,297,2
305,304,305,298,2
305,310,306,298,2
305,314,307,299,2
305,315,308,300,2
304,313,310,301,2
305,306,310,301,2
305,298,310,301,2
305,292,309,301,2
305,290,308,301,2
305,291,307,301,2
305,296,307,301,2
304,303,307,301,2
304,307,307,301,2
304,308,308,301,2
304,306,308,300,2
305,301,308,300,2
306,298,308,301,2
306,296,309,302,2
306,297,310,303,2
306,301,311,304,2
305,304,313,304,2
305,308,314,304,2
305,312,314,305,2
304,317,313,305,2
305,320,312,306,2
305,324,311,307,2
306,326,311,307,2
306,327,310,306,2
306,327,309,305,2
305,326,309,303,2
304,325,308,302,2
304,322,307,302,2
304,320,306,303,2
304,316,306,303,2
305,314,307,304,2
305,312,307,306,2
306,309,308,309,2
307,307,309,311,2
307,306,310,312,2
307,307,311,313,2
307,307,311,313,2
308,306,312,313,2
308,305,312,313,2
308,303,312,313,2
308,301,312,312,2
309,298,313,311,2
309,293,314,309,2
309,285,314,308,2
309,275,315,306,2
307,264,315,306,2
307,254,315,305,2
306,245,314,303,2
307,239,314,303,2
307,242,314,302,2
308,251,314,301,2
307,266,313,301,2
306,284,312,301,2
305,300,310,300,2
304,313,308,300,2
303,318,306,301,2
303,318,305,302,2
304,315,305,304,2
305,314,305,306,2
305,315,305,308,2
305,322,305,309,2
304,330,306,310,2
302,336,305,310,2
300,339,305,311,2
299,338,305,312,2
299,334,305,312,2
300,331,304,311,2
301,328,303,309,2
302,328,303,307,2
303,328,303,306,2
304,328,303,305,2
304,328,304,304,2
305,327,305,303,2
305,325,305,301,2
305,324,304,300,2
305,324,304,299,2
305,325,305,299,2
305,327,306,299,2
305,327,309,300,2
305,325,310,301,2
305,323,312,302,2
305,322,313,302,2
305,323,313,303,2
305,323,313,303,2
306,323,313,304,2
306,321,314,305,2
307,318,314,306,2
307,313,314,306,2
308,308,313,307,2
308,303,312,307,2
308,298,311,307,2
308,295,311,306,2
308,296,311,306,2
308,298,312,306,2
307,300,312,306,2
307,298,312,305,2
308,295,311,304,2
309,292,312,304,2
310,291,312,305,2
310,293,311,306,2
310,300,310,307,2
309,311,308,307,2
306,321,306,306,2
305,329,306,305,2
305,336,307,305,2
306,340,307,305,2
306,341,307,306,2
306,339,306,306,2
305,336,306,308,2
305,330,307,309,2
306,321,307,310,2
307,314,308,312,2
309,306,309,313,2
310,300,310,315,2
311,295,310,315,2
312,293,310,314,2
312,291,309,313,2
311,291,308,313,2
311,291,308,313,2
311,295,308,312,2
311,299,308,312,2
310,302,307,312,2
309,303,306,312,2
308,306,306,310,2
307,310,307,309,2
306,313,309,307,2
305,314,311,305,2
305,314,313,304,2
305,313,313,302,2
305,309,311,301,2
304,305,307,300,2
303,304,305,299,2
304,305,303,298,2
304,307,303,299,2
305,312,303,301,2
306,317,304,302,2
307,322,304,303,2
307,326,303,304,2
307,325,303,304,2
308,321,303,305,2
308,316,302,306,2
308,311,301,306,2
308,309,300,307,2
308,309,299,308,2
307,310,298,308,2
306,312,297,307,2
305,315,296,307,2
304,319,296,307,2
304,323,298,307,2
305,324,301,307,2
305,324,304,307,2
305,321,307,308,2
304,315,309,308,2
304,307,310,309,2
304,300,311,309,2
305,294,310,309,2
304,290,310,307,2
304,288,309,307,2
304,290,308,306,2
304,295,307,305,2
303,298,306,304,2
303,299,306,303,2
303,300,306,302,2
303,299,306,302,2
304,299,307,303,2
304,302,307,304,2
304,306,307,305,2
303,309,307,305,2
303,306,307,306,2
304,299,307,306,2
305,288,307,308,2
307,278,308,309,2
308,271,309,309,2
308,270,309,310,2
307,276,309,311,2
307,288,309,313,2
307,302,309,314,2
307,315,308,315,2
307,325,307,315,2
307,330,306,314,2
306,331,304,312,2
306,330,303,311,2
306,328,303,310,2
307,323,303,310,2
307,317,303,309,2
307,310,305,307,2
307,304,306,307,2
307,298,307,307,2
308,292,307,308,2
308,290,307,308,2
308,290,307,309,2
308,292,307,308,2
308,295,307,307,2
307,298,307,306,2
306,303,307,305,2
304,309,306,305,2
303,313,305,304,2
302,315,305,304,2
302,315,305,304,2
303,313,304,305,2
304,309,304,305,2
304,305,303,304,2
304,302,302,304,2
305,299,302,304,2
305,296,301,304,2
305,293,301,304,2
305,290,302,304,2
306,289,302,303,2
306,289,303,303,2
306,291,303,303,2
306,295,304,305,2
307,297,305,308,2
307,295,306,310,2
307,288,307,313,2
307,279,307,314,2
308,272,307,315,2
308,267,308,316,2
308,266,307,315,2
306,269,306,312,2
304,278,304,310,2
303,293,303,310,2
301,310,303,311,2
301,326,305,312,2
300,336,306,313,2
300,341,307,313,2
300,342,307,312,2
300,340,308,311,2
301,335,309,310,2
301,329,310,308,2
302,322,312,307,2
303,316,313,306,2
304,310,314,305,2
304,303,313,304,2
305,298,311,304,2
306,294,308,304,2
306,291,307,304,2
307,289,307,305,2
308,289,307,306,2
309,290,308,308,2
310,294,308,309,2
309,299,307,311,2
309,304,307,312,2
308,307,307,313,2
307,308,306,313,2
305,307,306,312,2
304,309,305,310,2
304,312,304,309,2
303,317,304,308,2
303,319,303,308,2
303,320,302,308,2
303,320,302,307,2
303,320,302,307,2
302,320,302,307,2
301,318,302,306,2
301,314,303,305,2
300,307,304,305,2
300,300,304,305,2
301,293,305,306,2
303,291,306,308,2
304,293,307,310,2
305,300,307,312,2
306,308,307,314,2
305,316,307,314,2
305,321,306,314,2
304,323,306,313,2
304,321,306,313,2
305,319,307,313,2
306,316,307,313,2
307,312,308,314,2
308,308,307,313,2
308,301,306,313,2
308,292,305,311,2
308,285,304,311,2
308,281,305,310,2
308,282,305,310,2
308,286,306,312,2
308,291,308,313,2
309,299,309,314,2
309,308,309,315,2
309,315,309,316,2
309,318,308,315,2
309,319,308,315,2
309,319,307,314,2
309,319,307,314,2
309,320,307,315,2
309,321,307,316,2
309,322,306,316,2
308,322,306,315,2
308,321,304,314,2
308,320,303,313,2
307,318,302,312,2
307,317,302,312,2
307,314,302,312,2
307,312,302,312,2
307,311,302,311,2
306,311,301,310,2
306,312,301,310,2
306,313,300,309,2
306,313,300,308,2
305,312,301,307,2
305,311,302,306,2
304,308,304,307,2
304,304,304,308,2
304,299,304,308,2
303,293,304,308,2
303,289,303,308,2
302,286,302,307,2
301,284,303,305,2
302,283,304,305,2
302,286,306,305,2
303,288,307,306,2
303,290,307,306,2
302,292,307,305,2
301,293,307,305,2
301,296,307,306,2
302,300,307,308,2
303,305,307,311,2
304,311,308,315,2
305,315,308,318,2
305,315,309,319,2
306,313,309,320,2
307,307,309,320,2
307,299,309,319,2
307,290,308,318,2
307,281,308,317,2
307,273,308,315,2
306,269,307,313,2
305,269,307,311,2
304,273,305,309,2
303,279,304,307,2
302,285,304,308,2
302,289,303,309,2
301,290,301,309,2
301,290,300,310,2
300,291,299,310,2
299,293,299,310,2
299,300,300,311,2
299,312,300,311,2
299,323,300,311,2
299,331,299,311,2
299,334,298,311,2
299,331,299,310,2
299,323,300,309,2
299,314,302,308,2
300,304,303,306,2
300,297,304,304,2
301,292,304,303,2
302,290,304,303,2
303,294,304,304,2
303,300,305,305,2
303,308,304,305,2
303,316,304,306,2
302,322,303,306,2
302,327,302,307,2
302,328,302,307,2
301,326,302,308,2
302,323,302,309,2
303,320,301,310,2
304,318,301,311,2
304,315,301,311,2
303,313,301,310,2
302,311,301,309,2
302,308,302,309,2
302,306,303,308,2
303,304,303,309,2
304,303,304,310,2
305,303,303,310,2
305,304,304,310,2
304,302,303,309,2
304,300,303,309,2
305,299,304,309,2
307,297,305,309,2
308,295,306,310,2
309,293,308,310,2
310,292,309,310,2
309,294,309,310,2
309,297,308,310,2
309,300,307,310,2
309,304,306,310,2
308,307,305,310,2
306,309,304,311,2
306,310,303,312,2
305,309,303,314,2
305,307,303,314,2
304,306,304,314,2
304,306,305,313,2
304,306,306,312,2
304,307,306,311,2
305,312,305,311,2
305,318,305,310,2
305,323,304,308,2
305,327,304,307,2
304,328,303,305,2
304,327,302,303,2
304,323,301,301,2
305,319,300,300,2
306,313,299,300,2
307,307,300,300,2
309,301,300,301,2
309,296,300,301,2
310,293,300,302,2
310,291,301,303,2
310,293,301,303,2
310,296,301,303,2
309,301,302,302,2
309,303,302,302,2
308,305,302,302,2
307,305,302,304,2
307,305,303,306,2
308,304,303,308,2
309,304,303,309,2
308,305,303,309,2
308,307,302,309,2
308,311,303,309,2
308,317,303,309,2
308,323,303,309,2
307,327,303,309,2
307,328,303,309,2
307,327,303,310,2
308,325,303,310,2
308,321,302,310,2
308,317,302,309,2
309,311,302,309,2
309,303,303,309,2
310,293,303,310,2
311,282,304,310,2
311,271,304,310,2
311,264,305,309,2
311,261,305,309,2
311,265,306,309,2
311,274,305,309,2
311,288,304,308,2
310,302,303,308,2
309,313,303,306,2
309,320,303,305,2
309,324,303,304,2
309,328,303,304,2
309,330,304,304,2
308,331,304,305,2
308,331,304,306,2
309,330,305,307,2
309,327,305,309,2
310,325,305,310,2
311,323,304,311,2
311,321,304,312,2
311,320,304,313,2
311,318,305,313,2
310,313,304,312,2
309,306,303,311,2
309,299,303,311,2
308,294,303,311,2
307,294,304,311,2
306,296,305,312,2
306,302,306,312,2
306,307,308,311,2
305,310,310,310,2
305,309,311,309,2
304,302,311,308,2
304,291,312,307,2
305,277,313,307,2
305,264,313,307,2
306,253,313,307,2
306,250,312,308,2
307,254,311,308,2
306,267,310,308,2
307,286,310,307,2
306,305,310,305,2
306,322,310,303,2
306,334,309,303,2
305,342,308,303,2
304,344,307,304,2
303,343,307,305,2
303,340,307,307,2
305,335,308,310,2
306,328,308,312,2
308,321,308,314,2
309,315,308,316,2
310,310,308,317,2
311,307,308,317,2
311,304,307,316,2
311,304,306,315,2
310,306,306,315,2
309,309,306,315,2
309,310,306,314,2
309,310,307,313,2
309,308,308,312,2
308,307,308,311,2
308,307,308,310,2
308,306,308,308,2
308,307,309,306,2
309,307,309,306,2
310,307,309,305,2
311,308,309,306,2
311,309,308,306,2
311,310,307,306,2
309,309,306,306,2
308,308,305,307,2
307,306,306,307,2
307,302,305,307,2
306,297,305,308,2
307,292,305,308,2
306,289,305,308,2
306,289,305,308,2
305,289,305,308,2
305,290,305,308,2
305,288,305,307,2
306,287,305,306,2
306,288,304,305,2
306,290,304,304,2
305,293,304,303,2
304,298,304,302,2
303,306,304,303,2
303,315,304,305,2
303,324,304,309,2
304,329,304,312,2
305,330,303,315,2
305,327,301,316,2
306,321,300,317,2
307,315,300,317,2
308,309,302,316,2
309,304,305,316,2
310,302,307,316,2
310,301,308,314,2
309,305,308,314,2
307,314,307,313,2
307,324,306,313,2
306,332,305,313,2
305,336,303,313,2
304,337,302,312,2
303,334,302,311,2
302,329,302,310,2
302,323,305,309,2
303,319,307,309,2
304,315,309,309,2
305,311,310,309,2
307,307,311,309,2
308,303,312,310,2
309,299,313,310,2
309,296,312,310,2
309,294,312,310,2
310,297,311,312,2
311,302,311,312,2
311,309,311,312,2
311,314,311,313,2
311,319,312,312,2
310,322,312,311,2
309,323,311,309,2
307,324,309,308,2
306,323,307,307,2
306,321,306,306,2
306,318,306,305,2
307,314,307,306,2
307,312,308,306,2
308,310,309,307,2
308,309,311,308,2
309,310,312,310,2
310,310,313,311,2
310,309,313,312,2
311,308,313,313,2
310,307,313,313,2
310,306,311,314,2
309,304,311,314,2
309,304,310,314,2
309,305,309,313,2
309,305,309,312,2
309,305,308,310,2
309,305,308,309,2
309,304,308,308,2
309,304,308,309,2
309,304,308,309,2
309,303,309,310,2
310,302,310,311,2
310,300,310,311,2
311,296,310,311,2
311,292,310,311,2
312,286,310,310,2
311,279,309,308,2
312,272,308,306,2
312,265,308,304,2
312,258,308,302,2
313,256,309,300,2
312,258,308,298,2
312,266,307,297,2
310,279,306,297,2
309,292,304,297,2
307,304,302,297,2
305,313,300,296,2
305,320,298,297,2
305,323,298,297,2
305,326,297,298,2
306,329,298,299,2
306,331,299,300,2
308,329,302,302,2
309,323,306,305,2
310,314,309,308,2
311,305,313,311,2
311,299,315,313,2
311,296,316,314,2
311,298,316,314,2
311,305,314,315,2
309,317,311,314,2
308,327,308,313,2
307,333,307,311,2
306,336,306,309,2
305,335,306,307,2
305,333,307,305,2
305,329,307,303,2
305,326,307,303,2
305,323,308,303,2
305,320,309,304,2
306,316,309,306,2
306,312,309,308,2
307,308,309,309,2
308,307,309,309,2
309,308,309,310,2
309,309,308,309,2
309,310,308,308,2
308,311,308,308,2
307,312,308,307,2
306,313,307,307,2
305,314,307,307,2
304,314,307,308,2
304,313,308,308,2
304,310,308,308,2
304,306,307,309,2
304,301,307,309,2
303,296,307,310,2
304,289,307,309,2
304,282,307,309,2
304,278,306,308,2
303,277,306,306,2
303,280,305,305,2
302,284,304,304,2
301,290,304,303,2
301,297,304,304,2
302,303,304,305,2
304,309,305,307,2
306,314,306,310,2
306,317,307,312,2
307,318,310,314,2
307,317,311,315,2
306,315,313,315,2
305,312,313,313,2
304,310,311,311,2
303,309,309,310,2
303,310,306,310,2
304,313,304,310,2
304,316,303,310,2
304,318,303,309,2
304,317,302,308,2
304,315,303,307,2
304,312,302,306,2
303,308,302,306,2
304,305,301,306,2
304,303,300,307,2
304,302,299,308,2
304,302,299,309,2
304,300,299,310,2
304,298,300,311,2
304,296,301,312,2
305,294,304,314,2
306,293,306,315,2
306,293,309,316,2
307,292,309,316,2
307,291,309,314,2
306,290,308,313,2
305,291,307,312,2
305,293,306,311,2
304,297,304,310,2
303,302,303,309,2
303,303,303,309,2
303,302,302,308,2
304,300,302,308,2
305,298,301,308,2
305,297,301,307,2
305,297,300,306,2
304,297,300,305,2
304,298,301,304,2
304,298,302,304,2
304,297,303,305,2
304,291,305,306,2
305,285,306,306,2
306,281,308,306,2
307,279,308,306,2
308,278,309,306,2
308,278,309,307,2
309,280,309,308,2
309,282,309,308,2
309,284,309,308,2
308,286,308,307,2
308,290,309,306,2
308,295,309,305,2
308,301,309,304,2
307,309,309,302,2
305,317,309,301,2
304,324,309,300,2
304,328,309,299,2
304,331,310,300,2
304,334,312,302,2
305,335,313,305,2
306,334,313,309,2
306,330,314,312,2
306,325,314,314,2
307,319,314,315,2
308,312,313,315,2
308,306,312,313,2
308,300,311,310,2
309,296,310,308,2
309,293,310,306,2
309,290,310,305,2
309,288,310,304,2
308,287,309,304,2
308,287,309,303,2
307,290,309,303,2
306,296,309,303,2
306,305,308,304,2
306,313,309,305,2
307,318,309,306,2
307,318,309,308,2
307,315,309,309,2
308,310,309,311,2
308,305,310,313,2
308,302,309,314,2
308,302,309,315,2
309,304,310,315,2
309,307,311,314,2
308,311,312,313,2
308,313,313,311,2
307,312,312,310,2
307,309,312,309,2
307,306,311,308,2
307,302,309,307,2
307,299,308,306,2
308,296,307,306,2
309,294,307,306,2
309,295,307,306,2
309,298,306,307,2
309,302,305,307,2
309,307,304,306,2
309,311,303,306,2
308,314,302,305,2
307,314,302,305,2
307,312,301,304,2
307,308,300,303,2
307,305,298,303,2
307,303,296,303,2
308,302,297,303,2
309,303,298,304,2
310,305,301,305,2
310,306,304,305,2
310,305,306,305,2
308,302,306,304,2
308,300,306,304,2
307,296,306,304,2
306,292,305,304,2
305,292,304,305,2
305,293,305,306,2
304,295,305,306,2
304,297,306,307,2
305,299,308,308,2
306,302,310,309,2
307,304,310,309,2
308,304,310,309,2
308,304,309,309,2
307,303,309,309,2
307,303,307,308,2
307,302,306,307,2
307,301,306,307,2
307,302,306,306,2
307,306,306,305,2
307,312,305,305,2
306,317,305,305,2
306,319,305,304,2
306,318,304,305,2
307,313,302,304,2
307,307,301,304,2
307,301,301,304,2
308,295,301,305,2
308,292,301,306,2
309,293,302,306,2
308,299,302,306,2
307,305,301,305,2
305,310,301,304,2
304,313,300,302,2
304,315,301,301,2
304,318,302,301,2
304,319,303,302,2
305,318,303,304,2
306,315,303,306,2
307,312,303,308,2
307,307,303,310,2
307,302,303,311,2
308,297,303,312,2
308,291,304,313,2
309,286,304,314,2
310,281,305,315,2
311,278,306,317,2
312,277,306,319,2
312,278,307,320,2
310,280,307,321,2
310,281,308,321,2
309,282,309,320,2
309,286,310,320,2
308,292,310,320,2
308,300,311,321,2
308,308,311,321,2
307,314,311,320,2
306,317,309,319,2
305,318,308,317,2
305,318,307,316,2
304,315,306,315,2
305,313,307,314,2
305,312,307,313,2
306,314,308,313,2
307,316,308,312,2
308,317,308,312,2
308,315,308,312,2
307,312,309,312,2
308,309,309,312,2
308,307,309,313,2
308,307,309,313,2
308,311,308,313,2
309,315,307,312,2
308,318,305,310,2
307,321,304,308,2
307,323,303,308,2
307,323,302,307,2
308,323,302,307,2
309,321,302,306,2
310,318,301,305,2
310,315,301,305,2
310,310,302,305,2
310,305,302,304,2
309,299,304,303,2
309,294,306,302,2
308,291,306,302,2
308,289,307,302,2
308,290,307,303,2
308,291,308,304,2
308,294,309,304,2
307,296,310,304,2
306,297,309,303,2
305,299,308,301,2
305,301,307,301,2
305,302,305,300,2
305,302,305,300,2
305,303,306,300,2
305,305,306,300,2
305,307,306,301,2
304,310,306,302,2
304,313,306,303,2
304,315,306,304,2
303,315,307,304,2
304,316,307,303,2
304,317,309,302,2
305,319,310,301,2
305,320,311,301,2
307,320,312,302,2
307,318,312,302,2
308,317,312,303,2
308,315,311,304,2
309,314,310,304,2
309,314,310,305,2
309,315,309,306,2
309,316,309,307,2
309,316,309,307,2
309,316,309,307,2
310,315,309,307,2
310,313,309,307,2
310,311,309,307,2
310,308,310,308,2
310,305,310,308,2
310,301,310,308,2
310,297,310,308,2
310,295,311,308,2
310,294,310,308,2
310,294,310,308,2
310,294,310,308,2
310,295,311,309,2
310,298,311,310,2
310,302,310,311,2
309,305,310,312,2
309,305,309,311,2
308,300,308,311,2
309,292,308,311,2
310,284,309,311,2
310,277,309,310,2
310,275,308,308,2
310,278,307,306,2
310,285,306,305,2
310,295,305,305,2
309,306,304,305,2
309,316,303,305,2
308,320,302,305,2
308,321,302,305,2
308,319,303,306,2
309,316,305,306,2
309,314,307,308,2
310,314,309,309,2
311,312,310,311,2
311,308,310,312,2
312,305,311,312,2
312,302,310,311,2
312,303,310,309,2
312,305,310,308,2
312,309,310,307,2
311,314,310,307,2
311,320,310,307,2
311,327,310,307,2
310,333,309,308,2
309,336,307,308,2
309,336,306,308,2
309,335,305,307,2
308,333,304,307,2
308,331,304,307,2
307,328,302,307,2
306,325,301,307,2
306,320,299,306,2
305,314,299,305,2
305,308,300,303,2
305,302,301,302,2
305,297,303,302,2
306,296,304,302,2
306,299,305,302,2
306,305,305,302,2
305,311,305,302,2
305,313,306,302,2
305,313,308,301,2
306,310,309,301,2
307,306,310,301,2
307,302,309,301,2
307,299,307,301,2
307,298,304,302,2
307,299,301,302,2
307,302,299,302,2
309,307,298,302,2
310,310,299,303,2
312,309,301,303,2
312,304,303,302,2
312,297,305,302,2
310,288,307,301,2
309,281,309,302,2
309,278,310,303,2
309,281,311,303,2
308,289,310,304,2
307,298,307,304,2
307,306,305,304,2
306,310,305,305,2
306,310,305,305,2
306,308,305,305,2
306,308,305,305,2
305,312,304,305,2
304,319,303,305,2
303,327,302,306,2
302,332,301,306,2
302,334,301,307,2
302,334,301,309,2
302,333,302,309,2
302,329,301,309,2
303,325,301,309,2
303,319,301,309,2
304,315,302,309,2
305,311,303,309,2
305,308,304,310,2
306,305,306,309,2
306,302,307,309,2
306,301,306,309,2
306,301,306,309,2
306,304,307,309,2
307,307,307,310,2
307,312,308,309,2
308,316,309,309,2
308,318,310,307,2
308,317,310,306,2
308,314,309,306,2
308,310,308,306,2
307,307,307,306,2
307,305,307,306,2
307,305,307,307,2
307,306,307,307,2
306,307,307,307,2
305,307,306,308,2
304,307,306,308,2
303,308,306,307,2
302,309,306,307,2
302,310,306,306,2
301,311,307,307,2
301,311,307,308,2
301,310,308,309,2
301,308,308,310,2
301,305,308,310,2
302,302,308,309,2
304,299,308,309,2
305,295,307,309,2
306,291,306,308,2
308,287,306,307,2
308,283,307,306,2
309,282,308,305,2
308,284,308,305,2
308,290,309,305,2
308,295,309,305,2
308,300,310,306,2
309,304,310,307,2
309,306,309,307,2
309,309,308,307,2
309,310,307,308,2
309,307,306,307,2
309,303,305,307,2
308,303,305,307,2
307,308,304,306,2
306,315,304,305,2
306,322,305,304,2
306,326,306,303,2
307,326,308,303,2
308,324,310,302,2
309,320,312,302,2
309,314,312,303,2
309,309,311,303,2
308,306,310,304,2
307,303,310,305,2
307,301,310,305,2
307,301,311,305,2
307,302,312,305,2
307,304,313,305,2
306,303,313,305,2
306,302,314,305,2
307,299,313,305,2
308,296,312,305,2
307,295,310,305,2
307,297,307,305,2
307,303,305,305,2
306,310,304,304,2
304,316,303,304,2
303,321,303,304,2
303,323,302,303,2
302,323,302,301,2
302,321,301,300,2
302,317,301,299,2
302,314,301,298,2
303,312,301,298,2
303,311,301,298,2
304,310,301,299,2
305,310,300,300,2
305,310,300,301,2
306,310,300,303,2
307,311,300,305,2
307,310,299,307,2
307,306,299,309,2
308,300,300,311,2
308,291,303,312,2
308,280,305,312,2
309,270,307,311,2
308,262,307,310,2
308,258,307,309,2
307,262,307,309,2
307,271,306,310,2
306,284,306,310,2
305,296,306,311,2
305,306,305,311,2
305,314,305,311,2
304,321,305,310,2
304,327,304,310,2
303,333,303,310,2
302,336,303,310,2
302,336,302,310,2
301,334,302,309,2
301,331,302,308,2
302,328,302,306,2
302,323,301,304,2
301,317,299,302,2
300,313,298,300,2
300,310,297,300,2
301,308,297,300,2
302,307,298,302,2
303,305,299,304,2
305,303,301,306,2
306,302,302,309,2
307,299,303,311,2
308,297,304,313,2
308,294,304,314,2
308,294,304,314,2
308,297,303,313,2
307,302,304,313,2
306,307,305,313,2
306,309,307,312,2
306,308,309,312,2
307,304,310,312,2
307,299,310,313,2
306,296,309,313,2
306,295,307,313,2
306,298,306,314,2
306,302,305,314,2
306,305,304,313,2
305,308,304,312,2
305,312,303,310,2
304,318,302,308,2
304,323,301,306,2
304,327,301,305,2
303,330,300,304,2
303,331,300,304,2
302,329,300,305,2
301,327,300,305,2
301,322,300,306,2
301,317,300,307,2
302,311,301,308,2
303,305,302,309,2
304,300,303,310,2
304,297,303,310,2
304,296,303,309,2
304,297,303,307,2
304,300,303,307,2
305,305,303,307,2
306,311,303,308,2
306,316,302,309,2
306,319,300,310,2
305,322,299,311,2
305,322,297,311,2
305,320,295,311,2
304,314,295,311,2
305,306,296,311,2
305,295,298,311,2
305,286,300,310,2
305,279,301,310,2
306,278,301,310,2
306,280,300,310,2
305,287,300,311,2
305,296,299,311,2
306,304,298,312,2
306,311,298,313,2
306,315,297,313,2
306,314,296,313,2
307,312,296,312,2
307,310,295,311,2
308,312,295,309,2
308,317,295,308,2
308,321,296,307,2
307,324,297,307,2
306,325,297,307,2
305,324,297,307,2
305,322,297,307,2
305,318,298,307,2
305,314,298,307,2
306,310,298,307,2
307,307,298,307,2
307,305,297,307,2
307,304,297,307,2
307,303,296,306,2
306,304,295,306,2
306,305,295,305,2
306,305,297,305,2
306,305,298,306,2
307,305,300,306,2
307,305,300,306,2
307,303,301,305,2
306,303,301,304,2
306,302,301,303,2
306,300,301,302,2
305,296,301,301,2
305,291,302,301,2
305,287,304,302,2
305,286,305,303,2
306,287,306,304,2
306,292,305,305,2
305,300,305,305,2
305,310,304,305,2
304,317,303,305,2
303,321,303,305,2
302,321,304,305,2
301,318,304,304,2
301,313,304,304,2
301,308,304,303,2
302,304,304,302,2
302,302,305,302,2
303,301,305,302,2
303,302,306,303,2
303,303,306,303,2
303,303,307,304,2
303,299,308,304,2
303,291,310,305,2
304,281,310,305,2
303,272,311,305,2
303,267,310,305,2
303,268,309,304,2
302,275,308,303,2
301,288,306,302,2
301,303,304,301,2
300,316,302,301,2
301,324,300,301,2
301,327,299,300,2
302,329,299,300,2
303,330,299,301,2
304,331,299,302,2
304,331,299,303,2
303,329,299,304,2
303,325,300,304,2
303,320,301,304,2
303,315,302,304,2
304,309,305,305,2
304,305,306,305,2
304,303,307,306,2
304,301,306,306,2
303,300,305,306,2
302,299,303,306,2
302,299,303,305,2
302,300,302,305,2
303,303,302,306,2
304,308,302,306,2
304,315,303,306,2
304,321,303,306,2
304,324,303,305,2
303,325,303,304,2
303,324,301,304,2
303,322,300,305,2
304,319,299,305,2
304,315,299,306,2
305,312,301,305,2
305,308,303,305,2
305,303,304,304,2
305,297,305,305,2
306,290,305,305,2
307,283,304,305,2
308,276,304,305,2
308,273,302,304,2
308,274,300,305,2
307,281,300,305,2
306,293,299,306,2
304,305,299,307,2
303,314,300,308,2
302,321,301,310,2
301,323,302,311,2
301,323,302,312,2
301,321,302,312,2
301,320,301,311,2
301,320,300,309,2
300,319,300,307,2
300,316,300,306,2
300,313,299,305,2
300,310,299,305,2
301,306,300,306,2
301,302,301,308,2
302,300,301,309,2
303,299,303,310,2
304,297,303,310,2
305,295,304,309,2
305,292,304,308,2
306,290,305,307,2
307,289,306,306,2
307,289,307,305,2
307,291,307,305,2
307,293,308,305,2
307,296,309,305,2
308,299,309,305,2
308,304,309,306,2
307,309,309,307,2
306,312,308,308,2
305,315,307,309,2
304,317,307,310,2
303,319,306,310,2
302,319,305,311,2
301,319,304,311,2
300,317,303,311,2
300,313,303,311,2
300,307,302,310,2
300,302,302,309,2
300,297,301,309,2
301,294,302,308,2
302,292,303,307,2
302,294,306,306,2
303,299,309,306,2
304,305,311,305,2
304,310,312,305,2
304,313,312,306,2
305,314,312,306,2
305,314,311,306,2
305,313,310,306,2
307,311,309,308,2
308,308,307,309,2
308,304,306,310,2
309,299,307,311,2
308,293,307,313,2
309,287,308,313,2
309,280,308,313,2
308,273,308,312,2
308,268,308,310,2
308,266,309,309,2
307,267,309,309,2
308,271,309,310,2
307,278,309,310,2
306,286,309,310,2
304,295,308,310,2
303,306,307,310,2
302,316,307,310,2
302,324,307,309,2
302,327,306,308,2
302,329,305,307,2
302,329,304,306,2
302,330,304,306,2
303,332,303,306,2
304,333,304,306,2
305,332,304,306,2
306,329,304,307,2
306,322,304,306,2
306,312,304,306,2
306,300,303,305,2
306,290,303,304,2
307,283,303,303,2
308,279,302,303,2
308,278,301,303,2
308,280,301,303,2
308,288,302,303,2
308,299,302,304,2
309,309,303,306,2
310,318,304,309,2
310,326,305,311,2
310,331,306,313,2
311,333,306,314,2
310,333,308,315,2
310,331,308,315,2
310,327,308,313,2
310,322,307,311,2
310,317,307,310,2
311,312,308,309,2
311,308,309,309,2
311,306,309,308,2
311,304,309,307,2
310,304,308,306,2
310,304,306,305,2
309,305,304,304,2
307,308,303,303,2
307,311,302,303,2
306,312,302,302,2
306,311,302,302,2
306,308,302,302,2
307,304,301,302,2
307,300,301,303,2
307,297,300,303,2
307,298,300,304,2
307,301,300,304,2
307,305,300,304,2
307,311,302,304,2
308,316,304,304,2
309,320,307,304,2
310,324,308,304,2
311,326,310,305,2
312,329,311,305,2
312,329,311,304,2
311,329,311,303,2
310,327,311,301,2
309,323,311,301,2
309,318,311,300,2
308,311,311,300,2
309,304,310,301,2
310,297,311,303,2
311,294,311,305,2
312,293,311,308,2
312,296,310,310,2
311,299,308,312,2
311,301,307,312,2
309,303,307,311,2
308,305,306,308,2
307,306,306,305,2
306,307,304,302,2
305,309,303,300,2
304,311,302,299,2
305,313,301,299,2
305,313,300,299,2
305,312,300,299,2
305,312,300,299,2
305,313,300,299,2
306,314,300,299,2
306,313,300,299,2
305,310,300,300,2
305,305,300,300,2
305,300,301,301,2
306,295,303,302,2
307,291,304,305,2
307,289,305,306,2
308,291,306,308,2
308,292,306,310,2
307,290,306,310,2
306,288,305,310,2
306,285,305,309,2
305,283,305,308,2
307,280,305,307,2
308,278,306,308,2
309,278,306,309,2
309,281,307,309,2
308,287,306,309,2
306,294,305,308,2
304,303,304,308,2
303,313,303,307,2
303,323,302,306,2
302,330,301,306,2
301,334,302,306,2
301,335,303,307,2
301,333,306,307,2
301,330,308,308,2
302,326,310,308,2
303,320,311,308,2
303,313,311,306,2
304,306,309,304,2
305,302,307,302,2
305,300,305,302,2
305,299,303,302,2
305,300,302,302,2
303,301,301,301,2
302,301,300,301,2
300,298,300,300,2
300,295,300,300,2
299,293,302,300,2
300,292,304,301,2
301,293,308,302,2
302,294,310,303,2
302,297,312,304,2
303,302,314,305,2
303,306,315,306,2
303,307,314,306,2
303,310,314,306,2
301,315,313,307,2
300,322,312,307,2
299,328,312,307,2
298,332,312,307,2
299,333,311,306,2
300,332,312,305,2
301,330,312,305,2
301,328,311,305,2
302,327,311,306,2
302,322,311,307,2
303,314,311,308,2
303,303,311,307,2
304,290,311,307,2
305,280,311,306,2
305,273,310,305,2
305,270,310,304,2
305,273,310,304,2
304,283,311,304,2
303,295,312,304,2
303,304,313,304,2
303,311,314,304,2
304,314,316,306,2
305,316,318,306,2
305,317,318,307,2
304,319,316,308,2
303,321,313,307,2
302,324,311,306,2
302,327,309,305,2
302,330,308,304,2
302,330,308,303,2
302,327,308,302,2
303,322,308,301,2
304,317,308,301,2
305,312,308,300,2
306,307,307,300,2
307,301,306,299,2
306,296,306,300,2
306,293,306,301,2
307,290,307,304,2
308,286,308,306,2
308,282,309,306,2
308,278,309,307,2
308,277,309,308,2
308,279,310,309,2
307,284,310,309,2
307,291,310,311,2
307,299,309,312,2
306,306,309,313,2
306,313,310,313,2
305,318,310,312,2
304,322,309,310,2
303,324,309,308,2
303,324,309,307,2
302,323,309,305,2
303,320,309,304,2
304,316,309,304,2
305,312,310,304,2
306,307,310,304,2
309,304,310,305,2
310,301,310,307,2
312,300,311,310,2
314,301,311,314,2
315,303,311,316,2
314,305,310,317,2
313,309,308,316,2
311,310,306,314,2
309,310,305,312,2
307,308,306,310,2
306,305,310,308,2
306,302,313,307,2
306,301,316,306,2
306,301,316,306,2
306,299,314,307,2
307,294,313,307,2
307,289,311,307,2
309,284,311,308,2
310,280,312,309,2
311,279,312,310,2
311,284,312,309,2
310,296,311,308,2
309,309,310,307,2
308,320,308,305,2
307,325,307,304,2
307,324,306,303,2
306,319,306,303,2
306,311,306,303,2
306,302,306,302,2
307,293,305,301,2
307,288,305,301,2
307,287,305,300,2
307,290,305,299,2
306,297,306,299,2
306,305,306,299,2
305,313,306,299,2
305,320,305,299,2
304,324,304,301,2
304,324,304,303,2
304,325,303,304,2
304,326,303,306,2
304,323,304,307,2
304,318,304,307,2
305,312,306,307,2
305,303,306,306,2
305,293,307,305,2
306,283,308,304,2
307,279,309,303,2
307,280,309,303,2
307,285,309,303,2
307,291,309,304,2
306,296,308,305,2
306,299,308,305,2
305,300,309,306,2
305,299,309,305,2
304,300,309,304,2
304,302,309,304,2
304,307,308,304,2
303,315,306,304,2
303,323,304,305,2
302,329,303,306,2
301,330,303,307,2
301,328,303,308,2
301,324,303,308,2
301,321,304,308,2
301,319,305,307,2
302,319,306,308,2
303,319,307,308,2
303,319,309,309,2
303,319,311,309,2
303,319,312,310,2
303,319,312,310,2
303,317,311,310,2
303,315,311,310,2
304,314,310,309,2
304,312,310,308,2
305,311,310,308,2
306,310,309,309,2
307,310,309,310,2
307,308,308,311,2
307,306,306,312,2
307,303,305,314,2
306,300,303,314,2
306,296,303,314,2
306,292,303,313,2
306,286,304,311,2
307,280,307,309,2
307,275,310,308,2
307,271,311,307,2
307,268,312,306,2
306,269,311,307,2
306,276,311,308,2
307,285,310,310,2
307,292,310,310,2
307,295,309,310,2
307,293,309,308,2
307,289,308,307,2
306,284,308,304,2
306,283,306,303,2
305,286,306,303,2
305,293,307,304,2
305,304,308,305,2
305,316,309,306,2
304,326,309,307,2
304,332,310,307,2
304,332,310,306,2
305,329,310,306,2
305,325,309,306,2
306,320,309,307,2
306,315,310,309,2
306,310,310,310,2
305,308,311,310,2
305,307,311,311,2
304,308,312,311,2
303,310,312,311,2
303,314,312,310,2
302,317,312,309,2
302,318,312,309,2
302,318,312,308,2
302,316,313,308,2
303,312,313,308,2
304,306,312,308,2
305,299,311,308,2
306,293,311,308,2
307,288,311,307,2
308,283,312,307,2
309,280,312,307,2
309,279,312,308,2
309,280,311,308,2
308,283,311,308,2
307,290,310,308,2
307,301,310,309,2
307,312,310,310,2
307,321,310,311,2
307,326,310,313,2
307,329,309,313,2
307,329,309,313,2
307,329,308,313,2
307,329,307,313,2
307,328,307,312,2
306,325,306,311,2
305,322,306,309,2
304,318,307,308,2
304,314,307,307,2
304,309,308,306,2
305,303,308,305,2
306,297,307,305,2
307,291,307,305,2
308,287,306,305,2
308,286,306,305,2
308,287,306,305,2
308,290,307,305,2
308,293,308,305,2
308,295,311,306,2
308,294,314,306,2
308,292,316,306,2
308,289,317,307,2
308,290,317,308,2
308,296,316,308,2
307,305,315,309,2
307,315,312,308,2
306,323,310,309,2
305,329,309,309,2
306,335,308,310,2
306,339,308,310,2
307,344,308,311,2
307,346,308,312,2
308,346,309,313,2
309,343,308,314,2
309,338,309,314,2
309,332,311,314,2
309,326,311,314,2
310,320,312,313,2
310,315,313,312,2
311,310,314,311,2
311,307,315,310,2
311,305,316,309,2
311,306,316,309,2
310,306,316,308,2
309,307,315,308,2
308,307,315,309,2
307,308,314,310,2
307,310,314,312,2
307,313,313,313,2
306,315,313,314,2
306,316,312,315,2
305,315,311,316,2
305,315,310,316,2
305,315,309,315,2
305,314,309,315,2
305,313,309,314,2
306,311,309,312,2
306,307,309,310,2
307,304,309,309,2
307,300,310,308,2
307,297,311,307,2
308,293,313,308,2
308,290,314,309,2
308,287,314,310,2
307,284,313,312,2
307,281,312,313,2
306,281,313,314,2
306,283,312,314,2
305,288,311,313,2
305,293,310,312,2
304,300,309,311,2
303,308,308,310,2
302,313,308,310,2
302,316,308,309,2
303,315,308,309,2
304,314,307,308,2
303,313,306,308,2
303,313,305,307,2
303,314,304,307,2
303,316,305,307,2
304,318,305,308,2
304,319,304,309,2
303,317,305,311,2
304,312,307,313,2
304,307,309,315,2
305,302,311,316,2
306,298,312,317,2
307,296,312,317,2
308,298,311,316,2
307,300,310,314,2
307,301,310,313,2
307,298,310,311,2
307,293,311,309,2
308,287,312,307,2
307,284,313,305,2
306,283,313,304,2
305,286,313,303,2
304,293,312,303,2
303,303,310,303,2
303,313,308,304,2
303,319,307,306,2
304,320,306,307,2
304,318,305,306,2
305,314,304,305,2
305,311,304,305,2
306,311,304,305,2
306,313,306,307,2
306,315,308,308,2
306,315,309,308,2
305,315,311,308,2
304,315,311,307,2
303,316,310,306,2
303,319,310,305,2
303,322,309,304,2
303,324,309,305,2
304,324,310,305,2
304,323,310,306,2
304,321,309,306,2
304,320,308,307,2
304,320,307,307,2
304,319,306,307,2
304,318,306,307,2
304,315,306,306,2
304,311,306,306,2
304,308,306,306,2
304,305,307,306,2
305,302,306,307,2
305,301,307,307,2
306,302,307,308,2
306,305,307,308,2
307,308,307,308,2
307,309,306,310,2
308,308,305,311,2
308,305,305,312,2
307,301,305,312,2
307,298,306,313,2
307,295,307,312,2
307,295,308,312,2
307,297,309,311,2
308,302,310,311,2
308,309,310,311,2
308,316,310,312,2
306,322,310,311,2
306,325,308,310,2
304,325,307,309,2
304,323,305,308,2
304,320,304,308,2
304,316,303,308,2
305,313,303,309,2
306,309,303,310,2
306,303,303,309,2
306,296,303,307,2
305,291,303,305,2
304,288,302,302,2
303,289,301,300,2
302,294,300,299,2
302,303,299,299,2
302,314,299,299,2
301,322,299,299,2
300,327,299,299,2
300,329,299,299,2
300,329,299,299,2
300,326,299,300,2
300,321,300,299,2
301,316,302,299,2
302,311,303,300,2
304,307,305,300,2
306,304,306,301,2
307,303,307,302,2
309,305,307,303,2
310,308,305,304,2
310,310,304,305,2
310,308,303,306,2
311,304,303,306,2
311,295,302,307,2
310,285,302,305,2
310,274,302,304,2
309,268,303,303,2
309,267,304,303,2
308,273,305,302,2
308,281,305,303,2
308,290,305,303,2
308,298,305,303,2
307,304,303,302,2
306,310,302,302,2
305,314,301,302,2
304,317,302,302,2
304,319,303,303,2
305,321,303,303,2
305,322,304,303,2
305,324,303,303,2
305,324,302,303,2
305,324,301,303,2
306,325,300,302,2
306,325,299,301,2
307,324,299,301,2
307,322,299,300,2
307,319,299,300,2
307,315,299,300,2
307,311,300,301,2
307,307,302,302,2
308,305,305,302,2
308,305,307,302,2
308,307,308,303,2
307,309,308,303,2
307,310,307,303,2
307,310,306,303,2
307,309,306,301,2
308,309,306,299,2
307,308,306,298,2
307,308,306,296,2
307,307,306,296,2
307,305,306,296,2
307,300,306,296,2
308,290,306,297,2
308,277,307,298,2
309,265,307,299,2
310,257,307,300,2
311,252,308,302,2
313,249,307,303,2
313,250,307,304,2
312,257,307,303,2
311,268,306,302,2
310,281,307,301,2
309,294,308,301,2
309,308,310,301,2
309,323,312,302,2
309,335,313,302,2
308,343,313,303,2
308,345,312,303,2
308,344,311,303,2
308,341,309,302,2
308,336,308,300,2
308,329,307,300,2
308,323,307,299,2
309,317,307,299,2
308,312,307,299,2
308,309,308,299,2
308,306,308,300,2
308,304,307,300,2
307,302,306,301,2
307,301,304,301,2
306,301,302,302,2
304,300,301,302,2
303,296,300,302,2
302,290,299,300,2
302,284,300,299,2
302,281,301,299,2
304,281,302,299,2
305,283,303,299,2
306,288,303,299,2
306,296,303,299,2
307,305,302,300,2
308,312,302,301,2
309,317,302,303,2
310,320,303,305,2
310,321,304,306,2
309,320,304,306,2
309,319,303,307,2
309,317,303,308,2
308,315,304,309,2
308,313,304,310,2
309,312,305,310,2
309,312,307,311,2
309,313,308,312,2
309,310,309,312,2
308,300,309,311,2
308,286,309,309,2
307,273,308,308,2
307,262,307,308,2
308,257,306,308,2
308,257,305,308,2
308,266,304,307,2
307,280,304,308,2
307,295,303,309,2
306,310,303,309,2
306,320,301,308,2
305,325,299,307,2
304,326,299,306,2
304,325,300,306,2
305,323,303,307,2
307,320,306,308,2
309,319,310,309,2
310,321,311,310,2
310,326,312,312,2
311,332,312,314,2
311,335,311,315,2
310,334,311,314,2
309,331,310,313,2
308,327,309,311,2
308,322,309,309,2
308,317,310,307,2
308,311,310,304,2
308,304,310,303,2
308,299,309,302,2
308,295,309,303,2
309,290,309,304,2
309,287,310,305,2
309,287,310,306,2
309,287,310,307,2
308,288,310,307,2
308,290,310,307,2
307,292,309,307,2
306,295,308,307,2
304,300,308,306,2
302,305,308,305,2
301,308,308,303,2
301,311,309,303,2
301,312,309,304,2
303,312,309,305,2
303,312,310,306,2
304,312,310,306,2
304,315,310,307,2
304,317,310,306,2
304,317,309,305,2
305,316,308,304,2
305,313,307,302,2
305,311,306,301,2
305,310,305,302,2
305,310,305,303,2
305,310,306,304,2
304,309,307,305,2
304,306,308,306,2
304,303,308,307,2
303,300,308,307,2
303,297,308,308,2
303,295,307,309,2
303,296,307,309,2
303,298,305,309,2
302,301,304,307,2
302,304,303,307,2
302,304,302,306,2
303,303,302,307,2
304,301,303,308,2
305,299,302,308,2
305,299,302,308,2
304,299,301,308,2
304,301,300,307,2
303,303,299,306,2
301,305,299,306,2
301,307,298,306,2
300,309,298,307,2
300,310,298,308,2
300,311,299,309,2
301,311,300,310,2
302,311,302,311,2
303,310,303,311,2
304,307,303,313,2
304,303,303,314,2
304,297,303,315,2
304,291,304,316,2
304,284,304,317,2
304,278,305,317,2
304,273,305,315,2
304,273,305,314,2
304,276,305,314,2
305,279,304,312,2
305,282,303,310,2
304,287,303,308,2
303,293,303,306,2
302,302,303,305,2
301,314,303,305,2
299,325,302,304,2
298,333,301,304,2
298,338,301,305,2
298,341,301,307,2
299,341,301,309,2
300,338,303,312,2
301,334,305,314,2
303,329,307,317,2
304,323,309,317,2
305,317,309,317,2
305,310,310,316,2
305,303,310,314,2
305,297,310,313,2
305,291,309,311,2
305,286,310,310,2
305,283,310,309,2
305,282,311,309,2
305,281,311,309,2
306,279,311,309,2
306,280,311,309,2
305,286,310,309,2
305,295,309,309,2
304,305,309,310,2
304,315,308,312,2
304,325,309,313,2
305,334,309,314,2
305,340,308,314,2
306,343,308,314,2
306,344,307,313,2
307,342,307,313,2
308,339,306,313,2
308,334,305,312,2
309,329,305,311,2
309,322,304,310,2
308,313,304,309,2
307,301,304,307,2
306,291,304,305,2
305,282,303,304,2
306,278,303,304,2
307,279,304,305,2
308,283,304,306,2
309,291,305,306,2
309,300,304,306,2
308,309,304,307,2
308,316,303,307,2
308,320,302,309,2
307,323,302,309,2
306,324,301,309,2
305,322,301,310,2
305,320,301,310,2
306,318,301,310,2
307,315,300,309,2
307,312,300,308,2
306,312,299,308,2
305,313,299,308,2
304,316,298,308,2
303,319,298,307,2
302,321,300,307,2
302,323,302,306,2
302,323,305,306,2
302,321,308,306,2
303,318,310,306,2
303,312,311,307,2
304,304,312,308,2
305,295,312,309,2
306,286,313,310,2
307,279,313,310,2
307,273,313,311,2
307,271,312,310,2
306,273,311,308,2
305,276,310,307,2
304,282,309,305,2
304,290,309,305,2
304,302,309,304,2
304,315,308,304,2
304,324,308,303,2
303,330,307,303,2
303,332,306,303,2
302,331,306,303,2
303,330,306,303,2
303,328,307,303,2
304,326,307,304,2
305,325,308,304,2
305,323,308,304,2
306,320,308,305,2
306,316,308,306,2
306,312,307,306,2
306,308,308,307,2
307,304,307,308,2
307,300,307,308,2
308,296,307,308,2
308,292,306,307,2
309,289,306,306,2
309,288,305,305,2
310,287,305,305,2
311,285,305,305,2
311,283,305,306,2
312,280,305,307,2
312,279,305,307,2
311,280,305,307,2
310,285,305,306,2
309,294,304,305,2
307,304,304,305,2
306,315,303,305,2
306,323,303,305,2
305,328,303,306,2
306,330,303,306,2
306,331,303,307,2
307,331,302,306,2
307,330,303,305,2
307,328,304,304,2
307,324,304,303,2
306,320,305,303,2
307,313,306,303,2
307,305,307,303,2
308,298,308,303,2
308,293,308,303,2
308,293,309,304,2
309,297,310,305,2
308,303,310,305,2
308,309,310,305,2
306,315,309,306,2
306,320,309,306,2
305,323,308,307,2
305,326,307,306,2
305,327,306,306,2
305,328,306,306,2
305,327,305,305,2
304,325,305,304,2
304,323,304,303,2
305,320,303,303,2
306,316,304,303,2
306,310,305,303,2
307,305,305,304,2
307,303,306,305,2
307,304,306,307,2
307,308,306,308,2
307,312,307,309,2
307,314,307,309,2
307,314,306,309,2
306,312,304,310,2
305,310,303,310,2
304,308,302,312,2
304,306,303,313,2
305,306,306,315,2
305,308,307,316,2
306,311,309,316,2
305,313,309,316,2
304,314,309,314,2
304,314,309,311,2
303,312,309,309,2
303,311,308,307,2
303,311,308,305,2
303,312,308,304,2
303,312,308,303,2
303,313,309,303,2
304,310,309,303,2
304,304,309,303,2
305,296,309,304,2
306,287,308,304,2
306,278,308,304,2
307,273,308,305,2
307,272,308,306,2
308,277,307,308,2
307,288,307,310,2
306,301,307,310,2
305,314,307,310,2
304,323,307,309,2
303,328,306,308,2
303,330,306,307,2
303,329,305,305,2
303,326,304,304,2
303,321,303,303,2
304,314,302,302,2
305,307,301,301,2
307,300,301,300,2
308,294,302,300,2
309,291,304,301,2
310,291,306,302,2
310,293,309,303,2
310,295,312,304,2
309,295,313,305,2
308,292,314,306,2
308,286,315,308,2
308,280,315,310,2
308,275,315,312,2
308,274,315,313,2
308,278,314,314,2
307,289,313,312,2
307,303,312,311,2
306,315,312,310,2
306,324,311,309,2
305,329,310,308,2
305,330,309,307,2
305,328,309,306,2
305,326,309,304,2
306,323,309,304,2
307,322,310,302,2
308,321,310,301,2
308,320,309,300,2
308,317,308,299,2
308,314,308,299,2
309,311,307,299,2
309,308,307,297,2
309,307,306,295,2
308,305,305,293,2
308,304,304,291,2
307,303,303,290,2
307,303,303,289,2
306,302,302,289,2
305,303,303,289,2
304,303,303,289,2
304,303,302,290,2
303,305,302,290,2
302,308,302,291,2
302,312,302,293,2
303,314,303,295,2
303,313,304,297,2
