308,281,306,307,2
307,294,304,307,2
307,304,303,308,2
306,311,304,308,2
305,317,307,308,2
306,320,311,308,2
306,322,316,308,2
305,325,318,308,2
306,328,317,308,2
305,328,315,308,2
305,326,312,307,2
304,322,309,305,2
304,316,308,303,2
304,312,306,302,2
304,307,306,300,2
304,301,305,299,2
303,297,304,298,2
303,293,304,298,2
302,290,303,299,2
303,287,303,300,2
304,285,304,301,2
305,284,305,302,2
305,287,306,303,2
305,291,306,303,2
305,299,305,304,2
305,308,304,304,2
305,317,302,305,2
305,323,300,307,2
305,328,298,307,2
305,329,296,308,2
305,329,296,307,2
304,327,295,306,2
304,323,294,305,2
304,315,294,303,2
304,302,295,303,2
304,290,297,302,2
304,280,300,302,2
304,275,302,302,2
304,279,302,303,2
305,290,301,304,2
304,301,298,304,2
303,310,296,305,2
302,317,295,306,2
301,320,296,306,2
301,318,299,306,2
302,315,303,307,2
304,308,306,309,2
307,300,309,310,2
308,293,312,311,2
310,288,314,312,2
311,288,316,312,2
311,294,317,312,2
311,305,316,313,2
311,317,316,314,2
310,326,315,315,2
308,333,313,315,2
308,336,311,313,2
307,336,310,311,2
306,334,309,308,2
306,329,308,306,2
307,322,308,305,2
307,316,308,305,2
308,310,308,306,2
309,304,307,307,2
309,298,307,307,2
309,294,307,306,2
309,292,307,305,2
308,291,308,304,2
309,292,309,304,2
309,294,311,304,2
309,296,313,305,2
308,297,313,306,2
308,298,312,306,2
306,299,310,305,2
305,301,308,305,2
304,303,308,305,2
304,307,309,306,2
305,311,310,308,2
304,315,310,309,2
304,316,309,311,2
304,316,308,312,2
304,316,307,312,2
304,316,306,311,2
304,316,306,311,2
304,316,306,309,2
304,315,306,307,2
304,313,307,306,2
304,308,307,307,2
304,304,307,310,2
304,300,306,312,2
305,295,305,313,2
305,291,304,314,2
305,288,304,314,2
305,288,302,314,2
305,291,301,313,2
305,297,300,313,2
306,306,299,312,2
305,315,298,312,2
306,322,298,312,2
306,326,298,312,2
306,329,299,313,2
307,330,300,315,2
307,329,301,315,2
306,328,302,315,2
306,325,303,314,2
305,324,303,313,2
304,322,301,311,2
303,320,298,308,2
302,316,296,307,2
302,313,296,305,2
303,310,297,305,2
305,308,298,306,2
308,306,300,309,2
308,303,301,311,2
308,297,302,310,2
307,291,303,307,2
306,285,305,304,2
305,282,307,301,2
304,278,308,299,2
304,273,309,298,2
304,268,308,298,2
305,267,308,299,2
306,270,309,301,2
306,275,312,303,2
307,281,314,305,2
307,287,317,309,2
307,297,317,313,2
305,309,316,316,2
304,319,313,318,2
302,326,311,319,2
301,331,308,317,2
300,335,307,316,2
299,335,309,314,2
300,335,310,313,2
301,332,311,312,2
302,328,311,311,2
303,321,309,310,2
304,315,307,308,2
304,315,304,307,2
303,318,301,305,2
301,323,298,304,2
300,325,298,303,2
299,324,300,302,2
300,319,302,302,2
301,311,306,303,2
302,304,308,303,2
301,299,310,302,2
301,299,311,302,2
301,303,313,304,2
302,308,314,306,2
302,313,313,309,2
303,315,312,311,2
304,314,310,313,2
304,311,308,315,2
304,306,306,316,2
305,298,305,318,2
306,289,305,318,2
307,281,306,318,2
309,275,308,318,2
309,271,310,317,2
310,270,310,315,2
309,271,311,312,2
308,277,310,309,2
306,288,309,308,2
305,299,308,307,2
305,308,307,308,2
304,315,306,308,2
303,320,305,309,2
302,325,303,309,2
301,329,302,309,2
300,332,301,308,2
300,333,299,308,2
300,335,298,307,2
300,335,297,306,2
301,333,297,305,2
302,329,298,305,2
302,325,299,305,2
303,321,299,305,2
304,317,299,307,2
305,314,300,307,2
305,311,301,307,2
305,308,302,307,2
305,305,304,306,2
304,301,305,306,2
305,295,306,306,2
305,289,307,308,2
305,284,308,311,2
305,280,309,313,2
306,279,309,314,2
307,282,309,315,2
307,288,310,314,2
306,298,310,313,2
305,311,310,310,2
304,322,309,308,2
302,328,309,305,2
301,330,308,304,2
301,328,307,304,2
301,324,307,305,2
302,319,306,307,2
302,314,306,308,2
303,307,306,308,2
303,304,305,308,2
303,304,303,306,2
303,307,302,305,2
303,310,302,304,2
303,312,302,303,2
304,311,303,301,2
305,309,303,301,2
307,307,304,301,2
308,305,304,302,2
309,302,305,302,2
309,302,305,302,2
309,303,304,302,2
308,304,303,300,2
307,303,299,298,2
305,302,295,296,2
305,300,291,295,2
304,296,289,294,2
304,290,289,296,2
305,283,292,299,2
306,276,295,304,2
306,270,299,308,2
308,270,302,313,2
308,276,304,315,2
307,285,304,317,2
305,296,303,317,2
304,305,301,316,2
303,315,299,317,2
303,323,297,317,2
303,327,295,316,2
304,325,294,316,2
304,318,294,315,2
304,310,295,315,2
305,302,298,315,2
305,292,301,314,2
306,283,304,314,2
307,278,307,314,2
308,275,310,314,2
308,273,311,313,2
308,271,311,312,2
308,271,312,310,2
308,275,311,310,2
307,283,311,310,2
306,291,310,310,2
305,296,309,308,2
305,302,307,308,2
305,307,305,307,2
305,312,303,306,2
304,316,302,306,2
303,318,302,306,2
302,321,302,305,2
301,324,303,305,2
300,327,303,306,2
299,331,304,306,2
299,335,304,306,2
299,340,304,306,2
299,344,303,305,2
299,345,302,305,2
300,343,302,305,2
301,341,304,306,2
302,339,306,307,2
304,336,309,309,2
305,332,312,310,2
306,326,313,312,2
308,320,314,312,2
308,312,314,312,2
309,304,314,311,2
309,297,313,310,2
309,290,311,308,2
309,284,308,306,2
309,279,306,305,2
308,273,304,303,2
307,268,304,302,2
306,265,304,302,2
304,265,304,302,2
304,273,305,302,2
303,288,305,303,2
302,304,306,304,2
302,317,306,305,2
302,324,306,306,2
302,325,306,305,2
302,322,306,304,2
302,319,305,304,2
302,316,305,303,2
303,311,305,303,2
303,305,306,304,2
304,301,307,304,2
305,302,309,303,2
306,306,310,302,2
307,311,309,301,2
308,314,308,301,2
308,315,305,300,2
308,312,302,300,2
308,306,299,299,2
307,298,297,297,2
306,293,297,297,2
305,294,297,297,2
304,298,299,297,2
303,301,302,299,2
304,303,306,303,2
304,304,307,306,2
304,306,307,309,2
303,309,305,311,2
302,312,302,310,2
302,313,299,309,2
302,314,296,306,2
301,314,295,303,2
300,313,295,298,2
300,310,295,295,2
301,306,297,294,2
302,305,299,295,2
303,305,303,297,2
304,305,308,301,2
306,304,311,304,2
308,299,314,306,2
309,293,314,308,2
310,287,314,310,2
310,283,312,311,2
310,279,310,312,2
309,276,307,313,2
308,278,304,313,2
308,286,301,313,2
307,296,301,313,2
306,305,301,312,2
306,313,300,311,2
305,320,300,309,2
305,325,298,307,2
304,326,295,306,2
304,323,292,305,2
305,317,291,305,2
305,311,292,306,2
305,307,295,305,2
305,304,299,305,2
305,305,303,304,2
305,308,305,303,2
305,314,306,303,2
305,319,306,304,2
306,322,308,306,2
307,323,309,308,2
308,323,311,310,2
309,322,312,312,2
310,319,313,313,2
310,314,314,313,2
311,310,314,313,2
311,306,314,312,2
311,303,313,310,2
311,299,313,309,2
311,298,313,309,2
311,300,313,310,2
311,306,314,311,2
311,314,314,311,2
311,322,313,311,2
311,327,312,311,2
311,329,311,312,2
311,331,309,311,2
310,332,307,310,2
310,330,305,308,2
309,327,304,305,2
309,323,303,304,2
308,318,303,303,2
308,312,303,302,2
306,304,302,300,2
306,296,301,299,2
306,289,303,300,2
307,284,307,300,2
308,281,311,301,2
309,280,315,303,2
310,284,318,305,2
311,289,320,306,2
312,289,320,307,2
313,285,318,307,2
313,276,317,306,2
314,270,314,305,2
313,268,311,304,2
313,274,308,304,2
311,288,306,304,2
309,305,305,305,2
306,322,303,306,2
304,336,302,306,2
302,344,300,305,2
302,348,300,305,2
301,346,301,305,2
301,340,303,305,2
302,330,307,305,2
304,318,312,304,2
306,305,315,303,2
307,294,317,302,2
307,287,316,302,2
307,285,313,303,2
306,288,310,304,2
304,294,306,306,2
303,302,304,307,2
302,309,302,307,2
300,313,301,308,2
300,315,301,308,2
300,316,299,308,2
300,317,298,308,2
300,318,296,306,2
300,320,296,303,2
300,321,295,299,2
299,324,295,296,2
300,325,296,296,2
300,325,297,296,2
301,325,299,298,2
302,323,301,302,2
302,321,302,305,2
303,319,304,309,2
304,319,305,311,2
304,318,305,311,2
304,316,305,310,2
304,311,305,310,2
303,303,306,311,2
304,294,306,312,2
303,287,306,312,2
303,284,305,312,2
303,286,305,312,2
303,294,305,312,2
304,304,305,313,2
304,315,303,312,2
304,321,302,312,2
304,322,301,310,2
303,318,300,308,2
303,313,299,305,2
303,310,298,304,2
304,310,300,303,2
305,314,303,303,2
306,319,305,305,2
306,324,308,307,2
306,328,309,308,2
305,330,309,309,2
304,329,309,310,2
305,325,309,310,2
305,316,310,310,2
307,305,309,309,2
308,295,308,309,2
310,286,306,309,2
310,282,304,309,2
311,282,302,309,2
311,285,301,310,2
311,292,302,309,2
309,303,304,309,2
307,318,307,309,2
304,331,308,308,2
303,338,308,306,2
301,340,307,304,2
301,339,305,303,2
300,337,304,302,2
301,336,303,302,2
301,333,304,302,2
303,328,304,303,2
303,322,306,305,2
304,317,309,307,2
305,312,311,309,2
306,308,311,310,2
307,306,310,311,2
307,305,309,311,2
307,306,307,311,2
307,307,305,311,2
307,309,304,310,2
307,308,303,308,2
307,305,302,305,2
306,303,302,302,2
305,301,302,300,2
305,300,303,300,2
304,300,303,302,2
305,297,304,303,2
305,292,304,303,2
306,286,304,303,2
306,282,304,305,2
307,280,305,305,2
307,282,307,305,2
307,289,307,305,2
308,300,307,306,2
307,311,306,305,2
307,317,305,304,2
305,322,303,303,2
304,324,302,303,2
304,323,300,303,2
305,323,300,304,2
306,321,303,306,2
307,319,307,309,2
309,317,311,312,2
309,316,312,315,2
309,315,312,317,2
310,313,311,317,2
309,310,310,317,2
309,306,309,317,2
309,301,308,315,2
310,295,307,314,2
310,289,306,312,2
310,284,304,309,2
309,282,301,305,2
308,285,299,303,2
307,290,297,301,2
307,295,298,300,2
307,298,302,300,2
306,300,306,301,2
306,304,310,303,2
306,308,311,306,2
306,311,312,308,2
308,312,312,310,2
309,313,311,311,2
310,311,310,312,2
311,307,309,312,2
312,299,307,311,2
312,291,306,310,2
313,285,306,309,2
313,283,307,309,2
314,285,307,308,2
313,291,308,306,2
312,300,307,304,2
311,309,305,302,2
309,316,302,301,2
307,318,299,300,2
306,317,297,299,2
305,311,294,298,2
305,303,292,298,2
305,294,291,297,2
305,284,291,298,2
306,276,293,300,2
307,271,296,301,2
308,270,298,304,2
308,271,300,307,2
309,276,302,311,2
310,284,304,313,2
310,294,305,315,2
310,306,306,315,2
309,320,307,316,2
307,333,307,315,2
305,343,310,314,2
304,348,312,313,2
304,349,314,315,2
304,347,315,316,2
304,344,315,317,2
304,340,314,318,2
304,335,313,317,2
304,327,312,316,2
304,318,312,316,2
304,311,312,315,2
304,306,312,314,2
304,305,311,313,2
305,306,311,313,2
305,308,311,312,2
305,312,310,311,2
305,316,310,309,2
305,320,309,308,2
305,323,308,306,2
304,323,306,304,2
304,320,304,302,2
304,314,301,301,2
304,307,298,301,2
304,298,297,302,2
304,288,297,302,2
305,279,299,302,2
306,274,300,302,2
307,274,302,302,2
308,277,303,302,2
308,283,304,302,2
308,293,305,304,2
308,307,306,307,2
308,321,308,310,2
308,328,311,313,2
308,327,314,315,2
307,323,315,316,2
306,318,315,315,2
305,312,313,313,2
303,304,311,311,2
303,296,309,308,2
303,288,306,306,2
303,282,304,305,2
303,280,302,304,2
303,280,301,303,2
302,283,299,300,2
301,290,300,298,2
301,298,302,296,2
302,307,304,296,2
302,314,307,297,2
303,320,309,299,2
304,324,311,301,2
306,324,312,306,2
307,322,314,311,2
308,318,314,315,2
309,316,313,318,2
308,316,311,319,2
308,316,309,317,2
307,318,307,313,2
306,320,304,310,2
305,323,302,307,2
304,324,300,304,2
304,325,298,302,2
304,322,296,301,2
303,319,296,300,2
304,314,297,298,2
304,311,300,297,2
304,309,302,297,2
303,307,304,297,2
303,305,306,298,2
304,304,308,300,2
304,302,310,302,2
305,301,311,304,2
305,300,311,305,2
306,298,310,305,2
306,295,309,305,2
306,292,307,305,2
305,289,305,303,2
304,289,304,301,2
302,288,305,297,2
302,288,307,294,2
302,285,310,292,2
303,278,311,291,2
305,268,312,292,2
306,258,311,294,2
307,252,309,294,2
307,254,306,294,2
308,263,304,295,2
307,281,303,296,2
305,302,301,298,2
304,320,301,301,2
303,332,303,303,2
303,338,305,305,2
303,339,307,307,2
304,336,308,309,2
305,332,308,311,2
307,326,307,312,2
308,320,306,311,2
310,311,305,310,2
311,300,304,309,2
312,291,304,308,2
313,284,304,308,2
313,283,303,307,2
312,287,303,306,2
311,295,303,305,2
308,305,303,303,2
306,315,304,301,2
304,322,306,300,2
304,324,308,299,2
304,323,309,298,2
305,321,309,299,2
306,320,309,301,2
307,319,309,302,2
307,321,309,303,2
306,325,308,304,2
307,329,308,305,2
307,331,308,305,2
307,330,308,304,2
308,328,307,303,2
309,324,307,302,2
309,321,307,301,2
308,320,306,301,2
309,318,306,301,2
308,317,305,301,2
307,313,305,303,2
306,308,305,304,2
306,303,305,304,2
307,297,306,305,2
308,292,306,304,2
309,289,306,304,2
311,289,307,304,2
312,292,306,304,2
312,298,305,304,2
311,303,305,304,2
311,306,305,305,2
310,308,305,304,2
309,310,305,304,2
308,314,305,304,2
308,316,305,304,2
307,319,304,305,2
306,320,303,305,2
306,319,302,304,2
306,315,302,304,2
305,309,301,303,2
305,301,301,302,2
304,291,301,301,2
304,283,302,300,2
305,275,303,299,2
306,270,303,299,2
307,269,304,299,2
308,271,303,299,2
308,273,303,297,2
308,276,302,296,2
308,281,302,294,2
308,291,304,295,2
307,305,307,299,2
307,320,311,304,2
308,332,313,309,2
307,341,313,311,2
306,347,310,313,2
305,348,307,313,2
304,345,304,313,2
304,339,302,313,2
304,331,301,313,2
305,322,302,313,2
305,314,304,313,2
306,309,307,312,2
307,308,309,312,2
307,312,311,311,2
308,317,312,309,2
308,322,311,307,2
308,326,310,305,2
309,326,308,304,2
309,324,306,303,2
310,318,305,304,2
310,312,304,304,2
310,305,303,305,2
309,300,305,306,2
308,297,307,307,2
308,297,310,308,2
307,299,314,309,2
307,302,316,310,2
307,304,316,309,2
307,302,315,309,2
307,299,314,307,2
307,295,314,305,2
308,293,314,304,2
308,291,313,302,2
307,290,312,301,2
307,291,310,299,2
305,294,308,299,2
305,296,307,299,2
304,298,307,299,2
304,299,308,299,2
305,300,309,300,2
305,299,310,302,2
305,298,310,303,2
304,296,310,303,2
304,293,310,304,2
305,290,311,306,2
307,288,312,308,2
308,287,313,310,2
310,289,314,311,2
310,297,315,311,2
309,308,314,310,2
307,317,312,309,2
305,321,309,308,2
303,319,306,308,2
302,310,303,308,2
302,299,300,308,2
301,289,299,308,2
301,284,298,308,2
302,283,298,308,2
302,287,298,308,2
302,295,297,308,2
301,304,295,309,2
301,310,295,309,2
300,312,295,309,2
300,313,299,309,2
301,314,303,309,2
302,317,308,310,2
303,321,312,311,2
304,325,314,312,2
304,326,315,312,2
305,326,315,312,2
306,327,315,313,2
307,330,315,314,2
307,336,314,314,2
307,341,313,314,2
306,343,311,313,2
305,341,310,313,2
303,336,309,312,2
301,329,309,311,2
299,319,309,309,2
297,311,307,306,2
296,304,305,303,2
295,302,303,300,2
296,301,302,299,2
297,301,304,299,2
299,300,307,303,2
301,298,310,308,2
304,293,311,312,2
305,286,312,314,2
307,279,311,313,2
307,274,310,312,2
307,271,308,310,2
306,271,306,308,2
304,276,305,307,2
304,285,306,307,2
304,296,308,307,2
305,307,310,308,2
305,315,312,310,2
306,321,313,312,2
306,324,313,315,2
306,327,312,317,2
306,329,311,318,2
306,333,309,318,2
305,339,308,318,2
305,343,307,318,2
304,345,307,317,2
305,343,307,316,2
305,337,306,313,2
306,331,306,310,2
307,323,307,308,2
307,318,307,306,2
308,315,308,306,2
308,315,308,307,2
308,317,307,309,2
307,321,305,311,2
307,323,302,311,2
307,324,302,310,2
307,323,301,310,2
307,321,302,309,2
307,319,302,310,2
308,318,302,310,2
307,316,302,310,2
307,313,301,309,2
306,311,300,309,2
306,310,300,309,2
307,306,300,310,2
307,302,300,309,2
307,295,299,309,2
307,290,298,309,2
307,285,298,310,2
308,282,300,310,2
308,282,302,310,2
307,286,304,309,2
305,291,306,308,2
304,298,309,307,2
304,304,311,307,2
304,308,313,308,2
304,309,313,308,2
305,308,312,307,2
305,307,311,306,2
306,306,310,304,2
306,308,309,303,2
307,309,308,302,2
308,311,306,302,2
308,312,304,300,2
307,314,303,300,2
306,313,302,299,2
305,311,302,298,2
304,305,302,297,2
304,296,303,296,2
304,286,304,295,2
305,276,305,295,2
305,269,307,295,2
306,265,309,298,2
307,263,311,301,2
308,266,312,304,2
308,274,311,304,2
307,285,309,302,2
305,297,306,298,2
303,306,304,294,2
302,311,301,290,2
302,314,301,287,2
302,314,302,287,2
303,316,306,291,2
305,321,311,298,2
307,327,316,305,2
307,332,318,310,2
307,333,317,312,2
307,331,316,313,2
305,329,313,312,2
304,325,310,311,2
303,322,308,309,2
303,320,307,309,2
302,319,306,310,2
302,320,305,311,2
302,320,306,312,2
302,317,306,312,2
302,312,307,312,2
303,305,308,312,2
304,297,308,311,2
305,291,308,310,2
305,290,308,309,2
304,294,307,309,2
303,299,305,309,2
301,303,304,308,2
299,307,302,307,2
298,311,301,306,2
297,317,300,306,2
298,322,300,306,2
299,325,300,305,2
299,325,300,305,2
301,323,299,305,2
301,318,299,304,2
302,310,298,303,2
303,300,299,302,2
305,289,301,301,2
306,280,304,301,2
308,278,307,301,2
309,281,309,301,2
309,289,309,299,2
308,299,308,298,2
307,310,307,299,2
306,317,308,301,2
305,321,308,303,2
305,322,308,305,2
305,320,308,306,2
305,317,308,306,2
305,310,308,305,2
306,303,308,305,2
306,296,309,304,2
307,292,309,304,2
307,291,310,304,2
308,294,310,303,2
307,301,309,302,2
306,310,308,301,2
305,320,308,302,2
304,328,308,303,2
304,331,309,303,2
304,330,310,303,2
303,327,309,302,2
302,324,307,301,2
302,320,306,301,2
302,317,305,302,2
302,315,306,304,2
304,311,309,306,2
305,306,310,307,2
305,302,311,307,2
305,296,312,306,2
305,288,311,304,2
305,281,311,303,2
304,278,310,302,2
304,279,309,302,2
304,285,308,301,2
304,293,306,300,2
303,301,303,298,2
302,309,301,298,2
303,313,300,297,2
304,313,301,298,2
305,311,302,299,2
305,309,303,301,2
306,307,304,304,2
307,306,305,306,2
307,306,307,308,2
306,307,308,309,2
305,307,309,309,2
304,308,310,308,2
304,310,311,307,2
305,314,311,306,2
305,320,310,306,2
304,326,309,305,2
303,329,307,303,2
303,327,306,301,2
303,323,305,300,2
302,315,305,299,2
303,306,307,299,2
305,296,309,299,2
305,289,311,299,2
306,286,312,299,2
305,288,314,300,2
304,297,314,300,2
303,308,315,301,2
302,318,316,300,2
300,324,317,299,2
300,327,317,297,2
300,325,315,294,2
300,320,313,292,2
301,313,311,289,2
301,304,308,288,2
302,297,307,289,2
303,292,307,291,2
304,290,308,293,2
304,292,309,295,2
304,296,310,298,2
304,301,311,302,2
305,303,313,306,2
305,302,314,310,2
306,299,316,312,2
307,294,316,312,2
307,289,314,311,2
307,290,312,309,2
306,297,310,308,2
306,306,310,308,2
306,314,311,309,2
306,320,313,310,2
306,325,314,311,2
306,331,312,312,2
305,338,310,313,2
304,340,310,312,2
303,335,310,311,2
303,326,311,308,2
303,315,313,307,2
303,307,314,305,2
304,303,314,305,2
303,303,314,305,2
303,307,314,306,2
302,310,315,306,2
302,311,316,306,2
302,308,316,307,2
302,302,316,307,2
303,294,315,307,2
304,288,313,308,2
304,284,309,308,2
304,283,306,308,2
304,286,304,308,2
302,294,303,307,2
302,304,303,307,2
302,314,305,307,2
303,321,308,308,2
304,326,310,308,2
304,329,311,309,2
304,328,310,309,2
304,325,308,308,2
304,321,306,306,2
304,318,304,304,2
303,315,301,303,2
303,314,299,302,2
303,313,298,301,2
303,311,296,301,2
303,306,297,302,2
303,299,299,305,2
303,291,301,308,2
303,285,303,310,2
303,281,304,313,2
304,278,307,314,2
304,274,309,315,2
304,272,310,314,2
305,272,311,314,2
305,275,311,315,2
306,282,311,318,2
306,292,312,320,2
306,304,312,321,2
305,316,312,321,2
304,323,311,319,2
303,326,311,318,2
303,327,310,315,2
302,326,309,313,2
302,323,307,311,2
302,320,304,310,2
302,316,301,309,2
302,311,299,307,2
303,304,298,304,2
304,294,298,301,2
305,284,299,298,2
306,274,301,295,2
307,266,302,293,2
307,263,303,289,2
305,267,303,288,2
304,277,304,288,2
302,291,304,291,2
300,306,304,295,2
298,319,304,300,2
298,327,304,304,2
298,331,304,305,2
297,331,303,305,2
297,330,301,305,2
298,327,301,305,2
299,321,301,306,2
300,315,303,306,2
300,310,306,307,2
301,308,310,308,2
302,309,313,310,2
303,311,315,311,2
304,316,316,313,2
304,322,316,315,2
304,331,315,317,2
305,339,314,319,2
304,341,314,320,2
304,336,313,320,2
304,322,313,320,2
304,304,315,319,2
303,287,317,319,2
303,274,319,318,2
304,268,320,319,2
304,270,321,319,2
304,280,320,319,2
303,293,318,318,2
302,308,315,316,2
300,322,311,315,2
298,330,308,312,2
298,331,305,310,2
299,328,303,310,2
301,325,301,309,2
302,321,301,310,2
303,320,300,310,2
304,318,298,309,2
303,317,297,308,2
302,314,295,308,2
301,309,295,307,2
301,302,296,306,2
301,296,299,304,2
302,290,303,303,2
303,288,306,303,2
304,290,309,304,2
306,295,311,306,2
307,299,310,307,2
307,302,309,307,2
307,303,308,305,2
305,305,307,304,2
304,307,308,304,2
302,310,310,304,2
301,314,313,305,2
300,320,314,306,2
300,327,314,307,2
300,334,315,307,2
301,340,315,306,2
302,345,314,305,2
302,345,313,305,2
302,342,312,305,2
302,336,310,305,2
302,328,308,306,2
302,319,308,307,2
303,309,308,310,2
304,300,310,312,2
304,292,311,313,2
305,286,312,313,2
304,283,312,313,2
304,285,311,313,2
304,291,310,313,2
304,298,309,312,2
304,303,308,313,2
305,306,307,313,2
305,308,304,312,2
304,309,301,311,2
304,307,298,310,2
304,303,297,308,2
305,297,297,306,2
306,291,299,305,2
307,288,303,306,2
308,286,305,307,2
308,287,307,307,2
309,291,307,307,2
309,300,307,305,2
309,311,305,303,2
307,321,304,300,2
305,330,303,297,2
304,336,303,295,2
303,339,304,295,2
303,339,306,296,2
304,337,309,298,2
305,332,310,300,2
306,327,311,302,2
306,321,310,305,2
308,316,308,307,2
309,311,306,309,2
310,308,305,310,2
312,305,305,313,2
313,303,305,315,2
314,300,305,317,2
315,297,305,318,2
316,295,304,318,2
315,297,304,317,2
314,302,304,316,2
312,311,304,314,2
311,320,304,313,2
310,327,306,313,2
310,330,308,313,2
310,330,308,313,2
309,327,309,313,2
309,324,308,312,2
309,319,307,310,2
309,315,305,309,2
310,310,304,308,2
310,306,303,308,2
310,302,303,308,2
310,297,304,308,2
311,293,306,308,2
311,290,308,309,2
312,290,309,309,2
312,294,309,309,2
312,302,308,309,2
311,312,307,309,2
309,321,305,309,2
308,329,302,308,2
306,334,299,306,2
305,336,298,305,2
305,336,298,304,2
305,335,300,304,2
306,336,302,305,2
306,335,303,306,2
307,332,305,308,2
307,326,305,309,2
307,314,305,310,2
307,300,305,309,2
307,285,305,308,2
307,274,307,307,2
307,270,309,306,2
307,271,311,305,2
307,277,312,305,2
307,286,313,306,2
307,297,312,308,2
308,310,311,308,2
308,322,310,308,2
307,330,308,306,2
306,336,307,305,2
306,339,306,304,2
305,339,306,303,2
304,339,306,302,2
304,337,307,303,2
304,336,307,303,2
304,334,306,303,2
304,331,304,303,2
305,328,303,303,2
306,324,301,302,2
306,320,300,302,2
307,314,300,303,2
308,309,302,305,2
309,304,303,308,2
309,301,304,311,2
309,299,305,313,2
309,298,305,314,2
309,299,306,315,2
308,300,306,316,2
308,302,306,317,2
308,302,306,318,2
309,301,306,318,2
308,301,307,316,2
308,302,306,314,2
308,305,306,312,2
307,309,306,310,2
306,311,304,309,2
305,313,303,308,2
304,314,303,307,2
304,313,303,307,2
304,311,303,306,2
305,308,304,306,2
306,304,305,305,2
307,302,305,305,2
308,299,305,305,2
309,292,305,304,2
309,280,305,302,2
310,266,306,301,2
313,252,308,301,2
315,240,311,301,2
316,235,312,303,2
316,239,312,305,2
315,252,311,308,2
314,273,309,310,2
313,299,307,313,2
311,320,306,314,2
309,336,304,315,2
307,343,304,314,2
306,346,303,313,2
306,346,304,314,2
306,344,304,314,2
307,342,305,315,2
307,341,306,317,2
308,339,305,317,2
309,336,303,317,2
309,332,300,316,2
308,327,298,314,2
307,321,297,314,2
307,318,296,314,2
307,317,298,315,2
307,318,301,317,2
308,323,305,320,2
309,332,308,323,2
310,341,309,325,2
310,344,309,325,2
309,342,307,325,2
308,336,306,323,2
307,328,305,321,2
307,320,305,318,2
307,314,305,315,2
307,308,306,313,2
308,304,306,313,2
309,301,307,313,2
310,300,307,314,2
310,298,307,314,2
310,298,306,313,2
309,299,305,312,2
308,300,304,312,2
307,300,305,312,2
307,301,305,313,2
306,302,306,313,2
306,303,306,313,2
307,303,306,314,2
307,303,305,314,2
308,304,304,315,2
309,306,303,316,2
310,307,302,317,2
310,308,301,318,2
310,307,300,317,2
309,306,299,315,2
308,305,298,313,2
308,304,297,310,2
307,303,295,307,2
306,302,294,305,2
306,296,293,304,2
306,287,294,305,2
307,278,296,307,2
307,269,299,308,2
307,264,303,308,2
306,263,306,309,2
306,269,309,309,2
305,282,309,311,2
305,298,308,311,2
305,312,306,312,2
305,321,303,311,2
305,327,301,309,2
304,330,298,308,2
303,332,298,306,2
302,333,299,304,2
302,334,301,303,2
301,334,305,303,2
302,331,309,306,2
304,327,312,310,2
305,320,314,312,2
305,313,315,312,2
306,305,315,312,2
306,297,314,310,2
307,290,313,309,2
307,287,311,308,2
308,287,310,309,2
308,286,310,310,2
309,288,310,311,2
308,290,309,311,2
307,292,308,311,2
306,295,307,311,2
305,299,307,310,2
304,304,307,309,2
304,309,307,308,2
304,311,308,307,2
304,310,309,305,2
304,306,308,303,2
304,303,307,300,2
304,299,306,297,2
304,298,303,295,2
303,298,301,293,2
303,301,300,293,2
302,305,302,296,2
302,309,305,302,2
303,312,308,308,2
304,311,311,313,2
304,307,312,316,2
303,303,311,316,2
302,298,310,316,2
302,295,307,316,2
301,296,304,317,2
301,300,303,318,2
302,309,303,318,2
303,318,304,319,2
304,325,305,320,2
305,330,307,321,2
307,331,307,322,2
308,326,308,321,2
308,319,308,321,2
309,311,308,320,2
310,302,308,317,2
311,295,308,314,2
311,290,309,310,2
311,288,308,308,2
311,287,309,307,2
311,287,311,307,2
312,289,313,309,2
312,294,314,310,2
313,300,314,312,2
313,307,313,312,2
313,312,311,313,2
312,316,310,313,2
312,319,309,313,2
311,321,308,314,2
312,321,308,315,2
312,318,309,315,2
313,314,309,315,2
313,308,308,314,2
313,299,308,314,2
314,289,308,314,2
313,279,309,313,2
313,271,310,312,2
312,266,311,310,2
311,264,312,308,2
310,268,314,306,2
308,277,314,306,2
307,290,314,305,2
306,304,312,304,2
305,318,311,303,2
304,331,308,301,2
304,341,305,300,2
305,346,303,300,2
306,348,301,299,2
308,347,300,300,2
308,344,299,300,2
309,338,298,301,2
309,331,299,302,2
309,323,301,302,2
309,316,304,303,2
310,311,305,304,2
310,309,307,305,2
310,307,307,305,2
311,304,308,305,2
311,301,308,305,2
311,298,308,305,2
311,297,307,305,2
310,299,305,305,2
310,301,303,304,2
309,304,299,304,2
307,305,295,302,2
306,305,291,299,2
305,305,287,295,2
304,304,286,292,2
303,302,287,290,2
304,301,289,292,2
306,300,293,298,2
308,300,296,305,2
309,300,299,309,2
309,300,301,312,2
309,299,304,314,2
308,299,308,316,2
308,301,311,318,2
308,303,313,319,2
309,305,313,320,2
309,306,313,321,2
309,307,312,321,2
309,305,311,322,2
309,301,310,323,2
309,296,310,324,2
309,292,311,323,2
309,288,311,322,2
309,285,311,319,2
309,285,310,315,2
309,289,309,312,2
309,297,307,309,2
308,307,305,308,2
306,316,303,306,2
305,321,301,305,2
304,321,301,305,2
304,318,302,304,2
304,314,305,303,2
304,310,307,302,2
304,307,309,302,2
305,305,311,302,2
305,305,311,303,2
305,308,312,304,2
305,310,311,305,2
304,311,310,306,2
303,311,309,307,2
303,310,309,308,2
304,308,310,308,2
304,307,310,309,2
305,307,311,309,2
306,308,311,310,2
306,310,312,310,2
306,313,312,310,2
306,313,312,309,2
305,311,312,307,2
304,309,312,305,2
304,308,312,304,2
305,307,312,304,2
305,307,313,305,2
306,309,313,306,2
306,309,312,308,2
307,307,311,309,2
307,303,308,310,2
307,298,307,310,2
306,295,305,310,2
306,294,304,310,2
305,295,304,310,2
304,300,304,310,2
304,308,303,310,2
303,314,302,309,2
303,315,303,307,2
302,312,303,306,2
302,306,304,304,2
303,301,306,304,2
304,298,309,304,2
304,298,309,304,2
303,301,308,304,2
302,307,305,304,2
301,313,303,305,2
299,319,302,305,2
298,323,300,305,2
297,325,300,306,2
297,326,300,306,2
297,327,300,308,2
297,329,302,310,2
297,329,304,312,2
297,324,305,314,2
298,313,306,315,2
299,298,305,314,2
299,281,304,312,2
300,266,302,310,2
300,254,302,307,2
300,248,302,304,2
300,251,303,302,2
300,261,304,301,2
300,275,304,302,2
300,290,304,303,2
301,301,304,305,2
302,310,304,306,2
303,317,303,306,2
303,324,303,306,2
303,330,302,306,2
303,334,301,306,2
302,339,300,305,2
301,343,299,305,2
299,346,298,305,2
299,345,298,306,2
299,341,300,307,2
298,336,303,307,2
298,331,305,307,2
298,325,306,306,2
299,320,307,305,2
300,316,308,305,2
301,313,309,307,2
303,310,309,308,2
304,307,309,309,2
306,302,308,310,2
307,294,308,311,2
308,286,307,313,2
309,279,307,315,2
310,273,307,316,2
311,268,306,316,2
311,266,305,314,2
310,270,303,313,2
309,279,301,310,2
307,288,300,308,2
305,297,301,307,2
303,305,302,307,2
302,312,303,308,2
303,316,305,310,2
304,319,307,313,2
305,320,308,314,2
306,321,308,315,2
306,322,308,315,2
306,324,308,313,2
306,327,306,311,2
306,330,304,308,2
305,331,302,307,2
305,331,299,307,2
304,328,297,307,2
304,323,296,307,2
303,316,296,307,2
304,309,298,306,2
304,301,300,305,2
305,294,302,303,2
305,288,305,302,2
305,284,306,301,2
306,284,306,301,2
307,290,305,303,2
307,299,304,305,2
307,308,303,307,2
307,313,303,309,2
307,318,302,310,2
308,322,303,312,2
309,325,304,312,2
310,326,305,313,2
310,326,304,314,2
310,325,304,313,2
309,322,303,312,2
309,319,302,311,2
309,315,301,309,2
308,312,300,308,2
307,309,297,306,2
305,307,295,304,2
304,306,294,302,2
305,307,295,301,2
306,307,296,302,2
308,305,299,304,2
309,302,301,307,2
310,296,302,309,2
310,293,301,310,2
310,291,300,310,2
309,290,299,310,2
308,290,300,312,2
308,294,301,313,2
307,300,303,316,2
307,307,304,316,2
306,313,305,315,2
305,316,308,314,2
305,315,312,313,2
307,311,315,312,2
308,304,316,310,2
309,299,316,308,2
309,296,315,306,2
310,294,313,305,2
309,297,312,304,2
307,300,309,303,2
305,302,305,302,2
303,303,301,301,2
301,306,298,301,2
300,309,296,302,2
300,310,295,303,2
300,310,296,304,2
301,311,299,306,2
301,310,302,307,2
302,309,304,307,2
302,307,306,307,2
303,307,308,306,2
303,310,310,306,2
304,313,312,305,2
304,315,313,305,2
305,316,314,305,2
305,317,314,306,2
305,315,314,307,2
306,311,313,307,2
306,307,312,305,2
306,305,311,304,2
306,305,309,304,2
306,308,308,304,2
307,310,308,305,2
307,310,307,307,2
307,308,306,308,2
307,304,305,309,2
306,299,304,309,2
306,294,302,308,2
305,289,301,307,2
306,286,301,305,2
306,285,302,305,2
307,287,302,306,2
307,291,303,308,2
308,297,304,310,2
308,303,304,311,2
309,309,305,310,2
309,314,305,309,2
309,318,305,307,2
310,320,306,306,2
310,320,308,307,2
310,320,310,308,2
310,319,311,307,2
310,319,311,307,2
309,319,309,306,2
309,319,306,305,2
308,318,304,305,2
308,317,304,305,2
307,314,304,304,2
307,311,305,304,2
307,306,306,304,2
307,299,306,304,2
307,294,306,303,2
307,290,306,302,2
307,290,305,301,2
306,296,303,300,2
305,304,302,300,2
305,312,301,300,2
305,318,299,300,2
305,321,299,302,2
306,322,299,303,2
306,319,299,305,2
307,313,298,305,2
307,305,296,305,2
306,301,294,304,2
305,299,292,303,2
304,300,293,302,2
305,302,295,303,2
306,305,299,304,2
308,309,302,306,2
311,311,304,309,2
312,310,305,312,2
312,305,305,315,2
312,297,307,317,2
311,292,310,318,2
310,291,313,319,2
310,295,316,320,2
309,303,317,320,2
307,311,316,318,2
305,317,314,317,2
304,321,313,316,2
304,322,312,315,2
303,323,312,315,2
304,323,312,313,2
303,323,312,311,2
303,324,311,309,2
303,324,309,308,2
303,323,307,306,2
302,322,306,306,2
303,320,305,306,2
304,315,304,308,2
305,308,304,308,2
306,300,304,308,2
307,293,304,309,2
308,287,305,309,2
307,284,306,310,2
307,285,307,310,2
307,289,307,310,2
307,297,306,309,2
307,304,306,309,2
306,309,305,308,2
306,310,304,306,2
306,308,305,304,2
306,304,306,302,2
306,300,307,302,2
306,297,308,302,2
306,294,310,304,2
306,293,312,306,2
307,294,314,308,2
307,296,317,311,2
307,299,318,313,2
308,303,318,316,2
308,305,317,317,2
307,309,314,317,2
306,313,310,317,2
306,317,307,317,2
305,321,305,317,2
305,323,304,316,2
304,322,303,314,2
303,320,302,311,2
303,315,301,307,2
303,307,301,303,2
303,299,302,303,2
304,290,303,303,2
306,283,304,305,2
307,277,303,306,2
307,274,303,307,2
307,276,303,309,2
307,282,304,310,2
306,290,306,311,2
305,297,307,311,2
305,303,308,311,2
305,306,310,310,2
305,304,311,310,2
304,301,311,308,2
303,297,310,307,2
302,295,309,306,2
302,294,309,306,2
303,297,311,306,2
304,303,313,307,2
304,311,316,308,2
304,319,316,309,2
302,325,315,309,2
301,330,314,308,2
301,333,312,308,2
301,335,311,308,2
301,335,309,308,2
302,332,308,308,2
304,326,308,309,2
305,316,310,310,2
306,306,311,310,2
308,297,313,311,2
308,292,314,312,2
309,292,313,314,2
308,297,312,315,2
307,307,311,316,2
307,319,309,317,2
306,330,308,316,2
305,336,308,315,2
306,337,308,314,2
306,333,309,313,2
306,325,309,312,2
307,319,309,311,2
307,312,310,310,2
307,306,310,310,2
307,302,309,311,2
306,301,309,311,2
305,302,309,312,2
305,303,311,312,2
305,302,313,312,2
304,304,314,312,2
304,309,313,312,2
304,315,312,312,2
304,321,310,311,2
304,326,307,311,2
304,330,304,310,2
303,333,302,309,2
303,334,301,308,2
302,333,299,306,2
301,329,299,305,2
301,322,300,305,2
301,312,302,304,2
301,300,304,304,2
302,287,306,304,2
303,276,307,304,2
304,268,309,305,2
305,265,311,307,2
307,270,312,309,2
309,282,312,312,2
310,300,312,315,2
310,319,311,317,2
309,335,310,319,2
308,344,308,318,2
307,349,307,317,2
305,348,305,315,2
303,343,305,313,2
302,336,304,311,2
302,329,303,311,2
302,323,303,310,2
303,318,303,310,2
303,312,302,310,2
304,308,302,310,2
304,307,302,308,2
304,308,303,307,2
303,308,304,306,2
303,306,305,306,2
303,304,303,306,2
304,303,300,306,2
304,303,298,306,2
304,304,297,306,2
304,306,297,306,2
303,307,297,307,2
303,308,297,307,2
303,309,298,307,2
303,311,300,308,2
303,313,303,307,2
304,316,306,308,2
306,317,308,308,2
307,314,310,307,2
308,307,309,304,2
308,301,307,302,2
308,298,304,299,2
307,298,303,297,2
306,302,301,295,2
305,304,300,293,2
305,303,299,293,2
305,300,300,294,2
306,295,302,297,2
308,290,305,300,2
310,288,309,303,2
311,288,310,306,2
312,294,310,309,2
311,304,309,313,2
311,316,308,316,2
311,328,308,319,2
311,338,307,321,2
311,344,308,321,2
310,346,309,320,2
309,343,309,319,2
309,336,309,318,2
308,327,309,317,2
308,318,309,317,2
308,310,309,317,2
309,303,309,317,2
309,299,308,318,2
310,297,307,320,2
311,297,307,320,2
312,297,306,320,2
311,297,304,319,2
310,297,303,317,2
308,297,301,315,2
307,296,299,313,2
305,297,299,311,2
304,298,300,310,2
304,303,301,310,2
304,311,302,309,2
303,317,303,310,2
303,321,304,310,2
304,323,305,310,2
304,322,305,309,2
304,320,305,308,2
305,315,305,307,2
304,312,305,307,2
304,309,305,306,2
305,308,306,307,2
305,307,307,307,2
306,307,307,308,2
306,307,308,308,2
306,309,308,308,2
306,311,309,307,2
306,310,310,307,2
305,307,310,305,2
305,303,310,305,2
305,298,309,305,2
305,294,309,305,2
305,290,308,305,2
305,288,308,305,2
305,288,307,304,2
305,289,306,304,2
305,291,306,305,2
305,293,305,306,2
305,296,304,307,2
305,299,305,308,2
304,302,305,308,2
303,303,305,308,2
302,302,307,308,2
303,299,310,309,2
303,297,312,310,2
303,296,313,312,2
303,298,313,313,2
304,302,314,315,2
304,308,314,316,2
304,315,312,314,2
303,320,310,311,2
303,323,308,307,2
303,324,307,304,2
303,324,307,302,2
303,325,306,301,2
304,327,307,302,2
305,329,308,303,2
306,331,307,305,2
306,330,307,306,2
307,325,306,307,2
307,317,306,307,2
308,310,306,306,2
308,303,308,305,2
310,298,309,305,2
310,299,310,304,2
310,304,309,305,2
310,311,307,305,2
310,319,304,305,2
308,326,301,305,2
305,329,298,305,2
303,329,297,304,2
301,326,299,304,2
300,321,302,302,2
300,315,305,302,2
300,308,307,301,2
301,300,307,301,2
301,293,309,301,2
301,293,310,302,2
302,297,313,303,2
303,303,316,305,2
304,307,318,308,2
305,309,319,311,2
305,309,319,313,2
306,308,318,313,2
305,308,315,312,2
304,306,310,311,2
304,304,307,310,2
303,301,304,310,2
304,296,304,309,2
304,290,305,309,2
305,285,307,309,2
307,281,310,311,2
307,281,312,312,2
306,284,315,313,2
305,289,317,314,2
304,296,319,314,2
304,301,319,314,2
304,302,319,314,2
304,301,317,312,2
305,300,314,311,2
306,302,310,309,2
306,307,307,307,2
305,312,305,306,2
305,314,305,306,2
305,313,305,305,2
305,311,307,305,2
305,306,310,305,2
306,301,312,305,2
307,297,313,304,2
308,298,314,304,2
308,300,315,305,2
308,305,316,306,2
307,310,317,308,2
306,315,317,310,2
305,318,317,311,2
304,320,316,312,2
303,320,316,313,2
303,318,315,313,2
302,316,314,313,2
302,315,312,312,2
302,316,311,312,2
301,321,309,311,2
301,326,308,311,2
301,329,306,310,2
301,330,305,310,2
301,329,303,309,2
301,325,302,309,2
300,320,303,309,2
301,315,303,308,2
301,311,305,307,2
302,307,307,307,2
304,303,310,309,2
305,301,312,309,2
306,299,312,309,2
307,298,310,308,2
307,298,306,307,2
306,301,302,305,2
305,306,298,304,2
304,311,294,303,2
303,314,292,302,2
302,314,291,304,2
302,314,293,305,2
302,313,296,307,2
301,312,300,309,2
302,313,305,310,2
302,314,310,310,2
302,314,312,309,2
301,312,313,308,2
301,309,313,306,2
301,306,313,304,2
301,303,313,304,2
303,300,314,306,2
305,299,315,309,2
306,298,316,311,2
307,298,315,312,2
307,299,315,312,2
308,301,315,311,2
308,302,315,310,2
308,302,314,309,2
308,301,312,309,2
308,298,310,309,2
308,291,309,309,2
309,283,308,308,2
310,273,309,309,2
312,263,310,310,2
314,255,312,310,2
315,253,314,310,2
316,256,315,309,2
316,263,314,308,2
315,270,313,307,2
312,279,310,305,2
309,288,307,303,2
306,296,303,302,2
305,302,300,301,2
304,306,297,301,2
303,309,296,300,2
302,313,296,301,2
302,317,295,301,2
301,317,295,301,2
301,317,296,302,2
302,318,300,303,2
304,321,303,305,2
305,326,306,309,2
306,331,308,312,2
305,336,308,316,2
306,339,308,318,2
306,339,308,320,2
307,337,308,321,2
307,330,309,320,2
307,323,309,318,2
307,319,309,316,2
306,318,308,314,2
304,319,306,312,2
303,320,303,309,2
302,321,301,305,2
301,322,301,302,2
301,323,301,301,2
302,324,302,302,2
304,324,303,305,2
306,322,304,308,2
308,319,303,311,2
308,314,303,312,2
308,311,303,312,2
308,306,304,311,2
308,302,306,310,2
307,299,308,311,2
307,296,310,313,2
307,293,311,314,2
307,290,312,315,2
307,288,312,315,2
307,285,311,314,2
306,282,310,312,2
306,279,309,310,2
306,275,306,306,2
306,271,304,303,2
307,270,302,301,2
308,270,301,300,2
310,272,300,299,2
311,274,300,301,2
312,277,300,304,2
313,281,302,306,2
313,287,303,309,2
313,293,304,312,2
313,298,305,313,2
313,299,306,315,2
312,302,306,316,2
311,305,305,317,2
309,309,304,317,2
307,315,303,317,2
305,322,301,318,2
305,327,301,317,2
304,332,300,316,2
303,335,299,314,2
303,339,299,312,2
303,341,298,310,2
303,338,297,307,2
302,332,297,306,2
302,324,297,306,2
303,316,298,306,2
304,309,299,308,2
306,305,300,309,2
308,303,301,311,2
309,306,302,309,2
309,309,302,308,2
309,311,301,307,2
309,311,300,307,2
309,311,299,307,2
308,310,298,307,2
307,309,297,307,2
307,306,297,307,2
307,304,300,307,2
307,301,303,307,2
307,299,307,308,2
307,297,312,309,2
308,297,318,311,2
308,300,321,313,2
309,305,322,315,2
309,309,321,315,2
308,310,319,313,2
308,310,315,310,2
307,309,310,307,2
306,306,305,304,2
305,302,303,301,2
304,296,303,301,2
304,289,304,302,2
305,281,306,303,2
305,275,308,303,2
305,272,310,304,2
306,273,312,304,2
306,278,313,305,2
306,286,314,308,2
307,291,315,311,2
308,293,315,314,2
309,291,315,316,2
310,289,315,317,2
310,288,314,318,2
310,289,313,318,2
309,290,312,317,2
309,292,311,316,2
309,296,311,317,2
310,301,311,317,2
310,309,312,319,2
310,319,312,320,2
309,327,311,319,2
306,333,310,317,2
304,336,307,313,2
302,335,305,310,2
302,332,303,308,2
303,327,302,308,2
304,320,302,307,2
306,314,302,307,2
307,307,304,308,2
308,304,305,310,2
309,304,306,312,2
309,308,306,314,2
310,311,306,315,2
309,314,305,313,2
309,314,303,312,2
309,313,302,310,2
309,312,301,309,2
309,310,299,308,2
309,307,299,308,2
310,303,299,309,2
309,301,300,309,2
310,302,300,310,2
309,305,299,310,2
309,309,298,311,2
309,310,298,312,2
309,310,298,313,2
309,309,297,314,2
310,306,298,314,2
311,303,300,315,2
311,299,302,314,2
311,295,304,312,2
310,290,306,308,2
309,284,307,305,2
309,278,308,303,2
309,271,307,300,2
308,266,306,298,2
306,265,304,298,2
304,269,303,298,2
303,277,303,299,2
302,289,303,300,2
302,303,304,302,2
302,316,304,304,2
303,325,306,307,2
303,332,308,310,2
303,336,310,313,2
303,340,312,316,2
303,340,314,317,2
303,337,315,319,2
304,332,315,319,2
304,326,314,320,2
304,319,313,320,2
304,312,313,319,2
305,305,312,318,2
305,300,312,317,2
305,294,311,317,2
305,291,312,316,2
306,288,313,316,2
306,286,315,315,2
306,286,317,314,2
305,287,317,313,2
304,290,316,312,2
303,298,313,311,2
302,305,309,310,2
302,311,305,309,2
302,313,303,309,2
303,313,303,308,2
304,313,303,308,2
304,312,304,308,2
304,311,305,308,2
304,308,306,308,2
304,306,307,308,2
304,303,309,307,2
304,300,310,306,2
304,300,311,305,2
304,301,311,306,2
304,304,311,308,2
304,306,311,311,2
304,306,312,313,2
305,304,312,315,2
306,302,313,317,2
307,300,314,317,2
308,299,315,317,2
308,299,315,316,2
307,299,315,315,2
306,300,313,316,2
305,301,313,316,2
305,302,313,316,2
305,303,313,316,2
305,302,313,315,2
306,300,313,315,2
307,299,313,314,2
307,300,313,314,2
308,303,312,315,2
308,308,311,316,2
307,313,309,316,2
306,318,306,314,2
305,322,303,312,2
305,324,300,311,2
304,326,298,311,2
304,326,297,311,2
305,326,298,311,2
305,324,300,311,2
305,317,304,311,2
306,307,307,309,2
306,298,310,308,2
306,292,312,306,2
306,290,313,305,2
305,290,313,304,2
304,289,312,304,2
304,289,310,306,2
303,289,308,307,2
303,290,306,307,2
303,291,304,306,2
303,294,301,305,2
302,299,298,304,2
301,306,297,303,2
300,312,297,302,2
300,314,299,303,2
300,312,303,304,2
302,308,307,306,2
303,305,310,310,2
305,305,312,314,2
306,307,312,317,2
305,311,311,319,2
305,317,309,320,2
304,324,307,318,2
303,330,304,316,2
302,333,302,315,2
302,333,301,315,2
302,330,301,316,2
303,325,303,316,2
303,319,306,317,2
303,311,309,318,2
303,304,311,318,2
303,297,311,318,2
304,292,311,317,2
305,288,311,316,2
306,285,311,315,2
306,285,309,314,2
306,287,308,312,2
306,292,307,310,2
306,299,305,309,2
305,309,304,309,2
305,318,304,308,2
304,326,304,308,2
304,329,304,307,2
303,330,304,306,2
302,328,305,305,2
301,323,306,305,2
300,316,306,305,2
300,307,305,305,2
299,298,305,306,2
300,291,304,305,2
299,287,303,305,2
299,287,301,304,2
299,290,300,304,2
299,295,298,304,2
299,299,297,305,2
300,302,296,306,2
302,303,296,309,2
303,302,297,310,2
304,301,298,311,2
305,301,299,312,2
305,302,300,311,2
306,305,301,311,2
307,307,302,311,2
308,305,302,310,2
309,301,304,308,2
309,295,305,307,2
308,290,305,305,2
307,288,305,304,2
305,287,305,302,2
304,287,304,302,2
302,292,303,302,2
300,300,301,302,2
299,309,300,304,2
298,317,299,306,2
297,322,299,309,2
298,324,299,312,2
299,325,299,315,2
300,325,301,316,2
300,324,303,315,2
301,320,305,315,2
301,312,307,316,2
302,303,308,318,2
304,294,310,320,2
305,286,310,322,2
307,281,310,321,2
308,277,307,320,2
307,279,303,317,2
305,287,298,314,2
302,299,294,310,2
300,312,290,307,2
298,323,290,306,2
297,331,292,307,2
298,334,295,310,2
300,335,298,314,2
301,334,300,317,2
302,331,301,319,2
303,327,301,320,2
304,323,300,320,2
304,319,299,318,2
304,315,299,315,2
304,312,300,313,2
304,311,300,310,2
305,309,300,309,2
304,304,300,308,2
304,298,299,309,2
304,291,298,309,2
305,285,297,309,2
305,281,297,310,2
305,280,299,310,2
306,282,301,311,2
307,288,302,312,2
307,297,302,312,2
306,307,301,311,2
306,315,300,311,2
306,320,299,310,2
304,323,299,308,2
304,321,300,307,2
303,318,302,305,2
303,312,304,304,2
303,305,306,303,2
304,298,306,303,2
305,293,306,304,2
306,292,306,306,2
307,294,307,308,2
308,298,306,311,2
308,302,305,312,2
308,305,304,313,2
308,308,302,313,2
307,308,301,311,2
306,305,301,308,2
305,302,302,306,2
305,302,303,305,2
305,302,305,305,2
305,301,307,306,2
305,302,308,307,2
305,305,308,309,2
305,310,307,311,2
305,316,306,312,2
305,320,304,313,2
306,324,303,313,2
306,325,302,312,2
307,322,301,311,2
307,314,301,310,2
307,303,301,312,2
308,291,302,313,2
309,280,304,314,2
310,271,306,315,2
312,268,306,314,2
311,270,305,313,2
310,277,303,312,2
308,290,302,310,2
306,304,300,309,2
304,319,300,307,2
302,331,300,305,2
301,337,302,303,2
301,340,303,302,2
301,338,304,302,2
302,335,305,302,2
303,330,305,302,2
304,326,305,303,2
305,324,306,303,2
306,322,306,304,2
307,320,306,306,2
308,317,306,307,2
309,311,306,310,2
311,305,308,311,2
312,297,308,312,2
312,291,308,311,2
310,288,306,309,2
308,284,302,307,2
306,281,299,305,2
305,280,298,303,2
305,283,299,303,2
305,292,301,303,2
305,307,304,305,2
304,322,306,308,2
304,334,307,311,2
303,342,308,313,2
303,345,308,315,2
303,343,307,318,2
304,339,306,319,2
305,332,306,321,2
306,324,305,321,2
306,318,305,321,2
306,313,304,320,2
305,309,303,319,2
305,307,302,317,2
305,303,301,316,2
306,299,301,314,2
307,293,302,313,2
308,287,303,312,2
309,281,303,311,2
309,278,304,311,2
310,278,302,309,2
309,283,302,307,2
309,291,300,305,2
307,300,299,303,2
306,307,298,302,2
305,312,298,301,2
305,317,297,301,2
304,320,296,302,2
304,324,295,303,2
304,325,296,305,2
304,323,296,306,2
304,319,297,307,2
304,316,299,309,2
304,316,300,309,2
305,316,302,309,2
305,316,302,309,2
306,314,303,309,2
306,311,304,308,2
306,308,305,306,2
306,305,304,305,2
306,305,304,305,2
306,307,305,307,2
306,310,305,309,2
306,313,305,310,2
306,315,304,311,2
307,317,304,311,2
307,318,303,311,2
306,318,303,310,2
305,317,302,308,2
305,317,300,306,2
305,315,300,304,2
306,312,301,303,2
306,310,303,303,2
307,309,307,305,2
308,307,309,307,2
308,305,311,308,2
308,302,311,309,2
307,298,312,310,2
307,294,313,311,2
307,290,314,313,2
307,286,313,312,2
308,279,312,311,2
307,270,312,309,2
306,260,310,306,2
306,252,310,304,2
306,248,312,305,2
307,246,314,306,2
308,250,317,306,2
308,260,318,307,2
307,276,319,308,2
307,296,319,309,2
306,316,318,310,2
305,330,316,311,2
304,340,313,311,2
302,345,310,311,2
301,348,307,310,2
300,349,305,309,2
300,349,304,309,2
301,349,306,311,2
300,348,309,312,2
300,348,310,313,2
300,347,311,314,2
299,345,311,313,2
299,342,311,312,2
299,339,311,310,2
300,336,311,307,2
300,330,311,305,2
300,324,311,302,2
300,317,312,301,2
300,311,312,300,2
301,307,313,300,2
301,305,312,300,2
301,302,312,301,2
302,300,313,302,2
304,300,313,304,2
305,299,313,306,2
306,299,314,306,2
307,299,314,306,2
307,302,314,306,2
306,304,314,307,2
306,308,314,307,2
305,312,313,307,2
304,317,312,308,2
304,319,312,308,2
303,319,312,308,2
303,316,312,308,2
303,311,311,309,2
304,302,311,311,2
305,294,311,312,2
306,288,311,312,2
307,285,310,310,2
307,287,309,308,2
306,292,308,306,2
305,301,306,305,2
305,312,305,303,2
305,320,304,302,2
305,325,302,302,2
305,325,300,302,2
305,322,299,301,2
305,318,299,300,2
306,314,300,300,2
306,309,301,300,2
307,303,301,302,2
307,295,301,302,2
307,291,300,304,2
306,288,300,305,2
305,287,301,306,2
304,290,302,307,2
303,296,304,309,2
303,304,306,312,2
302,312,310,315,2
303,320,313,318,2
303,325,314,319,2
304,328,314,319,2
304,328,312,318,2
304,327,310,317,2
305,327,307,315,2
305,327,305,314,2
306,326,303,313,2
306,323,303,313,2
306,320,304,313,2
306,319,305,313,2
306,319,306,314,2
306,321,307,316,2
307,322,307,317,2
307,322,307,318,2
307,323,308,318,2
306,324,308,316,2
306,323,308,315,2
306,320,308,314,2
306,317,308,311,2
305,314,309,310,2
305,312,310,308,2
306,309,312,308,2
306,309,314,307,2
306,312,314,307,2
306,317,315,308,2
305,323,314,309,2
304,326,312,309,2
303,324,311,309,2
302,319,309,307,2
301,314,308,305,2
301,310,306,303,2
301,305,304,302,2
301,299,303,300,2
301,292,303,300,2
302,285,303,300,2
302,279,303,301,2
303,274,304,300,2
303,271,304,300,2
303,271,306,299,2
302,276,307,298,2
303,286,310,297,2
304,297,313,298,2
305,309,316,300,2
305,317,316,303,2
304,320,312,305,2
303,320,309,307,2
302,319,305,310,2
301,319,304,312,2
301,319,302,314,2
302,319,302,315,2
303,321,303,314,2
303,322,303,314,2
303,322,304,313,2
303,322,304,313,2
304,320,306,312,2
304,318,306,312,2
303,315,306,311,2
303,312,305,311,2
303,308,303,310,2
303,303,301,310,2
303,298,300,309,2
304,293,299,307,2
304,286,299,305,2
304,281,300,304,2
304,277,302,303,2
305,274,305,302,2
305,272,307,302,2
305,272,308,301,2
306,273,307,301,2
305,276,307,301,2
305,278,307,301,2
304,280,307,301,2
303,284,307,303,2
303,290,308,305,2
304,299,308,307,2
304,309,308,309,2
304,318,308,310,2
304,323,308,312,2
304,327,309,313,2
304,328,308,314,2
304,329,308,315,2
304,331,308,315,2
304,332,307,315,2
304,329,306,313,2
304,322,305,312,2
304,316,305,310,2
304,310,305,310,2
305,305,306,310,2
305,302,307,311,2
306,300,309,312,2
305,302,309,312,2
305,305,310,312,2
305,308,310,312,2
304,310,310,312,2
303,312,311,312,2
303,313,311,312,2
302,311,311,312,2
303,307,311,312,2
303,303,310,311,2
303,302,310,311,2
303,303,310,311,2
303,309,309,311,2
302,316,308,310,2
300,322,306,308,2
299,325,305,307,2
299,326,304,307,2
299,325,303,306,2
300,323,304,307,2
301,321,305,307,2
303,320,306,308,2
303,318,308,308,2
304,316,310,308,2
303,314,309,307,2
302,313,308,308,2
302,313,307,308,2
300,311,306,308,2
299,308,305,309,2
299,305,304,308,2
299,302,302,307,2
300,301,301,305,2
300,301,298,305,2
300,302,296,303,2
300,303,293,302,2
299,305,291,301,2
299,305,291,300,2
299,306,292,301,2
300,306,295,303,2
302,307,298,305,2
304,305,302,306,2
305,300,306,306,2
305,294,309,305,2
305,288,312,305,2
305,283,313,306,2
306,281,313,309,2
307,281,312,311,2
308,283,311,312,2
309,288,312,312,2
311,292,313,312,2
312,294,315,311,2
313,292,316,309,2
313,287,317,306,2
313,281,316,304,2
312,277,313,304,2
311,278,309,304,2
310,282,306,305,2
310,286,302,305,2
309,291,300,304,2
309,299,298,303,2
309,310,296,303,2
309,321,293,302,2
309,330,291,302,2
309,334,290,303,2
310,332,293,303,2
312,329,298,302,2
315,325,305,302,2
318,323,313,301,2
320,320,318,300,2
321,318,319,299,2
320,317,317,298,2
319,315,314,299,2
317,311,313,300,2
318,306,313,302,2
318,301,314,304,2
319,296,315,306,2
319,293,316,308,2
316,294,313,309,2
312,298,307,309,2
306,303,301,310,2
303,309,296,311,2
300,313,294,313,2
299,314,295,316,2
300,312,297,319,2
302,307,300,321,2
303,302,302,322,2
305,299,303,321,2
307,298,305,319,2
308,299,307,318,2
308,300,307,315,2
306,303,307,312,2
304,307,305,310,2
303,313,303,309,2
301,317,303,307,2
301,320,302,306,2
301,323,303,306,2
303,324,304,305,2
305,321,306,306,2
306,316,306,306,2
308,308,306,307,2
309,298,306,308,2
311,286,305,309,2
312,275,304,309,2
313,266,303,310,2
314,265,303,311,2
314,269,303,311,2
314,278,304,312,2
313,290,304,312,2
311,304,304,312,2
309,317,304,312,2
308,328,305,312,2
308,334,306,311,2
308,336,306,310,2
308,336,306,310,2
307,333,305,310,2
305,325,304,310,2
303,315,302,308,2
302,303,299,307,2
301,292,298,307,2
302,281,298,306,2
302,273,298,306,2
303,268,298,306,2
304,267,297,306,2
304,272,295,306,2
303,281,293,305,2
301,293,289,305,2
297,304,286,304,2
295,312,285,304,2
294,316,287,306,2
294,316,290,309,2
294,313,295,312,2
295,307,299,315,2
297,300,303,317,2
299,294,305,317,2
301,290,308,317,2
302,290,310,316,2
303,293,310,315,2
303,299,310,314,2
302,308,309,313,2
301,318,308,311,2
300,329,309,311,2
300,337,310,311,2
300,343,310,313,2
301,342,310,315,2
302,334,309,317,2
302,321,308,317,2
302,307,305,316,2
302,295,303,313,2
302,285,300,310,2
302,279,298,307,2
302,276,296,305,2
302,278,295,306,2
303,282,295,308,2
303,286,296,310,2
304,288,297,312,2
303,288,300,313,2
302,288,303,314,2
301,290,307,314,2
300,294,309,314,2
299,298,309,314,2
298,301,308,312,2
298,302,307,311,2
298,301,307,310,2
299,295,307,309,2
300,288,308,310,2
301,279,309,311,2
301,270,309,311,2
302,264,308,311,2
301,263,307,310,2
301,270,306,309,2
299,282,305,307,2
299,294,303,305,2
299,300,303,304,2
300,302,302,303,2
300,302,302,302,2
300,303,302,301,2
299,308,301,301,2
298,313,300,302,2
298,318,300,302,2
297,321,301,303,2
297,324,301,302,2
298,326,302,303,2
299,327,303,303,2
301,326,304,303,2
302,323,305,302,2
303,317,306,302,2
302,307,306,302,2
302,295,305,303,2
303,284,306,306,2
304,277,307,310,2
306,276,308,313,2
308,281,309,315,2
308,293,309,315,2
308,308,309,316,2
308,323,309,316,2
307,334,308,317,2
306,339,306,316,2
305,339,305,315,2
304,335,303,314,2
303,330,302,312,2
303,326,301,310,2
302,322,299,307,2
301,319,298,303,2
301,319,297,299,2
300,320,296,296,2
300,322,297,295,2
301,324,298,296,2
302,321,301,298,2
303,317,303,302,2
304,312,304,305,2
304,307,304,307,2
304,301,304,309,2
305,293,304,310,2
306,283,305,310,2
307,272,305,308,2
308,261,306,305,2
309,253,306,302,2
309,250,306,300,2
308,253,306,299,2
308,262,306,298,2
308,275,306,297,2
306,289,305,297,2
304,299,302,297,2
303,304,299,299,2
303,306,298,301,2
302,306,297,302,2
302,306,297,303,2
302,305,298,302,2
303,304,302,302,2
304,302,307,302,2
305,299,312,302,2
307,297,315,303,2
308,298,317,303,2
309,301,318,303,2
309,305,317,302,2
308,310,316,300,2
307,317,315,299,2
307,324,313,298,2
306,330,311,298,2
305,334,309,299,2
305,336,307,300,2
304,334,305,300,2
304,330,304,300,2
304,325,303,299,2
304,320,302,298,2
304,315,301,298,2
305,311,301,298,2
306,308,301,299,2
306,306,303,301,2
306,305,305,303,2
307,306,309,305,2
308,304,313,307,2
309,299,317,308,2
309,292,319,308,2
310,284,320,307,2
310,279,321,305,2
310,279,319,303,2
311,284,316,302,2
310,294,313,302,2
309,304,310,303,2
306,310,307,304,2
305,315,304,304,2
304,316,303,304,2
304,315,302,303,2
304,314,303,303,2
304,312,304,304,2
305,308,305,304,2
305,301,304,304,2
305,291,304,304,2
306,279,304,303,2
308,266,304,302,2
310,253,305,301,2
311,244,307,300,2
313,245,308,301,2
314,253,310,303,2
314,266,311,305,2
314,279,311,306,2
314,293,311,307,2
313,307,308,307,2
311,320,305,306,2
309,330,303,305,2
309,337,302,305,2
308,343,302,306,2
308,347,303,307,2
307,347,305,306,2
306,341,305,305,2
306,330,304,304,2
307,317,304,303,2
307,304,303,301,2
308,290,302,300,2
308,278,302,299,2
308,273,301,299,2
308,275,301,299,2
306,284,301,299,2
305,294,301,299,2
303,304,300,300,2
302,314,298,300,2
301,323,295,299,2
300,332,294,298,2
300,337,294,295,2
300,338,296,293,2
300,336,297,291,2
300,332,295,289,2
301,326,290,289,2
302,320,282,290,2
302,315,275,292,2
302,313,268,293,2
302,315,263,294,2
301,319,262,297,2
302,323,266,304,2
303,324,276,312,2
304,321,285,318,2
305,315,293,320,2
307,307,300,320,2
308,297,305,319,2
309,286,311,317,2
310,278,314,316,2
312,275,315,314,2
314,280,317,313,2
316,292,318,314,2
317,308,318,315,2
317,323,314,316,2
314,336,309,317,2
311,344,304,317,2
308,346,302,317,2
307,343,302,316,2
306,333,304,314,2
305,319,307,312,2
305,302,309,308,2
305,287,311,305,2
305,275,313,305,2
308,265,315,306,2
312,256,318,308,2
315,246,323,308,2
317,235,328,308,2
317,225,330,307,2
315,219,329,305,2
313,224,326,304,2
311,244,322,304,2
309,269,318,304,2
307,290,313,303,2
305,304,310,302,2
302,311,308,301,2
302,313,308,303,2
302,313,310,305,2
304,312,313,307,2
306,313,316,310,2
308,319,318,312,2
308,319,319,312,2
309,311,319,313,2
310,298,321,312,2
312,289,323,311,2
314,284,326,310,2
316,285,328,308,2
316,289,327,306,2
312,300,323,305,2
308,315,317,304,2
303,322,309,303,2
299,318,302,302,2
298,306,297,302,2
297,295,296,300,2
297,291,295,300,2
297,295,295,300,2
297,306,295,301,2
297,322,295,302,2
296,338,294,302,2
296,348,294,302,2
295,351,295,304,2
296,350,297,305,2
296,345,298,307,2
297,341,299,308,2
298,339,302,310,2
300,339,305,312,2
302,340,307,312,2
302,339,308,310,2
302,337,308,308,2
303,332,308,306,2
303,326,308,304,2
304,316,308,302,2
305,304,308,299,2
305,289,308,297,2
305,276,307,295,2
305,266,308,294,2
305,265,308,295,2
305,275,309,296,2
304,291,309,298,2
304,304,306,300,2
304,310,302,302,2
304,309,297,303,2
304,304,292,303,2
304,298,288,303,2
303,295,285,302,2
302,299,284,301,2
302,311,287,300,2
303,324,291,301,2
304,333,297,300,2
306,337,303,302,2
306,339,307,305,2
307,337,310,308,2
308,331,312,309,2
307,323,313,307,2
308,312,312,304,2
307,301,311,300,2
308,291,310,298,2
308,282,310,298,2
309,274,308,300,2
309,267,307,302,2
310,263,306,303,2
310,266,307,303,2
311,275,309,305,2
311,289,310,308,2
311,306,311,310,2
311,320,312,310,2
311,330,313,311,2
311,337,314,311,2
311,343,317,312,2
311,349,318,312,2
311,350,317,312,2
311,345,313,312,2
310,337,309,311,2
308,326,306,309,2
308,314,303,307,2
309,302,301,305,2
310,291,300,303,2
311,281,299,302,2
312,272,299,301,2
312,267,301,303,2
313,266,303,305,2
314,269,305,309,2
314,278,306,311,2
313,294,306,313,2
311,313,305,314,2
307,328,303,313,2
303,338,301,311,2
301,343,302,310,2
301,344,304,309,2
301,344,306,308,2
302,345,308,306,2
303,345,309,305,2
303,341,310,304,2
304,334,310,304,2
304,325,309,306,2
305,317,309,308,2
307,311,309,310,2
308,306,309,312,2
308,304,309,313,2
309,302,309,314,2
309,303,308,314,2
309,302,308,314,2
309,304,309,314,2
310,307,310,314,2
310,315,312,314,2
310,327,313,313,2
310,339,315,312,2
310,349,317,311,2
310,355,319,312,2
310,355,320,314,2
309,352,319,314,2
307,347,315,315,2
306,340,312,317,2
305,333,310,318,2
305,326,308,318,2
305,320,307,318,2
305,316,306,318,2
306,313,306,318,2
306,311,306,318,2
307,309,307,317,2
307,308,307,317,2
307,305,307,316,2
307,302,307,315,2
307,300,306,314,2
306,299,304,312,2
305,301,302,310,2
305,304,302,309,2
306,307,301,308,2
306,309,301,306,2
306,309,301,305,2
305,306,301,303,2
305,302,302,302,2
304,299,303,302,2
304,294,305,303,2
305,287,306,305,2
306,280,308,309,2
306,276,310,312,2
307,276,310,314,2
307,279,310,315,2
306,285,308,314,2
305,294,305,312,2
304,302,300,307,2
302,308,295,303,2
300,312,291,298,2
300,314,287,296,2
301,314,287,293,2
302,310,288,291,2
303,305,290,290,2
303,302,293,290,2
303,298,295,292,2
303,298,298,295,2
303,300,302,299,2
303,303,308,304,2
304,308,312,307,2
303,315,314,310,2
303,324,315,314,2
303,332,315,318,2
304,337,314,322,2
305,338,313,324,2
306,336,313,325,2
306,332,313,325,2
306,328,314,326,2
307,325,315,326,2
307,323,315,326,2
307,323,315,324,2
306,324,313,322,2
304,324,312,319,2
303,325,311,317,2
303,325,311,314,2
302,325,310,312,2
302,326,310,311,2
301,327,309,310,2
302,326,308,309,2
302,324,307,307,2
301,320,306,305,2
301,317,303,303,2
301,313,302,304,2
301,308,302,305,2
302,303,303,307,2
303,298,304,307,2
304,292,305,307,2
306,284,306,306,2
307,278,307,305,2
308,274,307,304,2
308,274,307,304,2
307,279,307,305,2
306,285,307,309,2
306,292,308,313,2
305,300,309,315,2
305,306,309,317,2
306,311,308,317,2
305,312,308,317,2
305,313,307,315,2
305,315,305,313,2
305,319,303,312,2
305,322,300,309,2
304,323,297,305,2
303,319,294,301,2
303,312,292,299,2
304,303,291,296,2
306,296,289,296,2
308,293,288,296,2
308,291,287,297,2
306,289,286,297,2
305,289,287,297,2
304,290,291,300,2
304,292,298,304,2
306,296,304,309,2
307,302,309,313,2
307,312,311,315,2
307,324,312,317,2
307,335,312,318,2
308,342,313,318,2
310,343,314,318,2
310,339,314,316,2
309,332,313,314,2
309,323,310,313,2
309,314,308,311,2
309,306,306,310,2
310,301,304,309,2
311,299,302,309,2
311,299,301,309,2
311,301,301,309,2
311,304,302,309,2
310,305,303,309,2
309,306,304,308,2
309,306,305,308,2
308,308,305,308,2
307,312,305,308,2
307,314,305,308,2
306,313,306,307,2
306,312,306,306,2
305,311,307,305,2
306,310,307,306,2
306,308,309,307,2
308,304,310,308,2
308,300,312,308,2
307,296,311,306,2
305,295,309,303,2
303,296,304,298,2
302,296,300,294,2
301,295,297,291,2
302,293,299,293,2
304,293,303,298,2
307,297,308,305,2
309,301,312,309,2
311,306,314,312,2
311,310,314,313,2
311,313,312,314,2
310,314,307,314,2
310,312,302,313,2
308,308,298,312,2
308,300,296,311,2
307,289,296,310,2
308,275,297,310,2
309,262,300,309,2
310,254,302,309,2
311,250,304,309,2
312,252,305,308,2
312,262,305,308,2
312,278,305,308,2
311,297,306,307,2
311,315,307,306,2
310,331,310,305,2
309,344,312,306,2
309,352,313,307,2
309,354,313,310,2
309,352,313,312,2
310,346,312,313,2
310,339,312,313,2
311,332,311,312,2
311,326,312,312,2
311,321,314,311,2
311,318,315,312,2
311,317,317,313,2
311,318,317,315,2
311,319,318,316,2
311,318,317,315,2
310,316,316,315,2
308,314,313,313,2
307,312,310,313,2
305,308,307,312,2
305,304,306,311,2
304,300,306,309,2
304,296,307,307,2
304,293,309,305,2
304,288,310,303,2
304,284,311,301,2
304,280,310,299,2
303,277,308,298,2
302,278,308,297,2
303,284,309,298,2
303,296,310,299,2
304,310,312,302,2
303,322,312,305,2
303,329,311,307,2
303,331,311,310,2
303,332,310,312,2
303,333,310,314,2
304,333,310,315,2
304,332,309,315,2
304,327,309,315,2
303,321,309,314,2
303,313,310,314,2
304,305,312,314,2
305,296,314,313,2
306,287,316,313,2
307,278,318,312,2
308,270,318,310,2
307,266,316,308,2
305,267,312,307,2
303,275,309,305,2
301,290,306,303,2
300,308,304,301,2
300,325,303,300,2
300,337,303,300,2
301,344,303,301,2
301,343,305,301,2
302,338,307,302,2
303,331,310,302,2
304,326,312,305,2
304,323,313,307,2
305,321,312,310,2
306,319,310,312,2
306,317,308,313,2
305,313,305,313,2
305,308,304,313,2
306,302,303,312,2
307,297,303,312,2
308,293,303,313,2
308,292,304,313,2
307,293,305,313,2
306,297,306,313,2
306,303,307,313,2
306,307,308,313,2
306,308,309,313,2
305,307,309,312,2
306,304,308,311,2
306,301,307,311,2
306,298,306,311,2
306,295,305,311,2
306,290,303,309,2
305,286,303,307,2
305,284,302,305,2
304,284,301,303,2
304,288,301,301,2
304,292,302,301,2
304,298,305,301,2
304,305,307,302,2
304,312,307,302,2
303,318,304,300,2
302,321,300,297,2
301,321,296,295,2
301,318,294,294,2
301,313,296,295,2
302,308,300,297,2
304,303,306,299,2
306,299,312,303,2
308,297,316,306,2
309,295,319,308,2
309,293,320,309,2
309,290,319,310,2
309,285,318,312,2
309,277,315,314,2
309,267,311,314,2
308,256,305,312,2
307,249,300,310,2
305,248,295,308,2
305,252,292,305,2
304,260,291,302,2
303,271,293,301,2
302,286,297,302,2
302,303,304,306,2
302,319,311,311,2
303,331,318,316,2
305,337,321,320,2
307,339,324,323,2
308,337,324,324,2
308,335,324,323,2
309,333,324,320,2
308,333,324,318,2
308,333,323,315,2
308,331,322,312,2
307,329,320,309,2
306,329,317,307,2
306,331,316,306,2
307,332,317,306,2
308,331,319,306,2
310,327,321,305,2
310,320,323,305,2
310,312,323,305,2
310,306,320,305,2
310,304,315,305,2
310,305,310,306,2
309,306,307,306,2
308,309,304,307,2
307,312,303,309,2
307,314,303,310,2
307,313,304,311,2
307,312,304,311,2
306,311,304,310,2
306,311,303,308,2
305,310,302,306,2
304,307,302,304,2
304,300,302,302,2
304,291,302,301,2
306,281,302,300,2
307,274,301,301,2
308,271,299,302,2
309,273,298,304,2
309,279,298,305,2
309,287,298,307,2
309,298,300,309,2
307,310,302,311,2
306,318,305,312,2
305,323,307,313,2
305,324,308,314,2
305,322,309,312,2
305,319,307,308,2
304,313,304,304,2
304,306,301,300,2
305,298,298,296,2
305,289,298,294,2
307,279,300,295,2
309,268,304,296,2
310,258,307,297,2
312,253,309,297,2
312,255,310,296,2
311,262,309,297,2
310,272,309,300,2
309,286,310,303,2
308,304,311,307,2
307,325,311,311,2
306,341,310,314,2
305,351,310,316,2
305,355,310,316,2
305,354,309,315,2
305,351,308,313,2
306,346,304,311,2
305,340,297,308,2
304,333,288,305,2
304,326,281,302,2
303,319,277,298,2
304,310,276,295,2
304,302,276,292,2
304,293,280,292,2
305,286,286,294,2
306,283,292,298,2
308,282,296,300,2
309,284,298,303,2
310,289,300,305,2
311,295,302,307,2
311,300,305,308,2
310,303,309,309,2
309,304,313,310,2
309,305,315,311,2
308,308,316,311,2
308,312,315,311,2
307,316,314,311,2
307,318,313,311,2
306,317,313,311,2
306,314,313,312,2
306,307,313,312,2
307,298,313,311,2
308,291,313,311,2
310,284,314,311,2
311,278,316,313,2
312,277,316,314,2
312,279,315,315,2
311,284,313,313,2
308,292,308,310,2
305,302,303,307,2
303,311,297,304,2
301,318,293,301,2
301,321,293,298,2
302,319,296,300,2
303,314,301,304,2
306,306,307,309,2
307,297,311,312,2
309,287,313,311,2
310,278,315,310,2
311,274,315,308,2
313,274,314,306,2
314,276,310,305,2
314,281,306,304,2
315,292,301,302,2
314,305,298,303,2
312,318,298,304,2
310,328,300,306,2
308,336,305,308,2
306,341,310,309,2
304,343,313,311,2
304,341,316,312,2
303,335,318,312,2
303,327,320,311,2
303,318,322,309,2
304,309,323,308,2
305,300,322,306,2
306,290,321,306,2
308,279,320,304,2
309,271,320,304,2
310,268,319,305,2
311,271,319,306,2
309,281,317,306,2
306,296,315,306,2
303,312,313,305,2
301,325,311,305,2
301,334,309,305,2
300,337,308,305,2
301,336,308,305,2
302,331,307,305,2
303,324,306,305,2
305,317,305,304,2
305,309,305,303,2
306,303,304,302,2
306,295,304,302,2
307,287,305,304,2
307,278,307,307,2
308,270,308,310,2
308,265,309,312,2
308,264,311,314,2
307,267,312,316,2
307,273,312,318,2
306,281,311,318,2
306,291,309,317,2
305,306,308,316,2
304,321,307,314,2
303,334,305,313,2
302,341,305,311,2
302,345,305,308,2
302,345,304,306,2
301,344,303,303,2
299,341,302,299,2
299,337,302,297,2
298,333,302,296,2
299,330,303,297,2
300,327,305,300,2
301,325,306,303,2
303,322,308,306,2
304,319,310,308,2
304,316,311,310,2
304,311,310,310,2
304,303,308,310,2
305,294,306,309,2
304,288,303,308,2
304,285,300,305,2
303,282,297,302,2
301,280,295,301,2
300,280,295,300,2
300,282,296,300,2
301,288,300,301,2
302,297,305,303,2
303,307,309,306,2
304,317,311,308,2
304,324,311,309,2
304,323,311,309,2
304,319,310,310,2
304,313,310,311,2
305,309,310,313,2
305,306,310,313,2
305,305,310,313,2
305,304,311,313,2
305,303,311,312,2
305,301,312,312,2
305,300,311,311,2
305,300,311,309,2
305,302,312,307,2
305,307,312,306,2
305,312,313,305,2
305,317,312,303,2
305,319,310,301,2
305,319,307,298,2
304,317,303,297,2
304,314,301,296,2
304,311,301,296,2
305,309,303,297,2
306,306,306,298,2
306,304,309,301,2
307,302,311,306,2
309,301,313,310,2
310,300,315,314,2
310,297,315,316,2
310,294,314,316,2
310,292,313,316,2
309,292,311,314,2
308,292,309,312,2
308,292,309,310,2
308,293,310,308,2
308,295,312,307,2
309,297,314,306,2
310,298,316,305,2
310,298,317,304,2
310,301,315,304,2
309,305,312,303,2
308,308,308,302,2
307,309,306,302,2
306,310,303,301,2
306,311,302,300,2
305,313,300,299,2
304,315,299,299,2
304,315,298,300,2
304,312,299,300,2
305,308,301,302,2
306,305,303,304,2
307,305,304,306,2
308,308,304,306,2
307,313,303,305,2
306,318,301,304,2
304,323,300,304,2
302,328,301,306,2
301,333,303,308,2
301,334,306,309,2
302,334,310,309,2
304,334,312,310,2
306,334,313,309,2
306,331,311,308,2
306,328,308,306,2
306,324,305,303,2
306,321,303,301,2
307,319,302,299,2
307,315,301,299,2
307,307,301,302,2
308,298,302,306,2
308,286,303,311,2
308,274,303,314,2
309,262,303,316,2
309,251,302,317,2
309,245,302,317,2
309,242,303,318,2
309,243,306,318,2
310,250,309,318,2
310,264,312,317,2
310,284,314,316,2
309,306,314,316,2
307,325,313,316,2
306,338,312,314,2
305,345,310,312,2
304,348,308,309,2
304,347,306,307,2
303,345,304,305,2
302,340,301,303,2
301,335,300,301,2
301,328,300,300,2
300,321,301,300,2
301,316,303,299,2
302,311,305,299,2
303,307,308,300,2
305,302,311,303,2
306,294,312,305,2
308,284,312,307,2
309,277,312,308,2
309,274,312,309,2
309,274,310,310,2
310,275,309,310,2
310,281,308,310,2
310,289,307,310,2
309,299,306,310,2
308,310,305,310,2
306,322,305,309,2
304,333,305,308,2
303,344,305,308,2
303,350,306,309,2
304,352,308,310,2
306,351,310,310,2
307,349,310,310,2
309,345,310,309,2
310,341,308,306,2
310,336,305,304,2
310,331,300,301,2
309,326,296,301,2
308,321,293,302,2
308,316,293,304,2
308,312,295,306,2
310,309,298,308,2
310,307,300,309,2
310,305,301,309,2
309,304,303,309,2
308,304,305,309,2
309,305,307,309,2
311,306,310,310,2
313,305,312,311,2
314,301,313,311,2
316,294,313,311,2
316,287,311,311,2
316,280,311,311,2
315,276,310,310,2
314,276,309,311,2
313,278,309,312,2
312,285,308,312,2
310,295,308,312,2
308,306,308,312,2
307,314,308,311,2
305,320,310,310,2
304,324,310,310,2
302,326,309,310,2
301,328,306,310,2
301,328,305,309,2
301,329,303,307,2
301,330,302,306,2
301,330,301,307,2
302,329,301,308,2
304,328,302,310,2
305,326,304,312,2
306,324,306,314,2
307,322,307,315,2
307,319,306,316,2
306,316,307,316,2
307,312,307,316,2
307,308,308,317,2
308,304,310,317,2
309,300,311,316,2
309,298,313,315,2
309,297,314,313,2
309,298,313,311,2
307,298,310,307,2
306,296,306,304,2
305,291,304,302,2
305,287,305,301,2
305,285,307,303,2
306,285,310,306,2
307,287,310,308,2
307,289,310,311,2
308,292,310,314,2
308,296,310,316,2
308,300,309,317,2
307,302,308,317,2
308,304,307,316,2
308,304,306,315,2
307,303,304,313,2
307,302,303,311,2
308,302,302,311,2
309,300,301,311,2
311,299,301,310,2
312,298,302,309,2
311,302,302,308,2
311,308,302,308,2
309,316,301,309,2
308,325,299,310,2
308,329,298,311,2
307,328,299,311,2
307,321,300,310,2
308,311,301,308,2
308,300,302,305,2
308,292,302,302,2
308,288,303,299,2
309,287,305,297,2
309,288,307,297,2
309,290,309,300,2
310,289,311,303,2
311,287,313,307,2
311,286,313,309,2
312,288,314,310,2
312,291,313,309,2
311,296,312,308,2
310,302,310,306,2
309,309,307,305,2
308,316,305,304,2
307,323,304,303,2
307,327,303,303,2
306,330,303,301,2
306,331,304,300,2
306,332,305,299,2
306,331,305,298,2
305,328,305,297,2
305,324,305,296,2
304,319,306,295,2
304,314,306,294,2
304,311,305,294,2
305,308,305,293,2
306,305,305,294,2
305,304,305,295,2
305,305,303,296,2
304,306,301,297,2
303,308,298,297,2
303,308,295,298,2
302,307,294,297,2
301,305,294,297,2
300,303,295,296,2
300,301,299,296,2
301,301,304,297,2
302,302,309,301,2
304,301,313,307,2
306,297,314,311,2
308,290,312,313,2
308,281,309,312,2
309,271,306,309,2
308,264,303,303,2
306,261,301,296,2
305,262,300,290,2
304,267,300,287,2
304,277,303,287,2
304,288,307,292,2
304,299,310,298,2
304,308,310,302,2
304,315,309,305,2
303,321,307,305,2
303,325,304,306,2
303,327,302,306,2
303,327,302,306,2
304,326,303,308,2
305,322,304,310,2
305,316,307,310,2
304,313,309,309,2
304,314,310,306,2
303,320,311,304,2
304,328,311,302,2
304,334,311,302,2
304,338,311,302,2
304,338,311,303,2
304,334,311,304,2
304,328,311,304,2
304,322,310,304,2
304,319,310,304,2
304,317,309,304,2
303,317,308,305,2
303,319,308,305,2
303,321,308,305,2
303,324,308,304,2
303,328,308,305,2
304,332,309,305,2
304,334,309,306,2
305,331,309,306,2
305,325,307,306,2
304,318,307,307,2
305,313,307,307,2
305,310,308,308,2
306,310,309,309,2
306,309,310,308,2
305,311,309,308,2
304,313,308,307,2
303,315,307,307,2
303,313,307,306,2
304,307,307,307,2
306,301,308,307,2
307,297,307,307,2
308,295,307,306,2
308,297,306,305,2
307,300,304,304,2
306,302,302,302,2
304,302,299,301,2
303,299,296,300,2
303,294,295,299,2
302,287,297,299,2
303,279,300,299,2
303,271,304,300,2
304,266,307,301,2
304,264,308,301,2
303,265,307,301,2
303,268,306,300,2
302,272,306,299,2
302,279,306,299,2
303,289,307,299,2
302,299,306,299,2
302,306,305,299,2
301,310,303,298,2
300,313,301,296,2
298,314,297,293,2
296,313,293,288,2
296,310,289,284,2
296,308,286,281,2
297,308,284,280,2
297,310,285,284,2
299,313,289,290,2
300,315,294,297,2
301,318,299,303,2
302,321,303,308,2
302,324,307,311,2
303,327,312,313,2
305,329,315,315,2
307,330,317,316,2
308,330,317,317,2
309,329,316,317,2
308,328,314,317,2
307,327,313,315,2
306,326,312,314,2
306,325,311,313,2
306,323,311,311,2
307,321,310,310,2
306,320,309,310,2
305,320,308,312,2
305,320,308,314,2
305,318,308,317,2
305,318,309,318,2
306,318,309,317,2
306,318,309,315,2
306,316,308,312,2
305,313,307,310,2
305,310,306,308,2
305,307,305,306,2
305,305,306,304,2
305,305,307,304,2
304,305,308,303,2
304,304,309,303,2
303,301,310,304,2
304,298,312,305,2
304,295,313,305,2
305,291,313,305,2
305,287,311,305,2
305,286,309,305,2
304,288,306,306,2
304,293,304,307,2
304,297,303,307,2
304,300,303,306,2
305,300,304,305,2
307,299,305,304,2
308,298,305,303,2
309,297,305,301,2
309,297,304,300,2
310,298,304,299,2
310,298,305,298,2
309,299,305,298,2
309,300,306,299,2
309,302,307,301,2
309,305,306,304,2
308,311,305,306,2
307,319,303,308,2
306,325,301,309,2
306,329,300,307,2
305,330,299,306,2
305,329,298,306,2
304,326,298,305,2
304,321,297,305,2
304,315,297,305,2
304,307,296,305,2
304,299,297,304,2
304,291,299,303,2
305,285,303,301,2
306,279,304,300,2
307,276,304,299,2
307,275,303,297,2
306,274,301,297,2
306,273,300,298,2
305,270,301,300,2
305,268,302,301,2
305,267,304,303,2
305,269,306,305,2
305,274,308,306,2
305,285,310,309,2
306,301,309,312,2
306,318,309,315,2
306,331,308,315,2
307,337,308,316,2
308,338,307,315,2
308,335,307,313,2
309,331,307,311,2
308,330,306,309,2
308,330,305,309,2
308,331,305,307,2
308,330,305,306,2
308,328,306,304,2
308,325,308,303,2
308,322,308,301,2
307,319,307,299,2
306,317,304,298,2
306,316,303,297,2
307,314,302,295,2
307,312,301,293,2
306,309,300,291,2
304,304,298,289,2
302,301,296,287,2
301,300,295,287,2
300,302,295,289,2
301,305,295,292,2
301,308,296,296,2
301,311,296,298,2
301,314,297,301,2
300,317,296,302,2
300,319,297,305,2
300,319,298,308,2
301,317,299,311,2
302,313,301,314,2
303,306,303,314,2
305,297,304,314,2
305,289,305,313,2
306,283,306,312,2
306,279,306,312,2
307,277,307,312,2
307,279,308,312,2
308,285,308,313,2
308,294,309,314,2
308,300,309,314,2
308,304,310,314,2
307,308,310,315,2
306,310,312,316,2
305,314,312,315,2
304,318,312,314,2
303,321,311,311,2
302,323,310,308,2
302,322,310,306,2
302,322,310,304,2
302,321,310,303,2
303,319,310,303,2
304,315,310,303,2
305,309,310,304,2
306,302,309,304,2
308,295,307,305,2
309,290,305,305,2
311,288,303,305,2
312,290,300,304,2
311,294,297,304,2
310,302,294,303,2
308,310,291,301,2
305,315,288,299,2
302,319,285,298,2
301,322,286,298,2
301,322,288,299,2
301,319,292,301,2
302,314,295,304,2
304,310,298,307,2
304,308,301,309,2
305,307,304,311,2
306,307,307,313,2
307,306,311,314,2
307,304,313,314,2
306,304,313,314,2
305,305,312,314,2
304,307,310,313,2
303,309,308,312,2
303,312,306,312,2
304,316,305,311,2
304,318,304,310,2
304,318,304,309,2
304,315,303,307,2
304,310,302,304,2
304,302,301,301,2
304,294,301,298,2
304,288,301,297,2
304,284,302,297,2
304,283,303,299,2
305,284,304,302,2
306,289,305,305,2
307,298,305,307,2
306,311,305,307,2
305,323,304,308,2
304,332,303,308,2
303,337,301,307,2
302,337,300,306,2
301,334,301,306,2
301,330,303,306,2
302,325,305,307,2
303,320,306,306,2
304,315,307,305,2
304,312,309,307,2
305,312,310,310,2
305,313,311,313,2
304,313,311,314,2
304,310,311,314,2
305,306,310,312,2
305,300,310,311,2
305,294,309,309,2
305,286,309,309,2
306,277,309,308,2
308,267,309,307,2
309,258,309,307,2
311,251,308,307,2
311,248,307,307,2
311,252,307,307,2
310,263,306,307,2
308,279,305,307,2
306,297,305,307,2
305,311,305,308,2
304,321,305,309,2
304,328,306,310,2
304,330,307,313,2
305,329,309,314,2
305,328,309,315,2
305,326,310,314,2
305,323,310,313,2
304,319,311,312,2
305,315,310,312,2
306,311,310,313,2
307,308,309,313,2
307,304,308,313,2
306,301,306,312,2
306,299,304,312,2
305,298,304,311,2
305,299,302,309,2
305,301,302,307,2
305,305,303,306,2
305,310,304,306,2
305,312,306,306,2
305,311,309,306,2
304,308,312,305,2
303,306,313,306,2
302,305,314,307,2
302,307,313,307,2
302,311,312,308,2
302,317,311,309,2
302,321,310,310,2
302,324,309,312,2
303,322,308,312,2
303,315,308,312,2
304,302,307,311,2
305,289,307,309,2
306,280,308,309,2
307,277,309,309,2
308,279,310,309,2
308,286,310,309,2
307,300,308,309,2
305,315,306,308,2
304,327,305,306,2
303,331,304,304,2
302,329,303,303,2
303,322,302,302,2
303,314,302,300,2
304,308,303,299,2
305,304,303,299,2
305,304,302,298,2
304,308,302,298,2
304,313,302,297,2
304,320,303,297,2
304,326,302,298,2
305,330,300,300,2
305,333,299,303,2
306,335,297,306,2
307,335,298,308,2
307,336,298,309,2
308,334,300,309,2
308,332,300,309,2
308,331,299,309,2
309,330,299,310,2
309,329,299,312,2
309,328,300,313,2
309,326,302,314,2
308,322,306,313,2
308,317,310,311,2
309,311,312,309,2
309,304,314,307,2
310,296,314,306,2
311,288,313,306,2
311,281,313,305,2
311,276,313,304,2
310,276,311,304,2
309,285,309,304,2
307,298,307,304,2
306,311,306,304,2
305,319,303,302,2
303,321,301,301,2
303,319,301,300,2
303,311,300,302,2
304,302,299,304,2
304,292,298,307,2
304,283,300,310,2
304,279,302,311,2
305,280,306,313,2
305,286,309,314,2
305,296,310,314,2
305,306,310,314,2
306,315,310,312,2
305,321,309,311,2
305,325,309,310,2
305,326,309,309,2
304,325,309,307,2
304,322,310,305,2
304,319,310,304,2
305,317,311,304,2
305,315,311,304,2
306,313,311,305,2
307,306,311,305,2
308,294,311,305,2
309,280,311,305,2
310,267,311,305,2
310,261,312,306,2
312,262,313,307,2
312,270,314,309,2
311,284,313,309,2
308,302,312,309,2
305,317,310,309,2
303,327,309,310,2
304,331,308,311,2
304,331,308,311,2
305,330,308,311,2
306,328,308,311,2
306,326,309,311,2
307,323,310,311,2
307,320,310,310,2
308,319,309,309,2
308,317,308,308,2
308,315,307,307,2
307,313,306,307,2
306,312,305,307,2
305,310,304,307,2
305,309,305,307,2
305,308,306,306,2
305,306,305,304,2
305,305,304,303,2
305,303,303,301,2
305,301,303,299,2
305,298,303,298,2
306,294,304,298,2
308,291,306,298,2
308,286,309,299,2
309,282,311,302,2
310,278,313,306,2
311,277,312,309,2
312,278,311,311,2
312,281,309,311,2
312,283,307,311,2
311,286,305,310,2
310,291,303,310,2
310,298,302,309,2
309,306,301,309,2
309,314,301,310,2
307,320,301,310,2
305,324,300,310,2
304,322,298,308,2
303,318,297,308,2
303,312,298,308,2
303,307,300,309,2
304,304,304,310,2
304,303,307,310,2
304,306,309,309,2
304,311,310,308,2
304,319,309,306,2
303,326,309,304,2
303,331,309,302,2
303,332,310,300,2
303,329,310,299,2
304,323,309,299,2
304,317,307,299,2
303,312,305,298,2
303,309,303,300,2
304,310,303,302,2
304,315,304,304,2
305,321,304,305,2
305,328,305,305,2
305,333,304,304,2
304,333,304,303,2
304,327,304,302,2
303,317,304,301,2
302,307,304,301,2
302,300,306,301,2
301,294,309,302,2
302,287,312,303,2
302,281,314,304,2
304,276,315,304,2
305,274,316,304,2
306,274,316,305,2
307,279,315,305,2
307,288,312,305,2
306,300,310,306,2
305,311,308,307,2
303,319,306,308,2
301,323,305,308,2
300,326,305,308,2
299,326,305,307,2
300,325,307,307,2
302,322,309,307,2
302,318,311,307,2
303,314,311,307,2
303,310,311,307,2
304,307,310,306,2
304,306,309,305,2
304,306,306,304,2
303,307,304,302,2
302,307,301,301,2
301,302,299,299,2
300,294,299,298,2
302,284,301,299,2
304,273,305,300,2
307,264,308,304,2
309,259,311,307,2
311,260,313,310,2
310,268,313,311,2
309,281,311,312,2
307,299,309,311,2
306,316,307,311,2
305,328,305,310,2
304,335,304,308,2
304,338,303,307,2
303,339,303,307,2
302,340,304,306,2
302,337,303,304,2
302,332,304,303,2
303,323,304,302,2
304,314,305,302,2
304,304,306,302,2
305,297,305,302,2
306,292,305,302,2
306,292,305,302,2
306,293,304,302,2
305,294,304,302,2
305,294,304,302,2
306,294,304,301,2
308,294,304,302,2
310,296,304,303,2
311,303,305,304,2
311,313,304,305,2
311,324,303,305,2
310,332,303,305,2
309,336,303,304,2
309,336,303,304,2
309,335,304,304,2
308,333,304,304,2
307,331,304,304,2
306,326,303,303,2
305,320,302,302,2
304,315,300,301,2
304,310,299,298,2
304,308,298,297,2
304,307,297,295,2
304,308,296,293,2
303,309,295,290,2
302,311,296,287,2
301,315,297,285,2
301,318,299,285,2
302,321,302,287,2
303,321,306,291,2
304,319,309,295,2
306,314,312,299,2
307,307,315,304,2
309,299,317,308,2
309,288,318,312,2
310,277,317,313,2
310,268,317,313,2
310,263,316,314,2
311,261,316,313,2
311,263,314,312,2
311,269,313,311,2
310,281,311,311,2
308,294,310,310,2
307,305,309,310,2
307,313,309,310,2
306,319,309,308,2
306,329,308,306,2
304,339,307,304,2
303,348,305,300,2
301,353,302,296,2
300,356,299,292,2
300,355,297,291,2
300,351,297,291,2
301,345,300,292,2
302,339,304,294,2
303,332,307,296,2
303,326,308,300,2
304,320,307,302,2
305,314,304,304,2
305,309,302,304,2
306,301,301,304,2
306,293,302,306,2
307,285,304,309,2
307,277,306,310,2
309,270,307,310,2
309,267,308,311,2
309,270,308,311,2
309,279,309,312,2
308,289,309,312,2
307,300,311,313,2
306,310,312,313,2
306,321,313,313,2
305,330,314,312,2
305,339,314,310,2
306,345,314,308,2
307,350,313,305,2
308,350,311,303,2
308,345,309,303,2
308,332,308,302,2
308,315,308,302,2
308,295,309,303,2
309,275,312,302,2
310,257,314,302,2
311,241,316,302,2
312,232,316,302,2
312,233,316,302,2
311,247,315,302,2
310,267,314,301,2
309,288,313,301,2
308,303,310,300,2
308,309,308,300,2
308,307,306,299,2
308,300,305,300,2
309,294,304,301,2
309,294,303,302,2
309,298,304,302,2
308,305,304,302,2
308,312,306,302,2
308,319,307,301,2
306,321,305,298,2
304,316,302,295,2
303,304,298,293,2
303,292,297,293,2
303,282,298,294,2
303,278,301,296,2
304,279,304,297,2
305,284,307,299,2
306,291,309,299,2
305,300,309,299,2
305,312,309,299,2
305,326,309,300,2
306,339,310,302,2
307,344,311,303,2
307,340,311,304,2
307,329,311,305,2
307,315,310,305,2
307,304,309,306,2
308,298,308,306,2
308,297,308,306,2
308,304,308,306,2
308,316,308,308,2
308,329,309,311,2
309,340,310,313,2
309,348,309,314,2
309,352,308,314,2
310,354,307,314,2
310,353,307,312,2
309,351,306,309,2
309,347,306,306,2
308,339,306,303,2
307,328,305,301,2
306,316,305,300,2
306,308,305,301,2
307,302,305,302,2
307,298,305,303,2
308,295,305,303,2
309,292,307,303,2
310,288,309,303,2
311,285,311,303,2
311,281,311,304,2
311,276,311,304,2
310,271,310,303,2
309,271,309,302,2
308,274,308,303,2
307,281,309,303,2
308,288,309,305,2
308,297,309,306,2
308,305,309,307,2
307,314,309,307,2
306,322,308,307,2
305,327,306,306,2
305,330,304,306,2
305,331,303,305,2
305,329,304,304,2
304,324,304,302,2
304,315,306,300,2
303,305,310,299,2
303,299,312,300,2
303,298,315,301,2
303,301,318,303,2
303,305,319,304,2
304,305,319,306,2
304,298,319,307,2
306,288,318,308,2
307,275,317,308,2
308,265,317,307,2
308,264,316,305,2
307,274,314,302,2
307,290,313,300,2
306,306,312,300,2
306,319,312,302,2
306,328,312,303,2
307,331,312,304,2
307,326,315,305,2
308,315,316,305,2
309,301,318,306,2
309,286,318,305,2
308,273,316,305,2
307,265,313,306,2
306,264,312,307,2
305,275,309,308,2
303,292,307,308,2
301,310,305,309,2
300,323,303,309,2
300,329,300,308,2
300,328,299,306,2
299,323,298,303,2
299,319,300,300,2
298,320,303,299,2
298,327,308,299,2
298,332,311,301,2
299,333,313,301,2
299,331,313,301,2
300,328,311,300,2
300,323,308,300,2
300,317,305,300,2
301,309,305,302,2
301,301,307,305,2
303,296,309,308,2
304,298,312,311,2
306,305,314,314,2
307,311,316,315,2
309,312,317,316,2
310,308,317,316,2
311,302,318,315,2
311,297,318,315,2
312,294,318,315,2
311,293,316,314,2
310,297,314,313,2
308,303,312,312,2
306,308,309,311,2
304,310,308,310,2
303,312,306,311,2
303,317,305,312,2
303,321,303,312,2
304,326,302,312,2
305,333,300,312,2
306,339,298,311,2
305,342,296,310,2
304,340,295,311,2
304,332,297,312,2
305,321,299,314,2
306,307,303,314,2
306,290,306,314,2
305,278,309,313,2
305,275,311,312,2
304,276,311,312,2
305,279,311,312,2
307,283,311,312,2
309,288,312,313,2
310,295,314,314,2
311,300,316,315,2
311,308,318,314,2
311,319,320,314,2
311,328,320,313,2
310,336,318,311,2
308,341,314,309,2
305,345,311,307,2
302,345,309,305,2
300,341,308,304,2
299,336,306,302,2
299,330,305,300,2
299,325,305,297,2
299,321,307,296,2
300,315,310,295,2
301,307,313,296,2
301,296,315,299,2
301,285,316,303,2
301,273,315,308,2
302,264,314,312,2
303,262,313,315,2
304,265,314,317,2
305,274,313,317,2
304,286,312,315,2
303,300,311,313,2
302,313,311,311,2
300,323,311,309,2
300,328,311,307,2
300,328,312,307,2
301,324,311,307,2
301,318,310,308,2
301,311,308,308,2
301,306,304,307,2
300,303,300,304,2
299,301,296,301,2
298,300,293,298,2
298,300,290,295,2
298,302,290,295,2
299,304,292,297,2
301,309,297,302,2
303,317,301,306,2
305,325,304,309,2
306,331,306,310,2
306,329,306,309,2
306,321,305,307,2
306,311,304,304,2
305,304,303,303,2
305,301,305,303,2
304,305,307,303,2
302,312,309,304,2
302,319,310,305,2
302,323,311,306,2
302,324,312,307,2
303,322,312,308,2
304,317,313,309,2
305,309,313,310,2
305,299,312,310,2
305,290,311,312,2
306,284,311,314,2
307,280,310,315,2
307,280,309,316,2
307,284,308,315,2
307,291,307,313,2
306,301,306,312,2
306,309,306,311,2
306,317,307,310,2
306,324,308,309,2
307,328,309,309,2
308,329,309,308,2
309,325,308,308,2
309,320,306,308,2
309,315,304,308,2
310,310,303,308,2
310,307,303,309,2
310,307,303,310,2
310,309,303,311,2
309,313,302,311,2
309,314,302,311,2
308,312,302,310,2
308,305,303,309,2
309,295,304,309,2
309,283,306,308,2
309,269,308,306,2
309,258,309,305,2
309,255,309,304,2
308,259,310,303,2
307,268,309,302,2
305,280,307,302,2
305,293,306,302,2
304,303,306,303,2
304,312,306,304,2
305,319,307,306,2
305,325,307,306,2
305,331,306,308,2
304,337,306,311,2
304,341,306,315,2
305,340,306,318,2
305,332,306,321,2
306,318,306,323,2
306,300,306,322,2
306,282,306,319,2
305,270,305,315,2
305,266,303,312,2
306,271,302,308,2
306,280,301,306,2
305,293,300,304,2
304,307,300,303,2
303,321,300,302,2
302,332,301,303,2
302,338,303,304,2
301,341,304,305,2
300,342,305,305,2
300,341,305,303,2
300,339,305,303,2
301,337,304,303,2
302,334,303,302,2
302,329,302,302,2
302,322,301,302,2
302,311,299,301,2
301,299,298,299,2
301,289,297,298,2
301,286,297,299,2
302,289,299,303,2
304,291,303,309,2
306,291,305,313,2
307,288,307,315,2
308,285,308,315,2
308,281,308,316,2
309,278,309,315,2
309,278,308,315,2
308,281,308,313,2
307,288,308,312,2
306,298,308,311,2
306,309,307,310,2
306,318,306,310,2
305,324,306,309,2
305,326,306,307,2
305,326,306,307,2
305,325,307,306,2
306,323,309,307,2
306,321,309,309,2
307,320,310,310,2
308,318,309,311,2
307,315,309,311,2
306,312,310,311,2
305,309,310,311,2
305,307,310,311,2
305,307,309,311,2
306,308,308,311,2
306,309,307,311,2
308,310,306,311,2
309,311,307,310,2
309,310,308,309,2
310,308,309,309,2
310,303,310,309,2
310,296,310,309,2
308,288,309,309,2
307,280,308,310,2
306,275,306,310,2
306,272,305,311,2
305,275,304,310,2
304,283,304,309,2
303,294,302,308,2
301,302,299,307,2
299,303,296,306,2
299,299,293,305,2
300,292,291,304,2
300,284,288,302,2
299,278,287,301,2
299,276,287,300,2
299,279,288,301,2
299,283,293,303,2
301,287,300,308,2
304,291,308,312,2
306,296,313,316,2
307,300,314,316,2
307,305,312,316,2
306,310,310,314,2
304,315,307,313,2
304,319,305,311,2
304,322,305,310,2
304,324,306,308,2
304,326,307,306,2
304,328,308,306,2
305,328,310,307,2
306,325,312,310,2
307,320,314,314,2
309,312,315,317,2
310,306,315,318,2
311,303,316,318,2
312,303,316,318,2
312,303,316,317,2
311,301,317,317,2
311,298,318,317,2
311,297,318,317,2
311,297,318,318,2
312,299,317,319,2
312,303,317,318,2
311,312,316,318,2
311,322,315,318,2
310,329,314,318,2
309,331,312,316,2
308,327,309,314,2
307,322,306,312,2
306,316,303,310,2
305,309,301,309,2
305,303,301,309,2
305,298,303,309,2
306,294,305,309,2
307,293,307,309,2
307,294,308,310,2
308,296,308,311,2
308,296,307,310,2
307,294,306,311,2
305,291,304,310,2
303,290,304,310,2
302,290,304,310,2
302,292,305,311,2
302,295,306,313,2
303,298,306,314,2
304,298,306,315,2
306,296,306,315,2
308,295,305,315,2
309,295,305,315,2
309,300,306,315,2
309,309,307,316,2
308,319,307,317,2
308,325,308,317,2
307,323,307,316,2
307,313,306,314,2
307,296,304,311,2
307,276,304,309,2
308,256,304,307,2
309,240,305,306,2
311,232,307,306,2
313,234,309,307,2
313,247,310,307,2
313,269,310,306,2
312,296,307,307,2
310,319,304,307,2
308,334,300,305,2
306,342,297,304,2
304,344,295,303,2
304,342,294,301,2
304,337,296,300,2
305,331,299,300,2
306,324,301,301,2
308,316,302,303,2
309,310,303,305,2
309,306,303,306,2
309,304,301,306,2
308,303,298,306,2
307,302,296,307,2
307,302,295,307,2
307,304,296,308,2
307,305,298,310,2
308,308,301,312,2
309,312,304,314,2
310,319,307,315,2
310,328,307,315,2
309,335,305,313,2
308,336,303,311,2
307,331,299,308,2
306,320,295,304,2
304,309,293,301,2
304,303,294,301,2
305,301,297,305,2
307,300,300,309,2
307,300,303,311,2
308,298,304,312,2
309,294,308,312,2
310,291,311,312,2
310,288,314,312,2
311,285,317,312,2
311,283,318,311,2
310,282,317,311,2
309,281,315,310,2
308,281,313,311,2
309,280,311,311,2
309,278,310,311,2
309,277,309,311,2
310,279,309,311,2
311,286,308,310,2
312,298,308,311,2
311,313,308,311,2
310,324,308,312,2
309,330,309,312,2
308,333,308,312,2
307,332,307,313,2
307,330,307,313,2
307,327,308,312,2
307,325,309,310,2
307,322,312,309,2
307,319,314,307,2
307,313,314,305,2
308,307,314,304,2
308,301,312,303,2
309,296,309,302,2
309,292,306,301,2
309,290,304,300,2
309,289,301,300,2
309,287,300,300,2
309,282,299,301,2
310,275,300,302,2
311,267,301,302,2
312,260,302,303,2
312,255,302,304,2
313,253,303,304,2
312,261,304,304,2
311,281,306,305,2
310,308,308,305,2
308,332,310,306,2
306,348,312,306,2
305,355,311,306,2
304,358,311,307,2
303,356,311,307,2
303,353,311,309,2
303,349,311,309,2
304,345,311,310,2
304,340,310,309,2
305,332,308,308,2
306,322,306,305,2
307,313,305,302,2
307,306,303,299,2
307,301,302,296,2
307,298,301,296,2
308,298,302,297,2
309,301,305,301,2
309,307,307,304,2
309,314,308,308,2
308,317,308,311,2
307,315,307,312,2
305,310,307,313,2
304,306,306,313,2
302,303,306,311,2
302,303,305,309,2
302,304,305,307,2
302,306,304,305,2
303,308,304,305,2
304,308,303,304,2
304,306,303,305,2
305,303,303,305,2
305,300,303,305,2
306,297,303,306,2
306,297,303,306,2
306,298,302,306,2
305,301,302,305,2
305,307,303,306,2
305,312,304,309,2
306,315,305,311,2
307,314,307,313,2
307,311,307,314,2
308,305,308,315,2
308,297,309,315,2
309,289,311,314,2
309,282,311,312,2
310,275,311,309,2
310,271,310,306,2
310,270,308,304,2
311,271,306,302,2
311,273,305,302,2
312,274,305,302,2
313,274,305,302,2
313,275,304,302,2
312,278,302,301,2
311,286,300,301,2
310,294,298,300,2
309,304,296,300,2
308,316,295,301,2
307,328,295,304,2
308,338,297,308,2
308,344,299,311,2
308,348,300,313,2
308,350,301,312,2
309,352,300,311,2
309,350,298,310,2
309,345,295,310,2
310,338,293,311,2
311,330,293,311,2
311,320,295,310,2
311,309,298,309,2
310,300,303,307,2
309,294,307,306,2
309,288,310,307,2
309,285,312,307,2
308,282,313,308,2
309,280,314,309,2
310,278,316,312,2
311,280,317,313,2
311,287,318,314,2
311,299,318,314,2
310,313,317,313,2
308,326,314,311,2
306,338,309,310,2
303,351,304,309,2
302,361,301,309,2
302,363,300,310,2
302,356,302,312,2
303,343,304,315,2
304,331,306,318,2
304,322,307,318,2
304,316,308,316,2
303,311,308,315,2
302,309,306,314,2
301,307,305,313,2
301,308,304,313,2
300,308,303,313,2
300,307,303,313,2
300,306,304,314,2
301,302,306,314,2
301,297,309,314,2
302,290,311,314,2
303,283,313,314,2
304,275,314,313,2
306,267,313,313,2
307,261,311,313,2
308,260,308,312,2
308,264,305,310,2
308,272,302,308,2
307,279,300,306,2
307,286,300,304,2
306,291,300,304,2
305,296,302,304,2
305,298,304,305,2
306,297,307,306,2
307,294,309,306,2
308,296,310,306,2
307,305,309,306,2
307,320,308,306,2
305,335,308,306,2
305,345,307,306,2
305,349,307,305,2
304,348,307,305,2
305,347,307,305,2
305,345,306,305,2
306,342,305,305,2
306,337,305,305,2
306,331,305,304,2
307,326,306,305,2
307,321,308,306,2
307,317,310,306,2
307,313,313,306,2
307,309,314,307,2
308,304,315,309,2
309,297,314,308,2
309,288,314,308,2
310,279,315,306,2
310,270,316,305,2
310,265,317,304,2
311,263,318,304,2
311,266,319,304,2
311,273,318,305,2
309,283,316,306,2
307,292,314,306,2
306,297,312,306,2
305,300,310,306,2
305,300,309,305,2
305,299,308,305,2
305,297,308,304,2
306,295,307,303,2
306,297,306,303,2
305,302,306,303,2
305,310,305,302,2
305,319,305,302,2
305,328,305,303,2
305,335,305,304,2
304,341,304,304,2
304,345,302,303,2
304,345,301,304,2
304,343,300,303,2
305,337,299,303,2
305,331,299,302,2
305,322,299,302,2
305,313,302,302,2
306,304,305,304,2
307,296,308,307,2
308,291,310,310,2
308,287,311,311,2
308,286,309,311,2
307,287,305,309,2
306,289,301,307,2
305,292,297,306,2
304,297,293,304,2
304,305,290,301,2
303,316,289,299,2
303,326,290,297,2
303,335,293,296,2
303,340,297,297,2
303,340,301,300,2
303,335,304,302,2
303,329,306,304,2
304,322,307,305,2
304,317,309,306,2
305,311,310,307,2
306,305,311,308,2
307,301,312,309,2
307,297,312,310,2
308,294,312,311,2
308,291,312,311,2
307,291,311,311,2
306,291,310,309,2
306,293,309,309,2
306,296,307,308,2
306,297,305,307,2
305,297,302,307,2
304,297,299,306,2
303,297,298,305,2
303,298,296,305,2
303,300,296,306,2
304,300,298,306,2
305,298,301,307,2
306,293,304,307,2
307,287,307,307,2
308,282,309,307,2
309,277,310,308,2
310,277,310,309,2
311,280,311,311,2
311,289,310,312,2
311,302,309,313,2
309,315,307,312,2
308,325,305,311,2
307,331,304,310,2
306,333,303,308,2
306,333,302,306,2
305,331,302,303,2
306,329,303,301,2
306,327,304,300,2
306,324,305,302,2
305,320,306,303,2
304,316,307,304,2
304,311,307,304,2
304,306,307,303,2
305,303,307,303,2
306,301,306,304,2
307,299,305,304,2
307,297,303,303,2
308,296,302,303,2
308,295,301,303,2
309,296,301,303,2
309,297,301,304,2
309,301,301,305,2
309,306,301,307,2
308,311,301,308,2
308,314,302,308,2
307,316,304,308,2
307,316,308,309,2
307,317,312,310,2
307,315,313,310,2
308,311,314,309,2
308,305,314,309,2
309,296,314,309,2
310,284,313,308,2
310,272,312,306,2
310,261,310,305,2
310,257,308,304,2
309,258,306,303,2
309,267,305,303,2
308,280,303,304,2
306,293,303,304,2
305,304,302,304,2
304,313,302,304,2
304,320,302,304,2
304,325,302,304,2
304,326,301,304,2
305,325,299,303,2
306,323,297,302,2
305,324,295,302,2
304,329,295,302,2
303,334,296,304,2
304,339,299,308,2
305,339,302,312,2
306,334,304,314,2
307,325,305,315,2
308,316,306,314,2
308,309,305,313,2
308,305,303,312,2
307,303,301,311,2
307,303,298,311,2
306,303,297,311,2
305,302,298,310,2
304,300,300,308,2
303,298,302,306,2
304,295,303,305,2
305,291,302,303,2
306,289,300,302,2
307,287,297,299,2
307,286,295,297,2
307,286,295,297,2
307,288,296,299,2
308,292,300,301,2
309,295,304,302,2
310,297,309,304,2
310,296,312,305,2
310,293,314,305,2
310,289,314,305,2
309,287,312,304,2
309,288,311,305,2
309,294,309,308,2
309,303,308,309,2
309,314,307,311,2
308,326,306,311,2
307,335,304,309,2
306,341,302,307,2
305,343,302,304,2
304,343,302,301,2
304,341,302,298,2
304,337,303,295,2
303,332,305,295,2
304,327,306,298,2
304,322,307,301,2
306,315,309,304,2
307,306,311,307,2
309,296,313,308,2
310,288,314,309,2
310,283,314,310,2
311,282,313,311,2
310,284,311,311,2
309,288,309,310,2
309,292,307,310,2
308,297,306,310,2
307,300,304,308,2
306,302,303,306,2
306,303,303,304,2
306,303,302,303,2
307,301,302,301,2
308,298,301,300,2
310,296,301,299,2
311,297,300,298,2
309,298,299,296,2
307,300,297,295,2
305,302,296,295,2
304,304,297,296,2
304,309,300,300,2
305,317,303,306,2
306,323,305,311,2
306,327,306,315,2
306,328,306,319,2
307,326,306,321,2
308,320,306,322,2
308,311,305,321,2
308,300,305,320,2
310,289,306,317,2
310,278,308,314,2
311,269,310,311,2
311,264,313,309,2
311,264,315,309,2
310,270,315,309,2
309,281,314,308,2
308,290,313,308,2
308,296,312,309,2
308,301,312,309,2
308,306,312,308,2
308,311,310,307,2
308,315,309,305,2
307,318,306,302,2
307,319,304,301,2
306,320,303,301,2
306,319,302,302,2
306,317,301,305,2
307,313,301,309,2
308,310,302,313,2
309,308,302,315,2
309,307,303,316,2
308,307,303,316,2
308,307,303,313,2
307,303,303,309,2
307,298,302,305,2
308,295,302,303,2
308,295,301,301,2
308,298,300,300,2
308,306,301,301,2
307,313,301,302,2
306,318,301,302,2
305,319,300,303,2
305,317,299,301,2
304,314,297,300,2
304,311,297,300,2
304,309,299,302,2
304,310,302,304,2
305,310,308,307,2
306,309,312,309,2
306,306,315,310,2
307,303,314,310,2
307,300,312,310,2
307,300,309,311,2
307,303,306,310,2
307,308,303,310,2
306,314,302,310,2
305,319,300,310,2
305,321,300,309,2
305,320,300,307,2
305,317,300,306,2
305,314,302,305,2
305,310,303,305,2
306,308,305,305,2
306,308,307,305,2
307,307,307,306,2
307,305,308,306,2
307,304,309,306,2
307,304,310,306,2
306,305,310,306,2
306,307,311,306,2
305,309,310,305,2
305,310,309,305,2
305,309,309,305,2
305,305,308,305,2
305,300,308,304,2
305,294,308,303,2
305,289,308,300,2
304,285,308,297,2
304,283,307,294,2
303,283,307,292,2
302,282,307,290,2
302,281,308,290,2
303,279,310,292,2
304,277,312,294,2
306,280,314,298,2
308,286,314,302,2
310,291,314,305,2
311,293,314,306,2
311,295,314,307,2
311,297,313,307,2
310,296,312,306,2
309,293,311,304,2
308,291,310,303,2
308,293,310,303,2
309,298,311,303,2
310,305,311,303,2
311,314,311,303,2
311,321,310,303,2
311,329,309,303,2
310,334,308,303,2
309,336,307,303,2
308,335,306,302,2
307,334,305,301,2
306,333,304,302,2
306,333,304,303,2
306,333,304,304,2
306,332,304,305,2
306,328,305,306,2
306,322,306,305,2
307,316,307,305,2
307,311,308,305,2
308,309,310,306,2
309,310,311,307,2
309,312,312,307,2
310,313,312,306,2
310,313,312,305,2
310,310,311,303,2
309,305,310,302,2
308,298,309,302,2
307,292,308,304,2
306,287,308,305,2
306,283,308,305,2
306,280,308,305,2
306,280,308,304,2
306,281,307,303,2
306,284,307,301,2
306,286,305,298,2
306,288,305,296,2
306,292,304,295,2
305,297,302,293,2
304,302,301,293,2
305,307,302,295,2
306,314,303,298,2
306,324,305,302,2
306,332,305,304,2
306,336,305,305,2
306,335,305,305,2
306,330,305,304,2
307,323,304,304,2
308,314,303,303,2
308,304,303,303,2
309,296,303,304,2
309,290,302,304,2
309,286,301,303,2
309,285,299,301,2
308,285,297,299,2
306,289,297,297,2
304,296,297,295,2
302,307,297,294,2
302,318,298,293,2
302,327,300,294,2
303,329,303,297,2
304,327,307,299,2
305,324,310,302,2
306,321,311,304,2
307,320,311,307,2
307,319,309,309,2
308,319,307,310,2
308,318,306,310,2
308,315,305,310,2
307,313,305,310,2
307,310,306,309,2
308,308,308,308,2
309,307,311,307,2
310,306,314,308,2
312,305,317,308,2
312,304,319,308,2
313,304,320,308,2
313,306,320,307,2
312,310,319,306,2
312,314,318,305,2
313,315,317,304,2
312,313,316,302,2
311,309,313,300,2
310,302,309,298,2
309,291,305,296,2
308,278,301,293,2
307,266,298,291,2
307,259,296,290,2
307,257,296,292,2
307,263,297,294,2
307,276,298,296,2
306,291,299,296,2
305,305,299,296,2
304,315,300,296,2
304,322,301,295,2
304,328,301,296,2
303,333,303,299,2
304,338,304,304,2
304,342,305,309,2
305,344,307,311,2
306,344,308,312,2
307,343,308,311,2
307,338,308,311,2
307,332,308,310,2
308,324,308,309,2
308,314,308,308,2
308,304,308,308,2
309,293,309,307,2
310,283,309,307,2
310,276,309,308,2
311,271,310,309,2
312,268,310,309,2
312,271,308,309,2
311,280,306,308,2
309,293,304,309,2
307,305,303,309,2
306,313,301,310,2
305,318,300,310,2
304,321,299,310,2
304,323,299,309,2
304,324,299,308,2
304,325,301,308,2
305,325,303,307,2
306,324,306,307,2
307,322,308,308,2
308,321,310,309,2
308,320,311,310,2
307,318,311,310,2
307,314,310,308,2
307,309,308,306,2
307,303,306,304,2
306,298,305,302,2
307,293,304,300,2
307,289,305,299,2
308,287,307,299,2
309,289,309,300,2
310,293,310,301,2
309,295,310,303,2
309,295,308,304,2
309,295,306,305,2
309,294,304,306,2
308,294,302,307,2
307,297,302,308,2
306,302,302,310,2
306,306,302,312,2
305,309,303,313,2
304,312,305,313,2
303,313,307,314,2
303,314,309,314,2
304,316,310,314,2
304,320,309,314,2
304,326,309,313,2
304,334,308,313,2
304,341,308,312,2
304,346,308,311,2
304,348,308,310,2
305,345,309,308,2
305,338,309,307,2
306,328,308,305,2
307,318,307,304,2
307,309,305,302,2
307,303,303,301,2
307,300,300,301,2
306,299,298,302,2
306,298,298,303,2
306,297,298,304,2
306,298,299,304,2
306,298,299,304,2
305,296,300,303,2
305,292,300,301,2
304,287,301,299,2
304,283,302,299,2
304,279,303,301,2
306,277,306,305,2
307,278,309,309,2
308,284,311,314,2
307,295,313,318,2
307,308,313,320,2
305,318,313,319,2
304,326,311,317,2
303,332,310,316,2
302,334,309,313,2
302,332,308,311,2
302,327,308,309,2
303,320,308,307,2
304,314,306,306,2
305,309,304,306,2
306,306,304,307,2
306,305,305,307,2
306,307,306,308,2
305,310,307,308,2
305,311,307,310,2
306,306,308,311,2
306,294,308,313,2
307,278,308,313,2
308,262,307,314,2
308,251,306,315,2
308,247,306,315,2
308,252,305,314,2
306,265,303,313,2
304,285,302,312,2
302,309,301,310,2
301,330,301,308,2
300,348,301,307,2
299,359,301,305,2
298,361,301,303,2
297,355,301,301,2
296,347,302,300,2
296,337,303,300,2
297,326,305,302,2
298,316,306,306,2
300,306,308,309,2
302,295,310,310,2
304,286,312,311,2
305,279,313,310,2
305,276,313,310,2
304,281,312,309,2
304,290,312,309,2
302,303,311,309,2
301,315,311,309,2
300,325,313,310,2
301,331,313,311,2
301,335,314,312,2
301,337,314,313,2
302,339,314,314,2
302,340,314,314,2
303,339,313,314,2
304,334,313,314,2
304,327,312,313,2
304,318,310,312,2
304,308,309,309,2
303,299,308,307,2
303,292,307,305,2
303,288,307,304,2
304,287,309,305,2
305,286,310,307,2
305,286,311,309,2
306,288,311,311,2
306,291,309,312,2
305,293,307,311,2
306,295,305,311,2
306,296,303,310,2
307,296,301,310,2
307,296,300,311,2
307,297,300,311,2
306,299,301,311,2
305,304,302,312,2
304,310,306,314,2
304,314,310,316,2
305,318,313,317,2
306,320,316,317,2
307,321,317,316,2
307,323,317,313,2
307,323,316,311,2
306,320,315,311,2
306,317,315,311,2
306,315,314,313,2
306,314,313,316,2
306,315,312,319,2
304,315,310,321,2
303,317,308,322,2
303,318,308,324,2
303,321,307,325,2
304,321,306,325,2
304,320,305,324,2
305,317,303,323,2
306,311,303,321,2
307,306,305,319,2
307,302,307,317,2
307,301,310,315,2
307,301,313,314,2
306,304,314,312,2
306,310,314,311,2
305,320,313,311,2
305,327,313,311,2
305,328,312,311,2
305,324,312,311,2
305,316,312,313,2
306,308,312,313,2
307,302,312,313,2
307,299,311,313,2
307,298,308,312,2
305,300,304,309,2
303,305,301,307,2
302,312,300,305,2
302,316,302,306,2
303,316,305,307,2
304,313,308,309,2
306,308,310,310,2
307,303,310,311,2
307,295,309,310,2
307,288,307,307,2
306,283,306,305,2
305,281,305,303,2
304,282,304,302,2
304,286,303,301,2
304,289,302,301,2
304,294,303,302,2
305,299,304,302,2
305,302,304,303,2
305,304,304,304,2
305,304,303,305,2
306,304,302,307,2
307,304,302,308,2
306,305,302,308,2
305,307,302,308,2
305,309,305,308,2
304,311,307,307,2
304,313,308,307,2
303,313,308,307,2
302,312,308,308,2
301,309,307,310,2
301,303,307,311,2
302,296,307,312,2
303,288,306,312,2
304,279,306,311,2
306,275,306,310,2
306,276,305,309,2
307,283,305,308,2
307,291,304,308,2
306,301,303,306,2
304,311,301,306,2
302,320,298,305,2
301,329,296,304,2
300,336,295,303,2
300,340,295,303,2
301,342,296,302,2
302,343,299,304,2
304,340,303,307,2
305,336,306,310,2
306,332,307,312,2
306,329,306,313,2
306,326,304,313,2
305,323,302,313,2
304,320,301,313,2
305,317,303,313,2
306,313,306,315,2
306,308,312,315,2
305,302,316,314,2
305,296,318,312,2
305,289,319,309,2
306,285,319,306,2
307,282,318,304,2
308,279,318,302,2
308,276,317,302,2
309,275,315,302,2
309,277,313,303,2
309,280,311,304,2
309,284,310,305,2
309,287,309,306,2
308,290,308,306,2
308,293,308,306,2
307,297,308,306,2
306,301,306,305,2
305,305,304,304,2
304,311,302,302,2
303,318,301,300,2
302,328,299,298,2
301,337,299,297,2
301,343,301,296,2
302,345,304,297,2
304,345,307,299,2
306,342,309,302,2
307,338,310,306,2
307,334,310,309,2
308,331,309,312,2
308,327,309,314,2
309,323,309,314,2
310,319,309,314,2
310,314,309,314,2
310,309,309,313,2
310,303,308,313,2
310,299,307,313,2
311,297,307,313,2
311,299,307,315,2
311,302,307,315,2
311,304,307,315,2
310,306,306,313,2
308,309,303,311,2
306,313,301,310,2
305,317,300,308,2
305,318,299,307,2
305,317,299,305,2
304,315,298,304,2
304,313,299,304,2
304,311,299,305,2
304,308,299,306,2
305,305,299,306,2
305,302,300,307,2
305,300,299,305,2
305,299,299,302,2
305,300,298,298,2
305,303,298,296,2
305,307,298,296,2
305,309,299,297,2
306,310,300,299,2
306,309,300,299,2
306,308,300,298,2
305,306,299,297,2
305,305,300,297,2
305,302,302,296,2
306,298,304,296,2
307,294,306,297,2
308,290,307,297,2
308,288,308,298,2
309,288,307,299,2
309,287,307,300,2
309,285,306,302,2
309,281,307,304,2
309,277,308,307,2
309,271,309,308,2
309,266,308,308,2
308,264,307,306,2
306,266,304,302,2
304,274,300,298,2
302,288,297,295,2
300,304,296,295,2
299,320,298,297,2
299,334,300,299,2
301,341,305,301,2
303,343,309,303,2
304,341,312,305,2
304,339,312,306,2
303,338,311,308,2
302,338,308,310,2
302,337,306,311,2
302,335,304,312,2
302,333,304,312,2
302,331,305,313,2
302,330,306,313,2
303,328,307,314,2
304,326,309,314,2
305,323,309,315,2
306,319,309,313,2
307,315,308,312,2
307,311,307,310,2
308,307,304,307,2
307,304,301,304,2
306,302,298,301,2
305,300,298,299,2
304,299,299,299,2
304,299,301,300,2
304,299,304,302,2
304,299,306,304,2
305,300,307,306,2
306,304,308,307,2
307,308,308,308,2
307,312,307,309,2
307,314,305,309,2
306,315,304,310,2
304,317,301,310,2
303,317,300,309,2
304,314,300,308,2
304,310,302,308,2
305,303,305,309,2
307,296,309,310,2
308,288,313,311,2
307,281,315,312,2
307,274,316,313,2
307,270,316,315,2
307,268,316,315,2
307,268,316,316,2
308,271,316,317,2
308,281,316,317,2
307,294,314,315,2
307,304,312,313,2
306,312,310,311,2
306,317,308,310,2
306,317,308,310,2
306,313,308,310,2
306,304,307,309,2
305,295,307,309,2
305,288,306,308,2
306,283,306,306,2
306,283,305,304,2
305,288,304,303,2
305,297,303,304,2
304,307,302,304,2
303,314,301,304,2
302,318,301,304,2
302,318,301,303,2
303,316,302,303,2
303,314,303,304,2
304,312,304,306,2
305,311,305,309,2
305,309,306,311,2
305,303,307,311,2
306,296,308,311,2
306,289,308,311,2
307,285,308,310,2
307,285,307,309,2
308,291,306,308,2
307,302,305,307,2
307,314,304,307,2
306,324,303,306,2
305,330,303,307,2
305,333,303,308,2
305,333,304,308,2
305,331,306,309,2
305,329,308,310,2
304,325,309,311,2
305,320,308,312,2
305,315,307,312,2
305,309,306,313,2
306,304,306,313,2
307,298,307,313,2
308,292,308,313,2
310,284,308,312,2
310,276,308,310,2
311,269,308,309,2
311,264,307,306,2
311,263,305,304,2
310,268,302,303,2
309,279,299,303,2
307,291,296,304,2
306,302,294,303,2
304,308,293,303,2
303,308,294,303,2
302,305,296,306,2
303,301,300,310,2
305,297,304,315,2
306,295,307,317,2
307,294,309,318,2
308,295,311,318,2
309,298,311,318,2
310,298,312,319,2
311,296,313,317,2
311,293,313,316,2
311,293,312,315,2
312,294,310,314,2
311,297,308,313,2
311,303,304,313,2
309,314,302,312,2
308,327,300,311,2
306,341,299,310,2
305,352,299,309,2
304,359,299,308,2
304,361,301,307,2
304,361,303,309,2
305,358,306,310,2
306,353,308,313,2
307,346,311,315,2
307,337,311,317,2
307,327,312,317,2
307,318,312,315,2
307,311,311,314,2
307,305,310,312,2
308,301,309,312,2
307,297,309,312,2
307,293,309,313,2
308,286,310,314,2
308,278,311,314,2
309,273,312,314,2
309,273,311,312,2
309,278,309,311,2
308,285,306,309,2
306,291,304,306,2
304,296,302,304,2
303,299,302,303,2
303,300,305,303,2
304,300,308,306,2
305,298,311,310,2
306,295,313,313,2
307,295,314,315,2
307,296,314,313,2
306,299,313,311,2
306,303,313,309,2
305,309,313,309,2
304,316,314,310,2
303,322,315,312,2
301,324,315,313,2
300,321,313,312,2
301,314,311,312,2
301,307,309,312,2
301,301,307,311,2
302,296,308,311,2
303,296,309,311,2
303,298,309,312,2
303,303,309,312,2
303,310,309,313,2
303,316,309,313,2
303,320,308,313,2
303,321,309,314,2
304,322,310,315,2
306,321,311,317,2
307,319,313,317,2
308,314,314,317,2
307,306,314,316,2
306,299,312,316,2
307,293,311,316,2
306,288,310,316,2
306,286,308,315,2
305,286,306,314,2
304,286,303,311,2
303,283,302,309,2
303,279,301,306,2
304,272,301,305,2
305,264,302,305,2
306,260,304,305,2
307,264,306,306,2
307,276,307,307,2
306,293,306,308,2
305,311,305,307,2
304,326,304,307,2
304,334,302,306,2
304,336,301,307,2
304,334,300,308,2
305,329,300,309,2
305,325,300,310,2
304,323,299,310,2
303,324,298,310,2
302,327,298,309,2
301,331,297,308,2
302,332,296,308,2
303,332,295,309,2
303,331,294,310,2
304,328,292,311,2
304,323,291,312,2
303,317,290,312,2
302,311,292,311,2
301,306,297,312,2
302,302,303,312,2
303,299,308,313,2
303,298,312,314,2
303,300,313,314,2
304,303,313,315,2
305,306,312,316,2
306,308,310,316,2
307,309,309,318,2
308,311,308,318,2
309,313,306,318,2
309,314,304,318,2
309,314,302,318,2
309,315,301,318,2
308,314,301,317,2
307,310,303,316,2
306,305,305,315,2
306,300,307,315,2
306,295,309,315,2
307,293,310,314,2
307,292,309,313,2
306,290,307,312,2
305,289,304,311,2
305,288,303,311,2
305,286,302,311,2
305,282,302,312,2
306,279,301,312,2
307,278,301,312,2
308,279,302,312,2
308,285,304,313,2
309,292,306,313,2
308,298,308,314,2
307,304,310,313,2
306,310,311,313,2
305,313,313,313,2
305,315,314,314,2
305,315,314,315,2
306,312,314,314,2
306,308,312,313,2
306,302,311,311,2
306,296,309,310,2
305,291,307,309,2
305,289,306,309,2
305,290,306,309,2
305,293,307,309,2
306,298,308,309,2
305,306,308,308,2
304,313,307,307,2
303,318,306,305,2
302,321,305,304,2
301,324,305,304,2
302,324,305,304,2
302,322,304,302,2
303,318,304,301,2
303,315,304,301,2
304,313,304,301,2
305,312,304,302,2
306,312,305,303,2
306,312,305,304,2
306,312,304,305,2
305,309,303,304,2
304,306,301,301,2
303,302,299,300,2
303,299,297,301,2
303,298,298,303,2
305,299,300,305,2
306,300,301,308,2
306,302,303,311,2
307,303,304,313,2
308,303,304,313,2
308,301,303,312,2
308,298,300,310,2
308,293,298,308,2
309,287,298,306,2
310,280,299,304,2
311,273,302,303,2
311,267,305,302,2
311,262,306,302,2
309,261,306,302,2
309,268,306,303,2
308,280,306,303,2
307,294,307,304,2
307,305,308,304,2
307,310,310,305,2
308,309,312,305,2
308,307,313,304,2
307,307,311,303,2
306,311,308,305,2
305,316,307,309,2
306,322,306,313,2
307,329,305,315,2
307,337,304,316,2
307,344,303,318,2
308,350,302,320,2
307,353,301,320,2
308,352,301,321,2
308,351,301,321,2
309,349,302,321,2
309,347,302,321,2
310,343,302,320,2
310,338,302,318,2
309,333,301,317,2
309,328,301,316,2
309,322,301,316,2
309,317,302,315,2
309,311,303,314,2
309,306,303,313,2
308,302,303,311,2
308,300,303,311,2
309,300,303,312,2
311,301,302,313,2
312,302,301,313,2
313,303,300,312,2
313,302,301,311,2
313,301,302,311,2
313,301,304,311,2
313,302,304,311,2
314,304,303,312,2
313,305,301,311,2
313,305,298,311,2
311,305,296,310,2
310,304,294,309,2
308,305,296,309,2
307,305,301,310,2
307,305,308,311,2
307,304,314,312,2
307,301,317,313,2
308,298,319,314,2
309,296,319,316,2
310,295,318,317,2
310,295,316,319,2
310,296,314,319,2
308,297,312,319,2
307,298,310,318,2
305,299,307,315,2
304,297,305,312,2
303,294,303,308,2
304,291,301,304,2
303,288,298,301,2
303,286,295,298,2
303,285,292,296,2
302,284,291,296,2
302,284,293,299,2
303,284,297,303,2
304,285,302,307,2
306,288,307,311,2
307,292,311,312,2
308,296,313,312,2
308,300,313,311,2
308,302,311,308,2
307,303,308,305,2
306,305,306,304,2
305,307,305,305,2
306,308,307,307,2
307,307,309,309,2
308,306,311,310,2
308,307,312,311,2
308,311,312,313,2
308,316,312,315,2
307,320,312,317,2
307,325,312,318,2
307,327,312,319,2
307,328,313,320,2
308,325,314,321,2
309,320,315,322,2
311,316,315,322,2
311,312,314,322,2
311,311,313,322,2
311,311,311,321,2
311,311,309,320,2
311,310,307,317,2
310,309,306,313,2
309,308,306,309,2
310,305,306,306,2
310,302,307,304,2
311,300,307,302,2
311,299,306,302,2
310,298,306,303,2
310,297,306,305,2
309,297,306,306,2
308,298,308,308,2
309,298,308,310,2
309,298,308,312,2
309,298,308,314,2
309,300,308,315,2
309,306,307,316,2
308,313,307,317,2
308,319,307,316,2
307,324,307,315,2
306,325,306,314,2
305,323,304,312,2
304,318,304,311,2
303,313,304,310,2
303,309,304,309,2
304,303,304,308,2
305,300,305,308,2
305,298,306,308,2
305,298,306,307,2
305,299,305,307,2
305,301,304,307,2
306,303,304,306,2
306,305,303,305,2
307,307,303,305,2
308,310,302,305,2
309,312,302,304,2
310,313,302,304,2
310,311,301,304,2
309,308,299,303,2
309,305,298,302,2
308,301,299,300,2
307,299,300,298,2
307,300,303,296,2
306,302,305,294,2
306,306,307,294,2
306,310,306,294,2
305,312,305,296,2
304,314,303,297,2
304,314,304,299,2
304,310,307,302,2
305,305,311,306,2
305,300,315,309,2
306,293,315,311,2
306,283,315,311,2
306,270,313,311,2
306,261,312,310,2
307,257,312,310,2
307,259,312,310,2
307,265,312,310,2
307,276,312,311,2
307,290,312,312,2
306,306,312,313,2
306,317,312,314,2
305,322,312,315,2
305,323,313,315,2
306,320,313,316,2
306,312,314,317,2
307,302,314,317,2
307,293,314,317,2
306,289,313,317,2
305,291,312,315,2
304,296,311,313,2
303,299,311,310,2
303,302,311,307,2
303,304,311,305,2
303,305,311,304,2
303,304,311,304,2
304,304,312,304,2
305,304,313,305,2
306,302,314,307,2
307,300,316,310,2
308,299,317,314,2
307,301,317,316,2
307,307,314,317,2
306,314,311,318,2
306,320,307,317,2
305,325,304,315,2
304,327,302,312,2
303,326,301,309,2
301,322,301,307,2
301,318,302,305,2
300,315,304,304,2
299,313,306,303,2
299,313,307,302,2
298,314,307,302,2
298,313,306,302,2
299,312,306,302,2
301,310,305,302,2
302,307,305,303,2
303,303,306,304,2
304,297,306,305,2
304,290,306,306,2
305,285,307,308,2
307,281,309,310,2
309,279,311,312,2
311,280,312,312,2
312,284,313,312,2
311,293,312,312,2
311,302,309,310,2
309,309,305,309,2
307,314,303,307,2
306,316,301,306,2
305,317,300,306,2
305,316,301,308,2
306,314,302,311,2
308,309,303,314,2
309,302,303,315,2
309,295,303,316,2
309,287,303,315,2
309,282,303,314,2
309,277,304,314,2
309,275,307,313,2
309,275,311,313,2
308,278,312,312,2
308,283,313,312,2
307,288,312,311,2
306,291,311,311,2
305,295,309,310,2
304,300,307,307,2
303,308,304,304,2
302,315,301,300,2
302,321,300,298,2
302,323,300,295,2
302,326,300,295,2
303,327,302,297,2
304,325,304,301,2
305,322,305,305,2
305,318,306,309,2
306,312,307,313,2
306,302,308,314,2
306,290,308,314,2
306,279,307,312,2
306,271,307,309,2
306,268,307,307,2
305,270,307,305,2
304,274,308,304,2
304,279,309,305,2
303,283,310,308,2
304,289,310,309,2
304,295,311,311,2
304,301,311,311,2
305,305,311,311,2
306,309,311,310,2
306,315,310,309,2
306,322,310,308,2
306,329,309,307,2
305,334,308,306,2
305,337,306,305,2
306,339,304,304,2
306,340,301,304,2
305,340,299,305,2
304,338,297,306,2
303,334,296,307,2
303,329,296,306,2
302,326,298,306,2
302,325,299,307,2
304,327,300,308,2
304,329,300,310,2
305,331,301,310,2
305,332,301,311,2
305,331,302,312,2
306,327,302,311,2
305,320,303,310,2
306,313,303,309,2
306,308,303,309,2
307,303,303,308,2
307,302,302,308,2
307,301,302,308,2
306,301,302,308,2
306,301,301,309,2
306,299,301,309,2
306,296,301,308,2
306,292,299,305,2
306,289,298,303,2
307,289,297,300,2
306,293,296,298,2
305,300,295,297,2
304,307,295,298,2
303,313,294,298,2
302,316,294,299,2
301,317,295,299,2
301,319,296,299,2
301,320,298,299,2
303,321,300,299,2
304,319,301,299,2
306,313,301,298,2
306,304,300,297,2
307,296,299,296,2
308,288,299,294,2
308,283,298,293,2
308,281,298,292,2
308,281,300,293,2
308,288,301,297,2
309,297,302,303,2
309,304,303,308,2
309,306,303,310,2
308,306,303,311,2
308,305,302,310,2
307,305,303,309,2
306,306,304,308,2
306,307,305,308,2
306,309,305,307,2
306,309,305,308,2
306,309,303,309,2
306,307,301,311,2
307,303,299,312,2
307,296,298,312,2
307,284,297,311,2
308,272,296,310,2
309,267,297,310,2
308,270,298,311,2
308,283,300,312,2
308,300,302,313,2
307,316,305,313,2
306,326,307,313,2
305,331,307,312,2
305,332,306,310,2
304,331,305,308,2
303,330,305,305,2
302,329,304,302,2
300,326,302,299,2
299,322,302,298,2
299,320,301,300,2
300,319,302,303,2
301,320,303,307,2
303,322,304,312,2
304,325,307,317,2
306,326,309,320,2
306,325,310,323,2
307,321,311,322,2
306,315,310,320,2
306,308,308,317,2
305,301,307,314,2
306,294,307,311,2
306,287,308,310,2
307,282,309,309,2
308,280,309,308,2
308,281,310,307,2
308,286,310,307,2
308,294,310,306,2
308,303,309,305,2
307,311,310,305,2
307,317,310,305,2
307,321,309,304,2
307,323,307,304,2
307,323,305,303,2
306,323,304,304,2
305,323,303,305,2
305,323,302,306,2
305,322,302,307,2
305,321,302,307,2
304,318,301,307,2
304,314,300,306,2
304,309,300,306,2
303,304,301,306,2
304,299,302,306,2
304,294,306,306,2
304,292,308,306,2
304,291,309,306,2
304,294,310,305,2
303,298,310,305,2
302,301,309,304,2
302,303,309,303,2
302,303,308,303,2
303,304,309,305,2
304,303,309,307,2
304,302,309,309,2
305,299,308,310,2
305,297,306,310,2
304,295,304,308,2
302,295,303,305,2
302,298,303,304,2
303,304,304,304,2
303,310,305,305,2
304,314,306,306,2
304,313,306,307,2
304,310,306,306,2
304,304,304,304,2
302,299,303,300,2
301,295,302,297,2
299,292,303,296,2
299,290,307,296,2
299,292,310,298,2
300,296,312,299,2
300,301,312,300,2
301,305,311,302,2
302,307,311,303,2
303,308,312,303,2
304,308,313,304,2
305,307,315,304,2
304,307,316,304,2
304,308,315,304,2
304,310,314,304,2
304,311,314,305,2
305,311,313,305,2
306,309,313,305,2
307,307,312,305,2
308,304,311,306,2
308,299,309,306,2
309,288,306,304,2
308,275,305,301,2
308,265,305,301,2
309,258,305,303,2
311,256,305,307,2
311,261,305,310,2
312,272,306,314,2
312,287,307,317,2
312,302,308,319,2
311,316,309,321,2
311,327,307,321,2
309,334,306,321,2
308,340,305,318,2
306,343,304,316,2
305,343,305,314,2
304,341,307,313,2
304,337,308,312,2
305,333,310,311,2
305,330,312,311,2
306,326,314,310,2
306,323,316,310,2
306,321,316,309,2
305,321,315,308,2
306,320,313,307,2
306,319,312,306,2
305,317,311,305,2
304,316,311,304,2
304,314,311,304,2
303,311,313,304,2
304,306,315,305,2
305,301,317,307,2
306,294,318,307,2
307,287,318,307,2
306,280,316,307,2
306,277,313,307,2
306,278,311,307,2
307,281,310,307,2
308,286,310,308,2
308,291,310,309,2
308,296,310,311,2
308,300,309,312,2
306,303,309,312,2
305,304,308,313,2
304,305,308,313,2
304,305,307,312,2
302,304,307,311,2
302,301,306,310,2
301,298,306,307,2
300,297,307,305,2
300,298,307,305,2
300,298,308,304,2
300,298,308,304,2
299,301,307,306,2
299,304,306,307,2
299,308,304,307,2
298,311,303,307,2
297,316,301,305,2
297,323,300,304,2
297,331,300,302,2
296,336,300,300,2
296,340,300,299,2
297,340,301,300,2
298,338,302,301,2
300,336,303,304,2
301,333,305,306,2
301,328,307,306,2
302,320,309,307,2
303,314,312,307,2
304,308,314,307,2
304,303,315,309,2
305,298,314,311,2
304,296,314,312,2
304,297,313,312,2
303,302,311,311,2
301,309,309,309,2
301,315,308,305,2
301,322,308,303,2
301,326,307,301,2
302,329,306,300,2
303,330,304,299,2
302,332,302,299,2
302,333,301,299,2
301,331,300,300,2
301,325,301,301,2
301,314,303,301,2
302,299,304,302,2
303,285,305,302,2
303,272,305,304,2
304,265,306,305,2
305,262,307,306,2
306,266,309,308,2
306,275,310,309,2
306,289,310,309,2
305,301,310,309,2
304,308,308,308,2
304,309,307,308,2
304,308,307,310,2
305,306,308,312,2
305,304,308,315,2
306,301,309,316,2
307,300,309,316,2
306,300,309,315,2
306,302,308,313,2
305,304,306,312,2
305,310,304,309,2
305,319,303,307,2
304,329,302,305,2
304,335,301,303,2
304,337,302,301,2
305,335,304,301,2
306,333,307,304,2
308,331,311,309,2
309,330,314,312,2
310,328,315,314,2
310,325,314,315,2
309,323,311,314,2
309,320,309,313,2
309,318,307,312,2
308,316,305,311,2
307,314,305,310,2
306,310,306,311,2
306,306,307,310,2
306,300,308,310,2
306,295,309,309,2
306,289,309,307,2
307,286,308,306,2
306,284,307,305,2
306,282,306,304,2
307,282,306,303,2
307,285,307,303,2
307,290,307,304,2
307,297,308,307,2
307,303,309,309,2
307,310,310,308,2
307,317,310,306,2
307,323,311,305,2
307,327,312,305,2
308,329,313,306,2
309,329,313,308,2
309,329,314,310,2
310,327,313,311,2
310,325,312,312,2
310,321,311,311,2
309,317,308,310,2
308,313,305,308,2
308,308,303,308,2
308,302,304,308,2
308,295,306,309,2
308,287,307,309,2
308,280,309,309,2
309,275,310,309,2
309,276,309,310,2
310,281,308,310,2
309,289,306,311,2
308,299,304,310,2
307,311,302,308,2
306,320,301,306,2
304,328,300,304,2
303,332,300,303,2
303,332,301,301,2
303,329,302,300,2
303,323,303,299,2
303,316,304,299,2
304,307,304,298,2
305,297,305,298,2
306,290,307,298,2
307,287,309,298,2
307,287,310,299,2
308,290,310,298,2
308,293,310,298,2
308,298,309,298,2
308,304,307,300,2
307,310,306,303,2
306,313,305,305,2
305,315,304,306,2
304,317,303,306,2
304,317,302,305,2
304,317,301,306,2
304,317,300,306,2
304,316,300,306,2
304,318,301,306,2
304,322,303,307,2
304,325,306,309,2
304,326,309,311,2
304,324,312,313,2
304,319,315,314,2
304,313,316,314,2
305,305,316,315,2
305,297,315,314,2
306,291,314,314,2
307,287,312,313,2
307,288,310,311,2
307,291,308,308,2
307,298,306,306,2
307,305,304,305,2
307,313,302,304,2
306,321,301,303,2
305,329,301,303,2
304,334,301,304,2
304,336,302,305,2
304,333,304,307,2
305,328,307,309,2
305,322,309,310,2
306,317,309,310,2
307,312,308,310,2
307,309,307,309,2
308,307,306,307,2
308,306,305,305,2
308,307,304,302,2
308,309,303,299,2
308,309,303,298,2
308,307,302,297,2
309,305,303,298,2
310,305,304,300,2
311,304,305,302,2
312,302,305,303,2
313,296,305,305,2
313,287,305,306,2
315,277,306,308,2
317,268,307,310,2
319,262,308,312,2
320,258,308,314,2
319,260,308,313,2
316,270,307,313,2
313,286,307,311,2
311,302,306,309,2
309,315,306,308,2
307,324,306,307,2
306,329,307,307,2
305,332,308,307,2
305,333,310,306,2
305,333,311,306,2
305,334,312,306,2
306,338,312,307,2
307,342,313,308,2
307,344,313,308,2
307,338,311,308,2
306,328,310,308,2
306,317,307,307,2
306,309,305,305,2
305,304,304,304,2
306,302,304,303,2
306,303,303,302,2
306,307,303,302,2
306,309,303,302,2
306,309,304,303,2
306,306,305,304,2
306,302,307,306,2
308,296,308,308,2
309,290,309,309,2
310,284,309,309,2
311,279,310,310,2
311,277,310,310,2
312,278,310,309,2
311,282,309,309,2
310,284,309,308,2
309,288,308,307,2
308,293,308,307,2
307,299,308,306,2
305,302,307,306,2
305,303,307,304,2
305,304,307,302,2
305,306,306,299,2
304,311,306,297,2
304,315,305,296,2
305,318,306,296,2
306,319,307,298,2
307,317,308,300,2
308,315,310,303,2
310,313,312,306,2
311,315,313,310,2
311,320,313,314,2
311,323,312,316,2
311,321,311,317,2
311,315,310,317,2
311,308,308,315,2
311,300,308,313,2
311,294,308,311,2
311,291,310,311,2
310,293,312,311,2
309,299,313,310,2
308,307,313,310,2
307,315,311,309,2
307,319,309,307,2
305,322,306,304,2
304,324,303,301,2
304,326,300,299,2
305,329,299,298,2
305,331,298,299,2
305,332,297,299,2
306,332,297,301,2
307,332,298,305,2
307,331,299,311,2
308,330,302,316,2
308,328,305,319,2
308,325,310,321,2
309,322,314,322,2
309,319,316,321,2
309,316,318,320,2
309,313,318,319,2
310,310,319,318,2
310,308,319,317,2
310,307,319,318,2
310,306,317,319,2
310,306,315,318,2
309,307,312,317,2
308,307,310,316,2
307,307,309,315,2
308,305,309,314,2
309,304,311,314,2
310,300,312,315,2
311,293,314,315,2
312,284,315,315,2
313,275,315,316,2
312,267,315,316,2
311,262,314,314,2
310,262,312,313,2
309,271,311,312,2
309,286,309,311,2
308,304,307,311,2
307,319,307,311,2
307,328,307,310,2
306,332,308,311,2
306,332,309,312,2
306,329,311,314,2
307,326,312,315,2
307,322,312,315,2
307,319,311,314,2
307,315,310,313,2
307,310,307,311,2
306,305,304,308,2
306,300,302,306,2
306,295,301,304,2
307,289,301,304,2
308,287,302,303,2
308,290,303,303,2
308,298,304,302,2
308,306,305,302,2
308,309,306,301,2
307,309,307,300,2
307,307,308,299,2
305,306,308,299,2
304,303,309,298,2
303,300,310,297,2
303,299,310,298,2
303,301,312,301,2
304,302,313,304,2
304,302,312,307,2
305,303,311,309,2
305,303,308,311,2
306,304,305,311,2
306,308,304,311,2
305,313,303,311,2
305,318,303,310,2
304,321,304,310,2
304,323,305,310,2
304,325,305,309,2
304,326,304,308,2
304,328,303,307,2
304,328,301,307,2
303,327,300,306,2
302,324,301,304,2
301,321,303,302,2
301,318,304,300,2
300,316,305,300,2
300,315,307,300,2
300,314,307,301,2
300,314,308,301,2
302,312,308,304,2
303,309,310,308,2
304,304,312,313,2
305,298,314,317,2
306,293,314,319,2
307,290,315,320,2
307,291,314,319,2
306,293,313,317,2
306,296,311,315,2
305,300,310,313,2
304,300,309,310,2
304,297,307,307,2
305,292,305,304,2
304,288,302,303,2
303,285,301,301,2
301,286,301,300,2
300,290,302,299,2
300,296,305,300,2
300,303,309,303,2
302,308,311,308,2
303,310,313,313,2
304,312,314,317,2
305,315,314,319,2
305,318,313,318,2
305,321,312,317,2
305,323,311,315,2
304,323,310,314,2
305,320,309,313,2
305,317,308,313,2
305,314,306,312,2
305,310,303,311,2
305,307,299,310,2
303,306,295,309,2
302,307,292,309,2
301,309,292,309,2
300,313,295,309,2
300,315,300,309,2
301,316,305,310,2
302,315,310,311,2
303,313,313,312,2
304,311,316,311,2
304,311,317,310,2
303,314,317,308,2
