306,348,305,297,0
306,342,306,299,0
306,338,306,301,0
307,337,305,304,0
307,339,305,308,0
308,343,307,313,0
309,342,308,316,0
309,333,309,316,0
309,320,311,315,0
310,307,312,315,0
311,294,313,315,0
313,285,314,315,0
314,279,313,316,0
313,274,313,316,0
312,270,312,316,0
310,269,312,315,0
308,273,311,313,0
307,284,310,311,0
307,295,310,308,0
307,305,308,306,0
307,313,307,304,0
307,318,306,304,0
307,317,305,304,0
307,311,305,305,0
307,304,305,306,0
307,296,306,308,0
307,290,306,309,0
307,287,304,309,0
307,288,302,310,0
307,292,299,311,0
307,298,296,311,0
307,308,295,312,0
306,320,295,313,0
306,332,295,313,0
307,340,295,313,0
307,344,294,312,0
307,342,292,308,0
307,331,288,303,0
305,317,286,297,0
303,307,286,290,0
303,302,291,288,0
304,303,298,289,0
305,313,306,293,0
308,331,313,299,0
311,349,319,307,0
314,361,322,314,0
315,361,321,317,0
314,345,317,317,0
312,319,313,316,0
309,294,311,315,0
308,277,312,316,0
308,270,313,317,0
307,270,314,317,0
306,275,315,318,0
306,284,316,318,0
305,294,317,319,0
305,301,317,320,0
303,305,316,320,0
302,303,315,319,0
302,295,314,318,0
302,288,313,316,0
302,288,311,315,0
302,292,309,314,0
302,299,307,313,0
302,304,305,312,0
302,309,304,312,0
302,310,304,311,0
301,310,303,310,0
300,309,303,309,0
300,308,303,307,0
299,307,303,304,0
299,306,302,302,0
299,307,300,299,0
299,305,299,297,0
300,302,297,295,0
301,297,297,294,0
301,293,296,293,0
301,290,296,294,0
303,289,297,296,0
304,290,297,299,0
307,297,298,302,0
309,308,297,305,0
311,322,296,306,0
312,334,296,307,0
310,339,298,308,0
307,335,303,308,0
304,326,309,308,0
301,318,314,308,0
300,314,317,308,0
301,312,316,309,0
302,311,313,310,0
304,308,310,311,0
305,306,308,311,0
307,307,306,310,0
308,311,306,310,0
308,315,306,311,0
308,316,306,310,0
307,313,305,310,0
306,311,305,309,0
306,312,305,309,0
306,319,305,309,0
308,328,308,310,0
309,332,310,312,0
310,321,312,313,0
309,299,313,314,0
308,277,312,316,0
307,265,311,317,0
307,264,309,318,0
306,269,307,318,0
304,274,305,317,0
302,280,302,315,0
300,286,299,313,0
299,290,299,311,0
299,294,301,309,0
300,296,304,308,0
300,298,307,306,0
301,298,309,306,0
302,298,310,306,0
303,300,309,306,0
305,305,306,306,0
306,309,302,305,0
306,311,298,305,0
305,312,296,304,0
303,311,296,305,0
302,311,297,305,0
300,309,298,306,0
299,309,299,306,0
298,312,299,307,0
297,317,299,308,0
297,324,300,310,0
298,330,302,312,0
299,333,304,315,0
301,333,306,316,0
301,329,306,315,0
301,324,305,313,0
301,318,303,311,0
301,312,302,309,0
302,307,302,309,0
303,303,302,309,0
304,298,303,311,0
304,292,303,311,0
304,287,302,311,0
303,286,301,310,0
303,290,301,310,0
302,298,301,310,0
302,307,303,310,0
301,315,304,310,0
300,318,305,311,0
300,317,305,310,0
301,314,305,309,0
302,311,305,307,0
303,311,305,306,0
305,314,306,307,0
308,323,307,308,0
311,341,308,310,0
313,366,308,311,0
313,390,306,312,0
313,406,305,313,0
312,408,305,313,0
312,392,305,311,0
311,366,306,310,0
310,341,306,309,0
309,321,305,309,0
308,309,304,309,0
309,305,303,309,0
308,307,302,309,0
308,309,300,309,0
307,308,297,310,0
306,301,295,310,0
305,292,293,310,0
304,281,293,311,0
303,270,294,311,0
302,262,298,311,0
302,257,301,309,0
302,257,303,307,0
304,261,305,306,0
305,266,305,305,0
306,272,305,305,0
306,278,305,306,0
307,284,305,306,0
307,290,304,306,0
307,295,303,306,0
305,296,301,305,0
304,296,300,305,0
304,294,299,305,0
304,291,298,305,0
305,290,298,307,0
306,289,298,308,0
306,291,298,308,0
307,293,296,308,0
306,294,294,308,0
307,297,291,308,0
307,302,290,310,0
307,308,291,311,0
308,313,293,313,0
308,318,296,314,0
307,321,299,314,0
306,325,302,314,0
306,326,304,314,0
305,323,305,313,0
305,320,306,312,0
306,317,305,312,0
307,318,305,313,0
308,321,306,315,0
309,323,306,317,0
309,324,306,320,0
309,323,307,321,0
308,318,307,321,0
309,310,306,319,0
308,303,304,317,0
307,297,302,315,0
306,294,299,314,0
306,295,298,314,0
305,298,298,315,0
305,301,298,315,0
305,305,298,315,0
306,308,299,315,0
307,313,300,315,0
307,318,301,315,0
308,325,301,315,0
308,333,302,314,0
308,343,303,312,0
308,352,304,310,0
309,358,305,309,0
309,356,306,307,0
309,344,306,307,0
309,325,306,307,0
310,304,306,308,0
310,290,306,308,0
309,285,304,308,0
308,286,303,309,0
307,293,302,310,0
307,302,302,311,0
307,312,302,313,0
308,321,303,314,0
309,324,303,315,0
308,322,304,316,0
307,314,303,317,0
305,300,302,316,0
303,286,300,314,0
302,277,300,312,0
301,270,300,311,0
301,267,300,310,0
301,266,300,310,0
302,266,299,310,0
303,268,299,309,0
304,272,299,309,0
305,279,299,310,0
306,288,299,312,0
306,297,299,314,0
307,304,299,315,0
308,305,299,317,0
309,298,300,317,0
309,283,300,316,0
309,272,299,315,0
307,268,298,313,0
305,273,296,312,0
303,281,295,312,0
302,292,294,312,0
301,303,292,313,0
301,310,290,314,0
302,313,288,315,0
303,314,287,315,0
305,314,287,315,0
307,318,288,314,0
309,328,290,313,0
309,341,292,313,0
308,351,292,313,0
305,355,291,313,0
302,354,291,313,0
301,350,292,314,0
301,344,294,316,0
299,336,293,317,0
298,329,292,318,0
296,322,292,318,0
295,317,294,318,0
295,315,296,317,0
296,317,298,317,0
298,321,300,317,0
299,327,301,317,0
300,332,301,318,0
302,336,301,318,0
303,338,300,319,0
305,338,298,320,0
306,335,297,320,0
307,328,296,320,0
306,317,294,319,0
304,304,293,319,0
303,291,291,318,0
302,279,289,317,0
301,270,287,314,0
300,264,283,310,0
300,259,281,308,0
301,258,282,306,0
301,262,285,306,0
302,267,289,308,0
303,270,293,310,0
305,271,297,311,0
307,272,300,312,0
308,274,300,313,0
310,277,301,315,0
312,286,301,319,0
313,302,300,323,0
313,319,300,325,0
313,332,301,326,0
312,342,304,325,0
311,350,307,324,0
311,356,310,322,0
310,354,310,319,0
308,341,307,316,0
306,324,303,312,0
304,310,301,309,0
303,303,300,307,0
302,302,300,307,0
301,303,301,306,0
299,303,301,306,0
298,305,300,306,0
298,309,299,306,0
299,312,298,305,0
299,316,296,306,0
300,320,296,308,0
303,325,297,309,0
306,331,298,311,0
309,336,300,313,0
310,339,303,314,0
310,338,305,315,0
310,329,308,313,0
309,311,310,312,0
308,294,311,311,0
308,286,312,311,0
307,290,313,312,0
306,297,312,314,0
306,303,309,314,0
305,307,307,314,0
304,307,305,313,0
303,304,303,312,0
303,302,303,310,0
303,305,302,308,0
302,310,301,306,0
302,315,300,305,0
303,316,299,304,0
303,309,299,303,0
303,300,297,302,0
304,293,294,302,0
305,290,290,301,0
305,287,286,301,0
306,284,285,301,0
305,277,286,302,0
305,271,288,301,0
304,268,288,300,0
303,272,287,297,0
302,279,285,294,0
302,287,284,291,0
302,297,285,290,0
303,308,287,290,0
303,320,291,292,0
302,329,295,294,0
302,331,298,296,0
302,328,301,299,0
303,323,301,302,0
305,322,300,304,0
306,328,297,304,0
307,335,291,304,0
306,338,284,301,0
304,335,278,298,0
302,330,273,295,0
299,321,274,292,0
298,312,280,292,0
300,304,290,295,0
302,300,302,301,0
303,296,311,307,0
304,290,317,310,0
304,287,320,313,0
304,290,320,313,0
304,297,319,313,0
303,308,318,310,0
304,319,316,308,0
303,332,313,307,0
304,344,310,306,0
304,351,306,306,0
305,352,303,306,0
306,348,301,307,0
305,339,301,306,0
304,330,301,305,0
302,324,302,303,0
301,325,302,301,0
300,329,301,300,0
299,334,300,299,0
299,333,299,300,0
298,324,299,302,0
299,309,300,307,0
300,294,303,311,0
301,283,306,314,0
303,281,309,315,0
305,285,312,316,0
306,296,313,316,0
307,305,313,315,0
308,310,312,313,0
308,311,311,312,0
309,306,310,313,0
311,298,309,313,0
312,291,310,314,0
314,286,310,315,0
313,281,310,314,0
311,280,309,314,0
308,284,308,315,0
306,290,306,315,0
303,298,305,315,0
301,304,305,315,0
300,308,304,314,0
300,313,304,314,0
301,316,303,313,0
303,320,303,312,0
305,326,303,311,0
307,329,301,310,0
308,323,298,309,0
307,309,297,308,0
306,296,296,308,0
306,289,295,308,0
306,288,295,309,0
307,288,296,309,0
308,288,298,310,0
310,296,299,311,0
312,313,301,313,0
313,333,301,314,0
312,347,301,313,0
309,352,299,313,0
306,344,299,313,0
303,325,299,312,0
301,303,300,312,0
300,286,301,311,0
298,275,302,311,0
298,268,303,311,0
299,265,304,311,0
300,267,304,310,0
301,273,303,310,0
302,281,302,311,0
302,288,301,313,0
303,292,301,314,0
303,294,302,315,0
304,293,302,316,0
306,293,303,316,0
308,296,304,316,0
310,301,305,314,0
310,305,304,312,0
308,309,303,310,0
306,312,302,308,0
305,311,301,306,0
304,310,301,305,0
305,308,301,305,0
306,302,299,306,0
307,294,299,307,0
308,286,300,309,0
308,280,300,310,0
307,276,300,309,0
305,277,299,308,0
303,284,296,307,0
302,294,292,304,0
300,304,286,301,0
299,311,282,297,0
298,314,278,293,0
297,314,276,290,0
297,311,276,289,0
297,306,281,291,0
297,304,288,296,0
299,301,293,301,0
299,298,295,304,0
300,294,293,306,0
300,291,290,306,0
300,290,289,305,0
300,291,290,304,0
301,294,293,305,0
303,297,299,308,0
306,297,305,313,0
309,292,310,318,0
312,282,313,322,0
315,274,313,325,0
317,266,312,326,0
317,261,310,326,0
315,262,309,325,0
313,275,310,324,0
312,297,311,324,0
309,320,311,325,0
307,337,310,325,0
305,347,309,324,0
303,352,308,323,0
302,355,307,323,0
302,357,306,322,0
303,359,305,322,0
304,362,305,323,0
305,368,305,325,0
306,374,306,326,0
306,375,307,325,0
307,370,309,324,0
307,356,310,321,0
307,330,310,318,0
306,301,309,314,0
306,276,308,312,0
307,261,307,310,0
308,255,306,308,0
307,255,305,307,0
305,259,305,306,0
303,268,306,306,0
302,280,307,307,0
301,293,307,309,0
302,307,308,312,0
304,321,309,316,0
305,335,309,319,0
306,348,308,321,0
307,358,307,321,0
307,362,305,319,0
306,355,304,316,0
305,341,302,313,0
304,324,301,311,0
303,308,301,310,0
303,294,300,310,0
303,283,300,310,0
304,277,301,310,0
305,275,301,310,0
306,275,301,310,0
306,278,299,310,0
307,284,298,311,0
309,291,297,311,0
311,295,297,313,0
313,294,298,313,0
315,290,297,315,0
316,291,297,316,0
316,299,298,317,0
314,308,299,317,0
311,318,300,315,0
308,332,299,313,0
306,353,297,312,0
305,373,294,310,0
304,382,291,306,0
304,373,291,303,0
303,350,291,300,0
301,320,293,300,0
300,292,297,300,0
300,273,302,302,0
302,263,307,306,0
303,259,311,311,0
304,261,314,314,0
306,266,316,318,0
307,272,318,320,0
308,276,317,321,0
309,276,316,320,0
310,274,314,318,0
309,271,312,316,0
309,268,310,315,0
309,267,308,315,0
309,269,306,314,0
309,274,304,313,0
308,280,302,312,0
306,287,300,311,0
304,296,297,311,0
301,303,295,309,0
300,303,295,308,0
298,300,295,307,0
298,299,294,307,0
298,301,292,307,0
299,305,290,308,0
299,305,289,308,0
299,301,289,308,0
299,297,292,308,0
299,297,296,308,0
301,306,301,308,0
303,322,305,307,0
305,340,307,307,0
307,354,308,305,0
308,358,308,303,0
307,349,307,302,0
305,334,306,303,0
304,322,305,305,0
303,315,305,307,0
303,314,306,309,0
303,315,308,311,0
305,318,310,313,0
306,321,313,315,0
308,320,316,317,0
310,318,319,318,0
312,315,321,320,0
314,315,322,321,0
316,322,322,322,0
317,339,320,324,0
317,357,318,323,0
315,370,315,322,0
313,370,312,318,0
309,354,308,313,0
305,327,304,308,0
302,299,301,304,0
299,278,299,302,0
297,268,298,301,0
297,267,297,302,0
297,273,298,304,0
299,280,297,305,0
299,284,295,304,0
299,284,291,303,0
298,282,288,301,0
298,280,288,299,0
297,278,292,299,0
299,278,299,301,0
301,279,307,305,0
303,281,312,310,0
305,284,315,315,0
307,290,317,319,0
308,297,317,321,0
309,302,316,321,0
308,306,314,321,0
307,309,312,320,0
307,310,310,318,0
307,313,308,316,0
308,318,306,314,0
309,324,304,314,0
310,333,304,314,0
311,336,305,314,0
311,328,306,314,0
310,313,308,313,0
309,301,309,312,0
308,295,311,312,0
307,292,310,312,0
307,291,310,312,0
307,289,308,311,0
307,287,306,312,0
306,288,305,313,0
305,288,304,313,0
304,289,305,313,0
303,288,305,313,0
302,289,305,313,0
302,289,305,313,0
303,290,306,314,0
303,289,305,314,0
304,290,304,314,0
304,292,303,313,0
304,297,301,311,0
305,304,299,310,0
306,314,297,309,0
306,324,296,308,0
306,332,297,309,0
306,335,298,308,0
305,335,301,308,0
305,334,302,307,0
305,338,304,308,0
306,348,305,309,0
307,361,306,310,0
308,372,305,311,0
309,377,305,312,0
309,369,305,313,0
308,348,305,313,0
306,323,305,312,0
304,301,305,311,0
301,284,306,309,0
300,269,306,307,0
299,257,306,305,0
299,249,305,304,0
300,242,305,303,0
301,241,305,304,0
303,247,307,306,0
305,260,307,307,0
306,278,306,309,0
306,294,306,309,0
307,305,305,309,0
307,307,304,307,0
308,305,304,306,0
309,305,307,307,0
311,310,309,310,0
312,316,310,311,0
310,319,308,310,0
307,321,305,309,0
304,326,303,307,0
301,332,302,306,0
299,338,302,307,0
298,343,302,308,0
298,342,303,309,0
299,332,304,309,0
300,314,303,309,0
301,297,303,309,0
302,286,303,309,0
303,284,302,310,0
304,289,303,311,0
306,299,303,310,0
307,306,303,308,0
305,305,303,305,0
303,295,304,303,0
302,282,306,302,0
301,273,307,302,0
301,270,307,303,0
302,275,307,304,0
303,288,307,306,0
304,304,308,310,0
305,321,308,313,0
307,335,308,314,0
308,346,307,315,0
308,356,307,314,0
308,361,306,313,0
307,358,306,313,0
306,346,305,312,0
304,331,305,312,0
303,315,304,311,0
301,298,302,309,0
299,284,300,308,0
298,275,299,309,0
298,271,300,310,0
300,272,301,313,0
302,279,302,315,0
304,291,304,317,0
306,308,307,318,0
306,321,309,319,0
305,324,310,318,0
305,318,310,318,0
304,308,309,316,0
302,297,307,314,0
301,287,306,312,0
300,281,305,309,0
299,279,305,307,0
300,280,305,306,0
300,282,306,306,0
300,286,307,306,0
301,289,308,306,0
300,292,309,306,0
300,294,309,306,0
301,296,310,306,0
302,299,309,306,0
303,302,309,307,0
303,304,309,308,0
302,305,309,308,0
301,306,308,307,0
301,308,307,307,0
300,310,306,306,0
300,311,304,305,0
300,308,302,303,0
302,302,302,300,0
303,295,302,297,0
303,289,303,295,0
304,287,304,294,0
304,287,307,295,0
303,290,309,296,0
304,297,310,298,0
303,308,310,300,0
304,320,309,302,0
305,329,309,303,0
306,335,309,305,0
307,336,307,307,0
307,333,305,308,0
307,329,304,309,0
307,325,304,309,0
307,322,304,310,0
307,325,304,310,0
308,336,304,312,0
309,349,302,314,0
309,356,301,314,0
307,352,299,313,0
305,336,296,310,0
303,318,295,308,0
301,304,295,306,0
300,298,296,305,0
300,298,296,304,0
300,301,298,303,0
301,298,299,303,0
302,290,301,303,0
304,282,302,303,0
306,279,303,302,0
307,280,304,301,0
307,281,304,300,0
306,282,305,299,0
305,280,306,298,0
304,274,307,298,0
305,271,307,298,0
305,275,308,301,0
306,286,309,305,0
307,299,310,309,0
307,310,311,313,0
307,316,312,315,0
308,316,312,315,0
309,312,312,314,0
310,309,311,313,0
309,308,310,311,0
308,310,310,310,0
308,317,309,309,0
310,327,308,309,0
311,339,308,309,0
312,347,307,309,0
312,345,307,308,0
311,330,306,305,0
310,308,307,304,0
309,289,307,303,0
310,281,308,303,0
311,284,309,304,0
312,292,309,306,0
311,301,307,306,0
310,310,306,306,0
310,318,305,306,0
310,321,306,306,0
309,319,306,305,0
308,314,305,303,0
307,309,303,301,0
306,308,301,299,0
306,312,300,298,0
307,318,301,299,0
308,324,301,300,0
308,322,301,300,0
307,317,301,301,0
307,313,301,302,0
307,312,303,304,0
307,312,304,305,0
307,310,305,305,0
306,305,306,305,0
306,301,308,305,0
306,301,310,305,0
308,306,311,306,0
309,311,311,305,0
309,313,309,305,0
308,314,308,306,0
308,314,307,306,0
308,311,306,305,0
308,311,306,304,0
309,317,306,303,0
310,325,306,302,0
311,332,306,302,0
312,336,305,302,0
313,331,305,302,0
312,317,304,301,0
310,298,303,300,0
308,283,302,298,0
306,274,302,296,0
305,272,302,296,0
303,273,302,297,0
302,274,299,297,0
301,275,297,297,0
301,277,295,295,0
302,281,295,293,0
304,286,298,294,0
306,292,302,296,0
309,294,307,300,0
311,290,310,303,0
313,283,312,306,0
314,275,313,307,0
315,269,312,308,0
315,270,311,308,0
315,276,311,308,0
314,284,312,308,0
312,294,313,309,0
311,304,313,311,0
310,311,313,311,0
310,310,312,311,0
309,301,310,311,0
308,290,308,311,0
308,281,308,311,0
310,276,307,311,0
312,277,306,311,0
315,285,304,311,0
316,299,301,311,0
316,313,296,308,0
314,328,291,305,0
312,346,287,303,0
310,366,287,303,0
308,380,289,304,0
305,380,293,305,0
302,364,298,305,0
298,341,302,305,0
297,319,306,306,0
297,301,309,306,0
298,289,310,307,0
298,285,310,308,0
299,285,308,310,0
299,289,306,312,0
300,294,306,315,0
301,298,307,318,0
303,299,308,320,0
304,295,310,321,0
306,289,311,322,0
307,285,312,322,0
309,284,311,322,0
311,285,310,321,0
312,290,309,320,0
312,297,309,319,0
311,302,309,318,0
310,304,310,315,0
308,299,309,311,0
307,292,309,308,0
306,287,308,304,0
305,286,306,302,0
304,288,305,300,0
303,293,305,300,0
303,296,307,300,0
303,299,309,301,0
303,299,311,304,0
303,298,311,307,0
303,294,313,310,0
303,288,313,313,0
305,283,313,314,0
306,279,311,314,0
306,277,309,312,0
306,278,307,311,0
306,284,305,309,0
306,290,303,308,0
307,295,302,308,0
308,300,303,308,0
309,305,303,309,0
310,310,304,310,0
310,317,304,311,0
310,324,302,312,0
309,332,300,312,0
308,343,299,312,0
308,354,300,311,0
308,360,302,311,0
309,356,305,311,0
310,344,307,310,0
311,334,308,310,0
313,328,309,310,0
314,324,308,309,0
315,319,305,306,0
315,312,303,304,0
315,309,300,301,0
315,309,298,299,0
315,314,297,298,0
314,321,296,298,0
313,329,299,299,0
311,330,306,302,0
309,319,314,305,0
307,302,320,308,0
305,287,322,309,0
303,279,322,309,0
301,278,320,309,0
300,283,316,309,0
300,292,313,309,0
300,299,310,310,0
301,304,307,309,0
302,306,306,308,0
304,304,305,308,0
306,301,304,308,0
308,298,304,308,0
310,293,304,308,0
311,284,305,307,0
312,275,303,306,0
311,271,298,304,0
310,272,290,301,0
308,276,280,298,0
306,282,271,295,0
302,288,266,293,0
299,289,265,291,0
297,286,269,292,0
297,284,279,295,0
298,285,292,301,0
300,293,305,307,0
302,302,314,312,0
303,311,319,314,0
304,316,320,314,0
304,320,319,313,0
304,326,317,312,0
304,334,314,310,0
305,343,311,308,0
307,350,310,307,0
308,352,310,308,0
308,344,311,308,0
308,327,312,310,0
308,308,312,310,0
307,292,310,310,0
305,282,308,308,0
304,276,307,307,0
303,273,307,305,0
303,273,306,303,0
304,275,307,302,0
305,279,308,302,0
307,284,310,303,0
308,289,312,305,0
311,296,313,308,0
312,304,313,310,0
312,314,312,311,0
309,322,310,311,0
305,327,308,310,0
302,330,308,310,0
301,334,308,310,0
301,337,309,310,0
301,335,309,310,0
302,328,309,311,0
304,325,310,312,0
305,322,309,312,0
305,319,308,312,0
305,314,307,311,0
306,306,307,310,0
307,294,306,310,0
308,278,307,310,0
310,261,307,310,0
312,249,308,312,0
314,247,308,314,0
316,253,309,317,0
317,267,310,319,0
318,285,311,320,0
316,305,311,319,0
313,326,311,316,0
310,344,310,313,0
308,357,310,310,0
306,357,309,307,0
305,344,306,304,0
304,323,303,303,0
304,305,302,304,0
306,293,302,304,0
307,288,304,305,0
307,286,305,304,0
305,287,306,303,0
305,294,307,303,0
305,310,308,305,0
307,329,310,306,0
308,344,312,308,0
309,351,313,310,0
308,345,312,310,0
308,330,312,310,0
306,314,312,310,0
304,300,310,309,0
302,292,309,309,0
301,288,308,309,0
301,290,307,310,0
301,298,306,312,0
301,309,304,313,0
302,316,303,314,0
302,318,301,314,0
302,318,299,314,0
301,317,300,312,0
302,318,303,310,0
302,321,308,309,0
304,326,312,308,0
305,333,314,308,0
307,335,316,310,0
309,335,316,312,0
310,336,314,313,0
311,337,312,313,0
311,336,308,313,0
310,335,303,312,0
309,330,300,312,0
307,319,300,311,0
306,300,302,312,0
304,285,305,313,0
304,279,306,313,0
303,283,306,313,0
302,292,304,312,0
301,302,302,309,0
301,310,299,306,0
301,317,298,304,0
299,320,298,302,0
298,317,299,300,0
296,314,302,300,0
296,313,306,300,0
297,314,309,301,0
299,317,312,303,0
302,320,312,308,0
305,323,310,313,0
306,321,309,316,0
307,310,308,318,0
307,296,309,319,0
307,282,309,318,0
306,272,309,316,0
306,270,308,315,0
306,275,308,314,0
305,285,308,314,0
305,297,309,313,0
305,310,311,313,0
307,323,312,313,0
308,333,312,313,0
309,337,311,313,0
310,336,310,312,0
310,331,310,312,0
308,327,310,312,0
307,324,311,312,0
307,324,312,313,0
307,325,313,314,0
308,324,314,315,0
309,318,314,315,0
309,308,315,314,0
309,298,314,313,0
307,287,314,313,0
305,274,313,313,0
304,259,313,312,0
304,247,312,312,0
304,241,310,313,0
306,243,309,313,0
307,251,309,312,0
307,267,308,311,0
307,285,308,310,0
306,296,308,308,0
305,301,307,307,0
304,303,307,305,0
304,305,307,304,0
304,307,306,303,0
305,310,305,304,0
306,314,303,306,0
307,317,302,307,0
308,318,301,309,0
310,319,302,310,0
311,321,303,310,0
311,324,304,311,0
311,325,305,310,0
311,325,305,310,0
310,321,305,308,0
308,316,307,306,0
307,310,309,304,0
306,304,310,302,0
305,301,311,302,0
306,299,312,303,0
307,296,312,304,0
308,295,310,306,0
309,295,309,306,0
310,298,309,308,0
310,305,309,310,0
309,314,308,312,0
307,321,307,313,0
306,325,308,313,0
306,328,309,312,0
307,330,309,312,0
307,332,308,311,0
308,333,308,312,0
309,332,307,311,0
310,326,307,311,0
311,316,307,311,0
312,312,308,311,0
314,318,308,313,0
316,329,309,314,0
316,337,308,314,0
316,339,306,312,0
315,332,304,309,0
313,320,303,307,0
312,312,303,305,0
312,310,304,305,0
312,311,305,306,0
311,312,306,308,0
310,307,305,310,0
308,300,303,310,0
306,294,301,311,0
305,289,299,311,0
304,285,298,310,0
304,282,299,307,0
303,284,302,305,0
302,291,305,304,0
302,302,309,303,0
302,311,311,303,0
303,317,311,302,0
303,324,309,302,0
303,331,306,303,0
303,330,303,304,0
301,322,302,303,0
300,311,302,304,0
300,302,304,308,0
301,297,306,311,0
303,296,308,313,0
304,297,309,314,0
305,298,307,315,0
306,300,304,314,0
306,302,301,313,0
307,302,299,313,0
308,296,300,312,0
310,283,302,310,0
310,265,303,308,0
310,252,302,306,0
311,245,301,305,0
310,248,299,303,0
310,258,297,303,0
308,276,294,303,0
305,299,292,304,0
303,319,295,304,0
302,328,299,305,0
301,326,303,308,0
301,319,307,311,0
302,315,309,313,0
304,317,310,315,0
305,324,310,317,0
306,334,309,317,0
307,342,308,316,0
308,343,307,315,0
308,336,308,314,0
308,321,310,312,0
308,308,312,311,0
307,302,314,309,0
305,303,314,308,0
304,310,314,308,0
304,324,313,307,0
304,340,311,308,0
305,355,310,309,0
306,365,309,310,0
307,369,309,311,0
308,365,308,309,0
307,354,308,308,0
307,338,308,307,0
306,319,308,306,0
304,299,307,306,0
303,280,307,307,0
303,268,309,309,0
303,264,311,310,0
303,266,312,311,0
304,275,313,312,0
306,288,314,312,0
306,297,314,311,0
305,301,313,310,0
303,302,312,309,0
302,301,310,308,0
302,299,310,306,0
302,294,310,304,0
302,289,310,302,0
303,285,310,301,0
303,282,310,300,0
304,280,311,302,0
305,280,312,303,0
306,279,313,304,0
306,279,313,305,0
307,278,311,307,0
309,279,310,309,0
311,287,309,311,0
312,302,308,314,0
312,322,307,316,0
312,336,305,317,0
311,340,306,317,0
310,336,307,314,0
308,329,309,311,0
307,323,311,306,0
306,319,311,303,0
306,317,311,300,0
305,315,310,299,0
303,314,308,298,0
302,313,307,299,0
302,313,306,299,0
301,314,305,300,0
301,315,306,301,0
302,317,306,301,0
303,319,306,301,0
304,323,304,301,0
306,327,302,302,0
308,329,303,303,0
309,324,304,304,0
310,312,306,305,0
310,297,309,306,0
310,286,311,307,0
310,281,313,308,0
310,284,314,309,0
309,293,313,309,0
309,306,312,309,0
310,319,311,309,0
310,327,310,310,0
311,327,309,310,0
310,320,309,310,0
310,310,310,311,0
309,302,312,312,0
309,297,315,313,0
310,296,318,313,0
310,298,320,314,0
310,303,319,315,0
310,309,317,315,0
310,315,315,315,0
310,323,314,313,0
311,331,314,310,0
311,334,314,309,0
310,333,312,308,0
308,326,311,307,0
306,312,310,306,0
305,295,310,305,0
304,280,309,304,0
304,271,310,303,0
305,269,310,302,0
304,269,309,300,0
303,272,306,298,0
300,279,303,296,0
299,288,299,294,0
297,294,297,293,0
297,297,298,293,0
298,296,301,295,0
299,294,306,298,0
300,294,311,300,0
302,299,314,302,0
303,303,315,304,0
303,304,314,304,0
302,302,313,304,0
302,299,311,304,0
302,298,311,305,0
303,299,309,306,0
303,302,305,307,0
302,305,302,309,0
302,308,301,311,0
302,314,301,312,0
304,326,304,313,0
305,346,307,314,0
307,367,310,314,0
306,378,310,313,0
305,372,309,311,0
303,353,308,310,0
303,329,308,310,0
303,310,308,311,0
304,302,309,312,0
305,305,310,313,0
306,314,310,313,0
308,327,310,313,0
309,335,310,312,0
309,330,310,310,0
308,313,310,309,0
306,292,310,307,0
305,274,309,304,0
304,263,308,302,0
302,257,306,300,0
302,257,304,299,0
301,260,302,299,0
301,266,302,298,0
300,271,302,297,0
301,277,302,296,0
301,282,301,295,0
301,288,301,295,0
303,291,301,297,0
305,293,301,299,0
307,293,302,302,0
310,292,305,305,0
311,290,308,308,0
312,287,312,310,0
313,284,315,311,0
314,284,317,311,0
314,285,318,311,0
313,285,317,309,0
311,285,316,306,0
308,292,314,303,0
306,306,313,300,0
305,324,311,299,0
305,341,310,299,0
305,348,310,300,0
305,345,309,299,0
305,335,309,298,0
305,325,310,298,0
305,315,311,299,0
306,307,312,301,0
307,297,312,304,0
308,291,312,306,0
310,290,311,309,0
311,295,309,312,0
311,302,306,313,0
311,309,304,313,0
310,315,302,313,0
308,317,302,311,0
305,317,303,309,0
302,321,307,306,0
301,334,313,305,0
300,352,317,304,0
300,368,320,304,0
302,373,321,305,0
303,366,321,307,0
304,348,320,310,0
304,324,318,312,0
303,302,315,314,0
302,288,313,315,0
302,278,312,316,0
302,272,311,315,0
301,269,310,313,0
302,270,309,311,0
302,275,307,309,0
303,283,306,307,0
305,292,307,304,0
307,299,309,302,0
309,299,312,301,0
312,293,314,302,0
314,285,315,304,0
315,279,315,305,0
314,281,315,307,0
311,291,312,309,0
307,306,310,310,0
305,322,309,312,0
303,335,309,312,0
302,339,310,312,0
301,334,310,311,0
299,323,311,311,0
299,308,312,310,0
298,294,313,310,0
298,283,314,310,0
298,275,313,309,0
299,269,313,309,0
299,264,313,308,0
300,256,313,307,0
301,247,314,306,0
302,241,314,305,0
302,242,314,305,0
303,251,315,306,0
304,265,315,308,0
304,284,315,309,0
304,305,314,311,0
304,326,313,311,0
304,340,311,309,0
301,347,310,306,0
299,344,309,303,0
297,335,308,300,0
296,324,308,298,0
296,317,307,298,0
297,315,306,299,0
297,315,304,299,0
298,316,303,299,0
300,316,302,300,0
301,314,304,301,0
301,312,306,301,0
300,314,309,302,0
300,321,313,303,0
300,329,316,304,0
300,336,317,305,0
302,336,315,306,0
302,326,312,305,0
303,312,308,303,0
302,298,304,299,0
302,290,301,297,0
301,291,301,295,0
301,299,302,295,0
300,311,304,297,0
300,324,308,300,0
300,336,311,303,0
301,340,313,304,0
302,334,314,305,0
302,322,315,305,0
302,308,314,305,0
301,297,313,304,0
301,290,313,304,0
302,289,312,304,0
303,292,312,305,0
304,295,311,306,0
304,294,310,306,0
305,291,309,306,0
305,288,308,306,0
306,287,307,305,0
308,288,305,304,0
309,289,304,303,0
309,292,301,301,0
307,296,300,299,0
304,300,301,298,0
302,306,304,297,0
302,312,308,299,0
302,314,312,300,0
303,310,315,302,0
303,304,317,304,0
304,301,318,306,0
306,301,317,308,0
307,304,317,309,0
307,310,317,310,0
307,318,316,310,0
307,324,315,309,0
307,321,312,307,0
306,313,308,303,0
305,303,303,300,0
304,294,299,299,0
302,285,296,297,0
301,280,294,297,0
301,282,295,298,0
302,290,297,300,0
303,302,300,302,0
304,316,303,303,0
306,327,307,304,0
308,336,311,305,0
309,344,312,307,0
310,348,311,308,0
310,346,310,309,0
309,338,310,309,0
309,325,310,310,0
308,305,310,311,0
308,282,310,310,0
308,263,311,309,0
309,253,312,307,0
309,252,313,305,0
309,256,313,303,0
308,262,313,302,0
308,268,313,301,0
308,275,313,300,0
309,283,313,300,0
309,289,313,299,0
308,296,313,298,0
308,301,314,298,0
310,305,315,299,0
310,309,314,301,0
308,311,311,301,0
306,310,306,301,0
305,307,303,301,0
305,305,302,301,0
306,302,301,301,0
306,301,302,302,0
306,300,303,303,0
306,302,307,305,0
307,304,313,307,0
308,303,318,308,0
308,301,320,308,0
308,296,321,307,0
308,294,320,307,0
307,296,318,307,0
306,301,316,307,0
305,308,314,308,0
305,316,313,308,0
305,322,312,309,0
305,325,311,309,0
306,325,310,309,0
308,324,310,309,0
310,326,310,309,0
311,329,311,311,0
311,329,312,312,0
311,324,312,312,0
311,314,311,313,0
313,304,311,312,0
314,302,310,310,0
315,306,308,307,0
314,316,307,304,0
312,326,305,301,0
309,326,305,297,0
305,319,305,294,0
303,310,307,293,0
303,304,309,294,0
304,301,311,298,0
304,299,311,302,0
305,298,310,305,0
306,299,310,308,0
306,302,309,310,0
308,311,307,310,0
310,324,305,311,0
312,338,304,312,0
313,351,303,312,0
313,358,303,313,0
313,360,303,313,0
312,354,303,313,0
311,339,304,314,0
310,318,304,313,0
308,297,305,311,0
306,283,307,311,0
305,276,310,311,0
304,276,314,311,0
304,279,317,312,0
305,285,318,313,0
306,291,318,313,0
307,297,316,313,0
307,302,313,313,0
308,304,309,311,0
308,305,306,310,0
307,301,305,306,0
306,293,306,303,0
304,284,306,300,0
303,278,307,299,0
303,272,307,300,0
303,268,308,301,0
305,267,309,304,0
306,271,311,307,0
308,280,312,310,0
308,289,313,311,0
309,300,315,313,0
311,310,317,315,0
313,320,319,316,0
314,326,320,315,0
314,329,318,313,0
313,330,316,310,0
311,329,313,307,0
308,322,310,304,0
305,309,308,302,0
303,297,306,301,0
303,288,305,302,0
303,288,304,303,0
304,295,304,304,0
305,306,306,306,0
306,316,309,307,0
307,324,311,308,0
308,329,312,308,0
308,325,312,308,0
308,316,314,308,0
309,305,317,308,0
311,297,319,308,0
313,291,321,308,0
314,288,321,309,0
314,288,321,309,0
314,290,319,309,0
312,293,318,308,0
309,299,315,306,0
307,307,313,306,0
305,318,312,305,0
306,333,311,305,0
306,347,312,306,0
307,352,312,306,0
308,347,312,305,0
309,333,312,305,0
309,318,311,304,0
308,305,310,303,0
306,295,308,301,0
306,290,307,300,0
305,291,306,300,0
305,295,305,301,0
305,298,304,302,0
305,297,304,303,0
306,296,305,303,0
306,295,306,304,0
307,296,306,303,0
308,300,307,303,0
308,302,308,303,0
308,301,310,303,0
309,301,311,304,0
310,304,312,305,0
311,306,313,306,0
311,308,313,307,0
310,308,312,308,0
308,305,308,308,0
305,298,303,306,0
303,292,298,304,0
302,289,295,305,0
302,289,295,305,0
303,290,296,306,0
304,291,299,307,0
306,291,302,308,0
308,290,306,308,0
310,291,309,308,0
313,305,313,308,0
314,334,315,309,0
314,365,315,310,0
313,391,314,310,0
312,399,313,310,0
310,384,309,308,0
307,351,305,306,0
306,317,301,303,0
305,290,299,302,0
306,272,298,301,0
307,261,300,300,0
308,256,303,299,0
308,257,307,300,0
309,265,312,304,0
309,277,316,308,0
310,287,319,311,0
310,296,319,313,0
309,303,317,315,0
308,309,314,315,0
307,311,314,315,0
306,311,316,314,0
306,313,318,313,0
307,316,320,312,0
309,322,319,310,0
311,331,317,310,0
313,339,314,310,0
315,340,310,310,0
315,333,306,307,0
315,320,302,304,0
312,307,299,300,0
310,298,298,297,0
307,293,299,296,0
305,292,302,296,0
304,291,306,299,0
305,291,311,301,0
305,292,315,303,0
305,295,318,304,0
305,297,319,305,0
304,298,318,305,0
304,300,316,305,0
304,302,315,304,0
305,306,314,304,0
305,313,312,304,0
306,321,311,306,0
307,326,311,307,0
307,330,311,307,0
307,334,311,307,0
306,336,311,306,0
305,330,310,305,0
305,319,310,304,0
305,305,310,304,0
305,292,310,304,0
305,281,311,304,0
306,275,311,304,0
307,273,311,304,0
309,275,312,304,0
311,280,312,304,0
313,287,313,305,0
314,293,314,306,0
314,301,313,307,0
312,309,311,306,0
310,318,309,305,0
308,323,308,305,0
306,323,309,305,0
306,316,309,304,0
306,307,309,305,0
306,298,307,306,0
305,293,306,307,0
306,293,304,308,0
306,297,303,309,0
307,306,300,310,0
307,316,299,310,0
307,319,299,309,0
306,316,301,307,0
305,310,303,305,0
305,305,304,304,0
305,300,304,302,0
305,292,302,298,0
304,285,301,296,0
304,281,301,295,0
304,279,303,296,0
305,280,306,298,0
307,286,309,299,0
309,297,311,301,0
311,315,313,303,0
313,333,313,305,0
314,344,312,306,0
313,346,310,306,0
313,344,307,306,0
312,339,305,306,0
312,329,304,306,0
311,315,306,307,0
310,304,312,309,0
310,299,319,311,0
311,300,324,313,0
312,302,327,314,0
313,304,327,313,0
312,304,325,310,0
310,303,321,306,0
308,300,316,303,0
306,303,312,300,0
305,310,309,299,0
305,317,306,297,0
305,320,305,295,0
305,319,307,295,0
305,312,311,298,0
307,301,316,302,0
310,295,319,307,0
312,301,321,311,0
314,315,321,313,0
314,333,320,315,0
314,350,319,316,0
313,359,317,317,0
311,355,317,317,0
308,342,316,315,0
305,325,315,314,0
303,305,314,313,0
303,287,313,312,0
303,272,312,312,0
304,263,311,311,0
305,259,309,311,0
306,257,307,310,0
306,255,305,309,0
307,255,304,308,0
307,257,304,306,0
307,262,304,304,0
306,271,305,302,0
306,281,307,302,0
307,290,309,302,0
307,298,310,302,0
307,306,309,302,0
306,313,308,302,0
305,318,307,303,0
303,322,307,302,0
303,325,307,302,0
302,327,308,301,0
302,328,307,300,0
302,327,306,300,0
302,323,305,300,0
303,319,306,301,0
305,318,308,302,0
306,316,310,303,0
306,314,311,303,0
307,310,312,304,0
307,308,312,304,0
308,311,310,306,0
309,317,309,307,0
309,326,308,309,0
308,333,307,310,0
308,335,307,311,0
307,331,306,311,0
306,323,306,310,0
306,314,306,310,0
306,306,307,310,0
307,302,307,311,0
308,301,308,311,0
310,301,308,312,0
312,303,308,311,0
312,301,308,311,0
310,294,306,309,0
308,288,306,308,0
307,287,307,307,0
307,287,309,307,0
307,291,309,306,0
308,298,309,306,0
310,313,309,306,0
312,332,307,307,0
314,353,306,309,0
315,368,307,310,0
313,372,308,310,0
310,367,310,310,0
308,360,311,310,0
307,354,310,310,0
308,351,309,311,0
310,344,308,311,0
311,333,305,312,0
311,317,303,313,0
310,301,302,313,0
308,288,303,312,0
306,280,305,310,0
304,282,308,309,0
302,290,310,308,0
300,296,311,307,0
298,290,310,305,0
297,275,309,304,0
296,262,307,305,0
296,255,307,306,0
296,257,307,308,0
298,266,307,309,0
299,276,308,309,0
299,282,308,308,0
300,287,309,306,0
301,292,310,305,0
301,296,309,304,0
300,296,307,304,0
298,294,307,304,0
298,292,307,306,0
298,291,307,308,0
300,291,308,311,0
301,289,308,313,0
300,289,308,313,0
298,291,309,314,0
296,292,310,314,0
295,291,310,313,0
294,291,310,311,0
294,295,309,310,0
296,308,309,309,0
299,329,308,310,0
302,353,308,311,0
305,369,309,312,0
307,371,309,312,0
309,365,311,312,0
310,355,312,312,0
310,344,312,311,0
310,337,312,311,0
309,329,310,310,0
308,316,309,310,0
308,300,309,311,0
308,283,309,310,0
307,265,308,308,0
305,249,306,305,0
303,240,305,303,0
300,240,305,300,0
298,250,304,299,0
297,262,302,299,0
295,274,302,298,0
295,284,301,298,0
295,297,301,298,0
296,312,302,298,0
297,325,303,299,0
298,334,305,299,0
300,337,308,299,0
303,339,311,300,0
305,340,312,300,0
305,341,312,301,0
305,338,310,302,0
305,330,309,304,0
305,321,309,305,0
305,312,310,306,0
304,306,310,306,0
303,304,311,307,0
302,303,312,308,0
300,300,312,307,0
300,297,311,306,0
300,295,311,305,0
300,294,310,303,0
301,294,309,302,0
300,294,306,301,0
299,291,303,298,0
296,285,300,297,0
295,280,298,296,0
295,277,298,296,0
296,277,299,298,0
298,280,301,300,0
299,284,304,301,0
300,289,305,302,0
301,294,305,303,0
302,296,304,304,0
303,296,303,305,0
304,294,301,305,0
304,291,300,305,0
304,287,301,305,0
304,281,305,307,0
304,278,312,309,0
305,278,316,311,0
306,287,317,311,0
309,305,316,311,0
310,324,315,310,0
310,340,313,307,0
308,348,311,306,0
305,347,307,305,0
302,342,303,305,0
300,336,301,306,0
298,330,302,306,0
297,325,305,307,0
298,325,309,307,0
299,332,313,308,0
302,341,315,308,0
303,347,315,308,0
302,349,312,306,0
301,349,309,305,0
301,343,308,304,0
301,332,309,302,0
300,322,310,302,0
300,317,311,301,0
300,317,312,302,0
300,315,313,302,0
299,306,313,303,0
299,292,313,304,0
300,278,313,305,0
300,271,313,306,0
301,273,311,308,0
301,284,310,310,0
302,301,309,312,0
303,319,308,314,0
304,334,308,315,0
305,340,307,314,0
306,336,305,312,0
306,327,304,311,0
305,313,305,309,0
304,300,308,309,0
303,289,312,309,0
303,283,313,309,0
302,282,313,308,0
302,284,313,307,0
303,289,312,306,0
303,292,311,306,0
302,290,311,306,0
303,285,311,307,0
305,280,312,307,0
307,274,312,307,0
308,273,313,308,0
310,278,314,308,0
312,290,314,308,0
312,307,313,308,0
310,326,311,306,0
306,342,309,304,0
302,350,308,301,0
299,351,306,299,0
298,346,305,297,0
298,335,304,295,0
298,322,303,294,0
298,312,302,294,0
298,308,302,295,0
298,306,302,296,0
298,304,303,296,0
298,302,303,296,0
297,301,304,297,0
298,301,304,297,0
299,302,305,298,0
300,303,307,299,0
302,305,307,301,0
303,309,308,302,0
305,317,307,303,0
305,329,305,303,0
306,341,304,304,0
307,350,303,306,0
308,350,302,306,0
309,337,301,306,0
310,317,299,305,0
309,298,297,303,0
309,288,296,302,0
308,287,296,300,0
308,291,296,299,0
307,299,297,298,0
307,307,297,297,0
306,314,297,296,0
306,316,295,295,0
305,314,295,295,0
304,309,297,296,0
304,305,299,298,0
304,304,303,301,0
305,305,305,304,0
305,304,304,306,0
306,299,303,307,0
306,294,302,307,0
306,290,302,306,0
304,287,304,305,0
303,286,307,303,0
301,285,309,301,0
302,287,312,300,0
303,290,314,300,0
305,294,316,302,0
307,299,317,304,0
309,306,317,305,0
309,314,315,307,0
308,320,311,308,0
306,322,307,309,0
304,320,304,308,0
302,314,301,307,0
301,309,299,305,0
299,307,297,304,0
298,308,298,302,0
297,311,300,301,0
296,314,303,300,0
297,316,304,299,0
298,315,305,298,0
299,312,305,298,0
300,311,303,297,0
300,315,302,297,0
301,320,302,298,0
302,324,303,299,0
304,326,305,301,0
307,320,307,303,0
309,314,308,306,0
311,314,309,309,0
313,326,309,312,0
315,343,308,314,0
315,359,307,314,0
314,372,305,314,0
312,374,303,313,0
309,363,300,310,0
307,344,299,308,0
304,324,298,305,0
303,308,297,304,0
302,295,298,303,0
301,287,299,302,0
300,281,301,301,0
300,276,302,300,0
301,273,303,300,0
303,274,304,301,0
306,276,305,301,0
308,277,305,300,0
309,277,304,300,0
308,275,303,300,0
306,275,303,300,0
306,280,304,301,0
306,290,305,302,0
306,304,305,303,0
308,321,305,304,0
311,338,306,304,0
313,348,306,304,0
313,349,306,303,0
312,340,305,301,0
310,324,304,300,0
308,307,304,300,0
306,294,304,300,0
304,286,304,301,0
303,285,303,302,0
303,288,303,303,0
302,295,303,306,0
302,303,303,308,0
303,310,303,311,0
305,314,304,314,0
306,315,305,315,0
306,315,305,315,0
305,312,305,314,0
305,307,304,313,0
306,303,303,313,0
306,300,303,312,0
306,299,302,311,0
306,304,301,309,0
305,313,299,307,0
305,324,298,305,0
306,332,298,304,0
308,334,298,302,0
309,328,298,301,0
310,317,299,301,0
310,301,301,300,0
309,287,303,301,0
309,280,305,301,0
308,278,306,302,0
309,276,305,301,0
310,274,304,301,0
310,274,302,301,0
309,276,301,301,0
309,281,300,302,0
308,285,300,304,0
308,290,299,305,0
308,297,299,307,0
308,304,299,307,0
309,308,300,308,0
309,309,301,307,0
309,305,302,306,0
307,301,302,304,0
306,298,300,302,0
304,298,297,300,0
303,303,295,298,0
302,311,294,296,0
301,323,295,296,0
300,336,299,298,0
301,346,306,301,0
303,349,312,304,0
306,345,317,308,0
309,339,321,310,0
312,331,322,312,0
313,322,321,314,0
314,314,320,315,0
314,308,318,315,0
314,301,315,313,0
312,294,312,311,0
309,290,310,311,0
308,293,309,310,0
308,299,308,311,0
309,307,307,311,0
310,316,306,312,0
310,322,304,312,0
310,320,302,311,0
308,314,300,310,0
307,307,300,310,0
305,307,301,310,0
305,311,303,309,0
305,311,304,308,0
304,305,305,306,0
304,294,306,305,0
304,288,305,305,0
305,287,304,305,0
305,289,303,305,0
305,292,303,304,0
305,293,302,303,0
304,292,302,303,0
303,293,301,304,0
303,296,300,306,0
304,302,300,308,0
305,307,299,311,0
306,309,299,312,0
306,307,299,313,0
307,308,299,312,0
306,315,297,311,0
306,328,296,311,0
306,336,294,310,0
304,336,294,308,0
303,326,295,306,0
302,313,298,304,0
302,300,301,304,0
302,289,303,303,0
302,282,303,304,0
302,278,304,304,0
302,280,304,306,0
301,285,304,306,0
301,291,303,305,0
300,300,301,304,0
300,311,299,304,0
300,320,299,304,0
301,323,301,304,0
301,320,302,304,0
300,315,304,303,0
300,305,306,303,0
299,294,308,301,0
300,286,310,301,0
302,285,312,302,0
304,291,312,305,0
308,304,313,308,0
311,320,315,312,0
314,335,316,315,0
314,339,315,316,0
313,331,313,316,0
310,320,311,316,0
308,311,310,316,0
306,305,309,317,0
305,300,308,317,0
304,295,307,317,0
303,291,307,316,0
302,289,307,316,0
300,288,307,315,0
299,286,308,313,0
298,286,308,312,0
297,288,309,311,0
298,293,309,310,0
299,301,309,309,0
301,309,308,309,0
303,315,308,310,0
304,318,306,311,0
304,319,305,309,0
304,317,303,306,0
302,317,302,303,0
301,316,300,299,0
300,311,300,297,0
300,304,301,296,0
301,297,303,297,0
303,295,305,300,0
305,299,308,304,0
307,306,310,307,0
307,311,310,309,0
306,311,309,308,0
305,309,306,306,0
304,305,304,304,0
303,303,301,303,0
301,303,301,301,0
300,304,303,301,0
299,307,307,302,0
298,310,312,303,0
299,311,315,304,0
300,310,317,304,0
302,307,316,304,0
302,302,313,303,0
301,295,310,302,0
299,289,308,301,0
299,284,307,300,0
299,281,308,300,0
301,280,308,300,0
303,280,309,301,0
304,282,309,303,0
305,285,309,305,0
307,286,309,306,0
307,287,309,307,0
307,289,309,307,0
307,291,309,306,0
307,286,309,305,0
307,279,310,302,0
308,277,309,300,0
307,285,309,298,0
307,302,307,298,0
306,323,305,299,0
306,340,304,299,0
307,351,302,300,0
306,359,301,300,0
306,363,302,300,0
305,362,304,300,0
304,355,305,300,0
303,343,305,298,0
302,329,305,296,0
302,318,303,295,0
303,308,302,294,0
303,297,301,294,0
303,285,301,294,0
304,279,302,294,0
305,281,302,294,0
306,289,301,295,0
306,301,299,296,0
306,313,298,297,0
307,324,298,297,0
307,334,298,299,0
308,343,300,300,0
308,350,302,300,0
308,354,305,301,0
308,355,308,301,0
307,347,311,300,0
306,331,311,300,0
305,310,310,299,0
305,292,309,298,0
304,279,307,298,0
305,272,306,298,0
306,273,306,297,0
307,278,305,298,0
307,285,306,298,0
307,288,305,297,0
307,286,305,296,0
307,283,304,294,0
306,282,304,294,0
305,282,303,293,0
304,284,302,295,0
304,288,303,296,0
304,295,304,298,0
305,302,305,299,0
307,307,304,299,0
307,311,304,299,0
308,315,305,299,0
308,318,307,301,0
309,321,309,303,0
309,323,310,305,0
309,324,312,307,0
309,328,313,308,0
307,331,313,308,0
306,333,312,307,0
306,333,312,305,0
306,333,312,304,0
308,330,312,302,0
309,322,310,301,0
310,314,308,301,0
310,313,307,301,0
311,319,306,302,0
311,327,307,303,0
309,337,308,303,0
308,345,309,303,0
306,345,309,302,0
304,332,308,300,0
303,313,309,299,0
302,293,309,299,0
301,275,310,300,0
302,265,310,302,0
302,266,310,304,0
303,277,309,305,0
303,294,309,305,0
304,311,309,306,0
304,320,310,306,0
303,317,310,306,0
302,308,310,305,0
301,299,309,304,0
301,293,310,303,0
302,289,310,302,0
304,287,309,302,0
305,285,308,302,0
306,278,305,302,0
306,267,301,300,0
304,260,297,299,0
303,260,294,298,0
303,268,293,296,0
303,280,292,295,0
303,293,294,294,0
303,301,296,293,0
304,303,299,293,0
306,301,302,294,0
308,298,304,296,0
310,298,305,297,0
310,297,306,298,0
311,299,306,300,0
312,302,306,302,0
312,305,306,303,0
312,309,304,304,0
310,319,304,305,0
308,332,305,306,0
305,343,307,306,0
304,351,308,305,0
303,352,308,304,0
304,343,308,303,0
305,327,308,302,0
306,314,309,303,0
308,306,310,305,0
310,301,311,306,0
311,300,311,307,0
312,300,310,308,0
312,300,309,308,0
312,299,309,308,0
311,296,309,306,0
310,292,310,304,0
309,287,310,302,0
308,284,309,301,0
309,285,310,302,0
312,289,312,304,0
314,296,315,307,0
316,302,315,309,0
315,303,315,309,0
312,302,313,309,0
309,302,311,308,0
306,301,309,307,0
304,301,307,307,0
303,301,307,306,0
302,302,307,305,0
302,304,307,304,0
303,306,306,303,0
303,310,306,303,0
304,316,306,303,0
305,326,307,302,0
306,338,305,302,0
307,348,304,302,0
308,354,303,303,0
309,353,302,303,0
308,342,302,303,0
308,324,302,303,0
307,309,302,303,0
307,297,302,304,0
306,291,301,304,0
306,289,301,306,0
305,290,301,306,0
304,293,301,305,0
303,296,302,306,0
303,298,303,306,0
303,299,305,307,0
305,297,305,307,0
306,295,306,307,0
307,296,305,306,0
307,301,304,306,0
307,306,304,306,0
307,306,305,306,0
307,299,308,304,0
306,290,311,303,0
306,281,311,301,0
305,272,310,300,0
303,262,308,299,0
303,258,307,299,0
303,262,305,300,0
303,274,305,302,0
304,292,305,304,0
305,314,306,307,0
305,334,306,309,0
305,348,305,309,0
304,358,304,308,0
305,361,303,307,0
306,352,303,305,0
307,335,302,303,0
309,317,302,301,0
311,303,302,299,0
313,296,300,299,0
313,293,298,297,0
313,292,296,297,0
311,292,295,295,0
309,295,296,294,0
306,300,299,294,0
304,305,303,295,0
303,308,306,297,0
302,309,309,300,0
302,310,310,302,0
303,310,310,305,0
303,311,310,309,0
304,313,309,312,0
305,315,309,315,0
306,316,309,317,0
308,316,308,318,0
309,317,307,316,0
309,318,307,315,0
310,320,308,313,0
311,324,309,311,0
310,327,310,311,0
309,330,311,310,0
309,331,311,309,0
309,333,310,307,0
308,335,308,304,0
307,339,306,303,0
307,340,305,303,0
306,333,304,303,0
305,320,302,304,0
304,304,302,305,0
304,291,301,304,0
302,281,299,304,0
301,275,297,303,0
300,275,296,302,0
300,277,296,301,0
300,279,298,301,0
301,283,301,302,0
303,292,304,302,0
304,303,307,303,0
305,316,308,304,0
305,324,308,305,0
305,327,307,305,0
304,326,307,306,0
303,321,308,307,0
303,312,309,308,0
303,300,309,310,0
304,290,310,311,0
305,285,310,312,0
306,286,310,312,0
307,291,311,313,0
308,297,311,313,0
309,303,312,313,0
309,306,312,313,0
309,307,313,311,0
308,305,313,310,0
308,301,313,308,0
307,300,312,307,0
307,303,310,307,0
308,312,310,308,0
309,321,310,308,0
309,326,310,308,0
308,328,309,308,0
308,325,308,308,0
307,320,308,307,0
306,314,307,306,0
303,310,307,304,0
301,308,306,303,0
300,306,306,302,0
300,303,306,302,0
301,296,306,301,0
301,286,305,300,0
302,275,305,300,0
304,266,306,301,0
306,265,307,301,0
308,269,308,302,0
309,275,308,303,0
310,287,308,303,0
310,304,307,304,0
310,322,306,304,0
308,341,305,304,0
307,353,303,303,0
305,347,302,303,0
302,329,301,303,0
300,313,299,303,0
299,305,298,305,0
301,305,298,307,0
302,311,300,309,0
303,319,301,310,0
303,326,304,309,0
302,329,306,307,0
300,322,308,304,0
298,310,309,301,0
297,294,308,300,0
298,279,307,300,0
301,270,305,301,0
304,269,302,303,0
307,272,301,303,0
308,277,300,303,0
309,281,301,303,0
309,285,301,304,0
309,289,302,305,0
310,294,303,306,0
309,297,303,307,0
308,300,304,307,0
307,300,305,308,0
306,299,305,308,0
305,295,305,308,0
304,294,304,306,0
304,294,304,305,0
304,295,304,303,0
304,294,304,302,0
304,294,303,301,0
305,294,303,301,0
305,295,303,301,0
306,295,303,302,0
307,298,305,302,0
308,308,308,304,0
309,319,310,306,0
308,326,310,307,0
307,330,310,308,0
306,334,309,309,0
304,335,308,308,0
304,335,308,308,0
303,331,308,307,0
303,324,307,305,0
304,316,306,303,0
305,308,306,301,0
307,302,306,300,0
309,297,306,299,0
312,291,306,299,0
314,284,307,300,0
318,278,308,301,0
320,276,309,303,0
321,276,310,305,0
319,282,311,306,0
316,291,312,307,0
313,300,312,306,0
311,305,310,305,0
309,304,309,304,0
309,295,308,304,0
310,283,310,305,0
311,272,310,305,0
311,264,307,302,0
308,261,302,298,0
304,264,297,295,0
302,273,295,294,0
300,288,296,293,0
299,303,299,294,0
299,316,302,296,0
300,322,305,297,0
301,321,307,299,0
302,316,308,301,0
304,307,310,302,0
307,298,310,303,0
307,294,309,304,0
308,296,306,305,0
307,303,303,305,0
306,310,301,306,0
306,312,302,306,0
305,309,303,306,0
305,305,306,307,0
306,304,308,307,0
307,303,309,308,0
307,302,309,307,0
307,302,308,306,0
307,304,308,305,0
307,306,307,306,0
307,308,306,306,0
307,309,305,307,0
307,312,304,309,0
308,321,303,311,0
309,339,303,314,0
309,357,302,314,0
309,368,302,313,0
309,373,303,311,0
308,369,303,308,0
308,353,303,306,0
307,331,302,304,0
306,310,303,302,0
307,296,306,301,0
308,284,310,301,0
309,273,313,301,0
309,262,315,300,0
310,252,315,300,0
310,250,315,300,0
311,256,314,301,0
311,269,312,302,0
310,283,310,302,0
308,297,309,303,0
308,308,309,304,0
307,316,310,308,0
308,322,312,311,0
310,331,313,314,0
311,338,313,315,0
312,340,311,315,0
313,335,309,313,0
313,327,306,311,0
314,321,304,310,0
313,315,302,309,0
312,305,303,307,0
309,291,306,305,0
307,278,310,303,0
307,270,315,301,0
307,267,318,300,0
308,268,320,300,0
310,271,321,301,0
311,278,322,302,0
313,286,322,302,0
314,293,322,303,0
315,297,320,303,0
314,300,319,304,0
314,303,318,305,0
313,305,316,306,0
312,307,314,306,0
310,307,312,307,0
309,305,308,307,0
307,300,306,306,0
305,297,304,305,0
305,295,305,305,0
305,296,308,305,0
305,297,311,305,0
306,295,312,305,0
307,290,313,305,0
307,285,314,305,0
308,284,315,306,0
309,285,315,307,0
308,288,315,307,0
307,296,314,306,0
307,307,314,307,0
307,320,314,310,0
308,332,314,312,0
308,343,313,313,0
307,352,311,312,0
305,355,309,309,0
302,352,306,306,0
299,345,302,302,0
296,334,298,299,0
294,323,297,297,0
294,316,299,296,0
296,315,302,299,0
298,318,306,303,0
300,324,309,307,0
302,335,311,310,0
304,345,312,311,0
306,352,314,312,0
308,351,315,312,0
309,340,315,312,0
309,323,314,311,0
309,307,313,311,0
308,295,311,310,0
307,291,310,310,0
307,292,310,310,0
307,298,309,311,0
306,307,309,312,0
305,315,309,313,0
305,318,309,314,0
305,314,309,314,0
306,309,310,314,0
307,302,311,314,0
307,292,313,312,0
307,280,314,310,0
307,271,315,309,0
308,267,315,308,0
309,266,314,308,0
309,266,313,307,0
309,267,311,307,0
309,270,309,306,0
310,276,307,305,0
311,286,305,304,0
311,300,304,303,0
311,315,305,302,0
311,329,306,302,0
310,335,307,300,0
308,333,310,299,0
306,323,312,299,0
305,312,315,299,0
303,302,316,300,0
303,295,316,300,0
302,291,315,300,0
303,291,313,300,0
304,294,313,301,0
306,299,314,302,0
307,301,314,302,0
308,301,315,303,0
308,300,315,305,0
309,301,316,306,0
309,303,316,307,0
309,305,316,307,0
308,306,315,306,0
307,307,314,306,0
306,307,313,306,0
307,308,313,307,0
309,313,313,307,0
311,322,313,308,0
313,332,312,308,0
315,344,310,308,0
317,359,310,309,0
318,366,310,309,0
317,360,310,309,0
315,349,309,308,0
312,335,307,308,0
309,319,306,308,0
308,303,308,307,0
307,291,309,306,0
305,284,309,305,0
303,279,307,304,0
302,278,306,303,0
302,279,305,304,0
302,283,305,305,0
303,288,305,305,0
303,294,306,306,0
303,298,306,306,0
303,302,306,306,0
304,306,306,307,0
305,312,306,306,0
305,320,306,306,0
305,328,305,304,0
305,332,305,302,0
306,332,305,301,0
307,326,305,300,0
308,317,306,302,0
310,306,306,303,0
311,297,306,305,0
311,294,306,306,0
310,294,305,307,0
309,294,303,305,0
307,292,301,304,0
305,294,299,302,0
305,298,298,302,0
304,303,299,302,0
303,305,301,302,0
303,307,304,302,0
303,309,308,303,0
305,310,310,304,0
306,313,312,306,0
306,318,313,307,0
307,321,312,308,0
306,323,310,309,0
306,321,309,309,0
307,317,309,309,0
309,313,309,309,0
311,312,310,310,0
313,317,311,311,0
314,325,312,311,0
313,327,313,310,0
310,321,312,307,0
306,312,310,304,0
304,308,306,301,0
302,310,302,298,0
300,316,300,296,0
300,319,299,296,0
301,316,301,296,0
302,307,303,299,0
304,297,306,303,0
306,290,309,307,0
307,286,311,309,0
308,283,311,310,0
309,282,311,310,0
308,281,310,309,0
308,282,310,307,0
306,285,310,305,0
306,293,311,304,0
305,300,313,304,0
305,306,313,305,0
307,309,314,305,0
309,314,313,306,0
311,316,312,307,0
312,315,309,307,0
312,312,307,305,0
309,308,305,303,0
305,305,303,301,0
301,301,302,299,0
298,297,303,298,0
297,294,304,297,0
298,288,304,297,0
299,281,305,298,0
300,277,307,300,0
302,280,308,301,0
303,290,307,302,0
303,304,306,301,0
303,324,305,301,0
303,343,305,300,0
303,354,306,299,0
303,360,308,300,0
303,358,311,300,0
303,347,313,300,0
302,330,315,300,0
300,312,315,299,0
299,299,313,298,0
298,291,311,298,0
299,286,309,299,0
301,281,308,301,0
302,276,308,304,0
304,273,310,306,0
306,274,312,309,0
307,280,313,310,0
307,290,312,311,0
305,304,310,311,0
305,319,309,311,0
304,330,309,309,0
303,335,310,307,0
303,336,312,304,0
304,334,314,301,0
305,331,315,300,0
306,328,315,300,0
307,328,315,302,0
308,329,314,305,0
311,329,313,306,0
313,324,311,307,0
314,317,308,308,0
314,304,307,309,0
313,287,307,309,0
312,272,307,309,0
311,266,307,309,0
310,271,306,310,0
309,280,305,311,0
309,290,305,312,0
309,302,306,312,0
309,313,306,313,0
308,319,308,312,0
306,322,310,311,0
303,324,312,309,0
302,326,314,307,0
302,324,315,306,0
304,320,316,306,0
306,315,316,307,0
308,308,315,307,0
307,301,314,306,0
306,293,312,306,0
305,289,311,306,0
305,288,310,306,0
306,293,310,308,0
307,305,311,309,0
309,320,312,311,0
309,330,313,312,0
309,332,312,311,0
306,325,311,309,0
304,312,310,308,0
302,300,311,307,0
302,296,311,306,0
303,298,312,306,0
305,306,313,305,0
307,315,313,306,0
308,318,313,305,0
308,310,312,305,0
308,300,309,306,0
308,293,307,307,0
308,289,304,307,0
307,288,304,307,0
306,293,307,307,0
305,300,310,307,0
304,304,312,306,0
303,304,313,305,0
302,302,312,304,0
301,297,312,304,0
300,292,312,303,0
299,288,311,302,0
299,287,311,300,0
299,288,311,300,0
299,289,308,299,0
298,292,305,299,0
298,298,304,300,0
299,309,303,299,0
301,321,304,300,0
302,329,307,302,0
305,334,311,304,0
307,335,314,306,0
310,335,316,308,0
311,332,319,309,0
311,326,320,309,0
309,316,321,308,0
307,303,320,307,0
305,292,318,307,0
304,288,316,307,0
304,289,315,308,0
304,295,314,309,0
305,305,314,310,0
306,316,314,311,0
306,327,313,311,0
306,332,312,310,0
305,327,311,309,0
305,313,310,308,0
304,296,309,307,0
304,284,310,305,0
304,281,310,304,0
304,281,310,302,0
304,283,311,301,0
303,287,311,301,0
304,293,311,301,0
304,302,312,302,0
305,312,313,304,0
306,323,314,305,0
307,333,315,307,0
309,343,316,308,0
309,346,317,309,0
308,338,316,308,0
307,324,314,307,0
307,310,311,305,0
306,300,308,304,0
305,296,306,304,0
304,295,306,304,0
303,296,307,303,0
304,294,309,303,0
304,293,309,303,0
305,292,309,302,0
305,294,309,302,0
306,299,310,303,0
308,305,311,303,0
309,314,312,303,0
310,330,313,303,0
311,350,313,303,0
312,370,312,305,0
313,383,313,306,0
314,378,313,306,0
313,354,314,306,0
313,326,314,306,0
311,302,313,306,0
310,288,313,306,0
307,283,312,305,0
306,283,311,305,0
305,285,311,304,0
305,286,312,304,0
305,286,312,303,0
306,287,312,302,0
306,287,310,301,0
307,287,309,300,0
306,288,308,299,0
306,290,307,298,0
306,292,307,299,0
308,295,307,299,0
308,299,305,299,0
308,304,303,299,0
307,309,302,299,0
307,316,302,300,0
307,320,304,301,0
307,318,307,302,0
307,311,310,304,0
307,301,313,306,0
308,295,316,309,0
310,295,318,312,0
311,301,319,313,0
312,311,320,313,0
312,320,319,313,0
311,329,319,312,0
310,336,318,312,0
308,336,315,311,0
306,329,313,308,0
304,314,311,304,0
303,297,310,302,0
302,285,311,301,0
302,279,311,301,0
302,281,312,303,0
303,287,314,303,0
303,293,315,304,0
302,298,316,303,0
302,300,316,303,0
303,298,315,301,0
304,295,314,300,0
305,291,313,300,0
306,288,313,301,0
307,286,314,302,0
309,286,314,303,0
310,292,315,304,0
311,301,313,305,0
312,310,312,307,0
311,313,312,307,0
310,312,313,308,0
308,311,314,309,0
307,312,316,310,0
306,317,316,311,0
306,324,317,313,0
306,328,317,313,0
305,325,317,313,0
304,316,316,311,0
304,305,316,309,0
305,298,316,306,0
305,298,316,303,0
305,304,315,302,0
306,313,314,302,0
307,325,313,303,0
308,338,313,305,0
309,355,313,308,0
311,372,313,310,0
312,384,315,312,0
312,383,315,312,0
310,362,313,309,0
307,331,311,305,0
304,299,309,301,0
302,271,308,298,0
302,251,306,298,0
302,240,306,299,0
303,235,307,302,0
304,234,308,305,0
304,237,309,307,0
304,245,312,309,0
304,258,315,311,0
304,277,316,312,0
303,298,316,313,0
301,316,313,311,0
298,325,310,308,0
296,330,309,307,0
295,334,309,306,0
296,340,310,306,0
298,347,311,306,0
299,349,312,306,0
300,345,313,306,0
302,337,314,306,0
304,327,314,305,0
305,316,314,306,0
306,305,314,307,0
307,297,313,309,0
307,290,313,310,0
308,287,312,311,0
308,289,311,311,0
307,294,309,311,0
306,297,307,310,0
306,300,306,308,0
305,303,306,307,0
305,305,305,306,0
305,305,304,306,0
305,304,304,305,0
304,305,305,306,0
303,307,307,307,0
302,312,309,307,0
302,320,311,309,0
302,335,311,309,0
304,350,310,309,0
304,359,307,309,0
305,357,305,308,0
305,343,304,309,0
304,324,304,309,0
303,305,303,309,0
302,290,303,308,0
301,281,304,308,0
303,281,305,308,0
305,292,307,307,0
308,306,308,306,0
310,316,308,304,0
310,316,307,303,0
310,308,306,301,0
310,301,305,301,0
310,300,305,302,0
309,306,306,303,0
310,316,307,304,0
309,323,308,305,0
309,324,309,305,0
309,318,311,305,0
308,306,312,303,0
307,294,311,301,0
306,288,310,299,0
305,291,308,299,0
305,301,306,300,0
305,312,304,301,0
305,319,303,301,0
305,320,302,302,0
307,313,303,303,0
308,303,305,304,0
310,297,308,305,0
310,292,310,305,0
309,290,311,305,0
307,291,311,305,0
307,294,311,305,0
309,305,311,303,0
311,323,311,302,0
312,342,311,303,0
312,347,310,305,0
310,337,309,306,0
307,315,308,305,0
305,293,307,305,0
304,278,306,305,0
304,269,304,305,0
305,264,302,303,0
306,264,299,300,0
306,269,297,298,0
307,278,297,297,0
308,289,298,298,0
309,300,300,301,0
311,310,302,305,0
313,315,304,307,0
314,316,303,309,0
314,317,304,310,0
314,318,305,310,0
313,322,307,310,0
313,325,309,309,0
312,320,310,308,0
311,311,310,307,0
309,303,308,306,0
308,298,305,304,0
307,296,302,304,0
307,295,301,304,0
307,296,301,305,0
308,299,303,306,0
308,299,307,306,0
307,295,311,306,0
306,290,314,306,0
307,291,316,305,0
306,298,315,305,0
305,311,314,303,0
304,325,313,302,0
304,339,312,302,0
304,348,312,301,0
304,350,312,302,0
304,343,312,302,0
305,331,312,302,0
305,318,311,302,0
306,303,311,302,0
307,288,311,301,0
307,275,311,299,0
309,268,311,299,0
310,269,312,299,0
313,278,312,301,0
315,294,311,304,0
316,315,309,307,0
316,333,307,309,0
314,348,306,309,0
311,362,305,308,0
306,373,306,306,0
304,381,307,306,0
303,384,309,305,0
303,375,309,305,0
302,350,309,304,0
301,319,308,304,0
301,295,309,305,0
301,285,311,307,0
302,289,314,308,0
303,298,316,310,0
305,305,317,310,0
306,305,315,309,0
306,298,312,307,0
304,289,308,304,0
303,280,305,302,0
303,270,303,300,0
302,261,302,300,0
302,254,302,302,0
303,250,304,304,0
304,250,305,306,0
305,254,307,307,0
306,264,308,308,0
305,275,309,308,0
305,286,308,308,0
303,295,308,306,0
302,299,306,303,0
301,301,304,299,0
300,302,302,294,0
299,303,300,291,0
299,305,299,290,0
299,308,300,291,0
300,308,301,293,0
301,307,303,295,0
303,309,307,300,0
305,313,311,304,0
308,321,312,308,0
309,332,311,310,0
310,343,310,311,0
309,348,311,310,0
308,350,312,309,0
306,345,312,310,0
305,338,312,311,0
305,333,312,312,0
305,330,312,314,0
306,326,311,315,0
306,320,309,314,0
306,314,307,312,0
306,311,305,310,0
306,313,304,307,0
306,320,302,305,0
307,325,300,303,0
307,326,299,303,0
307,316,299,302,0
306,298,302,302,0
305,278,306,303,0
303,261,310,304,0
302,251,314,305,0
303,247,317,307,0
304,249,319,310,0
306,258,318,312,0
306,274,317,314,0
306,293,315,314,0
306,311,314,314,0
306,329,313,314,0
306,345,313,313,0
306,355,314,311,0
305,358,315,309,0
303,357,315,306,0
303,355,315,304,0
302,352,314,304,0
303,345,313,303,0
304,336,312,303,0
305,325,311,303,0
306,311,310,304,0
306,297,309,304,0
307,286,308,305,0
307,281,307,306,0
307,281,306,307,0
306,284,305,309,0
305,287,305,310,0
303,291,306,311,0
303,295,306,312,0
303,297,307,311,0
303,297,307,310,0
303,295,307,309,0
304,298,307,309,0
305,308,308,308,0
307,322,309,308,0
308,337,309,309,0
309,349,309,310,0
310,353,307,311,0
308,352,306,311,0
307,349,305,313,0
306,340,305,313,0
304,323,305,312,0
302,303,305,309,0
302,284,304,305,0
302,272,304,303,0
303,264,305,302,0
304,262,305,301,0
306,266,306,302,0
308,279,308,303,0
310,293,309,306,0
311,304,310,308,0
311,310,309,309,0
311,308,306,309,0
310,300,304,309,0
309,289,303,308,0
309,281,304,308,0
309,276,306,307,0
309,275,307,307,0
308,278,308,306,0
308,284,308,304,0
307,291,308,303,0
308,299,308,302,0
308,306,308,303,0
308,312,308,303,0
309,315,308,304,0
309,318,307,304,0
309,323,306,303,0
307,329,304,303,0
307,334,304,305,0
306,336,304,307,0
305,334,305,309,0
305,328,306,311,0
305,319,307,312,0
305,312,307,311,0
304,307,307,309,0
304,307,306,307,0
303,310,305,305,0
302,312,305,303,0
300,310,304,301,0
299,308,304,300,0
297,304,302,297,0
296,301,300,296,0
295,300,300,297,0
296,303,302,299,0
298,308,303,302,0
299,315,304,304,0
301,322,305,306,0
302,326,305,307,0
303,324,305,307,0
304,319,305,308,0
306,315,306,309,0
308,314,307,310,0
310,315,309,311,0
312,316,311,310,0
313,312,312,309,0
313,305,312,307,0
312,298,311,306,0
311,298,310,306,0
312,305,309,307,0
313,319,308,308,0
313,333,308,309,0
313,342,308,311,0
312,341,307,313,0
311,334,307,315,0
310,325,307,316,0
310,317,306,316,0
309,312,305,316,0
309,312,304,314,0
309,318,302,311,0
308,325,301,308,0
307,332,300,306,0
307,335,301,305,0
306,332,302,304,0
307,322,305,305,0
307,312,307,306,0
308,305,308,307,0
308,304,309,307,0
309,307,307,306,0
309,308,305,306,0
307,304,303,305,0
307,295,302,305,0
307,289,302,305,0
307,286,304,305,0
308,289,307,306,0
309,298,309,309,0
311,309,311,311,0
314,318,311,313,0
316,324,312,314,0
317,332,311,316,0
317,332,310,316,0
315,320,310,314,0
313,302,311,311,0
311,289,311,308,0
310,282,311,307,0
310,276,310,305,0
309,267,309,303,0
307,257,309,301,0
304,249,308,300,0
302,247,309,300,0
300,251,309,301,0
300,259,310,303,0
300,270,309,304,0
299,280,308,306,0
299,288,306,307,0
299,294,306,308,0
300,299,306,310,0
301,304,306,310,0
302,312,307,311,0
302,320,307,311,0
302,323,307,312,0
301,322,307,312,0
302,317,308,312,0
302,315,308,312,0
304,317,309,312,0
304,321,310,312,0
304,324,310,312,0
303,322,309,311,0
301,319,308,311,0
300,318,307,311,0
299,323,306,311,0
298,331,305,311,0
298,340,304,312,0
299,345,304,312,0
301,345,304,313,0
301,341,304,313,0
302,334,304,313,0
302,325,305,312,0
302,315,305,310,0
302,304,305,309,0
302,295,306,309,0
303,289,307,310,0
304,287,307,310,0
304,286,307,311,0
305,286,306,311,0
304,286,305,310,0
303,286,304,308,0
301,287,304,305,0
300,287,304,303,0
300,287,305,301,0
301,289,306,301,0
303,297,307,303,0
304,310,308,306,0
305,327,309,308,0
306,344,310,311,0
306,355,311,313,0
306,358,311,314,0
305,356,311,314,0
303,350,310,315,0
302,344,311,316,0
302,339,311,317,0
303,329,311,317,0
304,313,310,315,0
303,294,310,313,0
303,278,309,311,0
303,271,308,311,0
304,274,308,311,0
305,286,308,311,0
306,301,308,311,0
307,314,308,310,0
306,318,307,308,0
305,316,306,306,0
305,312,304,304,0
304,308,302,303,0
302,304,301,303,0
301,300,300,303,0
302,296,299,303,0
302,292,296,303,0
302,290,294,302,0
303,290,292,304,0
305,291,292,305,0
306,291,292,306,0
306,292,293,307,0
306,295,295,308,0
307,300,297,308,0
308,307,299,307,0
308,315,302,306,0
308,322,306,306,0
309,325,311,306,0
309,318,315,306,0
310,303,316,307,0
311,287,315,308,0
312,275,311,310,0
311,269,306,310,0
309,267,302,309,0
306,269,301,308,0
303,274,301,308,0
301,281,303,307,0
299,287,304,306,0
298,292,304,306,0
299,295,304,306,0
301,298,304,305,0
304,304,305,305,0
306,311,305,306,0
308,315,305,307,0
309,317,304,308,0
309,316,304,309,0
308,316,304,309,0
307,316,303,310,0
307,316,303,310,0
308,317,304,312,0
308,320,304,313,0
308,327,305,314,0
309,337,306,315,0
308,348,306,316,0
308,355,305,315,0
306,356,304,313,0
304,351,302,311,0
303,343,301,310,0
302,335,301,309,0
302,326,302,308,0
302,320,303,308,0
303,314,303,307,0
302,308,303,305,0
303,303,302,304,0
303,299,302,303,0
303,300,303,304,0
304,303,304,305,0
305,304,304,305,0
305,298,304,304,0
306,289,303,303,0
306,283,302,302,0
306,282,302,300,0
305,284,301,298,0
304,289,301,297,0
302,298,300,296,0
302,308,300,296,0
303,314,301,297,0
304,315,302,299,0
305,309,304,301,0
306,303,304,304,0
307,301,304,307,0
308,304,303,308,0
308,310,302,308,0
309,311,301,307,0
307,306,300,305,0
305,299,299,302,0
304,295,299,301,0
303,294,300,300,0
303,295,301,301,0
303,295,303,301,0
303,293,305,302,0
304,289,307,303,0
305,283,306,304,0
306,280,304,304,0
308,281,302,306,0
309,285,300,307,0
311,289,299,307,0
312,295,299,307,0
312,302,300,306,0
310,309,300,304,0
307,313,298,302,0
303,314,296,300,0
300,313,295,300,0
298,312,293,299,0
297,312,292,299,0
297,311,291,298,0
297,310,290,298,0
297,313,291,298,0
299,319,292,300,0
302,325,295,301,0
304,326,298,302,0
305,324,302,302,0
306,320,306,303,0
306,312,310,304,0
306,304,312,305,0
305,297,313,306,0
304,293,314,306,0
304,289,313,305,0
303,285,311,305,0
303,280,309,304,0
303,277,306,304,0
303,275,304,304,0
304,276,303,304,0
305,283,302,304,0
306,295,302,304,0
306,308,302,304,0
306,321,302,302,0
305,332,301,300,0
304,343,301,299,0
304,353,303,301,0
305,360,305,305,0
306,358,307,310,0
307,345,309,314,0
308,325,310,315,0
309,302,310,314,0
310,280,308,311,0
310,262,307,307,0
310,250,305,304,0
310,243,304,301,0
309,243,303,300,0
309,251,303,301,0
309,265,303,302,0
307,280,304,305,0
307,295,305,308,0
306,306,306,311,0
307,315,308,312,0
307,319,308,312,0
307,321,308,310,0
307,325,307,308,0
306,332,305,306,0
307,338,305,305,0
307,342,305,305,0
308,340,306,306,0
308,326,307,307,0
308,307,309,307,0
308,290,311,309,0
308,282,313,310,0
309,284,314,310,0
310,296,314,311,0
311,318,313,310,0
312,342,312,310,0
313,360,312,310,0
315,367,311,311,0
315,359,311,311,0
314,340,309,310,0
313,317,307,309,0
311,298,304,307,0
309,283,302,306,0
308,272,302,305,0
307,264,303,305,0
307,261,304,306,0
307,264,305,307,0
307,274,307,309,0
308,288,309,310,0
307,302,310,311,0
306,314,310,310,0
304,321,309,309,0
304,325,309,309,0
305,326,309,309,0
306,326,309,309,0
307,323,309,308,0
308,318,308,308,0
307,316,306,307,0
307,322,305,307,0
306,337,305,307,0
306,357,304,308,0
305,373,305,309,0
305,382,305,310,0
306,376,305,309,0
305,357,305,308,0
305,335,305,308,0
305,314,305,308,0
305,296,305,307,0
306,282,304,306,0
307,277,304,307,0
308,276,304,308,0
309,275,303,309,0
308,275,302,310,0
308,276,301,310,0
308,276,300,310,0
308,276,300,309,0
308,275,300,308,0
309,273,302,305,0
309,272,304,303,0
309,274,306,301,0
309,277,307,300,0
309,281,309,299,0
308,287,310,298,0
307,292,312,298,0
307,296,313,298,0
307,298,312,298,0
308,298,311,298,0
310,298,310,299,0
312,300,309,300,0
314,304,309,303,0
316,311,309,304,0
316,319,308,306,0
315,329,307,307,0
314,336,307,308,0
312,337,306,307,0
310,334,305,307,0
310,327,304,307,0
310,318,304,307,0
311,308,304,307,0
312,300,304,307,0
313,296,304,307,0
313,299,305,307,0
313,309,305,308,0
312,321,305,307,0
312,333,305,307,0
312,345,305,308,0
312,353,305,309,0
312,353,306,310,0
312,346,308,311,0
312,338,310,312,0
313,328,311,313,0
314,318,311,314,0
314,313,311,315,0
313,315,311,315,0
313,324,310,315,0
312,336,309,315,0
311,344,308,315,0
310,339,306,314,0
309,321,304,312,0
307,297,302,310,0
306,274,300,309,0
304,259,300,308,0
303,252,300,308,0
302,251,301,307,0
302,254,302,307,0
303,263,305,308,0
304,275,306,311,0
305,288,305,313,0
306,299,304,313,0
306,306,304,314,0
305,310,305,313,0
304,308,307,313,0
303,303,309,312,0
302,295,310,312,0
301,287,310,312,0
302,280,309,313,0
303,276,308,313,0
304,274,307,313,0
305,277,306,313,0
305,283,304,312,0
304,291,304,311,0
304,297,304,311,0
303,301,304,310,0
304,306,305,311,0
304,313,305,313,0
306,320,306,315,0
307,328,307,317,0
308,336,307,318,0
309,346,308,320,0
309,352,308,322,0
308,347,307,322,0
307,330,306,321,0
307,308,306,319,0
307,288,307,317,0
308,273,307,316,0
310,267,307,315,0
311,267,307,315,0
312,268,307,314,0
312,269,306,312,0
312,271,304,310,0
310,278,301,308,0
309,290,297,305,0
308,304,294,304,0
307,317,293,304,0
306,328,294,304,0
304,337,297,305,0
304,342,301,307,0
303,343,304,308,0
303,340,306,309,0
303,331,306,309,0
303,316,305,309,0
303,303,302,309,0
303,290,300,309,0
304,280,300,309,0
305,277,301,308,0
306,283,305,309,0
308,299,310,311,0
311,319,314,314,0
312,336,315,316,0
311,340,314,316,0
308,328,311,315,0
306,308,308,315,0
305,288,306,315,0
305,276,305,315,0
305,274,305,314,0
304,282,305,313,0
302,295,304,312,0
301,307,304,310,0
300,316,303,308,0
299,319,301,307,0
299,316,301,307,0
298,310,301,307,0
298,304,302,307,0
297,297,303,306,0
297,291,303,306,0
297,287,303,305,0
297,285,302,304,0
297,285,302,302,0
298,286,302,301,0
299,290,304,301,0
300,299,305,301,0
301,314,306,303,0
302,334,307,305,0
303,355,309,308,0
305,372,311,311,0
307,379,312,312,0
310,376,313,312,0
312,368,314,312,0
313,359,314,311,0
311,348,313,309,0
309,334,313,308,0
306,317,311,307,0
304,300,311,306,0
304,287,310,306,0
304,277,310,306,0
304,273,310,306,0
305,275,310,305,0
304,284,310,304,0
304,294,312,303,0
303,301,312,302,0
303,302,312,302,0
303,296,310,302,0
303,287,309,301,0
304,280,307,301,0
305,277,305,301,0
305,276,303,300,0
304,276,303,299,0
303,278,304,299,0
302,281,306,299,0
301,284,309,300,0
301,285,312,300,0
302,288,314,301,0
303,295,315,301,0
305,309,316,303,0
307,324,317,304,0
310,338,318,306,0
312,349,319,309,0
314,353,318,311,0
316,348,317,313,0
316,340,317,314,0
315,332,317,316,0
312,321,316,316,0
309,306,314,315,0
307,292,314,315,0
306,285,314,316,0
305,285,314,317,0
306,288,314,316,0
305,288,314,314,0
305,286,313,312,0
305,283,313,310,0
305,278,311,309,0
305,274,309,309,0
304,273,307,308,0
304,274,305,308,0
304,278,302,308,0
303,281,300,308,0
302,285,299,308,0
302,290,300,309,0
302,296,303,312,0
302,301,307,314,0
301,303,310,314,0
300,302,313,313,0
300,300,314,312,0
301,298,314,311,0
301,297,313,309,0
302,295,311,309,0
303,293,309,308,0
304,292,308,309,0
304,291,307,309,0
304,290,306,311,0
304,293,307,313,0
304,302,307,315,0
304,314,307,317,0
303,323,307,317,0
303,326,307,316,0
303,323,306,315,0
304,316,306,314,0
305,313,305,312,0
307,314,305,310,0
307,319,303,308,0
308,329,303,308,0
308,342,301,308,0
309,358,302,309,0
311,374,302,310,0
313,385,303,312,0
314,384,303,314,0
314,370,302,315,0
311,343,301,314,0
305,309,301,313,0
302,282,303,314,0
299,265,305,316,0
298,257,308,317,0
298,255,309,317,0
298,255,309,315,0
300,255,308,312,0
301,257,307,309,0
303,261,304,306,0
303,268,303,304,0
304,276,301,303,0
304,284,299,302,0
304,293,298,302,0
304,305,297,303,0
304,317,297,304,0
303,328,298,305,0
302,332,300,305,0
300,326,303,304,0
300,316,306,305,0
301,309,309,306,0
303,308,312,309,0
305,314,313,311,0
307,322,313,313,0
308,329,312,314,0
306,326,309,312,0
303,315,305,310,0
301,305,303,308,0
301,302,302,306,0
301,303,301,305,0
302,303,300,305,0
303,297,299,304,0
305,283,299,303,0
306,266,299,302,0
308,253,299,300,0
309,248,298,298,0
309,251,297,297,0
307,264,297,297,0
306,283,299,299,0
304,301,301,302,0
302,312,305,306,0
300,315,308,310,0
300,313,311,312,0
300,308,313,314,0
301,302,313,314,0
303,296,312,314,0
304,293,311,313,0
305,293,309,312,0
304,296,307,311,0
304,297,306,310,0
304,301,304,309,0
303,308,303,309,0
301,317,303,309,0
300,324,302,308,0
298,329,301,307,0
298,334,301,307,0
299,336,301,306,0
300,338,301,307,0
302,338,302,307,0
303,336,303,307,0
304,332,302,306,0
304,331,302,307,0
304,333,303,307,0
305,337,304,309,0
306,342,305,310,0
307,343,305,311,0
307,342,305,312,0
309,343,306,314,0
310,342,307,315,0
311,334,307,315,0
310,318,306,314,0
308,301,304,312,0
307,286,303,310,0
307,276,304,309,0
308,271,304,309,0
309,273,303,309,0
309,280,302,310,0
308,287,299,310,0
305,291,297,310,0
303,296,296,309,0
302,302,296,309,0
301,315,297,310,0
301,331,297,311,0
301,348,298,312,0
302,359,298,311,0
304,362,299,309,0
306,357,300,307,0
307,348,302,305,0
308,338,306,305,0
309,326,310,307,0
309,310,316,309,0
309,294,319,311,0
307,283,319,311,0
305,277,317,309,0
303,275,313,307,0
302,275,308,306,0
300,276,305,305,0
300,279,305,304,0
299,284,305,303,0
300,289,307,304,0
301,294,308,305,0
302,295,308,307,0
302,292,308,308,0
303,287,307,309,0
303,281,306,310,0
303,276,305,309,0
304,274,304,308,0
305,278,304,306,0
305,282,304,304,0
304,284,303,301,0
303,283,303,298,0
303,285,304,298,0
304,288,305,299,0
304,288,307,301,0
305,286,309,302,0
305,284,310,304,0
306,281,311,307,0
308,279,311,309,0
309,276,312,311,0
309,271,312,312,0
309,268,312,313,0
310,265,312,314,0
311,264,311,314,0
312,265,310,314,0
314,270,309,313,0
314,278,309,312,0
315,287,307,312,0
315,298,305,312,0
314,313,304,311,0
312,326,305,312,0
310,337,308,313,0
310,344,312,314,0
309,345,314,315,0
308,348,314,315,0
309,355,313,316,0
309,363,312,315,0
309,367,310,314,0
308,363,308,312,0
307,348,307,310,0
307,329,307,308,0
307,312,308,308,0
309,301,310,308,0
310,295,310,307,0
310,295,310,306,0
310,298,308,305,0
308,300,306,304,0
306,300,304,304,0
306,300,302,305,0
305,306,302,307,0
306,320,302,310,0
306,338,302,313,0
306,356,302,315,0
307,372,303,316,0
308,378,305,315,0
309,368,307,314,0
308,344,308,311,0
308,320,309,308,0
308,301,310,307,0
307,287,309,306,0
305,277,308,307,0
305,270,308,308,0
305,267,309,309,0
306,268,309,310,0
307,269,308,310,0
307,269,308,311,0
306,266,308,309,0
306,262,308,308,0
305,262,308,306,0
305,264,307,304,0
304,269,305,304,0
304,274,304,304,0
305,277,303,305,0
306,280,303,306,0
308,281,304,307,0
308,283,303,307,0
310,284,302,307,0
310,287,301,306,0
310,293,300,305,0
311,302,298,304,0
312,311,297,305,0
312,315,296,305,0
311,315,295,305,0
309,314,295,305,0
308,317,297,305,0
308,323,299,306,0
309,334,304,308,0
310,348,309,309,0
311,357,312,309,0
311,359,315,309,0
311,350,315,309,0
311,331,315,309,0
311,308,314,310,0
310,286,312,311,0
311,268,311,313,0
311,255,310,314,0
313,247,309,314,0
314,247,309,315,0
315,257,309,316,0
314,270,308,316,0
312,280,306,315,0
308,288,303,313,0
306,296,301,311,0
304,307,299,309,0
303,318,297,307,0
303,330,297,306,0
304,345,299,306,0
305,361,302,306,0
306,373,304,307,0
305,376,306,307,0
304,369,306,307,0
302,352,304,307,0
302,335,304,307,0
301,320,303,308,0
300,310,305,308,0
300,305,308,307,0
300,302,311,306,0
301,298,311,305,0
301,293,311,304,0
301,287,309,303,0
301,284,307,304,0
303,285,305,306,0
304,289,304,310,0
305,297,303,313,0
305,307,303,316,0
304,316,304,320,0
305,322,306,322,0
304,323,307,324,0
304,316,308,324,0
305,303,309,321,0
305,290,310,317,0
304,280,310,313,0
302,278,307,309,0
301,284,305,307,0
301,294,305,306,0
302,304,307,305,0
302,312,309,305,0
303,316,311,305,0
303,316,311,306,0
304,313,311,307,0
304,308,312,307,0
304,303,313,308,0
304,300,313,309,0
304,302,312,311,0
305,308,311,312,0
305,314,311,313,0
305,322,310,314,0
306,331,310,314,0
306,340,311,315,0
306,345,311,314,0
305,346,310,314,0
305,337,310,312,0
305,321,310,311,0
305,303,310,310,0
305,287,311,309,0
305,274,313,310,0
304,267,314,310,0
304,264,315,311,0
303,265,315,310,0
301,271,314,310,0
301,280,314,311,0
301,288,314,313,0
302,293,314,315,0
303,298,314,316,0
304,302,314,316,0
306,306,315,316,0
307,309,315,316,0
307,311,315,315,0
308,310,315,314,0
308,306,314,313,0
307,298,313,312,0
306,292,312,310,0
305,288,310,309,0
304,290,309,309,0
304,296,308,310,0
304,305,308,312,0
306,316,307,313,0
308,325,306,313,0
309,330,305,312,0
309,335,305,311,0
309,342,308,310,0
309,346,310,310,0
307,344,312,311,0
303,337,312,309,0
300,325,311,308,0
297,313,310,306,0
296,302,310,304,0
297,296,310,303,0
299,293,311,303,0
301,294,312,304,0
303,294,312,305,0
305,293,313,306,0
305,290,312,307,0
305,288,311,307,0
305,288,310,307,0
305,293,309,307,0
305,304,309,308,0
306,320,310,309,0
308,341,311,311,0
310,362,311,314,0
311,376,310,316,0
311,377,308,315,0
311,368,306,314,0
310,348,304,311,0
309,323,303,309,0
307,301,304,306,0
306,287,307,304,0
305,281,310,304,0
304,281,313,304,0
304,281,314,305,0
303,278,313,305,0
302,275,310,305,0
301,275,307,304,0
300,277,305,304,0
300,282,304,303,0
300,286,305,302,0
300,288,306,301,0
301,287,307,301,0
302,281,308,301,0
302,272,309,301,0
302,264,310,301,0
303,262,311,300,0
305,269,311,300,0
307,287,312,301,0
309,312,312,303,0
310,338,311,306,0
311,359,310,307,0
310,367,308,307,0
309,362,306,306,0
308,348,305,305,0
308,335,304,304,0
308,327,303,305,0
309,327,302,306,0
309,329,301,307,0
308,331,301,308,0
307,327,302,309,0
305,319,305,310,0
304,312,309,311,0
303,306,313,311,0
304,300,314,312,0
305,295,314,313,0
306,292,312,313,0
307,290,309,314,0
307,289,305,313,0
307,291,301,312,0
306,295,298,310,0
305,299,298,307,0
305,301,298,305,0
305,302,300,304,0
306,303,303,304,0
308,303,305,306,0
309,303,306,307,0
310,304,307,309,0
311,307,309,310,0
312,313,310,310,0
311,325,311,310,0
311,338,312,310,0
310,353,312,310,0
310,366,312,311,0
309,368,311,310,0
307,356,310,311,0
306,339,310,313,0
306,322,310,315,0
306,313,311,316,0
306,314,311,317,0
306,319,311,318,0
305,322,311,318,0
304,317,310,317,0
303,303,310,315,0
303,283,309,312,0
302,264,309,309,0
302,251,308,307,0
302,244,308,307,0
303,242,308,307,0
304,245,308,307,0
305,254,309,307,0
306,265,310,308,0
307,275,309,309,0
307,283,308,310,0
307,285,307,310,0
307,283,305,309,0
307,279,302,307,0
305,277,300,307,0
305,282,299,307,0
305,293,299,307,0
305,304,300,307,0
304,314,302,306,0
303,322,305,306,0
302,327,307,307,0
302,331,309,307,0
302,332,311,307,0
303,331,311,308,0
303,325,311,307,0
303,317,310,307,0
304,309,308,306,0
304,300,306,304,0
305,290,305,304,0
307,279,304,304,0
308,268,304,305,0
308,260,304,306,0
307,255,305,307,0
306,257,305,309,0
305,267,305,311,0
304,284,304,313,0
305,305,304,314,0
305,325,304,316,0
306,337,304,315,0
306,341,303,312,0
306,341,304,309,0
306,340,303,306,0
305,337,301,303,0
304,334,299,301,0
303,331,298,300,0
303,328,298,301,0
304,326,298,302,0
305,322,299,304,0
307,320,300,306,0
308,324,300,308,0
309,332,301,311,0
310,339,302,313,0
311,340,302,313,0
312,336,302,313,0
312,326,302,313,0
311,313,301,313,0
310,301,301,314,0
310,297,302,314,0
310,301,303,314,0
310,314,303,314,0
309,334,303,314,0
308,353,305,313,0
305,362,307,311,0
303,360,308,310,0
300,348,309,308,0
299,331,308,308,0
299,315,308,308,0
300,309,308,308,0
302,315,308,309,0
304,326,307,310,0
305,330,307,311,0
305,324,307,311,0
306,312,308,311,0
307,298,309,311,0
307,283,309,311,0
306,271,309,310,0
305,265,308,309,0
304,266,308,309,0
304,272,307,309,0
305,279,306,310,0
305,283,306,310,0
305,285,305,309,0
304,285,304,306,0
304,286,302,303,0
304,288,300,300,0
304,293,299,297,0
304,299,298,296,0
305,307,298,295,0
305,316,299,297,0
305,323,301,301,0
305,324,303,305,0
305,321,305,308,0
306,314,308,309,0
307,307,309,309,0
308,300,310,309,0
308,294,309,308,0
308,288,310,309,0
308,284,311,310,0
308,282,313,311,0
308,283,315,311,0
309,289,317,312,0
310,302,318,313,0
310,319,317,313,0
308,332,314,312,0
305,339,311,309,0
304,339,309,308,0
302,333,308,308,0
301,322,308,307,0
301,311,308,307,0
300,303,310,307,0
301,297,312,308,0
303,293,314,309,0
305,291,315,310,0
307,292,315,312,0
308,296,314,313,0
309,299,313,313,0
308,301,311,312,0
307,302,310,312,0
306,302,310,311,0
306,303,310,311,0
306,305,309,309,0
305,308,307,307,0
305,306,307,306,0
306,304,308,304,0
307,305,310,304,0
308,306,312,305,0
309,308,312,305,0
308,312,312,305,0
308,315,309,304,0
306,315,306,302,0
305,309,303,301,0
305,299,302,300,0
306,290,301,300,0
306,284,299,299,0
306,281,298,299,0
306,284,297,299,0
307,289,298,300,0
307,297,300,300,0
306,303,301,301,0
306,309,302,302,0
306,314,302,303,0
306,318,303,304,0
307,325,302,306,0
309,332,302,308,0
310,335,302,309,0
311,332,303,310,0
312,327,304,311,0
313,318,306,312,0
313,304,309,313,0
313,291,312,314,0
314,285,316,314,0
314,290,316,314,0
313,305,316,314,0
312,325,313,314,0
310,340,310,313,0
308,342,308,311,0
306,330,306,308,0
305,313,305,304,0
306,299,303,302,0
306,294,303,300,0
308,297,302,301,0
309,304,302,304,0
311,311,302,306,0
311,316,302,308,0
309,321,301,309,0
307,324,300,310,0
304,325,300,310,0
302,326,299,310,0
301,326,299,310,0
300,322,298,310,0
300,313,298,310,0
300,302,298,309,0
301,294,298,310,0
303,288,298,310,0
304,285,299,311,0
307,286,301,311,0
309,289,303,312,0
311,296,305,313,0
312,303,305,314,0
313,311,305,314,0
314,320,305,313,0
313,329,303,312,0
312,340,300,310,0
311,348,298,308,0
311,349,297,305,0
311,341,296,301,0
310,329,294,297,0
309,314,290,294,0
306,302,288,291,0
303,293,288,290,0
301,288,290,290,0
300,287,296,293,0
301,291,301,297,0
302,294,305,300,0
303,296,306,302,0
304,300,305,304,0
306,311,304,307,0
307,325,304,309,0
308,339,304,310,0
308,347,305,310,0
307,339,307,308,0
306,318,308,307,0
304,296,310,307,0
303,282,310,306,0
301,275,310,306,0
299,275,309,305,0
299,278,309,305,0
299,287,309,305,0
299,301,310,306,0
300,319,309,307,0
300,332,308,308,0
300,336,307,308,0
300,329,305,308,0
300,317,303,309,0
300,306,302,310,0
300,297,303,312,0
301,291,304,313,0
302,288,306,313,0
304,287,308,313,0
305,288,310,313,0
307,289,310,313,0
307,290,310,312,0
308,290,309,312,0
308,288,308,310,0
309,283,308,309,0
310,277,308,308,0
311,273,307,308,0
312,272,306,309,0
314,276,305,309,0
315,286,305,310,0
315,303,305,311,0
316,324,306,312,0
315,341,307,312,0
313,347,308,312,0
310,343,308,312,0
308,335,308,312,0
307,325,307,311,0
308,319,305,311,0
308,316,304,311,0
308,317,303,312,0
308,320,302,312,0
308,323,302,311,0
308,327,301,310,0
307,324,301,310,0
306,314,301,308,0
304,301,301,308,0
304,293,301,307,0
303,289,300,306,0
303,292,300,306,0
303,297,299,307,0
304,301,299,308,0
305,303,299,309,0
306,306,299,310,0
306,309,298,311,0
306,314,298,313,0
307,322,297,314,0
306,324,297,314,0
307,317,297,313,0
308,305,297,312,0
309,292,297,309,0
310,278,297,305,0
309,268,296,302,0
307,265,297,301,0
305,268,300,300,0
304,277,303,300,0
303,289,306,300,0
303,303,308,301,0
302,319,309,302,0
302,335,308,303,0
302,346,305,304,0
302,348,303,305,0
302,342,301,305,0
303,331,301,305,0
304,319,301,305,0
304,306,303,304,0
304,294,306,303,0
305,286,308,303,0
305,281,311,304,0
307,278,312,306,0
308,277,312,307,0
308,280,310,307,0
308,285,308,307,0
307,291,307,306,0
307,299,306,307,0
307,307,305,307,0
306,313,305,306,0
305,318,305,305,0
304,321,305,304,0
303,325,305,303,0
303,328,305,303,0
303,331,305,304,0
303,335,306,305,0
305,339,307,307,0
305,342,308,308,0
305,342,308,309,0
304,338,308,310,0
303,330,307,311,0
304,320,306,311,0
305,312,306,311,0
307,309,305,310,0
308,310,305,310,0
309,314,304,309,0
309,316,303,309,0
309,313,302,307,0
308,305,302,306,0
307,296,302,306,0
307,285,302,307,0
307,277,302,309,0
308,274,303,311,0
309,277,305,312,0
310,282,307,312,0
311,290,308,310,0
311,300,308,307,0
309,311,306,305,0
307,317,304,303,0
305,321,302,302,0
304,322,302,303,0
304,319,301,304,0
305,314,301,305,0
306,312,302,305,0
307,316,303,306,0
308,328,303,305,0
308,347,303,304,0
308,366,301,302,0
307,380,300,300,0
307,386,300,299,0
307,373,301,298,0
307,346,303,299,0
306,315,306,302,0
305,291,308,304,0
304,275,309,305,0
302,267,309,306,0
300,265,309,306,0
301,266,310,307,0
302,267,310,307,0
303,268,310,308,0
305,269,311,307,0
306,270,311,306,0
306,271,312,306,0
307,274,314,306,0
307,280,317,306,0
307,291,319,308,0
307,306,319,310,0
307,322,317,310,0
306,335,314,310,0
306,345,311,309,0
307,348,309,308,0
307,344,308,309,0
307,338,308,309,0
308,330,309,309,0
307,320,310,308,0
305,314,311,307,0
303,313,311,305,0
302,319,311,305,0
301,326,311,305,0
301,328,311,305,0
301,321,310,306,0
301,306,309,306,0
303,293,309,306,0
306,283,309,306,0
308,280,310,306,0
310,285,308,307,0
309,292,307,306,0
308,297,306,305,0
305,301,306,304,0
304,304,306,302,0
304,304,306,301,0
306,302,307,301,0
308,298,308,301,0
309,290,307,299,0
309,282,304,298,0
307,279,300,296,0
306,281,296,295,0
304,288,294,294,0
303,300,292,294,0
302,311,293,294,0
301,315,295,293,0
299,310,299,293,0
298,303,303,294,0
297,297,307,297,0
299,293,310,301,0
301,292,314,305,0
302,293,315,307,0
303,297,315,309,0
303,300,314,308,0
303,301,312,308,0
301,299,309,307,0
301,294,307,305,0
300,289,305,305,0
300,286,304,304,0
300,284,304,304,0
300,284,304,303,0
301,288,305,303,0
302,293,305,303,0
303,299,306,304,0
304,303,306,304,0
305,306,305,305,0
306,309,306,307,0
306,314,307,307,0
307,318,308,308,0
307,323,308,309,0
307,326,309,310,0
306,326,308,310,0
306,324,307,308,0
305,321,306,307,0
305,317,305,307,0
305,314,304,307,0
306,312,304,308,0
307,313,303,308,0
308,317,303,308,0
309,321,303,307,0
309,321,302,306,0
307,322,301,306,0
306,326,300,306,0
306,332,300,307,0
306,339,301,307,0
306,343,303,308,0
306,344,305,309,0
306,340,306,309,0
306,332,307,308,0
306,320,309,307,0
307,308,310,306,0
308,296,311,306,0
308,287,311,304,0
307,281,309,302,0
306,277,307,300,0
305,276,305,300,0
304,278,304,301,0
304,280,304,303,0
304,283,304,305,0
304,289,307,306,0
305,299,310,307,0
306,310,313,308,0
307,321,315,309,0
308,330,316,309,0
307,329,315,309,0
307,320,313,309,0
306,313,312,309,0
306,313,311,309,0
306,318,309,309,0
306,326,307,308,0
306,335,304,306,0
305,339,301,303,0
303,330,300,299,0
302,310,302,296,0
302,289,305,295,0
303,273,309,297,0
305,264,311,300,0
306,260,311,304,0
307,263,309,307,0
306,269,307,309,0
304,278,306,311,0
303,287,306,313,0
302,294,307,314,0
301,299,309,315,0
301,302,312,314,0
300,303,314,314,0
301,303,317,315,0
303,301,320,316,0
306,301,321,317,0
309,301,321,317,0
310,304,319,317,0
312,308,318,317,0
312,311,317,316,0
312,309,314,313,0
312,301,313,311,0
313,289,311,310,0
314,278,311,310,0
314,270,312,310,0
314,267,311,311,0
312,269,311,310,0
309,277,309,310,0
305,293,308,310,0
302,313,306,310,0
300,330,304,309,0
299,340,303,308,0
300,341,302,307,0
302,336,302,306,0
304,331,304,307,0
307,328,306,307,0
308,327,307,307,0
307,324,307,306,0
306,319,308,305,0
307,315,309,306,0
308,314,310,307,0
309,319,311,305,0
310,328,311,302,0
310,341,311,299,0
310,352,312,297,0
310,354,312,296,0
309,343,311,296,0
307,323,309,297,0
305,304,309,299,0
304,291,309,302,0
304,283,308,303,0
304,278,307,304,0
303,276,305,305,0
302,277,304,306,0
302,282,304,306,0
302,287,304,307,0
303,292,305,307,0
302,294,305,306,0
302,294,307,305,0
302,296,309,303,0
302,300,311,302,0
302,309,312,302,0
303,321,311,303,0
304,337,311,302,0
305,354,310,302,0
307,366,309,301,0
308,367,309,300,0
308,357,309,299,0
308,341,310,299,0
308,325,311,301,0
308,308,312,302,0
307,295,311,303,0
306,285,310,304,0
306,278,309,305,0
306,274,309,307,0
308,273,308,309,0
309,274,307,311,0
310,278,307,312,0
310,285,306,311,0
310,296,305,310,0
309,309,304,308,0
307,323,302,305,0
305,330,300,302,0
303,328,299,299,0
302,315,298,297,0
302,298,298,295,0
303,286,300,294,0
304,278,301,295,0
304,276,302,296,0
305,279,303,298,0
306,283,302,300,0
307,286,302,302,0
307,286,302,305,0
309,288,303,307,0
311,293,306,309,0
313,299,308,311,0
313,301,309,311,0
311,302,310,311,0
310,304,310,311,0
307,309,308,309,0
303,318,306,306,0
300,331,304,305,0
300,347,303,305,0
301,358,304,306,0
302,360,304,308,0
304,352,305,309,0
304,332,307,309,0
306,308,308,310,0
307,288,310,310,0
308,277,312,310,0
309,272,312,311,0
309,269,311,309,0
307,268,310,308,0
305,271,308,307,0
303,278,307,306,0
301,288,306,305,0
299,302,305,305,0
298,315,305,306,0
300,324,305,307,0
301,327,305,308,0
304,328,306,309,0
307,333,306,311,0
308,344,304,313,0
309,356,300,313,0
306,359,297,312,0
303,353,296,310,0
301,343,298,309,0
300,332,302,307,0
301,321,305,307,0
301,311,307,309,0
302,304,309,311,0
303,299,310,313,0
305,295,310,314,0
306,294,309,313,0
307,296,309,313,0
309,298,309,313,0
309,297,310,312,0
310,290,310,312,0
312,282,310,312,0
314,276,310,312,0
315,279,309,312,0
316,293,308,313,0
314,312,306,314,0
312,325,303,315,0
310,328,301,314,0
308,324,299,313,0
308,318,299,311,0
308,311,300,308,0
309,308,301,306,0
309,312,302,305,0
309,320,302,305,0
310,322,302,305,0
309,317,302,304,0
306,304,302,303,0
304,291,304,302,0
302,283,307,301,0
302,283,310,302,0
303,286,313,303,0
304,290,314,303,0
305,296,313,303,0
305,300,310,303,0
305,300,306,302,0
304,296,303,300,0
303,291,301,298,0
302,285,301,297,0
302,282,303,298,0
302,280,305,300,0
302,279,306,301,0
303,279,306,301,0
303,280,305,302,0
304,279,303,303,0
304,277,302,306,0
306,274,302,309,0
308,271,303,311,0
309,272,304,313,0
308,278,305,314,0
308,288,305,314,0
307,295,304,313,0
308,302,304,311,0
309,307,303,309,0
308,310,302,307,0
308,316,301,306,0
307,325,299,305,0
307,336,297,304,0
308,345,296,304,0
307,349,294,304,0
307,346,293,304,0
306,340,292,306,0
307,337,292,308,0
307,336,293,310,0
306,338,295,311,0
305,342,297,311,0
304,348,300,310,0
304,356,302,310,0
305,360,304,311,0
306,357,307,311,0
307,350,308,312,0
308,342,309,312,0
308,333,310,313,0
308,326,311,314,0
307,319,310,314,0
306,308,309,314,0
305,296,307,313,0
304,286,305,313,0
304,284,303,312,0
304,290,302,312,0
306,304,303,312,0
308,322,303,311,0
309,342,303,310,0
310,356,301,308,0
310,359,300,305,0
309,349,299,303,0
309,333,299,302,0
309,314,300,302,0
309,294,299,301,0
310,275,299,302,0
311,262,298,302,0
311,255,297,304,0
311,254,297,305,0
311,255,299,307,0
312,261,302,309,0
313,271,304,311,0
313,286,305,312,0
312,302,305,312,0
309,312,303,311,0
305,314,299,309,0
302,310,296,307,0
299,307,295,306,0
297,304,295,306,0
296,303,296,306,0
296,300,299,307,0
296,298,302,308,0
297,298,304,310,0
299,300,306,312,0
301,301,306,313,0
302,300,306,313,0
303,296,304,313,0
303,291,303,311,0
304,284,302,309,0
303,278,303,306,0
304,274,305,305,0
305,271,308,305,0
307,271,311,306,0
308,274,311,308,0
307,280,310,310,0
306,287,308,312,0
304,293,305,314,0
303,297,304,314,0
302,301,302,315,0
301,306,301,314,0
302,310,302,313,0
303,315,302,313,0
305,320,302,312,0
305,326,302,310,0
304,332,302,307,0
303,336,302,304,0
303,339,302,301,0
304,340,303,300,0
305,340,304,299,0
307,339,305,299,0
308,338,305,299,0
309,339,305,298,0
308,341,302,296,0
306,340,297,294,0
303,335,291,291,0
301,331,286,288,0
300,331,283,287,0
300,331,283,290,0
301,330,285,295,0
302,321,288,300,0
302,308,291,303,0
302,293,297,307,0
303,282,305,309,0
304,276,313,312,0
305,279,319,315,0
306,287,321,318,0
307,298,320,319,0
307,307,318,320,0
307,314,317,321,0
308,316,316,321,0
308,314,314,321,0
309,314,313,321,0
310,316,313,322,0
310,314,312,322,0
311,304,313,322,0
311,293,313,321,0
312,284,313,320,0
312,281,313,319,0
312,285,312,319,0
313,294,311,319,0
313,307,310,320,0
313,325,310,322,0
313,344,311,323,0
312,353,310,321,0
309,349,308,318,0
306,338,306,315,0
303,323,304,312,0
300,304,301,310,0
298,288,299,308,0
296,275,298,307,0
296,268,298,307,0
297,267,299,307,0
299,269,300,307,0
301,272,302,307,0
302,275,303,308,0
302,278,304,311,0
303,281,305,313,0
304,283,305,315,0
305,283,306,317,0
306,281,306,319,0
307,279,306,320,0
307,276,306,320,0
307,275,306,319,0
307,278,306,318,0
308,288,305,317,0
308,308,304,316,0
308,335,303,314,0
308,360,303,312,0
309,375,303,310,0
308,374,304,308,0
305,356,304,306,0
303,331,303,306,0
302,308,302,305,0
301,291,301,305,0
301,281,302,306,0
302,274,304,308,0
303,268,307,309,0
304,263,309,310,0
304,263,309,310,0
305,269,308,310,0
305,279,307,310,0
304,289,307,310,0
304,299,306,309,0
304,306,305,309,0
304,311,304,309,0
304,313,303,309,0
303,315,302,310,0
302,317,301,310,0
302,319,301,310,0
302,318,300,308,0
302,312,300,306,0
303,302,301,304,0
304,292,301,303,0
305,286,300,303,0
306,287,301,303,0
308,295,303,305,0
310,307,305,307,0
311,318,307,309,0
312,324,307,311,0
313,324,306,313,0
314,316,303,314,0
314,303,301,315,0
313,291,299,315,0
311,281,299,315,0
308,275,302,314,0
306,277,306,314,0
305,283,310,313,0
303,288,311,312,0
302,293,311,310,0
301,298,310,308,0
300,305,308,308,0
301,312,305,308,0
302,319,304,310,0
303,325,304,311,0
304,329,304,313,0
304,329,304,313,0
303,327,304,313,0
302,323,305,313,0
302,320,306,315,0
302,317,307,316,0
303,318,307,316,0
303,322,307,314,0
303,328,307,312,0
305,329,307,310,0
306,323,307,307,0
307,311,307,306,0
306,302,306,305,0
305,302,304,304,0
304,308,302,302,0
303,315,302,300,0
301,317,302,298,0
299,311,300,298,0
298,297,300,298,0
297,283,300,299,0
298,272,301,301,0
299,267,301,304,0
301,267,300,305,0
302,270,299,305,0
302,273,297,305,0
303,276,296,305,0
303,276,295,305,0
304,275,295,305,0
306,275,297,306,0
309,282,299,308,0
311,292,301,312,0
312,306,303,315,0
310,316,304,316,0
308,320,303,315,0
306,318,303,313,0
304,314,303,312,0
302,310,304,309,0
299,304,306,308,0
297,297,307,308,0
296,290,307,308,0
295,285,307,308,0
296,280,307,309,0
297,277,307,309,0
298,277,306,310,0
300,287,306,311,0
301,303,307,313,0
302,325,307,313,0
302,352,307,313,0
304,378,306,313,0
306,396,306,313,0
308,401,305,313,0
308,391,304,313,0
307,366,303,312,0
305,335,302,310,0
303,306,303,308,0
302,284,304,306,0
302,272,306,305,0
303,266,307,305,0
305,268,309,305,0
306,276,309,306,0
306,290,309,306,0
305,308,307,306,0
303,330,304,307,0
301,349,302,307,0
300,362,302,307,0
298,363,302,308,0
297,352,303,308,0
296,335,304,308,0
296,317,305,308,0
295,301,306,308,0
295,287,305,307,0
295,276,305,305,0
297,270,304,302,0
298,268,303,299,0
299,269,301,299,0
299,271,300,299,0
299,270,298,300,0
299,270,296,301,0
298,270,296,301,0
299,272,297,301,0
300,277,298,301,0
300,283,299,302,0
301,292,300,303,0
301,302,300,305,0
301,312,301,306,0
301,319,303,307,0
301,320,304,308,0
301,316,305,309,0
302,309,305,309,0
304,301,305,309,0
305,297,305,310,0
307,299,306,313,0
309,310,306,315,0
311,325,306,318,0
312,340,306,320,0
311,353,306,321,0
311,363,306,322,0
309,364,306,321,0
307,352,304,318,0
305,334,303,314,0
304,316,302,312,0
305,303,301,310,0
305,294,301,309,0
305,286,301,309,0
306,278,301,310,0
307,268,301,310,0
308,258,301,310,0
309,253,302,309,0
310,258,303,309,0
312,275,303,307,0
312,297,303,305,0
311,314,303,303,0
310,321,303,300,0
307,312,303,298,0
304,294,302,296,0
303,277,302,295,0
302,268,301,294,0
302,267,299,291,0
302,272,298,290,0
304,285,297,290,0
306,303,296,291,0
308,323,296,295,0
311,338,298,299,0
313,341,300,304,0
313,332,304,309,0
312,318,307,312,0
309,306,310,314,0
307,301,312,317,0
306,300,313,318,0
306,301,312,318,0
305,302,310,317,0
305,302,308,316,0
305,302,309,316,0
305,303,311,316,0
305,303,313,316,0
306,303,315,317,0
306,303,315,317,0
306,302,314,317,0
306,301,313,317,0
306,301,312,317,0
305,302,311,316,0
306,306,309,316,0
307,312,308,315,0
309,317,306,315,0
310,321,305,315,0
310,323,305,316,0
311,321,305,316,0
312,313,308,316,0
313,303,311,316,0
312,297,312,315,0
310,297,312,313,0
306,304,310,312,0
304,314,308,309,0
301,324,306,308,0
301,331,304,306,0
300,331,303,306,0
301,325,303,307,0
301,314,303,308,0
301,300,304,308,0
301,290,304,309,0
303,285,305,309,0
303,284,306,310,0
305,286,306,311,0
306,289,306,313,0
306,290,306,313,0
305,290,305,313,0
305,293,304,314,0
304,302,304,315,0
305,314,305,315,0
306,327,305,315,0
306,336,305,314,0
306,336,305,313,0
306,328,304,313,0
306,316,304,312,0
306,304,304,311,0
306,290,304,310,0
305,277,304,309,0
305,268,303,308,0
306,269,302,308,0
308,282,301,310,0
308,301,302,311,0
308,319,303,312,0
307,328,305,312,0
306,325,307,312,0
305,313,309,313,0
305,299,310,312,0
304,290,309,312,0
304,290,307,312,0
306,299,305,313,0
309,313,304,315,0
310,329,303,316,0
310,339,303,316,0
309,337,302,314,0
308,322,301,311,0
306,301,301,308,0
304,281,301,305,0
304,268,301,303,0
303,260,301,302,0
304,257,301,302,0
304,258,301,302,0
305,263,300,302,0
305,272,299,302,0
305,284,299,303,0
305,294,298,304,0
305,296,297,305,0
305,291,295,304,0
305,286,293,302,0
307,284,293,300,0
308,284,293,298,0
308,287,294,297,0
308,291,295,296,0
307,299,298,296,0
305,309,300,297,0
305,320,302,298,0
305,330,302,300,0
306,337,302,303,0
307,339,301,305,0
307,335,302,307,0
308,328,303,310,0
309,322,306,312,0
310,317,307,314,0
311,316,308,315,0
313,316,308,315,0
314,317,308,315,0
315,320,308,315,0
315,326,308,315,0
316,334,308,316,0
316,340,307,317,0
316,337,305,316,0
314,327,304,316,0
311,315,304,315,0
308,305,304,315,0
307,299,304,313,0
305,296,303,311,0
304,294,302,310,0
303,293,302,310,0
303,292,302,310,0
304,289,302,309,0
305,286,302,309,0
306,284,301,309,0
306,284,299,310,0
306,285,297,311,0
306,285,297,313,0
306,285,299,314,0
306,286,301,314,0
307,291,303,314,0
307,297,304,313,0
307,302,305,311,0
308,305,306,309,0
308,307,305,308,0
307,310,303,307,0
307,315,302,307,0
306,322,303,307,0
306,328,304,307,0
306,334,306,307,0
307,339,307,308,0
306,342,305,309,0
306,348,304,309,0
306,356,304,308,0
306,359,304,308,0
306,351,305,307,0
306,327,305,306,0
306,295,306,306,0
306,265,306,308,0
307,245,306,311,0
307,235,306,313,0
307,233,305,313,0
307,239,305,313,0
308,251,305,312,0
309,268,305,311,0
309,284,305,311,0
309,297,304,310,0
310,304,302,310,0
310,306,300,310,0
310,309,299,310,0
310,314,299,309,0
311,322,300,310,0
311,333,302,311,0
311,340,306,312,0
310,340,310,312,0
308,335,313,310,0
306,330,313,309,0
305,326,313,309,0
304,319,311,309,0
303,306,310,309,0
303,293,308,310,0
302,283,307,310,0
302,281,307,312,0
302,286,308,313,0
303,298,308,315,0
304,310,308,317,0
303,317,307,317,0
302,315,306,316,0
301,308,305,315,0
301,301,304,313,0
301,296,303,311,0
300,292,302,308,0
298,289,301,305,0
297,287,300,302,0
298,287,301,301,0
299,290,302,300,0
299,293,303,300,0
300,297,304,300,0
300,305,304,302,0
301,314,304,305,0
301,319,303,306,0
301,319,304,308,0
302,314,304,309,0
303,309,306,311,0
304,305,306,311,0
305,303,307,312,0
306,302,307,312,0
306,302,305,312,0
306,302,303,311,0
305,303,302,310,0
305,302,299,308,0
303,297,297,304,0
301,294,295,300,0
299,297,295,298,0
299,307,297,298,0
301,324,301,300,0
304,346,306,304,0
307,368,312,309,0
309,379,316,312,0
307,369,318,313,0
306,348,319,314,0
304,327,318,315,0
303,309,317,315,0
301,296,315,313,0
300,286,313,311,0
300,279,313,309,0
300,273,312,308,0
300,270,311,307,0
300,269,310,307,0
300,269,308,306,0
301,270,307,306,0
302,272,305,305,0
303,274,305,306,0
305,280,303,307,0
306,285,302,307,0
307,290,301,306,0
308,295,301,305,0
309,301,303,304,0
311,308,304,304,0
312,314,304,304,0
313,319,302,304,0
314,323,301,305,0
314,323,302,306,0
312,314,303,306,0
310,304,307,306,0
309,295,312,306,0
309,290,316,306,0
309,286,319,305,0
309,284,318,305,0
310,284,316,305,0
310,286,313,305,0
309,287,310,304,0
309,288,309,303,0
309,289,309,302,0
309,289,311,301,0
309,290,312,300,0
309,291,312,300,0
309,297,312,299,0
308,308,311,299,0
308,323,309,300,0
308,340,309,301,0
309,360,309,303,0
310,379,310,306,0
310,393,311,307,0
309,398,310,307,0
309,394,309,306,0
307,379,308,305,0
306,359,307,304,0
304,336,306,303,0
304,315,305,303,0
304,299,305,304,0
305,292,305,305,0
305,295,306,308,0
307,302,307,310,0
307,309,308,312,0
307,309,309,313,0
306,299,309,313,0
306,284,307,313,0
306,270,307,313,0
306,262,308,313,0
306,258,309,314,0
306,258,309,314,0
307,259,308,314,0
307,259,306,312,0
307,259,303,308,0
306,262,299,305,0
304,269,296,302,0
302,279,296,299,0
301,291,299,299,0
302,304,304,300,0
302,312,308,303,0
303,314,309,305,0
305,315,309,307,0
307,317,309,309,0
308,320,309,310,0
310,320,309,311,0
310,315,307,311,0
310,305,305,309,0
309,299,303,306,0
307,296,299,303,0
305,297,296,300,0
304,298,293,298,0
304,297,291,297,0
305,294,290,296,0
306,295,291,297,0
307,299,292,299,0
307,310,294,302,0
306,322,298,306,0
306,328,304,309,0
306,327,310,312,0
306,322,314,314,0
307,319,315,315,0
306,314,312,314,0
304,310,306,313,0
302,306,301,311,0
301,302,297,309,0
300,296,296,308,0
300,290,298,308,0
301,286,300,309,0
302,283,303,311,0
303,282,305,313,0
304,282,307,315,0
306,287,307,316,0
306,297,307,316,0
307,311,305,315,0
307,325,305,315,0
308,339,305,315,0
309,345,306,314,0
308,341,306,312,0
306,337,307,311,0
305,336,306,311,0
304,336,306,310,0
304,335,307,309,0
304,333,306,308,0
304,329,306,308,0
305,323,306,308,0
305,316,306,308,0
307,305,305,307,0
308,289,305,305,0
309,272,306,305,0
311,264,308,306,0
313,265,312,306,0
313,273,314,304,0
312,282,314,303,0
311,290,313,302,0
308,295,312,302,0
306,298,310,301,0
306,300,309,302,0
305,300,308,302,0
305,301,307,302,0
304,304,306,302,0
304,312,303,303,0
304,325,301,305,0
304,343,299,307,0
304,356,300,309,0
303,361,301,310,0
304,358,304,311,0
305,348,306,312,0
306,336,309,313,0
307,324,310,313,0
306,312,310,312,0
306,298,309,311,0
305,287,307,310,0
305,278,305,309,0
305,269,303,309,0
305,260,302,308,0
305,255,301,308,0
306,259,302,307,0
308,270,304,308,0
310,282,305,308,0
311,290,306,308,0
310,295,306,306,0
308,297,304,305,0
304,300,303,303,0
302,303,302,303,0
300,304,301,304,0
300,305,300,304,0
301,307,299,305,0
302,310,298,306,0
303,313,299,307,0
304,314,299,308,0
305,311,300,309,0
306,305,299,310,0
307,297,299,310,0
309,292,299,309,0
309,290,299,308,0
310,290,300,306,0
308,290,300,303,0
305,292,300,301,0
302,293,300,301,0
302,292,301,302,0
302,290,302,306,0
303,288,302,309,0
304,287,302,312,0
305,289,301,312,0
306,295,302,312,0
307,305,303,311,0
307,314,304,311,0
307,321,303,311,0
306,327,301,312,0
306,331,297,313,0
305,332,294,312,0
305,331,295,312,0
304,329,297,313,0
304,328,301,314,0
304,327,306,316,0
304,329,311,317,0
307,334,315,319,0
309,344,317,320,0
312,359,317,321,0
313,372,315,322,0
313,370,312,321,0
310,353,310,318,0
307,332,309,315,0
305,313,308,312,0
303,299,307,310,0
302,287,306,308,0
302,279,306,306,0
302,275,305,304,0
302,277,305,303,0
301,284,305,303,0
301,294,305,303,0
301,307,305,303,0
301,323,306,303,0
302,342,306,303,0
304,364,305,303,0
305,385,304,303,0
308,398,304,304,0
310,401,306,306,0
311,390,308,307,0
311,366,308,310,0
310,332,308,311,0
310,298,309,312,0
309,270,308,312,0
308,255,307,312,0
307,249,306,311,0
307,250,304,310,0
307,253,303,311,0
307,257,302,311,0
306,259,301,311,0
305,261,300,311,0
304,264,300,311,0
304,268,301,311,0
304,274,304,312,0
305,280,308,314,0
307,287,311,316,0
309,292,312,316,0
309,296,311,315,0
308,299,310,314,0
307,301,308,312,0
305,301,306,310,0
304,300,303,309,0
304,298,302,309,0
305,296,301,309,0
306,297,300,310,0
306,302,299,311,0
306,310,299,311,0
306,318,300,312,0
306,323,302,313,0
307,321,303,313,0
308,314,303,313,0
310,308,302,314,0
311,306,302,314,0
311,310,301,314,0
310,317,301,313,0
308,320,300,312,0
307,319,298,310,0
306,314,295,309,0
305,308,292,309,0
303,304,291,307,0
302,306,291,306,0
301,315,292,306,0
302,329,295,306,0
302,342,300,306,0
302,349,306,306,0
303,345,311,307,0
303,334,316,308,0
304,322,318,310,0
305,316,319,312,0
306,319,319,313,0
306,327,317,315,0
306,336,314,315,0
305,341,311,315,0
304,337,309,315,0
303,326,306,315,0
302,315,304,314,0
301,312,304,313,0
301,314,305,311,0
302,319,306,310,0
304,319,308,310,0
304,311,308,310,0
305,300,307,310,0
305,290,306,310,0
304,282,305,309,0
303,277,304,308,0
301,274,303,306,0
300,272,303,304,0
300,270,303,302,0
301,271,303,303,0
302,274,304,305,0
304,278,305,307,0
305,282,306,309,0
306,287,307,311,0
307,292,308,312,0
307,299,308,311,0
307,307,308,311,0
307,318,309,311,0
308,323,309,312,0
309,318,309,312,0
310,309,309,312,0
310,302,308,312,0
310,298,307,312,0
309,296,306,311,0
307,294,305,309,0
305,294,304,307,0
303,297,302,306,0
302,304,301,305,0
302,310,300,305,0
302,310,299,305,0
302,305,299,305,0
303,299,300,307,0
304,294,302,307,0
304,294,304,308,0
303,298,307,308,0
303,305,309,308,0
302,316,309,308,0
302,327,308,309,0
302,332,306,309,0
302,327,305,308,0
303,318,303,307,0
304,308,303,307,0
304,303,302,306,0
303,305,302,306,0
302,313,302,306,0
299,322,299,304,0
297,323,297,301,0
295,317,296,297,0
294,308,296,296,0
294,298,297,297,0
295,287,298,299,0
297,277,298,302,0
299,270,300,306,0
302,267,302,309,0
303,269,305,310,0
304,276,306,311,0
303,288,307,310,0
303,300,307,309,0
302,310,305,307,0
301,315,303,306,0
302,315,300,305,0
303,313,298,304,0
304,307,295,303,0
305,301,293,301,0
305,299,293,299,0
305,303,293,298,0
304,313,293,297,0
302,324,294,297,0
302,335,297,297,0
302,346,302,300,0
303,351,307,303,0
303,351,311,307,0
302,346,314,310,0
302,336,315,311,0
301,325,314,311,0
300,316,313,311,0
299,309,312,312,0
299,303,312,312,0
300,294,311,312,0
302,287,311,312,0
303,282,311,312,0
305,284,311,312,0
307,290,310,312,0
307,297,310,311,0
307,306,308,310,0
307,319,307,309,0
307,326,305,308,0
305,323,305,305,0
303,314,304,304,0
302,310,305,304,0
301,313,304,304,0
300,322,304,306,0
300,336,304,307,0
301,349,305,308,0
302,352,306,309,0
303,344,305,309,0
303,327,305,308,0
304,306,306,308,0
306,287,307,308,0
308,277,307,310,0
309,275,308,311,0
309,282,307,311,0
308,291,306,312,0
306,298,304,311,0
304,301,302,311,0
302,302,302,309,0
301,303,302,307,0
301,305,304,304,0
302,309,306,303,0
304,312,308,302,0
305,309,308,301,0
304,297,307,299,0
303,280,306,299,0
303,266,305,299,0
303,256,305,300,0
304,254,305,302,0
305,257,306,302,0
305,266,306,303,0
304,280,306,304,0
303,294,306,304,0
302,306,305,304,0
300,318,304,304,0
299,329,303,305,0
299,338,303,305,0
300,342,302,304,0
301,336,302,303,0
302,325,302,301,0
303,315,301,301,0
305,312,301,302,0
308,314,301,303,0
309,316,301,304,0
308,312,302,304,0
307,307,302,305,0
304,303,303,305,0
302,300,305,306,0
301,299,305,305,0
301,302,304,303,0
302,311,301,300,0
302,323,297,297,0
301,334,292,294,0
300,342,289,291,0
299,340,288,287,0
298,329,288,286,0
298,315,289,287,0
299,302,291,289,0
300,294,292,291,0
300,290,294,292,0
300,293,298,294,0
299,301,305,296,0
299,310,313,298,0
301,318,319,300,0
303,324,321,301,0
305,326,320,302,0
306,324,317,304,0
306,320,313,306,0
306,318,310,307,0
305,320,306,309,0
305,324,304,310,0
305,326,302,310,0
305,322,301,309,0
305,310,301,307,0
304,296,301,306,0
305,286,301,306,0
306,283,300,306,0
307,287,301,306,0
307,294,302,307,0
306,300,304,308,0
304,304,305,310,0
304,307,307,311,0
304,306,307,311,0
305,300,307,312,0
306,291,307,313,0
307,285,309,313,0
309,282,310,313,0
311,283,311,313,0
313,282,311,313,0
313,278,311,312,0
312,270,309,311,0
309,268,307,309,0
306,270,305,308,0
304,278,302,307,0
302,288,301,306,0
301,299,300,306,0
301,307,300,306,0
301,313,300,307,0
302,315,300,307,0
304,314,301,308,0
306,312,302,308,0
308,308,305,308,0
308,303,308,308,0
308,301,310,307,0
307,303,312,308,0
307,308,312,308,0
306,312,311,307,0
306,316,310,305,0
305,322,308,304,0
305,328,307,305,0
305,331,306,307,0
305,333,306,309,0
306,339,305,311,0
306,347,305,312,0
307,356,304,313,0
308,362,303,313,0
308,359,301,313,0
307,342,300,312,0
306,320,299,310,0
305,302,299,308,0
305,289,300,308,0
305,282,301,308,0
305,282,301,308,0
306,287,302,308,0
307,297,302,308,0
308,310,302,307,0
307,321,300,304,0
305,325,298,303,0
304,325,297,303,0
305,323,298,304,0
308,319,301,306,0
311,309,304,310,0
314,296,306,315,0
316,284,307,318,0
316,274,306,319,0
314,269,304,318,0
311,268,304,315,0
308,267,305,313,0
306,266,307,311,0
305,266,308,310,0
305,269,308,309,0
304,274,308,309,0
303,281,307,310,0
302,289,306,310,0
302,299,306,311,0
302,308,305,312,0
303,313,305,312,0
303,314,306,313,0
304,314,306,313,0
303,314,306,312,0
303,311,307,311,0
304,306,307,308,0
304,298,307,305,0
305,291,308,302,0
306,286,308,299,0
307,282,308,297,0
307,282,308,297,0
307,285,309,297,0
307,291,310,298,0
306,299,310,300,0
305,310,309,302,0
305,319,308,303,0
305,326,307,304,0
305,333,307,306,0
307,342,308,307,0
308,352,309,309,0
309,357,311,309,0
309,354,312,308,0
308,341,311,307,0
306,322,311,307,0
305,301,310,307,0
305,284,310,309,0
305,273,310,310,0
305,269,309,311,0
305,269,309,311,0
307,273,309,311,0
308,279,308,312,0
309,287,308,313,0
309,301,305,313,0
309,319,303,312,0
308,337,301,310,0
306,348,300,308,0
303,347,300,306,0
301,336,302,304,0
300,319,304,303,0
299,304,306,303,0
299,294,308,304,0
299,288,309,305,0
299,285,310,307,0
300,284,310,310,0
301,283,310,311,0
301,283,310,312,0
302,285,310,314,0
303,286,310,315,0
304,288,310,315,0
305,292,310,315,0
307,301,310,314,0
308,313,310,313,0
308,322,308,310,0
307,327,306,309,0
306,325,305,308,0
305,317,306,308,0
306,307,306,309,0
307,299,306,311,0
307,294,306,312,0
307,293,305,313,0
308,294,304,311,0
307,296,303,308,0
307,297,301,304,0
305,297,299,300,0
304,295,298,297,0
303,294,299,296,0
303,296,301,296,0
304,300,304,299,0
306,301,306,304,0
307,300,307,309,0
308,299,307,312,0
309,301,306,315,0
309,306,305,317,0
309,309,305,317,0
308,311,305,316,0
308,312,304,315,0
307,316,304,313,0
307,323,303,311,0
307,336,302,309,0
307,347,300,307,0
307,350,299,305,0
307,339,298,303,0
306,321,298,301,0
305,303,298,300,0
306,292,300,299,0
308,288,304,299,0
308,287,307,299,0
309,286,310,299,0
310,288,312,300,0
310,291,311,300,0
309,293,309,301,0
308,294,307,302,0
308,294,307,304,0
309,295,308,307,0
310,297,307,310,0
309,296,306,313,0
309,292,305,314,0
308,286,305,314,0
308,279,306,313,0
308,274,307,313,0
309,270,308,313,0
311,269,308,312,0
312,271,309,313,0
312,278,310,313,0
313,288,310,314,0
313,301,310,315,0
313,312,310,316,0
314,321,311,316,0
315,325,311,316,0
316,327,311,316,0
316,330,309,315,0
314,337,307,313,0
312,347,306,311,0
310,356,306,309,0
308,360,307,307,0
308,354,309,305,0
309,336,312,305,0
309,314,313,305,0
309,296,313,304,0
308,286,311,305,0
308,281,309,305,0
309,281,306,306,0
310,282,304,307,0
311,282,303,308,0
311,282,303,308,0
312,281,303,308,0
314,282,303,308,0
314,288,301,308,0
315,297,301,308,0
315,307,300,307,0
315,316,298,306,0
314,327,296,306,0
314,335,296,305,0
313,338,298,305,0
313,335,300,304,0
312,330,301,304,0
311,326,301,305,0
310,324,302,306,0
309,323,302,306,0
308,321,302,306,0
307,316,302,306,0
307,308,303,307,0
308,299,304,308,0
309,290,305,310,0
309,287,305,312,0
309,290,305,313,0
309,298,304,313,0
309,307,301,312,0
309,316,298,309,0
309,326,297,306,0
309,336,298,305,0
309,342,300,303,0
307,340,303,302,0
305,333,306,301,0
304,326,306,301,0
303,322,306,301,0
303,320,304,302,0
303,320,303,303,0
304,322,303,305,0
304,323,303,305,0
303,318,303,304,0
301,305,303,301,0
300,290,304,300,0
299,278,306,300,0
300,272,308,301,0
301,270,308,303,0
302,270,308,304,0
303,272,308,306,0
304,276,307,307,0
305,280,306,308,0
306,283,305,309,0
307,285,305,310,0
307,287,306,311,0
308,288,306,312,0
309,291,306,313,0
309,294,307,314,0
310,297,308,315,0
310,298,309,316,0
309,297,309,316,0
308,294,308,317,0
308,293,307,317,0
307,295,308,316,0
307,301,308,315,0
307,311,308,313,0
307,323,307,312,0
307,332,305,310,0
307,334,304,308,0
307,330,302,306,0
307,326,300,305,0
307,323,299,305,0
307,321,299,306,0
307,320,300,308,0
307,319,300,310,0
308,319,301,312,0
309,323,301,313,0
310,329,302,314,0
311,332,302,314,0
311,332,301,312,0
310,326,300,310,0
308,314,301,308,0
307,301,303,307,0
305,294,304,306,0
304,293,305,306,0
305,297,306,306,0
305,300,306,306,0
306,304,307,308,0
306,304,308,310,0
306,303,308,312,0
307,302,308,314,0
307,300,308,316,0
307,296,307,317,0
308,294,306,318,0
309,298,305,319,0
311,311,304,319,0
313,331,305,318,0
314,353,305,318,0
314,370,305,316,0
313,370,303,312,0
310,355,299,308,0
307,338,295,305,0
305,324,293,303,0
304,316,293,303,0
304,307,295,304,0
303,296,299,304,0
304,286,303,304,0
306,280,305,306,0
308,277,305,306,0
309,274,303,306,0
308,272,300,305,0
306,270,299,304,0
305,270,301,305,0
306,271,306,306,0
306,275,309,306,0
306,279,309,305,0
305,280,306,304,0
304,281,303,303,0
303,281,302,302,0
303,282,302,302,0
304,285,304,304,0
305,290,306,306,0
307,298,308,309,0
307,305,309,311,0
309,311,310,312,0
309,314,309,312,0
309,316,308,312,0
311,324,307,311,0
313,337,307,311,0
314,350,307,312,0
315,357,308,312,0
315,352,308,311,0
313,334,306,310,0
312,315,304,309,0
310,302,302,307,0
309,301,301,305,0
308,307,301,304,0
308,313,301,304,0
307,312,301,305,0
307,305,301,308,0
307,297,302,310,0
307,286,303,312,0
307,273,303,311,0
307,265,302,312,0
307,264,300,313,0
306,269,299,313,0
306,278,298,313,0
305,290,299,314,0
305,299,299,315,0
306,307,300,314,0
307,318,300,314,0
308,333,300,313,0
309,347,299,313,0
310,352,299,312,0
309,346,298,310,0
308,334,300,308,0
306,323,303,307,0
305,314,306,306,0
305,307,308,307,0
305,302,309,308,0
305,298,308,308,0
305,294,305,308,0
306,289,302,308,0
306,286,300,307,0
306,285,299,307,0
306,286,300,307,0
307,286,300,308,0
307,287,302,309,0
307,288,301,310,0
306,288,300,310,0
305,290,299,310,0
305,291,299,310,0
305,293,299,309,0
305,295,300,308,0
305,299,300,308,0
306,304,301,309,0
306,309,303,310,0
306,311,305,310,0
305,308,308,309,0
304,302,309,307,0
302,298,310,305,0
300,296,309,304,0
300,298,307,303,0
300,304,306,303,0
301,312,305,304,0
302,319,306,305,0
303,324,305,306,0
304,328,304,307,0
305,331,303,309,0
307,336,303,310,0
308,338,302,311,0
309,336,301,312,0
310,329,301,312,0
310,318,301,312,0
310,307,300,313,0
308,299,300,313,0
307,295,299,312,0
305,292,300,311,0
303,289,301,309,0
302,287,303,308,0
301,285,304,306,0
301,285,303,303,0
301,290,301,301,0
301,295,297,300,0
302,299,293,299,0
303,302,292,300,0
304,301,293,302,0
307,297,297,305,0
310,293,301,308,0
313,293,304,309,0
315,298,306,310,0
316,308,307,312,0
314,322,306,314,0
311,330,306,316,0
307,329,306,317,0
303,322,306,316,0
301,316,305,316,0
298,316,305,317,0
297,315,305,317,0
296,312,305,315,0
296,307,304,313,0
297,301,304,312,0
298,297,304,312,0
298,295,304,312,0
300,297,303,313,0
301,300,302,314,0
303,306,302,314,0
304,314,302,314,0
304,319,301,312,0
303,317,301,309,0
302,308,300,305,0
302,297,299,303,0
302,288,298,302,0
301,283,298,301,0
301,280,298,301,0
301,279,301,301,0
302,286,304,303,0
304,301,308,307,0
306,319,310,310,0
307,330,309,313,0
307,333,307,316,0
307,326,303,318,0
306,314,300,319,0
306,304,298,320,0
306,299,300,319,0
307,299,304,319,0
307,300,309,318,0
307,301,313,316,0
306,304,314,314,0
306,310,314,313,0
306,317,313,313,0
306,322,311,312,0
305,323,308,311,0
304,321,307,309,0
304,317,307,309,0
304,314,307,308,0
305,315,307,309,0
307,322,307,310,0
309,333,307,312,0
310,342,307,313,0
310,343,307,314,0
309,334,306,313,0
306,320,307,311,0
303,308,309,311,0
301,301,312,311,0
299,297,314,311,0
299,292,314,311,0
298,286,313,311,0
298,279,310,311,0
298,273,308,311,0
300,271,308,312,0
302,271,308,311,0
303,271,308,311,0
303,273,309,310,0
302,277,309,308,0
302,285,308,307,0
302,292,308,307,0
301,299,306,307,0
301,305,305,308,0
301,309,304,308,0
301,310,303,310,0
300,310,303,311,0
299,308,304,311,0
300,304,305,310,0
301,301,307,309,0
302,300,307,308,0
304,301,307,308,0
304,300,307,309,0
304,297,306,308,0
304,295,304,307,0
304,296,302,306,0
303,297,300,304,0
302,299,301,303,0
303,305,302,303,0
305,314,304,305,0
306,325,306,307,0
307,339,307,309,0
308,352,309,312,0
309,361,311,314,0
309,363,311,315,0
308,355,310,316,0
307,336,309,314,0
305,314,309,312,0
305,293,309,309,0
305,279,308,307,0
305,270,308,305,0
305,266,308,304,0
305,267,308,304,0
305,271,306,304,0
305,278,305,304,0
304,286,303,304,0
303,291,300,305,0
302,293,297,307,0
302,297,298,308,0
304,299,300,309,0
306,303,303,310,0
309,308,305,312,0
311,313,306,313,0
311,318,306,313,0
311,328,306,313,0
311,346,308,314,0
310,366,310,315,0
309,379,314,316,0
308,380,316,318,0
307,368,317,317,0
306,344,315,316,0
304,317,311,314,0
304,296,308,313,0
305,281,307,314,0
307,273,306,317,0
308,267,303,319,0
308,265,301,321,0
309,265,301,320,0
309,270,301,318,0
307,275,302,314,0
304,281,303,310,0
301,285,305,306,0
298,290,308,303,0
296,296,309,301,0
296,301,310,300,0
297,308,310,300,0
298,315,308,301,0
299,322,306,302,0
299,331,305,303,0
300,340,304,304,0
301,347,305,305,0
302,349,305,307,0
302,343,305,308,0
301,328,304,309,0
300,309,303,308,0
300,293,303,307,0
301,280,304,308,0
303,271,306,309,0
305,266,308,311,0
308,265,309,314,0
311,269,310,315,0
312,276,309,314,0
312,285,307,314,0
312,296,305,313,0
312,311,303,313,0
312,325,301,313,0
312,338,302,313,0
313,345,303,313,0
313,344,302,313,0
313,336,300,313,0
312,328,298,313,0
311,323,296,313,0
309,321,295,313,0
307,322,294,311,0
305,324,295,309,0
302,325,298,305,0
300,318,301,302,0
298,301,304,300,0
298,282,306,299,0
299,267,308,300,0
300,261,311,303,0
301,263,312,306,0
302,273,312,309,0
302,292,311,311,0
303,313,310,312,0
304,331,310,313,0
306,341,309,313,0
307,342,310,315,0
307,335,309,315,0
306,325,308,315,0
304,318,307,315,0
302,314,306,315,0
301,314,305,314,0
299,314,305,312,0
299,314,304,311,0
299,315,304,310,0
300,313,305,310,0
301,310,306,311,0
302,305,307,311,0
303,299,308,311,0
304,293,308,310,0
305,289,309,310,0
306,289,308,309,0
307,291,306,309,0
306,292,303,309,0
305,292,300,308,0
304,295,297,308,0
304,304,295,308,0
303,317,295,309,0
304,330,299,310,0
304,338,304,311,0
305,337,308,312,0
306,328,311,313,0
307,317,312,314,0
308,309,312,314,0
308,304,310,314,0
307,300,306,313,0
304,297,303,313,0
302,295,302,313,0
301,295,302,312,0
300,295,303,312,0
300,295,303,311,0
301,296,304,311,0
302,297,306,311,0
304,301,308,312,0
306,304,310,312,0
308,304,312,313,0
309,301,314,312,0
309,299,315,312,0
308,302,315,311,0
307,312,314,311,0
306,327,312,311,0
307,345,311,311,0
307,360,310,311,0
307,364,310,310,0
307,355,309,308,0
306,338,309,306,0
305,319,308,305,0
304,303,308,304,0
303,294,308,305,0
303,295,307,306,0
303,306,306,308,0
304,321,306,310,0
307,335,306,311,0
309,341,304,312,0
310,334,302,311,0
309,319,299,310,0
307,302,297,307,0
304,289,298,306,0
301,281,302,305,0
299,277,308,304,0
299,276,315,303,0
299,276,319,303,0
300,277,321,304,0
302,282,321,305,0
303,291,320,307,0
305,304,318,309,0
305,320,316,312,0
305,336,314,313,0
304,346,311,312,0
302,351,310,311,0
301,349,308,310,0
300,340,307,309,0
300,327,306,308,0
301,315,305,306,0
302,306,305,305,0
303,302,304,303,0
305,296,302,302,0
306,291,301,301,0
307,285,301,299,0
307,281,299,297,0
306,280,296,295,0
305,279,292,293,0
304,280,290,292,0
303,285,290,293,0
302,293,294,297,0
302,301,300,302,0
302,307,306,308,0
304,310,311,311,0
306,313,313,314,0
308,312,314,315,0
309,308,313,314,0
308,303,310,314,0
307,298,309,313,0
307,293,308,313,0
307,291,309,314,0
307,292,309,315,0
308,297,308,317,0
307,309,304,317,0
306,324,301,317,0
304,338,300,316,0
302,347,300,315,0
301,350,301,315,0
301,342,302,315,0
301,329,303,316,0
301,317,305,316,0
302,309,306,315,0
303,306,307,315,0
304,304,307,314,0
304,301,307,312,0
304,297,306,310,0
304,292,306,308,0
303,290,307,307,0
304,290,307,306,0
305,292,307,307,0
305,294,307,308,0
306,295,307,309,0
307,297,307,310,0
309,305,308,311,0
310,319,307,311,0
312,337,307,311,0
313,353,307,311,0
312,359,307,310,0
312,355,308,310,0
312,348,309,309,0
312,342,309,308,0
313,338,309,307,0
314,331,309,306,0
314,318,309,305,0
314,300,308,306,0
313,282,307,306,0
312,270,306,306,0
311,265,306,305,0
311,266,306,304,0
311,271,305,303,0
311,277,306,303,0
310,283,309,303,0
309,288,314,304,0
309,291,319,305,0
310,290,322,307,0
310,284,323,308,0
310,278,321,309,0
310,274,318,309,0
310,279,316,308,0
311,291,314,307,0
311,306,313,307,0
311,319,312,307,0
311,323,311,307,0
310,318,310,307,0
309,309,309,307,0
309,298,308,307,0
309,292,308,307,0
310,292,308,308,0
312,298,309,309,0
314,307,309,310,0
315,318,309,310,0
316,322,307,310,0
315,318,306,310,0
314,314,305,310,0
314,318,304,310,0
313,334,304,310,0
312,355,303,310,0
309,373,302,311,0
307,380,301,311,0
304,376,301,310,0
302,362,303,310,0
301,347,306,310,0
300,330,307,310,0
300,311,306,308,0
298,292,304,306,0
297,277,301,304,0
298,270,300,303,0
299,268,301,303,0
302,272,304,305,0
305,278,308,308,0
307,285,311,311,0
309,293,312,314,0
310,303,312,315,0
311,310,311,315,0
313,310,310,314,0
315,304,309,312,0
318,295,309,311,0
321,288,309,309,0
322,287,308,309,0
321,291,306,309,0
317,297,305,308,0
313,308,305,307,0
309,319,305,306,0
305,325,304,306,0
301,325,303,305,0
299,323,303,305,0
299,323,304,306,0
300,325,304,306,0
301,325,305,307,0
302,322,306,308,0
302,316,307,310,0
303,310,308,312,0
304,308,309,313,0
305,308,310,314,0
305,310,310,314,0
305,314,310,314,0
304,315,308,314,0
303,313,306,313,0
303,308,305,313,0
303,303,303,311,0
303,302,301,310,0
303,304,300,308,0
303,310,300,308,0
302,317,302,307,0
302,323,307,306,0
301,326,312,305,0
302,323,316,306,0
303,315,319,307,0
304,305,320,308,0
306,297,320,309,0
307,292,320,310,0
307,288,317,310,0
307,286,315,309,0
307,287,314,308,0
308,290,313,309,0
309,295,314,310,0
310,300,314,309,0
311,301,314,309,0
311,298,312,308,0
311,296,310,307,0
311,299,309,307,0
312,307,307,307,0
313,317,306,307,0
313,322,304,307,0
313,318,302,307,0
311,307,302,307,0
310,297,302,308,0
309,292,304,310,0
309,294,305,312,0
310,302,307,314,0
310,311,307,314,0
310,316,306,313,0
310,319,307,312,0
310,319,309,311,0
309,320,312,309,0
308,321,314,309,0
306,324,316,308,0
303,328,315,309,0
302,332,313,310,0
303,335,311,312,0
304,334,309,314,0
305,324,308,314,0
305,308,304,314,0
303,291,301,313,0
300,279,299,310,0
299,272,298,307,0
298,267,298,305,0
298,263,297,302,0
298,261,296,301,0
299,265,296,302,0
300,275,298,303,0
303,291,301,306,0
305,309,305,310,0
307,325,309,313,0
309,332,311,316,0
309,329,312,318,0
309,322,311,319,0
309,319,311,319,0
309,321,311,320,0
308,322,310,320,0
308,315,310,318,0
307,302,309,316,0
307,291,309,314,0
307,286,309,313,0
307,285,309,312,0
307,286,308,311,0
307,288,307,310,0
307,288,308,309,0
306,287,307,308,0
306,286,307,308,0
305,284,307,309,0
305,286,308,309,0
306,297,309,310,0
307,314,310,311,0
310,331,311,312,0
311,343,312,312,0
312,343,312,312,0
312,334,311,312,0
312,326,311,311,0
312,324,311,310,0
310,324,310,308,0
309,324,309,307,0
308,319,307,307,0
308,309,306,307,0
308,299,306,307,0
308,292,307,308,0
309,289,307,310,0
310,290,306,313,0
311,289,306,314,0
311,287,304,315,0
312,284,303,315,0
313,283,302,313,0
312,284,300,311,0
311,287,300,310,0
310,291,302,309,0
310,297,307,309,0
310,304,311,311,0
312,310,314,313,0
314,316,316,314,0
315,318,316,317,0
315,313,315,317,0
313,302,312,317,0
310,291,310,317,0
307,285,307,316,0
305,283,305,315,0
304,285,304,313,0
304,288,305,312,0
304,294,305,312,0
305,298,304,312,0
306,301,304,311,0
306,304,306,310,0
306,309,307,311,0
307,316,308,311,0
307,324,309,312,0
308,331,308,313,0
309,333,308,313,0
309,331,307,312,0
309,330,305,312,0
309,328,303,310,0
309,322,301,309,0
308,313,300,308,0
308,304,299,307,0
308,297,298,307,0
307,290,298,309,0
306,284,300,309,0
305,281,304,311,0
305,284,309,312,0
305,290,312,313,0
304,298,314,314,0
304,304,315,313,0
303,305,314,313,0
302,300,313,313,0
302,295,310,313,0
301,294,308,314,0
301,298,307,315,0
302,307,308,315,0
303,318,309,314,0
304,328,309,313,0
305,333,308,312,0
305,329,307,310,0
306,317,307,308,0
306,304,306,307,0
308,294,307,307,0
310,288,308,308,0
311,287,309,310,0
313,292,312,312,0
314,296,315,313,0
313,292,316,313,0
310,282,316,312,0
307,273,315,311,0
304,271,312,310,0
301,274,308,309,0
299,281,305,308,0
298,287,300,306,0
298,292,297,305,0
297,297,294,303,0
298,299,294,302,0
299,300,296,303,0
302,300,299,305,0
304,299,301,308,0
306,297,305,310,0
308,295,308,309,0
308,292,310,306,0
308,290,312,305,0
308,292,312,305,0
308,299,311,305,0
307,312,310,305,0
307,329,310,306,0
307,345,311,308,0
305,357,312,309,0
304,362,312,309,0
302,359,311,309,0
301,349,310,310,0
300,335,308,310,0
299,323,307,312,0
300,312,307,314,0
300,304,307,315,0
300,298,307,314,0
301,293,306,313,0
301,289,306,311,0
303,285,305,308,0
304,280,305,306,0
306,276,305,304,0
307,273,305,303,0
308,274,304,303,0
308,281,304,304,0
308,294,302,305,0
307,311,301,305,0
306,330,300,304,0
304,344,300,303,0
304,352,302,304,0
304,353,305,305,0
304,346,309,306,0
304,335,312,307,0
304,325,314,308,0
304,319,314,308,0
303,318,311,308,0
302,316,309,307,0
301,307,307,306,0
299,298,305,304,0
297,290,304,302,0
296,286,302,300,0
296,284,302,299,0
298,287,302,299,0
300,292,303,300,0
302,297,304,302,0
304,300,304,305,0
304,301,304,307,0
304,297,303,309,0
303,295,302,312,0
303,297,302,314,0
303,299,302,314,0
303,300,302,314,0
303,297,301,313,0
303,289,300,312,0
303,277,301,311,0
304,268,302,310,0
306,263,303,311,0
308,264,303,311,0
309,271,302,310,0
309,281,300,308,0
307,293,298,306,0
306,303,297,305,0
305,313,296,304,0
305,322,297,303,0
305,331,298,303,0
306,337,302,303,0
307,338,306,304,0
307,333,309,304,0
307,324,310,303,0
307,318,308,301,0
306,312,304,301,0
306,308,301,300,0
306,305,298,300,0
305,302,296,300,0
304,299,295,300,0
