304,292,297,298,0
304,280,297,298,0
304,275,298,300,0
303,274,300,303,0
303,275,304,306,0
303,277,308,309,0
304,280,314,311,0
306,281,317,312,0
306,279,318,312,0
306,275,315,311,0
305,273,314,311,0
305,276,312,309,0
305,289,312,307,0
305,309,313,306,0
305,333,313,307,0
305,352,313,307,0
305,358,311,307,0
304,348,307,306,0
304,331,304,305,0
304,313,301,305,0
305,300,299,304,0
305,290,298,305,0
306,285,298,307,0
308,283,299,308,0
310,283,301,310,0
312,287,301,309,0
313,295,301,308,0
311,305,302,305,0
308,316,303,304,0
305,327,306,303,0
302,336,310,303,0
302,342,313,303,0
302,340,315,304,0
303,333,315,306,0
303,326,314,308,0
304,321,313,311,0
304,311,311,313,0
304,297,309,314,0
303,283,307,316,0
303,278,306,318,0
305,284,306,318,0
307,298,306,317,0
310,314,306,316,0
312,323,307,314,0
313,317,307,312,0
312,303,304,308,0
309,288,301,305,0
308,275,296,302,0
306,267,292,299,0
305,260,289,297,0
304,255,287,296,0
303,253,287,295,0
302,256,291,296,0
301,263,298,298,0
301,274,307,301,0
302,287,313,304,0
303,297,316,307,0
305,301,317,309,0
306,300,317,309,0
307,295,315,309,0
307,289,314,309,0
307,285,313,308,0
306,285,312,307,0
307,291,311,306,0
307,301,310,307,0
308,313,309,308,0
309,326,309,310,0
310,336,311,312,0
311,340,311,313,0
312,339,311,313,0
313,337,311,314,0
315,335,311,314,0
315,328,311,313,0
313,318,310,312,0
310,310,309,312,0
308,306,309,311,0
307,302,311,311,0
307,301,312,310,0
306,302,313,309,0
305,306,313,308,0
305,310,312,307,0
305,314,312,307,0
305,318,311,307,0
306,322,311,307,0
306,325,310,307,0
307,325,310,307,0
307,323,310,306,0
306,317,309,305,0
305,309,308,305,0
305,303,308,304,0
306,303,307,305,0
306,306,306,305,0
306,311,305,306,0
305,313,304,306,0
305,313,304,306,0
306,309,307,305,0
306,304,309,304,0
306,306,311,303,0
307,318,312,303,0
308,336,313,304,0
308,356,313,305,0
307,371,313,303,0
305,373,313,301,0
303,364,313,300,0
303,351,313,301,0
303,337,314,303,0
305,326,314,304,0
307,312,314,304,0
308,296,314,303,0
309,283,316,303,0
309,275,319,304,0
309,272,321,305,0
309,274,323,307,0
310,278,324,309,0
311,284,322,310,0
312,292,320,313,0
312,304,319,315,0
313,315,318,317,0
312,324,317,317,0
309,328,315,315,0
305,327,312,312,0
302,328,311,310,0
301,335,311,309,0
301,338,310,309,0
301,335,310,309,0
301,325,310,307,0
302,311,310,307,0
302,295,309,307,0
301,278,308,307,0
302,265,307,308,0
303,257,307,309,0
304,254,306,309,0
305,253,306,309,0
307,253,305,308,0
308,256,305,308,0
309,260,305,307,0
309,266,306,305,0
309,272,308,305,0
308,280,311,304,0
309,289,314,305,0
311,297,316,306,0
312,298,317,307,0
311,290,316,306,0
309,277,313,305,0
308,265,311,304,0
307,255,309,302,0
306,250,308,300,0
305,252,306,300,0
303,265,304,301,0
302,282,303,303,0
301,300,302,305,0
301,317,300,306,0
302,331,301,307,0
303,346,302,310,0
304,359,305,312,0
305,373,307,313,0
306,386,310,313,0
308,395,312,314,0
309,397,313,314,0
309,390,314,314,0
308,378,312,313,0
307,364,310,312,0
306,352,307,311,0
305,345,306,310,0
305,342,305,309,0
305,340,306,309,0
306,333,308,308,0
307,318,308,307,0
308,300,308,305,0
309,285,308,304,0
310,277,307,303,0
310,277,307,302,0
310,284,308,301,0
309,295,310,301,0
308,303,312,301,0
307,309,312,302,0
306,310,313,304,0
306,308,312,305,0
305,304,310,304,0
303,298,308,301,0
302,293,308,299,0
300,289,308,298,0
298,286,310,297,0
297,283,314,296,0
297,282,318,297,0
298,282,322,300,0
300,286,324,303,0
302,291,324,307,0
303,298,322,310,0
304,302,319,312,0
305,302,317,313,0
305,301,315,313,0
305,301,314,312,0
305,304,312,312,0
305,307,312,311,0
306,310,311,310,0
307,314,311,310,0
308,319,310,309,0
307,325,308,307,0
307,331,307,305,0
307,331,305,303,0
306,324,304,301,0
305,313,302,299,0
305,299,301,299,0
306,291,299,300,0
307,290,299,301,0
308,298,301,304,0
309,309,304,307,0
309,318,307,309,0
309,323,310,311,0
310,318,312,312,0
311,303,315,313,0
313,285,317,314,0
315,273,318,315,0
318,269,318,317,0
319,272,316,317,0
318,280,312,315,0
314,288,308,312,0
310,294,305,308,0
306,300,304,305,0
303,308,304,303,0
301,319,305,302,0
300,333,306,301,0
301,345,306,301,0
303,352,304,301,0
303,354,302,301,0
303,353,301,302,0
303,348,300,304,0
304,341,300,306,0
304,333,299,307,0
305,325,300,308,0
306,316,300,308,0
307,306,300,309,0
307,297,300,309,0
307,290,300,308,0
307,285,300,307,0
308,285,301,306,0
309,290,301,306,0
309,298,303,306,0
310,304,304,307,0
311,305,304,309,0
310,304,304,311,0
310,302,304,312,0
309,300,306,312,0
309,298,308,311,0
308,297,309,310,0
309,300,310,310,0
309,304,309,311,0
308,310,309,311,0
306,314,308,310,0
304,316,309,310,0
303,317,310,308,0
302,320,312,307,0
302,330,313,307,0
304,346,314,308,0
305,359,313,309,0
306,365,312,308,0
306,358,310,306,0
306,341,308,305,0
307,324,308,304,0
307,310,307,303,0
306,300,307,303,0
306,292,307,303,0
305,283,306,303,0
304,275,304,303,0
304,268,302,303,0
303,262,301,303,0
303,257,301,303,0
303,256,301,304,0
303,258,301,305,0
304,266,302,306,0
306,281,303,308,0
307,303,305,310,0
308,329,308,312,0
310,351,313,316,0
311,370,317,320,0
312,384,318,322,0
310,391,316,321,0
307,388,312,319,0
304,377,308,316,0
300,355,304,313,0
297,324,301,310,0
295,291,298,306,0
294,266,298,304,0
294,253,298,303,0
294,250,299,303,0
294,253,301,304,0
295,261,303,306,0
297,269,305,309,0
299,277,306,311,0
301,284,307,314,0
304,292,308,317,0
306,303,309,319,0
307,314,310,320,0
307,321,309,319,0
306,322,309,318,0
306,319,308,316,0
306,314,307,314,0
306,305,306,312,0
306,297,303,309,0
305,292,301,306,0
304,293,300,305,0
303,298,299,305,0
303,306,300,306,0
304,315,300,307,0
306,323,301,308,0
307,329,302,309,0
308,332,301,310,0
309,329,299,310,0
310,326,297,310,0
312,324,297,311,0
313,327,298,312,0
313,328,301,312,0
310,325,305,312,0
307,319,309,313,0
304,314,312,313,0
303,313,313,314,0
302,315,314,315,0
302,318,312,315,0
301,316,311,314,0
301,310,309,311,0
302,304,307,310,0
302,303,307,309,0
303,305,306,309,0
303,309,306,309,0
303,308,307,309,0
303,298,308,310,0
303,283,307,311,0
303,268,306,312,0
304,259,304,313,0
306,257,305,313,0
308,263,306,314,0
310,276,307,315,0
312,295,308,316,0
311,314,307,316,0
309,329,307,314,0
305,338,307,313,0
302,341,307,312,0
300,339,308,310,0
300,335,309,310,0
300,327,309,310,0
301,318,309,310,0
302,311,309,309,0
304,304,309,309,0
304,297,309,308,0
303,289,307,307,0
302,281,306,305,0
302,276,304,305,0
302,273,302,305,0
302,272,300,305,0
303,272,297,304,0
304,274,293,304,0
305,279,290,305,0
306,284,289,308,0
307,286,290,308,0
307,286,295,309,0
307,289,300,310,0
306,295,306,311,0
304,300,310,311,0
302,304,312,310,0
299,311,311,308,0
297,318,310,308,0
296,324,308,307,0
296,329,308,308,0
295,330,308,309,0
295,329,308,310,0
295,325,309,311,0
296,320,309,312,0
297,314,309,312,0
299,307,309,312,0
301,302,310,312,0
304,298,312,313,0
308,294,314,314,0
312,291,315,315,0
314,294,314,315,0
315,302,311,315,0
313,312,309,314,0
310,324,308,314,0
308,334,308,313,0
306,337,308,311,0
305,336,308,308,0
303,335,305,305,0
302,335,302,301,0
301,336,300,299,0
302,331,299,298,0
305,322,298,297,0
307,311,299,298,0
309,302,300,297,0
308,297,302,296,0
307,297,304,295,0
305,303,308,296,0
305,311,311,299,0
305,318,313,302,0
306,321,313,303,0
305,321,311,304,0
303,319,309,304,0
301,316,306,305,0
300,314,304,305,0
300,314,302,305,0
301,317,301,305,0
302,320,299,305,0
304,325,299,307,0
307,330,300,309,0
309,329,302,310,0
310,317,304,311,0
310,300,306,311,0
309,286,308,311,0
308,279,309,311,0
308,280,309,311,0
308,284,308,311,0
308,290,306,310,0
308,292,304,309,0
308,291,301,307,0
309,291,300,305,0
309,291,302,304,0
308,289,304,303,0
306,285,307,302,0
306,281,310,301,0
307,278,311,300,0
307,274,310,299,0
308,274,309,298,0
309,277,307,298,0
310,284,305,299,0
311,292,303,300,0
312,302,302,300,0
311,312,302,299,0
310,320,303,299,0
308,322,306,299,0
307,317,308,298,0
306,309,309,297,0
305,301,309,297,0
305,296,308,298,0
306,296,307,300,0
307,303,308,301,0
309,315,308,302,0
310,329,307,303,0
311,343,306,302,0
313,349,306,303,0
314,342,306,303,0
315,327,307,303,0
315,310,308,304,0
316,299,310,304,0
316,291,311,303,0
313,286,311,301,0
310,279,309,298,0
305,273,306,296,0
303,273,305,295,0
302,281,305,296,0
303,298,305,297,0
304,319,304,300,0
306,337,305,301,0
307,350,305,303,0
309,354,306,305,0
310,352,307,307,0
312,347,308,307,0
312,340,309,307,0
311,328,309,306,0
311,312,309,305,0
311,297,308,305,0
311,285,308,305,0
311,277,310,305,0
310,272,313,304,0
310,270,316,303,0
309,272,318,303,0
310,277,318,303,0
309,287,317,302,0
308,299,314,301,0
306,311,310,301,0
304,316,308,300,0
303,313,308,300,0
301,305,310,299,0
301,298,311,300,0
301,295,312,300,0
303,295,313,300,0
304,300,313,302,0
306,305,313,304,0
308,308,312,305,0
309,308,310,306,0
310,307,308,306,0
310,305,306,305,0
309,306,303,302,0
308,312,300,301,0
307,321,297,299,0
305,328,295,297,0
303,331,294,297,0
302,325,293,296,0
300,312,294,295,0
299,298,296,295,0
299,287,300,296,0
301,280,305,297,0
303,275,309,298,0
304,278,311,299,0
305,289,312,301,0
307,308,311,303,0
310,330,311,306,0
312,352,311,310,0
315,366,310,312,0
316,362,309,312,0
314,345,306,310,0
311,323,304,308,0
308,304,301,307,0
306,293,298,306,0
305,289,296,305,0
306,291,296,303,0
305,293,296,302,0
303,293,299,301,0
302,293,303,301,0
300,296,307,300,0
299,299,308,299,0
298,301,307,297,0
298,301,305,295,0
298,298,302,294,0
298,294,301,294,0
299,287,301,296,0
300,282,301,298,0
302,278,301,300,0
304,276,301,301,0
304,274,302,301,0
305,273,301,301,0
305,273,301,302,0
305,276,302,302,0
306,278,303,303,0
306,279,303,304,0
306,279,304,305,0
306,278,304,306,0
306,276,304,306,0
307,276,304,308,0
309,277,305,309,0
311,280,306,311,0
313,281,308,312,0
315,284,309,313,0
316,293,307,313,0
317,304,305,313,0
316,315,303,311,0
314,323,302,308,0
311,324,301,305,0
309,322,302,303,0
307,321,304,303,0
308,323,306,304,0
309,330,307,306,0
310,339,308,307,0
310,345,308,308,0
308,346,308,307,0
307,341,309,307,0
306,330,309,305,0
305,314,307,303,0
305,299,305,302,0
305,289,305,303,0
307,287,306,303,0
308,292,308,305,0
308,298,309,306,0
306,296,308,304,0
304,292,308,304,0
303,288,309,304,0
303,286,310,306,0
303,287,311,307,0
304,295,312,308,0
304,309,312,309,0
304,325,313,310,0
304,338,312,310,0
302,347,312,310,0
300,350,310,309,0
299,343,309,309,0
298,332,309,308,0
298,319,308,308,0
300,305,307,308,0
301,297,306,307,0
303,296,305,305,0
304,301,305,305,0
306,310,307,306,0
308,316,308,307,0
308,315,308,307,0
307,309,307,307,0
305,299,304,305,0
303,290,301,303,0
301,284,300,301,0
300,283,299,299,0
301,286,298,299,0
301,289,298,298,0
301,292,299,298,0
301,292,300,299,0
302,291,302,300,0
302,289,305,300,0
301,292,309,301,0
301,300,313,303,0
301,314,316,305,0
303,329,318,307,0
305,341,318,310,0
308,342,316,313,0
309,329,315,315,0
309,309,313,316,0
309,291,313,316,0
309,281,313,315,0
309,276,313,313,0
308,274,313,311,0
307,274,312,308,0
307,280,311,307,0
308,291,310,308,0
310,307,310,310,0
313,326,309,313,0
315,344,308,316,0
316,355,308,319,0
316,354,309,321,0
315,336,310,321,0
313,309,311,320,0
312,283,312,319,0
312,265,313,317,0
312,256,313,315,0
311,253,313,313,0
309,255,312,311,0
306,262,313,308,0
304,269,313,306,0
302,276,314,305,0
300,282,316,306,0
301,286,317,308,0
302,291,318,310,0
304,297,319,312,0
304,302,318,313,0
304,305,317,314,0
304,305,315,313,0
303,304,313,312,0
302,305,312,311,0
301,306,312,310,0
302,309,311,310,0
302,313,311,311,0
303,317,310,312,0
304,323,310,313,0
306,332,310,314,0
307,345,311,314,0
308,359,310,314,0
309,371,310,314,0
309,376,310,313,0
309,370,310,311,0
309,355,310,311,0
309,339,311,312,0
310,323,312,313,0
310,309,313,312,0
309,293,312,309,0
308,277,311,305,0
307,265,307,302,0
306,261,305,300,0
305,264,305,299,0
306,272,306,299,0
305,282,307,299,0
305,291,307,298,0
304,302,308,298,0
303,313,309,299,0
304,322,310,301,0
305,327,312,304,0
306,326,313,307,0
307,320,313,310,0
309,315,313,312,0
310,311,312,313,0
311,309,312,313,0
312,309,312,313,0
313,308,312,313,0
314,306,313,314,0
313,302,312,314,0
313,296,310,314,0
312,289,308,314,0
312,286,308,314,0
311,288,307,313,0
310,293,306,312,0
309,297,305,311,0
306,300,304,308,0
303,302,305,307,0
301,303,307,305,0
299,302,307,304,0
298,299,306,304,0
297,296,305,304,0
297,296,303,303,0
297,298,302,303,0
298,301,303,303,0
298,305,306,304,0
298,309,308,306,0
298,317,310,307,0
299,326,310,307,0
300,333,309,308,0
302,341,309,308,0
303,344,308,309,0
304,337,307,309,0
303,326,306,309,0
303,316,304,309,0
303,311,303,308,0
303,306,301,306,0
302,300,299,304,0
302,291,298,302,0
301,287,299,301,0
301,286,302,300,0
301,289,308,300,0
301,298,314,300,0
302,316,319,301,0
304,339,322,303,0
306,360,323,307,0
306,367,320,310,0
305,354,315,310,0
303,328,310,310,0
301,302,306,308,0
299,282,305,307,0
299,269,306,307,0
299,263,308,306,0
300,263,308,307,0
301,269,309,307,0
301,280,311,307,0
301,291,311,308,0
302,302,313,309,0
303,307,314,310,0
303,306,315,309,0
303,305,315,308,0
303,307,315,307,0
303,309,314,306,0
302,309,313,306,0
300,304,312,305,0
299,293,311,306,0
299,282,310,306,0
300,277,309,307,0
301,282,309,309,0
302,291,308,310,0
304,302,307,311,0
305,311,305,311,0
305,318,304,309,0
304,320,302,307,0
302,319,302,304,0
300,316,302,302,0
300,313,303,300,0
299,308,303,298,0
298,302,304,297,0
298,298,304,297,0
297,296,305,297,0
298,298,305,298,0
299,305,306,300,0
299,310,306,303,0
300,314,306,305,0
300,315,306,308,0
300,317,306,310,0
300,324,306,311,0
301,334,305,310,0
302,344,305,308,0
302,349,305,306,0
302,348,303,304,0
303,340,301,303,0
303,328,301,303,0
303,315,301,303,0
303,304,301,303,0
303,301,303,304,0
304,305,305,304,0
305,314,306,305,0
305,322,305,306,0
306,329,304,307,0
307,329,303,308,0
308,323,303,309,0
309,314,303,309,0
309,308,305,310,0
309,305,308,311,0
308,304,311,311,0
307,306,312,311,0
307,314,311,310,0
306,318,308,309,0
305,313,304,307,0
305,299,301,304,0
305,282,299,302,0
305,269,298,301,0
306,263,298,301,0
307,262,297,302,0
308,264,296,304,0
309,269,295,304,0
309,277,296,305,0
309,289,298,305,0
307,302,301,305,0
306,314,306,305,0
305,324,311,305,0
304,326,315,304,0
303,322,316,303,0
301,313,313,302,0
298,305,308,301,0
298,300,303,300,0
297,299,299,299,0
298,302,297,299,0
301,309,297,300,0
303,319,297,300,0
306,327,297,300,0
307,333,297,300,0
309,338,296,300,0
310,337,295,302,0
310,328,295,304,0
311,313,297,306,0
312,291,300,308,0
311,269,302,309,0
310,258,304,310,0
309,260,306,311,0
309,273,309,312,0
309,292,311,313,0
308,312,312,312,0
308,335,311,312,0
308,356,310,313,0
307,367,308,312,0
305,364,305,311,0
303,350,303,307,0
302,329,301,303,0
301,308,300,300,0
300,292,300,298,0
299,281,301,298,0
299,275,303,298,0
299,272,305,299,0
300,275,306,300,0
302,279,306,302,0
303,284,305,302,0
304,288,304,302,0
304,288,302,302,0
305,286,301,302,0
305,286,301,303,0
306,287,303,304,0
307,288,304,305,0
308,292,304,306,0
309,298,304,306,0
308,305,302,306,0
308,309,300,306,0
306,309,300,305,0
305,307,301,303,0
303,307,302,302,0
303,309,303,301,0
303,313,303,301,0
303,319,302,300,0
303,326,301,299,0
302,329,300,299,0
302,330,299,299,0
302,328,300,301,0
303,327,301,303,0
304,327,301,305,0
304,327,302,306,0
305,326,304,308,0
307,326,305,308,0
307,329,305,307,0
306,335,306,307,0
306,341,307,306,0
306,350,307,305,0
307,355,308,305,0
306,352,306,304,0
305,340,303,303,0
304,322,299,302,0
303,303,297,301,0
302,292,298,300,0
302,286,299,301,0
302,281,302,301,0
303,270,303,302,0
303,257,306,304,0
304,248,308,305,0
304,244,309,307,0
305,246,310,309,0
305,254,311,309,0
305,269,312,308,0
305,290,312,308,0
306,311,311,309,0
307,327,311,310,0
309,334,309,310,0
309,329,307,309,0
309,321,305,308,0
310,315,303,306,0
309,314,301,304,0
308,318,297,301,0
305,327,294,300,0
303,339,291,301,0
302,351,290,302,0
301,358,291,303,0
299,358,293,303,0
298,349,296,303,0
297,338,299,304,0
298,328,302,304,0
299,317,304,305,0
299,307,305,304,0
300,302,305,305,0
302,300,304,305,0
302,301,303,305,0
303,302,302,305,0
303,300,302,304,0
303,297,303,303,0
304,293,303,300,0
306,294,304,298,0
308,301,304,297,0
309,314,302,298,0
309,326,301,299,0
308,332,301,301,0
307,328,303,304,0
306,321,305,306,0
306,314,307,309,0
307,308,308,310,0
307,303,305,309,0
307,299,301,307,0
306,296,297,305,0
305,295,295,304,0
305,299,294,304,0
305,307,297,304,0
305,317,300,305,0
307,321,305,306,0
308,316,308,306,0
309,306,310,306,0
310,297,311,305,0
310,292,312,306,0
310,292,311,306,0
309,296,310,306,0
309,301,310,307,0
308,306,310,309,0
309,309,312,311,0
308,308,313,312,0
308,303,313,313,0
310,294,313,313,0
311,284,315,313,0
313,272,315,312,0
314,263,315,311,0
314,258,315,309,0
314,263,315,307,0
314,281,314,306,0
313,310,314,304,0
312,340,313,302,0
310,360,310,302,0
309,365,309,302,0
308,357,307,305,0
308,340,306,308,0
308,325,306,309,0
308,312,306,309,0
308,304,306,308,0
307,304,306,307,0
307,313,306,306,0
306,325,306,304,0
305,334,305,303,0
305,339,304,301,0
304,337,303,300,0
304,327,304,299,0
302,313,306,299,0
301,299,308,300,0
302,294,310,301,0
303,300,311,304,0
307,316,312,307,0
309,335,311,309,0
310,352,310,312,0
309,356,308,313,0
305,338,307,311,0
300,312,305,308,0
296,289,304,306,0
294,278,303,304,0
293,277,302,304,0
294,282,301,306,0
297,290,300,308,0
298,297,300,309,0
299,301,299,309,0
299,301,297,308,0
300,300,296,308,0
301,298,294,309,0
301,298,294,311,0
302,300,295,313,0
303,302,298,315,0
304,304,302,316,0
305,307,308,317,0
307,313,312,318,0
308,321,314,318,0
308,326,315,317,0
308,328,315,317,0
308,328,314,316,0
308,322,312,315,0
307,312,309,315,0
308,303,307,315,0
310,299,305,316,0
311,303,306,315,0
312,315,308,315,0
312,333,311,313,0
310,349,311,309,0
308,357,310,305,0
306,355,307,301,0
304,343,304,298,0
304,324,302,297,0
305,306,301,298,0
305,290,301,300,0
306,282,303,302,0
305,280,306,303,0
305,281,307,303,0
304,284,308,303,0
304,288,307,302,0
304,293,306,302,0
304,299,305,302,0
304,298,304,303,0
304,291,303,301,0
304,283,301,299,0
304,279,300,297,0
304,281,299,296,0
304,286,299,296,0
304,288,299,295,0
303,290,299,296,0
303,291,300,296,0
303,294,302,298,0
304,297,305,301,0
305,300,308,305,0
306,301,309,308,0
306,303,309,310,0
307,307,309,310,0
307,316,309,310,0
307,325,309,310,0
306,334,308,309,0
306,343,307,308,0
305,348,306,307,0
304,344,306,306,0
303,333,307,306,0
301,320,308,306,0
301,309,307,307,0
302,301,306,307,0
303,297,306,308,0
304,299,305,309,0
306,305,305,311,0
307,310,305,311,0
307,312,304,310,0
308,318,302,309,0
309,332,301,307,0
310,348,302,307,0
311,358,305,310,0
311,353,308,312,0
309,332,310,313,0
307,303,312,311,0
304,280,314,309,0
302,268,315,307,0
300,262,313,305,0
300,262,310,303,0
300,268,307,303,0
300,274,304,304,0
301,278,303,304,0
302,280,303,304,0
304,281,305,303,0
306,282,307,303,0
306,284,310,303,0
307,287,313,304,0
308,292,316,306,0
309,297,319,308,0
310,303,320,312,0
310,309,322,315,0
311,314,321,317,0
313,319,321,318,0
313,324,319,318,0
312,323,318,316,0
310,316,315,312,0
308,308,313,310,0
307,304,311,310,0
307,303,311,311,0
307,305,311,312,0
308,307,311,312,0
308,306,311,311,0
308,306,313,310,0
307,304,315,308,0
305,302,317,306,0
305,301,318,305,0
306,300,317,305,0
307,299,316,305,0
308,300,314,304,0
307,301,311,304,0
306,303,309,304,0
305,305,310,304,0
305,308,311,305,0
304,313,311,304,0
304,321,311,305,0
304,330,310,305,0
304,344,309,305,0
305,358,309,306,0
305,368,308,307,0
305,367,306,307,0
305,356,305,306,0
305,337,305,305,0
304,315,304,303,0
303,296,304,301,0
302,280,305,301,0
301,268,306,301,0
301,260,308,302,0
301,260,311,303,0
302,266,312,305,0
303,275,312,306,0
303,286,310,307,0
303,290,310,308,0
302,289,308,309,0
301,288,306,309,0
300,288,304,308,0
300,292,302,307,0
301,301,300,306,0
303,315,297,305,0
305,327,295,304,0
306,336,293,304,0
307,343,293,304,0
308,342,295,304,0
308,332,297,304,0
307,320,301,303,0
306,307,305,302,0
305,297,309,302,0
304,287,311,301,0
303,279,313,301,0
302,271,314,302,0
301,263,315,303,0
302,258,316,305,0
304,259,317,308,0
306,264,317,310,0
307,272,316,311,0
307,281,315,313,0
307,289,314,313,0
305,293,312,313,0
305,295,310,311,0
305,295,308,310,0
304,296,305,309,0
303,298,302,308,0
303,303,300,307,0
304,311,299,305,0
305,322,298,304,0
306,336,297,303,0
307,354,297,301,0
308,371,298,299,0
308,380,300,298,0
307,377,303,297,0
307,366,308,298,0
307,347,313,299,0
307,321,317,300,0
306,295,319,303,0
306,274,318,304,0
305,263,315,305,0
304,260,312,307,0
305,264,310,308,0
307,273,309,309,0
308,287,309,311,0
309,298,310,311,0
309,305,311,311,0
309,312,311,311,0
309,320,311,311,0
309,326,311,310,0
308,328,310,309,0
308,324,309,308,0
307,315,307,307,0
307,304,306,305,0
307,295,305,305,0
307,291,306,305,0
307,286,307,304,0
306,281,307,304,0
306,278,307,304,0
306,278,306,303,0
306,283,305,304,0
307,292,304,305,0
308,299,304,307,0
309,302,305,309,0
310,306,306,312,0
311,309,308,313,0
310,308,310,313,0
308,308,313,313,0
306,308,315,313,0
305,307,316,313,0
304,308,316,312,0
303,308,315,312,0
303,306,314,311,0
304,304,314,310,0
305,303,314,310,0
306,303,315,310,0
308,305,314,311,0
309,309,314,312,0
310,315,313,313,0
311,322,312,313,0
310,325,309,311,0
308,321,307,309,0
307,314,306,308,0
306,310,305,308,0
306,310,305,309,0
307,311,306,311,0
308,313,308,311,0
309,311,309,310,0
309,305,309,309,0
309,293,309,309,0
308,278,308,308,0
308,265,307,308,0
307,259,305,309,0
307,262,304,311,0
308,270,302,312,0
308,280,301,313,0
308,289,301,314,0
309,297,301,314,0
309,304,301,313,0
307,309,300,311,0
305,312,299,309,0
304,315,298,307,0
303,321,299,307,0
302,332,301,307,0
302,346,303,309,0
303,359,304,310,0
303,369,304,311,0
303,368,303,310,0
302,352,302,309,0
302,331,301,306,0
302,313,300,304,0
303,304,297,303,0
304,302,296,303,0
305,302,296,303,0
306,302,297,302,0
306,300,300,302,0
307,299,302,302,0
306,298,303,302,0
305,295,302,301,0
304,291,302,302,0
303,288,301,305,0
304,287,300,307,0
304,287,299,309,0
306,294,299,310,0
307,305,299,311,0
307,316,299,312,0
307,321,298,312,0
307,317,297,312,0
308,308,297,311,0
309,303,297,310,0
310,304,299,309,0
310,310,303,308,0
310,314,307,308,0
309,314,310,307,0
308,308,310,306,0
305,299,309,305,0
303,291,306,305,0
301,284,303,305,0
300,284,302,305,0
301,290,302,306,0
304,299,304,307,0
306,308,306,309,0
309,316,308,311,0
311,319,308,310,0
310,318,305,306,0
308,313,301,302,0
304,306,298,298,0
302,299,296,295,0
300,295,295,293,0
299,296,294,293,0
298,301,295,295,0
299,309,296,298,0
300,315,298,302,0
303,316,299,305,0
305,312,299,308,0
307,307,300,310,0
309,305,301,311,0
310,308,302,313,0
312,315,303,314,0
312,323,304,314,0
312,327,304,313,0
311,323,304,311,0
308,312,303,309,0
307,299,301,306,0
305,288,300,304,0
304,283,300,302,0
304,286,300,301,0
305,294,299,301,0
306,306,298,302,0
308,320,298,304,0
309,332,299,305,0
311,338,299,308,0
312,335,298,310,0
312,324,298,311,0
312,310,299,311,0
312,301,300,312,0
312,303,301,313,0
312,318,303,314,0
312,338,305,315,0
313,354,307,315,0
314,357,307,313,0
313,343,305,312,0
312,320,303,310,0
310,299,299,309,0
309,283,296,308,0
309,276,295,308,0
308,275,297,307,0
307,275,299,306,0
306,275,301,305,0
305,280,304,305,0
307,292,306,307,0
308,302,306,309,0
309,305,305,310,0
308,299,304,311,0
307,289,303,311,0
306,277,303,312,0
305,265,303,312,0
304,256,302,311,0
303,251,300,311,0
303,251,298,311,0
303,254,298,312,0
303,261,300,313,0
303,270,303,313,0
302,281,305,313,0
301,291,307,312,0
301,299,307,311,0
301,305,305,311,0
302,312,302,310,0
302,317,300,310,0
303,321,300,310,0
303,323,303,311,0
304,322,306,311,0
305,319,309,311,0
306,314,311,311,0
308,310,311,312,0
309,307,312,312,0
309,305,311,310,0
309,302,310,308,0
308,299,309,306,0
308,298,307,304,0
308,302,305,303,0
308,308,303,303,0
307,315,303,304,0
307,317,303,304,0
305,317,304,305,0
304,316,305,306,0
303,316,305,306,0
303,317,306,306,0
303,322,306,305,0
304,332,306,305,0
305,349,305,305,0
306,374,305,305,0
307,400,304,305,0
307,421,303,304,0
307,421,302,303,0
305,395,303,301,0
304,352,304,300,0
303,308,305,300,0
303,275,307,299,0
303,259,309,298,0
303,255,308,297,0
302,259,306,296,0
300,262,304,296,0
297,262,301,295,0
295,259,302,297,0
294,256,303,298,0
295,257,305,299,0
297,262,306,302,0
300,271,307,304,0
302,279,307,305,0
302,284,305,305,0
302,287,303,305,0
303,290,301,305,0
304,293,301,305,0
305,296,302,307,0
305,300,305,308,0
305,305,308,310,0
304,311,312,312,0
304,316,314,313,0
304,316,314,314,0
304,313,313,315,0
305,309,312,314,0
304,304,311,312,0
304,302,311,311,0
303,302,312,309,0
303,304,314,308,0
303,307,314,308,0
303,309,313,306,0
304,311,311,306,0
305,312,308,304,0
305,312,305,304,0
306,313,302,305,0
307,313,300,307,0
308,312,299,308,0
309,309,300,309,0
310,306,301,310,0
310,304,302,310,0
309,301,302,309,0
307,297,303,308,0
306,294,307,307,0
306,299,312,308,0
308,310,316,310,0
309,323,318,312,0
309,335,318,312,0
307,342,317,311,0
305,345,316,309,0
304,344,314,309,0
304,345,314,308,0
304,349,314,307,0
305,353,313,307,0
306,356,313,307,0
309,360,314,307,0
312,358,314,307,0
312,341,313,306,0
312,314,312,304,0
310,287,311,302,0
307,266,309,301,0
304,253,307,299,0
301,247,305,299,0
301,246,304,299,0
301,248,304,302,0
304,253,305,304,0
306,257,306,308,0
308,262,307,309,0
308,264,306,310,0
306,268,305,309,0
304,275,307,308,0
303,286,307,307,0
303,297,308,308,0
303,305,307,309,0
303,308,306,309,0
304,308,305,310,0
304,309,307,310,0
306,308,309,310,0
307,306,312,310,0
309,304,312,310,0
310,303,311,310,0
313,300,310,310,0
315,298,309,311,0
316,297,307,311,0
316,295,305,310,0
317,290,303,309,0
316,288,301,308,0
316,290,300,307,0
314,299,300,306,0
311,309,301,304,0
308,317,304,303,0
304,322,306,303,0
301,323,307,302,0
300,321,307,302,0
300,317,307,302,0
301,312,306,301,0
302,311,306,302,0
304,316,306,302,0
306,326,307,303,0
308,335,307,303,0
310,340,307,304,0
312,339,306,304,0
313,335,306,303,0
313,335,306,303,0
313,342,307,304,0
313,350,308,305,0
314,355,310,306,0
315,353,311,307,0
313,340,310,306,0
311,324,309,306,0
310,312,309,306,0
309,305,310,305,0
310,302,309,304,0
310,302,308,303,0
309,307,307,303,0
309,316,306,303,0
308,322,306,303,0
307,318,306,303,0
306,306,307,303,0
307,295,308,306,0
308,286,309,308,0
308,280,310,310,0
309,277,312,311,0
310,276,313,312,0
310,278,313,312,0
310,282,312,312,0
309,285,312,311,0
309,288,311,311,0
308,290,310,310,0
308,292,310,309,0
309,294,311,308,0
311,295,312,308,0
314,297,312,307,0
316,296,312,306,0
317,296,311,306,0
317,299,309,307,0
315,301,308,307,0
313,302,306,307,0
311,304,304,307,0
309,308,303,308,0
308,313,302,308,0
308,316,303,308,0
308,314,305,309,0
307,308,308,308,0
306,302,311,306,0
305,297,313,305,0
305,295,315,303,0
305,296,314,302,0
305,302,311,302,0
305,311,308,302,0
304,323,305,302,0
305,337,303,303,0
307,350,302,303,0
308,359,301,304,0
307,362,301,303,0
307,367,301,303,0
306,372,303,303,0
306,373,307,303,0
305,366,310,303,0
305,348,311,302,0
304,325,312,303,0
303,303,312,303,0
302,287,312,304,0
302,276,311,305,0
302,269,310,305,0
303,264,308,306,0
304,261,306,306,0
304,260,304,305,0
304,261,302,305,0
304,265,302,303,0
304,272,303,301,0
304,280,305,300,0
303,289,308,298,0
303,298,310,298,0
304,304,312,299,0
305,307,313,301,0
305,307,313,302,0
305,309,312,303,0
304,314,311,306,0
303,321,310,308,0
304,329,311,311,0
304,336,313,313,0
304,337,313,313,0
304,330,313,312,0
302,319,311,309,0
301,308,310,308,0
301,302,309,306,0
301,299,307,306,0
300,297,305,306,0
301,293,304,306,0
300,290,304,307,0
300,287,305,309,0
300,284,308,310,0
299,281,310,310,0
298,281,312,310,0
298,283,313,310,0
298,286,313,310,0
299,286,313,309,0
300,287,313,308,0
302,291,312,308,0
303,298,311,307,0
304,307,309,305,0
306,319,309,305,0
307,331,308,305,0
307,334,307,304,0
306,328,306,302,0
305,323,304,302,0
305,324,302,302,0
304,330,300,302,0
304,336,299,303,0
304,338,297,304,0
305,334,295,305,0
305,325,293,306,0
306,314,293,306,0
306,305,294,306,0
306,298,296,305,0
305,294,299,306,0
306,292,302,307,0
308,292,304,309,0
310,297,306,311,0
313,302,310,314,0
314,305,314,316,0
313,304,318,316,0
310,297,320,316,0
307,290,321,315,0
305,289,320,314,0
303,297,317,313,0
301,305,313,313,0
301,311,309,311,0
302,316,307,310,0
302,319,306,309,0
302,318,305,307,0
300,312,305,304,0
298,306,305,302,0
297,302,306,300,0
297,299,306,300,0
297,297,306,302,0
298,297,306,303,0
301,300,306,305,0
303,302,307,305,0
304,303,307,306,0
304,301,308,307,0
304,297,309,306,0
304,292,311,306,0
305,286,312,305,0
306,279,313,303,0
307,273,313,302,0
307,269,312,301,0
307,267,311,300,0
308,268,311,300,0
309,276,310,300,0
310,286,310,301,0
310,296,310,300,0
309,308,309,301,0
308,322,308,301,0
307,333,307,300,0
306,339,306,299,0
305,345,304,299,0
304,352,303,299,0
305,362,302,301,0
306,371,301,303,0
308,378,303,305,0
310,379,305,305,0
309,372,307,305,0
307,358,309,304,0
306,338,310,303,0
305,318,310,303,0
305,301,307,304,0
305,289,305,305,0
306,282,304,307,0
307,286,303,307,0
308,298,302,307,0
308,309,302,306,0
308,316,301,305,0
308,315,300,305,0
307,308,300,304,0
307,302,300,305,0
308,299,300,307,0
309,297,301,310,0
310,295,301,313,0
310,291,303,314,0
309,288,305,314,0
309,286,307,314,0
309,288,309,314,0
308,291,309,312,0
308,294,310,310,0
307,296,311,307,0
305,297,313,307,0
305,296,314,306,0
304,295,314,307,0
304,295,313,307,0
304,296,312,307,0
305,298,310,308,0
306,300,308,309,0
306,300,307,309,0
306,301,308,309,0
305,302,310,310,0
305,304,312,310,0
304,308,313,311,0
304,316,313,310,0
304,324,312,309,0
304,330,309,308,0
305,334,307,307,0
306,338,306,308,0
307,336,305,308,0
307,326,304,307,0
306,313,303,305,0
306,301,302,304,0
306,293,302,302,0
306,291,302,301,0
304,295,302,299,0
303,300,303,298,0
303,303,304,298,0
304,304,304,297,0
305,299,305,298,0
305,290,305,298,0
305,282,305,299,0
305,275,304,300,0
307,271,304,301,0
309,268,305,301,0
311,266,306,301,0
313,267,307,301,0
315,267,308,302,0
316,270,307,304,0
318,278,306,307,0
318,291,305,310,0
318,306,304,311,0
315,319,304,311,0
311,323,302,309,0
307,320,302,308,0
305,318,303,306,0
304,321,304,306,0
304,330,305,305,0
305,339,306,305,0
305,348,306,305,0
305,354,306,306,0
303,354,306,305,0
302,349,307,305,0
302,343,309,305,0
304,333,311,306,0
306,323,313,307,0
308,315,314,309,0
310,311,314,313,0
311,308,314,315,0
310,302,313,316,0
309,298,313,315,0
308,293,313,313,0
306,288,312,311,0
305,287,312,309,0
304,288,311,308,0
304,292,310,307,0
304,295,308,307,0
304,297,307,307,0
304,298,305,308,0
304,297,303,309,0
304,299,302,309,0
304,304,299,308,0
305,313,297,307,0
305,326,296,305,0
306,342,294,304,0
308,356,294,304,0
309,362,295,304,0
310,363,297,304,0
310,358,300,305,0
308,346,304,306,0
305,328,308,306,0
302,308,311,308,0
300,292,312,309,0
300,281,313,310,0
300,274,314,311,0
301,272,315,312,0
302,274,315,311,0
303,278,315,311,0
303,281,314,310,0
304,285,313,310,0
305,290,312,309,0
305,295,311,308,0
307,303,312,308,0
308,313,312,308,0
309,323,312,309,0
310,335,311,310,0
311,344,310,311,0
310,346,309,311,0
309,335,307,310,0
308,319,307,309,0
307,305,307,308,0
307,297,307,307,0
307,294,306,306,0
307,292,306,307,0
307,288,305,306,0
307,283,305,306,0
306,277,304,306,0
305,273,303,306,0
304,275,303,306,0
305,278,303,306,0
305,281,304,306,0
305,279,305,306,0
306,274,306,306,0
307,271,307,306,0
308,273,308,305,0
308,279,309,305,0
308,288,310,304,0
308,300,310,304,0
308,314,309,304,0
309,324,310,304,0
310,328,311,304,0
311,323,311,304,0
312,308,311,304,0
311,288,310,303,0
310,272,310,304,0
309,265,309,305,0
309,265,307,305,0
309,271,304,305,0
310,285,300,304,0
310,303,297,303,0
309,314,295,302,0
306,317,295,302,0
303,316,298,302,0
301,314,301,302,0
299,314,303,303,0
298,319,304,305,0
298,326,305,307,0
299,333,305,309,0
300,337,306,310,0
301,334,307,311,0
301,323,307,309,0
300,309,306,307,0
300,298,304,305,0
301,291,303,303,0
302,289,303,302,0
304,290,303,302,0
305,293,304,303,0
306,296,304,303,0
307,296,304,302,0
306,294,302,302,0
305,291,301,301,0
305,284,300,300,0
305,279,301,299,0
305,280,304,300,0
306,291,307,302,0
307,308,311,303,0
307,323,314,304,0
306,333,314,306,0
305,335,314,307,0
304,328,313,308,0
305,320,313,309,0
305,312,312,310,0
306,306,310,311,0
306,304,308,310,0
307,305,306,309,0
307,308,305,308,0
306,310,304,308,0
306,311,303,308,0
306,311,302,308,0
306,309,302,308,0
306,308,302,308,0
306,308,303,309,0
307,308,305,309,0
308,306,306,310,0
309,301,307,310,0
310,295,307,310,0
310,290,307,308,0
310,287,306,307,0
308,288,305,307,0
307,292,305,307,0
306,296,304,307,0
306,300,304,308,0
306,305,305,308,0
306,313,306,307,0
306,328,308,306,0
307,344,309,306,0
309,362,310,307,0
310,375,311,308,0
311,374,311,309,0
312,364,311,309,0
312,350,311,309,0
312,333,311,310,0
312,316,311,309,0
313,298,312,307,0
313,283,312,306,0
313,270,312,304,0
311,261,310,303,0
309,259,309,301,0
307,264,306,300,0
305,274,305,300,0
305,287,304,302,0
306,297,304,303,0
307,300,303,305,0
306,297,300,306,0
305,290,298,305,0
304,284,297,304,0
304,280,296,303,0
304,278,296,302,0
306,280,296,301,0
307,289,295,301,0
307,303,295,301,0
307,320,298,302,0
306,332,306,303,0
305,335,314,302,0
304,329,319,302,0
304,318,322,301,0
304,309,321,302,0
304,304,318,303,0
303,302,314,303,0
303,303,310,304,0
303,305,307,304,0
303,307,305,304,0
304,308,304,305,0
305,307,304,305,0
308,307,304,305,0
309,309,305,304,0
310,310,306,304,0
309,309,307,304,0
308,311,309,303,0
306,317,311,303,0
305,329,312,303,0
304,342,313,303,0
303,346,312,304,0
301,339,309,304,0
299,328,306,305,0
299,321,305,305,0
298,318,304,305,0
298,314,302,303,0
298,308,302,302,0
300,305,301,301,0
302,307,301,301,0
303,315,302,301,0
305,325,303,302,0
306,331,303,303,0
307,329,304,304,0
306,322,305,306,0
305,317,306,308,0
304,314,306,309,0
303,311,306,309,0
301,303,306,309,0
301,293,306,310,0
301,284,308,311,0
302,279,309,312,0
303,277,309,313,0
303,277,309,312,0
302,279,307,310,0
302,284,306,308,0
301,290,305,307,0
301,296,304,306,0
301,300,304,305,0
301,303,304,306,0
302,303,304,306,0
303,301,305,306,0
305,303,306,306,0
306,306,306,306,0
307,310,306,305,0
308,312,305,304,0
308,310,305,304,0
307,304,304,303,0
306,297,302,304,0
306,290,300,305,0
307,281,300,306,0
308,272,298,306,0
308,263,297,305,0
308,254,296,304,0
309,248,295,302,0
308,249,295,301,0
307,260,295,299,0
306,277,297,299,0
305,298,298,300,0
305,319,298,301,0
304,336,299,303,0
305,348,300,305,0
305,352,302,305,0
306,348,304,305,0
306,340,305,304,0
304,335,305,304,0
304,340,304,305,0
303,350,301,306,0
302,360,300,307,0
301,366,300,308,0
301,364,302,309,0
300,351,304,309,0
300,331,305,309,0
300,311,306,310,0
301,296,307,310,0
301,287,306,311,0
302,282,307,312,0
303,278,307,312,0
304,277,308,311,0
305,276,308,312,0
305,274,308,311,0
305,272,308,310,0
306,273,308,310,0
307,275,308,310,0
308,276,309,310,0
307,280,309,311,0
307,287,309,311,0
307,299,310,313,0
308,317,311,314,0
309,339,312,315,0
310,360,313,317,0
313,379,314,318,0
315,392,315,319,0
315,393,315,318,0
314,378,313,317,0
311,358,311,313,0
308,340,308,309,0
304,326,305,306,0
301,315,302,303,0
298,308,300,302,0
297,306,299,301,0
297,309,298,300,0
297,316,298,301,0
298,326,299,303,0
298,330,300,304,0
299,331,302,305,0
300,327,302,306,0
301,318,302,307,0
301,308,302,307,0
301,301,303,307,0
301,297,303,307,0
301,296,304,307,0
302,302,305,307,0
304,313,306,307,0
305,323,307,307,0
305,331,307,307,0
305,332,307,306,0
304,323,307,305,0
302,309,308,304,0
301,298,308,304,0
300,294,307,305,0
300,295,305,307,0
302,297,304,309,0
303,298,302,310,0
304,300,300,311,0
305,300,298,311,0
305,297,296,310,0
305,291,296,308,0
303,284,298,306,0
300,276,303,304,0
298,272,306,302,0
297,273,309,301,0
295,278,310,300,0
295,286,308,302,0
295,292,305,302,0
296,296,301,302,0
297,299,297,302,0
298,301,295,302,0
298,304,295,301,0
298,307,298,302,0
298,312,302,302,0
298,315,306,302,0
299,312,308,303,0
300,305,309,303,0
301,296,309,304,0
302,289,309,304,0
303,286,309,306,0
303,283,308,305,0
303,280,306,304,0
302,279,304,304,0
302,281,303,304,0
302,286,302,304,0
302,295,303,304,0
304,304,304,306,0
307,315,305,308,0
309,325,306,311,0
312,331,306,312,0
312,335,305,313,0
312,337,304,314,0
312,336,304,314,0
311,334,304,313,0
309,332,305,311,0
308,327,305,310,0
307,321,306,309,0
306,316,306,309,0
305,316,307,309,0
305,321,308,309,0
305,325,309,310,0
304,326,311,310,0
305,320,311,312,0
305,307,311,312,0
305,294,311,312,0
305,286,310,313,0
305,284,310,313,0
306,287,309,313,0
307,290,308,312,0
307,290,308,311,0
307,289,307,310,0
307,288,306,310,0
307,291,306,309,0
309,297,305,308,0
309,306,304,307,0
310,317,302,307,0
309,322,301,306,0
308,322,300,305,0
307,315,301,305,0
306,307,301,306,0
304,301,301,307,0
303,295,302,307,0
302,291,305,307,0
302,288,309,308,0
302,287,312,309,0
302,291,313,311,0
302,301,313,312,0
303,314,312,312,0
304,326,311,312,0
307,334,310,311,0
310,334,306,310,0
311,328,302,308,0
312,324,299,306,0
312,324,297,304,0
310,321,297,303,0
308,314,296,302,0
307,307,296,303,0
307,300,297,305,0
307,293,298,306,0
306,286,299,307,0
305,282,300,308,0
305,282,302,309,0
304,285,305,310,0
303,289,308,311,0
302,294,309,312,0
302,300,308,313,0
302,306,307,314,0
303,313,306,314,0
304,319,305,313,0
304,322,304,314,0
305,322,304,314,0
306,321,304,313,0
306,321,305,313,0
307,321,306,312,0
309,321,308,311,0
312,323,309,311,0
315,324,309,310,0
317,323,308,310,0
318,325,306,310,0
316,325,303,310,0
313,313,299,308,0
308,295,296,307,0
304,278,294,307,0
302,268,293,307,0
301,265,293,308,0
301,269,293,308,0
302,276,294,307,0
303,284,296,307,0
304,291,298,307,0
305,298,299,306,0
305,306,300,306,0
306,312,302,307,0
306,320,303,307,0
307,327,303,308,0
308,332,304,309,0
308,331,304,311,0
308,323,303,312,0
307,311,302,312,0
306,304,301,310,0
306,303,302,309,0
307,310,302,307,0
308,321,303,307,0
309,333,303,308,0
308,338,303,308,0
306,331,304,309,0
305,320,304,309,0
303,305,305,309,0
302,292,304,307,0
301,283,304,305,0
300,279,301,303,0
299,279,298,303,0
300,282,296,302,0
301,287,294,302,0
303,292,293,303,0
305,295,293,305,0
307,298,294,306,0
308,302,295,308,0
308,310,297,310,0
306,320,299,310,0
305,327,301,310,0
304,326,302,309,0
304,317,303,309,0
304,305,302,309,0
306,299,301,310,0
307,301,300,312,0
307,309,300,313,0
307,317,302,314,0
306,316,304,314,0
305,310,305,314,0
303,302,305,314,0
301,295,303,313,0
299,291,300,312,0
298,288,298,311,0
297,287,297,311,0
298,288,297,311,0
298,293,298,311,0
298,300,298,311,0
298,310,298,312,0
300,320,299,312,0
300,323,299,312,0
301,319,301,311,0
301,310,302,311,0
300,302,304,310,0
300,298,305,310,0
300,297,305,310,0
301,297,304,311,0
300,297,303,312,0
300,297,303,313,0
300,299,304,314,0
300,302,304,313,0
300,306,305,312,0
300,308,305,309,0
299,309,304,308,0
299,310,304,307,0
300,313,304,306,0
301,318,305,308,0
303,321,306,310,0
304,320,307,312,0
306,318,308,313,0
306,314,308,313,0
305,307,308,311,0
303,300,308,308,0
300,299,306,305,0
299,303,305,303,0
299,311,304,302,0
299,323,305,302,0
301,336,306,304,0
302,344,306,306,0
302,345,305,309,0
301,338,304,311,0
299,324,302,311,0
298,310,302,312,0
299,302,302,311,0
300,301,302,311,0
301,302,302,309,0
302,301,302,309,0
301,297,303,308,0
301,295,304,309,0
300,294,305,310,0
300,297,305,310,0
298,302,305,311,0
298,303,305,311,0
298,301,304,312,0
298,297,304,314,0
299,290,304,314,0
300,283,306,314,0
303,278,308,313,0
305,272,310,311,0
307,267,310,309,0
308,267,310,307,0
310,270,309,307,0
311,274,309,307,0
311,277,308,306,0
310,279,308,306,0
309,283,309,307,0
308,288,309,307,0
306,295,308,306,0
304,302,307,305,0
303,310,307,304,0
302,317,307,305,0
302,321,307,306,0
302,324,306,308,0
300,326,305,309,0
299,328,305,311,0
299,330,307,313,0
301,333,310,315,0
303,333,311,317,0
305,333,311,318,0
306,333,311,317,0
307,336,311,317,0
308,340,311,316,0
309,342,312,315,0
310,339,311,313,0
311,335,311,310,0
312,332,311,309,0
312,329,313,308,0
312,322,315,306,0
311,307,317,304,0
311,291,319,303,0
311,280,320,303,0
311,273,319,303,0
310,271,316,304,0
310,273,315,306,0
311,281,315,309,0
311,295,315,312,0
312,312,314,314,0
312,328,314,315,0
312,339,313,315,0
311,342,312,314,0
310,332,310,313,0
308,315,308,312,0
306,301,307,312,0
306,293,307,313,0
306,294,307,314,0
306,301,308,315,0
306,309,309,315,0
306,317,309,315,0
305,321,310,315,0
305,321,311,314,0
305,320,310,313,0
304,320,309,312,0
304,317,307,311,0
303,310,306,311,0
303,300,305,310,0
304,294,305,309,0
305,291,305,308,0
305,289,305,308,0
306,288,305,307,0
305,288,303,306,0
306,290,301,306,0
306,297,300,308,0
307,307,299,309,0
308,315,300,310,0
310,321,301,310,0
311,326,301,309,0
312,327,302,309,0
312,322,303,308,0
311,311,304,308,0
310,298,305,308,0
309,288,304,309,0
308,282,302,309,0
308,278,300,309,0
307,279,301,310,0
308,283,304,311,0
308,290,309,312,0
307,296,313,313,0
306,301,315,313,0
305,303,315,313,0
304,304,315,312,0
304,302,313,311,0
304,301,311,310,0
306,300,310,310,0
306,299,310,309,0
307,301,310,308,0
307,302,310,307,0
308,304,311,306,0
308,306,310,305,0
308,310,308,305,0
308,315,305,305,0
308,318,305,307,0
308,319,305,308,0
307,320,307,309,0
307,323,309,310,0
307,323,311,310,0
308,321,312,310,0
308,317,312,309,0
308,313,310,309,0
308,317,308,309,0
307,327,306,310,0
306,331,304,310,0
306,331,303,310,0
306,330,302,310,0
306,327,301,310,0
305,323,300,310,0
305,318,299,311,0
304,312,298,310,0
304,306,297,308,0
304,299,296,306,0
304,292,296,305,0
304,288,297,305,0
306,286,298,307,0
307,286,300,308,0
308,288,301,310,0
309,292,301,311,0
309,298,301,312,0
309,303,302,311,0
309,305,304,310,0
309,303,307,309,0
310,299,310,307,0
310,296,312,305,0
310,296,312,305,0
311,299,312,306,0
311,305,313,307,0
312,308,313,308,0
311,308,312,308,0
311,307,311,308,0
311,307,311,308,0
311,307,311,309,0
311,309,311,310,0
311,312,311,312,0
311,313,311,313,0
311,314,311,314,0
312,315,310,315,0
313,315,310,316,0
314,312,310,316,0
314,309,309,315,0
314,309,308,314,0
315,315,306,312,0
315,325,303,311,0
316,336,300,309,0
317,351,297,309,0
317,367,294,309,0
318,375,293,308,0
317,368,295,307,0
315,354,299,306,0
313,337,304,305,0
310,315,308,305,0
307,295,310,305,0
304,280,310,305,0
301,272,308,306,0
299,266,307,307,0
298,265,307,309,0
297,268,308,310,0
298,273,307,311,0
299,278,307,312,0
302,283,306,312,0
304,287,306,312,0
305,291,305,312,0
305,293,304,311,0
304,293,304,309,0
303,293,303,308,0
302,295,302,307,0
302,298,301,307,0
302,301,301,307,0
302,304,301,307,0
303,307,302,307,0
304,311,303,307,0
304,311,303,307,0
304,308,304,306,0
303,306,303,305,0
303,304,302,304,0
303,304,301,303,0
304,304,302,303,0
305,305,303,303,0
306,307,304,303,0
307,313,306,304,0
307,323,306,304,0
308,335,306,305,0
308,343,306,306,0
308,341,304,306,0
308,331,303,306,0
308,318,301,306,0
308,304,300,305,0
308,295,299,306,0
310,294,299,307,0
311,299,298,309,0
311,305,298,310,0
311,310,298,310,0
311,307,298,309,0
311,298,298,307,0
311,290,298,306,0
311,288,299,307,0
313,292,299,308,0
313,299,301,309,0
313,310,303,309,0
313,320,304,309,0
312,324,304,308,0
311,317,303,306,0
308,303,301,304,0
307,293,299,303,0
306,287,300,303,0
305,284,300,303,0
304,282,301,303,0
302,283,301,303,0
302,285,302,303,0
303,286,303,304,0
305,287,303,305,0
307,288,303,306,0
310,293,303,308,0
311,300,304,310,0
313,308,305,311,0
313,318,307,312,0
311,323,308,311,0
308,320,307,309,0
306,313,306,308,0
304,309,306,306,0
302,309,308,305,0
301,311,311,304,0
300,312,314,304,0
301,313,318,304,0
302,314,318,305,0
303,315,316,306,0
304,317,313,307,0
305,318,309,308,0
306,315,306,309,0
307,309,303,310,0
307,304,301,310,0
307,299,299,309,0
306,296,300,308,0
306,296,302,306,0
306,299,304,305,0
308,303,304,304,0
308,308,304,304,0
308,312,303,304,0
307,314,302,304,0
305,315,300,304,0
303,315,301,304,0
302,315,303,304,0
301,316,305,305,0
301,316,308,306,0
300,315,309,306,0
299,314,311,307,0
298,313,312,308,0
297,312,313,309,0
297,314,314,309,0
297,323,315,309,0
298,340,314,310,0
299,361,313,311,0
301,378,313,312,0
301,385,313,311,0
302,375,313,310,0
303,349,312,310,0
304,322,313,311,0
305,304,313,311,0
306,295,313,311,0
306,297,312,311,0
305,302,310,309,0
303,301,308,308,0
300,291,306,307,0
298,278,303,306,0
296,266,302,305,0
295,258,301,306,0
295,256,301,307,0
297,258,304,309,0
299,262,307,311,0
302,266,310,313,0
304,270,312,313,0
306,272,313,312,0
308,273,314,312,0
309,274,313,311,0
309,278,313,312,0
310,283,312,312,0
309,293,311,312,0
308,306,310,312,0
307,322,309,312,0
307,336,308,313,0
306,344,308,313,0
306,346,306,313,0
306,345,305,313,0
306,342,303,313,0
306,338,302,312,0
307,334,304,311,0
308,328,306,311,0
308,319,309,310,0
306,308,312,309,0
305,297,314,308,0
305,291,315,307,0
305,290,313,306,0
307,298,312,306,0
309,315,309,305,0
309,340,304,305,0
308,365,300,304,0
307,384,298,304,0
307,387,298,304,0
307,373,298,305,0
306,346,299,305,0
305,316,300,306,0
303,291,304,307,0
301,279,308,308,0
300,274,311,309,0
299,273,311,310,0
298,275,311,311,0
298,280,309,312,0
300,290,309,313,0
303,304,310,314,0
307,317,310,316,0
310,327,311,316,0
313,328,312,315,0
313,319,311,312,0
312,300,308,310,0
309,281,305,307,0
306,270,303,305,0
303,268,300,303,0
301,272,299,303,0
300,278,297,303,0
299,284,296,305,0
299,289,297,307,0
299,293,298,309,0
300,295,299,310,0
302,297,300,311,0
304,298,302,313,0
306,299,304,314,0
308,300,305,315,0
308,298,304,316,0
308,293,302,315,0
307,287,300,314,0
306,284,298,312,0
306,283,297,309,0
305,287,297,306,0
304,291,300,305,0
304,297,304,305,0
304,301,307,305,0
305,304,309,306,0
306,307,309,307,0
308,309,310,308,0
309,311,309,310,0
310,314,309,312,0
312,319,308,314,0
313,324,307,316,0
313,328,305,317,0
313,332,303,317,0
312,332,301,317,0
311,328,300,317,0
309,324,300,317,0
309,322,300,317,0
308,325,300,317,0
308,335,300,317,0
308,345,300,317,0
308,347,300,316,0
308,342,299,315,0
307,331,298,314,0
305,318,298,313,0
304,307,300,314,0
303,300,303,314,0
303,297,304,316,0
304,300,304,318,0
306,304,303,320,0
308,304,302,320,0
309,294,301,318,0
308,278,301,315,0
306,265,303,311,0
305,259,307,309,0
304,261,310,309,0
305,268,312,311,0
306,279,312,312,0
308,291,312,314,0
309,303,310,314,0
311,312,309,314,0
310,316,306,313,0
310,315,304,313,0
309,313,301,313,0
308,309,299,314,0
307,306,298,315,0
308,307,299,315,0
310,313,301,316,0
313,324,303,317,0
314,340,304,317,0
314,354,304,315,0
313,360,304,313,0
313,353,303,312,0
311,334,301,310,0
309,311,299,309,0
306,291,297,309,0
305,279,296,308,0
303,273,297,307,0
302,270,300,307,0
301,271,304,308,0
301,277,307,309,0
302,287,308,309,0
302,297,307,309,0
303,307,306,309,0
303,319,304,309,0
303,334,303,309,0
304,349,302,310,0
306,358,301,311,0
307,359,300,311,0
308,344,300,311,0
308,319,299,311,0
309,297,300,311,0
310,287,302,313,0
311,290,305,315,0
312,299,307,318,0
312,305,307,320,0
310,306,307,320,0
309,303,306,321,0
309,300,304,320,0
310,297,302,319,0
310,295,300,318,0
310,294,298,316,0
309,297,297,315,0
308,300,296,314,0
307,300,297,312,0
306,295,299,311,0
304,289,303,310,0
304,281,307,309,0
304,272,310,309,0
305,263,311,307,0
305,259,309,305,0
305,260,307,302,0
305,269,304,301,0
305,280,302,301,0
305,291,302,302,0
305,301,302,303,0
306,309,302,305,0
307,317,301,308,0
308,322,300,309,0
310,325,300,312,0
312,327,302,315,0
313,327,304,317,0
312,326,309,317,0
310,327,314,317,0
309,330,318,318,0
309,332,320,318,0
309,327,320,317,0
309,318,320,317,0
309,308,318,317,0
310,299,317,316,0
310,295,315,315,0
309,296,313,314,0
309,302,312,314,0
310,312,311,314,0
309,321,310,314,0
308,328,309,314,0
306,331,307,315,0
304,336,306,315,0
304,350,305,314,0
304,369,305,314,0
305,393,306,314,0
305,417,306,315,0
305,424,306,315,0
303,401,307,314,0
302,363,307,313,0
302,323,308,313,0
302,292,308,314,0
301,271,309,314,0
301,260,310,315,0
301,256,309,316,0
301,254,308,316,0
302,257,306,315,0
304,265,304,315,0
305,275,303,315,0
305,288,304,315,0
305,297,306,315,0
306,302,310,314,0
307,303,314,314,0
308,306,317,314,0
308,310,317,314,0
307,311,316,315,0
306,305,313,314,0
305,296,311,315,0
304,289,308,314,0
304,286,307,314,0
304,286,305,314,0
305,289,305,313,0
306,294,304,313,0
306,296,304,312,0
306,296,303,311,0
306,294,302,309,0
305,293,301,308,0
304,292,302,309,0
303,291,304,309,0
301,288,309,309,0
300,284,313,310,0
300,281,317,309,0
299,279,319,308,0
300,280,320,308,0
300,283,320,307,0
301,287,318,307,0
302,291,315,307,0
302,296,314,308,0
303,301,313,310,0
303,304,312,312,0
304,305,312,314,0
305,306,312,316,0
306,309,312,318,0
307,313,312,319,0
307,315,311,318,0
306,316,309,316,0
306,320,308,315,0
306,330,307,314,0
307,351,308,313,0
308,375,308,313,0
309,396,310,312,0
310,406,312,310,0
309,401,314,309,0
309,380,315,308,0
308,352,315,307,0
308,324,314,306,0
307,301,312,305,0
308,282,311,305,0
309,271,310,305,0
309,268,307,305,0
307,269,304,304,0
303,270,300,303,0
301,275,299,303,0
299,284,299,304,0
299,297,301,306,0
300,310,302,308,0
301,322,304,310,0
302,328,307,312,0
302,328,310,314,0
303,321,311,315,0
303,314,311,316,0
303,310,312,316,0
304,309,313,316,0
305,310,314,317,0
307,313,315,318,0
309,310,316,318,0
310,302,316,319,0
309,294,314,320,0
308,289,312,320,0
306,290,312,320,0
305,299,312,320,0
304,313,311,319,0
303,327,309,318,0
302,337,307,317,0
301,339,305,315,0
300,334,305,314,0
301,323,305,312,0
302,310,305,310,0
302,297,306,307,0
302,286,306,302,0
301,278,305,296,0
300,273,305,291,0
300,271,304,286,0
301,270,305,283,0
300,272,305,280,0
301,275,305,278,0
301,279,305,276,0
301,284,305,278,0
302,288,305,282,0
304,293,306,289,0
305,297,307,296,0
307,300,308,303,0
310,304,309,310,0
311,311,309,315,0
312,318,308,318,0
311,322,308,320,0
311,327,306,320,0
311,331,306,320,0
311,334,305,319,0
311,338,306,317,0
311,346,308,316,0
311,360,310,315,0
311,371,311,314,0
310,368,312,313,0
308,348,310,313,0
306,320,309,314,0
305,293,308,314,0
305,273,307,312,0
305,263,306,308,0
306,263,304,305,0
308,270,303,302,0
307,281,303,300,0
305,293,302,299,0
303,303,303,300,0
302,307,305,301,0
301,301,307,305,0
302,293,310,309,0
303,289,311,315,0
306,292,312,321,0
308,299,311,325,0
309,307,310,327,0
309,313,308,329,0
309,317,306,329,0
308,320,305,329,0
308,319,306,329,0
307,315,309,328,0
306,308,313,328,0
306,304,317,328,0
306,301,319,328,0
307,302,320,327,0
307,305,320,327,0
306,311,319,326,0
306,319,317,325,0
307,327,316,325,0
307,328,315,324,0
306,321,313,324,0
304,311,311,324,0
303,302,310,325,0
302,296,309,324,0
302,291,309,324,0
303,289,310,324,0
304,293,312,323,0
304,302,313,322,0
304,311,314,320,0
303,317,313,319,0
303,317,312,316,0
302,312,310,314,0
301,310,309,312,0
302,309,309,310,0
304,307,308,310,0
306,306,305,309,0
308,304,302,309,0
309,303,298,309,0
310,302,296,310,0
310,299,293,309,0
308,298,292,307,0
305,305,293,306,0
304,320,298,306,0
303,335,304,306,0
302,346,311,306,0
302,349,316,307,0
301,343,320,308,0
301,331,322,309,0
300,321,323,310,0
301,313,324,311,0
302,309,323,310,0
304,304,322,309,0
305,296,320,307,0
307,287,318,306,0
309,280,316,304,0
311,278,314,303,0
313,284,313,304,0
314,298,311,305,0
313,311,311,306,0
310,321,311,308,0
307,330,312,311,0
306,336,315,313,0
303,334,318,313,0
302,322,320,313,0
302,305,320,312,0
302,285,318,311,0
302,269,315,311,0
302,259,312,312,0
303,257,310,313,0
303,262,309,313,0
303,271,308,313,0
303,281,306,312,0
302,288,303,310,0
302,292,301,308,0
302,294,301,305,0
303,297,301,303,0
303,303,302,302,0
303,306,303,300,0
302,307,304,299,0
301,306,306,299,0
301,304,307,301,0
301,301,307,303,0
302,301,307,304,0
302,308,307,304,0
303,320,308,305,0
304,333,309,306,0
306,344,309,307,0
307,347,310,308,0
308,337,310,308,0
309,320,309,308,0
310,307,308,308,0
310,299,306,309,0
310,297,305,309,0
308,299,305,310,0
308,303,305,311,0
307,310,305,310,0
306,317,305,310,0
306,323,305,309,0
306,326,306,308,0
306,323,307,307,0
306,323,307,306,0
306,327,308,306,0
307,331,310,305,0
308,335,312,304,0
309,332,313,302,0
309,320,310,301,0
309,305,306,300,0
308,297,304,300,0
307,296,302,301,0
307,298,301,302,0
307,300,302,302,0
307,298,304,303,0
308,293,305,303,0
308,284,307,303,0
308,276,309,303,0
309,273,311,304,0
310,277,313,305,0
311,283,314,305,0
310,286,314,305,0
310,285,313,304,0
309,282,311,303,0
309,281,310,303,0
310,283,309,304,0
311,286,308,305,0
311,286,306,306,0
310,280,304,304,0
308,270,302,303,0
307,261,301,302,0
307,259,301,301,0
308,261,302,301,0
308,266,302,302,0
308,273,302,302,0
309,280,301,302,0
310,286,302,302,0
311,294,302,302,0
312,303,302,303,0
312,313,304,303,0
312,321,306,302,0
310,327,309,301,0
309,335,310,302,0
307,343,310,302,0
307,347,309,302,0
306,341,305,301,0
306,328,301,300,0
306,312,298,300,0
306,300,298,301,0
307,290,300,301,0
306,284,301,301,0
305,288,302,300,0
303,309,302,300,0
302,340,302,301,0
302,372,302,302,0
303,396,303,303,0
303,399,302,303,0
303,382,301,301,0
302,356,301,299,0
301,330,301,297,0
300,306,301,295,0
300,286,304,295,0
302,274,306,295,0
303,270,306,296,0
305,270,305,298,0
305,272,305,300,0
305,274,304,301,0
305,276,304,301,0
305,277,303,300,0
305,277,303,300,0
305,278,302,299,0
305,279,303,299,0
306,283,303,298,0
307,286,304,297,0
310,291,304,297,0
311,297,304,296,0
311,302,303,294,0
310,303,302,291,0
308,303,302,289,0
307,305,302,288,0
307,308,302,288,0
308,310,302,290,0
308,310,301,292,0
307,308,300,293,0
306,303,300,293,0
306,296,301,293,0
306,291,305,294,0
306,289,309,295,0
307,291,312,297,0
308,297,313,299,0
309,305,313,301,0
309,313,312,301,0
309,322,311,301,0
309,329,310,302,0
309,335,310,302,0
310,335,310,301,0
310,332,311,300,0
309,327,311,299,0
309,320,310,299,0
309,308,310,300,0
309,292,309,300,0
308,276,308,300,0
307,266,308,301,0
307,262,308,301,0
308,259,309,302,0
310,260,309,303,0
313,266,308,304,0
314,276,307,305,0
315,287,307,306,0
314,295,308,305,0
313,297,308,305,0
311,295,309,304,0
310,295,309,303,0
309,297,309,302,0
308,300,308,302,0
307,304,307,301,0
307,310,305,299,0
306,320,303,297,0
306,335,301,296,0
305,351,301,296,0
306,363,301,297,0
307,370,302,298,0
309,371,303,301,0
310,367,303,303,0
310,357,302,305,0
310,341,303,306,0
309,325,303,307,0
309,316,304,308,0
309,315,305,308,0
309,316,306,308,0
309,313,306,308,0
308,305,306,306,0
306,295,304,304,0
304,288,303,304,0
302,284,302,304,0
301,283,301,303,0
300,284,301,302,0
301,288,303,303,0
304,294,304,304,0
306,296,305,305,0
307,290,305,306,0
309,281,306,306,0
310,275,308,308,0
311,276,310,308,0
311,282,311,308,0
311,288,312,308,0
310,293,312,307,0
311,296,311,307,0
311,297,309,307,0
311,292,306,308,0
312,287,303,308,0
313,282,303,308,0
313,283,304,308,0
313,289,305,307,0
311,304,305,307,0
310,323,305,307,0
310,343,306,307,0
312,356,308,309,0
313,357,311,309,0
313,345,314,309,0
314,328,316,310,0
314,316,317,310,0
313,310,315,310,0
311,307,313,310,0
309,301,310,309,0
307,297,307,308,0
305,299,304,306,0
304,307,303,305,0
303,317,301,304,0
302,326,300,303,0
302,330,299,302,0
302,329,299,302,0
303,323,300,301,0
303,312,300,300,0
304,301,300,300,0
305,295,300,300,0
307,297,301,300,0
308,306,301,302,0
310,318,300,303,0
311,331,300,304,0
312,340,299,303,0
312,343,298,302,0
312,343,297,300,0
311,343,297,299,0
310,343,299,298,0
309,342,302,297,0
308,339,307,296,0
308,333,310,297,0
307,320,311,298,0
305,307,310,299,0
303,297,308,300,0
301,291,306,301,0
300,288,305,302,0
299,284,305,303,0
299,281,304,303,0
300,282,304,303,0
302,292,302,304,0
303,306,301,305,0
304,319,298,306,0
306,327,296,307,0
307,335,294,309,0
308,337,293,311,0
308,332,294,310,0
307,319,296,308,0
306,302,300,306,0
304,288,303,304,0
303,282,306,303,0
302,282,306,301,0
302,286,304,299,0
303,287,300,297,0
302,285,297,296,0
301,278,294,294,0
301,273,295,292,0
301,273,297,292,0
301,279,301,292,0
301,288,304,291,0
300,297,306,292,0
299,304,305,293,0
299,305,304,295,0
299,304,302,297,0
300,305,301,299,0
299,303,300,300,0
299,301,301,302,0
299,300,302,303,0
300,301,303,304,0
301,304,304,305,0
302,310,305,306,0
303,318,306,307,0
304,325,306,308,0
303,327,306,308,0
303,324,305,308,0
302,317,303,306,0
301,312,303,305,0
300,311,303,304,0
300,312,304,303,0
301,313,305,304,0
302,313,306,304,0
303,314,306,304,0
305,318,306,305,0
307,325,306,305,0
308,333,306,305,0
308,337,306,305,0
308,336,307,304,0
308,331,309,304,0
308,326,311,305,0
308,323,310,307,0
307,322,309,309,0
306,321,308,310,0
306,320,308,310,0
306,318,309,311,0
307,312,310,310,0
307,298,311,310,0
306,283,310,308,0
305,274,308,308,0
305,271,307,309,0
305,273,308,310,0
305,274,309,311,0
304,273,309,312,0
303,269,310,313,0
303,266,311,313,0
304,268,311,314,0
305,284,312,316,0
309,311,313,317,0
311,342,314,318,0
312,365,313,316,0
310,366,310,313,0
308,351,307,311,0
307,336,305,310,0
308,326,303,310,0
308,321,299,309,0
308,320,296,308,0
308,321,294,305,0
306,320,292,303,0
303,315,292,301,0
300,309,295,300,0
297,305,299,300,0
296,302,304,301,0
296,300,307,302,0
297,296,309,304,0
298,293,309,305,0
301,289,310,307,0
303,286,311,308,0
304,283,311,308,0
305,281,311,308,0
306,282,312,309,0
307,289,312,309,0
308,299,311,310,0
309,305,309,311,0
309,307,307,313,0
310,309,305,315,0
310,314,304,315,0
309,318,304,314,0
307,324,304,313,0
305,331,306,310,0
304,336,306,308,0
303,340,305,306,0
303,342,303,304,0
303,342,302,303,0
303,335,301,303,0
304,321,300,303,0
304,304,299,302,0
303,290,299,302,0
303,283,300,302,0
302,282,301,303,0
301,286,302,303,0
300,290,302,304,0
299,295,302,303,0
299,298,302,302,0
299,300,301,300,0
300,299,300,298,0
300,298,300,297,0
301,297,300,298,0
303,303,300,300,0
304,311,301,303,0
305,319,304,305,0
307,324,306,307,0
308,326,308,309,0
310,322,308,310,0
312,315,307,312,0
313,312,306,314,0
313,317,305,314,0
312,323,305,314,0
309,325,306,313,0
305,325,305,312,0
302,324,305,311,0
301,323,303,310,0
300,321,302,310,0
299,315,301,310,0
299,306,301,310,0
298,298,301,310,0
299,292,301,311,0
300,289,301,311,0
300,288,300,311,0
301,290,299,311,0
302,294,298,310,0
303,301,299,310,0
303,307,302,310,0
302,307,307,310,0
301,302,312,309,0
301,293,315,310,0
301,289,316,312,0
300,294,316,315,0
300,305,314,317,0
300,319,310,318,0
300,333,307,319,0
301,346,304,318,0
302,347,302,315,0
301,336,302,313,0
300,319,300,311,0
298,307,300,310,0
298,301,299,309,0
298,301,300,309,0
299,302,302,309,0
300,303,303,309,0
301,307,304,308,0
302,313,304,309,0
303,321,304,309,0
304,326,303,309,0
304,325,301,310,0
305,320,299,311,0
306,316,299,313,0
306,311,298,312,0
305,302,298,310,0
304,295,300,309,0
302,290,302,307,0
301,288,303,305,0
301,292,304,304,0
301,298,304,304,0
302,305,303,304,0
304,311,302,304,0
306,316,301,304,0
309,324,302,306,0
311,335,303,308,0
312,345,304,309,0
311,349,304,309,0
310,344,304,308,0
308,329,303,306,0
305,314,302,305,0
303,303,302,305,0
303,297,302,306,0
304,295,302,307,0
306,292,303,308,0
306,287,304,309,0
307,282,305,309,0
309,281,306,310,0
309,281,306,310,0
309,283,305,309,0
307,287,303,307,0
306,294,301,305,0
304,300,300,304,0
303,305,299,303,0
302,305,299,303,0
301,298,300,302,0
301,284,300,301,0
302,272,299,300,0
302,266,298,300,0
303,270,297,301,0
304,281,297,303,0
305,295,297,304,0
306,312,298,306,0
307,327,298,308,0
308,337,297,309,0
308,340,297,310,0
308,336,296,308,0
307,325,295,306,0
305,314,293,304,0
305,305,293,304,0
305,300,295,304,0
305,297,299,305,0
304,296,304,305,0
303,298,309,306,0
303,304,312,307,0
304,315,312,309,0
305,327,311,310,0
306,340,310,311,0
308,349,307,311,0
310,352,304,310,0
311,347,301,308,0
310,340,299,307,0
309,336,299,305,0
309,336,302,304,0
310,341,307,305,0
311,351,312,308,0
310,352,314,310,0
308,340,314,311,0
306,325,313,311,0
305,307,312,310,0
303,286,310,309,0
302,270,307,308,0
301,260,305,308,0
299,256,304,308,0
299,255,302,308,0
299,254,300,308,0
299,255,300,309,0
301,258,301,310,0
302,262,303,311,0
303,265,305,310,0
304,267,307,309,0
305,270,308,308,0
305,273,307,307,0
306,279,307,307,0
306,288,305,307,0
306,300,305,307,0
306,313,303,306,0
305,322,302,304,0
304,327,302,303,0
304,331,303,303,0
305,335,306,304,0
307,341,308,307,0
308,344,309,310,0
308,338,308,311,0
307,323,307,311,0
304,304,306,311,0
304,288,305,310,0
303,279,305,309,0
303,275,305,307,0
303,273,304,304,0
303,271,303,302,0
304,270,302,301,0
307,272,301,300,0
308,275,301,301,0
309,275,300,302,0
308,271,298,303,0
308,265,297,303,0
307,264,299,304,0
307,269,304,305,0
308,280,308,307,0
310,296,311,309,0
310,311,311,311,0
310,322,310,313,0
310,327,308,312,0
309,328,306,311,0
309,329,304,310,0
309,330,303,308,0
310,329,303,306,0
309,324,303,305,0
308,317,305,303,0
306,313,307,302,0
305,311,308,301,0
303,308,308,300,0
301,304,306,299,0
300,300,304,298,0
299,298,302,298,0
299,298,301,298,0
300,304,300,298,0
302,316,300,299,0
305,330,299,300,0
307,337,300,301,0
309,334,300,301,0
310,320,300,300,0
309,302,301,300,0
310,289,302,301,0
310,283,305,301,0
310,287,309,302,0
310,299,313,302,0
312,318,316,304,0
314,338,318,307,0
316,351,318,309,0
317,355,317,310,0
316,351,316,311,0
314,342,314,310,0
310,331,311,308,0
306,318,306,307,0
303,302,303,306,0
301,286,302,304,0
299,273,302,302,0
299,269,302,301,0
300,274,303,302,0
302,286,304,303,0
302,302,304,304,0
302,317,304,304,0
303,326,304,305,0
303,325,304,304,0
304,315,303,304,0
304,304,301,304,0
305,293,299,305,0
305,285,297,305,0
304,278,296,305,0
303,272,295,305,0
303,270,296,304,0
302,271,297,305,0
302,276,299,305,0
303,280,301,307,0
306,281,303,308,0
308,282,306,309,0
310,285,309,310,0
312,288,310,311,0
312,290,311,311,0
311,293,311,310,0
309,297,309,308,0
307,305,305,306,0
305,315,303,306,0
304,322,301,306,0
304,323,301,306,0
305,320,302,305,0
306,315,304,305,0
306,309,307,305,0
307,305,309,306,0
307,305,310,307,0
307,310,310,309,0
307,318,309,310,0
307,325,307,311,0
308,329,308,313,0
309,331,310,315,0
309,330,313,316,0
309,328,314,317,0
310,323,314,317,0
311,319,314,317,0
311,314,314,316,0
312,310,312,315,0
311,302,311,314,0
310,294,309,313,0
309,288,308,311,0
307,290,306,309,0
305,298,303,307,0
303,309,302,306,0
302,320,301,307,0
302,326,301,307,0
302,325,302,307,0
302,319,302,308,0
303,314,303,308,0
304,313,303,309,0
306,320,303,311,0
310,334,303,313,0
312,354,303,315,0
313,366,302,316,0
313,361,301,315,0
312,342,302,314,0
312,316,303,313,0
312,291,305,311,0
311,273,308,308,0
310,265,311,306,0
310,264,314,305,0
310,267,315,305,0
310,270,315,307,0
309,273,312,309,0
306,278,309,312,0
305,284,307,314,0
303,288,306,315,0
303,290,305,315,0
302,293,304,315,0
302,296,304,315,0
303,300,304,316,0
304,301,304,317,0
304,300,304,317,0
304,296,305,318,0
304,286,305,317,0
305,274,307,315,0
306,263,308,313,0
307,255,308,311,0
307,253,305,309,0
306,254,302,307,0
305,261,300,305,0
304,274,299,304,0
303,292,298,306,0
303,312,297,307,0
303,334,296,310,0
304,352,296,312,0
305,366,297,314,0
306,372,299,315,0
306,367,301,315,0
306,354,303,314,0
305,343,305,313,0
304,337,306,312,0
303,338,305,313,0
303,339,302,313,0
301,337,299,312,0
300,330,297,311,0
299,319,298,309,0
298,309,301,307,0
299,305,304,307,0
300,309,306,308,0
303,322,308,310,0
306,340,310,312,0
308,357,311,315,0
309,368,313,317,0
309,367,315,317,0
309,358,316,316,0
307,345,314,315,0
305,330,313,313,0
304,313,312,312,0
304,297,310,313,0
303,278,309,313,0
303,256,307,313,0
302,235,306,311,0
302,218,305,310,0
303,205,305,309,0
305,199,305,309,0
307,202,305,309,0
308,218,308,310,0
309,245,311,312,0
310,272,315,313,0
309,295,318,313,0
308,311,318,313,0
306,320,316,311,0
304,323,313,309,0
302,324,311,308,0
301,324,308,308,0
301,326,306,308,0
301,327,305,308,0
301,331,304,308,0
300,340,304,308,0
300,352,304,309,0
299,362,305,311,0
299,366,306,312,0
300,363,309,312,0
301,351,311,313,0
302,330,312,313,0
303,307,313,312,0
304,293,313,312,0
305,291,312,312,0
307,294,312,310,0
307,301,312,309,0
306,314,310,306,0
305,326,307,305,0
304,332,305,304,0
304,333,304,305,0
304,326,304,306,0
304,311,304,306,0
303,292,303,306,0
303,276,300,306,0
302,264,298,306,0
302,256,298,307,0
303,255,298,308,0
303,257,300,309,0
304,261,303,311,0
304,267,305,313,0
305,276,305,315,0
306,286,305,316,0
307,294,305,316,0
308,298,305,316,0
309,301,305,315,0
309,303,307,314,0
310,305,311,312,0
311,308,315,311,0
311,312,317,310,0
312,319,317,309,0
312,326,315,309,0
311,334,313,309,0
311,344,310,309,0
308,348,307,309,0
304,342,304,308,0
300,331,304,306,0
297,320,306,305,0
296,311,309,304,0
296,300,312,303,0
296,290,313,302,0
297,284,312,301,0
297,281,310,300,0
297,282,308,300,0
297,283,307,300,0
299,285,306,301,0
300,289,306,303,0
303,296,306,305,0
305,302,308,307,0
306,305,308,308,0
307,302,308,309,0
306,291,308,308,0
306,278,308,309,0
306,275,308,310,0
306,287,307,311,0
305,306,306,312,0
304,324,304,311,0
303,335,303,309,0
301,337,302,307,0
299,331,303,306,0
297,320,305,305,0
297,309,307,305,0
299,302,308,305,0
300,302,309,305,0
301,305,309,305,0
302,309,308,305,0
304,309,309,305,0
306,303,310,305,0
308,292,310,305,0
309,279,311,304,0
309,267,311,304,0
309,258,310,302,0
309,251,310,302,0
309,250,310,302,0
310,252,309,303,0
309,254,307,303,0
309,256,307,303,0
309,263,307,304,0
309,276,308,304,0
309,290,308,303,0
309,302,307,302,0
310,314,308,303,0
312,325,309,304,0
313,332,310,304,0
313,329,310,304,0
311,312,309,303,0
307,290,307,302,0
304,274,306,302,0
301,265,304,303,0
300,260,304,305,0
300,261,304,306,0
301,269,305,309,0
303,291,306,311,0
305,322,307,313,0
306,348,307,314,0
306,366,305,315,0
305,372,304,314,0
303,364,303,314,0
302,349,304,312,0
302,330,307,311,0
302,310,311,310,0
304,289,314,310,0
306,267,318,310,0
308,251,319,309,0
310,241,320,309,0
312,240,320,310,0
313,249,319,310,0
315,269,317,311,0
315,299,314,312,0
314,332,311,312,0
313,354,309,311,0
311,362,309,310,0
309,357,309,309,0
307,340,308,307,0
306,318,308,306,0
304,298,309,306,0
304,284,309,307,0
302,277,309,307,0
301,278,308,307,0
299,282,308,307,0
298,288,307,306,0
298,293,305,305,0
299,295,304,304,0
300,295,301,303,0
302,297,299,302,0
303,299,297,301,0
304,301,295,300,0
306,303,294,300,0
309,306,295,299,0
311,313,299,299,0
312,322,304,300,0
313,327,310,301,0
312,326,315,301,0
312,313,317,302,0
312,293,319,302,0
312,274,319,302,0
312,262,318,302,0
313,258,317,302,0
313,262,316,302,0
313,269,314,304,0
314,276,313,305,0
316,282,313,307,0
318,289,312,308,0
319,295,311,309,0
318,300,309,308,0
314,309,305,306,0
310,320,300,303,0
306,331,297,301,0
303,341,294,300,0
301,350,293,299,0
300,357,295,299,0
302,365,300,302,0
305,374,306,303,0
308,382,310,304,0
310,390,312,304,0
311,399,311,303,0
312,403,309,303,0
311,394,307,301,0
309,372,305,299,0
307,344,305,298,0
305,320,304,297,0
305,302,305,297,0
305,289,305,297,0
305,280,305,298,0
305,272,304,301,0
306,266,305,303,0
307,264,305,304,0
307,265,304,304,0
307,270,304,304,0
308,278,304,303,0
308,287,305,303,0
309,300,307,302,0
310,315,308,302,0
310,327,310,302,0
309,334,310,302,0
309,336,311,302,0
308,334,310,302,0
307,328,309,303,0
307,319,309,306,0
309,311,309,307,0
310,300,310,308,0
313,288,310,309,0
316,280,310,310,0
318,281,309,312,0
319,287,308,312,0
318,292,307,311,0
315,291,307,310,0
310,289,309,308,0
307,289,311,307,0
306,292,312,306,0
306,297,312,305,0
305,301,311,303,0
304,304,307,302,0
303,305,305,302,0
304,305,304,303,0
305,302,303,304,0
308,300,301,305,0
310,301,300,307,0
312,304,299,308,0
314,309,299,309,0
315,316,299,310,0
315,319,298,308,0
313,317,297,307,0
311,312,297,306,0
310,307,298,305,0
308,308,300,305,0
306,315,303,305,0
305,323,308,304,0
304,327,313,303,0
305,323,316,303,0
306,310,317,302,0
308,287,317,301,0
309,267,317,302,0
309,259,317,303,0
308,268,315,304,0
305,290,313,304,0
302,309,311,304,0
300,320,307,302,0
298,324,304,299,0
297,326,301,298,0
298,325,299,298,0
299,322,298,299,0
301,318,296,300,0
302,318,295,302,0
304,323,296,303,0
305,333,298,305,0
305,340,300,306,0
305,342,302,307,0
304,338,305,306,0
302,329,308,305,0
301,318,311,304,0
301,311,313,303,0
303,307,312,303,0
304,304,311,302,0
305,301,308,302,0
306,295,306,301,0
306,287,304,302,0
306,278,302,302,0
306,269,301,302,0
305,263,301,302,0
306,264,302,304,0
305,273,303,306,0
304,284,303,308,0
303,294,303,309,0
302,302,301,310,0
301,307,300,310,0
300,310,299,309,0
300,310,297,307,0
299,308,298,306,0
299,305,300,305,0
299,302,304,304,0
300,301,308,304,0
301,302,311,304,0
302,304,312,303,0
303,308,312,303,0
304,312,311,303,0
304,315,309,304,0
304,313,308,305,0
303,307,307,306,0
302,297,307,307,0
302,287,305,307,0
300,280,304,307,0
299,280,303,306,0
298,289,303,306,0
297,303,304,306,0
297,318,303,306,0
297,332,303,307,0
298,349,302,308,0
299,365,300,310,0
302,377,300,312,0
305,384,300,313,0
307,384,302,314,0
309,380,303,314,0
309,377,304,314,0
309,374,305,314,0
308,358,305,314,0
306,333,305,314,0
303,309,306,313,0
300,295,309,312,0
299,290,312,312,0
300,290,314,312,0
302,292,314,312,0
303,293,314,312,0
305,294,312,312,0
306,295,309,312,0
306,297,306,310,0
307,300,303,308,0
308,303,301,306,0
308,305,301,306,0
308,302,302,306,0
307,295,304,305,0
304,287,307,304,0
303,283,310,304,0
304,284,313,304,0
305,290,315,305,0
307,298,315,306,0
307,306,314,306,0
306,311,313,306,0
305,312,310,304,0
305,308,309,304,0
305,302,308,303,0
307,294,308,304,0
308,286,308,305,0
309,279,307,305,0
310,277,307,306,0
310,283,306,307,0
308,295,306,309,0
307,304,304,309,0
305,310,303,309,0
305,314,302,310,0
305,317,302,311,0
306,320,303,313,0
307,322,305,314,0
308,321,309,314,0
309,318,314,314,0
309,315,317,314,0
309,314,318,314,0
308,312,316,314,0
306,310,314,314,0
305,307,312,313,0
304,304,311,312,0
305,303,310,310,0
305,302,310,309,0
307,302,309,307,0
307,303,309,307,0
307,301,307,306,0
307,296,305,306,0
306,293,304,306,0
305,297,304,307,0
305,306,304,308,0
305,316,305,308,0
307,330,307,308,0
308,346,309,310,0
310,361,311,311,0
313,372,313,313,0
314,374,313,313,0
313,360,311,313,0
311,338,309,312,0
310,317,307,311,0
309,304,307,310,0
309,299,308,310,0
309,304,311,310,0
308,317,312,309,0
306,334,312,309,0
303,348,310,308,0
300,355,309,308,0
298,347,308,308,0
298,327,308,307,0
297,305,308,307,0
297,291,307,306,0
298,285,306,307,0
299,286,303,307,0
299,289,302,308,0
300,294,302,308,0
301,297,302,308,0
302,301,303,308,0
303,307,304,307,0
305,313,305,308,0
307,320,307,309,0
309,321,308,310,0
310,314,308,311,0
310,300,309,311,0
309,285,310,312,0
309,274,312,312,0
309,271,314,313,0
309,277,314,313,0
309,286,313,312,0
307,292,310,311,0
307,296,308,310,0
308,298,306,309,0
309,303,305,309,0
309,314,304,310,0
308,329,304,309,0
307,340,305,307,0
305,346,307,306,0
303,344,310,304,0
302,332,313,303,0
302,315,315,303,0
302,298,315,303,0
302,284,313,303,0
303,272,310,304,0
304,266,308,305,0
305,263,306,305,0
307,264,305,305,0
309,271,305,305,0
311,285,305,305,0
312,302,305,306,0
313,317,305,306,0
313,329,305,306,0
313,335,305,306,0
314,335,306,306,0
314,330,307,305,0
314,326,306,306,0
313,324,304,306,0
311,326,302,306,0
310,331,301,306,0
308,330,301,306,0
306,319,302,305,0
305,302,303,304,0
304,287,303,303,0
303,279,302,303,0
304,280,301,303,0
305,288,299,304,0
306,299,299,305,0
308,308,299,306,0
310,315,300,307,0
312,319,299,307,0
314,321,298,307,0
315,324,298,305,0
315,330,299,304,0
314,341,300,304,0
312,352,301,303,0
309,356,304,303,0
306,346,306,303,0
304,330,306,304,0
302,315,305,305,0
301,303,303,306,0
301,293,302,308,0
302,287,301,308,0
303,282,301,308,0
304,279,303,307,0
304,280,305,306,0
305,286,307,305,0
307,297,309,306,0
308,308,311,305,0
309,313,310,305,0
309,308,309,305,0
310,295,308,304,0
310,281,308,305,0
310,271,309,307,0
310,266,308,308,0
308,262,306,308,0
307,263,304,307,0
305,268,302,305,0
304,276,302,303,0
304,285,303,302,0
304,295,305,303,0
305,307,306,304,0
306,321,305,305,0
306,336,303,306,0
307,351,301,308,0
309,369,300,309,0
310,382,298,310,0
310,384,295,308,0
309,375,294,306,0
308,356,295,303,0
307,327,297,302,0
307,297,301,302,0
308,277,305,305,0
309,273,310,309,0
309,281,313,312,0
308,290,313,312,0
306,290,312,311,0
304,281,311,309,0
304,273,312,309,0
305,271,313,309,0
306,274,314,311,0
307,277,314,312,0
306,278,314,313,0
306,279,314,313,0
307,282,314,315,0
308,284,314,316,0
308,280,313,317,0
306,272,311,316,0
305,267,309,314,0
304,268,307,312,0
303,272,306,311,0
303,276,304,309,0
303,278,303,308,0
304,282,302,307,0
306,289,303,307,0
309,298,303,308,0
312,307,303,308,0
314,312,302,309,0
313,316,300,309,0
312,319,301,310,0
311,319,303,312,0
310,315,308,312,0
308,311,311,311,0
306,314,313,309,0
305,322,315,309,0
305,335,315,309,0
306,352,315,309,0
307,370,314,311,0
308,385,313,311,0
310,395,312,312,0
311,394,311,313,0
311,381,311,313,0
312,362,311,315,0
314,342,310,316,0
314,322,309,317,0
314,304,307,316,0
313,289,305,314,0
311,281,303,312,0
310,277,302,311,0
310,279,303,310,0
311,282,304,310,0
312,284,305,310,0
312,285,306,310,0
312,288,306,309,0
311,292,305,308,0
311,295,305,308,0
312,300,306,310,0
311,306,307,311,0
311,307,309,312,0
311,304,311,312,0
312,303,313,312,0
313,305,314,312,0
313,307,313,312,0
312,306,312,310,0
310,301,311,309,0
307,293,310,307,0
304,288,309,307,0
303,282,308,307,0
302,271,308,306,0
302,252,306,304,0
302,231,305,303,0
303,209,304,301,0
305,189,303,299,0
307,172,303,297,0
309,164,304,297,0
310,170,305,297,0
310,198,305,298,0
308,236,304,301,0
307,279,304,304,0
306,320,305,307,0
307,355,307,311,0
310,383,310,316,0
312,397,313,320,0
312,388,314,320,0
309,366,312,318,0
305,350,310,316,0
302,350,307,314,0
300,358,304,312,0
299,370,303,310,0
299,384,303,309,0
300,397,305,309,0
303,403,310,310,0
307,401,314,312,0
311,385,317,313,0
311,363,318,314,0
310,341,316,314,0
307,325,315,313,0
305,314,313,312,0
303,306,311,311,0
302,293,309,309,0
302,275,308,305,0
303,259,307,303,0
304,251,307,302,0
304,250,306,302,0
305,253,306,303,0
306,257,306,305,0
307,263,307,306,0
309,271,307,307,0
311,279,308,307,0
313,289,307,308,0
314,307,307,309,0
314,332,307,311,0
315,358,307,312,0
314,374,307,310,0
312,375,306,308,0
310,360,304,306,0
309,332,302,305,0
309,302,302,305,0
310,276,302,305,0
311,261,302,306,0
311,261,305,307,0
311,275,307,307,0
309,299,307,307,0
308,325,307,306,0
307,348,304,305,0
306,364,301,304,0
305,370,297,302,0
304,360,292,301,0
302,339,289,300,0
300,318,287,301,0
299,302,289,302,0
298,292,294,304,0
299,289,300,306,0
300,289,305,309,0
302,292,309,312,0
304,294,309,314,0
305,297,308,316,0
307,299,306,317,0
309,303,306,318,0
311,312,306,319,0
314,322,306,319,0
316,327,307,319,0
317,327,307,318,0
316,321,308,316,0
314,312,309,314,0
312,301,309,312,0
310,293,309,310,0
310,286,308,308,0
311,282,306,308,0
312,282,304,308,0
313,288,304,309,0
313,295,305,310,0
312,303,308,311,0
311,311,310,312,0
310,322,311,313,0
310,331,310,314,0
310,337,308,314,0
308,341,305,313,0
306,338,303,313,0
303,331,302,313,0
301,324,302,313,0
300,320,303,315,0
300,320,304,315,0
301,318,303,317,0
303,314,303,317,0
305,310,303,318,0
307,304,305,319,0
310,301,306,320,0
312,300,308,320,0
313,301,310,321,0
314,308,310,322,0
314,320,310,321,0
313,333,309,319,0
311,346,308,316,0
310,359,307,314,0
309,368,307,312,0
309,371,306,313,0
309,367,306,313,0
310,358,306,313,0
309,346,305,312,0
308,331,304,312,0
308,319,302,313,0
307,312,301,315,0
307,307,301,318,0
308,299,301,320,0
309,289,301,323,0
309,279,301,325,0
310,272,302,326,0
311,270,302,327,0
313,271,301,326,0
314,275,299,326,0
314,280,296,325,0
314,285,295,324,0
312,292,296,323,0
311,302,299,323,0
312,313,302,324,0
313,321,304,324,0
313,317,305,324,0
314,306,305,323,0
313,297,304,322,0
313,292,303,321,0
311,289,303,320,0
310,289,305,319,0
309,294,308,319,0
309,300,311,320,0
308,303,313,321,0
308,303,314,321,0
308,294,313,321,0
308,283,311,321,0
308,278,309,321,0
306,278,308,322,0
305,281,306,323,0
305,284,306,323,0
305,289,305,323,0
305,297,305,324,0
304,304,303,324,0
303,308,302,323,0
303,307,300,322,0
304,302,300,321,0
306,296,301,320,0
307,292,301,320,0
308,293,300,320,0
310,300,300,320,0
311,310,301,320,0
312,316,302,320,0
312,319,304,320,0
312,319,307,319,0
312,319,311,319,0
311,318,314,319,0
311,320,314,320,0
312,330,314,322,0
313,346,313,323,0
313,361,311,323,0
313,371,309,323,0
312,375,308,323,0
311,365,306,322,0
309,347,305,321,0
306,331,304,320,0
305,318,304,320,0
304,307,305,320,0
303,296,304,320,0
303,283,304,319,0
304,271,304,319,0
305,264,304,319,0
306,261,304,318,0
306,259,304,317,0
305,259,304,315,0
305,261,303,315,0
304,269,302,315,0
305,282,301,316,0
306,298,302,318,0
308,313,303,319,0
310,326,304,320,0
312,332,306,322,0
313,335,307,323,0
315,334,308,324,0
315,332,309,323,0
315,327,308,322,0
314,320,308,319,0
311,313,308,315,0
308,304,307,313,0
306,293,306,311,0
303,281,305,310,0
302,274,303,310,0
301,274,300,311,0
302,280,298,312,0
302,287,297,313,0
303,294,296,313,0
302,301,296,313,0
301,309,299,312,0
300,319,304,312,0
299,330,309,312,0
299,340,313,312,0
301,349,316,313,0
303,354,316,313,0
304,350,313,313,0
304,339,308,314,0
304,325,304,314,0
303,310,299,314,0
302,299,296,313,0
302,297,295,312,0
301,302,298,312,0
301,313,303,312,0
301,328,308,312,0
301,344,312,312,0
302,355,314,312,0
303,359,314,313,0
304,353,313,316,0
304,335,310,317,0
304,309,307,318,0
304,284,306,318,0
305,267,306,318,0
306,258,306,318,0
308,255,306,319,0
310,253,308,319,0
312,252,310,319,0
314,252,311,319,0
315,256,311,320,0
315,266,311,320,0
315,282,311,321,0
313,298,311,322,0
312,313,311,323,0
309,321,309,321,0
304,321,307,318,0
300,316,305,316,0
298,309,304,313,0
297,302,304,310,0
297,295,304,308,0
299,288,305,306,0
301,283,307,306,0
304,282,308,306,0
306,286,310,308,0
307,294,311,310,0
307,302,312,311,0
306,306,311,310,0
304,306,311,309,0
303,306,310,308,0
304,308,309,307,0
305,314,309,307,0
306,322,309,307,0
307,323,308,308,0
306,320,306,307,0
304,316,303,307,0
303,311,301,307,0
303,305,300,307,0
303,298,300,309,0
302,294,302,309,0
302,292,304,310,0
302,291,305,310,0
303,291,306,310,0
304,293,306,311,0
306,297,306,311,0
307,303,304,312,0
309,310,303,312,0
310,321,302,312,0
312,341,302,311,0
314,368,302,312,0
317,396,303,311,0
318,415,304,311,0
318,413,305,310,0
316,386,306,308,0
313,347,307,306,0
309,308,308,305,0
306,278,310,303,0
304,260,311,303,0
304,253,311,303,0
304,256,312,303,0
305,261,311,303,0
304,263,311,304,0
305,263,309,304,0
304,260,308,304,0
305,258,307,305,0
305,258,306,306,0
305,261,305,307,0
304,265,304,307,0
303,269,304,307,0
303,271,306,306,0
303,272,309,305,0
303,274,313,304,0
305,278,315,304,0
306,284,315,305,0
306,292,313,306,0
307,300,312,308,0
307,307,311,309,0
308,310,309,310,0
308,310,308,310,0
309,310,307,311,0
310,308,307,312,0
311,301,307,311,0
310,292,308,309,0
311,286,309,308,0
310,287,310,308,0
310,295,310,308,0
310,299,311,306,0
310,298,311,303,0
310,290,311,301,0
310,284,309,299,0
310,282,307,299,0
310,284,306,299,0
310,293,306,299,0
310,310,306,300,0
309,331,306,300,0
307,348,305,299,0
304,357,304,298,0
302,360,303,297,0
301,354,302,297,0
301,343,302,298,0
301,333,302,300,0
302,326,302,302,0
304,319,303,303,0
306,311,304,304,0
307,303,305,303,0
307,296,306,303,0
308,291,305,303,0
309,291,306,304,0
310,299,308,304,0
312,316,310,304,0
313,336,310,304,0
314,357,309,304,0
316,375,308,305,0
318,380,306,304,0
317,364,303,303,0
314,335,300,301,0
311,309,298,300,0
308,292,299,301,0
306,283,304,302,0
305,283,310,303,0
304,291,316,304,0
303,302,319,304,0
303,311,320,304,0
303,313,320,303,0
303,306,318,301,0
304,293,316,300,0
304,280,314,300,0
305,270,313,299,0
304,267,311,298,0
303,269,308,298,0
304,275,306,298,0
304,282,305,299,0
305,288,304,300,0
306,293,303,300,0
306,296,304,299,0
305,297,306,297,0
303,295,309,296,0
303,290,313,295,0
303,285,314,296,0
304,283,314,297,0
306,283,314,298,0
308,286,314,299,0
310,289,313,300,0
310,293,311,300,0
309,299,310,299,0
307,306,308,297,0
305,311,307,296,0
303,313,306,296,0
302,311,306,295,0
301,307,306,296,0
300,306,306,297,0
301,309,306,299,0
302,316,307,300,0
303,324,307,300,0
304,333,307,299,0
305,344,307,298,0
306,354,306,297,0
307,357,305,296,0
307,346,305,294,0
307,322,305,293,0
306,298,305,293,0
306,279,306,293,0
307,269,307,295,0
309,267,308,297,0
311,271,307,299,0
312,277,306,299,0
312,287,304,299,0
310,294,304,298,0
308,297,304,297,0
306,296,303,295,0
304,296,301,294,0
303,299,300,294,0
302,303,298,296,0
303,309,298,298,0
304,315,298,300,0
304,321,298,301,0
305,329,299,302,0
305,333,302,301,0
306,333,305,299,0
306,331,307,297,0
306,328,306,295,0
306,324,307,293,0
305,319,308,292,0
305,314,309,290,0
305,309,309,289,0
305,304,308,288,0
307,301,307,288,0
309,303,305,289,0
311,309,303,290,0
313,314,302,290,0
313,317,301,290,0
312,316,300,289,0
308,311,300,287,0
305,306,302,285,0
302,305,305,285,0
303,310,309,286,0
304,317,311,288,0
307,323,312,289,0
309,325,311,291,0
310,324,309,291,0
312,318,307,293,0
314,311,307,295,0
314,306,309,296,0
312,304,313,296,0
310,301,317,295,0
306,300,319,295,0
304,302,320,296,0
303,307,318,297,0
302,307,315,297,0
300,306,312,296,0
299,306,309,294,0
298,308,306,292,0
297,311,304,290,0
298,316,303,290,0
298,321,303,290,0
299,324,303,291,0
300,325,302,292,0
301,323,302,294,0
302,318,303,295,0
302,310,303,295,0
304,301,304,295,0
305,293,304,295,0
306,288,303,295,0
307,285,304,295,0
308,284,304,295,0
307,284,305,295,0
307,285,307,296,0
308,292,310,298,0
309,307,311,300,0
310,329,312,301,0
312,352,313,302,0
313,372,314,302,0
313,384,313,302,0
312,384,312,302,0
310,374,309,301,0
308,352,307,298,0
305,325,306,295,0
302,297,305,292,0
301,278,304,290,0
300,271,303,290,0
299,272,301,290,0
299,275,300,290,0
298,278,298,289,0
298,282,298,290,0
298,288,299,290,0
299,296,303,291,0
301,304,308,292,0
302,311,313,295,0
302,311,316,296,0
301,304,318,297,0
301,295,318,298,0
301,287,319,299,0
303,283,319,300,0
305,282,318,301,0
307,284,318,301,0
308,288,317,301,0
309,289,316,300,0
309,288,315,299,0
309,287,315,299,0
309,290,314,299,0
308,297,314,299,0
306,308,313,299,0
304,317,312,299,0
304,323,311,298,0
304,327,309,298,0
305,329,309,298,0
308,328,309,300,0
310,326,309,301,0
312,320,307,301,0
312,312,304,300,0
310,305,302,298,0
308,303,300,295,0
306,304,302,293,0
304,307,305,292,0
303,309,310,290,0
303,310,315,290,0
302,308,318,290,0
302,304,318,291,0
301,302,316,291,0
301,301,314,291,0
301,302,312,291,0
301,305,311,292,0
302,311,311,294,0
304,318,311,295,0
306,322,312,297,0
309,321,314,299,0
311,317,315,301,0
312,313,315,302,0
311,311,313,302,0
308,309,311,301,0
304,303,309,299,0
301,292,307,297,0
299,283,305,296,0
297,278,303,297,0
297,277,303,299,0
298,279,304,302,0
299,280,305,304,0
301,279,306,305,0
302,280,307,305,0
304,285,308,305,0
306,292,308,305,0
307,299,307,304,0
308,306,305,304,0
309,314,305,304,0
310,321,305,305,0
311,323,305,305,0
310,320,304,304,0
309,315,304,301,0
308,309,303,299,0
307,305,303,297,0
308,305,304,297,0
309,306,305,296,0
309,306,305,296,0
307,304,304,295,0
305,304,306,295,0
304,304,308,295,0
303,305,309,295,0
302,303,309,295,0
302,298,308,294,0
303,293,308,294,0
303,291,308,294,0
304,293,307,294,0
303,295,305,294,0
303,298,303,294,0
303,299,302,293,0
303,297,301,292,0
304,293,300,292,0
304,289,300,293,0
305,288,300,293,0
307,292,301,295,0
309,299,302,296,0
311,306,301,297,0
313,311,302,298,0
314,314,305,299,0
315,316,309,299,0
314,318,313,300,0
314,321,317,301,0
314,326,319,302,0
313,331,319,302,0
312,335,319,301,0
310,342,318,300,0
310,350,318,300,0
311,353,318,301,0
312,346,318,302,0
313,332,318,303,0
314,312,318,305,0
316,294,318,307,0
317,282,318,307,0
317,282,317,307,0
314,297,315,306,0
311,321,312,305,0
308,342,309,304,0
304,349,307,303,0
302,341,305,302,0
302,325,304,303,0
301,309,304,304,0
301,296,304,304,0
301,287,305,304,0
300,281,306,304,0
300,277,307,304,0
300,274,309,304,0
301,272,311,303,0
302,271,312,304,0
303,271,313,304,0
304,270,313,304,0
305,269,312,302,0
305,271,312,302,0
307,276,312,300,0
308,282,313,299,0
310,288,314,299,0
311,294,314,297,0
309,297,312,295,0
306,299,310,293,0
303,302,308,292,0
301,306,306,291,0
300,313,306,292,0
299,318,306,292,0
300,318,307,293,0
301,315,308,295,0
302,312,307,297,0
304,312,305,299,0
304,312,303,301,0
304,312,302,303,0
303,311,302,305,0
304,310,302,306,0
304,309,303,307,0
304,309,305,307,0
305,308,307,307,0
305,311,308,306,0
306,318,309,305,0
307,327,309,305,0
307,335,308,304,0
308,341,306,303,0
307,341,305,301,0
306,331,305,299,0
303,316,306,297,0
301,306,307,297,0
301,302,309,297,0
302,303,311,298,0
304,307,311,299,0
305,310,311,301,0
307,312,311,303,0
309,312,311,306,0
310,311,310,309,0
310,309,308,311,0
309,311,307,312,0
308,315,307,312,0
308,323,307,312,0
307,336,307,310,0
305,350,305,308,0
304,359,304,306,0
303,361,302,304,0
303,351,300,302,0
303,327,299,300,0
302,298,298,298,0
301,272,297,297,0
300,253,298,295,0
297,243,300,294,0
296,243,305,295,0
296,250,311,297,0
297,260,316,300,0
299,272,317,302,0
301,283,317,304,0
304,294,315,304,0
305,300,312,304,0
306,300,310,304,0
307,296,308,304,0
307,291,306,305,0
308,286,305,305,0
308,281,305,306,0
309,276,306,307,0
310,273,307,308,0
312,272,309,307,0
312,273,311,306,0
312,275,312,305,0
311,276,312,303,0
311,276,310,301,0
310,276,309,299,0
311,275,308,298,0
312,278,308,297,0
312,284,308,297,0
310,291,308,296,0
309,299,308,296,0
307,311,307,297,0
305,324,306,298,0
303,341,306,298,0
302,357,306,298,0
301,367,306,299,0
300,370,306,300,0
301,363,306,300,0
301,349,305,300,0
302,330,305,300,0
303,314,305,300,0
304,299,305,299,0
305,287,305,298,0
307,278,305,299,0
309,273,305,300,0
312,270,306,301,0
313,271,306,302,0
316,277,306,304,0
316,283,305,305,0
315,284,303,305,0
312,283,302,303,0
307,284,300,301,0
302,293,298,300,0
298,311,297,301,0
297,331,297,303,0
297,350,296,305,0
298,361,297,305,0
300,359,299,304,0
300,344,302,302,0
300,322,306,299,0
300,302,309,296,0
300,287,311,295,0
300,281,312,295,0
302,281,311,295,0
303,287,309,296,0
305,295,306,297,0
306,301,304,300,0
307,305,301,303,0
308,307,300,307,0
310,308,298,309,0
310,304,297,308,0
308,296,294,307,0
305,286,293,305,0
304,278,294,304,0
304,273,297,304,0
304,271,303,304,0
304,270,310,304,0
304,273,314,304,0
304,285,315,305,0
305,306,315,307,0
305,330,313,308,0
305,350,310,308,0
303,358,307,307,0
301,349,305,306,0
300,327,304,306,0
301,306,305,307,0
302,290,306,309,0
303,277,307,311,0
304,269,308,311,0
304,270,309,311,0
303,281,309,310,0
302,299,309,309,0
302,315,308,306,0
299,322,306,303,0
297,318,304,300,0
295,306,302,299,0
295,295,302,298,0
296,285,302,299,0
297,279,303,301,0
299,274,303,303,0
300,270,303,304,0
301,270,304,304,0
302,276,305,305,0
304,287,306,305,0
306,303,307,307,0
308,323,308,308,0
308,337,307,310,0
309,337,308,310,0
309,328,307,311,0
308,317,306,312,0
308,309,305,312,0
308,306,303,313,0
309,308,301,314,0
309,312,298,315,0
307,312,295,315,0
304,307,293,315,0
303,300,294,314,0
302,294,297,314,0
302,291,301,314,0
302,290,304,314,0
301,290,306,313,0
301,291,307,311,0
300,293,306,310,0
299,291,303,309,0
298,284,301,307,0
299,273,300,306,0
300,265,300,306,0
302,261,300,306,0
303,262,299,306,0
303,267,297,306,0
302,274,296,306,0
301,284,295,306,0
300,296,296,307,0
300,306,299,308,0
299,311,305,309,0
300,312,312,310,0
302,314,316,312,0
304,322,318,314,0
307,337,317,316,0
307,353,313,317,0
306,363,309,317,0
305,364,306,316,0
303,354,303,315,0
302,341,301,314,0
301,328,300,313,0
301,319,301,313,0
302,311,302,314,0
303,301,304,314,0
303,287,304,314,0
302,275,304,313,0
301,269,303,313,0
301,268,302,312,0
300,270,300,312,0
301,272,299,311,0
301,274,299,311,0
301,278,301,313,0
302,283,303,315,0
304,292,306,318,0
307,305,309,320,0
309,323,313,324,0
312,343,315,326,0
314,357,316,327,0
312,357,315,326,0
310,350,314,324,0
307,341,314,322,0
305,330,313,321,0
304,320,311,320,0
303,311,309,321,0
302,303,308,322,0
302,294,308,321,0
302,287,307,320,0
302,283,306,319,0
304,286,306,317,0
307,292,306,317,0
310,300,305,315,0
312,306,304,315,0
313,309,302,313,0
312,305,300,313,0
310,296,300,312,0
308,289,301,313,0
307,287,303,314,0
305,287,306,314,0
303,289,309,313,0
302,291,311,313,0
301,293,314,314,0
301,297,315,314,0
302,299,316,314,0
303,298,315,313,0
304,294,314,312,0
305,288,313,311,0
307,284,311,310,0
309,282,309,309,0
311,281,307,308,0
311,284,303,307,0
311,288,301,308,0
310,293,301,308,0
310,296,302,309,0
310,298,303,309,0
309,301,303,310,0
308,308,304,310,0
306,321,306,310,0
305,336,309,310,0
305,349,311,311,0
304,356,312,311,0
302,353,313,311,0
301,347,314,310,0
300,341,314,311,0
301,338,314,311,0
302,333,314,312,0
303,323,313,312,0
305,312,312,312,0
307,305,312,314,0
311,305,313,316,0
314,313,313,317,0
316,322,314,318,0
316,330,313,318,0
315,338,312,316,0
313,347,311,314,0
310,354,309,312,0
308,354,308,310,0
306,342,305,307,0
303,323,302,305,0
301,306,298,303,0
299,296,296,302,0
298,293,296,301,0
298,292,296,301,0
299,290,298,303,0
300,284,301,306,0
300,281,303,308,0
300,279,305,310,0
299,279,305,311,0
300,278,306,312,0
300,276,306,312,0
301,274,305,311,0
302,272,305,310,0
304,270,306,310,0
307,267,307,310,0
309,264,308,310,0
311,263,308,311,0
313,265,308,312,0
315,270,307,312,0
314,274,305,312,0
312,280,303,311,0
310,290,301,311,0
309,303,301,311,0
308,318,301,310,0
309,335,303,309,0
309,354,305,307,0
308,369,307,306,0
307,377,308,305,0
308,374,308,305,0
309,362,308,305,0
310,343,307,307,0
310,327,307,308,0
309,318,306,312,0
310,314,306,313,0
309,305,306,313,0
306,290,306,309,0
302,272,306,304,0
300,259,305,301,0
300,253,304,299,0
300,252,303,299,0
301,258,303,301,0
302,268,302,304,0
302,280,300,307,0
302,289,299,310,0
303,295,300,313,0
303,299,301,315,0
303,302,302,317,0
302,303,305,317,0
301,305,309,317,0
301,309,314,315,0
301,314,316,313,0
300,320,316,310,0
301,326,315,308,0
303,332,313,307,0
305,339,311,306,0
306,346,308,304,0
307,354,305,304,0
307,361,304,304,0
306,359,304,305,0
306,345,304,305,0
304,325,304,305,0
304,308,305,304,0
304,295,305,302,0
305,284,306,302,0
306,277,307,303,0
308,273,309,305,0
310,272,310,306,0
311,273,310,307,0
311,274,308,306,0
308,274,304,305,0
303,274,300,303,0
301,275,298,303,0
299,278,299,303,0
299,283,301,304,0
299,289,303,305,0
299,295,305,306,0
300,302,307,307,0
301,311,308,308,0
303,317,309,309,0
304,317,309,310,0
307,313,310,312,0
310,308,310,313,0
311,303,310,312,0
310,302,308,311,0
309,308,306,310,0
308,318,304,308,0
308,331,302,306,0
308,344,301,304,0
307,351,299,302,0
304,350,298,300,0
302,344,297,298,0
300,333,295,297,0
300,318,294,296,0
300,308,293,297,0
301,307,294,299,0
302,312,296,301,0
304,315,299,304,0
304,311,303,306,0
304,304,308,309,0
304,297,312,311,0
304,297,313,311,0
304,303,313,312,0
304,311,311,312,0
304,322,308,312,0
305,330,305,312,0
306,331,301,312,0
306,324,299,313,0
307,313,299,315,0
308,303,301,316,0
308,297,305,315,0
308,295,309,315,0
308,294,312,314,0
307,295,312,313,0
305,297,311,312,0
302,298,311,311,0
301,299,312,310,0
301,302,314,309,0
302,307,315,309,0
304,314,315,308,0
305,322,313,307,0
304,328,311,305,0
304,332,308,304,0
305,330,306,303,0
307,321,304,302,0
309,307,303,301,0
310,295,301,301,0
311,288,301,301,0
312,287,301,302,0
311,288,301,302,0
310,290,302,302,0
308,292,304,302,0
308,291,307,303,0
307,288,309,303,0
306,283,308,303,0
305,280,307,303,0
305,279,306,303,0
305,279,306,303,0
305,279,306,303,0
306,280,306,303,0
307,282,305,303,0
307,285,304,303,0
307,293,303,304,0
306,306,302,305,0
306,325,302,306,0
306,343,304,306,0
306,354,306,305,0
306,355,308,304,0
304,348,309,302,0
303,334,310,301,0
302,319,311,301,0
302,305,312,302,0
303,295,312,302,0
304,289,312,304,0
307,286,312,305,0
310,284,313,306,0
314,286,314,307,0
317,290,315,308,0
320,297,316,308,0
319,303,315,307,0
316,305,313,303,0
310,302,309,299,0
304,299,306,295,0
301,299,304,293,0
299,298,302,292,0
299,297,300,293,0
300,298,299,294,0
301,301,298,296,0
302,302,298,297,0
303,302,299,298,0
304,302,301,299,0
304,300,302,300,0
304,299,303,301,0
305,303,304,302,0
307,313,306,304,0
310,328,309,305,0
312,342,312,306,0
313,351,314,306,0
313,350,313,306,0
310,340,311,304,0
307,325,309,302,0
304,311,306,301,0
301,298,304,300,0
300,288,302,299,0
300,281,302,299,0
301,276,302,299,0
301,272,302,298,0
302,267,303,299,0
303,264,303,299,0
304,262,303,300,0
306,262,303,301,0
308,261,303,303,0
312,260,306,306,0
316,259,309,309,0
320,264,311,311,0
323,274,312,313,0
323,291,311,314,0
322,312,309,315,0
318,331,306,315,0
313,340,303,313,0
309,343,299,311,0
306,348,297,311,0
305,355,297,310,0
304,361,298,309,0
301,359,298,307,0
298,354,298,305,0
296,351,298,303,0
295,348,300,302,0
294,345,302,301,0
296,340,306,302,0
298,332,309,302,0
300,321,311,303,0
302,312,310,304,0
304,302,308,304,0
304,292,305,304,0
305,283,303,304,0
305,279,301,304,0
305,276,300,304,0
306,273,300,303,0
306,273,299,304,0
307,278,297,305,0
308,286,296,307,0
309,296,296,310,0
310,307,299,312,0
311,318,300,313,0
310,326,300,312,0
307,327,299,310,0
303,323,300,309,0
301,318,301,307,0
299,312,302,307,0
298,305,302,306,0
298,299,302,306,0
298,293,302,305,0
299,288,302,305,0
301,281,302,305,0
304,271,304,306,0
307,263,307,307,0
310,262,309,308,0
314,268,311,310,0
318,280,313,310,0
319,298,314,310,0
320,319,314,310,0
319,332,313,310,0
316,336,311,309,0
313,337,308,308,0
311,336,306,307,0
309,337,303,305,0
306,339,300,303,0
303,337,299,300,0
299,332,299,299,0
298,326,299,300,0
298,318,301,301,0
299,310,304,303,0
301,301,306,304,0
303,294,308,306,0
305,290,308,306,0
306,292,307,307,0
306,297,307,308,0
307,303,305,308,0
306,305,304,308,0
304,302,303,308,0
303,296,302,308,0
302,288,302,308,0
302,284,302,309,0
303,286,302,310,0
304,294,302,311,0
303,305,300,312,0
303,315,299,313,0
303,322,297,313,0
304,328,296,314,0
306,332,294,315,0
308,338,293,315,0
311,348,294,317,0
314,362,295,318,0
315,376,298,319,0
314,385,300,319,0
311,386,304,318,0
308,379,308,315,0
304,364,312,313,0
302,342,314,310,0
300,315,314,308,0
299,290,311,307,0
297,272,307,305,0
297,261,304,304,0
298,255,302,303,0
299,251,301,301,0
300,250,301,300,0
303,256,303,301,0
307,269,305,303,0
310,285,307,306,0
313,301,307,308,0
312,310,305,309,0
308,313,302,307,0
303,313,299,304,0
298,313,298,302,0
295,312,299,300,0
294,310,300,300,0
293,307,302,300,0
294,303,302,299,0
294,302,302,298,0
296,302,300,297,0
296,303,300,297,0
298,305,299,297,0
300,310,300,298,0
302,312,301,299,0
303,310,302,300,0
303,307,304,300,0
304,305,305,302,0
305,310,306,304,0
307,320,306,307,0
309,333,306,308,0
312,343,307,309,0
314,344,308,311,0
315,332,308,311,0
315,313,308,311,0
314,298,309,310,0
313,291,309,308,0
310,291,308,305,0
306,298,307,302,0
303,310,308,302,0
301,325,310,302,0
302,339,311,304,0
304,353,312,306,0
306,364,312,307,0
308,371,311,307,0
309,375,309,307,0
310,377,308,308,0
311,378,306,309,0
310,374,305,309,0
309,362,304,309,0
307,342,303,307,0
306,315,303,305,0
304,284,302,303,0
303,256,301,301,0
302,239,301,301,0
303,231,301,301,0
305,231,302,303,0
306,237,302,304,0
305,246,301,303,0
304,257,298,302,0
303,270,296,301,0
304,282,294,301,0
305,293,293,300,0
306,302,293,300,0
307,309,295,301,0
308,312,297,302,0
307,313,300,303,0
305,309,301,303,0
303,303,301,303,0
301,296,302,302,0
300,292,303,301,0
299,292,305,301,0
300,295,308,301,0
300,298,310,302,0
300,299,311,302,0
300,295,311,301,0
301,288,310,301,0
303,281,310,300,0
305,274,308,300,0
307,271,307,299,0
308,272,307,300,0
310,284,308,300,0
312,306,309,301,0
314,332,310,303,0
315,352,310,304,0
314,361,308,304,0
313,358,306,304,0
311,346,305,306,0
308,329,305,307,0
306,313,305,308,0
305,301,307,309,0
305,293,308,310,0
305,286,309,311,0
304,280,308,310,0
304,279,307,309,0
304,282,306,309,0
304,290,306,310,0
305,304,306,311,0
306,318,305,312,0
306,333,304,313,0
306,346,303,313,0
305,352,303,311,0
304,346,303,310,0
302,334,303,308,0
302,319,305,308,0
303,308,306,308,0
306,300,306,308,0
308,294,306,307,0
310,290,307,307,0
313,291,309,308,0
315,293,312,309,0
315,294,314,309,0
313,296,313,307,0
310,300,311,306,0
308,305,308,304,0
306,309,306,303,0
304,312,304,303,0
304,311,303,303,0
304,307,302,303,0
303,302,301,303,0
302,299,300,304,0
300,301,298,305,0
298,304,297,307,0
298,308,297,309,0
298,309,297,310,0
300,311,299,312,0
303,314,302,314,0
305,318,304,316,0
307,321,305,317,0
306,324,304,316,0
304,324,303,316,0
303,322,303,315,0
302,319,303,313,0
301,315,303,311,0
301,310,301,310,0
302,307,299,309,0
302,305,297,308,0
303,306,296,307,0
304,309,296,307,0
306,314,298,307,0
307,318,297,307,0
308,322,295,307,0
307,322,294,307,0
307,318,294,307,0
307,311,294,308,0
306,304,295,308,0
306,300,296,309,0
306,301,299,310,0
307,306,303,311,0
308,314,305,312,0
311,321,308,313,0
313,325,309,314,0
314,323,310,315,0
314,322,311,316,0
313,325,313,318,0
314,335,316,320,0
314,345,318,322,0
312,348,318,321,0
309,338,314,318,0
306,318,311,314,0
304,299,308,311,0
304,284,306,308,0
306,277,305,306,0
308,277,305,305,0
311,282,306,305,0
312,288,306,306,0
311,291,304,305,0
309,290,303,305,0
306,286,301,305,0
305,282,300,307,0
305,278,300,308,0
306,275,300,310,0
307,271,299,312,0
307,267,299,313,0
308,264,301,314,0
309,263,304,314,0
311,266,307,316,0
314,274,311,318,0
316,285,314,320,0
318,295,316,321,0
318,303,317,321,0
317,307,316,319,0
314,307,315,316,0
310,304,314,313,0
306,302,313,310,0
303,303,312,309,0
301,307,310,308,0
300,315,309,308,0
300,323,307,310,0
301,330,306,311,0
302,335,304,312,0
303,336,303,311,0
304,335,304,311,0
305,332,307,310,0
306,331,310,309,0
307,332,314,308,0
309,337,317,308,0
311,345,320,308,0
312,351,321,309,0
313,356,321,310,0
313,357,319,311,0
311,355,316,312,0
309,350,313,312,0
305,341,310,312,0
301,326,307,313,0
297,310,306,313,0
296,297,306,314,0
295,287,307,314,0
295,282,307,313,0
295,281,309,312,0
297,281,309,311,0
298,284,309,310,0
301,288,309,310,0
304,292,309,310,0
307,298,308,311,0
308,306,307,312,0
309,315,306,314,0
310,322,305,316,0
310,326,304,317,0
310,323,304,316,0
308,314,303,316,0
306,306,303,315,0
304,304,305,314,0
303,309,308,313,0
303,316,309,312,0
304,320,309,311,0
304,315,307,310,0
304,301,307,310,0
303,283,309,309,0
303,267,313,308,0
304,256,315,309,0
306,253,316,309,0
307,261,317,310,0
310,279,317,312,0
311,297,316,312,0
309,306,315,310,0
305,308,313,308,0
301,307,311,306,0
298,307,310,306,0
296,309,310,306,0
295,311,310,307,0
296,315,309,307,0
296,318,309,308,0
296,321,307,308,0
296,321,306,308,0
298,317,306,309,0
299,311,306,310,0
300,308,306,311,0
302,307,307,312,0
304,302,307,314,0
307,292,309,314,0
307,275,309,313,0
307,254,309,311,0
307,237,309,309,0
307,230,309,308,0
308,236,309,308,0
309,254,310,309,0
308,276,308,309,0
305,295,306,308,0
301,309,302,306,0
297,320,300,305,0
295,330,299,306,0
294,336,300,307,0
296,341,301,308,0
298,346,302,308,0
300,352,302,308,0
302,359,301,308,0
303,366,301,309,0
304,368,300,308,0
305,362,300,307,0
305,350,300,307,0
306,337,299,307,0
306,325,300,308,0
306,316,303,309,0
305,307,306,309,0
303,298,310,308,0
303,289,314,307,0
303,281,317,307,0
303,274,318,307,0
306,271,316,309,0
309,281,314,311,0
312,309,312,313,0
314,350,311,315,0
314,389,311,315,0
314,418,311,312,0
312,426,311,309,0
310,411,311,306,0
308,383,311,305,0
305,350,311,305,0
302,316,310,306,0
301,290,309,307,0
300,273,308,309,0
301,266,308,311,0
302,264,308,312,0
303,264,308,313,0
303,263,309,313,0
304,261,309,312,0
305,262,309,312,0
306,264,309,311,0
307,270,310,311,0
309,281,311,310,0
309,293,310,310,0
308,302,308,308,0
305,306,305,305,0
302,307,302,302,0
299,303,301,300,0
298,296,302,298,0
298,286,304,297,0
298,275,308,296,0
300,266,310,296,0
302,259,311,297,0
304,256,310,297,0
305,257,308,298,0
305,262,305,299,0
305,269,305,300,0
306,278,307,302,0
306,290,310,304,0
307,304,314,306,0
306,316,315,307,0
306,324,316,308,0
307,329,315,310,0
308,331,314,311,0
308,328,313,310,0
306,321,311,309,0
305,314,310,308,0
306,309,310,307,0
307,309,308,306,0
308,311,305,304,0
307,314,302,302,0
305,319,300,300,0
304,324,299,300,0
303,328,299,300,0
303,330,299,301,0
303,328,298,301,0
303,323,297,301,0
304,318,298,301,0
305,311,298,302,0
306,304,299,303,0
306,297,300,303,0
307,291,301,304,0
308,290,302,305,0
310,296,303,305,0
310,309,306,304,0
311,322,308,303,0
311,329,309,303,0
312,326,310,302,0
313,313,310,301,0
313,299,309,300,0
313,289,308,300,0
313,289,307,301,0
313,296,307,301,0
314,307,308,300,0
315,322,309,300,0
316,341,310,300,0
316,363,310,301,0
316,382,309,302,0
316,392,307,302,0
315,391,305,301,0
313,376,304,300,0
310,351,303,298,0
308,323,302,297,0
306,297,303,296,0
306,280,304,294,0
307,276,306,295,0
309,284,307,297,0
309,298,307,299,0
310,312,307,301,0
310,321,308,304,0
310,318,307,305,0
309,307,307,306,0
308,292,305,306,0
307,275,304,307,0
305,262,304,306,0
305,253,306,305,0
305,249,308,304,0
305,248,310,303,0
306,252,309,302,0
306,263,309,301,0
308,278,308,300,0
309,292,307,299,0
309,302,306,298,0
309,310,305,296,0
307,319,305,295,0
306,328,306,294,0
304,331,309,294,0
302,328,310,293,0
300,320,311,293,0
300,313,310,293,0
300,310,308,293,0
301,311,306,294,0
303,311,306,295,0
306,312,307,296,0
308,314,307,298,0
311,317,306,301,0
312,321,307,302,0
313,324,308,304,0
314,325,309,305,0
313,322,308,304,0
311,316,306,302,0
308,309,305,301,0
307,304,304,300,0
307,302,304,300,0
307,302,304,300,0
309,303,303,300,0
309,304,302,301,0
310,304,301,301,0
310,303,299,300,0
310,303,297,300,0
311,303,296,301,0
312,304,296,303,0
314,306,296,305,0
313,308,297,304,0
311,311,301,303,0
308,315,305,302,0
306,321,308,300,0
304,324,308,299,0
303,323,307,298,0
303,319,305,298,0
304,312,302,298,0
306,302,299,299,0
307,293,297,299,0
309,292,298,298,0
310,302,300,298,0
312,318,302,299,0
312,334,304,300,0
311,344,305,299,0
310,347,304,299,0
308,344,304,299,0
307,336,302,300,0
306,326,301,303,0
306,317,300,304,0
306,307,298,305,0
306,298,297,306,0
306,291,294,306,0
306,287,291,306,0
304,285,290,306,0
304,283,292,306,0
303,281,295,305,0
301,280,300,304,0
301,279,304,304,0
300,279,307,304,0
302,281,309,304,0
304,288,310,306,0
308,297,311,308,0
310,307,310,310,0
312,317,308,312,0
313,326,307,312,0
312,329,306,309,0
310,327,303,304,0
306,328,301,301,0
304,334,299,299,0
303,341,297,297,0
303,342,296,296,0
302,334,294,294,0
301,321,294,293,0
300,310,296,292,0
301,301,301,293,0
302,294,306,294,0
304,289,309,297,0
304,282,310,299,0
304,274,309,301,0
303,270,307,302,0
304,269,304,303,0
305,274,303,303,0
306,286,302,303,0
307,304,303,304,0
308,320,304,304,0
308,330,305,304,0
307,333,303,303,0
305,333,301,303,0
304,331,299,303,0
304,327,299,303,0
304,319,300,303,0
305,310,302,303,0
307,304,303,305,0
310,304,304,308,0
313,312,304,311,0
316,326,305,313,0
318,340,303,313,0
317,345,300,312,0
313,342,298,308,0
310,330,297,304,0
307,313,296,302,0
304,297,296,301,0
303,286,298,300,0
302,281,301,301,0
301,281,304,302,0
302,286,307,304,0
304,291,309,305,0
306,294,309,307,0
308,295,309,308,0
309,298,307,308,0
309,302,305,308,0
309,306,303,308,0
310,310,302,307,0
311,312,302,307,0
312,316,304,306,0
314,325,307,305,0
315,340,310,305,0
315,352,310,304,0
313,354,308,302,0
309,346,305,300,0
305,331,302,298,0
302,316,299,297,0
300,308,299,296,0
299,306,302,297,0
299,306,306,297,0
299,306,310,298,0
299,304,312,299,0
300,300,312,299,0
300,297,311,300,0
300,295,309,301,0
301,293,306,303,0
302,291,304,304,0
304,290,304,306,0
307,291,305,308,0
308,290,306,309,0
309,290,306,310,0
308,290,305,309,0
307,296,305,306,0
307,309,304,304,0
307,327,304,303,0
307,342,305,303,0
307,349,305,304,0
308,348,306,306,0
309,340,306,308,0
310,329,308,311,0
312,322,310,313,0
313,320,311,315,0
311,316,311,316,0
308,306,309,314,0
305,296,310,312,0
303,289,312,310,0
302,288,315,309,0
302,291,316,308,0
303,294,315,306,0
302,295,314,304,0
302,291,312,303,0
303,285,310,303,0
303,280,309,304,0
303,278,308,305,0
304,279,308,307,0
305,282,308,308,0
306,287,308,310,0
307,293,308,311,0
307,300,309,312,0
306,304,308,312,0
306,304,308,312,0
306,301,306,312,0
308,295,304,314,0
311,291,304,315,0
313,289,304,317,0
315,291,306,318,0
316,293,308,318,0
315,292,312,315,0
314,292,314,312,0
312,293,316,310,0
311,288,317,306,0
308,273,318,303,0
307,256,318,302,0
306,245,316,302,0
306,244,314,305,0
306,254,312,307,0
306,269,310,309,0
307,287,308,310,0
306,306,305,311,0
305,322,303,311,0
304,333,301,311,0
304,339,299,311,0
304,340,298,312,0
302,337,298,311,0
300,329,300,311,0
299,321,303,310,0
299,313,308,311,0
300,305,313,310,0
302,299,316,311,0
305,295,317,313,0
307,291,317,314,0
308,290,315,314,0
307,291,312,314,0
306,297,309,314,0
304,304,306,313,0
303,312,303,312,0
303,318,302,311,0
302,323,303,310,0
301,327,305,308,0
300,330,307,306,0
298,330,307,305,0
296,324,307,303,0
296,311,307,302,0
296,297,307,301,0
297,284,308,301,0
297,274,308,302,0
298,268,307,303,0
300,269,305,305,0
301,274,304,306,0
302,283,304,307,0
303,293,303,309,0
303,302,304,311,0
304,304,304,313,0
303,300,305,312,0
302,292,305,310,0
301,285,304,307,0
300,279,303,305,0
300,278,303,305,0
302,283,303,306,0
302,292,302,307,0
302,300,299,308,0
301,307,298,309,0
301,314,298,310,0
302,326,298,310,0
303,345,298,311,0
305,369,299,312,0
308,391,301,314,0
312,399,303,315,0
314,393,305,317,0
315,375,307,317,0
314,352,308,318,0
312,330,307,317,0
310,309,306,315,0
307,291,306,313,0
305,278,307,311,0
305,270,310,310,0
304,267,313,309,0
305,265,316,309,0
307,263,318,310,0
311,262,319,311,0
315,262,319,312,0
317,266,318,313,0
318,270,316,313,0
316,276,315,312,0
313,283,313,311,0
310,291,310,310,0
307,301,307,310,0
305,310,305,311,0
304,316,302,312,0
303,318,300,312,0
303,316,300,311,0
302,314,301,310,0
302,315,304,309,0
302,321,308,307,0
301,326,311,306,0
301,325,312,305,0
301,320,312,305,0
302,313,311,305,0
303,303,308,305,0
304,291,306,303,0
304,279,304,303,0
305,273,303,303,0
306,271,303,304,0
307,273,304,304,0
307,277,305,305,0
308,279,306,306,0
308,282,307,307,0
308,284,308,309,0
308,285,308,310,0
309,288,307,310,0
309,291,305,309,0
310,297,304,308,0
312,305,304,309,0
315,314,305,310,0
318,321,307,310,0
318,324,307,310,0
315,322,308,309,0
311,318,310,308,0
307,317,313,308,0
304,318,314,309,0
302,321,313,310,0
301,328,312,311,0
302,340,311,312,0
303,350,310,312,0
304,353,309,312,0
306,350,308,311,0
307,333,309,311,0
309,307,310,310,0
310,281,311,311,0
310,266,311,310,0
310,260,311,309,0
310,263,311,309,0
311,273,311,309,0
312,287,311,310,0
312,300,311,310,0
311,309,308,310,0
309,315,306,310,0
306,319,304,307,0
303,322,303,305,0
300,321,302,304,0
300,311,302,302,0
300,298,304,302,0
301,286,305,303,0
303,276,306,304,0
306,271,307,305,0
308,272,308,306,0
310,278,308,307,0
312,287,308,310,0
313,296,309,312,0
313,302,309,313,0
313,309,309,315,0
312,316,309,316,0
311,324,311,316,0
309,336,314,316,0
308,349,315,316,0
307,358,315,315,0
307,360,314,314,0
306,351,312,312,0
305,336,308,310,0
304,319,304,309,0
303,303,304,309,0
303,291,306,310,0
304,285,309,311,0
305,283,311,313,0
307,284,311,315,0
308,285,311,315,0
308,285,310,314,0
307,285,310,313,0
307,290,312,313,0
307,301,314,315,0
308,319,318,316,0
308,338,322,317,0
309,350,324,317,0
309,354,325,316,0
311,348,324,316,0
311,334,322,315,0
310,318,320,314,0
308,303,317,313,0
307,292,316,312,0
306,284,314,311,0
306,278,313,310,0
306,275,312,310,0
307,278,311,310,0
308,287,309,310,0
308,297,308,311,0
309,303,306,311,0
309,304,306,309,0
309,299,306,307,0
309,294,307,305,0
309,292,309,304,0
309,294,312,304,0
309,300,316,303,0
309,307,318,304,0
309,316,320,304,0
308,324,319,305,0
308,329,318,306,0
307,325,316,306,0
306,316,314,307,0
306,304,314,308,0
307,293,315,309,0
308,286,317,311,0
309,282,318,313,0
310,279,319,314,0
311,280,318,315,0
310,281,317,316,0
308,281,313,316,0
305,280,310,314,0
303,279,307,313,0
301,280,306,311,0
302,282,306,310,0
303,287,307,308,0
305,294,308,307,0
307,304,309,307,0
309,314,310,308,0
310,323,311,309,0
311,331,313,309,0
311,338,313,309,0
310,344,314,310,0
311,349,315,311,0
312,347,314,311,0
312,341,314,311,0
311,332,315,310,0
310,325,316,311,0
309,325,317,312,0
308,328,317,313,0
307,332,316,313,0
306,333,314,313,0
305,328,312,311,0
304,315,310,310,0
304,300,310,309,0
305,290,311,310,0
304,284,313,310,0
304,282,315,310,0
303,284,315,310,0
303,286,315,309,0
302,289,315,309,0
302,290,315,308,0
303,287,314,309,0
305,285,314,309,0
306,284,313,308,0
307,284,312,308,0
309,287,312,308,0
310,288,311,307,0
310,288,310,305,0
311,287,309,304,0
312,285,307,304,0
312,286,305,305,0
313,292,304,305,0
314,302,304,306,0
314,312,304,306,0
313,320,305,306,0
310,322,306,306,0
307,317,310,304,0
304,309,313,303,0
302,304,314,302,0
301,306,315,303,0
302,312,315,305,0
302,320,314,308,0
303,322,313,309,0
302,318,312,309,0
301,309,311,309,0
301,300,311,307,0
302,294,310,307,0
303,292,310,306,0
305,292,312,307,0
307,295,314,309,0
309,299,315,311,0
311,304,316,314,0
312,311,316,315,0
312,318,315,316,0
311,325,314,316,0
311,330,312,316,0
310,330,310,314,0
308,323,308,311,0
306,312,306,309,0
305,303,306,308,0
305,297,305,307,0
305,295,305,307,0
305,296,305,308,0
305,301,306,310,0
306,311,309,312,0
307,325,313,315,0
307,339,316,317,0
307,349,319,319,0
306,345,321,319,0
306,326,320,317,0
306,300,318,315,0
306,272,317,312,0
306,248,316,310,0
303,232,315,308,0
301,227,315,307,0
299,235,314,306,0
298,250,312,305,0
297,267,310,305,0
297,283,307,304,0
296,295,305,303,0
297,302,303,301,0
296,306,302,300,0
296,307,302,299,0
295,306,302,299,0
296,305,302,300,0
297,303,304,302,0
298,301,306,305,0
300,301,309,309,0
300,301,310,313,0
301,303,311,316,0
301,309,312,318,0
301,317,312,319,0
302,325,312,319,0
303,331,312,319,0
304,332,313,319,0
304,326,313,318,0
305,315,313,316,0
306,305,312,314,0
307,298,310,312,0
307,294,308,312,0
308,293,304,311,0
308,295,301,310,0
309,299,298,309,0
307,303,298,308,0
305,307,300,308,0
303,310,302,309,0
302,313,305,311,0
303,317,308,313,0
304,323,311,316,0
304,327,311,316,0
303,331,310,316,0
302,337,309,315,0
301,343,308,314,0
300,348,308,313,0
301,350,308,314,0
304,344,309,314,0
306,333,311,315,0
308,323,311,317,0
308,315,311,319,0
308,306,311,319,0
308,298,311,319,0
307,294,311,319,0
306,297,311,318,0
306,304,311,316,0
306,313,310,315,0
306,318,308,313,0
306,317,306,313,0
306,314,304,313,0
307,315,303,313,0
309,321,304,315,0
312,328,305,318,0
313,331,306,318,0
313,327,306,317,0
312,316,306,315,0
310,303,306,312,0
307,294,309,311,0
306,289,312,310,0
304,287,314,310,0
304,288,315,311,0
303,292,315,312,0
303,294,314,314,0
304,293,313,315,0
305,290,312,315,0
306,284,311,315,0
306,277,310,314,0
308,271,309,312,0
309,269,308,311,0
311,275,307,309,0
312,287,307,309,0
314,303,307,309,0
315,321,307,310,0
315,338,307,310,0
314,350,307,310,0
312,351,307,309,0
310,338,306,308,0
308,316,305,307,0
307,294,304,306,0
308,277,303,306,0
310,271,304,307,0
311,268,307,308,0
311,267,309,308,0
309,268,312,309,0
308,272,314,310,0
307,278,316,310,0
308,285,316,310,0
309,294,314,311,0
310,306,312,312,0
312,322,311,314,0
313,339,310,316,0
312,351,308,317,0
309,356,305,315,0
305,352,301,313,0
302,344,297,312,0
301,336,295,312,0
301,329,294,312,0
301,327,293,312,0
302,330,293,312,0
304,337,295,312,0
306,344,299,313,0
308,346,304,314,0
307,343,306,314,0
305,337,304,313,0
302,330,302,312,0
302,326,301,311,0
302,324,301,310,0
302,322,302,310,0
302,315,302,310,0
302,303,303,311,0
303,291,305,312,0
303,281,308,312,0
304,274,311,313,0
305,272,312,312,0
306,272,313,312,0
307,273,311,310,0
307,277,308,308,0
308,281,304,306,0
307,286,299,305,0
306,290,295,303,0
306,294,293,302,0
305,297,294,301,0
305,298,295,300,0
303,298,297,300,0
301,298,300,301,0
299,300,303,302,0
297,302,307,304,0
297,305,309,306,0
297,307,311,307,0
298,309,312,308,0
301,311,313,309,0
303,313,313,309,0
305,314,314,309,0
305,313,312,308,0
304,310,309,308,0
302,304,307,308,0
301,299,306,308,0
301,295,306,308,0
302,292,307,308,0
303,291,308,309,0
305,292,309,309,0
306,293,310,309,0
306,294,310,309,0
305,295,309,308,0
304,296,307,307,0
303,298,305,307,0
303,301,304,306,0
303,307,302,308,0
305,315,301,311,0
307,322,302,313,0
309,329,302,314,0
310,331,302,314,0
309,329,300,313,0
308,327,301,311,0
309,325,305,310,0
310,326,308,309,0
310,326,311,307,0
310,325,314,306,0
311,321,316,305,0
312,318,316,303,0
313,315,314,302,0
313,314,312,302,0
314,321,310,301,0
315,339,307,301,0
315,365,305,303,0
315,387,302,304,0
312,393,299,304,0
308,375,297,303,0
304,342,297,302,0
301,307,298,302,0
299,281,301,303,0
299,266,304,304,0
299,261,305,306,0
299,263,306,307,0
300,269,306,308,0
301,275,305,309,0
302,282,304,310,0
303,288,302,311,0
302,292,300,310,0
302,294,299,309,0
302,296,298,308,0
303,298,299,307,0
305,301,300,306,0
307,308,301,305,0
309,317,302,305,0
309,325,302,305,0
307,330,300,304,0
305,331,297,303,0
304,329,295,303,0
303,330,296,303,0
303,334,299,304,0
302,337,303,305,0
300,336,306,304,0
298,328,306,303,0
298,315,305,304,0
299,299,304,304,0
300,284,302,304,0
301,273,301,303,0
302,268,301,303,0
303,267,302,303,0
304,271,304,304,0
306,279,307,305,0
307,289,309,307,0
308,301,311,310,0
308,309,311,312,0
306,313,310,314,0
305,311,309,315,0
304,306,309,316,0
304,303,308,316,0
305,301,307,316,0
307,299,306,315,0
308,299,305,314,0
310,298,306,313,0
312,297,307,313,0
314,297,306,313,0
313,300,305,311,0
313,305,304,308,0
312,313,302,305,0
310,324,300,304,0
309,336,299,303,0
307,348,298,302,0
306,361,296,302,0
306,373,296,302,0
306,380,296,303,0
307,381,298,303,0
308,372,302,304,0
308,353,306,305,0
309,334,310,306,0
312,320,314,309,0
313,313,315,311,0
313,310,314,312,0
312,306,311,312,0
310,299,309,311,0
308,291,307,309,0
306,284,305,307,0
305,284,305,305,0
304,288,305,304,0
305,296,306,304,0
306,306,305,304,0
306,315,304,305,0
305,318,301,305,0
304,311,299,305,0
302,298,296,305,0
301,285,295,304,0
301,278,293,303,0
302,276,291,303,0
304,280,289,303,0
305,285,290,304,0
307,293,293,304,0
308,299,299,305,0
308,305,306,305,0
308,308,313,306,0
308,307,318,305,0
306,299,319,305,0
304,289,318,304,0
304,280,314,304,0
305,274,311,304,0
306,273,307,306,0
307,276,305,307,0
307,285,304,309,0
306,296,304,310,0
306,307,304,312,0
307,317,304,314,0
308,323,306,316,0
309,325,307,317,0
309,321,307,316,0
307,314,305,313,0
305,307,304,311,0
304,304,303,307,0
302,303,302,305,0
301,301,302,303,0
300,298,303,302,0
301,297,304,304,0
301,296,306,305,0
301,296,307,307,0
302,294,307,309,0
303,291,308,310,0
304,288,308,312,0
306,289,308,313,0
307,296,308,313,0
309,310,309,314,0
311,328,310,315,0
312,344,311,317,0
314,354,311,318,0
314,357,311,318,0
312,355,309,316,0
309,350,307,313,0
305,338,304,310,0
302,321,303,308,0
300,304,301,307,0
300,290,301,307,0
301,280,301,307,0
304,275,301,306,0
306,276,301,306,0
307,280,300,306,0
308,286,299,307,0
307,294,297,307,0
307,303,296,308,0
306,314,297,310,0
307,321,299,312,0
307,323,303,314,0
308,322,306,315,0
309,322,307,316,0
309,326,308,316,0
309,329,306,314,0
308,331,304,312,0
308,333,302,311,0
309,339,300,311,0
310,345,301,312,0
310,347,301,313,0
308,341,300,312,0
306,329,298,309,0
303,317,297,306,0
302,306,296,304,0
301,298,295,303,0
300,291,294,302,0
300,288,294,302,0
300,287,295,302,0
300,287,297,302,0
299,289,300,302,0
299,292,302,304,0
299,297,305,305,0
301,304,308,306,0
301,312,310,307,0
302,321,312,308,0
303,329,312,310,0
305,334,313,313,0
308,332,314,314,0
311,326,315,314,0
313,320,316,315,0
315,315,317,316,0
316,312,317,315,0
317,306,317,315,0
315,295,314,313,0
312,285,310,311,0
309,279,308,310,0
306,280,306,309,0
303,286,304,308,0
300,293,302,306,0
298,297,302,305,0
298,296,303,304,0
299,293,305,303,0
300,291,307,302,0
301,287,309,301,0
302,282,311,301,0
302,280,313,301,0
303,280,314,302,0
305,278,315,303,0
306,278,315,304,0
307,280,315,307,0
309,286,314,309,0
310,298,314,311,0
311,314,314,313,0
312,331,315,315,0
313,342,316,317,0
311,344,316,317,0
308,342,314,316,0
305,338,313,314,0
304,334,313,311,0
303,331,312,309,0
303,327,310,307,0
304,323,308,306,0
303,318,306,303,0
303,313,305,302,0
304,308,305,302,0
305,305,304,302,0
307,302,304,303,0
309,301,304,304,0
311,304,303,306,0
313,310,304,308,0
314,318,306,311,0
313,325,311,314,0
313,328,316,315,0
312,328,320,316,0
311,329,323,315,0
309,333,323,313,0
307,338,320,312,0
307,345,318,312,0
307,347,315,312,0
307,338,314,312,0
307,324,314,313,0
308,312,314,313,0
309,309,313,313,0
309,316,312,312,0
308,324,309,309,0
307,327,306,306,0
306,319,304,303,0
306,304,301,300,0
306,284,298,300,0
306,267,295,300,0
308,258,294,301,0
309,259,295,302,0
311,267,297,304,0
312,278,299,305,0
312,288,301,307,0
311,297,305,308,0
309,304,310,309,0
308,312,316,310,0
309,323,319,311,0
310,332,319,311,0
311,337,317,310,0
310,335,315,308,0
309,324,311,306,0
308,311,305,305,0
307,302,301,305,0
307,299,298,306,0
307,297,296,307,0
307,289,295,308,0
306,275,295,308,0
304,262,295,308,0
303,255,296,307,0
301,254,298,307,0
301,258,299,306,0
300,265,301,307,0
301,277,303,309,0
302,292,305,311,0
305,307,307,313,0
307,322,309,315,0
309,332,311,315,0
309,336,310,313,0
307,333,309,311,0
305,325,307,309,0
303,317,306,308,0
302,312,304,308,0
302,309,304,308,0
302,308,303,308,0
302,310,302,308,0
303,317,302,308,0
304,330,302,308,0
305,349,302,308,0
306,366,302,309,0
309,375,303,309,0
311,372,305,309,0
314,357,307,309,0
315,336,309,310,0
315,314,308,310,0
312,289,305,309,0
309,268,304,308,0
306,258,303,307,0
306,259,303,307,0
307,269,303,306,0
308,282,303,307,0
310,293,302,307,0
312,301,302,307,0
312,305,303,308,0
311,303,304,308,0
308,299,306,307,0
306,293,309,307,0
304,286,311,306,0
302,283,313,306,0
302,285,315,306,0
302,292,315,307,0
302,300,314,307,0
302,308,312,308,0
303,311,311,309,0
303,308,308,310,0
304,303,306,310,0
305,297,305,310,0
305,293,305,310,0
304,290,304,309,0
302,289,304,309,0
301,290,303,308,0
302,292,302,308,0
302,294,303,307,0
303,297,302,306,0
302,301,302,305,0
302,304,302,303,0
303,304,303,302,0
303,302,304,301,0
303,300,304,301,0
303,296,304,302,0
304,291,304,303,0
305,288,306,304,0
307,287,308,306,0
310,288,310,308,0
312,292,311,309,0
313,298,311,311,0
313,308,309,310,0
311,321,306,310,0
309,337,304,308,0
307,352,302,307,0
307,358,300,306,0
307,351,300,305,0
308,332,300,305,0
309,307,301,306,0
308,285,302,307,0
307,269,304,307,0
305,261,307,305,0
303,262,309,304,0
301,269,310,303,0
300,280,310,303,0
300,290,310,303,0
302,298,310,303,0
304,304,310,304,0
307,306,309,305,0
309,305,308,307,0
311,303,307,307,0
312,300,306,306,0
312,296,304,305,0
312,292,302,303,0
312,288,301,300,0
313,286,300,299,0
312,285,298,298,0
311,285,296,298,0
310,289,295,300,0
309,296,297,302,0
309,301,301,303,0
307,306,305,304,0
307,312,307,305,0
307,315,309,308,0
308,315,310,309,0
309,310,310,311,0
310,304,310,312,0
310,302,309,314,0
310,303,308,315,0
311,310,307,314,0
312,322,306,312,0
313,336,303,309,0
312,346,300,305,0
310,352,298,302,0
308,350,298,299,0
306,338,299,298,0
305,321,302,298,0
304,304,305,299,0
304,292,308,299,0
304,284,311,300,0
305,279,313,301,0
307,275,315,303,0
308,274,316,305,0
310,276,317,308,0
311,282,318,310,0
312,293,318,311,0
312,307,318,312,0
312,320,317,310,0
310,330,315,308,0
309,334,312,307,0
307,327,309,305,0
306,312,306,303,0
304,297,305,302,0
303,285,304,302,0
304,279,305,302,0
306,279,306,304,0
308,287,307,306,0
309,303,308,308,0
311,323,309,310,0
312,344,309,310,0
313,357,309,309,0
312,358,308,310,0
311,345,307,310,0
311,325,307,309,0
311,308,307,309,0
311,296,307,308,0
311,293,306,307,0
311,295,305,306,0
311,298,303,305,0
310,292,300,303,0
307,280,299,299,0
305,270,298,297,0
302,267,298,295,0
301,269,299,295,0
301,273,301,296,0
302,275,303,297,0
303,275,304,297,0
305,272,304,299,0
307,269,305,301,0
308,266,305,305,0
310,264,305,308,0
311,265,307,310,0
311,271,311,311,0
311,282,314,312,0
311,296,315,313,0
310,311,314,313,0
308,324,312,314,0
306,331,310,315,0
306,332,308,316,0
305,334,308,317,0
306,340,308,318,0
306,345,307,318,0
305,347,307,318,0
304,344,306,315,0
301,334,305,312,0
300,320,305,309,0
300,309,304,306,0
300,302,303,304,0
302,302,303,301,0
305,310,302,300,0
307,323,301,300,0
308,334,301,301,0
308,334,300,302,0
307,324,299,303,0
306,308,300,303,0
305,291,301,304,0
305,280,302,304,0
305,279,303,305,0
305,287,303,306,0
306,300,304,307,0
307,316,304,308,0
307,326,306,309,0
307,330,310,309,0
306,333,315,311,0
307,335,320,313,0
307,332,322,313,0
307,322,322,312,0
306,309,319,312,0
306,300,315,311,0
305,295,311,309,0
303,293,306,307,0
301,291,304,306,0
301,293,304,307,0
300,296,304,308,0
300,298,305,308,0
300,295,306,307,0
299,289,306,306,0
298,282,306,304,0
298,275,306,303,0
298,271,306,303,0
298,268,307,303,0
299,267,308,304,0
301,266,309,305,0
301,266,310,306,0
302,267,309,307,0
302,269,309,307,0
302,273,308,308,0
302,279,307,308,0
301,286,306,308,0
301,293,304,309,0
301,302,303,309,0
302,311,303,310,0
304,316,303,310,0
306,319,303,310,0
308,322,303,310,0
310,328,303,310,0
309,335,304,309,0
307,343,305,308,0
303,348,307,306,0
300,346,309,305,0
297,340,310,304,0
295,331,311,304,0
296,323,310,305,0
297,317,309,306,0
298,314,307,307,0
300,312,307,308,0
302,311,308,309,0
304,309,309,308,0
305,308,309,308,0
306,308,309,307,0
306,310,308,305,0
306,314,307,303,0
305,322,307,303,0
305,332,308,304,0
306,344,312,307,0
308,352,316,309,0
310,353,320,312,0
312,340,322,313,0
313,319,322,313,0
314,301,320,312,0
315,294,317,312,0
315,295,315,312,0
314,300,313,311,0
313,302,311,310,0
311,296,309,309,0
309,287,308,308,0
307,279,307,307,0
304,275,306,305,0
302,278,306,304,0
301,285,306,303,0
300,288,305,302,0
300,285,304,302,0
300,282,302,301,0
301,282,301,302,0
302,286,299,303,0
304,292,299,304,0
305,299,299,307,0
308,306,300,310,0
309,313,300,313,0
310,319,301,315,0
311,322,302,316,0
310,322,304,316,0
308,315,306,314,0
305,301,307,312,0
303,284,309,310,0
301,269,311,309,0
301,261,312,309,0
302,262,313,310,0
303,270,312,312,0
304,283,312,314,0
305,300,312,315,0
306,317,312,316,0
307,330,312,316,0
308,332,312,316,0
307,328,312,317,0
306,321,312,317,0
304,315,312,317,0
303,312,311,317,0
303,312,310,316,0
303,317,307,316,0
304,324,305,316,0
305,333,304,315,0
306,342,302,315,0
307,350,300,314,0
306,354,299,313,0
305,355,299,312,0
304,354,300,311,0
303,352,302,312,0
303,350,303,313,0
