292,305,300,309,1
292,304,298,310,1
293,302,297,310,1
294,300,297,310,1
295,300,298,310,1
296,300,298,309,1
296,301,300,309,1
297,303,302,308,1
299,305,303,308,1
301,310,304,308,1
305,313,306,307,1
311,317,307,306,1
316,319,308,305,1
321,321,308,304,1
324,323,308,304,1
325,325,308,305,1
323,325,307,306,1
321,325,306,308,1
319,325,305,311,1
320,322,305,313,1
321,319,304,314,1
322,315,304,314,1
322,313,304,315,1
322,311,305,315,1
320,310,305,315,1
315,309,302,313,1
305,308,298,310,1
296,310,294,309,1
289,314,292,308,1
287,318,291,308,1
289,320,292,308,1
292,321,294,307,1
295,319,297,307,1
298,314,300,306,1
300,307,302,306,1
301,302,304,306,1
302,298,305,306,1
302,295,304,305,1
304,294,303,304,1
306,293,301,304,1
310,293,301,306,1
315,295,302,310,1
319,297,303,313,1
322,299,305,316,1
325,299,306,317,1
328,301,308,317,1
329,303,309,317,1
329,304,309,315,1
328,304,308,314,1
325,305,307,313,1
324,307,305,313,1
325,307,304,311,1
327,307,304,309,1
328,306,303,305,1
327,304,302,303,1
327,301,302,301,1
325,299,302,302,1
320,296,303,305,1
311,292,303,309,1
302,289,305,313,1
296,289,307,313,1
294,290,308,311,1
294,291,309,306,1
294,292,307,303,1
293,294,304,300,1
295,296,302,300,1
297,299,301,301,1
299,303,302,304,1
301,308,303,307,1
302,310,304,310,1
302,311,306,312,1
302,310,308,314,1
301,308,310,315,1
301,307,310,315,1
301,305,311,315,1
301,303,310,314,1
302,302,309,313,1
302,302,308,312,1
303,302,308,311,1
303,302,307,308,1
302,302,307,306,1
302,304,306,304,1
302,307,305,302,1
303,308,305,301,1
303,306,304,299,1
303,303,303,298,1
304,300,303,297,1
305,300,303,299,1
307,302,304,301,1
309,303,305,303,1
310,303,304,303,1
310,303,303,300,1
309,302,300,298,1
307,303,298,296,1
304,305,297,296,1
304,309,297,298,1
306,314,298,301,1
308,316,298,304,1
308,316,298,305,1
308,314,300,307,1
309,313,304,311,1
309,311,307,315,1
307,307,309,318,1
305,303,311,321,1
306,301,312,323,1
308,299,313,324,1
310,300,313,323,1
313,300,313,321,1
315,301,313,318,1
318,303,313,316,1
320,304,313,315,1
320,305,313,314,1
321,306,314,313,1
322,307,315,313,1
322,308,316,313,1
321,308,317,312,1
318,306,316,310,1
314,304,315,307,1
309,304,312,306,1
306,304,308,304,1
304,305,305,304,1
301,306,304,304,1
299,307,305,305,1
297,309,305,307,1
298,312,304,309,1
298,314,304,309,1
299,316,303,309,1
302,316,303,309,1
306,315,304,309,1
308,313,306,306,1
308,311,307,303,1
306,310,308,300,1
304,307,308,297,1
301,304,307,294,1
297,299,305,289,1
295,294,305,286,1
295,292,306,284,1
297,291,307,284,1
300,292,307,288,1
302,294,307,294,1
304,294,305,299,1
306,295,304,305,1
309,297,305,311,1
311,302,306,316,1
313,306,308,318,1
314,309,310,319,1
313,313,312,319,1
312,315,313,317,1
311,317,315,317,1
311,320,315,317,1
309,321,315,317,1
307,320,314,316,1
304,317,313,317,1
301,313,312,319,1
299,311,311,320,1
298,309,310,320,1
299,307,309,319,1
300,305,309,317,1
301,303,308,315,1
300,302,306,312,1
298,302,304,309,1
297,303,303,307,1
296,303,302,305,1
295,303,301,302,1
294,303,300,300,1
296,303,300,299,1
299,303,300,300,1
304,306,302,304,1
308,310,305,308,1
311,313,307,311,1
312,316,309,314,1
312,317,309,317,1
310,316,309,318,1
306,314,308,319,1
303,313,307,319,1
301,311,307,318,1
300,309,307,318,1
299,306,307,317,1
298,304,306,316,1
299,301,305,315,1
300,300,303,315,1
302,299,303,314,1
304,300,303,314,1
306,301,304,313,1
308,303,306,312,1
311,305,307,310,1
314,306,307,307,1
316,309,306,305,1
317,310,306,304,1
317,312,305,303,1
315,313,305,302,1
311,312,304,299,1
306,310,304,296,1
301,309,304,294,1
299,308,303,293,1
297,310,300,294,1
297,313,298,296,1
296,316,298,300,1
295,317,299,303,1
295,316,301,305,1
295,316,303,308,1
298,316,305,311,1
302,317,307,314,1
306,319,310,317,1
309,319,311,320,1
311,316,312,321,1
310,313,312,319,1
309,310,312,317,1
307,307,312,314,1
305,304,311,313,1
303,303,309,312,1
303,304,308,313,1
304,305,308,314,1
306,307,308,314,1
307,307,309,313,1
306,307,308,311,1
305,305,307,308,1
303,302,304,305,1
300,299,302,300,1
297,297,300,296,1
295,295,299,294,1
293,294,299,294,1
293,295,301,296,1
295,296,302,299,1
297,297,302,301,1
300,300,302,302,1
304,304,303,304,1
309,310,304,306,1
313,315,304,307,1
314,317,303,307,1
314,318,303,307,1
310,316,304,307,1
305,313,304,306,1
301,310,304,306,1
297,307,302,305,1
295,305,300,305,1
295,304,299,306,1
296,304,300,306,1
297,304,302,304,1
298,303,303,299,1
298,301,304,294,1
298,301,304,291,1
299,302,305,291,1
301,306,306,296,1
303,310,308,304,1
305,315,310,312,1
307,317,309,317,1
309,317,307,320,1
310,316,306,321,1
312,318,306,323,1
313,319,308,324,1
312,320,309,323,1
309,318,310,320,1
305,316,311,318,1
304,313,312,318,1
303,310,314,319,1
302,308,315,320,1
301,307,314,319,1
300,306,312,317,1
300,307,312,314,1
301,308,311,312,1
303,310,311,310,1
307,313,312,310,1
312,314,313,312,1
319,316,313,313,1
326,317,315,316,1
331,318,315,317,1
334,320,315,318,1
334,321,314,317,1
327,318,311,314,1
316,313,307,311,1
305,307,303,308,1
298,301,302,307,1
295,297,304,307,1
295,295,306,306,1
296,294,309,305,1
297,294,310,305,1
299,295,311,305,1
301,297,311,307,1
303,298,311,307,1
305,299,311,306,1
306,300,311,305,1
308,302,311,307,1
310,304,312,310,1
313,306,312,313,1
318,308,313,314,1
324,311,313,315,1
328,313,313,318,1
331,317,314,320,1
332,320,314,320,1
328,319,313,317,1
320,314,311,312,1
311,308,307,306,1
304,303,305,301,1
300,300,304,299,1
300,299,304,299,1
300,300,304,299,1
301,301,304,301,1
301,303,303,303,1
302,305,301,305,1
302,306,300,307,1
302,307,301,309,1
302,308,303,311,1
302,309,305,312,1
303,308,307,312,1
304,308,309,309,1
304,308,309,307,1
305,309,309,305,1
305,311,309,304,1
305,311,308,303,1
304,309,307,302,1
303,307,308,301,1
305,307,311,302,1
309,309,315,304,1
316,311,317,305,1
324,316,318,306,1
331,322,317,307,1
336,326,314,307,1
337,328,310,306,1
332,326,306,305,1
324,323,306,304,1
318,319,307,306,1
312,315,309,308,1
306,310,311,310,1
300,306,312,312,1
298,303,311,312,1
298,302,310,311,1
302,302,309,309,1
308,304,309,310,1
316,308,310,311,1
321,313,312,314,1
324,317,314,316,1
323,320,315,317,1
319,321,315,318,1
315,321,314,317,1
311,320,312,316,1
311,319,309,314,1
312,319,307,311,1
314,319,305,308,1
317,319,305,307,1
318,317,306,306,1
318,314,307,305,1
314,311,307,305,1
310,309,307,305,1
307,309,309,306,1
306,310,312,308,1
308,313,315,308,1
311,314,316,308,1
312,314,316,305,1
312,311,315,302,1
311,306,313,299,1
309,303,310,297,1
308,301,309,296,1
308,302,309,298,1
309,306,310,302,1
311,311,312,306,1
314,316,313,311,1
315,321,313,314,1
313,322,312,315,1
311,320,309,313,1
309,317,306,310,1
308,314,304,307,1
308,312,304,307,1
311,311,304,308,1
314,309,304,311,1
315,307,304,311,1
313,305,303,310,1
309,304,302,307,1
304,304,302,304,1
300,304,302,303,1
298,304,302,302,1
298,305,303,302,1
300,307,306,304,1
304,309,309,307,1
310,312,311,312,1
318,314,313,316,1
327,315,314,319,1
336,317,315,321,1
344,320,316,323,1
351,323,317,324,1
352,324,316,322,1
345,321,314,319,1
333,316,312,316,1
319,311,309,312,1
306,304,307,307,1
296,298,304,303,1
291,293,302,298,1
289,290,301,294,1
288,288,301,290,1
288,287,301,288,1
290,289,303,290,1
296,296,304,294,1
304,306,306,299,1
313,315,307,305,1
320,323,308,311,1
324,330,308,316,1
325,336,307,319,1
324,339,305,320,1
320,338,304,318,1
314,332,303,315,1
310,325,301,310,1
309,318,301,308,1
312,314,303,309,1
316,314,306,313,1
318,316,308,317,1
315,316,307,319,1
312,315,305,318,1
308,310,303,315,1
306,304,301,311,1
303,298,300,307,1
302,296,298,303,1
302,295,297,301,1
303,297,296,300,1
305,301,296,299,1
306,304,296,298,1
307,306,298,298,1
307,308,301,298,1
305,310,304,300,1
301,312,307,304,1
298,314,310,310,1
295,314,312,316,1
292,311,313,321,1
290,306,313,326,1
290,301,314,330,1
291,297,313,333,1
291,294,312,334,1
291,292,311,334,1
293,294,310,334,1
294,296,309,332,1
296,298,308,329,1
299,300,307,326,1
301,302,307,322,1
301,304,305,319,1
302,306,304,316,1
301,308,304,314,1
301,308,304,310,1
299,307,303,308,1
298,305,302,308,1
296,303,302,310,1
295,302,302,311,1
295,300,302,312,1
295,300,302,312,1
295,301,302,312,1
298,303,302,313,1
302,304,303,314,1
307,306,304,314,1
310,308,305,315,1
313,308,306,314,1
312,307,305,313,1
308,305,303,312,1
303,302,300,311,1
300,300,298,309,1
298,298,298,307,1
298,297,298,306,1
298,299,300,307,1
302,303,303,309,1
308,306,305,310,1
314,308,306,311,1
319,310,306,311,1
320,310,305,311,1
318,309,305,312,1
312,308,304,313,1
304,306,303,314,1
297,306,302,315,1
294,307,301,316,1
294,310,302,316,1
298,314,303,314,1
303,318,303,311,1
307,322,303,308,1
309,325,303,305,1
309,328,304,304,1
309,329,305,303,1
308,329,306,302,1
307,328,307,299,1
307,325,306,296,1
306,321,306,292,1
306,315,305,291,1
305,311,306,295,1
304,307,308,303,1
303,300,310,310,1
301,293,312,316,1
301,288,314,321,1
301,286,315,326,1
301,286,314,328,1
302,286,313,328,1
304,287,313,328,1
307,288,313,327,1
310,290,313,327,1
312,292,313,325,1
313,293,312,322,1
312,293,312,320,1
310,292,310,318,1
305,291,306,317,1
300,292,301,316,1
297,294,297,316,1
298,297,296,316,1
301,300,297,317,1
305,304,299,317,1
309,306,303,316,1
309,307,308,315,1
307,307,311,314,1
303,307,313,313,1
300,307,314,312,1
298,307,314,312,1
297,307,314,314,1
297,308,314,315,1
299,308,313,315,1
302,308,312,315,1
305,309,311,315,1
307,309,312,317,1
309,310,314,318,1
310,312,315,319,1
310,313,315,318,1
308,314,314,316,1
305,315,311,313,1
301,315,307,309,1
296,314,304,306,1
293,312,303,304,1
293,311,303,304,1
296,310,304,305,1
301,310,306,307,1
307,310,309,308,1
312,310,312,309,1
315,310,313,307,1
313,309,312,305,1
307,306,311,302,1
299,304,309,302,1
293,302,308,303,1
290,302,307,305,1
289,303,307,307,1
290,304,308,310,1
293,306,308,310,1
297,307,307,310,1
303,308,308,310,1
309,312,309,309,1
314,315,311,309,1
318,317,312,310,1
317,318,312,310,1
314,317,311,308,1
309,317,310,306,1
306,317,310,306,1
305,316,309,308,1
303,314,308,308,1
300,310,307,308,1
296,306,306,307,1
294,305,305,306,1
293,307,305,307,1
294,312,305,308,1
294,318,304,308,1
295,324,303,309,1
295,326,302,310,1
296,325,300,310,1
296,321,298,310,1
296,316,297,310,1
298,310,298,311,1
298,306,300,313,1
299,303,302,316,1
298,300,305,317,1
299,297,306,317,1
298,295,307,315,1
297,294,306,314,1
297,294,304,314,1
298,294,301,313,1
298,294,298,312,1
297,293,294,310,1
297,293,293,309,1
297,292,292,309,1
298,291,292,309,1
297,290,294,309,1
298,290,297,309,1
299,291,299,309,1
299,294,300,308,1
299,297,301,307,1
300,299,302,306,1
302,301,302,304,1
303,303,301,303,1
305,304,301,303,1
306,306,300,302,1
305,306,301,301,1
303,306,301,300,1
301,304,302,299,1
300,303,302,299,1
300,303,303,298,1
300,302,304,299,1
300,301,305,299,1
300,301,305,301,1
300,302,305,304,1
301,305,305,309,1
303,307,305,313,1
308,309,305,316,1
313,312,306,318,1
318,314,306,320,1
321,316,308,321,1
322,318,310,320,1
321,318,310,318,1
316,316,306,314,1
308,311,302,309,1
300,307,299,304,1
296,304,299,302,1
295,302,301,303,1
295,302,304,307,1
297,303,307,311,1
300,304,310,316,1
302,305,311,318,1
303,305,310,318,1
304,306,310,316,1
306,308,309,315,1
307,311,308,315,1
308,313,307,314,1
309,314,306,313,1
309,314,306,313,1
308,314,306,312,1
307,313,304,311,1
307,312,303,309,1
307,309,302,307,1
308,307,301,305,1
308,304,302,303,1
307,302,303,302,1
306,300,304,304,1
305,300,304,307,1
306,300,305,310,1
306,301,306,312,1
306,303,306,311,1
305,304,306,309,1
304,305,306,306,1
303,308,305,305,1
303,311,305,303,1
303,312,303,303,1
302,312,301,303,1
301,310,299,304,1
300,307,298,305,1
299,305,297,307,1
300,305,297,309,1
303,307,298,310,1
307,309,299,311,1
310,314,301,312,1
312,319,303,313,1
313,323,305,315,1
313,322,306,316,1
311,318,307,319,1
309,314,308,321,1
307,310,309,323,1
306,306,308,324,1
303,301,306,324,1
301,296,303,322,1
299,292,301,320,1
299,290,299,319,1
299,289,298,316,1
299,289,297,313,1
299,290,298,310,1
300,292,299,307,1
300,293,299,305,1
301,295,298,302,1
301,297,297,300,1
303,298,297,298,1
306,301,298,298,1
309,304,300,298,1
312,307,303,298,1
314,308,306,298,1
312,307,308,299,1
308,305,308,299,1
304,302,308,301,1
302,300,308,303,1
301,299,310,306,1
302,300,311,310,1
302,302,311,312,1
301,305,310,313,1
300,308,309,313,1
299,309,308,313,1
300,311,308,313,1
303,314,308,313,1
305,315,308,313,1
308,316,308,313,1
311,316,309,315,1
313,314,310,317,1
314,310,311,318,1
313,306,310,318,1
311,302,308,317,1
310,300,306,314,1
308,299,305,311,1
307,300,305,307,1
306,300,305,305,1
305,300,305,304,1
304,299,306,305,1
306,300,308,308,1
311,303,311,313,1
316,307,313,316,1
320,309,313,319,1
319,310,313,320,1
316,310,310,320,1
309,308,307,318,1
301,306,306,316,1
295,305,306,315,1
291,305,307,313,1
289,304,307,312,1
288,303,307,311,1
288,301,306,311,1
290,301,306,311,1
293,302,307,311,1
296,304,308,310,1
299,306,308,309,1
301,307,307,307,1
302,306,305,305,1
302,306,303,304,1
302,305,300,303,1
302,304,299,303,1
302,303,299,303,1
300,302,300,303,1
299,300,301,304,1
298,300,303,304,1
298,301,305,305,1
301,303,306,305,1
304,306,307,305,1
308,309,308,305,1
311,312,310,305,1
313,313,310,303,1
313,312,310,300,1
312,312,310,298,1
310,312,310,297,1
309,313,311,297,1
310,315,311,295,1
309,316,309,293,1
308,315,307,291,1
305,315,305,291,1
303,314,305,293,1
301,313,305,298,1
300,312,306,305,1
300,309,306,310,1
303,306,305,314,1
308,305,305,317,1
313,306,305,319,1
317,308,303,320,1
318,309,300,319,1
315,309,298,318,1
310,308,297,315,1
304,305,297,312,1
300,302,296,310,1
299,301,297,308,1
300,301,298,308,1
301,302,300,308,1
303,304,303,310,1
306,306,307,311,1
306,307,310,311,1
305,306,311,309,1
302,305,311,306,1
300,303,311,303,1
298,301,310,302,1
297,300,310,302,1
297,300,308,303,1
298,301,307,305,1
299,305,307,308,1
301,310,309,309,1
303,316,311,311,1
306,323,313,313,1
309,329,313,315,1
310,332,313,315,1
310,333,312,314,1
310,332,311,312,1
308,330,309,309,1
306,328,308,307,1
303,323,307,304,1
300,318,308,303,1
297,313,309,302,1
296,306,308,301,1
295,299,307,298,1
296,294,305,296,1
297,290,304,294,1
300,289,303,293,1
304,289,303,294,1
308,290,303,295,1
311,292,305,297,1
313,293,307,300,1
314,295,308,305,1
315,296,310,310,1
315,298,311,312,1
314,300,311,314,1
312,303,310,315,1
308,306,308,315,1
304,308,305,315,1
299,309,303,315,1
297,310,301,316,1
297,310,300,316,1
297,307,298,314,1
297,303,297,311,1
296,300,297,308,1
295,297,298,304,1
294,296,300,301,1
297,297,303,300,1
301,299,305,299,1
305,300,305,298,1
308,302,304,296,1
311,301,303,294,1
312,299,301,292,1
311,296,301,292,1
309,296,302,293,1
305,297,303,297,1
304,302,305,303,1
306,307,306,309,1
310,314,308,313,1
316,320,309,315,1
321,326,310,317,1
327,332,312,320,1
329,335,314,322,1
327,336,314,324,1
323,331,314,325,1
317,325,313,323,1
311,319,311,320,1
306,314,308,316,1
303,313,306,313,1
301,312,304,310,1
300,311,302,308,1
299,309,302,307,1
299,306,302,306,1
300,302,302,306,1
300,300,303,306,1
300,298,303,306,1
301,297,304,304,1
302,294,304,301,1
303,290,305,296,1
303,288,306,294,1
304,288,308,293,1
305,289,310,293,1
307,291,310,293,1
308,293,309,293,1
309,296,307,292,1
308,299,306,292,1
308,302,306,292,1
309,304,306,292,1
309,305,306,294,1
312,307,306,298,1
313,308,307,304,1
314,310,306,309,1
314,311,305,313,1
314,310,303,315,1
311,308,302,317,1
307,307,302,318,1
303,306,302,319,1
300,304,303,317,1
298,303,304,315,1
297,302,305,312,1
297,301,306,309,1
297,300,306,305,1
298,300,306,301,1
300,300,304,298,1
302,301,301,296,1
304,302,299,295,1
307,303,299,295,1
310,306,301,296,1
312,311,303,297,1
312,315,306,298,1
310,318,308,298,1
306,319,310,298,1
302,320,310,298,1
300,319,309,297,1
299,317,309,298,1
298,312,308,300,1
298,308,307,304,1
298,306,307,308,1
299,305,308,312,1
302,306,310,315,1
305,308,311,317,1
310,309,312,319,1
313,310,312,318,1
315,309,309,314,1
313,306,304,309,1
309,304,300,304,1
306,303,298,300,1
304,303,297,296,1
303,304,299,295,1
303,308,302,296,1
305,311,304,300,1
307,314,307,307,1
308,315,309,313,1
309,314,309,317,1
310,313,310,320,1
310,312,309,319,1
310,311,308,317,1
309,309,307,313,1
309,308,305,309,1
310,307,305,307,1
310,305,306,306,1
310,303,307,306,1
310,301,307,305,1
310,300,307,304,1
311,302,306,304,1
314,304,305,304,1
316,305,304,304,1
317,306,304,307,1
317,308,304,310,1
317,308,305,313,1
316,309,306,312,1
315,309,306,310,1
317,311,307,308,1
320,315,309,306,1
324,320,311,304,1
329,324,312,302,1
332,327,312,299,1
330,327,312,296,1
326,326,311,294,1
318,322,309,292,1
309,314,306,291,1
303,307,304,290,1
300,302,303,293,1
300,302,304,298,1
301,303,307,302,1
301,303,309,304,1
302,302,310,305,1
301,300,310,304,1
300,298,309,304,1
299,297,306,305,1
300,296,304,308,1
301,295,303,309,1
303,295,303,311,1
306,297,304,313,1
309,299,306,315,1
311,301,307,315,1
313,304,307,314,1
313,307,306,314,1
313,310,305,314,1
312,311,304,314,1
311,310,304,315,1
312,308,303,317,1
315,306,303,318,1
317,306,302,318,1
319,306,302,318,1
319,306,302,315,1
317,306,302,312,1
313,306,301,307,1
309,307,300,302,1
307,308,301,297,1
306,308,302,293,1
307,309,303,292,1
308,309,305,295,1
309,308,307,301,1
310,307,308,307,1
311,304,307,311,1
310,301,306,314,1
309,300,305,315,1
309,298,305,314,1
309,299,304,312,1
309,301,303,310,1
308,304,303,310,1
308,309,304,311,1
307,313,307,312,1
307,317,308,312,1
307,319,309,312,1
306,319,309,311,1
307,317,308,309,1
308,315,307,309,1
309,312,307,310,1
310,310,309,312,1
313,308,311,314,1
315,307,310,314,1
316,306,309,314,1
317,305,308,313,1
321,304,308,311,1
325,305,307,306,1
324,304,306,302,1
320,302,305,298,1
315,301,304,296,1
312,300,304,295,1
308,299,303,295,1
305,298,302,295,1
304,297,301,296,1
305,297,300,297,1
307,300,300,298,1
310,303,299,298,1
313,308,299,299,1
315,312,299,299,1
317,315,300,300,1
319,317,303,302,1
317,317,305,304,1
314,316,306,307,1
310,314,307,309,1
304,310,306,310,1
299,307,307,310,1
295,304,307,310,1
294,303,308,311,1
294,305,309,313,1
296,308,310,314,1
297,310,311,315,1
296,311,310,315,1
294,311,308,314,1
292,310,304,313,1
290,309,300,310,1
290,307,297,307,1
290,305,296,305,1
291,303,297,303,1
294,302,300,302,1
297,301,301,302,1
297,299,302,301,1
296,298,301,300,1
296,298,303,299,1
297,300,305,299,1
300,302,308,300,1
304,306,310,302,1
310,310,311,304,1
316,314,311,304,1
321,316,310,304,1
324,317,309,304,1
325,319,310,305,1
325,321,312,306,1
324,321,313,307,1
324,321,313,308,1
327,322,312,308,1
330,322,312,310,1
332,324,313,313,1
334,327,315,320,1
334,330,319,325,1
334,331,321,330,1
328,329,322,331,1
319,324,321,330,1
310,319,320,327,1
305,315,319,324,1
303,313,320,322,1
300,313,320,321,1
298,314,320,320,1
298,315,320,318,1
298,314,318,314,1
295,309,315,308,1
291,301,311,303,1
287,295,308,298,1
286,290,306,294,1
286,289,306,293,1
289,291,308,295,1
294,294,310,297,1
299,297,312,300,1
303,299,314,302,1
307,302,315,305,1
308,305,316,309,1
308,306,315,312,1
308,308,313,315,1
309,311,313,317,1
311,314,313,319,1
314,318,314,319,1
315,320,315,318,1
314,322,315,317,1
311,324,315,317,1
308,325,314,317,1
306,322,314,316,1
303,317,313,315,1
301,310,312,313,1
302,306,312,312,1
304,303,312,311,1
307,302,311,311,1
310,301,311,311,1
312,302,311,311,1
314,302,310,311,1
314,302,309,310,1
313,303,307,308,1
312,304,306,307,1
310,304,305,305,1
308,305,305,304,1
309,306,305,303,1
310,307,306,303,1
311,308,307,303,1
313,307,307,303,1
316,307,309,304,1
319,308,311,305,1
320,310,313,308,1
321,311,313,311,1
319,310,311,312,1
315,307,309,311,1
311,305,308,311,1
306,304,307,311,1
304,304,308,311,1
303,304,309,312,1
304,305,311,312,1
306,306,312,312,1
310,308,312,311,1
313,311,312,310,1
315,314,311,308,1
314,316,309,305,1
313,318,306,303,1
312,318,305,300,1
313,317,305,300,1
313,315,306,303,1
312,313,307,306,1
311,312,309,309,1
308,311,309,311,1
305,311,309,310,1
302,312,309,308,1
301,312,308,305,1
302,312,306,301,1
305,312,303,297,1
308,312,301,293,1
310,311,299,291,1
310,309,299,295,1
311,309,301,303,1
313,310,303,312,1
313,310,305,320,1
312,309,307,325,1
310,307,308,327,1
306,304,308,326,1
303,300,308,323,1
301,296,307,318,1
299,293,305,314,1
298,292,304,311,1
298,292,305,309,1
298,293,306,307,1
298,293,307,304,1
301,295,308,300,1
304,295,308,297,1
308,296,308,292,1
311,296,308,289,1
313,296,307,288,1
315,297,308,292,1
316,299,307,297,1
316,301,307,304,1
313,304,306,310,1
311,305,306,315,1
309,307,306,316,1
308,307,305,317,1
304,309,304,319,1
301,313,303,320,1
298,315,302,321,1
296,316,301,319,1
295,314,300,316,1
296,313,300,314,1
299,313,302,313,1
303,313,305,312,1
306,312,309,311,1
308,311,311,309,1
308,309,312,310,1
307,310,313,311,1
305,311,312,313,1
304,312,312,313,1
306,313,311,312,1
309,313,310,309,1
314,314,310,304,1
318,316,309,298,1
319,318,308,291,1
317,317,306,284,1
313,315,304,280,1
307,310,303,280,1
303,307,303,283,1
302,305,305,289,1
304,305,307,295,1
305,306,309,302,1
305,305,309,308,1
303,301,308,312,1
299,296,307,315,1
296,292,305,316,1
293,289,303,316,1
291,288,302,315,1
291,289,302,315,1
294,290,304,314,1
300,293,306,313,1
305,295,309,312,1
310,299,310,311,1
312,301,311,309,1
312,304,311,307,1
311,307,312,306,1
308,309,312,305,1
304,310,313,303,1
302,310,312,305,1
300,310,311,308,1
301,310,310,311,1
301,308,308,312,1
302,305,305,311,1
302,303,304,310,1
300,302,303,309,1
298,303,302,309,1
296,305,302,310,1
294,306,303,311,1
294,305,304,311,1
295,304,305,310,1
296,303,305,308,1
298,302,304,304,1
299,302,301,299,1
300,302,298,292,1
300,301,296,286,1
300,300,294,283,1
302,302,295,284,1
303,305,299,289,1
305,307,303,295,1
305,309,306,299,1
305,310,307,301,1
305,312,308,302,1
304,313,308,301,1
303,313,307,299,1
301,313,304,296,1
299,314,302,293,1
297,314,298,290,1
297,314,295,288,1
297,314,293,289,1
299,314,293,291,1
301,314,293,294,1
304,315,293,296,1
305,315,294,298,1
304,314,294,299,1
304,312,296,300,1
303,309,298,301,1
303,306,301,301,1
304,303,304,301,1
305,303,305,302,1
307,304,306,304,1
310,306,305,307,1
314,308,305,308,1
316,309,305,309,1
318,308,305,308,1
317,305,304,307,1
313,300,301,304,1
307,295,298,301,1
302,292,296,300,1
299,290,296,299,1
298,290,297,299,1
298,291,298,301,1
299,295,300,304,1
300,297,301,308,1
300,298,301,310,1
301,298,303,311,1
304,299,305,311,1
309,301,308,311,1
313,305,308,313,1
317,308,308,314,1
317,311,307,314,1
316,313,306,313,1
315,314,304,311,1
314,314,301,310,1
313,311,298,308,1
311,308,297,306,1
308,303,295,304,1
305,298,293,302,1
301,297,293,302,1
299,296,294,304,1
298,296,295,305,1
299,297,297,307,1
302,298,298,309,1
306,300,301,313,1
309,303,304,316,1
312,304,306,319,1
312,306,307,321,1
312,308,307,322,1
311,310,306,321,1
311,311,305,319,1
310,312,304,316,1
311,312,303,313,1
309,308,302,309,1
307,302,301,306,1
305,297,301,305,1
305,293,301,308,1
307,293,301,312,1
312,294,302,315,1
315,297,303,318,1
317,299,302,320,1
316,301,301,320,1
315,303,298,318,1
313,305,297,315,1
309,306,295,310,1
306,307,294,306,1
305,310,296,303,1
306,313,298,302,1
305,314,301,301,1
304,313,302,300,1
304,311,305,299,1
306,309,307,298,1
308,308,308,299,1
309,307,309,299,1
310,305,308,299,1
309,305,308,299,1
305,306,308,300,1
301,306,308,299,1
298,307,308,297,1
297,306,308,295,1
296,304,307,291,1
296,302,306,289,1
298,301,304,288,1
300,299,303,287,1
303,297,302,286,1
306,293,301,284,1
309,289,301,284,1
312,286,301,287,1
312,285,300,293,1
310,287,301,300,1
307,289,301,306,1
304,290,301,311,1
301,290,301,313,1
300,290,301,313,1
300,291,303,315,1
301,293,305,316,1
302,295,307,318,1
303,297,308,319,1
303,298,309,320,1
303,299,309,319,1
304,300,308,318,1
306,302,308,316,1
308,304,308,314,1
311,305,307,313,1
313,307,305,311,1
313,307,303,309,1
311,307,300,307,1
309,307,298,306,1
306,305,297,305,1
304,303,298,304,1
302,302,299,304,1
301,301,301,304,1
301,300,302,304,1
302,300,304,304,1
302,300,306,304,1
303,300,305,304,1
302,300,303,303,1
302,299,301,302,1
302,299,300,302,1
303,298,301,301,1
303,298,302,301,1
304,299,302,301,1
304,299,300,300,1
303,298,298,298,1
303,298,295,298,1
304,299,294,299,1
306,301,295,303,1
310,304,297,307,1
315,308,299,311,1
320,312,302,312,1
323,315,303,313,1
324,319,304,314,1
325,322,305,315,1
323,324,305,316,1
320,325,306,314,1
314,322,306,312,1
307,319,306,310,1
302,314,306,309,1
297,310,305,309,1
295,306,303,308,1
295,303,302,308,1
298,302,302,306,1
299,301,299,300,1
299,300,295,293,1
298,300,290,285,1
297,301,286,279,1
297,301,284,275,1
298,302,285,275,1
300,304,288,280,1
304,308,294,288,1
308,311,298,297,1
312,312,300,303,1
314,310,300,305,1
314,309,299,305,1
314,308,300,308,1
313,307,300,311,1
311,305,301,315,1
310,303,301,318,1
308,300,302,321,1
306,300,303,322,1
304,301,303,323,1
302,301,303,322,1
301,300,302,320,1
301,300,302,319,1
302,300,303,318,1
304,300,304,317,1
306,301,304,316,1
307,301,303,315,1
309,301,302,314,1
311,302,300,313,1
313,304,299,312,1
316,307,299,310,1
318,311,300,310,1
320,314,302,309,1
319,316,303,310,1
319,318,303,310,1
319,320,303,312,1
318,323,302,312,1
315,323,301,313,1
311,323,302,312,1
306,320,303,311,1
302,316,303,308,1
298,311,302,305,1
296,308,300,300,1
295,304,298,296,1
294,301,296,293,1
293,298,294,293,1
293,295,294,294,1
293,293,294,296,1
295,293,296,299,1
297,295,298,305,1
300,300,300,311,1
303,303,302,315,1
304,306,303,317,1
305,307,303,316,1
306,308,304,315,1
307,310,305,315,1
308,313,307,318,1
308,318,309,321,1
310,323,312,324,1
312,327,314,326,1
314,330,313,326,1
315,329,312,323,1
313,325,310,318,1
310,319,310,312,1
306,312,310,307,1
301,303,311,304,1
297,297,312,302,1
296,293,313,303,1
297,292,313,304,1
300,292,313,306,1
302,293,313,307,1
303,294,312,308,1
305,297,312,307,1
305,299,313,306,1
304,302,312,303,1
303,304,312,302,1
302,306,312,300,1
301,305,311,299,1
302,303,311,299,1
304,301,310,301,1
305,301,308,304,1
306,302,306,307,1
306,303,304,308,1
305,303,302,308,1
305,303,301,308,1
305,304,301,306,1
305,304,302,304,1
306,305,304,302,1
305,304,306,301,1
304,304,307,299,1
303,304,308,299,1
301,304,308,299,1
299,304,308,300,1
296,305,308,301,1
295,305,307,302,1
295,306,306,303,1
295,307,305,304,1
296,308,305,304,1
297,309,304,304,1
297,309,302,301,1
297,307,300,299,1
297,306,299,296,1
298,304,298,293,1
298,303,297,292,1
299,303,296,294,1
300,304,298,296,1
301,306,300,299,1
303,307,302,302,1
304,310,304,304,1
305,313,307,306,1
306,318,309,308,1
306,320,311,311,1
306,322,311,314,1
305,323,310,317,1
306,323,311,321,1
306,322,311,323,1
308,320,311,324,1
310,316,311,323,1
312,312,312,322,1
312,309,312,321,1
311,307,312,319,1
310,304,311,318,1
309,303,311,317,1
308,301,312,315,1
307,300,312,314,1
306,299,311,311,1
305,300,310,309,1
306,303,309,307,1
307,307,307,306,1
309,311,306,304,1
309,315,306,302,1
310,316,305,301,1
309,314,304,301,1
308,312,304,301,1
307,308,304,303,1
305,306,304,304,1
304,304,304,306,1
303,303,306,309,1
304,303,308,311,1
303,303,308,312,1
303,301,308,312,1
302,300,308,312,1
303,301,309,312,1
303,303,309,310,1
301,303,308,306,1
299,302,305,304,1
298,301,302,304,1
297,301,300,306,1
297,301,299,310,1
299,302,299,314,1
303,303,302,318,1
308,305,306,320,1
313,306,309,320,1
317,309,311,319,1
319,312,312,318,1
320,315,312,317,1
318,319,311,316,1
316,322,310,317,1
314,324,309,317,1
314,324,308,315,1
314,321,308,312,1
315,318,309,310,1
315,314,310,308,1
314,311,310,307,1
311,309,310,308,1
307,307,308,308,1
301,304,307,309,1
296,301,304,309,1
293,299,301,307,1
291,297,297,305,1
290,296,295,303,1
290,295,293,301,1
290,293,293,299,1
291,290,294,300,1
292,288,298,302,1
295,288,302,306,1
297,289,305,310,1
301,293,308,314,1
305,298,310,317,1
309,302,310,318,1
311,303,310,318,1
312,302,310,315,1
311,299,310,311,1
308,296,308,305,1
304,294,308,299,1
300,295,307,294,1
297,297,306,290,1
296,300,305,287,1
298,304,304,288,1
300,309,304,293,1
304,313,305,301,1
308,314,307,310,1
310,312,309,316,1
312,308,311,322,1
312,304,312,324,1
311,300,312,324,1
308,299,311,323,1
305,298,311,321,1
303,297,310,317,1
301,297,310,313,1
301,297,309,309,1
302,298,308,308,1
304,300,308,310,1
306,301,307,313,1
308,301,308,317,1
310,302,308,322,1
312,305,308,327,1
313,309,308,329,1
315,311,307,328,1
317,312,306,323,1
319,312,307,318,1
320,310,309,313,1
318,306,311,310,1
313,300,313,308,1
307,295,314,308,1
302,294,315,310,1
300,295,316,311,1
301,298,315,313,1
303,301,314,313,1
305,302,312,312,1
306,302,310,309,1
307,301,308,307,1
309,301,307,306,1
309,300,306,306,1
308,299,304,306,1
306,297,302,306,1
303,297,302,306,1
301,298,302,308,1
300,300,304,308,1
301,302,307,308,1
302,303,309,308,1
305,304,311,310,1
307,306,313,314,1
309,307,314,318,1
310,308,316,321,1
310,308,317,322,1
308,307,318,321,1
307,307,318,320,1
306,308,318,319,1
306,311,318,318,1
307,314,317,316,1
307,317,316,314,1
308,318,315,311,1
307,318,314,307,1
306,317,311,303,1
307,317,308,300,1
309,317,306,296,1
309,315,302,293,1
307,312,299,291,1
305,307,298,289,1
303,301,298,289,1
302,296,299,289,1
302,292,301,290,1
303,289,304,294,1
305,289,306,297,1
306,289,308,299,1
305,290,310,303,1
303,293,313,308,1
302,296,316,312,1
301,299,318,314,1
299,301,318,313,1
297,303,317,312,1
297,306,315,311,1
299,310,314,311,1
302,314,313,310,1
304,316,311,308,1
304,317,309,307,1
304,318,307,307,1
305,319,306,306,1
307,319,306,306,1
309,320,307,307,1
311,321,308,312,1
312,322,309,317,1
312,321,308,321,1
309,318,308,322,1
306,314,307,322,1
302,310,306,320,1
299,306,305,319,1
297,302,304,318,1
297,298,306,315,1
298,294,308,313,1
298,292,311,312,1
299,292,313,311,1
300,291,315,309,1
300,291,315,307,1
301,292,314,304,1
301,293,313,303,1
301,294,312,301,1
301,296,312,299,1
302,298,312,297,1
303,300,311,295,1
304,301,310,294,1
304,302,309,292,1
305,301,308,290,1
305,299,307,288,1
304,297,306,288,1
305,298,305,290,1
306,302,305,293,1
307,304,304,297,1
308,306,304,299,1
308,305,304,300,1
306,303,305,301,1
305,303,306,301,1
305,304,308,301,1
305,305,309,302,1
305,306,310,302,1
304,306,309,303,1
303,307,308,303,1
302,307,306,304,1
300,308,304,303,1
298,310,301,303,1
298,311,300,301,1
298,313,300,300,1
298,313,302,299,1
299,311,305,300,1
299,311,309,302,1
301,311,312,305,1
302,310,314,307,1
303,309,315,308,1
303,307,316,310,1
304,307,316,312,1
305,309,317,316,1
307,311,317,319,1
309,313,317,322,1
313,317,316,323,1
316,320,315,323,1
319,323,314,322,1
321,323,313,319,1
320,324,313,316,1
317,325,312,312,1
311,325,312,308,1
305,322,311,304,1
300,316,309,300,1
297,309,308,296,1
296,303,306,294,1
296,299,306,293,1
297,296,307,293,1
298,294,307,293,1
297,292,307,297,1
298,293,306,304,1
298,295,305,311,1
297,297,304,316,1
297,297,304,318,1
296,298,305,318,1
296,299,306,317,1
296,301,307,316,1
296,303,309,315,1
296,306,310,315,1
298,308,311,314,1
301,308,310,314,1
304,307,309,313,1
307,308,309,311,1
309,308,309,310,1
310,310,310,309,1
309,310,311,309,1
305,308,312,308,1
303,306,312,308,1
301,303,311,306,1
301,302,310,305,1
301,302,309,304,1
301,302,307,302,1
300,301,306,301,1
300,300,305,302,1
299,299,306,303,1
299,299,309,306,1
299,301,313,310,1
299,302,315,313,1
298,304,316,315,1
297,305,317,316,1
296,306,316,316,1
296,306,316,314,1
297,306,316,313,1
299,307,317,312,1
303,310,317,313,1
306,312,317,313,1
308,313,315,313,1
309,312,313,312,1
308,310,311,310,1
306,308,309,308,1
304,305,309,306,1
303,303,309,305,1
303,302,310,303,1
302,302,312,302,1
302,304,313,302,1
303,309,313,304,1
304,316,313,306,1
307,324,312,308,1
309,329,310,308,1
311,332,308,308,1
312,331,306,308,1
312,327,306,308,1
311,321,307,308,1
311,313,308,306,1
311,303,309,303,1
311,294,310,300,1
310,287,310,298,1
308,284,309,297,1
306,285,309,297,1
304,287,310,297,1
304,290,311,297,1
304,293,313,296,1
305,295,315,295,1
306,296,317,295,1
306,297,317,295,1
306,298,316,296,1
305,299,314,298,1
305,299,312,300,1
304,298,311,301,1
305,297,311,300,1
304,295,311,300,1
304,292,310,299,1
304,288,310,299,1
304,287,310,299,1
305,288,310,302,1
306,291,310,306,1
308,293,311,309,1
308,295,312,310,1
308,297,312,310,1
308,298,313,311,1
309,301,315,312,1
311,304,316,315,1
316,308,317,319,1
320,312,318,323,1
323,315,318,325,1
325,317,319,324,1
325,317,318,322,1
322,314,316,318,1
316,311,313,313,1
310,308,311,310,1
306,306,309,308,1
304,304,307,306,1
303,302,306,304,1
304,302,307,303,1
304,302,307,304,1
302,301,305,305,1
300,300,303,307,1
298,298,302,307,1
298,297,302,308,1
299,297,303,308,1
302,298,304,308,1
305,300,303,309,1
305,303,301,309,1
305,306,300,309,1
304,309,299,310,1
304,313,300,311,1
304,315,302,311,1
304,314,305,312,1
303,311,307,313,1
302,307,308,313,1
300,303,308,312,1
300,301,308,312,1
300,299,307,311,1
301,299,307,311,1
302,300,306,310,1
302,301,306,309,1
303,302,306,308,1
305,304,306,307,1
306,306,306,306,1
307,307,306,303,1
309,307,305,301,1
310,306,305,298,1
312,304,305,294,1
314,302,305,290,1
314,300,303,287,1
312,299,300,286,1
309,298,298,286,1
305,299,297,287,1
301,300,297,288,1
298,302,299,291,1
296,304,303,296,1
296,306,306,301,1
297,309,308,304,1
300,314,310,307,1
305,319,311,310,1
310,325,313,312,1
315,329,315,313,1
318,332,315,314,1
317,331,315,314,1
314,328,314,312,1
309,320,312,309,1
304,311,309,305,1
301,303,308,300,1
299,297,306,296,1
301,293,306,292,1
304,290,306,289,1
307,289,306,288,1
308,288,306,289,1
309,288,305,293,1
309,290,305,300,1
309,294,306,308,1
309,297,307,313,1
308,299,309,315,1
307,300,308,314,1
306,300,308,312,1
307,301,307,311,1
308,302,308,312,1
308,303,308,314,1
306,303,307,316,1
302,303,306,316,1
299,303,305,317,1
297,303,305,315,1
296,303,305,313,1
297,304,305,310,1
298,305,304,308,1
300,308,304,305,1
303,309,304,303,1
305,307,303,301,1
305,304,302,301,1
306,302,301,301,1
306,300,302,301,1
309,300,304,302,1
312,300,307,304,1
314,299,309,306,1
315,300,309,307,1
315,300,308,309,1
314,302,308,310,1
313,304,309,309,1
311,306,309,307,1
308,307,307,303,1
307,307,304,298,1
307,306,301,294,1
306,306,298,292,1
306,306,297,291,1
307,307,297,293,1
307,308,299,295,1
308,308,299,296,1
308,307,300,297,1
307,306,300,298,1
306,305,301,300,1
305,304,302,303,1
305,304,304,306,1
305,304,306,310,1
306,306,309,313,1
308,310,312,314,1
310,313,312,313,1
311,315,313,312,1
312,316,312,310,1
312,318,312,310,1
311,318,311,310,1
310,316,310,311,1
310,314,308,311,1
310,311,307,311,1
311,308,305,311,1
312,306,302,309,1
311,304,298,307,1
309,303,296,305,1
306,302,294,302,1
304,302,294,299,1
302,303,294,297,1
301,304,295,296,1
303,307,297,297,1
305,310,298,298,1
307,313,300,299,1
309,314,302,301,1
310,314,305,302,1
311,312,307,305,1
311,310,310,307,1
310,309,311,309,1
310,308,312,311,1
311,308,312,311,1
312,307,312,310,1
314,307,312,311,1
317,308,314,313,1
318,309,314,314,1
317,308,313,314,1
314,305,311,311,1
309,300,308,306,1
304,296,304,300,1
299,292,302,296,1
297,291,301,292,1
297,291,301,290,1
298,293,301,289,1
300,294,302,289,1
301,294,302,289,1
302,295,302,289,1
302,296,302,289,1
302,296,301,289,1
301,297,300,290,1
300,297,301,293,1
301,299,302,299,1
304,301,304,305,1
307,306,306,312,1
310,308,306,317,1
312,309,305,318,1
312,308,303,318,1
312,308,302,316,1
312,309,302,315,1
314,311,302,312,1
316,314,302,309,1
316,317,303,304,1
316,319,303,300,1
315,321,303,296,1
314,321,303,293,1
312,316,304,291,1
309,309,304,290,1
308,302,305,293,1
310,300,307,299,1
312,300,309,306,1
313,302,310,311,1
313,304,310,315,1
312,305,311,317,1
311,307,311,318,1
312,310,311,320,1
314,312,311,321,1
316,313,312,322,1
318,313,312,320,1
319,312,311,317,1
319,310,310,314,1
316,308,310,310,1
313,305,309,305,1
309,303,308,300,1
306,301,307,297,1
305,301,306,295,1
304,302,305,295,1
304,301,304,296,1
305,300,304,298,1
307,300,304,301,1
310,300,303,303,1
313,301,303,305,1
315,302,301,306,1
315,302,301,304,1
312,302,300,302,1
309,301,302,299,1
306,300,303,298,1
303,300,304,297,1
300,300,302,296,1
299,302,299,296,1
300,304,297,295,1
302,307,296,294,1
305,309,296,293,1
308,308,297,294,1
309,306,301,294,1
311,303,304,294,1
313,301,306,295,1
313,302,308,297,1
313,306,309,302,1
313,310,310,307,1
313,314,311,312,1
312,316,312,316,1
310,315,312,317,1
308,312,311,318,1
306,309,310,318,1
306,307,310,319,1
306,304,310,316,1
307,301,309,312,1
306,298,308,305,1
305,295,307,301,1
304,295,307,299,1
304,295,307,298,1
303,295,307,297,1
303,294,307,295,1
304,295,306,294,1
305,296,305,294,1
307,297,304,293,1
309,300,303,294,1
311,304,304,297,1
313,310,307,301,1
314,314,309,304,1
313,316,310,305,1
311,318,311,306,1
309,319,311,307,1
309,320,312,307,1
309,319,313,306,1
309,315,313,306,1
307,310,310,305,1
305,305,308,307,1
304,303,306,311,1
305,302,306,315,1
307,302,306,319,1
308,301,307,322,1
310,301,309,323,1
312,302,311,325,1
313,304,312,325,1
311,304,313,324,1
307,304,313,324,1
303,304,313,324,1
301,305,312,324,1
301,306,311,323,1
302,307,309,321,1
303,307,308,319,1
303,307,307,317,1
304,307,307,315,1
305,309,308,314,1
305,311,308,313,1
305,312,307,313,1
303,312,306,312,1
302,310,304,311,1
301,306,303,309,1
302,302,303,307,1
303,299,303,307,1
304,299,304,307,1
306,300,305,308,1
307,303,306,308,1
308,307,306,307,1
310,311,306,307,1
312,315,305,305,1
314,318,304,303,1
316,320,303,300,1
317,321,302,298,1
317,321,302,297,1
316,319,304,297,1
314,314,305,296,1
310,307,307,297,1
308,302,309,300,1
308,299,311,304,1
310,299,312,308,1
312,299,312,311,1
313,300,311,313,1
313,301,310,313,1
313,302,309,311,1
312,302,308,309,1
312,304,307,309,1
310,305,307,310,1
308,308,307,311,1
307,311,307,313,1
308,313,307,313,1
309,314,305,314,1
309,315,304,316,1
310,316,304,316,1
310,314,304,313,1
311,312,304,308,1
311,308,304,303,1
313,306,303,298,1
312,304,301,293,1
311,303,299,289,1
310,303,298,288,1
310,306,300,291,1
312,310,303,295,1
313,313,306,298,1
312,313,307,300,1
312,313,307,301,1
312,311,306,301,1
310,308,305,299,1
308,304,304,299,1
306,301,304,300,1
305,300,304,305,1
304,300,304,309,1
304,299,305,312,1
305,298,305,314,1
306,298,307,316,1
310,301,310,318,1
314,305,312,320,1
316,307,314,323,1
316,307,313,324,1
314,305,312,324,1
311,304,311,324,1
307,303,311,324,1
306,306,311,325,1
305,310,311,324,1
304,315,309,324,1
304,320,308,323,1
305,323,308,322,1
306,323,308,321,1
308,322,309,319,1
310,318,309,316,1
309,313,309,313,1
308,307,309,309,1
306,302,309,306,1
304,297,309,302,1
303,294,309,300,1
303,293,308,299,1
303,294,309,299,1
304,297,309,300,1
304,300,309,300,1
303,302,307,299,1
301,303,305,299,1
300,304,302,299,1
300,305,300,301,1
303,305,298,302,1
306,305,298,304,1
310,304,300,304,1
314,303,302,305,1
318,304,305,306,1
322,307,309,309,1
325,310,310,312,1
325,312,310,314,1
324,313,308,314,1
321,313,306,313,1
316,312,305,311,1
311,311,306,311,1
308,313,308,312,1
307,314,312,311,1
306,314,315,309,1
306,315,318,307,1
306,319,320,307,1
306,324,320,307,1
306,328,319,308,1
308,330,318,308,1
310,330,315,308,1
310,325,313,308,1
310,318,312,308,1
309,309,311,307,1
309,301,310,305,1
308,294,309,301,1
308,289,307,297,1
307,288,306,294,1
307,290,305,293,1
308,293,305,293,1
307,296,305,294,1
306,298,305,296,1
304,299,305,300,1
302,300,306,303,1
300,299,306,305,1
299,297,305,304,1
297,295,304,303,1
296,292,303,301,1
295,292,304,302,1
297,294,305,303,1
299,296,307,303,1
303,298,308,303,1
305,301,309,305,1
308,303,310,308,1
309,304,311,311,1
309,305,313,314,1
310,306,315,315,1
310,307,316,316,1
310,307,316,316,1
310,307,316,316,1
310,306,314,314,1
309,304,311,311,1
308,303,308,308,1
306,302,306,307,1
305,302,305,306,1
303,301,304,306,1
301,301,304,306,1
301,301,304,306,1
302,302,303,307,1
304,303,302,308,1
307,305,302,309,1
309,306,302,309,1
311,308,302,307,1
314,309,304,306,1
317,310,305,306,1
319,312,306,307,1
318,314,307,308,1
316,314,307,310,1
313,314,308,311,1
309,314,307,311,1
307,314,306,309,1
306,317,306,307,1
307,320,307,306,1
307,325,308,305,1
307,330,309,306,1
308,334,308,306,1
308,335,305,306,1
308,333,301,304,1
308,329,299,302,1
306,321,298,299,1
305,311,300,299,1
303,301,304,300,1
302,293,307,303,1
302,288,311,306,1
302,285,313,309,1
302,285,315,311,1
302,285,316,311,1
302,286,316,311,1
300,287,315,309,1
299,288,314,308,1
299,289,312,309,1
298,293,310,309,1
299,299,308,310,1
300,304,308,310,1
302,309,307,310,1
303,313,307,310,1
303,314,305,310,1
302,315,304,311,1
300,313,303,312,1
298,311,302,312,1
297,310,302,314,1
298,310,303,316,1
300,311,304,318,1
303,311,305,318,1
306,311,306,316,1
309,310,306,315,1
310,308,304,315,1
311,307,303,315,1
312,307,303,314,1
312,307,304,314,1
311,307,305,313,1
308,306,306,311,1
305,306,305,309,1
303,305,305,306,1
303,305,305,303,1
303,306,305,301,1
304,308,305,299,1
306,310,306,299,1
308,310,306,299,1
308,309,306,299,1
307,308,306,299,1
305,307,305,301,1
304,306,305,302,1
302,304,304,302,1
301,302,303,301,1
300,300,302,300,1
298,300,300,301,1
297,300,300,303,1
297,302,299,305,1
297,303,299,307,1
299,306,299,309,1
300,309,299,311,1
301,311,298,311,1
301,312,298,312,1
301,313,299,312,1
300,313,300,312,1
301,313,302,310,1
301,313,303,306,1
302,312,303,302,1
302,312,303,298,1
301,314,304,295,1
301,318,304,295,1
302,321,305,299,1
304,324,306,305,1
305,324,308,311,1
307,324,309,316,1
308,322,309,320,1
309,319,309,323,1
310,317,309,324,1
312,314,309,323,1
313,311,309,321,1
313,307,309,319,1
313,303,309,318,1
313,302,310,317,1
312,302,310,316,1
309,302,309,314,1
304,301,307,311,1
300,300,305,309,1
297,298,303,307,1
295,298,302,307,1
295,298,301,308,1
297,300,301,312,1
298,302,302,314,1
299,303,302,314,1
300,304,302,314,1
302,305,302,313,1
303,306,301,314,1
303,307,300,314,1
303,308,299,314,1
302,308,298,313,1
301,308,299,310,1
300,308,301,308,1
300,308,302,306,1
301,309,304,304,1
301,310,304,304,1
302,313,305,304,1
303,315,306,304,1
302,317,306,305,1
301,315,305,304,1
302,311,304,303,1
303,305,302,300,1
303,300,301,298,1
303,297,301,298,1
304,296,301,299,1
306,299,303,302,1
307,301,305,305,1
306,302,306,308,1
306,303,307,309,1
305,304,307,308,1
305,307,306,306,1
305,309,305,303,1
303,311,304,300,1
302,312,304,298,1
302,312,303,296,1
302,312,302,297,1
304,310,301,299,1
306,308,301,302,1
308,306,301,304,1
309,305,301,307,1
310,305,301,309,1
310,304,301,311,1
310,304,302,313,1
308,304,302,314,1
306,303,302,313,1
305,303,301,311,1
305,303,302,309,1
306,303,303,306,1
307,302,303,304,1
308,302,304,302,1
308,303,303,301,1
308,306,302,302,1
307,310,301,303,1
305,313,300,304,1
304,315,300,305,1
302,314,301,306,1
301,310,302,306,1
300,306,302,305,1
299,302,302,304,1
298,300,302,304,1
297,300,302,302,1
297,301,303,301,1
298,303,304,300,1
300,303,304,300,1
302,302,304,299,1
304,302,304,300,1
305,301,304,301,1
305,301,304,302,1
305,303,304,304,1
305,304,303,307,1
304,306,301,308,1
304,306,299,308,1
304,307,297,308,1
304,307,294,308,1
303,307,294,307,1
302,306,294,305,1
301,305,295,303,1
299,304,297,301,1
299,303,298,299,1
299,303,298,297,1
299,302,297,294,1
299,302,296,291,1
300,303,298,291,1
302,307,300,295,1
302,312,302,299,1
303,316,302,303,1
303,318,302,305,1
304,319,301,305,1
304,320,300,306,1
304,320,299,306,1
305,320,298,308,1
305,320,300,309,1
306,320,302,309,1
305,319,305,309,1
306,318,307,310,1
306,317,308,311,1
306,316,307,310,1
304,313,306,306,1
303,310,304,300,1
301,308,302,294,1
301,308,301,289,1
302,309,300,288,1
303,312,299,291,1
305,315,299,300,1
306,319,301,312,1
308,321,302,324,1
310,320,303,331,1
311,318,304,336,1
312,313,305,338,1
311,307,306,339,1
310,301,307,337,1
308,294,307,332,1
306,289,307,327,1
307,286,307,321,1
307,286,306,317,1
309,288,304,314,1
310,292,304,313,1
312,297,305,313,1
314,300,306,314,1
315,302,308,313,1
315,302,308,311,1
315,300,309,310,1
316,299,309,308,1
316,299,308,307,1
313,300,306,306,1
308,301,306,305,1
304,304,306,305,1
300,306,307,305,1
299,309,308,305,1
299,312,308,305,1
301,315,308,305,1
303,316,307,306,1
304,318,306,307,1
304,317,305,309,1
303,315,304,310,1
302,311,304,310,1
299,307,303,308,1
296,303,301,306,1
294,300,300,303,1
295,298,299,302,1
296,297,298,301,1
298,296,295,301,1
298,296,295,302,1
300,297,296,303,1
302,300,300,306,1
304,303,303,309,1
306,306,307,313,1
308,311,310,317,1
308,313,312,319,1
308,314,313,319,1
306,314,313,318,1
305,313,313,316,1
304,311,312,315,1
303,309,312,316,1
304,307,311,316,1
304,307,311,317,1
305,307,309,315,1
304,308,307,313,1
304,308,305,308,1
302,308,303,303,1
301,307,301,299,1
300,307,301,297,1
300,307,301,296,1
300,306,302,296,1
300,305,302,296,1
301,304,303,296,1
303,304,304,298,1
304,305,304,299,1
303,307,305,300,1
303,310,305,302,1
303,313,306,304,1
304,315,305,306,1
305,315,305,306,1
306,313,304,306,1
307,312,305,306,1
310,313,307,307,1
313,316,310,309,1
317,320,312,311,1
322,324,313,312,1
326,327,313,310,1
328,328,312,306,1
327,326,310,300,1
323,322,308,293,1
317,316,308,286,1
312,310,307,282,1
307,308,307,283,1
306,309,308,286,1
307,311,309,290,1
308,310,310,294,1
308,305,311,298,1
307,301,311,303,1
304,298,310,309,1
302,298,310,315,1
300,298,310,320,1
300,299,310,321,1
300,300,310,320,1
301,302,310,318,1
301,303,311,315,1
301,305,311,312,1
299,306,311,309,1
298,307,311,308,1
298,307,311,308,1
298,308,311,307,1
298,309,312,307,1
299,311,313,306,1
299,311,313,305,1
300,310,313,303,1
301,307,313,302,1
302,305,312,301,1
303,304,311,302,1
305,304,310,304,1
307,305,310,306,1
308,306,310,308,1
309,306,309,309,1
309,306,308,309,1
309,306,306,308,1
308,306,304,307,1
306,306,303,305,1
305,308,302,304,1
303,310,302,302,1
302,311,304,301,1
301,312,306,300,1
301,313,307,300,1
302,313,308,300,1
302,311,306,299,1
302,307,304,298,1
301,306,303,299,1
301,309,303,299,1
302,312,303,299,1
304,316,305,297,1
306,319,306,295,1
308,321,307,293,1
310,322,308,291,1
309,321,308,291,1
307,317,307,292,1
305,309,307,293,1
304,301,307,295,1
303,297,307,300,1
303,294,308,303,1
303,293,308,304,1
303,293,307,304,1
304,293,306,305,1
306,295,306,306,1
309,297,306,307,1
314,300,307,308,1
319,303,309,311,1
323,306,311,314,1
324,308,312,318,1
321,308,311,320,1
317,307,309,321,1
311,306,306,320,1
307,305,304,319,1
303,303,302,317,1
300,302,302,314,1
297,302,302,311,1
295,304,303,307,1
295,306,305,303,1
295,307,307,298,1
296,307,308,295,1
297,306,308,295,1
298,306,308,296,1
297,305,306,299,1
296,304,305,302,1
294,303,306,305,1
294,303,308,308,1
296,303,312,311,1
299,305,315,313,1
302,307,317,315,1
305,308,318,316,1
307,309,319,316,1
308,310,319,315,1
308,311,318,315,1
307,310,317,315,1
304,308,315,314,1
301,304,313,313,1
299,302,311,312,1
300,301,308,312,1
301,302,306,311,1
302,302,303,309,1
301,302,301,304,1
298,302,299,299,1
295,303,299,294,1
293,305,301,291,1
292,307,305,288,1
292,308,308,287,1
293,307,310,285,1
294,305,311,284,1
297,302,312,288,1
300,301,314,296,1
305,300,315,306,1
307,301,317,314,1
309,301,318,319,1
309,303,318,322,1
310,305,319,323,1
311,306,318,322,1
311,306,315,320,1
309,306,312,318,1
308,307,307,315,1
306,308,302,311,1
303,308,298,307,1
301,308,297,304,1
300,308,298,303,1
299,307,300,301,1
299,305,302,301,1
299,303,304,302,1
300,302,307,303,1
302,302,309,304,1
304,302,311,304,1
305,302,311,303,1
306,301,310,302,1
306,299,309,300,1
305,298,309,299,1
305,297,310,300,1
305,299,311,301,1
305,300,310,302,1
305,301,310,304,1
304,302,310,307,1
302,304,311,311,1
300,304,312,315,1
299,305,313,318,1
299,305,313,319,1
300,305,313,318,1
302,304,312,316,1
304,303,311,312,1
306,303,311,310,1
308,304,311,308,1
309,303,310,307,1
308,303,310,307,1
306,303,311,309,1
305,306,312,312,1
305,310,312,314,1
307,313,313,315,1
309,314,312,313,1
309,314,311,312,1
307,314,309,310,1
304,314,306,310,1
302,316,304,309,1
301,318,302,309,1
298,321,301,306,1
296,323,301,304,1
295,325,304,303,1
296,327,308,305,1
298,327,312,307,1
300,323,314,311,1
300,317,315,313,1
300,311,315,315,1
301,306,315,316,1
303,303,315,317,1
304,302,315,316,1
306,301,315,316,1
306,301,315,315,1
307,300,314,314,1
306,299,312,313,1
305,296,310,310,1
303,294,307,308,1
302,291,304,306,1
300,288,301,303,1
299,284,299,300,1
299,282,296,297,1
299,279,295,294,1
300,279,294,292,1
302,282,295,294,1
305,288,298,297,1
307,294,302,299,1
310,299,305,301,1
312,303,308,302,1
313,307,310,304,1
314,309,311,305,1
313,310,311,307,1
312,311,311,310,1
311,311,312,314,1
312,311,312,316,1
313,311,314,318,1
314,312,316,319,1
314,312,317,320,1
314,312,317,320,1
314,310,316,320,1
313,308,315,318,1
311,306,313,315,1
309,304,312,312,1
308,303,311,310,1
307,303,310,309,1
306,305,309,308,1
305,307,309,307,1
304,309,309,306,1
305,310,310,305,1
307,311,309,306,1
311,312,309,308,1
315,312,307,309,1
317,313,305,310,1
318,311,303,311,1
315,310,300,312,1
310,308,299,314,1
306,308,299,316,1
304,309,299,317,1
302,309,300,318,1
300,308,300,317,1
298,307,301,316,1
296,307,302,315,1
295,309,303,315,1
295,313,303,316,1
295,317,302,317,1
296,319,300,317,1
297,320,299,315,1
297,317,299,313,1
297,313,300,309,1
298,309,302,306,1
299,306,303,303,1
299,304,303,301,1
299,301,304,299,1
300,299,304,298,1
300,298,303,296,1
300,297,303,295,1
301,298,303,297,1
303,301,305,300,1
305,305,308,304,1
307,309,310,309,1
309,314,311,313,1
310,319,312,317,1
310,322,311,319,1
308,322,310,320,1
306,321,308,320,1
305,320,307,319,1
304,319,306,319,1
304,317,306,319,1
303,314,305,319,1
302,310,304,318,1
301,305,303,317,1
300,301,302,315,1
300,297,301,314,1
301,296,301,313,1
302,297,301,313,1
304,300,302,313,1
307,304,304,314,1
309,305,306,313,1
309,305,305,312,1
309,306,305,310,1
309,307,305,308,1
309,307,305,307,1
310,306,304,305,1
310,304,303,303,1
309,301,301,302,1
306,298,300,300,1
303,296,299,299,1
299,294,299,299,1
298,295,301,300,1
298,296,302,302,1
299,296,303,303,1
299,296,303,303,1
299,297,304,303,1
299,298,305,305,1
300,301,305,307,1
300,304,305,309,1
301,308,304,309,1
301,310,303,308,1
301,310,302,305,1
299,309,299,299,1
298,307,297,292,1
296,304,295,286,1
296,303,294,283,1
296,304,295,284,1
299,306,298,288,1
305,309,301,293,1
313,312,304,298,1
320,315,306,301,1
324,320,306,304,1
326,325,305,305,1
325,331,305,306,1
319,336,304,307,1
310,336,301,308,1
303,332,299,308,1
298,327,299,307,1
295,321,300,306,1
295,314,304,306,1
297,309,309,307,1
301,306,315,309,1
305,305,318,310,1
307,304,319,309,1
307,304,319,308,1
307,305,317,307,1
305,304,314,305,1
303,304,311,304,1
301,304,308,305,1
302,304,307,306,1
302,304,308,307,1
304,302,308,308,1
305,300,308,308,1
307,299,307,306,1
307,297,306,304,1
306,295,304,302,1
304,295,302,301,1
303,295,302,301,1
303,296,302,302,1
303,297,302,303,1
302,295,302,303,1
301,294,302,304,1
299,295,301,305,1
299,297,301,307,1
301,301,301,309,1
303,306,302,310,1
305,311,301,310,1
307,315,300,308,1
307,317,299,305,1
308,317,299,305,1
308,316,301,306,1
310,315,304,310,1
311,315,307,314,1
311,314,308,316,1
310,313,309,318,1
309,312,309,319,1
308,310,309,320,1
307,308,307,320,1
306,307,305,319,1
304,308,302,318,1
303,309,301,315,1
302,310,300,312,1
301,310,300,308,1
300,310,300,304,1
300,308,301,302,1
299,306,303,301,1
298,304,303,301,1
298,305,303,304,1
298,306,304,307,1
298,308,304,308,1
298,307,303,307,1
298,306,303,306,1
300,305,303,305,1
302,304,305,304,1
306,305,307,305,1
310,305,309,307,1
312,306,310,309,1
311,307,311,310,1
309,309,310,311,1
306,309,310,312,1
305,308,308,312,1
304,307,307,312,1
302,306,307,310,1
303,305,306,307,1
304,306,305,306,1
307,308,302,305,1
308,312,299,305,1
309,315,297,304,1
308,319,294,302,1
306,321,293,302,1
302,321,293,304,1
297,321,295,307,1
295,320,298,309,1
295,317,301,309,1
297,313,303,308,1
299,309,305,307,1
301,304,306,307,1
300,300,306,308,1
300,297,307,309,1
301,296,308,310,1
303,296,308,309,1
305,298,309,309,1
306,299,309,308,1
306,300,309,306,1
304,301,308,303,1
303,301,307,301,1
303,302,306,300,1
303,303,306,300,1
304,304,305,301,1
305,305,305,303,1
307,306,306,305,1
309,307,307,307,1
311,307,308,309,1
313,307,309,311,1
316,308,309,315,1
317,310,309,319,1
317,311,309,324,1
316,312,309,328,1
313,312,308,329,1
310,311,307,328,1
306,311,307,324,1
304,310,306,317,1
302,310,306,308,1
301,310,307,301,1
301,311,309,297,1
302,312,310,298,1
303,313,311,302,1
304,313,312,304,1
305,312,311,306,1
305,312,310,308,1
307,312,309,309,1
309,313,308,310,1
309,315,308,311,1
309,316,307,312,1
307,318,307,312,1
305,320,306,314,1
304,323,306,316,1
305,326,306,318,1
305,327,305,318,1
305,325,304,318,1
305,321,302,315,1
304,315,300,313,1
303,308,299,311,1
303,303,298,311,1
302,300,298,312,1
303,299,298,312,1
304,299,300,312,1
305,301,302,312,1
306,303,305,311,1
307,307,307,310,1
309,312,309,308,1
314,317,310,304,1
319,323,308,302,1
322,327,307,301,1
325,329,306,303,1
327,329,307,307,1
324,326,308,310,1
317,320,309,311,1
308,314,308,311,1
300,308,308,309,1
295,305,308,307,1
292,303,308,305,1
292,303,307,304,1
294,301,306,303,1
296,300,306,304,1
299,296,305,304,1
301,292,305,304,1
303,290,304,305,1
303,290,305,306,1
304,293,305,307,1
305,295,306,307,1
305,298,305,305,1
306,301,305,303,1
306,303,304,301,1
306,304,303,299,1
307,306,304,300,1
308,307,307,301,1
309,305,309,302,1
308,302,311,303,1
307,299,311,305,1
305,297,311,307,1
305,296,310,310,1
305,296,310,311,1
305,297,309,311,1
305,298,309,310,1
306,301,308,310,1
307,303,308,310,1
307,305,307,311,1
306,306,306,310,1
304,308,305,310,1
302,311,305,310,1
301,315,306,311,1
302,319,308,314,1
303,321,309,316,1
304,321,309,317,1
304,318,308,316,1
303,313,308,313,1
302,308,307,309,1
300,302,305,305,1
298,297,303,299,1
299,294,300,293,1
302,292,299,288,1
305,292,299,287,1
309,294,299,290,1
310,297,301,296,1
310,300,304,301,1
309,303,305,304,1
306,304,305,307,1
304,304,303,308,1
302,304,302,309,1
302,305,303,310,1
303,308,306,313,1
306,311,310,316,1
308,314,314,319,1
308,315,317,321,1
307,314,318,322,1
306,313,317,322,1
305,312,316,321,1
307,310,314,318,1
309,308,312,315,1
312,307,312,313,1
315,308,311,312,1
318,311,312,312,1
319,314,311,310,1
316,315,310,307,1
310,315,308,303,1
302,314,306,301,1
297,313,303,299,1
295,311,302,300,1
296,309,302,303,1
299,308,303,306,1
302,307,304,308,1
303,306,305,309,1
304,303,306,309,1
304,301,305,306,1
303,299,305,303,1
302,299,304,299,1
299,299,302,296,1
296,300,301,294,1
294,302,301,295,1
293,304,301,299,1
294,306,303,303,1
295,307,304,306,1
297,308,306,310,1
299,307,308,312,1
301,306,310,315,1
304,306,311,319,1
306,305,313,322,1
307,305,313,324,1
307,304,312,324,1
306,304,310,323,1
305,301,307,320,1
303,298,304,316,1
300,296,301,314,1
299,295,299,313,1
299,295,299,313,1
300,295,302,312,1
303,295,303,311,1
305,295,306,309,1
307,296,307,308,1
308,298,307,307,1
309,300,308,305,1
309,303,308,303,1
309,305,308,302,1
308,306,309,303,1
308,308,310,307,1
307,309,311,311,1
306,311,311,313,1
305,312,311,315,1
303,313,309,314,1
303,312,306,312,1
303,310,304,309,1
303,307,301,306,1
303,304,299,303,1
303,302,297,302,1
304,301,297,301,1
303,302,297,301,1
302,303,297,301,1
301,304,299,301,1
299,306,302,302,1
299,309,306,304,1
299,312,309,308,1
300,313,311,311,1
301,313,312,314,1
301,312,313,314,1
303,312,314,314,1
304,312,314,312,1
306,313,314,310,1
310,314,313,306,1
313,315,312,303,1
315,317,312,301,1
316,318,311,302,1
316,320,312,306,1
313,320,312,309,1
309,316,311,311,1
304,311,310,310,1
300,304,308,308,1
298,300,307,306,1
297,298,307,305,1
298,299,306,305,1
300,303,305,308,1
303,309,306,312,1
305,316,306,317,1
306,324,306,321,1
306,329,307,324,1
305,330,308,323,1
303,327,309,321,1
301,320,309,317,1
299,311,309,313,1
297,303,309,310,1
297,296,309,306,1
296,291,309,304,1
296,288,308,301,1
297,287,307,300,1
298,288,307,301,1
300,292,308,305,1
302,297,309,308,1
305,301,311,310,1
307,304,312,311,1
307,305,312,310,1
306,305,312,307,1
305,303,310,303,1
303,300,308,299,1
302,299,306,297,1
301,299,306,299,1
301,299,307,304,1
301,300,309,309,1
302,301,313,313,1
304,303,316,316,1
307,304,318,318,1
308,305,317,318,1
308,304,315,317,1
307,303,314,316,1
307,303,312,314,1
306,304,311,312,1
306,304,310,310,1
306,304,308,310,1
307,306,306,311,1
308,307,304,312,1
310,308,302,312,1
310,308,301,311,1
310,308,301,311,1
311,311,303,311,1
311,316,305,312,1
313,321,308,313,1
314,324,310,313,1
313,326,312,314,1
312,328,314,316,1
310,328,313,318,1
308,328,312,320,1
306,326,311,322,1
305,322,311,322,1
305,318,313,322,1
306,315,313,322,1
307,314,313,321,1
307,314,312,321,1
307,313,312,320,1
307,311,311,320,1
307,307,309,318,1
307,303,308,315,1
307,299,306,313,1
306,298,303,310,1
303,298,300,307,1
300,300,299,303,1
299,303,299,300,1
299,306,300,298,1
301,308,302,296,1
304,308,305,294,1
306,304,307,292,1
307,300,308,290,1
305,296,308,291,1
303,294,308,294,1
302,294,308,299,1
302,297,308,304,1
304,301,308,308,1
305,305,309,311,1
307,308,309,313,1
308,311,308,315,1
308,311,308,317,1
308,310,308,319,1
307,307,307,319,1
304,304,307,319,1
300,301,306,317,1
298,298,304,314,1
299,297,303,312,1
301,297,303,310,1
304,296,303,309,1
306,297,304,308,1
308,298,304,307,1
309,301,304,308,1
310,305,304,310,1
311,309,304,311,1
312,312,304,311,1
313,315,306,311,1
314,315,308,310,1
313,314,309,307,1
311,312,310,305,1
311,310,310,304,1
311,308,310,303,1
310,305,308,301,1
310,304,307,300,1
309,305,306,300,1
310,307,306,300,1
312,308,306,300,1
313,309,306,299,1
313,311,305,299,1
313,314,305,303,1
312,317,304,308,1
313,319,305,314,1
313,321,306,318,1
314,323,306,320,1
315,326,307,321,1
315,327,308,322,1
313,324,307,321,1
309,318,306,319,1
306,309,304,315,1
303,300,302,311,1
301,293,300,309,1
301,289,298,307,1
301,286,297,307,1
302,285,298,307,1
303,283,302,308,1
304,282,306,308,1
304,283,309,307,1
304,284,310,305,1
304,284,310,302,1
303,285,310,298,1
303,285,308,295,1
302,287,307,295,1
303,291,307,296,1
303,297,307,298,1
305,302,308,301,1
306,307,309,303,1
308,311,310,304,1
309,313,309,304,1
310,314,308,304,1
310,315,307,304,1
311,315,306,305,1
311,315,306,306,1
310,316,305,306,1
310,316,304,305,1
309,316,303,302,1
309,314,301,298,1
310,309,299,294,1
312,304,298,290,1
312,300,298,288,1
311,297,296,287,1
308,296,294,288,1
306,296,292,291,1
305,299,291,296,1
305,304,291,299,1
307,309,293,302,1
310,313,295,303,1
312,315,298,304,1
313,315,301,303,1
313,313,303,303,1
310,312,305,304,1
306,309,307,307,1
303,307,309,311,1
302,306,312,315,1
302,305,314,318,1
302,304,315,318,1
302,304,315,315,1
302,304,314,312,1
303,305,314,310,1
306,307,314,309,1
308,309,312,307,1
310,309,310,305,1
311,307,309,303,1
311,305,308,304,1
312,304,310,306,1
313,303,311,310,1
314,302,312,312,1
314,301,312,313,1
314,300,310,312,1
313,299,307,310,1
312,299,304,309,1
312,299,302,307,1
311,299,302,305,1
310,300,302,304,1
308,301,302,301,1
307,304,301,297,1
307,307,300,293,1
306,310,299,288,1
305,312,299,286,1
305,316,299,286,1
306,320,301,290,1
309,323,304,296,1
313,324,307,302,1
315,322,311,308,1
317,318,313,313,1
317,313,315,316,1
319,307,316,318,1
319,303,316,318,1
319,299,314,318,1
317,296,313,317,1
316,293,312,318,1
315,292,312,318,1
315,291,312,317,1
316,290,312,315,1
316,290,311,313,1
316,292,311,311,1
316,293,311,311,1
317,295,312,311,1
317,297,314,311,1
316,300,316,311,1
314,301,316,310,1
313,303,316,308,1
313,304,314,305,1
311,305,312,301,1
310,305,310,296,1
308,305,310,292,1
308,305,309,289,1
308,306,309,288,1
309,307,308,289,1
309,307,307,291,1
308,307,305,293,1
308,308,305,297,1
307,308,304,301,1
306,307,304,304,1
306,306,304,305,1
307,305,304,304,1
307,303,305,303,1
307,303,304,303,1
307,304,304,303,1
308,306,303,304,1
309,309,303,305,1
313,312,305,305,1
318,318,308,306,1
324,326,311,308,1
329,334,314,310,1
332,341,317,313,1
333,346,318,315,1
330,345,317,315,1
325,339,315,314,1
318,328,313,312,1
310,317,312,309,1
303,307,310,306,1
298,300,308,303,1
295,293,304,299,1
293,287,302,294,1
293,282,301,290,1
295,277,301,287,1
297,277,302,288,1
298,280,304,292,1
300,285,305,296,1
301,289,307,300,1
302,291,307,304,1
303,292,307,308,1
303,293,308,312,1
305,293,309,314,1
307,294,310,316,1
308,295,311,315,1
309,297,311,314,1
309,300,310,314,1
309,303,309,313,1
309,305,307,312,1
307,306,305,312,1
305,306,305,311,1
304,305,306,312,1
305,305,307,313,1
308,306,306,313,1
310,307,305,311,1
313,310,305,310,1
315,313,306,309,1
317,315,308,308,1
318,315,310,306,1
317,315,312,306,1
315,314,312,306,1
312,313,312,306,1
309,312,311,306,1
306,310,310,306,1
305,308,308,305,1
305,306,307,305,1
305,304,306,304,1
305,303,305,304,1
305,303,304,303,1
304,303,304,301,1
303,302,303,299,1
303,301,302,297,1
303,301,302,295,1
303,301,302,294,1
304,303,302,295,1
304,304,302,297,1
304,304,302,299,1
304,303,301,300,1
304,303,300,302,1
304,302,300,304,1
305,303,301,305,1
306,305,303,305,1
307,308,305,306,1
308,312,305,306,1
308,315,306,308,1
308,317,306,308,1
307,318,307,309,1
306,318,308,310,1
306,317,309,311,1
306,318,310,312,1
306,318,310,312,1
306,316,308,311,1
306,314,307,309,1
306,311,306,308,1
307,309,306,306,1
307,305,306,305,1
307,302,306,305,1
308,299,307,305,1
309,298,308,304,1
310,297,308,302,1
311,298,309,301,1
311,301,309,301,1
311,304,308,301,1
311,306,307,302,1
311,309,307,304,1
311,310,306,307,1
313,310,306,309,1
315,309,307,311,1
317,307,308,312,1
318,305,309,314,1
318,304,310,315,1
317,301,309,315,1
313,298,308,314,1
308,296,306,312,1
305,296,306,311,1
303,300,306,309,1
304,303,306,307,1
306,307,306,305,1
308,309,306,304,1
312,313,306,303,1
316,314,306,303,1
315,314,306,302,1
312,312,304,302,1
308,309,304,301,1
303,307,303,300,1
299,305,303,300,1
297,303,303,300,1
298,303,304,302,1
299,306,304,305,1
301,309,304,307,1
301,313,304,308,1
303,318,304,309,1
304,321,305,308,1
305,323,306,308,1
306,323,308,307,1
306,322,310,307,1
306,320,311,307,1
307,318,311,307,1
308,316,312,306,1
308,314,310,306,1
309,312,310,306,1
309,310,311,307,1
309,308,312,306,1
309,305,311,304,1
308,301,309,302,1
306,299,307,300,1
304,297,306,299,1
302,295,304,298,1
300,295,304,299,1
299,295,304,300,1
298,295,304,301,1
298,295,303,301,1
298,296,301,300,1
298,296,298,299,1
299,297,297,298,1
300,298,297,296,1
301,301,298,293,1
303,304,300,291,1
304,309,303,290,1
305,312,305,289,1
305,313,306,287,1
305,312,307,286,1
304,308,307,286,1
304,305,308,289,1
304,303,310,294,1
305,304,313,300,1
306,304,314,305,1
307,304,314,308,1
307,305,314,311,1
308,306,312,311,1
308,305,310,309,1
307,304,307,306,1
306,302,306,303,1
305,300,305,299,1
304,298,305,295,1
303,298,306,293,1
303,301,307,294,1
304,307,310,298,1
306,315,312,304,1
307,322,314,309,1
308,326,315,312,1
310,327,314,313,1
313,326,314,313,1
316,325,315,313,1
320,324,316,314,1
324,325,316,316,1
326,327,315,317,1
325,328,313,317,1
321,328,311,316,1
316,327,309,314,1
311,325,306,313,1
306,323,304,312,1
303,319,301,311,1
301,313,300,308,1
299,306,300,305,1
298,299,301,304,1
296,293,302,305,1
295,291,304,308,1
294,289,304,309,1
293,288,304,308,1
292,288,304,305,1
292,289,305,303,1
293,291,306,301,1
294,293,309,301,1
296,296,311,303,1
297,299,312,306,1
299,300,312,310,1
300,301,312,315,1
301,301,311,319,1
302,303,311,324,1
303,305,312,325,1
303,307,312,324,1
303,308,310,321,1
302,309,308,317,1
301,309,306,314,1
300,309,305,312,1
299,309,305,310,1
299,309,305,310,1
300,309,305,309,1
301,310,306,308,1
302,312,307,307,1
302,315,307,305,1
302,316,306,305,1
301,317,305,305,1
301,316,303,306,1
300,313,300,307,1
300,309,298,307,1
300,306,298,307,1
299,303,298,306,1
298,301,299,305,1
298,298,301,304,1
299,296,303,303,1
299,294,305,303,1
301,293,308,302,1
303,292,309,302,1
306,292,309,302,1
308,293,309,304,1
311,294,308,306,1
313,295,307,309,1
314,298,306,312,1
314,300,304,313,1
312,300,303,312,1
309,300,302,310,1
306,300,303,307,1
304,300,303,304,1
304,298,305,301,1
305,298,306,300,1
306,297,306,300,1
308,296,307,301,1
310,296,307,302,1
310,297,307,302,1
310,299,307,303,1
310,303,307,302,1
310,308,307,300,1
311,311,306,296,1
311,313,304,291,1
312,315,303,287,1
315,317,303,287,1
319,321,306,292,1
323,324,309,300,1
324,326,312,307,1
323,325,314,314,1
319,323,314,318,1
315,319,313,318,1
310,314,311,317,1
305,307,309,314,1
301,301,308,311,1
297,296,307,308,1
295,292,306,307,1
294,289,305,307,1
294,286,303,306,1
294,284,302,306,1
295,282,301,306,1
298,283,302,308,1
302,286,304,310,1
307,290,307,311,1
310,296,309,313,1
313,300,309,314,1
314,304,308,314,1
312,305,306,312,1
308,305,304,309,1
304,304,303,305,1
302,302,301,303,1
300,300,299,301,1
299,299,297,300,1
298,299,297,301,1
298,299,298,303,1
299,300,300,304,1
300,301,303,306,1
301,304,307,307,1
302,306,309,309,1
302,309,309,310,1
301,312,309,310,1
301,315,309,311,1
302,319,309,311,1
303,322,310,311,1
304,323,309,312,1
304,322,308,312,1
303,318,307,311,1
302,313,306,310,1
301,309,306,308,1
300,305,307,306,1
299,302,307,304,1
298,300,308,303,1
299,299,308,303,1
300,299,308,304,1
301,298,307,305,1
302,296,308,305,1
301,295,308,306,1
301,294,308,307,1
300,295,308,309,1
300,297,308,309,1
300,299,308,308,1
301,300,308,305,1
301,300,307,301,1
302,300,306,298,1
304,301,305,296,1
305,302,303,294,1
305,302,300,293,1
305,303,299,294,1
304,304,298,295,1
304,305,297,295,1
304,308,297,295,1
303,313,296,297,1
303,319,297,299,1
304,324,298,301,1
305,327,300,304,1
307,327,303,305,1
309,326,304,305,1
310,324,307,306,1
312,322,309,307,1
313,319,311,308,1
312,315,313,309,1
310,311,313,311,1
308,308,313,312,1
306,306,314,313,1
306,304,314,314,1
307,302,314,313,1
307,302,314,311,1
308,303,313,309,1
307,306,312,308,1
306,308,310,308,1
303,309,309,308,1
301,309,307,308,1
299,306,304,306,1
297,301,300,304,1
296,297,297,302,1
295,294,295,300,1
295,293,296,298,1
296,292,299,298,1
296,294,303,300,1
298,296,305,302,1
299,298,306,304,1
302,299,306,305,1
303,300,306,305,1
304,302,307,305,1
305,306,311,304,1
307,311,315,304,1
309,315,316,303,1
311,320,314,303,1
313,322,312,303,1
315,322,310,303,1
316,320,308,303,1
318,317,309,304,1
320,316,310,307,1
321,316,311,309,1
318,315,311,311,1
313,312,310,312,1
307,309,310,314,1
303,306,309,316,1
300,306,310,317,1
299,306,310,318,1
299,309,310,318,1
300,312,311,317,1
302,315,311,315,1
304,316,311,313,1
306,317,310,311,1
308,316,309,310,1
308,316,308,308,1
308,313,305,306,1
308,310,303,303,1
307,306,300,301,1
307,304,299,298,1
308,301,299,296,1
308,297,299,294,1
309,294,299,296,1
310,294,301,300,1
311,296,303,306,1
312,299,306,310,1
311,302,306,312,1
310,306,306,312,1
308,310,305,310,1
305,311,303,307,1
302,311,301,304,1
298,310,300,304,1
297,311,299,305,1
297,313,300,308,1
299,314,302,310,1
301,314,304,309,1
304,314,306,308,1
307,314,308,309,1
309,314,310,311,1
311,314,312,313,1
312,315,314,316,1
313,315,315,319,1
313,315,314,320,1
314,314,313,319,1
315,312,311,317,1
314,310,308,315,1
313,308,306,313,1
312,305,305,309,1
310,303,304,307,1
307,303,305,306,1
304,303,305,305,1
303,305,306,304,1
303,307,305,304,1
304,311,305,306,1
305,317,305,309,1
306,321,305,311,1
308,324,304,312,1
308,323,304,312,1
308,320,305,310,1
308,315,306,307,1
308,310,307,303,1
308,307,308,302,1
308,305,309,301,1
309,302,308,302,1
310,298,308,303,1
310,294,308,306,1
310,294,308,310,1
310,296,308,314,1
309,299,308,316,1
308,303,308,317,1
306,307,308,318,1
307,311,307,319,1
307,314,307,318,1
306,314,305,315,1
305,312,302,312,1
303,309,299,307,1
301,305,297,304,1
299,302,296,302,1
299,303,297,302,1
301,307,299,304,1
304,312,300,305,1
308,318,302,306,1
312,323,303,306,1
315,325,303,306,1
316,322,302,305,1
313,316,301,306,1
309,308,301,310,1
306,303,302,316,1
304,302,303,322,1
304,304,304,326,1
304,306,303,328,1
306,306,303,327,1
308,306,303,326,1
310,305,304,325,1
312,303,304,323,1
314,301,305,321,1
314,300,305,318,1
313,300,306,315,1
310,301,307,312,1
306,301,307,308,1
302,301,306,304,1
299,300,306,301,1
298,298,305,299,1
298,296,305,299,1
300,294,305,301,1
301,293,304,305,1
302,292,303,308,1
302,290,302,309,1
302,289,301,310,1
301,287,301,309,1
301,287,301,307,1
302,288,301,305,1
304,291,300,304,1
305,296,300,304,1
306,303,300,304,1
308,310,301,305,1
310,316,304,307,1
310,319,307,309,1
309,318,310,311,1
308,314,311,310,1
306,306,312,308,1
305,298,311,304,1
304,291,311,300,1
305,287,311,298,1
306,285,310,298,1
308,284,309,300,1
309,285,308,303,1
311,287,308,307,1
312,291,309,311,1
312,294,310,313,1
311,296,312,315,1
309,298,312,314,1
308,298,311,314,1
305,298,309,312,1
303,298,307,309,1
303,298,306,305,1
304,297,305,301,1
305,297,304,297,1
306,297,303,295,1
306,298,303,296,1
307,300,303,298,1
308,300,304,300,1
308,299,306,304,1
310,299,308,309,1
311,300,310,315,1
313,303,311,320,1
315,308,312,325,1
316,311,312,329,1
315,313,310,330,1
313,314,309,329,1
310,313,307,325,1
305,310,305,319,1
302,308,303,315,1
300,305,302,312,1
300,302,301,310,1
301,299,302,308,1
302,298,303,306,1
303,298,304,306,1
305,300,306,305,1
306,304,307,306,1
307,309,309,308,1
307,315,310,310,1
308,320,311,312,1
309,324,311,315,1
310,326,311,316,1
310,325,310,316,1
310,322,308,316,1
308,319,306,315,1
307,317,305,314,1
308,318,306,312,1
310,321,307,309,1
313,325,309,307,1
315,331,310,305,1
317,338,310,305,1
318,346,308,304,1
317,351,305,304,1
313,351,303,305,1
310,345,302,306,1
309,336,303,309,1
308,326,305,312,1
309,313,307,314,1
307,298,307,313,1
305,284,306,313,1
304,276,306,313,1
305,272,306,313,1
306,271,306,313,1
307,273,305,313,1
308,277,302,313,1
306,281,299,311,1
304,283,296,310,1
302,286,294,309,1
301,288,293,309,1
300,290,293,309,1
300,293,292,311,1
299,295,293,312,1
300,298,294,312,1
300,300,296,311,1
300,303,297,309,1
300,306,298,308,1
300,309,300,308,1
301,311,300,310,1
303,313,301,312,1
305,316,300,315,1
308,317,300,317,1
309,315,300,317,1
310,311,301,316,1
310,307,303,315,1
310,303,304,313,1
309,300,305,313,1
309,300,306,312,1
307,300,305,313,1
305,300,304,312,1
304,300,302,312,1
304,302,301,312,1
304,303,300,312,1
304,304,301,311,1
305,303,303,311,1
307,304,304,311,1
308,304,304,312,1
309,304,304,312,1
310,305,306,312,1
311,305,307,312,1
312,306,307,311,1
312,306,307,310,1
311,306,306,309,1
310,307,304,308,1
309,309,303,307,1
308,310,302,306,1
306,312,301,305,1
305,312,300,305,1
305,312,298,305,1
305,312,297,306,1
306,311,297,306,1
306,310,297,304,1
306,309,297,301,1
307,308,298,298,1
307,306,301,296,1
307,305,304,296,1
306,304,307,298,1
305,304,309,300,1
304,303,310,302,1
304,304,309,303,1
305,306,308,307,1
307,310,307,311,1
308,314,307,315,1
310,319,306,316,1
310,321,304,316,1
310,324,302,315,1
309,324,300,313,1
307,321,298,310,1
305,315,297,305,1
304,308,296,299,1
305,302,296,295,1
307,300,299,294,1
310,301,302,296,1
313,303,306,299,1
315,304,308,302,1
315,304,308,305,1
314,304,309,308,1
311,304,308,309,1
308,304,308,309,1
304,303,307,308,1
301,302,306,307,1
299,301,304,305,1
299,300,304,304,1
300,300,305,303,1
301,300,305,301,1
302,301,304,298,1
303,302,303,297,1
303,303,301,296,1
303,303,300,297,1
303,304,300,298,1
303,306,300,300,1
304,311,301,303,1
303,315,301,307,1
303,319,301,309,1
301,321,301,309,1
300,319,300,308,1
299,315,300,308,1
299,311,301,309,1
300,309,302,312,1
301,308,305,313,1
301,309,306,313,1
301,310,307,311,1
301,312,307,309,1
303,314,309,309,1
305,316,310,308,1
308,318,312,308,1
310,319,313,309,1
314,321,314,312,1
317,322,315,315,1
319,323,316,317,1
318,321,315,316,1
316,318,314,314,1
314,314,313,310,1
312,313,313,307,1
311,312,313,306,1
310,311,313,305,1
311,309,313,305,1
312,307,312,306,1
313,306,312,309,1
314,305,312,311,1
314,304,311,312,1
312,303,310,312,1
309,302,308,312,1
306,303,307,309,1
304,304,305,306,1
302,304,304,301,1
300,304,301,295,1
300,303,300,288,1
300,302,298,282,1
302,301,298,276,1
304,299,297,272,1
305,297,297,269,1
306,298,298,269,1
307,301,299,272,1
308,303,299,276,1
309,305,298,283,1
310,308,299,294,1
312,311,300,307,1
314,314,302,318,1
317,316,304,327,1
319,320,307,333,1
322,324,309,335,1
324,328,311,334,1
324,332,310,331,1
324,335,309,325,1
321,331,307,319,1
317,323,304,314,1
312,314,303,313,1
309,308,303,313,1
307,305,303,315,1
305,306,304,317,1
304,311,305,317,1
303,317,307,317,1
302,321,307,315,1
301,323,308,313,1
300,321,307,309,1
299,315,306,305,1
298,308,305,303,1
298,302,305,300,1
298,298,305,300,1
299,296,304,300,1
301,295,305,300,1
302,295,305,300,1
303,296,306,302,1
303,297,307,304,1
304,299,308,307,1
304,301,308,309,1
304,303,307,310,1
303,303,304,310,1
301,302,301,308,1
300,300,299,307,1
298,298,297,307,1
297,298,297,307,1
297,299,298,308,1
297,299,298,308,1
297,299,298,306,1
297,299,297,304,1
296,300,297,302,1
295,301,299,301,1
295,303,303,301,1
296,304,308,301,1
297,305,313,300,1
299,304,316,301,1
303,305,318,304,1
305,307,319,307,1
305,308,318,309,1
305,309,317,311,1
307,312,317,312,1
309,316,316,314,1
312,320,317,315,1
315,322,317,317,1
316,324,316,318,1
315,322,315,318,1
314,319,313,316,1
312,314,311,314,1
312,309,310,311,1
311,305,308,308,1
310,303,307,306,1
308,302,304,303,1
305,302,302,301,1
303,301,299,299,1
301,301,297,299,1
300,301,297,300,1
301,303,298,304,1
303,305,300,309,1
304,307,303,312,1
303,306,305,313,1
301,305,307,311,1
299,304,308,310,1
298,305,309,310,1
298,310,310,310,1
300,315,309,311,1
302,318,309,310,1
303,319,308,311,1
303,319,307,311,1
303,317,305,310,1
303,314,303,307,1
304,311,301,304,1
304,309,300,299,1
303,308,298,295,1
302,306,298,291,1
303,305,299,288,1
305,308,300,289,1
308,311,303,293,1
310,315,305,298,1
311,318,306,303,1
311,319,309,309,1
309,320,312,313,1
308,320,313,316,1
305,318,313,316,1
303,314,313,315,1
301,307,311,312,1
300,301,308,308,1
299,294,305,304,1
299,288,302,302,1
298,285,299,302,1
298,283,297,303,1
297,284,296,304,1
296,286,296,305,1
296,289,299,307,1
298,295,301,309,1
300,300,304,311,1
302,306,305,311,1
303,312,306,312,1
304,318,307,314,1
303,322,308,317,1
301,324,310,319,1
299,323,311,320,1
298,320,313,319,1
298,317,314,318,1
300,313,314,316,1
301,307,313,315,1
301,301,311,313,1
301,295,308,313,1
299,291,306,314,1
299,289,306,317,1
299,291,307,318,1
301,294,308,318,1
304,298,309,317,1
308,301,310,315,1
311,303,311,313,1
312,303,310,310,1
313,301,308,306,1
311,299,306,303,1
308,298,306,303,1
307,298,306,305,1
307,300,306,306,1
309,303,307,308,1
311,306,307,309,1
313,309,306,310,1
315,311,306,310,1
317,313,306,309,1
316,312,306,307,1
311,310,304,304,1
305,307,302,302,1
301,304,302,301,1
298,302,302,304,1
297,302,302,308,1
296,302,304,313,1
296,303,305,316,1
297,303,306,317,1
298,304,308,317,1
299,305,309,316,1
301,307,310,316,1
303,308,311,314,1
305,308,310,313,1
306,308,308,311,1
306,308,307,310,1
306,311,305,309,1
306,314,305,309,1
306,315,305,307,1
305,314,305,305,1
305,312,305,304,1
305,312,304,304,1
306,312,304,303,1
307,312,303,304,1
307,313,303,304,1
309,311,303,304,1
309,308,303,302,1
310,304,300,300,1
309,300,297,298,1
308,299,295,295,1
306,299,295,292,1
305,300,297,291,1
304,303,300,291,1
304,307,303,293,1
305,311,306,296,1
305,315,309,301,1
306,317,311,305,1
305,317,313,308,1
306,315,313,310,1
305,313,314,311,1
305,311,314,313,1
305,310,315,315,1
306,312,316,317,1
306,313,316,319,1
307,314,316,320,1
307,312,316,320,1
307,310,315,319,1
307,309,314,317,1
306,309,314,315,1
305,311,313,312,1
304,314,311,308,1
303,318,308,304,1
302,320,305,302,1
301,320,304,301,1
301,318,306,302,1
301,311,309,302,1
300,302,313,301,1
301,293,314,300,1
300,287,314,300,1
300,284,313,300,1
299,283,311,300,1
298,282,309,299,1
297,283,308,299,1
298,286,309,302,1
299,290,310,306,1
299,295,310,310,1
300,300,309,313,1
302,303,309,317,1
303,306,310,319,1
306,308,310,321,1
309,309,311,322,1
313,311,312,322,1
316,311,312,320,1
319,311,312,317,1
321,311,311,314,1
320,310,310,311,1
317,308,310,311,1
313,308,310,310,1
308,307,310,309,1
303,306,310,308,1
298,305,310,307,1
295,306,309,306,1
293,309,309,306,1
293,313,309,305,1
295,318,309,304,1
297,321,310,304,1
300,321,310,304,1
303,320,310,305,1
306,316,311,306,1
308,312,311,307,1
309,307,310,306,1
309,303,309,306,1
308,300,308,305,1
307,296,308,304,1
307,293,307,302,1
307,290,306,299,1
307,288,305,296,1
308,289,306,294,1
307,291,307,293,1
306,295,307,294,1
305,299,307,297,1
305,301,307,300,1
304,302,307,302,1
303,301,305,303,1
304,300,304,303,1
305,298,301,302,1
305,296,299,301,1
306,297,298,301,1
306,300,300,302,1
306,306,303,302,1
306,312,306,302,1
306,317,310,302,1
306,320,313,303,1
305,319,313,303,1
304,314,310,303,1
302,307,308,303,1
301,301,305,305,1
299,296,303,306,1
297,292,302,306,1
297,290,304,307,1
298,290,307,308,1
300,291,310,310,1
302,293,312,312,1
305,296,313,313,1
308,301,313,313,1
309,306,312,310,1
308,310,310,307,1
305,314,308,302,1
303,317,305,298,1
301,320,304,293,1
300,320,302,291,1
299,317,302,291,1
300,311,303,295,1
301,307,305,301,1
303,303,307,307,1
305,300,309,311,1
306,299,310,316,1
306,300,311,319,1
307,304,311,320,1
307,307,310,320,1
308,308,308,319,1
308,306,307,318,1
309,302,307,317,1
309,299,307,315,1
310,297,309,314,1
310,296,311,315,1
309,296,312,315,1
307,295,312,314,1
306,294,312,310,1
306,292,311,305,1
304,293,310,301,1
303,296,310,297,1
302,298,309,295,1
301,301,309,294,1
299,303,309,295,1
297,305,309,296,1
295,306,308,297,1
294,308,306,298,1
293,307,304,299,1
293,306,304,298,1
294,305,304,297,1
296,304,305,296,1
298,306,306,296,1
300,308,308,296,1
303,309,309,297,1
303,310,311,301,1
303,312,312,307,1
303,315,312,315,1
304,318,311,321,1
304,318,311,324,1
304,317,310,325,1
305,314,309,323,1
305,312,308,320,1
306,310,309,318,1
307,311,311,316,1
307,314,313,315,1
306,318,314,314,1
305,321,314,313,1
304,324,313,313,1
303,325,312,313,1
302,323,310,311,1
302,319,309,308,1
303,315,308,305,1
304,312,307,303,1
307,309,306,300,1
308,305,304,296,1
307,300,302,291,1
306,296,301,288,1
305,293,300,286,1
301,290,300,287,1
300,289,300,292,1
299,291,302,300,1
300,295,303,309,1
302,297,305,318,1
304,298,308,323,1
307,297,311,327,1
310,297,313,327,1
311,298,314,325,1
313,301,315,324,1
314,306,315,322,1
314,312,315,320,1
313,314,312,317,1
310,311,309,314,1
308,304,305,310,1
305,297,301,306,1
302,292,298,303,1
300,291,296,301,1
299,293,297,301,1
300,296,300,302,1
300,298,302,302,1
300,299,304,302,1
299,300,305,302,1
299,301,305,302,1
299,304,305,303,1
301,309,308,306,1
305,315,311,311,1
309,320,314,316,1
311,323,316,319,1
312,323,316,321,1
312,320,316,322,1
312,314,314,321,1
310,307,313,321,1
309,301,311,322,1
308,298,310,322,1
308,297,308,323,1
307,297,306,321,1
306,297,304,318,1
304,297,304,314,1
304,296,304,311,1
303,296,305,308,1
303,296,305,306,1
303,298,305,303,1
304,300,305,301,1
304,303,304,299,1
305,307,305,297,1
306,312,305,296,1
307,319,308,296,1
308,325,310,298,1
309,328,312,300,1
309,329,314,301,1
308,328,315,304,1
307,325,316,308,1
305,319,316,313,1
303,312,315,315,1
301,304,314,315,1
300,298,313,314,1
300,294,313,313,1
301,292,314,312,1
302,292,314,312,1
305,293,315,312,1
307,294,316,312,1
310,296,315,310,1
311,298,314,307,1
312,300,313,304,1
312,302,313,301,1
312,303,313,300,1
311,304,312,302,1
311,305,312,304,1
312,308,313,307,1
313,312,314,309,1
314,315,315,311,1
313,318,315,313,1
311,319,314,313,1
309,318,313,313,1
307,314,311,312,1
306,310,309,311,1
306,306,309,310,1
307,305,310,309,1
310,306,311,307,1
314,307,312,305,1
317,307,313,302,1
318,306,312,300,1
318,306,311,297,1
319,306,310,295,1
317,307,308,294,1
314,309,307,295,1
310,311,306,297,1
307,311,306,300,1
305,311,307,301,1
304,311,307,302,1
302,311,308,303,1
301,309,307,303,1
301,307,307,304,1
301,304,305,305,1
301,302,304,306,1
301,300,302,306,1
301,299,301,306,1
301,300,299,305,1
301,301,297,305,1
302,302,296,305,1
304,302,297,304,1
306,303,298,303,1
308,303,300,302,1
309,304,303,302,1
310,305,306,303,1
309,306,309,305,1
309,306,311,307,1
307,305,312,309,1
307,304,312,311,1
307,307,312,313,1
307,311,311,315,1
307,316,310,316,1
307,323,309,315,1
306,330,308,315,1
306,337,308,315,1
306,343,309,314,1
305,345,309,313,1
305,343,310,311,1
304,336,310,306,1
304,324,310,301,1
304,310,310,297,1
305,298,310,295,1
305,290,310,295,1
306,287,310,297,1
307,288,310,299,1
308,291,310,301,1
308,295,310,304,1
307,299,310,307,1
307,301,310,309,1
308,302,309,309,1
310,303,307,308,1
312,303,307,306,1
313,304,306,305,1
312,304,305,305,1
309,304,305,305,1
306,304,305,307,1
304,305,306,310,1
304,306,309,312,1
305,307,310,313,1
306,308,310,312,1
306,306,309,309,1
305,302,307,305,1
302,298,304,300,1
299,293,302,295,1
297,291,299,291,1
297,292,298,291,1
298,294,297,292,1
300,297,298,295,1
303,301,299,298,1
306,307,301,302,1
309,311,302,306,1
312,314,304,310,1
314,312,304,314,1
314,307,304,314,1
313,301,304,313,1
312,296,303,311,1
312,295,302,310,1
314,296,301,311,1
314,300,299,313,1
313,304,298,314,1
313,307,298,315,1
311,308,298,315,1
307,306,299,315,1
302,303,299,314,1
299,299,300,313,1
299,298,302,313,1
300,298,303,312,1
301,299,304,310,1
303,300,303,309,1
304,301,302,307,1
305,302,300,305,1
304,302,299,304,1
302,303,297,303,1
300,304,294,302,1
299,305,293,302,1
299,305,293,302,1
299,304,294,302,1
301,302,296,301,1
302,303,296,300,1
303,306,295,300,1
304,314,294,301,1
304,324,294,304,1
303,333,295,306,1
302,340,298,308,1
303,339,301,309,1
304,332,304,309,1
305,318,304,308,1
305,305,304,306,1
305,295,304,305,1
305,290,304,304,1
305,289,303,303,1
306,291,303,303,1
308,293,304,305,1
310,296,305,308,1
310,300,304,313,1
311,304,304,316,1
310,307,304,318,1
309,309,304,319,1
308,311,304,318,1
307,311,305,318,1
306,310,306,319,1
306,308,307,320,1
306,307,307,322,1
307,308,307,323,1
307,312,307,323,1
308,315,305,321,1
307,319,302,318,1
306,320,301,315,1
305,319,301,311,1
303,316,300,305,1
300,311,298,299,1
298,305,296,293,1
297,299,295,289,1
299,295,296,289,1
301,293,299,292,1
305,293,302,297,1
307,294,305,303,1
308,296,308,310,1
308,298,310,316,1
308,300,310,321,1
308,302,310,324,1
307,303,309,325,1
307,304,309,325,1
307,305,308,325,1
307,306,308,327,1
309,308,307,327,1
311,309,307,327,1
313,310,307,327,1
315,311,308,327,1
316,311,308,326,1
317,311,307,325,1
315,309,306,323,1
313,306,305,320,1
311,304,303,317,1
310,303,300,315,1
309,301,298,312,1
308,300,297,308,1
309,300,296,304,1
310,300,295,301,1
311,301,296,301,1
310,303,296,301,1
306,304,295,301,1
302,303,294,300,1
299,303,294,299,1
297,304,296,300,1
298,305,299,301,1
299,306,302,304,1
300,307,304,306,1
301,306,305,308,1
301,306,306,309,1
300,306,305,308,1
300,306,306,306,1
299,307,307,304,1
298,308,308,303,1
298,312,310,303,1
299,316,311,303,1
301,322,310,303,1
302,326,309,302,1
304,329,308,302,1
308,331,309,302,1
310,328,309,302,1
311,322,308,300,1
310,314,307,298,1
308,307,306,297,1
304,302,303,296,1
301,297,301,295,1
299,293,299,294,1
297,291,298,295,1
297,291,299,297,1
298,293,301,299,1
298,295,302,301,1
298,297,303,301,1
297,300,304,300,1
297,302,304,297,1
297,305,303,294,1
299,308,303,293,1
302,311,303,294,1
304,310,303,296,1
307,308,303,301,1
308,307,302,307,1
308,306,301,312,1
306,306,300,315,1
305,307,301,316,1
305,308,304,316,1
306,308,306,315,1
308,308,309,314,1
310,305,311,312,1
311,302,312,309,1
310,297,312,308,1
308,294,312,308,1
305,290,311,309,1
304,289,309,311,1
304,290,309,313,1
306,292,310,315,1
307,294,311,317,1
308,297,311,318,1
308,299,311,319,1
308,302,309,319,1
307,302,309,318,1
307,301,307,315,1
308,299,307,313,1
307,297,307,310,1
306,296,307,308,1
305,296,306,307,1
304,296,306,307,1
303,297,305,305,1
303,298,304,304,1
304,300,304,302,1
306,301,303,300,1
307,303,303,298,1
308,305,304,298,1
309,308,305,299,1
311,310,306,300,1
311,312,307,301,1
312,313,307,302,1
312,314,307,302,1
311,315,307,303,1
309,313,307,304,1
306,312,306,306,1
304,310,306,309,1
302,308,306,312,1
301,306,307,313,1
302,306,309,314,1
305,309,309,314,1
308,312,309,314,1
311,314,308,313,1
313,314,307,311,1
313,312,307,309,1
312,310,307,306,1
309,308,307,304,1
306,307,307,301,1
305,307,306,300,1
305,307,307,300,1
305,309,307,300,1
305,312,305,301,1
305,315,303,302,1
303,318,300,304,1
302,321,298,306,1
301,321,298,308,1
301,319,300,309,1
302,314,303,308,1
302,307,306,307,1
303,304,309,306,1
303,304,310,306,1
304,306,309,307,1
304,309,308,307,1
303,312,306,306,1
304,314,305,307,1
304,316,305,309,1
303,316,306,311,1
302,314,306,312,1
301,310,306,314,1
302,308,306,315,1
302,305,306,315,1
302,302,304,313,1
300,296,303,311,1
300,290,302,308,1
302,285,302,308,1
304,282,303,307,1
308,281,304,309,1
311,283,306,311,1
314,286,309,316,1
316,290,311,320,1
318,293,313,324,1
320,296,315,327,1
321,297,315,328,1
320,299,315,328,1
318,300,312,326,1
314,301,310,322,1
311,303,307,317,1
307,305,306,313,1
303,309,305,310,1
301,313,305,307,1
299,316,305,304,1
300,317,307,303,1
301,318,309,302,1
303,316,310,302,1
305,314,311,302,1
307,312,311,304,1
307,310,311,305,1
307,310,311,307,1
307,311,312,310,1
308,315,314,314,1
309,319,315,318,1
309,320,315,320,1
307,317,314,320,1
305,313,313,320,1
303,307,311,318,1
302,301,310,317,1
302,297,309,315,1
303,295,309,314,1
304,295,308,314,1
305,297,308,314,1
308,299,308,315,1
309,302,309,317,1
310,304,309,318,1
310,305,310,318,1
311,306,311,318,1
311,305,311,317,1
312,304,311,316,1
313,303,312,314,1
314,303,310,313,1
315,303,308,311,1
317,304,305,311,1
317,306,303,311,1
317,308,302,313,1
315,308,302,315,1
311,306,303,316,1
306,303,303,317,1
302,304,304,318,1
298,307,304,320,1
297,314,304,321,1
296,321,303,322,1
295,325,302,321,1
296,327,303,320,1
297,326,304,318,1
297,321,304,316,1
298,313,304,314,1
297,303,303,311,1
296,295,303,309,1
296,290,303,308,1
296,288,305,308,1
297,287,306,307,1
298,288,307,306,1
298,288,307,305,1
298,289,308,304,1
298,290,307,304,1
299,293,307,306,1
300,296,308,309,1
302,299,308,312,1
302,302,307,313,1
302,303,306,313,1
301,302,304,312,1
301,301,304,310,1
302,300,304,310,1
305,300,307,310,1
307,301,308,311,1
309,304,309,312,1
310,307,309,313,1
312,312,310,314,1
313,316,311,314,1
313,319,311,313,1
313,321,310,313,1
312,322,308,314,1
312,323,307,314,1
311,323,305,313,1
308,320,302,311,1
306,317,300,309,1
304,313,300,308,1
304,312,301,310,1
305,312,303,313,1
306,312,304,315,1
305,310,305,315,1
304,305,305,315,1
304,300,305,314,1
304,295,304,312,1
304,291,302,309,1
304,289,301,308,1
305,288,300,307,1
306,287,300,305,1
306,288,300,302,1
306,290,301,300,1
306,294,301,298,1
307,299,301,297,1
307,303,300,295,1
308,306,300,294,1
310,308,300,293,1
311,310,300,291,1
310,311,300,290,1
309,312,299,288,1
307,311,299,286,1
306,311,298,285,1
305,310,299,287,1
306,311,301,291,1
307,310,303,297,1
309,311,304,304,1
313,312,304,309,1
315,314,303,312,1
317,315,302,315,1
319,315,303,317,1
319,315,305,318,1
318,314,307,317,1
315,313,309,315,1
313,311,310,314,1
311,311,310,312,1
311,311,309,309,1
311,309,307,305,1
312,309,306,300,1
313,309,307,297,1
313,309,307,295,1
312,309,308,295,1
310,308,310,297,1
306,307,311,300,1
301,305,311,302,1
297,304,309,302,1
295,305,307,302,1
295,309,305,302,1
297,314,304,302,1
300,318,302,302,1
301,321,301,300,1
303,322,300,298,1
304,320,300,298,1
305,315,300,299,1
305,309,301,302,1
305,304,302,304,1
305,300,302,305,1
306,298,303,305,1
307,298,303,306,1
309,302,303,309,1
310,305,302,313,1
311,309,302,316,1
311,310,301,319,1
310,308,302,320,1
308,305,304,320,1
306,303,307,320,1
305,302,310,318,1
305,302,312,317,1
305,303,312,315,1
303,303,312,311,1
302,302,310,309,1
301,300,309,307,1
301,300,308,308,1
302,302,307,310,1
303,303,304,310,1
303,303,302,308,1
303,304,299,305,1
303,304,298,302,1
302,305,298,300,1
302,308,299,299,1
304,313,302,300,1
305,318,305,302,1
306,322,308,306,1
307,324,309,309,1
307,324,311,311,1
307,323,312,313,1
307,325,313,315,1
307,327,314,319,1
308,328,315,323,1
310,327,316,326,1
312,323,316,328,1
313,316,314,328,1
313,308,311,326,1
311,302,307,323,1
308,297,303,318,1
306,294,301,313,1
305,292,300,310,1
305,293,300,309,1
305,296,302,312,1
306,301,305,316,1
307,305,307,320,1
307,307,308,322,1
307,309,309,322,1
306,310,310,321,1
305,310,309,319,1
305,309,308,316,1
304,308,308,312,1
303,307,307,309,1
302,305,304,304,1
300,303,301,302,1
301,303,300,301,1
301,303,299,301,1
303,304,300,301,1
304,304,302,301,1
304,305,303,301,1
305,306,305,301,1
305,308,306,301,1
305,310,306,301,1
305,311,308,302,1
305,311,309,303,1
304,309,309,304,1
303,307,308,303,1
302,305,307,303,1
302,305,306,304,1
302,306,306,306,1
302,310,307,310,1
303,314,308,314,1
303,319,308,317,1
303,325,309,320,1
304,330,310,322,1
305,332,310,323,1
305,332,310,321,1
305,330,309,318,1
306,323,307,314,1
306,312,305,311,1
306,301,304,308,1
306,292,303,306,1
308,286,302,304,1
308,282,301,299,1
307,280,300,295,1
307,280,299,290,1
307,283,300,287,1
308,288,302,287,1
309,292,303,289,1
310,296,304,294,1
310,300,306,298,1
310,303,307,302,1
309,305,308,303,1
307,306,308,305,1
304,306,308,306,1
302,306,307,307,1
299,306,305,306,1
297,306,303,305,1
295,306,302,305,1
294,306,303,306,1
295,304,304,310,1
297,305,306,315,1
300,307,308,320,1
303,311,310,324,1
305,316,311,326,1
307,320,310,326,1
307,324,308,326,1
308,326,306,325,1
310,327,306,325,1
311,327,306,325,1
312,324,306,324,1
312,320,305,322,1
311,312,304,318,1
308,305,301,314,1
306,299,299,311,1
305,295,299,310,1
305,293,300,309,1
307,292,300,308,1
307,290,301,307,1
307,290,303,309,1
309,291,306,312,1
312,293,308,314,1
313,296,310,316,1
313,298,311,317,1
311,301,311,316,1
311,305,311,315,1
311,309,312,314,1
311,313,312,313,1
310,314,312,311,1
309,315,310,309,1
307,315,308,307,1
307,316,307,305,1
308,318,306,304,1
309,319,305,302,1
310,320,305,303,1
311,319,306,305,1
310,318,306,308,1
308,314,306,309,1
306,310,305,310,1
304,304,305,310,1
304,299,305,308,1
302,294,304,305,1
301,291,302,302,1
301,291,302,300,1
300,294,302,298,1
299,298,301,298,1
299,303,301,298,1
299,306,301,298,1
300,307,301,299,1
300,304,300,301,1
300,298,300,302,1
300,290,300,302,1
300,283,299,302,1
301,279,300,302,1
303,278,304,302,1
306,280,307,303,1
308,283,310,305,1
309,288,311,308,1
310,293,312,312,1
311,297,312,316,1
311,300,313,317,1
312,303,312,318,1
312,305,311,317,1
311,307,310,316,1
309,308,309,315,1
309,308,310,314,1
308,307,311,312,1
308,307,313,312,1
309,306,314,311,1
310,306,314,310,1
310,305,314,310,1
308,304,312,310,1
306,304,310,309,1
304,305,308,308,1
302,307,306,306,1
303,310,305,305,1
307,313,305,306,1
311,315,305,306,1
315,316,305,306,1
318,315,304,304,1
318,315,303,302,1
317,314,302,299,1
314,312,302,295,1
310,310,302,293,1
307,307,304,292,1
305,304,306,294,1
304,301,308,297,1
302,297,308,300,1
299,295,307,302,1
298,294,304,303,1
297,294,302,304,1
297,295,301,304,1
298,297,302,304,1
300,299,306,305,1
303,302,310,306,1
305,305,313,308,1
307,308,315,308,1
309,311,317,307,1
311,313,317,306,1
313,315,317,304,1
315,317,317,303,1
316,319,316,302,1
316,321,315,301,1
317,324,315,301,1
317,325,314,300,1
315,322,313,299,1
312,318,313,298,1
310,313,313,299,1
309,308,313,300,1
308,304,313,301,1
309,301,312,303,1
307,298,311,304,1
306,294,310,306,1
304,292,309,308,1
303,292,309,311,1
302,292,309,312,1
301,293,309,311,1
301,295,309,310,1
302,297,309,309,1
302,299,309,308,1
302,300,309,306,1
303,300,310,305,1
305,299,311,304,1
307,299,313,305,1
308,300,314,306,1
309,301,314,306,1
308,301,313,305,1
307,302,311,304,1
306,301,308,303,1
306,302,306,303,1
307,304,306,304,1
309,309,308,306,1
311,315,310,309,1
312,320,311,310,1
310,324,312,309,1
308,326,312,307,1
307,327,312,305,1
306,327,312,304,1
307,325,312,304,1
307,320,311,304,1
308,315,311,305,1
309,309,311,304,1
308,302,310,303,1
307,297,309,302,1
306,294,309,301,1
306,293,309,302,1
307,294,311,303,1
308,296,311,303,1
307,298,310,301,1
304,298,307,298,1
300,298,305,297,1
297,298,305,297,1
295,299,305,297,1
296,300,307,300,1
298,303,310,304,1
300,308,313,308,1
302,313,315,312,1
304,317,316,314,1
304,318,317,315,1
305,319,317,314,1
307,318,316,312,1
310,315,315,309,1
313,313,314,305,1
315,312,312,301,1
316,309,310,299,1
316,307,308,297,1
314,303,307,297,1
310,300,305,296,1
304,297,301,297,1
299,296,300,298,1
296,295,299,298,1
294,295,299,298,1
294,294,299,298,1
295,294,301,297,1
297,292,303,296,1
298,291,304,294,1
299,289,304,293,1
300,288,305,291,1
302,288,306,291,1
303,289,307,290,1
303,292,307,291,1
304,296,308,294,1
305,300,309,297,1
305,304,309,299,1
305,306,310,301,1
304,307,309,302,1
303,308,308,304,1
302,310,308,306,1
301,312,309,310,1
301,314,309,314,1
300,315,308,317,1
300,314,306,317,1
299,313,303,316,1
299,311,302,313,1
299,310,302,310,1
300,310,305,307,1
301,311,309,305,1
303,311,313,305,1
305,311,316,306,1
307,310,317,308,1
308,310,317,310,1
309,310,316,312,1
308,312,315,313,1
307,316,313,313,1
306,321,312,312,1
306,325,312,311,1
307,329,312,311,1
308,331,312,312,1
309,331,313,313,1
311,326,313,312,1
313,319,313,311,1
314,311,312,307,1
314,306,312,304,1
313,304,312,301,1
311,304,311,299,1
309,303,310,297,1
307,304,310,299,1
307,302,309,302,1
306,300,309,305,1
306,297,310,309,1
307,296,310,311,1
307,297,310,311,1
305,297,309,309,1
302,299,307,306,1
299,299,305,303,1
298,298,304,301,1
297,297,305,299,1
296,297,306,298,1
297,298,307,299,1
298,300,307,302,1
298,302,307,306,1
299,305,308,309,1
301,307,308,313,1
305,308,308,314,1
308,309,308,316,1
311,309,308,317,1
315,309,308,318,1
317,310,309,318,1
317,310,310,317,1
315,310,311,315,1
311,309,311,311,1
306,308,309,307,1
303,308,307,302,1
301,309,306,298,1
299,311,304,295,1
298,312,303,293,1
298,314,303,292,1
298,317,302,293,1
298,320,303,297,1
299,322,303,302,1
299,323,302,308,1
300,322,302,313,1
301,319,303,317,1
302,316,304,319,1
301,312,305,319,1
301,308,305,318,1
299,303,306,317,1
299,301,307,317,1
300,300,308,316,1
301,299,309,315,1
302,299,310,313,1
303,299,311,312,1
305,300,312,312,1
306,301,313,312,1
308,302,314,312,1
308,303,314,311,1
308,304,313,310,1
308,305,312,310,1
309,305,312,310,1
309,305,311,310,1
310,305,310,311,1
310,304,309,312,1
309,303,309,313,1
308,301,310,314,1
306,300,310,314,1
304,299,309,312,1
304,299,308,309,1
303,300,307,304,1
303,303,304,300,1
303,306,302,296,1
303,309,301,292,1
304,312,299,290,1
305,314,299,290,1
307,316,298,292,1
308,316,297,294,1
308,314,297,295,1
306,310,297,295,1
305,306,298,295,1
305,305,299,295,1
305,303,301,295,1
304,301,301,296,1
302,300,302,298,1
301,300,303,301,1
301,303,305,305,1
303,307,306,308,1
305,314,306,309,1
306,321,307,308,1
306,327,308,307,1
305,333,310,307,1
305,339,313,308,1
305,341,315,310,1
305,339,317,312,1
306,331,319,311,1
308,319,319,310,1
309,306,317,307,1
309,294,314,304,1
309,285,310,303,1
308,280,306,302,1
307,278,304,302,1
306,279,303,303,1
305,280,304,304,1
304,283,304,306,1
304,284,304,309,1
303,285,304,312,1
303,286,304,315,1
302,287,304,316,1
300,287,304,317,1
299,287,303,316,1
298,288,303,316,1
298,290,303,314,1
299,294,304,313,1
300,298,306,311,1
302,301,308,309,1
304,304,309,307,1
305,304,310,305,1
305,304,310,303,1
305,304,310,304,1
306,304,310,305,1
306,304,310,305,1
307,305,310,304,1
308,306,310,302,1
308,306,310,301,1
310,306,309,301,1
312,305,309,302,1
315,304,307,303,1
317,304,306,305,1
317,304,305,306,1
315,305,304,308,1
311,307,304,310,1
306,311,305,311,1
301,313,304,313,1
298,314,302,311,1
297,313,301,308,1
297,311,300,304,1
299,308,299,299,1
300,305,299,296,1
299,303,300,294,1
298,302,301,293,1
297,303,302,292,1
296,303,303,293,1
296,304,304,295,1
296,305,305,299,1
297,306,307,303,1
298,307,309,308,1
299,308,311,312,1
301,310,313,315,1
303,312,314,317,1
304,313,313,317,1
305,314,313,317,1
307,315,313,317,1
309,317,314,318,1
311,321,314,318,1
313,324,315,319,1
313,329,314,321,1
313,332,312,322,1
313,335,309,322,1
313,335,307,320,1
312,333,306,318,1
311,331,306,315,1
310,325,307,312,1
308,320,307,308,1
306,314,307,306,1
305,308,306,303,1
303,299,304,299,1
301,292,302,295,1
299,286,301,294,1
300,284,301,294,1
301,284,303,297,1
303,286,306,299,1
305,288,310,302,1
307,290,313,303,1
308,292,313,304,1
309,294,312,305,1
308,297,310,306,1
308,300,309,307,1
308,304,308,306,1
307,306,306,305,1
306,308,304,303,1
304,310,302,303,1
304,313,302,306,1
305,317,304,310,1
307,319,306,315,1
309,319,309,318,1
310,315,309,319,1
310,308,309,318,1
309,302,309,317,1
310,299,309,317,1
311,299,309,316,1
310,299,309,314,1
309,300,308,311,1
308,301,307,307,1
307,302,305,302,1
306,304,303,298,1
306,305,301,294,1
306,306,298,290,1
305,306,296,288,1
304,305,294,287,1
302,304,295,290,1
301,302,296,292,1
301,300,300,295,1
303,298,303,298,1
304,296,304,300,1
306,295,304,302,1
307,293,304,303,1
308,291,304,304,1
307,289,304,306,1
307,289,305,309,1
308,292,307,312,1
308,297,310,316,1
308,303,312,318,1
308,308,313,319,1
307,310,312,317,1
308,309,311,314,1
307,305,309,311,1
306,299,308,308,1
305,296,308,307,1
305,295,310,307,1
304,296,311,308,1
303,297,310,309,1
301,299,310,310,1
300,302,310,312,1
301,306,311,315,1
302,312,311,317,1
304,316,312,318,1
306,320,312,316,1
307,322,311,315,1
307,323,310,314,1
307,325,310,313,1
306,328,309,311,1
305,329,308,308,1
304,330,309,304,1
305,332,311,303,1
307,331,312,304,1
310,327,313,305,1
312,318,312,306,1
313,305,312,306,1
313,295,311,306,1
312,288,310,307,1
312,285,310,309,1
313,285,310,312,1
314,287,310,314,1
313,289,308,315,1
310,292,307,316,1
307,297,305,317,1
306,302,306,318,1
305,308,308,318,1
304,310,309,317,1
304,308,310,315,1
304,305,311,314,1
304,302,312,313,1
306,300,314,311,1
306,299,315,310,1
306,298,315,308,1
304,297,314,307,1
303,295,312,306,1
302,295,310,305,1
302,294,308,304,1
301,293,306,302,1
300,292,304,301,1
299,290,304,300,1
298,289,305,299,1
298,289,307,298,1
298,290,309,298,1
298,291,311,297,1
299,293,312,297,1
301,295,313,298,1
302,297,315,300,1
303,299,316,303,1
305,302,317,307,1
306,304,318,310,1
307,305,317,312,1
306,306,316,313,1
303,307,315,314,1
300,307,314,315,1
298,308,313,315,1
297,309,312,315,1
298,309,311,313,1
300,310,310,313,1
302,310,309,314,1
304,309,307,315,1
304,309,306,314,1
304,308,305,313,1
303,308,305,312,1
304,307,307,311,1
306,307,310,311,1
308,306,311,312,1
311,305,311,312,1
314,304,309,312,1
316,305,307,311,1
316,306,306,310,1
314,308,305,310,1
311,310,305,308,1
305,312,305,307,1
303,315,307,306,1
301,316,310,306,1
301,315,311,305,1
302,311,312,306,1
302,308,312,307,1
303,306,313,310,1
303,304,313,312,1
304,304,313,314,1
304,304,313,316,1
304,307,313,318,1
304,312,313,319,1
304,318,313,319,1
305,323,312,317,1
308,327,310,314,1
310,329,309,310,1
312,329,307,305,1
312,325,305,300,1
311,320,303,296,1
309,316,301,293,1
306,312,299,292,1
304,307,299,293,1
302,303,301,296,1
303,300,303,301,1
303,298,305,304,1
304,298,306,308,1
305,300,307,311,1
307,302,308,312,1
308,303,309,312,1
309,304,309,311,1
310,304,308,312,1
311,305,308,313,1
312,305,309,313,1
312,303,309,313,1
312,300,309,312,1
310,297,309,312,1
309,296,309,314,1
307,296,309,316,1
305,297,309,319,1
302,298,308,321,1
300,299,307,322,1
298,300,306,322,1
298,301,305,320,1
297,302,305,318,1
298,303,305,315,1
300,305,306,311,1
302,307,306,309,1
303,309,306,308,1
304,313,306,309,1
305,315,305,311,1
306,315,306,312,1
307,313,307,314,1
307,310,310,315,1
307,307,311,314,1
306,305,310,313,1
305,304,309,311,1
305,305,308,310,1
306,307,307,308,1
308,309,307,307,1
311,312,307,305,1
313,315,308,305,1
314,318,309,306,1
313,319,309,307,1
313,318,308,306,1
313,315,307,306,1
315,312,306,305,1
318,310,307,304,1
319,309,307,302,1
318,309,305,300,1
315,310,304,299,1
312,311,303,299,1
308,311,303,300,1
304,310,303,302,1
301,307,303,305,1
300,304,303,309,1
299,302,303,312,1
301,301,302,315,1
302,302,302,317,1
304,302,302,319,1
306,304,304,319,1
307,304,305,318,1
308,304,307,315,1
308,304,309,311,1
308,303,310,308,1
308,303,310,305,1
307,306,309,304,1
307,310,307,302,1
307,317,306,302,1
308,324,306,302,1
308,330,306,302,1
309,335,307,302,1
311,338,309,302,1
312,336,310,303,1
313,330,311,304,1
313,323,311,305,1
312,316,310,307,1
310,311,310,309,1
309,308,310,309,1
308,304,310,308,1
307,302,310,307,1
306,302,310,306,1
305,304,310,305,1
303,305,310,305,1
301,305,309,304,1
300,304,309,304,1
300,303,309,305,1
302,302,309,306,1
303,301,309,308,1
303,301,308,309,1
303,301,307,310,1
302,301,306,310,1
301,302,306,309,1
301,303,306,306,1
301,304,307,304,1
302,304,308,304,1
302,304,309,306,1
302,302,309,308,1
301,300,308,311,1
302,298,308,314,1
302,295,306,316,1
302,294,305,316,1
302,293,303,313,1
302,293,302,307,1
303,294,302,303,1
304,296,303,299,1
306,299,305,297,1
309,303,307,296,1
311,307,308,297,1
313,310,309,299,1
315,313,309,302,1
316,314,309,306,1
317,315,309,310,1
317,315,309,313,1
316,314,309,314,1
313,312,308,314,1
311,311,307,313,1
311,311,307,313,1
311,311,307,314,1
312,312,309,315,1
311,314,310,317,1
311,315,311,318,1
310,316,312,318,1
308,315,310,316,1
305,314,306,314,1
304,311,303,312,1
305,310,301,312,1
309,308,302,314,1
314,308,303,315,1
318,308,305,316,1
320,307,307,315,1
320,307,308,312,1
316,306,307,309,1
310,304,305,306,1
303,302,303,303,1
297,300,302,301,1
294,298,301,300,1
291,296,302,300,1
292,298,304,302,1
293,301,306,304,1
296,306,308,305,1
299,311,310,304,1
301,314,310,302,1
303,316,309,299,1
304,321,309,298,1
305,327,309,297,1
306,332,309,298,1
308,337,309,302,1
310,339,309,306,1
311,337,310,310,1
310,331,311,314,1
309,323,311,318,1
308,316,311,322,1
308,309,311,324,1
309,302,311,325,1
309,297,311,324,1
310,292,310,321,1
311,289,309,316,1
311,288,307,312,1
311,290,306,308,1
310,293,304,306,1
308,298,303,306,1
306,302,302,305,1
305,305,301,302,1
305,306,301,300,1
305,304,302,300,1
305,302,303,299,1
305,299,305,298,1
304,298,305,297,1
304,298,306,297,1
303,299,307,296,1
303,299,307,297,1
302,300,308,299,1
302,301,309,301,1
301,303,309,304,1
301,305,308,306,1
301,306,308,308,1
302,308,307,309,1
303,310,306,310,1
305,311,306,311,1
307,311,306,312,1
310,310,307,313,1
311,309,309,315,1
311,308,309,315,1
309,307,309,315,1
307,306,308,315,1
305,306,307,314,1
304,306,306,313,1
305,307,305,310,1
306,308,305,306,1
306,310,306,303,1
307,311,307,302,1
309,313,307,301,1
309,313,306,301,1
308,311,303,299,1
305,307,300,299,1
302,306,299,301,1
300,305,299,304,1
299,304,299,305,1
298,302,301,305,1
298,301,302,303,1
298,300,304,301,1
298,300,305,298,1
299,302,307,297,1
301,305,309,299,1
304,309,311,302,1
307,312,312,305,1
308,314,312,309,1
309,314,310,311,1
309,314,308,312,1
308,315,306,311,1
307,317,304,309,1
307,321,303,309,1
307,327,304,309,1
308,331,306,311,1
309,332,309,311,1
309,330,310,311,1
308,324,310,310,1
306,316,310,310,1
304,309,311,309,1
304,303,311,309,1
304,300,312,309,1
305,299,311,308,1
306,298,311,310,1
307,299,310,311,1
308,299,310,311,1
308,300,310,310,1
310,303,311,310,1
313,307,312,310,1
318,313,313,311,1
322,317,313,311,1
325,320,312,311,1
326,321,310,311,1
326,321,307,309,1
323,318,303,307,1
318,312,299,303,1
313,306,297,298,1
307,300,296,293,1
303,296,298,290,1
301,294,302,288,1
299,293,306,289,1
297,296,310,293,1
297,300,313,299,1
297,305,314,305,1
299,310,315,310,1
301,312,317,314,1
302,312,319,317,1
303,310,319,318,1
303,309,319,318,1
303,306,319,317,1
303,305,318,316,1
303,305,317,315,1
303,305,316,315,1
303,306,316,314,1
303,308,316,314,1
303,309,315,313,1
302,310,314,310,1
300,310,313,307,1
298,312,311,305,1
297,313,310,304,1
297,314,309,304,1
299,313,308,304,1
301,310,307,303,1
304,305,306,302,1
307,302,305,302,1
308,299,304,301,1
308,298,301,301,1
307,297,300,301,1
306,298,299,302,1
306,299,300,303,1
306,300,300,304,1
308,301,299,304,1
310,301,298,302,1
311,301,297,299,1
311,302,293,293,1
309,303,291,289,1
307,306,291,287,1
306,310,293,287,1
305,313,294,288,1
304,314,294,290,1
303,312,294,293,1
302,310,294,296,1
301,307,294,299,1
302,304,296,301,1
303,303,300,304,1
306,304,304,309,1
308,308,308,313,1
310,313,310,315,1
311,321,311,315,1
311,329,311,315,1
311,337,311,314,1
310,342,311,313,1
310,344,311,313,1
308,343,310,314,1
307,338,309,314,1
306,330,308,315,1
305,320,306,314,1
304,310,303,312,1
303,303,301,309,1
303,298,300,307,1
303,296,299,306,1
303,295,299,306,1
305,294,300,307,1
304,293,300,309,1
305,293,301,311,1
306,293,302,313,1
306,293,304,315,1
307,292,305,316,1
306,290,305,317,1
306,290,305,317,1
306,292,307,318,1
307,294,308,318,1
307,297,308,317,1
307,299,307,315,1
306,299,305,313,1
306,299,304,310,1
307,301,304,309,1
310,303,304,308,1
312,305,304,308,1
313,306,303,307,1
312,306,300,304,1
311,307,299,303,1
309,310,299,302,1
308,312,301,302,1
306,313,302,301,1
304,312,301,300,1
302,309,301,297,1
301,305,299,293,1
300,304,299,290,1
299,305,299,288,1
300,308,300,288,1
301,310,301,289,1
301,312,301,293,1
300,316,301,299,1
299,318,301,304,1
298,319,302,309,1
299,318,302,313,1
300,316,303,317,1
302,313,304,319,1
304,311,305,320,1
305,309,306,320,1
304,306,306,318,1
304,302,306,317,1
303,299,306,316,1
302,295,306,315,1
302,293,306,316,1
302,293,305,315,1
302,294,304,314,1
302,295,301,313,1
301,297,299,312,1
301,299,298,311,1
301,303,298,311,1
302,308,298,311,1
302,314,299,310,1
303,318,299,309,1
304,321,300,308,1
304,322,302,305,1
304,321,303,303,1
302,317,304,299,1
301,310,304,296,1
301,304,304,294,1
302,300,303,293,1
303,296,303,293,1
303,293,303,295,1
304,292,303,297,1
305,292,303,300,1
306,294,302,302,1
306,296,301,304,1
306,298,298,304,1
305,299,293,303,1
302,300,288,302,1
300,302,286,304,1
298,304,285,306,1
299,307,287,309,1
299,308,291,311,1
300,308,295,313,1
300,307,299,313,1
299,306,302,314,1
299,307,305,315,1
300,308,308,316,1
301,311,311,317,1
303,314,313,317,1
305,317,314,317,1
308,319,314,317,1
310,320,314,317,1
311,320,313,316,1
311,318,312,315,1
309,315,311,314,1
306,311,309,312,1
303,309,308,311,1
299,308,305,310,1
297,308,304,310,1
297,309,305,310,1
298,310,308,309,1
300,309,309,307,1
303,307,309,304,1
304,304,308,300,1
304,302,306,295,1
305,300,304,291,1
305,299,302,290,1
305,299,302,290,1
305,299,301,291,1
306,301,302,295,1
306,304,304,301,1
308,307,305,307,1
310,309,307,313,1
312,310,307,315,1
313,309,307,316,1
314,308,306,314,1
314,309,305,313,1
314,311,305,311,1
311,314,305,310,1
308,316,305,309,1
305,315,306,310,1
303,314,308,310,1
301,312,308,311,1
299,310,308,313,1
298,309,308,314,1
297,306,307,314,1
296,304,307,314,1
297,304,307,313,1
299,307,307,312,1
302,309,307,310,1
305,310,307,308,1
308,311,308,306,1
309,311,308,305,1
311,313,307,304,1
310,314,304,303,1
310,316,301,303,1
308,318,298,303,1
306,319,296,304,1
304,319,294,306,1
304,317,294,307,1
305,312,295,306,1
306,305,296,304,1
307,299,297,302,1
308,296,298,300,1
309,295,300,299,1
309,295,301,299,1
308,297,302,300,1
308,298,302,301,1
308,298,302,302,1
307,297,301,302,1
305,294,302,302,1
305,292,304,301,1
305,291,307,303,1
306,292,310,306,1
308,293,311,309,1
309,295,312,311,1
309,297,312,313,1
309,300,311,314,1
308,301,310,313,1
307,301,308,311,1
306,301,306,310,1
306,302,307,311,1
306,304,308,314,1
308,308,309,317,1
310,311,309,319,1
311,313,310,320,1
312,315,311,321,1
312,318,312,321,1
312,319,311,320,1
311,320,310,318,1
309,320,308,316,1
308,320,308,315,1
308,322,307,315,1
308,324,307,315,1
308,325,306,314,1
306,323,305,313,1
305,319,304,312,1
304,316,303,311,1
305,313,304,311,1
305,312,304,310,1
306,310,305,310,1
308,309,305,311,1
310,307,305,312,1
311,305,304,313,1
311,304,303,313,1
310,305,303,313,1
309,305,303,314,1
308,304,303,313,1
307,299,302,312,1
306,294,301,309,1
305,289,301,306,1
306,286,300,303,1
307,285,298,300,1
309,285,296,297,1
311,286,293,293,1
313,288,291,291,1
313,291,291,291,1
311,295,291,291,1
307,298,291,292,1
301,299,290,292,1
296,299,288,292,1
294,298,287,292,1
295,297,288,295,1
300,298,291,300,1
304,302,295,308,1
307,306,300,315,1
310,311,304,320,1
312,315,306,323,1
313,319,307,323,1
314,320,307,322,1
314,320,306,319,1
313,318,306,315,1
312,314,305,311,1
312,309,305,308,1
313,306,306,307,1
314,305,306,307,1
315,307,306,307,1
315,308,305,308,1
314,307,305,310,1
312,302,306,312,1
310,297,307,314,1
307,295,306,316,1
304,294,304,318,1
302,294,301,319,1
301,295,299,318,1
300,296,297,316,1
300,296,297,314,1
300,295,298,312,1
301,295,300,310,1
302,295,302,308,1
303,297,304,308,1
304,300,305,310,1
307,304,305,311,1
308,307,305,312,1
309,309,304,313,1
309,312,303,313,1
308,312,302,312,1
307,312,299,309,1
307,311,298,308,1
307,311,297,307,1
307,313,297,307,1
307,314,298,308,1
307,314,301,309,1
306,313,303,309,1
305,311,304,310,1
305,309,304,309,1
305,307,303,308,1
306,305,301,306,1
306,303,299,304,1
307,302,297,301,1
308,302,298,300,1
310,304,299,300,1
312,306,301,301,1
311,306,300,301,1
310,305,300,300,1
307,303,301,299,1
305,302,301,299,1
303,302,302,301,1
301,303,302,304,1
299,304,303,307,1
298,305,303,310,1
298,306,302,312,1
298,308,301,313,1
298,310,300,313,1
297,311,299,310,1
298,312,299,306,1
299,312,299,302,1
300,312,300,299,1
302,312,300,298,1
303,310,301,297,1
304,308,301,298,1
306,307,300,302,1
306,308,299,308,1
306,309,298,313,1
304,312,299,316,1
304,314,300,318,1
305,317,303,318,1
308,319,305,318,1
311,320,305,317,1
311,317,304,315,1
311,314,304,315,1
310,310,304,315,1
309,306,306,316,1
308,304,308,316,1
308,303,310,316,1
308,302,311,313,1
308,301,312,310,1
309,301,312,307,1
309,303,313,306,1
310,306,312,306,1
311,309,311,307,1
311,312,309,306,1
311,313,307,304,1
310,312,306,302,1
308,310,305,299,1
306,307,304,296,1
305,304,305,294,1
305,302,306,293,1
307,302,307,294,1
310,306,308,297,1
312,312,309,302,1
314,319,308,305,1
315,323,308,307,1
315,326,307,307,1
313,326,305,305,1
311,324,303,302,1
307,320,300,298,1
303,316,297,296,1
300,313,295,296,1
298,312,294,298,1
299,310,296,302,1
301,309,298,306,1
304,305,302,312,1
305,302,303,316,1
306,301,303,319,1
305,300,303,320,1
305,299,303,319,1
305,299,305,318,1
305,299,307,318,1
306,300,310,318,1
307,301,313,319,1
308,302,314,320,1
308,301,313,320,1
307,299,310,319,1
306,295,307,317,1
306,293,305,315,1
308,291,303,312,1
310,291,304,310,1
312,291,304,308,1
313,293,306,306,1
315,294,308,306,1
315,296,309,306,1
315,299,309,306,1
313,301,310,307,1
312,303,310,308,1
312,303,309,309,1
311,303,308,308,1
309,302,305,308,1
307,303,302,305,1
304,303,299,302,1
302,305,296,298,1
300,307,295,294,1
300,311,294,292,1
300,315,295,294,1
299,317,298,298,1
298,316,301,303,1
298,313,304,309,1
298,310,306,315,1
299,308,308,319,1
300,306,309,321,1
302,305,310,321,1
303,304,310,321,1
305,303,312,320,1
307,303,313,319,1
308,302,312,316,1
308,302,311,313,1
308,303,309,310,1
307,306,308,308,1
307,307,308,308,1
306,311,308,308,1
306,316,308,310,1
306,323,308,313,1
306,329,308,315,1
307,333,306,315,1
308,333,304,314,1
308,330,303,312,1
309,324,303,310,1
309,315,304,307,1
310,307,305,305,1
311,302,305,303,1
313,298,305,302,1
315,295,305,303,1
316,292,304,304,1
316,289,303,304,1
316,288,301,303,1
315,289,300,302,1
313,290,298,301,1
310,292,297,300,1
308,295,296,299,1
307,298,296,300,1
308,301,295,300,1
309,303,295,301,1
308,303,294,302,1
307,301,292,302,1
305,300,291,302,1
304,298,291,303,1
303,297,292,305,1
303,295,292,309,1
302,295,290,312,1
302,294,286,312,1
302,295,282,310,1
302,296,280,307,1
301,297,280,304,1
301,298,283,303,1
303,298,289,301,1
305,299,296,299,1
307,301,302,298,1
309,303,305,298,1
309,304,307,298,1
309,305,308,299,1
310,307,309,300,1
311,309,309,301,1
312,309,309,302,1
312,309,308,303,1
312,310,306,306,1
312,311,305,311,1
312,313,306,316,1
313,314,308,319,1
314,315,310,321,1
314,315,311,321,1
314,315,311,320,1
313,314,310,318,1
312,314,310,317,1
311,313,310,317,1
310,312,309,316,1
307,312,308,315,1
305,312,306,313,1
304,314,305,310,1
304,316,303,307,1
305,318,301,304,1
305,319,301,300,1
307,322,302,298,1
310,323,303,297,1
310,323,304,294,1
308,319,304,292,1
306,313,304,291,1
303,308,304,293,1
303,305,304,296,1
303,304,305,300,1
303,305,305,304,1
304,306,305,307,1
304,307,305,309,1
305,307,305,312,1
305,306,304,315,1
305,305,304,317,1
305,305,305,317,1
305,304,306,317,1
304,304,306,316,1
304,308,307,315,1
306,313,308,314,1
308,321,310,313,1
310,328,311,313,1
310,333,311,313,1
309,334,310,311,1
307,331,309,309,1
305,325,308,307,1
304,316,307,305,1
303,308,307,305,1
304,302,306,306,1
306,297,304,308,1
309,293,302,308,1
312,289,299,305,1
313,284,297,300,1
314,280,297,296,1
314,278,300,294,1
313,279,303,295,1
312,281,307,297,1
310,283,309,299,1
308,286,311,302,1
307,289,311,304,1
307,292,311,305,1
308,295,311,305,1
307,298,311,305,1
307,300,310,303,1
307,302,309,302,1
307,303,308,301,1
307,303,307,300,1
307,304,307,302,1
309,305,308,305,1
310,307,309,306,1
311,309,309,307,1
310,309,308,306,1
309,306,307,304,1
309,305,306,302,1
308,303,305,298,1
307,302,305,294,1
307,301,305,290,1
308,300,304,287,1
308,300,303,286,1
307,301,303,287,1
305,301,302,287,1
303,301,302,289,1
302,302,303,293,1
303,303,305,300,1
305,304,306,307,1
307,305,308,313,1
307,306,309,319,1
308,308,310,321,1
309,310,312,323,1
309,313,314,323,1
308,314,315,323,1
307,314,315,323,1
307,313,315,322,1
307,311,314,321,1
308,310,313,320,1
309,310,312,319,1
309,311,312,319,1
308,312,310,318,1
308,312,310,315,1
307,311,309,312,1
306,309,308,309,1
306,309,307,305,1
307,312,306,302,1
307,319,303,298,1
307,325,301,291,1
307,331,299,284,1
307,333,298,277,1
308,332,299,274,1
308,328,301,275,1
309,320,304,281,1
311,311,307,289,1
312,301,309,298,1
312,294,310,305,1
311,288,310,310,1
310,284,309,313,1
309,282,309,315,1
308,282,309,316,1
308,283,310,316,1
309,285,310,316,1
311,286,309,315,1
313,287,308,314,1
312,287,305,312,1
311,288,304,309,1
310,291,303,308,1
308,295,304,308,1
308,299,307,309,1
308,303,310,310,1
309,305,312,310,1
309,307,313,308,1
309,307,313,305,1
308,307,311,303,1
308,305,309,300,1
308,304,307,300,1
308,304,306,303,1
309,305,306,309,1
312,309,307,317,1
314,312,310,324,1
317,315,311,327,1
320,317,310,328,1
323,320,307,327,1
325,323,304,324,1
327,325,300,318,1
328,324,296,311,1
326,322,293,305,1
321,320,294,303,1
317,317,296,303,1
313,314,299,304,1
308,310,301,305,1
303,305,303,306,1
300,303,305,308,1
298,303,309,310,1
299,306,312,312,1
300,309,313,313,1
301,313,313,313,1
300,315,312,313,1
300,317,311,313,1
299,319,312,313,1
300,319,313,314,1
302,318,313,316,1
304,314,314,317,1
305,310,314,317,1
306,305,313,315,1
307,301,310,311,1
306,298,308,306,1
304,296,304,302,1
303,295,302,300,1
302,295,300,297,1
300,295,298,295,1
300,295,298,293,1
299,295,297,293,1
299,297,298,296,1
300,299,299,300,1
302,299,299,303,1
302,299,300,305,1
301,299,301,306,1
299,300,301,307,1
298,302,302,307,1
296,304,302,306,1
296,307,302,306,1
299,311,302,306,1
303,317,303,305,1
306,323,305,303,1
310,329,307,303,1
312,332,309,303,1
314,334,310,303,1
315,332,311,303,1
314,325,309,299,1
311,315,307,294,1
307,306,305,288,1
303,300,305,283,1
302,298,306,281,1
302,302,308,284,1
304,309,310,290,1
304,315,313,297,1
305,321,315,303,1
306,325,315,309,1
308,326,315,311,1
310,325,315,311,1
310,322,316,309,1
310,320,315,306,1
310,317,313,302,1
311,317,310,299,1
312,317,308,298,1
313,318,306,299,1
315,317,306,301,1
315,313,308,303,1
312,307,309,302,1
306,300,310,300,1
301,295,309,300,1
298,293,310,302,1
297,294,311,305,1
297,296,312,309,1
298,299,312,312,1
299,303,312,315,1
301,306,311,316,1
301,307,310,315,1
301,307,308,314,1
300,307,306,313,1
299,307,304,311,1
298,306,303,308,1
298,305,304,305,1
299,303,307,304,1
302,303,310,302,1
306,303,313,301,1
309,303,313,299,1
311,301,312,296,1
312,300,310,294,1
312,299,307,292,1
312,299,305,291,1
312,301,303,291,1
313,302,303,293,1
313,304,304,293,1
312,305,305,295,1
310,304,306,297,1
306,304,306,300,1
303,304,307,303,1
301,305,308,307,1
301,307,308,310,1
302,310,308,311,1
303,314,309,311,1
304,316,310,311,1
304,318,310,311,1
304,318,309,311,1
304,316,309,311,1
305,314,308,310,1
306,313,307,308,1
306,314,306,305,1
307,314,304,302,1
309,315,303,299,1
309,314,302,297,1
309,314,301,296,1
309,316,300,298,1
310,320,301,301,1
311,324,302,303,1
312,326,302,303,1
312,326,302,303,1
311,323,302,303,1
310,321,303,304,1
310,319,304,307,1
309,315,304,309,1
309,307,303,309,1
308,300,304,309,1
308,296,303,310,1
307,296,303,311,1
307,296,303,312,1
307,296,302,313,1
307,296,303,314,1
308,298,304,314,1
309,300,305,314,1
310,302,306,312,1
310,304,305,310,1
310,305,304,308,1
311,305,304,307,1
311,305,305,307,1
312,305,306,308,1
312,306,307,309,1
314,306,308,310,1
314,306,309,309,1
314,306,309,307,1
314,307,309,306,1
313,309,309,304,1
312,311,309,302,1
311,312,309,300,1
310,313,308,299,1
308,313,308,298,1
308,312,308,297,1
307,310,307,297,1
306,308,307,297,1
306,306,305,296,1
305,303,304,296,1
303,302,303,298,1
303,304,302,300,1
303,308,302,301,1
303,311,302,303,1
304,313,303,304,1
306,315,304,304,1
309,316,304,304,1
311,317,304,304,1
312,319,303,305,1
313,320,302,305,1
315,320,302,306,1
318,320,302,308,1
320,318,304,311,1
322,315,306,313,1
323,310,307,315,1
320,305,309,316,1
315,300,309,315,1
309,296,309,315,1
306,294,309,314,1
303,294,310,314,1
303,295,309,315,1
303,297,309,315,1
304,301,309,315,1
306,304,309,313,1
308,307,309,310,1
311,309,309,306,1
313,311,308,302,1
315,312,305,299,1
315,313,304,297,1
315,315,302,295,1
314,316,301,294,1
311,316,300,293,1
308,314,300,294,1
304,310,300,296,1
302,305,301,300,1
301,301,302,302,1
299,297,301,303,1
298,296,299,302,1
296,295,297,300,1
296,295,295,298,1
298,296,295,298,1
301,297,296,301,1
305,300,300,305,1
309,302,304,309,1
311,305,309,313,1
312,309,311,315,1
312,311,313,315,1
311,312,313,314,1
310,312,312,313,1
310,312,312,314,1
311,314,312,314,1
312,314,311,315,1
313,313,310,315,1
313,312,309,314,1
313,310,309,313,1
313,309,309,312,1
312,307,309,310,1
310,305,308,307,1
307,303,306,305,1
306,303,306,304,1
306,306,306,303,1
308,310,307,303,1
310,314,307,304,1
311,316,307,304,1
310,315,305,303,1
308,312,304,302,1
306,309,303,301,1
303,304,302,300,1
300,299,301,298,1
298,295,300,297,1
297,292,298,295,1
296,288,296,293,1
296,288,294,292,1
297,290,293,292,1
297,292,294,293,1
298,295,297,296,1
299,298,301,297,1
301,300,304,298,1
302,300,306,298,1
303,301,308,298,1
305,302,309,299,1
306,304,309,301,1
307,305,309,303,1
307,306,310,305,1
307,307,311,306,1
306,309,313,308,1
306,311,314,309,1
306,313,313,309,1
306,312,312,309,1
307,310,311,309,1
308,306,309,307,1
310,302,308,305,1
310,300,308,303,1
309,299,308,301,1
307,301,309,302,1
305,306,310,303,1
304,312,309,306,1
304,318,308,309,1
304,322,307,312,1
304,322,307,314,1
305,321,306,317,1
305,316,306,318,1
306,309,307,318,1
308,303,307,317,1
309,300,307,313,1
310,297,306,309,1
310,296,305,305,1
307,295,304,302,1
304,295,303,300,1
301,295,301,300,1
298,296,300,301,1
296,298,300,302,1
296,299,301,304,1
297,299,302,305,1
298,299,304,306,1
300,300,305,306,1
303,300,306,308,1
305,300,307,309,1
307,299,306,310,1
308,297,306,311,1
309,297,306,312,1
310,298,305,313,1
308,300,303,312,1
305,301,301,310,1
300,301,300,306,1
298,300,299,301,1
295,300,299,297,1
295,298,299,297,1
296,296,301,297,1
296,293,302,297,1
297,291,304,298,1
299,290,307,301,1
303,293,309,304,1
308,297,311,307,1
311,300,313,308,1
312,302,313,308,1
312,303,313,308,1
312,304,314,309,1
311,306,314,311,1
312,307,314,313,1
312,307,314,315,1
311,305,314,314,1
308,304,312,312,1
306,303,310,309,1
306,301,309,307,1
305,300,308,305,1
306,299,308,304,1
306,297,308,304,1
307,296,309,305,1
305,296,310,307,1
304,298,309,309,1
304,301,308,309,1
305,304,306,309,1
305,307,305,307,1
305,311,303,304,1
304,314,302,301,1
305,316,303,299,1
306,318,305,298,1
307,319,307,298,1
308,319,310,301,1
309,318,312,303,1
309,314,312,305,1
309,309,309,306,1
309,304,306,307,1
309,303,303,308,1
310,304,301,309,1
311,308,301,312,1
314,315,302,314,1
316,322,306,317,1
316,326,309,318,1
317,327,312,317,1
316,325,314,316,1
314,317,315,314,1
310,307,315,311,1
306,296,315,308,1
303,288,314,305,1
300,282,312,301,1
298,279,310,298,1
297,279,308,297,1
297,282,307,297,1
297,284,306,297,1
298,286,305,297,1
299,289,306,296,1
300,291,308,296,1
302,294,309,295,1
305,297,310,293,1
307,300,310,293,1
308,302,309,293,1
307,302,309,294,1
307,300,308,295,1
306,298,306,297,1
306,297,305,298,1
308,296,304,298,1
309,296,304,299,1
309,297,303,300,1
310,298,303,301,1
310,299,304,301,1
310,300,305,301,1
308,300,304,301,1
305,299,302,299,1
302,298,301,299,1
300,299,302,304,1
301,303,304,311,1
302,307,307,317,1
304,309,309,320,1
305,311,312,322,1
306,312,313,322,1
306,312,314,321,1
307,311,314,320,1
308,311,314,319,1
309,314,314,320,1
309,316,313,321,1
309,319,313,321,1
309,321,312,319,1
309,322,310,315,1
309,321,309,312,1
311,320,307,309,1
312,317,306,305,1
312,314,304,301,1
310,310,302,299,1
306,308,303,300,1
303,310,303,302,1
299,314,303,304,1
297,318,302,303,1
297,319,300,303,1
298,320,299,304,1
299,321,299,305,1
301,322,300,307,1
303,320,302,309,1
305,316,304,310,1
307,306,305,310,1
308,296,305,309,1
308,288,304,309,1
307,284,303,308,1
306,283,302,308,1
305,286,301,309,1
305,289,300,310,1
304,292,298,311,1
303,295,295,311,1
302,296,293,310,1
300,298,291,310,1
299,301,292,308,1
300,306,294,307,1
302,311,297,307,1
304,316,302,307,1
306,320,307,308,1
306,324,310,309,1
307,326,312,309,1
308,325,313,309,1
310,322,314,308,1
309,315,312,306,1
309,307,310,304,1
308,299,307,302,1
307,295,304,303,1
306,295,303,305,1
307,297,303,307,1
307,299,304,308,1
309,301,305,308,1
310,303,306,309,1
310,305,308,310,1
311,307,310,312,1
313,308,310,313,1
315,306,310,313,1
315,305,308,312,1
315,304,307,313,1
314,305,305,314,1
313,306,304,315,1
311,307,303,314,1
308,308,301,311,1
305,307,300,307,1
301,306,298,303,1
298,304,297,300,1
296,303,298,299,1
295,301,300,298,1
295,298,300,298,1
295,296,302,298,1
295,297,304,299,1
297,299,305,298,1
298,302,305,297,1
299,304,305,297,1
301,305,304,296,1
301,306,305,295,1
301,308,307,297,1
301,311,309,299,1
301,314,311,301,1
301,315,312,304,1
302,315,312,304,1
302,314,311,304,1
302,313,310,305,1
302,311,309,307,1
302,311,309,310,1
302,314,309,313,1
303,318,309,316,1
305,324,309,318,1
307,330,310,319,1
309,334,311,319,1
311,335,312,318,1
312,334,312,315,1
312,333,311,312,1
310,333,308,310,1
307,332,305,307,1
305,331,302,303,1
303,329,301,299,1
301,324,301,296,1
299,315,303,295,1
299,303,305,296,1
300,291,307,298,1
301,280,309,300,1
303,273,310,303,1
304,270,311,305,1
304,271,311,308,1
303,273,311,311,1
303,277,311,312,1
303,280,310,311,1
304,282,309,309,1
304,284,308,308,1
303,287,307,307,1
301,289,307,306,1
300,291,306,304,1
300,293,305,304,1
300,295,304,303,1
301,296,303,304,1
302,298,303,305,1
304,299,305,307,1
307,301,308,309,1
310,303,310,309,1
312,308,311,310,1
315,314,312,309,1
316,318,311,308,1
315,320,309,306,1
314,320,307,303,1
312,320,304,301,1
310,318,301,299,1
309,316,298,298,1
308,312,297,298,1
308,308,297,298,1
