302,404,300,303,2
302,407,304,307,2
303,406,306,311,2
304,403,307,312,2
304,397,307,312,2
303,388,307,312,2
301,380,306,312,2
301,372,306,313,2
303,365,308,315,2
305,358,310,316,2
306,351,311,315,2
306,342,313,312,2
305,332,311,308,2
304,327,308,306,2
304,325,303,305,2
305,323,298,304,2
306,318,293,303,2
308,310,290,303,2
310,300,288,302,2
311,290,287,300,2
312,281,289,301,2
313,276,294,303,2
313,275,298,307,2
313,279,301,310,2
313,289,302,311,2
314,303,303,310,2
316,311,304,308,2
318,311,307,305,2
320,303,309,302,2
320,290,310,300,2
317,276,311,298,2
313,268,312,298,2
308,270,312,299,2
304,288,311,301,2
299,324,310,302,2
295,364,307,304,2
290,397,306,306,2
288,417,306,308,2
286,425,308,309,2
286,422,310,308,2
286,412,310,308,2
287,400,308,309,2
290,387,304,311,2
293,368,301,313,2
296,346,297,314,2
299,322,296,313,2
302,298,296,311,2
305,280,296,308,2
306,270,296,304,2
306,271,296,301,2
306,282,296,300,2
305,299,296,302,2
304,319,297,304,2
303,336,298,306,2
303,348,300,308,2
303,357,302,310,2
304,363,303,311,2
305,365,303,312,2
306,364,304,311,2
308,361,304,311,2
311,357,306,312,2
315,354,308,313,2
317,351,310,314,2
317,342,310,312,2
314,325,308,308,2
312,300,306,304,2
311,272,306,301,2
311,244,308,299,2
311,220,311,298,2
311,204,313,298,2
310,200,314,299,2
309,213,314,302,2
307,244,312,305,2
305,288,309,307,2
304,337,307,309,2
304,378,307,310,2
306,406,310,312,2
309,421,314,314,2
311,422,318,315,2
309,414,320,314,2
306,401,317,314,2
302,388,314,313,2
301,377,310,313,2
300,368,308,314,2
302,359,309,314,2
305,350,313,315,2
311,341,320,315,2
316,334,326,315,2
319,325,329,314,2
319,317,325,313,2
315,311,316,312,2
311,311,306,313,2
309,316,299,315,2
307,322,295,317,2
306,326,293,318,2
305,329,293,318,2
303,331,296,318,2
303,334,299,318,2
302,336,303,317,2
302,337,306,317,2
303,339,308,316,2
303,341,308,314,2
301,343,305,313,2
301,344,301,311,2
301,345,299,310,2
303,344,298,309,2
306,342,299,309,2
308,338,301,308,2
309,329,303,308,2
309,315,304,308,2
308,297,305,310,2
308,278,306,312,2
306,264,305,314,2
304,256,305,315,2
303,258,306,315,2
301,269,306,314,2
299,285,307,313,2
297,298,308,313,2
296,301,309,313,2
297,297,308,314,2
299,292,307,313,2
301,290,306,313,2
303,298,305,312,2
303,315,305,311,2
303,338,304,310,2
302,363,303,309,2
302,383,301,308,2
301,396,299,308,2
301,400,296,307,2
302,395,293,307,2
304,381,292,305,2
305,359,293,305,2
306,337,296,305,2
307,318,299,306,2
307,304,302,307,2
306,299,305,309,2
304,301,308,312,2
302,310,309,316,2
299,321,310,320,2
297,328,311,321,2
295,331,310,321,2
295,333,309,320,2
296,333,307,317,2
297,333,306,314,2
300,332,306,312,2
303,328,306,309,2
304,322,306,309,2
306,316,308,309,2
307,311,309,310,2
308,309,311,311,2
308,308,312,311,2
307,309,311,311,2
305,311,310,310,2
304,316,307,309,2
302,323,306,309,2
302,329,306,309,2
303,331,308,310,2
304,329,310,311,2
306,326,312,311,2
306,323,312,312,2
306,321,310,314,2
305,319,308,317,2
305,317,306,320,2
304,315,304,321,2
304,312,303,319,2
303,307,302,316,2
303,301,302,313,2
303,295,304,311,2
303,291,305,309,2
303,288,305,307,2
303,285,304,307,2
303,284,304,306,2
301,286,303,306,2
300,291,302,307,2
300,297,302,309,2
299,303,302,310,2
299,309,302,312,2
299,314,303,315,2
300,316,304,317,2
301,318,305,320,2
304,319,306,322,2
305,320,307,322,2
305,321,306,320,2
305,319,304,318,2
305,316,303,315,2
304,314,301,313,2
303,315,298,312,2
302,318,296,311,2
301,322,293,310,2
300,326,292,310,2
300,328,291,309,2
301,329,293,309,2
303,329,297,310,2
304,329,300,312,2
303,329,302,314,2
302,329,304,316,2
301,327,305,317,2
300,325,306,319,2
298,322,306,319,2
295,320,305,318,2
291,321,303,318,2
291,324,302,318,2
293,327,301,318,2
297,328,300,318,2
300,329,301,316,2
304,329,302,314,2
306,328,303,313,2
307,327,304,312,2
308,323,305,311,2
308,319,304,311,2
308,316,303,312,2
309,315,303,314,2
309,315,303,314,2
310,317,304,315,2
310,320,305,316,2
311,322,306,318,2
310,320,306,318,2
309,315,305,319,2
308,308,305,321,2
308,301,305,322,2
309,294,305,322,2
310,286,305,322,2
310,277,305,319,2
311,273,304,316,2
312,274,302,313,2
314,276,300,312,2
316,277,299,312,2
317,276,298,312,2
317,276,296,312,2
317,277,295,313,2
316,279,293,314,2
313,282,292,313,2
311,286,291,313,2
307,290,291,313,2
304,297,293,316,2
301,308,296,319,2
300,321,299,322,2
300,337,302,324,2
299,349,302,326,2
299,356,301,327,2
298,357,300,326,2
299,354,298,325,2
301,349,296,323,2
305,343,295,321,2
308,337,294,319,2
310,333,293,315,2
309,328,292,311,2
307,322,292,308,2
304,316,293,307,2
301,312,295,307,2
299,311,296,307,2
298,313,296,309,2
298,316,297,311,2
298,314,296,311,2
298,306,297,312,2
299,293,300,313,2
301,279,304,315,2
303,263,309,316,2
306,249,312,318,2
309,240,314,319,2
311,242,315,320,2
312,257,314,322,2
311,281,311,323,2
309,308,308,323,2
305,330,304,322,2
302,345,303,321,2
299,351,302,320,2
298,353,302,320,2
298,350,303,320,2
299,345,304,319,2
300,340,306,317,2
301,336,307,316,2
303,332,309,316,2
305,327,309,317,2
306,320,307,317,2
306,313,306,317,2
306,308,305,316,2
306,307,304,315,2
306,309,302,315,2
307,310,301,315,2
307,308,300,314,2
308,302,300,314,2
309,297,299,312,2
310,293,300,312,2
311,292,299,313,2
312,297,298,315,2
313,304,298,317,2
313,309,299,318,2
312,312,300,318,2
310,314,299,317,2
309,315,298,315,2
307,316,298,314,2
306,316,297,313,2
306,316,297,314,2
306,317,298,315,2
308,316,300,318,2
308,314,302,320,2
309,309,304,322,2
310,303,306,323,2
310,298,308,326,2
309,297,309,328,2
309,299,309,329,2
308,306,308,328,2
308,315,307,326,2
306,323,306,322,2
306,328,305,319,2
305,329,305,317,2
305,327,304,316,2
304,320,303,315,2
305,306,303,315,2
307,290,303,316,2
311,274,304,317,2
315,260,305,317,2
317,250,304,316,2
317,247,303,314,2
316,255,301,314,2
314,274,299,315,2
312,294,297,315,2
309,312,296,315,2
307,326,294,314,2
306,335,294,312,2
305,339,294,310,2
306,338,296,307,2
308,332,300,306,2
310,323,304,304,2
311,312,306,303,2
310,303,305,302,2
308,296,304,303,2
306,291,302,304,2
304,283,301,306,2
303,274,300,308,2
304,266,300,308,2
304,260,301,308,2
305,255,301,307,2
307,255,302,308,2
308,264,303,310,2
309,281,303,311,2
309,302,303,313,2
309,318,302,315,2
308,326,302,317,2
308,327,302,319,2
309,329,303,321,2
308,334,303,321,2
306,343,303,320,2
303,351,302,316,2
300,356,300,313,2
297,358,299,309,2
296,355,298,308,2
296,348,298,306,2
297,339,298,307,2
297,332,300,308,2
298,325,302,310,2
300,321,304,312,2
302,317,307,314,2
303,312,311,315,2
305,307,314,315,2
306,304,314,314,2
306,302,314,314,2
306,303,311,313,2
305,305,309,314,2
305,309,306,314,2
305,309,304,314,2
306,304,303,314,2
306,295,302,313,2
307,287,301,312,2
307,280,299,310,2
307,274,299,308,2
307,268,298,306,2
307,263,299,305,2
308,262,300,305,2
308,266,301,305,2
308,274,302,306,2
307,285,304,307,2
307,297,307,308,2
307,308,311,310,2
307,317,315,312,2
307,323,317,314,2
308,326,317,316,2
308,327,315,317,2
307,325,311,317,2
306,321,307,316,2
304,315,304,314,2
304,307,303,311,2
304,303,302,309,2
304,302,301,309,2
305,303,300,308,2
306,302,299,307,2
306,301,297,306,2
305,301,296,306,2
305,305,295,304,2
305,311,295,304,2
305,317,295,305,2
306,322,296,307,2
307,326,297,310,2
308,329,299,314,2
308,328,302,317,2
308,325,304,319,2
307,320,306,319,2
307,315,309,320,2
306,308,310,319,2
306,300,310,316,2
305,293,310,314,2
305,287,309,310,2
306,286,308,308,2
307,288,306,306,2
309,294,305,305,2
309,300,304,304,2
309,305,303,303,2
307,308,303,302,2
307,311,303,301,2
306,312,303,301,2
306,312,304,301,2
307,310,304,304,2
309,307,305,306,2
310,302,306,310,2
311,295,307,312,2
312,287,308,314,2
314,278,308,315,2
315,270,308,315,2
317,262,309,316,2
318,255,309,316,2
319,252,309,315,2
318,252,307,314,2
316,256,305,314,2
314,263,304,313,2
313,273,302,313,2
311,284,301,312,2
309,295,300,311,2
307,307,299,310,2
305,317,298,310,2
304,321,297,310,2
303,321,297,311,2
304,319,297,312,2
304,313,298,312,2
304,305,300,312,2
304,293,304,311,2
305,279,309,312,2
307,268,313,313,2
309,262,315,314,2
312,261,314,314,2
314,265,313,314,2
315,277,311,315,2
314,292,308,315,2
311,307,304,314,2
306,317,301,312,2
301,322,298,310,2
298,320,296,306,2
297,315,295,304,2
298,308,296,302,2
299,302,297,301,2
301,298,297,301,2
302,297,297,302,2
303,298,297,302,2
303,302,296,304,2
302,308,295,305,2
302,315,295,308,2
302,322,295,312,2
303,330,296,315,2
304,335,299,317,2
305,339,303,317,2
305,339,306,316,2
305,335,308,313,2
305,328,309,310,2
306,319,309,307,2
307,311,308,305,2
307,302,308,302,2
307,295,307,300,2
305,290,306,299,2
303,289,305,299,2
301,292,304,300,2
300,297,304,302,2
299,301,305,304,2
299,304,306,304,2
300,307,306,304,2
300,312,307,304,2
301,318,307,305,2
301,322,307,307,2
302,322,308,308,2
304,320,308,309,2
307,315,308,309,2
311,310,308,310,2
313,307,308,311,2
315,305,307,311,2
315,305,306,312,2
315,306,304,312,2
315,307,303,310,2
315,307,301,308,2
314,305,300,305,2
313,302,300,303,2
312,298,301,302,2
311,294,302,302,2
310,291,304,303,2
308,287,305,303,2
306,284,307,303,2
304,280,308,302,2
304,275,309,302,2
303,270,310,303,2
304,267,310,303,2
304,267,310,304,2
305,268,310,304,2
307,268,310,304,2
309,266,310,303,2
311,266,309,301,2
312,270,308,300,2
312,279,306,299,2
311,291,305,299,2
310,301,304,300,2
308,313,304,301,2
305,324,304,303,2
303,332,304,305,2
301,336,304,306,2
300,337,304,307,2
299,335,304,308,2
299,331,305,308,2
299,324,304,308,2
300,316,303,308,2
301,307,301,309,2
302,300,300,309,2
303,297,298,309,2
304,297,298,309,2
306,298,298,309,2
307,299,300,309,2
308,301,302,308,2
309,303,303,308,2
308,305,303,307,2
306,306,302,306,2
303,307,300,305,2
301,307,300,304,2
300,306,301,303,2
301,303,303,303,2
303,299,305,302,2
305,293,307,302,2
306,287,308,301,2
306,281,309,301,2
306,276,309,302,2
306,271,309,303,2
306,268,309,304,2
306,270,309,306,2
306,279,309,308,2
306,292,309,310,2
307,306,308,311,2
307,320,307,312,2
305,330,306,312,2
303,335,304,311,2
301,338,304,311,2
300,341,305,311,2
300,343,305,311,2
299,341,304,311,2
299,335,302,310,2
299,329,302,309,2
301,325,302,307,2
303,322,302,305,2
305,322,301,303,2
307,322,301,303,2
308,321,300,304,2
309,318,298,306,2
309,310,298,308,2
308,299,298,309,2
307,287,298,309,2
306,275,297,309,2
304,267,297,308,2
302,264,296,305,2
300,268,295,304,2
299,278,293,302,2
298,290,291,301,2
298,303,289,300,2
297,315,287,299,2
297,324,287,299,2
298,331,287,300,2
298,334,288,302,2
299,334,290,304,2
298,330,291,305,2
298,325,292,306,2
298,319,293,307,2
298,315,295,309,2
298,310,297,311,2
300,306,298,314,2
301,303,300,316,2
302,301,300,316,2
303,300,301,316,2
304,299,302,314,2
305,296,303,312,2
305,293,304,310,2
304,292,305,309,2
302,293,306,310,2
301,294,306,310,2
300,296,305,310,2
300,297,302,309,2
302,299,299,308,2
305,301,297,307,2
308,303,297,307,2
310,302,299,307,2
310,296,302,307,2
310,285,305,306,2
309,271,306,305,2
309,259,307,306,2
309,250,309,307,2
308,245,309,307,2
308,246,308,308,2
308,255,307,309,2
309,271,307,309,2
311,290,308,309,2
312,307,308,308,2
311,317,307,307,2
310,323,305,306,2
308,325,304,305,2
308,325,304,306,2
308,324,305,308,2
308,323,305,308,2
308,321,305,307,2
308,319,304,305,2
308,319,303,304,2
307,322,303,304,2
307,327,303,304,2
307,333,303,305,2
307,337,304,307,2
308,337,305,309,2
308,334,305,312,2
307,326,306,314,2
307,314,305,316,2
306,303,304,315,2
306,295,303,314,2
306,290,302,312,2
306,288,301,310,2
306,285,301,309,2
305,281,302,307,2
304,278,302,307,2
304,277,301,306,2
303,278,299,307,2
304,281,297,309,2
304,284,296,311,2
307,287,296,313,2
310,292,297,313,2
313,298,299,313,2
315,304,302,313,2
315,308,305,312,2
314,309,306,311,2
312,306,305,310,2
310,302,304,309,2
308,302,303,309,2
306,303,303,309,2
305,304,303,308,2
305,305,303,308,2
305,305,304,307,2
305,306,305,306,2
305,309,305,306,2
306,311,305,306,2
306,313,304,306,2
306,311,304,306,2
306,306,304,306,2
305,298,304,305,2
304,290,305,306,2
303,284,305,307,2
302,283,305,309,2
301,287,305,311,2
300,295,304,313,2
300,301,303,314,2
300,305,303,315,2
300,306,302,315,2
300,306,302,316,2
301,305,302,315,2
302,304,301,315,2
304,304,301,315,2
306,303,301,314,2
307,301,301,313,2
309,300,301,311,2
310,300,301,309,2
311,302,301,308,2
311,303,301,308,2
311,305,302,309,2
311,307,303,311,2
310,310,304,313,2
309,309,305,316,2
309,306,306,318,2
310,302,307,320,2
311,301,307,322,2
311,303,308,322,2
312,306,307,321,2
311,312,306,318,2
310,318,305,315,2
310,323,304,313,2
310,325,304,312,2
311,322,304,312,2
312,313,304,312,2
312,302,303,310,2
310,289,301,308,2
307,278,299,306,2
305,270,298,304,2
304,265,297,303,2
303,263,297,303,2
302,265,297,303,2
302,270,297,303,2
301,278,298,305,2
301,286,299,307,2
301,294,302,310,2
301,299,305,312,2
301,303,307,314,2
302,305,309,316,2
303,307,310,318,2
304,309,310,318,2
304,308,309,317,2
305,303,308,315,2
305,294,306,313,2
305,282,305,311,2
306,267,305,311,2
308,254,305,311,2
310,243,306,313,2
312,237,306,314,2
313,236,307,313,2
313,242,308,312,2
313,256,309,311,2
311,273,310,312,2
309,292,311,313,2
306,310,310,313,2
304,325,308,314,2
303,337,305,315,2
302,345,304,316,2
302,350,303,317,2
303,352,302,317,2
304,352,303,318,2
305,346,303,318,2
306,335,303,317,2
307,322,303,316,2
307,308,302,313,2
307,294,303,310,2
307,285,304,307,2
307,282,305,306,2
306,286,306,305,2
304,295,306,306,2
303,308,305,306,2
301,319,303,305,2
300,327,302,305,2
300,332,302,305,2
301,336,302,305,2
303,340,303,305,2
304,342,305,307,2
304,340,305,310,2
303,334,305,313,2
302,327,305,316,2
302,317,304,318,2
304,306,303,319,2
306,297,303,318,2
309,289,303,316,2
310,283,304,313,2
311,278,306,310,2
311,273,306,308,2
312,269,306,306,2
312,264,305,305,2
313,259,305,305,2
315,255,306,305,2
317,251,307,306,2
318,250,308,305,2
318,255,308,304,2
316,267,308,305,2
315,283,309,308,2
315,303,310,310,2
315,320,311,314,2
314,331,312,316,2
314,337,312,319,2
313,337,312,320,2
311,334,311,320,2
309,330,309,319,2
307,328,308,319,2
307,324,306,319,2
305,319,304,317,2
304,312,302,314,2
303,304,300,313,2
303,296,300,311,2
306,287,301,310,2
308,278,302,310,2
310,271,304,309,2
312,265,305,308,2
312,262,306,308,2
311,262,306,310,2
309,265,307,312,2
308,274,308,315,2
307,287,308,317,2
307,300,309,319,2
308,311,310,321,2
307,319,309,322,2
307,323,308,320,2
305,324,308,318,2
304,324,307,316,2
304,322,307,314,2
303,319,306,314,2
303,314,306,314,2
304,308,306,314,2
305,304,307,313,2
307,299,308,312,2
308,296,308,308,2
309,294,308,305,2
309,294,307,304,2
310,295,306,303,2
310,299,306,304,2
311,304,306,306,2
312,309,306,308,2
312,310,306,310,2
312,308,306,311,2
311,306,306,312,2
310,306,306,313,2
307,306,306,314,2
306,304,306,314,2
305,303,306,314,2
306,301,306,313,2
307,298,306,312,2
307,294,305,310,2
307,288,304,307,2
307,284,303,304,2
307,281,303,302,2
307,280,304,301,2
308,282,307,300,2
309,286,309,300,2
309,290,309,301,2
307,293,307,301,2
305,295,306,302,2
304,298,305,304,2
303,305,305,305,2
302,313,306,307,2
302,320,307,308,2
302,326,307,309,2
301,327,307,309,2
299,325,307,310,2
298,321,307,310,2
296,317,308,311,2
296,310,309,311,2
295,299,310,311,2
295,287,311,311,2
295,279,311,310,2
296,276,309,309,2
299,278,308,308,2
302,283,307,308,2
306,290,308,308,2
309,296,308,309,2
311,300,310,309,2
312,304,310,310,2
312,308,312,311,2
312,312,313,313,2
312,314,314,313,2
312,314,315,313,2
312,312,316,313,2
312,311,316,312,2
312,309,317,311,2
313,309,316,310,2
313,310,314,308,2
313,311,312,307,2
313,313,310,307,2
312,315,309,308,2
310,314,308,309,2
308,312,307,309,2
306,307,307,308,2
305,301,306,306,2
306,295,306,306,2
307,289,307,306,2
307,284,309,307,2
308,280,311,307,2
309,279,313,306,2
310,279,314,306,2
310,280,315,306,2
310,283,314,307,2
309,288,312,306,2
308,292,310,306,2
307,296,308,305,2
306,297,307,303,2
306,297,305,301,2
305,296,304,301,2
305,298,304,301,2
305,301,305,302,2
307,302,307,302,2
308,298,308,302,2
309,290,310,302,2
309,281,311,301,2
310,274,312,301,2
311,271,313,302,2
312,273,313,304,2
311,281,312,305,2
311,289,313,307,2
311,297,313,309,2
311,303,312,310,2
310,306,311,309,2
309,308,310,308,2
308,310,310,307,2
306,310,309,306,2
304,308,309,305,2
302,304,309,304,2
300,300,309,303,2
300,295,310,303,2
301,292,312,302,2
303,289,313,302,2
306,288,314,301,2
310,288,313,300,2
313,294,313,300,2
315,303,312,300,2
313,309,312,300,2
310,311,311,300,2
307,311,312,301,2
305,310,313,303,2
304,310,313,304,2
304,310,313,306,2
304,310,312,307,2
305,307,310,307,2
305,303,308,305,2
305,300,307,304,2
304,298,306,302,2
304,295,305,300,2
304,293,304,299,2
304,293,304,299,2
305,294,304,299,2
305,295,304,299,2
305,295,305,300,2
305,295,305,302,2
306,293,306,303,2
307,294,306,303,2
306,296,306,303,2
306,298,306,303,2
306,300,306,305,2
306,303,307,308,2
306,305,308,310,2
305,306,308,312,2
305,306,307,313,2
304,305,306,313,2
304,302,306,313,2
304,297,305,313,2
304,294,306,312,2
305,292,305,312,2
306,292,305,310,2
307,295,304,309,2
308,297,304,307,2
309,297,303,305,2
308,294,302,302,2
307,291,300,300,2
306,289,299,298,2
305,291,298,299,2
304,295,297,299,2
301,302,298,300,2
300,309,298,302,2
300,314,300,305,2
301,314,304,307,2
303,311,307,309,2
305,305,310,311,2
307,299,312,312,2
308,293,312,312,2
308,288,313,312,2
309,282,314,311,2
311,277,317,311,2
313,275,321,310,2
316,278,324,311,2
318,287,327,312,2
317,298,325,312,2
315,311,321,312,2
312,323,316,313,2
309,333,311,314,2
308,339,307,313,2
306,343,304,313,2
307,345,302,313,2
307,343,301,311,2
307,336,301,308,2
307,325,303,306,2
307,315,305,305,2
308,307,307,306,2
309,304,309,308,2
310,305,310,310,2
311,309,311,311,2
313,313,311,311,2
313,317,311,310,2
311,317,309,308,2
309,315,307,306,2
306,310,305,304,2
304,304,303,303,2
303,299,302,302,2
302,295,302,302,2
302,292,303,303,2
302,289,304,305,2
302,288,304,306,2
303,286,306,309,2
305,284,307,311,2
306,280,308,312,2
308,278,309,313,2
309,277,309,314,2
309,277,307,313,2
308,279,306,312,2
307,283,304,312,2
306,292,303,313,2
305,300,302,313,2
303,305,300,312,2
302,304,300,311,2
302,300,300,309,2
301,293,301,308,2
301,286,303,306,2
302,278,304,305,2
303,273,305,304,2
304,271,305,303,2
307,273,305,302,2
309,276,305,301,2
312,277,304,301,2
314,277,304,302,2
315,278,305,304,2
315,284,305,305,2
313,294,305,308,2
309,307,305,309,2
305,321,305,310,2
303,332,305,311,2
302,339,305,311,2
302,344,305,311,2
302,344,305,311,2
303,339,304,310,2
304,334,305,309,2
305,329,305,309,2
306,323,305,308,2
307,316,305,307,2
307,310,305,306,2
306,307,306,307,2
306,306,307,307,2
305,305,308,309,2
306,305,311,310,2
306,303,312,312,2
307,300,314,311,2
308,295,314,311,2
310,289,312,311,2
312,285,310,312,2
312,284,307,313,2
310,287,304,314,2
307,295,303,314,2
303,303,302,314,2
300,307,301,312,2
299,307,300,311,2
299,305,300,308,2
300,302,301,307,2
303,301,302,307,2
305,302,302,307,2
306,305,302,306,2
306,307,303,307,2
306,308,303,307,2
306,306,304,308,2
307,305,305,309,2
308,303,306,311,2
308,301,306,311,2
308,301,306,311,2
307,306,306,311,2
307,310,306,310,2
306,308,306,310,2
305,298,305,308,2
305,288,304,306,2
305,280,303,304,2
305,275,302,304,2
304,275,301,303,2
304,280,300,302,2
302,287,299,303,2
301,294,299,304,2
300,300,298,304,2
299,306,299,305,2
299,312,300,305,2
299,316,302,306,2
300,317,305,307,2
302,315,309,308,2
304,309,312,308,2
305,304,312,307,2
307,300,311,308,2
308,297,310,308,2
309,296,310,309,2
310,297,310,310,2
310,299,309,311,2
310,303,308,313,2
309,307,307,313,2
308,311,305,312,2
306,314,305,311,2
305,316,304,310,2
305,315,304,309,2
305,313,305,308,2
304,308,306,307,2
303,303,306,306,2
302,298,307,304,2
302,293,307,305,2
302,287,308,306,2
302,282,309,308,2
302,280,310,309,2
303,281,312,311,2
304,284,313,312,2
305,289,315,314,2
306,295,317,314,2
307,301,318,315,2
308,306,317,315,2
308,310,314,315,2
308,313,311,315,2
307,312,308,312,2
306,310,306,309,2
305,305,304,306,2
304,299,302,303,2
304,293,302,301,2
304,287,302,301,2
306,281,303,300,2
307,275,304,302,2
308,271,305,304,2
309,270,306,306,2
309,274,307,309,2
308,283,308,311,2
307,294,309,311,2
306,306,310,311,2
306,316,310,312,2
306,322,310,313,2
306,326,309,314,2
305,328,309,315,2
306,327,309,315,2
306,324,310,315,2
307,317,310,313,2
306,309,309,310,2
305,300,307,305,2
302,293,305,300,2
300,288,302,297,2
299,286,300,295,2
298,287,299,293,2
297,292,298,293,2
298,299,297,295,2
299,304,297,297,2
301,302,298,301,2
303,297,300,304,2
303,292,303,307,2
302,290,306,311,2
301,292,309,313,2
301,295,311,315,2
302,298,313,315,2
302,302,314,314,2
303,306,314,312,2
303,310,314,309,2
303,312,313,306,2
303,310,312,303,2
302,308,310,301,2
302,306,309,299,2
301,305,307,299,2
301,303,307,299,2
302,301,306,299,2
302,300,306,300,2
303,301,306,301,2
303,304,308,303,2
303,309,310,305,2
302,312,311,308,2
301,313,312,310,2
300,313,313,311,2
299,313,313,311,2
299,313,312,311,2
299,312,311,310,2
300,308,311,308,2
300,304,310,306,2
299,300,309,305,2
298,300,308,304,2
299,303,309,303,2
300,310,309,303,2
302,316,310,304,2
304,321,310,304,2
307,322,309,302,2
308,322,308,302,2
308,322,308,302,2
308,320,308,304,2
309,319,309,306,2
309,316,311,308,2
310,312,312,311,2
311,306,313,312,2
311,299,314,313,2
310,292,314,312,2
310,283,313,312,2
310,275,314,311,2
310,270,314,310,2
311,270,314,310,2
312,275,314,309,2
312,284,314,308,2
312,295,313,307,2
311,309,312,305,2
309,321,310,303,2
307,330,308,302,2
305,334,306,301,2
305,333,306,301,2
305,330,307,302,2
305,326,307,303,2
305,321,308,304,2
305,317,309,305,2
307,312,310,307,2
309,307,312,309,2
310,303,313,311,2
311,300,313,313,2
312,298,314,314,2
313,294,314,314,2
314,290,313,314,2
313,287,312,312,2
311,287,310,309,2
309,290,308,305,2
307,296,306,303,2
306,303,305,303,2
306,309,305,302,2
306,313,305,302,2
306,313,304,300,2
306,312,304,298,2
306,310,304,296,2
306,309,304,294,2
306,308,304,292,2
308,308,304,293,2
309,309,304,296,2
309,310,304,299,2
309,308,304,303,2
310,303,305,307,2
310,294,305,310,2
308,283,306,311,2
305,273,306,312,2
302,267,306,311,2
299,264,307,309,2
298,267,308,307,2
298,278,310,305,2
298,295,311,304,2
298,313,310,302,2
298,326,309,300,2
298,335,307,297,2
299,339,306,296,2
299,339,306,295,2
300,336,306,296,2
301,332,306,297,2
301,326,307,298,2
302,319,308,300,2
303,310,309,302,2
304,300,311,303,2
305,290,313,304,2
306,282,314,305,2
307,276,314,307,2
307,273,315,309,2
307,274,315,310,2
307,279,314,311,2
306,286,313,311,2
305,293,312,311,2
305,298,310,310,2
305,304,309,309,2
305,307,309,308,2
306,307,308,307,2
307,304,308,307,2
308,300,308,306,2
308,296,309,305,2
307,293,309,304,2
307,296,310,304,2
307,304,311,305,2
308,315,312,307,2
308,325,313,307,2
308,333,313,308,2
307,338,312,307,2
307,340,309,307,2
307,341,307,306,2
307,338,306,305,2
308,333,306,305,2
309,325,306,305,2
310,314,307,304,2
310,303,307,304,2
310,293,306,303,2
309,286,306,302,2
309,282,305,302,2
309,282,305,302,2
308,288,304,303,2
307,298,303,305,2
306,310,302,307,2
305,321,302,308,2
305,332,302,307,2
304,342,303,307,2
304,348,305,306,2
304,346,307,307,2
304,338,308,307,2
305,327,308,308,2
305,315,308,308,2
305,303,308,308,2
305,293,307,308,2
304,286,306,306,2
304,282,305,304,2
303,281,304,301,2
302,281,303,298,2
302,280,303,295,2
302,277,303,293,2
303,273,304,293,2
305,267,306,293,2
308,261,307,295,2
310,256,308,296,2
310,255,308,297,2
310,261,308,298,2
309,275,307,299,2
308,292,306,301,2
307,308,306,303,2
306,321,307,305,2
306,329,307,306,2
307,333,307,307,2
308,334,308,308,2
309,331,309,308,2
309,326,308,307,2
309,320,308,305,2
309,314,307,304,2
308,308,307,302,2
307,301,306,299,2
306,293,305,297,2
305,287,305,296,2
305,283,304,296,2
305,280,304,297,2
305,279,305,298,2
306,281,305,299,2
306,286,306,302,2
306,296,307,304,2
306,309,308,307,2
305,320,308,308,2
305,327,310,309,2
306,329,311,310,2
305,328,314,311,2
305,324,316,311,2
305,319,318,311,2
305,313,319,309,2
304,306,317,307,2
303,300,312,304,2
303,295,308,302,2
303,292,305,299,2
303,292,303,298,2
303,294,301,297,2
304,299,301,297,2
305,304,301,297,2
306,311,300,298,2
308,316,300,299,2
309,320,300,301,2
311,320,300,302,2
312,319,300,303,2
313,316,301,305,2
314,313,302,308,2
315,310,303,310,2
314,309,304,311,2
313,307,305,311,2
312,305,306,310,2
310,301,307,310,2
310,293,307,310,2
311,283,308,311,2
312,272,309,312,2
313,264,309,311,2
313,260,310,309,2
313,265,311,307,2
312,276,312,305,2
311,293,311,304,2
309,310,310,303,2
307,323,308,304,2
305,330,307,305,2
303,330,306,307,2
303,328,306,307,2
303,325,306,307,2
304,321,306,307,2
305,315,307,306,2
305,307,307,306,2
306,300,307,307,2
307,292,308,307,2
309,287,308,308,2
310,284,308,309,2
310,280,307,309,2
309,277,306,309,2
308,278,304,310,2
307,283,303,311,2
305,292,302,311,2
304,301,301,311,2
304,308,301,310,2
304,315,301,310,2
304,321,301,311,2
305,325,302,312,2
306,328,302,313,2
308,330,303,314,2
310,329,304,315,2
312,326,305,316,2
313,323,306,316,2
313,319,306,316,2
312,314,306,315,2
311,309,306,313,2
309,307,306,312,2
308,305,305,312,2
308,303,305,310,2
307,302,304,309,2
306,301,303,307,2
306,301,303,305,2
306,301,302,304,2
307,300,302,304,2
308,296,302,304,2
308,291,303,305,2
308,285,303,306,2
308,281,303,307,2
308,280,304,308,2
308,281,304,308,2
307,286,304,308,2
307,295,303,308,2
305,306,303,308,2
304,316,301,308,2
302,321,300,308,2
300,321,299,306,2
300,317,299,305,2
300,311,301,303,2
302,303,304,302,2
304,296,307,301,2
306,291,309,300,2
308,289,309,300,2
309,291,309,301,2
310,296,309,303,2
312,302,309,304,2
313,309,309,305,2
313,314,310,307,2
313,318,311,309,2
314,319,312,312,2
314,318,312,315,2
313,315,312,316,2
313,313,312,316,2
312,312,311,314,2
311,311,310,312,2
310,312,308,309,2
308,316,307,307,2
306,323,306,306,2
305,330,305,306,2
304,334,305,307,2
304,333,304,306,2
302,326,304,304,2
301,315,303,302,2
301,303,302,302,2
301,294,302,303,2
301,289,303,306,2
303,290,305,309,2
306,293,306,311,2
309,297,308,312,2
311,299,309,313,2
314,301,310,312,2
315,303,311,312,2
317,305,312,312,2
317,307,312,312,2
316,308,313,312,2
314,310,313,312,2
312,312,313,312,2
309,311,312,311,2
305,308,310,308,2
301,304,308,306,2
298,299,306,305,2
297,295,305,304,2
296,290,304,304,2
295,286,304,302,2
295,282,304,301,2
294,278,304,299,2
293,274,303,299,2
293,270,303,299,2
293,266,303,301,2
294,266,303,302,2
295,270,304,304,2
296,279,304,307,2
297,289,304,309,2
297,299,305,312,2
297,307,305,314,2
298,314,305,315,2
298,320,305,315,2
299,324,304,314,2
300,326,303,313,2
300,326,302,311,2
302,325,300,310,2
303,322,299,309,2
304,317,298,308,2
305,309,298,308,2
306,299,298,308,2
306,290,298,309,2
306,282,299,311,2
305,278,299,313,2
305,280,300,314,2
304,288,301,316,2
303,299,303,317,2
302,309,304,318,2
301,316,304,318,2
301,319,304,317,2
301,318,304,316,2
302,316,303,315,2
302,314,304,313,2
303,309,303,312,2
304,303,303,311,2
304,297,302,310,2
304,292,302,308,2
305,290,302,307,2
305,293,302,305,2
305,298,303,305,2
304,306,304,304,2
304,314,306,304,2
304,319,308,305,2
305,322,311,306,2
306,323,312,308,2
306,322,311,310,2
305,320,307,310,2
304,316,304,311,2
302,314,301,310,2
301,313,299,310,2
301,314,299,310,2
301,313,299,310,2
301,312,298,308,2
300,311,297,305,2
300,309,296,303,2
299,307,296,300,2
298,304,296,298,2
298,297,297,296,2
299,289,298,295,2
301,281,299,295,2
302,274,299,296,2
303,268,298,297,2
304,264,297,299,2
305,265,295,301,2
306,271,295,303,2
306,280,296,305,2
307,291,299,306,2
307,300,302,308,2
307,306,305,311,2
307,307,307,312,2
308,304,307,314,2
308,298,307,317,2
308,290,305,319,2
308,285,303,320,2
308,283,302,320,2
308,286,300,319,2
305,294,297,315,2
303,306,294,310,2
301,318,291,306,2
299,325,290,303,2
299,326,291,301,2
299,324,294,300,2
300,318,297,300,2
301,313,301,300,2
301,309,305,301,2
301,311,307,302,2
300,315,307,303,2
300,320,306,303,2
300,323,305,304,2
300,325,304,304,2
300,327,305,305,2
301,329,306,306,2
303,331,307,307,2
303,328,307,306,2
304,323,307,305,2
304,318,306,303,2
303,317,304,302,2
302,317,304,301,2
302,316,303,299,2
301,313,302,299,2
301,308,303,299,2
300,302,303,299,2
298,298,304,301,2
297,297,306,303,2
296,297,308,306,2
297,300,310,308,2
299,301,311,310,2
301,301,310,311,2
302,300,308,312,2
303,298,307,311,2
303,295,306,310,2
304,290,305,308,2
303,286,304,306,2
303,283,303,304,2
302,284,302,302,2
301,286,301,300,2
300,291,300,298,2
299,296,300,298,2
299,300,300,298,2
299,300,300,299,2
299,295,301,298,2
300,283,302,297,2
302,268,303,297,2
303,253,304,296,2
305,242,306,298,2
306,239,307,301,2
307,247,308,304,2
307,264,307,307,2
306,287,306,308,2
304,311,304,309,2
302,330,302,310,2
300,342,301,311,2
299,347,299,310,2
298,346,299,308,2
298,342,299,306,2
298,338,300,304,2
298,332,301,303,2
299,327,302,302,2
299,322,302,301,2
299,315,302,301,2
299,308,303,300,2
300,302,303,301,2
301,296,304,301,2
303,294,305,303,2
304,295,306,304,2
305,300,306,305,2
306,306,307,307,2
306,310,307,309,2
306,313,306,310,2
306,314,306,311,2
307,314,305,311,2
306,315,304,310,2
305,314,303,308,2
305,314,302,306,2
304,314,302,304,2
304,313,302,302,2
304,310,302,301,2
304,305,303,301,2
304,298,303,303,2
305,288,303,305,2
305,277,304,307,2
306,266,304,309,2
307,258,304,310,2
307,254,304,310,2
307,253,302,310,2
306,257,301,309,2
304,267,301,309,2
303,281,301,308,2
301,296,302,308,2
300,307,304,307,2
299,313,304,306,2
298,314,303,304,2
298,313,301,303,2
298,310,299,302,2
299,305,298,301,2
299,303,297,300,2
299,305,295,299,2
299,311,294,299,2
300,318,293,300,2
300,322,292,300,2
301,322,291,301,2
301,317,292,301,2
302,311,293,302,2
302,305,294,302,2
302,299,296,303,2
303,297,299,304,2
303,298,302,305,2
302,302,304,306,2
302,306,304,307,2
301,313,304,308,2
301,318,303,308,2
300,321,303,307,2
300,321,303,305,2
299,319,303,303,2
298,315,304,301,2
299,310,305,301,2
299,305,306,301,2
299,300,305,301,2
300,297,304,302,2
300,298,303,304,2
301,300,303,306,2
302,303,304,308,2
303,306,304,309,2
304,307,305,309,2
306,306,306,309,2
307,303,308,309,2
308,300,309,310,2
310,297,310,310,2
311,295,310,310,2
312,294,309,309,2
311,294,307,308,2
310,295,306,307,2
308,297,306,306,2
306,299,306,305,2
305,303,306,304,2
303,307,306,302,2
302,312,305,300,2
302,317,304,299,2
302,321,304,299,2
304,322,303,298,2
307,318,303,298,2
310,312,303,298,2
312,307,304,299,2
314,305,305,300,2
316,305,306,303,2
318,307,306,305,2
318,308,306,305,2
317,309,306,305,2
315,308,305,304,2
312,307,305,304,2
310,305,305,304,2
307,302,305,304,2
305,296,304,303,2
302,287,304,302,2
301,278,304,300,2
300,270,304,299,2
301,265,304,299,2
302,263,305,299,2
303,263,306,299,2
303,267,308,299,2
304,272,308,299,2
304,276,307,299,2
304,278,306,300,2
305,279,304,302,2
306,282,304,304,2
307,286,304,306,2
309,292,304,307,2
309,300,303,308,2
309,310,302,309,2
308,319,301,308,2
307,326,300,306,2
306,329,299,304,2
306,330,300,303,2
307,329,302,302,2
308,329,305,302,2
309,330,307,303,2
310,331,309,304,2
310,331,310,305,2
310,328,310,306,2
310,322,310,305,2
311,313,311,306,2
312,303,311,307,2
312,292,313,308,2
313,282,314,309,2
312,276,314,310,2
311,278,315,311,2
309,288,314,312,2
308,302,313,313,2
306,317,312,313,2
304,328,311,313,2
303,336,310,313,2
303,340,310,314,2
303,341,309,314,2
302,338,308,313,2
302,334,306,311,2
302,329,305,309,2
301,324,304,307,2
301,319,304,306,2
302,315,304,305,2
303,313,304,305,2
303,310,305,305,2
304,307,304,304,2
303,306,305,305,2
304,306,305,306,2
304,308,307,309,2
306,309,310,311,2
307,309,314,312,2
309,310,317,314,2
309,310,319,314,2
309,309,318,314,2
308,310,315,314,2
308,310,311,313,2
307,310,308,312,2
307,308,307,310,2
307,305,306,309,2
307,297,306,306,2
307,284,307,304,2
308,269,307,303,2
309,255,308,302,2
310,245,308,303,2
311,243,308,304,2
312,249,309,304,2
312,265,308,306,2
311,286,307,307,2
310,304,306,309,2
309,318,306,310,2
308,327,306,310,2
307,331,305,310,2
307,332,305,310,2
308,331,305,309,2
308,330,305,309,2
309,329,305,310,2
309,328,305,311,2
309,324,305,311,2
308,318,305,311,2
307,312,304,312,2
306,309,304,310,2
305,308,303,309,2
305,309,303,307,2
306,307,302,304,2
306,305,302,301,2
307,302,303,300,2
309,299,304,300,2
310,298,305,302,2
311,298,307,305,2
312,300,307,307,2
311,303,307,308,2
311,305,307,308,2
311,305,307,307,2
312,305,307,306,2
312,305,307,305,2
311,304,306,304,2
310,303,306,303,2
309,303,305,302,2
307,304,304,301,2
306,308,304,301,2
305,311,304,301,2
304,312,304,301,2
304,311,304,302,2
305,309,305,303,2
306,304,307,305,2
307,297,308,306,2
308,289,309,306,2
309,281,309,307,2
310,277,309,307,2
311,277,310,309,2
312,280,310,310,2
312,285,311,311,2
312,290,311,311,2
311,295,310,311,2
311,298,311,311,2
311,301,311,310,2
310,304,310,310,2
310,310,310,309,2
310,317,309,309,2
310,324,309,309,2
310,329,307,308,2
310,331,307,308,2
310,328,307,309,2
310,321,307,309,2
309,310,307,308,2
309,299,307,308,2
308,294,307,308,2
308,292,307,308,2
308,291,307,309,2
308,292,306,310,2
309,294,305,311,2
308,297,303,312,2
308,300,301,312,2
307,303,299,312,2
306,306,297,311,2
305,310,296,310,2
304,314,296,309,2
304,317,297,309,2
304,319,299,309,2
304,318,303,310,2
305,316,307,310,2
306,312,310,311,2
307,312,311,313,2
308,314,311,314,2
309,315,310,316,2
310,313,309,318,2
311,309,309,319,2
312,305,309,319,2
312,301,309,318,2
312,298,309,317,2
312,298,308,315,2
311,298,308,314,2
311,299,307,313,2
311,300,307,313,2
310,300,307,312,2
309,299,308,311,2
308,298,307,311,2
307,296,307,310,2
305,293,306,310,2
305,287,305,310,2
305,280,305,310,2
306,272,305,309,2
308,268,306,307,2
309,270,307,305,2
310,280,307,304,2
310,298,306,304,2
308,320,306,304,2
306,341,305,305,2
303,354,304,308,2
302,361,304,310,2
301,360,305,311,2
302,354,306,311,2
303,344,307,311,2
304,334,307,310,2
306,325,306,308,2
307,318,306,306,2
308,315,306,305,2
309,316,306,306,2
310,319,305,307,2
310,324,305,307,2
310,328,305,308,2
309,330,304,307,2
309,330,304,307,2
309,329,304,305,2
309,329,304,304,2
308,329,304,303,2
307,329,305,304,2
307,329,305,305,2
307,328,305,306,2
307,327,305,307,2
307,324,306,308,2
308,319,306,308,2
309,312,307,309,2
310,303,307,309,2
311,296,308,310,2
313,289,308,311,2
314,283,309,311,2
315,279,309,311,2
315,277,308,310,2
314,280,307,310,2
314,287,306,309,2
313,293,306,308,2
313,300,305,307,2
312,308,304,306,2
311,316,304,306,2
310,324,304,306,2
309,330,304,306,2
309,333,305,307,2
308,334,308,307,2
308,330,310,307,2
308,321,313,307,2
308,310,314,306,2
308,299,315,305,2
308,289,316,305,2
309,281,315,305,2
309,276,315,304,2
309,274,315,304,2
309,276,315,304,2
308,280,315,304,2
308,287,314,304,2
309,291,314,303,2
309,291,313,303,2
310,291,312,303,2
311,294,312,302,2
311,301,311,301,2
310,308,311,300,2
309,315,311,299,2
308,320,311,299,2
307,324,311,300,2
307,329,312,302,2
307,331,312,306,2
306,329,314,310,2
306,326,315,312,2
306,322,316,314,2
306,318,316,315,2
306,316,317,315,2
306,316,318,314,2
307,318,318,314,2
308,321,317,313,2
308,323,316,312,2
307,320,313,311,2
305,314,310,310,2
304,307,308,311,2
304,300,307,311,2
305,294,308,312,2
305,291,309,312,2
306,291,310,311,2
306,296,311,311,2
306,303,311,311,2
306,308,310,310,2
305,311,309,308,2
304,312,308,307,2
304,313,308,307,2
304,313,307,307,2
304,315,306,306,2
304,317,305,306,2
304,319,305,303,2
304,320,304,301,2
303,318,303,299,2
303,313,303,298,2
303,307,304,298,2
303,300,304,298,2
303,294,304,298,2
303,289,304,298,2
304,285,304,299,2
304,284,305,299,2
305,288,305,299,2
305,295,306,299,2
304,303,305,299,2
304,309,304,300,2
304,314,303,300,2
304,317,301,300,2
304,319,301,300,2
305,321,301,300,2
306,323,302,301,2
306,325,304,302,2
306,326,305,303,2
305,325,305,302,2
305,325,304,301,2
304,326,303,300,2
303,326,304,300,2
302,323,305,299,2
302,319,306,299,2
302,312,308,299,2
302,305,309,298,2
302,299,310,298,2
304,295,311,298,2
305,292,312,298,2
307,288,313,300,2
308,280,315,302,2
309,271,316,305,2
311,264,317,308,2
312,262,318,309,2
313,265,317,311,2
314,273,318,311,2
315,286,317,312,2
315,303,316,312,2
313,321,314,312,2
311,337,311,312,2
309,347,309,310,2
306,350,307,307,2
305,350,305,304,2
304,346,304,301,2
304,341,304,299,2
305,335,304,298,2
306,330,305,298,2
306,327,306,299,2
307,325,308,301,2
308,326,311,304,2
310,326,313,307,2
311,325,314,308,2
311,322,314,309,2
310,319,313,310,2
309,314,311,311,2
309,310,310,312,2
308,305,309,313,2
308,302,310,313,2
307,299,310,311,2
307,297,310,308,2
306,297,309,305,2
306,299,307,302,2
306,303,306,300,2
307,307,305,299,2
307,309,305,298,2
307,309,305,297,2
307,304,307,298,2
307,295,308,298,2
308,283,310,299,2
308,271,311,300,2
309,261,311,301,2
310,256,311,302,2
311,260,312,303,2
311,272,311,304,2
310,288,310,304,2
309,305,308,303,2
306,317,306,301,2
303,321,304,299,2
301,320,302,298,2
299,313,301,297,2
299,305,301,297,2
300,295,302,298,2
302,285,304,299,2
304,276,307,299,2
305,271,308,300,2
306,271,308,301,2
306,276,309,302,2
305,285,310,304,2
305,295,310,307,2
305,305,311,309,2
306,316,311,312,2
305,328,311,314,2
305,337,310,316,2
305,343,310,316,2
306,345,308,314,2
306,343,307,311,2
307,341,306,308,2
308,338,305,306,2
309,335,306,304,2
310,333,305,303,2
310,330,305,301,2
309,328,305,300,2
308,325,304,299,2
308,321,303,298,2
307,316,303,298,2
307,309,304,299,2
307,299,306,300,2
307,287,307,302,2
308,275,308,304,2
307,262,308,304,2
307,251,308,304,2
307,244,308,305,2
308,242,309,307,2
308,247,309,310,2
308,261,309,313,2
307,282,310,314,2
307,306,309,314,2
305,329,308,313,2
304,347,307,312,2
302,357,306,310,2
302,360,305,307,2
301,360,305,305,2
301,356,305,303,2
301,351,306,302,2
302,346,307,301,2
302,341,308,302,2
303,336,309,303,2
305,333,309,304,2
306,329,310,306,2
307,325,311,308,2
306,320,312,309,2
306,316,313,310,2
306,311,313,311,2
307,307,313,311,2
307,305,313,311,2
308,305,312,310,2
307,305,311,309,2
307,303,309,308,2
307,295,308,306,2
306,283,308,305,2
306,271,308,303,2
305,259,308,301,2
305,252,308,299,2
305,251,309,299,2
305,256,310,300,2
305,267,310,302,2
304,279,310,303,2
303,292,308,304,2
301,301,307,306,2
300,308,305,308,2
300,314,304,309,2
300,318,305,311,2
301,318,306,311,2
302,314,307,312,2
303,309,310,312,2
304,304,312,312,2
305,300,314,313,2
305,296,315,312,2
306,291,314,311,2
307,286,313,309,2
306,282,312,306,2
306,280,311,304,2
306,280,310,303,2
306,282,311,302,2
306,289,311,301,2
306,298,310,300,2
305,308,310,300,2
304,315,310,301,2
304,322,311,302,2
303,328,310,304,2
301,333,310,306,2
299,335,310,308,2
298,335,310,310,2
299,334,310,312,2
300,331,311,313,2
302,329,311,314,2
303,327,312,313,2
303,327,312,313,2
303,328,312,312,2
303,330,311,310,2
302,330,310,309,2
302,329,308,307,2
301,327,307,304,2
301,323,307,303,2
301,319,307,303,2
302,314,308,304,2
304,308,309,306,2
306,303,311,308,2
309,295,314,310,2
311,285,316,313,2
313,274,317,313,2
313,267,317,314,2
311,267,316,314,2
309,271,314,314,2
306,279,311,313,2
303,286,308,313,2
301,292,306,314,2
299,296,305,314,2
299,300,304,314,2
298,307,303,314,2
298,315,303,314,2
299,321,302,314,2
301,323,303,315,2
303,323,304,315,2
304,320,305,315,2
305,316,306,314,2
306,313,308,312,2
308,313,309,312,2
309,317,310,312,2
309,324,309,313,2
308,325,308,313,2
306,322,306,312,2
304,316,304,312,2
302,312,303,311,2
301,311,302,312,2
300,316,301,312,2
299,321,300,311,2
299,326,300,309,2
300,329,299,308,2
300,331,299,306,2
299,328,298,304,2
299,324,298,302,2
299,320,299,303,2
301,318,301,303,2
302,316,303,305,2
303,314,305,306,2
304,311,307,306,2
304,308,309,306,2
305,306,311,308,2
306,304,313,310,2
305,301,313,312,2
304,299,311,314,2
304,300,309,316,2
304,302,307,317,2
304,303,306,318,2
305,304,305,318,2
305,304,305,318,2
304,303,304,317,2
303,301,303,316,2
301,297,302,316,2
298,291,301,315,2
297,283,300,313,2
297,275,299,312,2
298,268,300,311,2
299,263,302,310,2
301,261,303,310,2
302,265,305,309,2
303,276,306,309,2
304,294,307,309,2
305,314,307,310,2
305,331,307,310,2
305,339,307,311,2
303,340,306,310,2
302,336,305,309,2
302,328,304,308,2
302,319,303,308,2
304,310,304,308,2
306,302,304,308,2
308,295,304,308,2
310,288,304,307,2
310,282,303,307,2
310,282,302,305,2
309,287,302,305,2
307,297,302,305,2
306,307,302,306,2
303,315,303,307,2
300,320,304,308,2
298,323,305,311,2
298,324,306,314,2
299,325,307,316,2
301,328,308,317,2
303,332,308,318,2
305,337,308,318,2
307,338,306,316,2
308,333,305,314,2
308,324,303,311,2
308,315,302,308,2
309,307,301,305,2
309,302,300,304,2
310,301,300,301,2
309,305,299,300,2
310,310,299,299,2
310,313,299,299,2
310,315,299,299,2
311,313,299,299,2
311,307,299,299,2
312,300,301,300,2
313,293,302,302,2
312,287,303,303,2
312,284,304,305,2
310,285,305,307,2
308,291,305,308,2
306,301,307,309,2
304,311,309,311,2
303,318,310,311,2
302,322,308,310,2
302,325,307,309,2
302,328,306,307,2
302,329,305,306,2
303,328,305,304,2
303,325,305,303,2
303,320,304,302,2
304,311,305,300,2
304,300,306,299,2
305,289,306,298,2
305,280,306,298,2
305,275,305,297,2
305,274,304,297,2
306,278,303,298,2
306,285,303,300,2
307,295,304,302,2
308,304,305,305,2
308,310,307,307,2
307,313,307,309,2
306,314,308,309,2
305,315,308,309,2
304,318,307,307,2
303,322,306,306,2
301,327,305,304,2
301,329,304,303,2
300,328,303,301,2
299,324,304,301,2
300,319,306,301,2
302,313,309,302,2
304,307,312,302,2
306,298,314,303,2
307,289,314,303,2
308,282,314,305,2
308,278,312,307,2
307,278,310,309,2
307,282,307,312,2
307,290,306,314,2
307,301,304,315,2
306,312,304,315,2
307,320,304,314,2
306,325,304,313,2
306,327,304,311,2
305,325,304,309,2
304,321,303,306,2
303,315,302,304,2
303,307,300,303,2
303,298,300,301,2
303,290,299,300,2
302,285,299,300,2
303,281,298,300,2
302,279,298,299,2
302,278,299,299,2
302,278,299,300,2
303,276,299,301,2
303,274,300,302,2
305,272,301,304,2
307,273,301,305,2
309,276,302,307,2
310,281,302,307,2
309,285,302,307,2
309,291,302,307,2
308,301,303,307,2
307,312,304,307,2
306,321,306,307,2
305,325,307,308,2
304,326,308,308,2
303,328,307,308,2
303,329,306,308,2
303,327,305,307,2
303,322,305,307,2
303,316,305,306,2
304,312,306,306,2
305,309,307,307,2
305,307,308,308,2
306,305,310,309,2
306,303,311,311,2
306,303,312,314,2
306,304,313,315,2
307,305,314,315,2
308,304,314,313,2
310,302,314,310,2
310,303,314,307,2
311,309,314,304,2
312,316,313,303,2
313,324,312,304,2
314,329,311,305,2
313,330,309,305,2
311,327,306,305,2
308,323,304,303,2
305,319,303,303,2
303,317,304,303,2
301,315,305,304,2
300,315,306,306,2
299,315,308,308,2
298,316,309,309,2
298,316,309,309,2
298,315,309,309,2
299,312,309,309,2
301,306,310,309,2
302,299,310,309,2
303,292,310,309,2
304,286,310,308,2
305,282,309,307,2
306,283,309,306,2
306,288,308,305,2
306,296,307,303,2
305,305,305,302,2
305,312,304,301,2
304,316,303,301,2
304,316,302,301,2
303,314,302,301,2
302,309,302,302,2
301,305,302,304,2
300,301,303,305,2
300,297,304,306,2
300,294,305,307,2
300,292,305,307,2
300,292,306,308,2
299,291,306,309,2
298,291,305,309,2
298,294,305,309,2
297,302,304,309,2
295,313,303,309,2
294,323,301,307,2
293,330,299,305,2
292,333,298,304,2
293,335,298,303,2
293,333,299,302,2
294,330,300,301,2
295,324,302,300,2
296,318,305,300,2
298,311,308,301,2
300,304,309,303,2
301,298,309,304,2
301,289,307,306,2
302,282,305,307,2
303,277,305,309,2
304,277,306,310,2
305,284,307,312,2
305,296,307,312,2
304,309,306,313,2
303,320,306,312,2
302,327,305,312,2
302,330,304,310,2
301,330,303,308,2
301,329,302,306,2
301,327,302,305,2
302,325,302,304,2
303,323,302,304,2
302,320,303,305,2
302,318,303,305,2
302,317,304,306,2
303,315,304,307,2
303,312,305,307,2
304,308,306,307,2
304,302,306,306,2
305,296,307,306,2
305,291,308,306,2
305,286,309,306,2
305,282,309,307,2
305,279,309,307,2
304,275,308,307,2
303,273,305,306,2
302,274,303,307,2
303,277,301,306,2
303,280,301,306,2
304,283,300,305,2
304,285,301,303,2
305,286,301,301,2
305,289,302,299,2
306,296,302,299,2
306,305,303,300,2
307,317,304,301,2
307,326,304,303,2
307,328,304,303,2
307,324,304,304,2
308,315,305,305,2
308,308,305,306,2
308,303,305,306,2
309,301,306,308,2
310,299,306,309,2
310,297,306,310,2
310,299,305,309,2
309,301,304,308,2
309,302,304,307,2
309,301,303,305,2
310,299,303,303,2
311,297,303,302,2
311,297,303,301,2
312,300,303,300,2
312,305,302,301,2
311,311,302,302,2
310,316,301,304,2
308,320,301,307,2
306,323,301,309,2
304,323,301,310,2
303,321,300,310,2
302,316,300,309,2
303,310,300,309,2
304,302,301,309,2
306,291,303,310,2
308,280,306,309,2
310,270,309,308,2
310,264,311,307,2
310,263,312,305,2
309,266,311,304,2
308,275,308,302,2
307,289,305,302,2
306,305,302,301,2
305,317,301,301,2
304,324,300,301,2
304,324,300,301,2
305,319,301,302,2
306,313,303,303,2
307,308,304,305,2
308,307,306,307,2
309,307,308,310,2
310,305,310,312,2
311,300,312,313,2
311,292,313,313,2
313,284,313,313,2
314,278,313,312,2
315,276,312,312,2
315,279,312,311,2
315,288,311,311,2
314,299,310,310,2
313,308,309,310,2
311,313,308,309,2
310,315,307,309,2
308,316,307,308,2
307,319,307,308,2
305,324,307,309,2
304,330,308,310,2
304,334,311,312,2
304,337,313,313,2
306,337,315,314,2
307,335,316,315,2
307,330,315,314,2
307,324,312,313,2
306,318,308,311,2
306,313,303,309,2
306,309,300,308,2
306,308,297,309,2
306,309,294,310,2
306,309,293,311,2
306,308,293,310,2
306,307,294,310,2
306,306,296,308,2
306,304,298,306,2
306,302,302,305,2
306,302,304,304,2
307,303,306,305,2
308,303,307,307,2
308,301,308,310,2
309,297,308,313,2
309,290,309,315,2
310,283,309,315,2
310,277,309,314,2
310,273,309,312,2
309,273,308,310,2
309,277,307,308,2
309,284,306,306,2
309,289,305,304,2
309,291,304,302,2
308,292,303,300,2
307,294,302,299,2
308,298,302,299,2
308,304,302,299,2
308,311,302,299,2
309,317,303,300,2
309,318,304,301,2
309,318,305,302,2
309,314,306,303,2
308,311,306,303,2
308,309,306,305,2
308,310,306,306,2
308,314,306,307,2
308,320,306,308,2
309,325,307,309,2
309,329,308,309,2
309,328,307,308,2
309,326,307,307,2
309,320,305,306,2
309,311,304,304,2
309,300,304,303,2
309,293,303,301,2
309,291,302,300,2
309,293,302,300,2
309,297,302,300,2
309,301,303,300,2
309,304,304,300,2
308,307,307,300,2
309,310,309,301,2
309,312,312,302,2
310,311,313,302,2
310,310,312,303,2
311,310,310,304,2
312,310,309,305,2
313,311,307,305,2
313,315,307,305,2
314,320,306,306,2
315,326,306,307,2
315,327,306,309,2
314,323,306,309,2
312,317,305,308,2
311,313,304,309,2
309,310,304,309,2
307,308,304,309,2
304,305,303,307,2
303,302,302,305,2
302,299,300,303,2
302,299,299,303,2
302,301,299,303,2
303,304,298,304,2
304,309,298,305,2
305,311,298,305,2
306,312,298,306,2
307,311,298,305,2
308,311,298,305,2
307,312,297,304,2
306,310,296,304,2
305,306,296,305,2
306,301,297,307,2
308,294,300,309,2
309,288,302,312,2
310,282,305,312,2
312,276,306,312,2
312,273,306,311,2
312,275,306,311,2
312,281,306,311,2
313,289,307,310,2
313,299,308,309,2
314,312,311,308,2
316,324,312,306,2
317,330,311,304,2
316,330,309,302,2
313,326,306,302,2
310,319,304,301,2
307,311,301,301,2
303,305,299,300,2
300,302,296,299,2
298,303,294,299,2
297,304,294,299,2
297,304,295,299,2
298,303,295,300,2
299,301,297,301,2
301,298,297,301,2
303,295,298,302,2
304,298,300,302,2
306,304,302,303,2
308,313,304,303,2
310,320,306,303,2
311,326,307,303,2
312,327,308,303,2
312,326,309,305,2
312,323,310,307,2
310,320,310,308,2
308,317,310,308,2
306,313,310,308,2
303,307,309,308,2
301,303,309,308,2
299,302,308,308,2
299,304,307,307,2
299,310,306,306,2
299,316,303,305,2
299,321,301,305,2
300,326,298,305,2
300,329,297,305,2
300,330,296,304,2
300,328,295,303,2
299,323,295,302,2
298,317,295,299,2
298,309,296,298,2
298,303,298,298,2
299,298,301,298,2
301,290,305,299,2
302,279,308,300,2
303,267,310,300,2
305,257,310,301,2
307,252,311,301,2
308,254,310,301,2
308,262,308,299,2
307,273,306,298,2
306,287,303,297,2
305,299,302,297,2
306,311,301,298,2
306,318,301,300,2
306,322,302,301,2
305,321,302,303,2
304,319,304,305,2
302,317,305,307,2
300,318,306,308,2
300,323,307,309,2
299,331,308,309,2
300,339,309,309,2
301,343,309,308,2
302,343,309,307,2
302,338,310,306,2
303,330,310,305,2
304,322,310,305,2
304,313,311,305,2
305,306,312,305,2
306,303,313,304,2
306,304,314,304,2
305,308,314,305,2
304,313,313,305,2
303,317,311,305,2
303,320,309,305,2
303,321,308,305,2
303,319,307,305,2
303,314,307,305,2
303,308,307,306,2
304,304,307,306,2
304,303,309,308,2
304,303,310,309,2
304,300,312,310,2
304,296,313,312,2
305,293,313,313,2
306,293,313,315,2
307,296,312,316,2
307,302,311,316,2
307,307,309,314,2
306,310,308,311,2
305,311,307,309,2
304,312,306,307,2
303,315,305,306,2
303,320,305,305,2
303,323,305,305,2
304,322,305,304,2
304,317,304,304,2
304,311,304,303,2
305,304,303,304,2
306,298,304,306,2
308,292,306,308,2
310,288,310,310,2
312,288,313,313,2
313,292,315,316,2
314,298,316,318,2
314,302,316,319,2
312,305,315,317,2
310,306,313,315,2
308,308,311,312,2
306,311,310,309,2
305,315,309,307,2
304,320,308,306,2
304,323,308,306,2
304,323,308,306,2
303,321,308,306,2
302,319,308,305,2
300,316,307,305,2
298,312,306,304,2
297,309,305,303,2
297,306,304,303,2
298,302,303,303,2
299,297,302,303,2
299,292,301,304,2
300,288,300,303,2
299,286,299,302,2
300,284,300,302,2
302,282,302,303,2
305,281,304,305,2
308,281,305,308,2
310,282,307,309,2
311,285,307,311,2
312,290,308,312,2
313,298,308,313,2
313,305,309,313,2
312,306,309,310,2
310,303,308,308,2
306,298,308,307,2
302,296,308,307,2
299,297,307,307,2
296,302,307,309,2
295,310,306,310,2
293,318,306,309,2
293,325,305,309,2
293,329,305,309,2
294,331,305,309,2
295,331,305,309,2
296,328,305,309,2
296,325,305,308,2
296,320,305,307,2
297,315,304,306,2
298,308,304,306,2
301,302,304,306,2
304,295,304,305,2
307,287,303,305,2
310,280,303,305,2
312,275,303,304,2
314,273,303,304,2
317,274,302,304,2
319,279,301,304,2
321,287,301,306,2
322,296,301,307,2
323,301,302,306,2
323,303,303,305,2
322,304,307,304,2
320,307,310,302,2
317,312,313,301,2
311,317,314,300,2
305,320,313,300,2
300,320,309,299,2
296,319,307,300,2
294,316,305,302,2
295,312,305,304,2
296,303,304,307,2
297,290,304,310,2
299,278,305,313,2
302,268,307,314,2
304,263,308,315,2
306,262,308,316,2
307,267,309,316,2
308,280,309,315,2
307,298,309,316,2
306,316,309,315,2
304,330,308,315,2
302,337,308,315,2
302,341,307,315,2
301,342,306,314,2
301,340,306,313,2
301,337,305,311,2
301,333,305,308,2
301,329,304,305,2
301,325,304,302,2
301,320,303,301,2
301,315,304,300,2
302,308,304,299,2
303,301,304,298,2
303,295,303,297,2
304,291,303,296,2
305,289,303,296,2
306,293,303,298,2
307,299,305,301,2
308,304,307,304,2
309,310,309,306,2
308,317,311,308,2
307,322,312,309,2
305,323,312,309,2
303,321,309,309,2
303,318,307,308,2
303,313,304,308,2
302,308,302,307,2
301,303,300,306,2
301,299,299,306,2
301,296,299,305,2
301,294,299,305,2
300,292,299,304,2
300,289,300,303,2
299,285,300,301,2
298,280,300,299,2
298,274,302,298,2
298,270,304,299,2
299,268,307,301,2
301,270,309,303,2
303,277,310,305,2
304,289,309,307,2
304,305,309,310,2
305,323,308,312,2
306,339,307,314,2
306,348,307,315,2
306,349,306,316,2
305,344,306,317,2
305,337,305,316,2
304,331,305,314,2
303,326,304,312,2
302,319,304,309,2
301,311,303,307,2
301,303,302,305,2
301,295,302,304,2
301,289,302,303,2
302,282,302,302,2
304,274,303,302,2
306,264,305,302,2
307,253,306,302,2
308,244,308,303,2
309,237,310,305,2
310,238,311,307,2
310,248,312,309,2
309,265,311,310,2
307,291,310,310,2
304,317,310,309,2
302,337,308,308,2
301,348,308,306,2
300,355,306,305,2
300,358,305,304,2
299,357,304,303,2
299,353,302,302,2
298,348,301,302,2
299,343,301,303,2
299,337,301,304,2
300,331,302,305,2
301,325,302,306,2
302,318,303,308,2
303,311,303,308,2
303,302,303,308,2
304,294,302,309,2
304,287,302,310,2
306,281,303,311,2
307,276,303,313,2
307,274,303,314,2
307,276,303,314,2
306,281,302,313,2
306,289,302,313,2
307,298,302,312,2
308,307,302,310,2
308,316,302,307,2
308,325,300,305,2
307,333,299,304,2
306,336,298,303,2
305,335,298,303,2
305,329,298,304,2
304,321,299,304,2
303,314,299,304,2
302,309,299,305,2
302,305,300,306,2
302,302,302,306,2
303,300,304,307,2
303,301,307,307,2
303,303,309,307,2
303,304,310,308,2
302,304,308,308,2
302,302,306,310,2
304,299,305,311,2
306,296,305,311,2
308,295,305,310,2
308,296,305,309,2
308,298,304,308,2
308,303,304,307,2
307,306,303,305,2
305,307,301,303,2
303,309,300,302,2
303,313,299,301,2
303,319,299,302,2
303,324,300,302,2
304,326,301,304,2
306,325,302,305,2
307,323,304,307,2
308,320,305,309,2
308,318,306,311,2
307,314,307,312,2
307,311,308,312,2
307,307,309,312,2
306,305,309,311,2
305,302,310,310,2
303,299,309,310,2
302,294,309,310,2
301,289,307,310,2
299,286,305,310,2
300,284,303,310,2
300,285,302,310,2
301,286,302,311,2
302,290,301,312,2
304,297,302,313,2
305,305,303,314,2
306,313,304,315,2
306,317,305,316,2
306,318,306,317,2
307,317,306,318,2
309,315,307,318,2
309,315,306,317,2
309,317,306,316,2
307,320,305,315,2
306,323,305,314,2
305,325,304,314,2
304,324,303,313,2
302,321,303,311,2
301,317,301,309,2
300,312,301,308,2
300,306,301,307,2
301,301,301,305,2
302,296,302,305,2
304,293,303,305,2
306,292,304,306,2
307,293,304,308,2
308,292,305,310,2
310,292,305,312,2
311,293,305,313,2
311,295,305,314,2
311,299,304,314,2
310,304,303,313,2
308,311,300,312,2
306,318,298,310,2
304,324,296,309,2
304,329,295,308,2
304,331,294,307,2
305,331,294,307,2
306,329,295,307,2
306,323,295,307,2
307,316,294,306,2
306,308,293,306,2
306,301,293,306,2
306,298,294,308,2
306,298,296,310,2
308,298,299,311,2
309,299,301,313,2
311,300,303,314,2
312,303,304,315,2
313,306,306,316,2
314,309,308,316,2
313,310,309,316,2
312,309,310,315,2
309,306,310,313,2
306,304,309,310,2
303,300,307,307,2
301,295,304,304,2
299,288,302,301,2
298,281,300,297,2
297,278,298,294,2
296,282,297,292,2
296,292,297,292,2
296,303,298,296,2
297,312,299,301,2
298,319,299,305,2
299,323,300,309,2
300,325,301,312,2
301,324,301,313,2
302,321,302,314,2
303,319,302,315,2
304,318,304,316,2
306,315,305,316,2
307,309,306,314,2
308,300,306,310,2
308,288,306,308,2
309,275,306,306,2
309,264,306,306,2
309,254,306,305,2
309,249,306,305,2
309,248,306,303,2
308,256,306,302,2
307,273,306,301,2
306,294,306,301,2
304,314,306,302,2
304,330,306,303,2
304,341,307,304,2
304,347,309,306,2
305,347,309,307,2
304,345,308,307,2
303,342,306,308,2
303,338,304,310,2
302,335,302,311,2
302,332,302,311,2
302,325,301,310,2
303,315,301,308,2
304,304,300,306,2
305,296,300,304,2
306,290,300,303,2
306,289,300,301,2
306,290,299,300,2
306,293,299,300,2
306,298,301,300,2
305,304,303,301,2
305,310,305,303,2
306,314,307,305,2
307,318,309,308,2
309,321,311,310,2
310,323,312,311,2
310,323,312,313,2
310,322,312,313,2
310,319,312,311,2
309,316,311,308,2
307,314,310,305,2
306,314,309,303,2
305,314,308,302,2
305,312,308,303,2
304,306,307,302,2
304,299,307,302,2
304,295,307,302,2
304,293,307,301,2
305,293,309,301,2
305,295,312,300,2
305,298,314,299,2
305,300,317,298,2
305,301,319,297,2
304,301,319,294,2
304,300,315,292,2
303,298,311,290,2
303,294,307,288,2
304,289,305,288,2
306,282,305,291,2
309,276,307,294,2
311,273,309,298,2
313,273,311,302,2
313,274,311,306,2
312,279,310,308,2
310,287,308,310,2
309,297,306,311,2
308,308,306,313,2
307,319,305,314,2
307,327,305,315,2
307,333,305,315,2
307,336,305,314,2
308,337,306,313,2
309,335,307,312,2
311,330,308,311,2
312,320,308,309,2
313,305,309,307,2
314,288,311,307,2
315,271,313,307,2
317,256,316,308,2
318,245,318,309,2
318,242,320,308,2
317,249,320,307,2
313,267,319,305,2
310,290,317,303,2
305,311,315,301,2
302,327,312,300,2
299,337,309,299,2
299,342,308,298,2
300,345,308,298,2
303,344,309,297,2
306,342,312,297,2
308,337,314,297,2
308,331,314,297,2
307,325,312,297,2
306,321,311,299,2
306,318,310,300,2
306,314,309,301,2
305,312,308,302,2
305,309,307,304,2
305,307,305,304,2
304,304,303,304,2
304,302,301,304,2
304,298,299,304,2
304,295,298,303,2
305,292,298,302,2
305,292,298,301,2
306,294,299,302,2
306,298,299,302,2
306,302,299,303,2
305,306,298,304,2
305,309,298,304,2
304,312,298,305,2
304,313,299,305,2
305,313,301,306,2
304,312,302,306,2
304,309,302,307,2
305,306,303,309,2
305,304,304,310,2
306,301,305,310,2
306,297,305,308,2
306,294,305,305,2
306,294,304,303,2
306,297,304,302,2
307,302,303,302,2
307,308,303,302,2
307,314,303,301,2
306,319,302,300,2
305,326,301,299,2
304,335,301,299,2
303,343,300,300,2
303,346,299,301,2
303,344,299,302,2
303,340,298,302,2
303,336,299,302,2
303,330,299,303,2
303,321,301,303,2
303,309,302,303,2
303,295,306,303,2
303,277,309,302,2
305,260,313,300,2
307,244,315,298,2
308,233,316,296,2
309,228,317,296,2
309,231,316,297,2
309,242,313,301,2
309,260,311,304,2
309,279,309,307,2
308,298,307,308,2
307,314,306,307,2
306,327,306,306,2
306,338,306,307,2
306,344,307,308,2
307,346,307,309,2
307,346,307,310,2
306,343,308,312,2
306,342,308,312,2
306,341,308,312,2
306,339,307,312,2
307,334,307,312,2
308,329,306,312,2
309,323,306,311,2
309,317,305,310,2
309,311,305,309,2
310,305,306,307,2
311,297,307,306,2
313,287,308,304,2
313,272,310,302,2
313,257,312,301,2
313,246,313,301,2
312,240,314,302,2
311,240,314,303,2
310,248,313,304,2
309,264,312,306,2
306,288,311,307,2
304,313,310,308,2
302,334,308,310,2
301,348,305,310,2
300,356,302,311,2
300,360,301,311,2
301,361,300,311,2
302,362,300,310,2
303,361,302,310,2
304,353,303,309,2
305,341,304,307,2
306,327,305,305,2
307,313,305,303,2
307,297,304,301,2
308,281,304,300,2
309,267,304,299,2
310,257,306,300,2
311,254,307,302,2
312,254,308,305,2
312,256,309,308,2
311,261,310,309,2
310,267,310,309,2
309,275,310,310,2
309,288,310,312,2
310,305,311,314,2
312,322,311,317,2
315,338,312,320,2
318,352,312,322,2
322,368,311,325,2
324,385,310,328,2
326,400,309,328,2
326,405,307,325,2
326,398,307,322,2
327,383,307,319,2
327,362,309,317,2
325,338,310,314,2
320,312,310,310,2
312,286,309,307,2
306,267,307,306,2
301,259,306,306,2
298,262,306,307,2
297,270,306,309,2
297,281,306,311,2
298,291,306,313,2
300,299,305,314,2
300,302,305,314,2
300,299,304,313,2
299,295,304,312,2
299,291,305,311,2
299,287,307,309,2
300,282,308,307,2
300,276,307,303,2
301,271,305,301,2
302,269,302,299,2
304,270,300,300,2
307,274,298,302,2
309,283,298,305,2
311,296,298,307,2
311,310,297,308,2
311,324,297,310,2
309,333,296,311,2
308,335,296,312,2
306,332,297,313,2
304,326,298,313,2
303,319,300,313,2
304,308,303,312,2
306,294,305,312,2
309,279,307,312,2
312,265,308,312,2
314,255,308,311,2
316,251,308,311,2
317,253,308,310,2
318,262,308,309,2
316,275,308,306,2
313,289,307,304,2
310,304,306,303,2
306,317,305,303,2
302,329,304,305,2
300,338,305,307,2
299,343,305,309,2
299,342,307,310,2
300,335,308,311,2
301,324,308,310,2
302,310,307,308,2
303,297,307,307,2
305,286,307,306,2
308,281,308,306,2
310,284,308,308,2
312,296,307,309,2
313,314,307,310,2
314,334,306,311,2
314,357,305,311,2
314,379,304,310,2
314,396,304,309,2
313,405,304,308,2
313,403,304,306,2
312,390,304,303,2
310,373,304,302,2
309,358,305,301,2
308,346,305,301,2
309,333,305,303,2
310,320,306,305,2
310,307,307,306,2
309,294,307,306,2
308,282,307,306,2
307,272,308,305,2
307,265,308,305,2
307,260,310,307,2
307,258,312,310,2
309,254,316,313,2
311,248,319,315,2
312,238,321,315,2
313,223,322,313,2
314,210,322,310,2
314,206,320,306,2
315,215,317,305,2
316,235,315,304,2
317,259,312,305,2
316,287,310,306,2
314,312,309,307,2
312,332,309,308,2
312,346,309,310,2
312,357,310,312,2
313,364,311,313,2
313,366,313,314,2
310,362,313,314,2
306,352,312,314,2
301,342,308,313,2
298,333,305,313,2
296,326,303,314,2
298,320,303,317,2
302,314,305,320,2
308,307,307,322,2
312,297,307,321,2
315,287,307,320,2
317,278,306,317,2
318,276,305,313,2
318,284,303,308,2
317,302,302,303,2
317,325,301,300,2
316,350,302,300,2
314,372,304,301,2
311,386,307,303,2
307,392,308,306,2
303,387,310,309,2
301,371,310,312,2
299,351,310,313,2
298,331,309,313,2
299,315,309,312,2
300,305,310,311,2
302,300,312,310,2
305,300,315,308,2
308,302,319,305,2
311,306,323,303,2
312,309,328,303,2
312,309,331,302,2
311,306,331,302,2
309,303,327,303,2
308,297,321,304,2
309,289,316,305,2
310,277,314,305,2
311,263,313,304,2
312,252,313,304,2
312,246,313,305,2
312,246,313,309,2
312,255,313,314,2
311,270,312,318,2
309,288,311,320,2
306,306,310,320,2
303,320,310,318,2
302,333,311,316,2
303,342,314,314,2
305,348,319,311,2
307,351,323,309,2
308,351,325,307,2
308,348,322,305,2
307,343,317,304,2
307,337,313,303,2
310,330,312,304,2
313,323,311,304,2
315,314,312,306,2
315,304,312,309,2
316,296,312,315,2
317,288,313,321,2
317,276,314,324,2
316,262,314,325,2
315,251,314,324,2
315,248,314,322,2
314,256,314,320,2
315,274,313,318,2
314,296,311,315,2
313,318,308,311,2
311,341,306,307,2
310,367,305,306,2
309,394,306,309,2
309,413,309,315,2
312,415,314,324,2
316,402,321,336,2
321,384,329,348,2
326,367,338,357,2
329,353,345,360,2
327,339,348,354,2
321,324,344,341,2
313,310,335,327,2
307,299,326,315,2
302,290,318,307,2
300,283,313,302,2
300,276,310,299,2
300,266,307,298,2
300,253,305,296,2
300,240,302,295,2
301,231,300,297,2
304,230,301,299,2
309,235,306,303,2
316,244,314,305,2
321,256,321,306,2
321,272,324,304,2
317,289,321,302,2
309,305,314,302,2
302,319,307,304,2
297,331,302,307,2
294,341,300,311,2
294,348,300,314,2
295,351,301,314,2
295,350,301,312,2
296,346,300,310,2
297,341,300,308,2
298,336,300,307,2
299,332,300,306,2
300,330,301,308,2
302,329,301,310,2
302,330,302,311,2
302,333,302,311,2
302,337,303,308,2
303,340,305,305,2
304,340,306,301,2
305,335,308,298,2
304,326,309,296,2
303,318,309,296,2
304,311,311,297,2
305,305,313,301,2
307,302,316,309,2
311,303,318,320,2
315,305,320,332,2
319,309,321,341,2
320,313,321,345,2
318,313,319,341,2
314,312,314,334,2
309,310,309,326,2
305,309,304,319,2
303,310,302,314,2
301,309,301,310,2
300,302,301,306,2
299,290,300,302,2
298,278,301,299,2
299,268,302,296,2
300,263,303,295,2
300,261,304,295,2
302,263,305,296,2
303,265,308,298,2
305,266,311,302,2
309,267,315,307,2
313,271,319,313,2
316,279,322,319,2
318,286,321,321,2
316,287,317,319,2
312,284,312,314,2
308,280,306,307,2
304,278,301,299,2
303,280,298,292,2
302,288,296,287,2
300,299,293,284,2
297,313,292,281,2
294,332,291,281,2
293,351,291,283,2
293,366,292,286,2
294,371,294,289,2
296,364,296,293,2
298,350,298,297,2
299,334,299,302,2
300,323,301,307,2
300,318,302,310,2
300,321,303,312,2
301,328,303,314,2
302,335,303,316,2
303,340,304,317,2
304,345,304,318,2
305,352,303,318,2
305,358,303,317,2
305,361,302,315,2
305,362,301,312,2
304,360,300,308,2
304,353,298,303,2
304,343,298,301,2
305,330,299,302,2
307,317,300,305,2
309,302,301,309,2
310,284,303,311,2
311,265,304,310,2
310,251,303,307,2
310,247,301,304,2
309,255,300,302,2
308,271,299,301,2
307,289,298,301,2
307,304,299,302,2
308,315,300,303,2
309,321,301,304,2
310,324,303,305,2
312,325,305,305,2
315,325,308,306,2
317,326,313,306,2
319,326,317,305,2
320,326,321,302,2
320,326,322,299,2
318,329,322,297,2
315,328,319,298,2
315,324,315,300,2
316,316,313,301,2
316,306,312,301,2
313,296,311,300,2
308,286,308,298,2
304,280,304,298,2
301,279,300,299,2
301,283,299,302,2
301,292,298,305,2
303,302,298,307,2
303,312,298,307,2
303,319,298,307,2
303,326,298,307,2
305,332,297,306,2
307,336,298,305,2
310,335,298,303,2
311,331,298,302,2
311,324,298,300,2
308,312,296,298,2
306,299,296,296,2
304,286,295,293,2
302,275,294,290,2
301,270,294,289,2
301,269,295,289,2
301,274,297,291,2
301,284,299,296,2
300,293,302,301,2
300,298,304,308,2
300,298,306,314,2
301,295,307,317,2
302,293,307,318,2
303,293,307,317,2
304,296,308,317,2
304,304,308,315,2
303,314,306,313,2
302,328,304,311,2
301,341,302,309,2
300,351,300,308,2
300,356,300,309,2
301,358,301,309,2
302,359,302,309,2
303,359,303,308,2
304,358,304,308,2
305,359,304,307,2
305,356,305,308,2
305,347,305,310,2
305,333,305,312,2
304,318,305,313,2
302,306,304,312,2
301,299,303,309,2
301,296,303,306,2
301,295,303,302,2
302,296,303,299,2
303,296,302,296,2
303,296,300,295,2
304,296,299,295,2
304,294,298,296,2
305,291,299,297,2
305,288,301,300,2
305,285,303,302,2
306,285,305,303,2
307,287,304,305,2
307,291,302,306,2
305,296,299,306,2
303,302,297,305,2
302,307,295,305,2
301,310,296,305,2
301,309,298,305,2
302,306,300,306,2
303,301,302,306,2
304,295,303,306,2
306,288,304,306,2
308,282,304,306,2
310,277,304,306,2
312,275,303,306,2
313,279,301,305,2
314,288,299,304,2
315,299,298,302,2
315,308,298,300,2
314,312,299,299,2
312,311,301,298,2
309,309,303,298,2
306,308,304,299,2
304,306,305,299,2
303,303,306,299,2
303,301,306,299,2
303,301,305,301,2
304,301,305,302,2
303,303,304,303,2
303,307,303,303,2
302,312,303,303,2
301,317,303,303,2
301,321,304,303,2
301,321,304,303,2
301,317,304,304,2
302,311,303,304,2
303,306,302,302,2
304,304,300,299,2
305,307,299,295,2
305,311,298,292,2
305,316,298,291,2
305,320,298,294,2
305,324,300,299,2
305,326,302,304,2
306,328,304,307,2
306,328,305,310,2
304,326,306,311,2
302,322,307,313,2
301,317,308,314,2
300,312,307,315,2
299,306,305,315,2
299,300,302,315,2
299,297,300,314,2
299,295,298,313,2
299,294,297,312,2
299,293,297,312,2
299,292,297,313,2
299,292,297,314,2
299,292,297,314,2
299,291,298,313,2
299,290,298,311,2
298,289,298,308,2
298,288,298,305,2
299,288,299,303,2
299,289,300,301,2
299,293,300,301,2
299,296,300,300,2
299,297,299,301,2
299,293,299,301,2
300,287,299,301,2
301,279,301,303,2
303,272,303,306,2
305,269,306,309,2
306,266,307,310,2
305,269,306,310,2
304,278,304,311,2
302,290,300,312,2
301,298,297,312,2
299,302,294,311,2
298,301,293,310,2
298,293,293,308,2
300,282,296,307,2
303,273,301,307,2
306,270,307,309,2
308,272,312,311,2
310,280,315,312,2
309,291,316,313,2
308,307,315,314,2
306,326,311,315,2
305,343,307,315,2
303,356,303,314,2
303,365,301,313,2
303,371,299,311,2
304,374,297,310,2
304,375,297,309,2
305,372,296,308,2
304,365,295,307,2
303,356,295,306,2
302,346,295,305,2
301,337,296,305,2
301,329,297,304,2
300,323,298,304,2
300,318,300,304,2
301,316,301,305,2
301,312,301,306,2
301,307,301,306,2
302,301,301,307,2
303,296,301,307,2
303,293,302,308,2
304,292,303,308,2
305,291,304,309,2
305,290,304,310,2
305,288,304,311,2
306,285,304,313,2
306,283,304,314,2
306,280,305,314,2
305,278,304,312,2
304,277,304,310,2
302,278,303,307,2
302,283,302,306,2
302,289,303,306,2
303,293,304,308,2
304,295,305,310,2
304,294,306,312,2
304,292,308,313,2
305,291,310,314,2
305,292,311,314,2
305,294,310,314,2
305,299,308,314,2
305,304,305,314,2
306,308,303,314,2
307,311,302,315,2
309,311,301,316,2
310,309,302,317,2
310,303,301,316,2
311,295,301,314,2
311,291,301,314,2
310,294,302,315,2
310,302,303,318,2
309,312,305,320,2
309,320,306,321,2
309,323,307,320,2
309,318,308,319,2
309,309,309,317,2
309,298,311,316,2
309,287,313,316,2
309,274,314,316,2
308,258,313,316,2
309,240,312,315,2
311,225,311,313,2
313,212,309,311,2
314,205,309,309,2
314,206,307,308,2
313,215,305,307,2
310,234,303,306,2
307,260,300,304,2
304,289,298,304,2
302,320,297,304,2
301,346,297,304,2
300,364,298,304,2
301,370,298,304,2
302,369,299,305,2
302,362,299,306,2
302,352,299,307,2
302,343,300,308,2
302,335,303,310,2
303,327,308,311,2
305,318,314,312,2
307,311,320,313,2
307,303,322,313,2
305,297,320,313,2
303,293,314,313,2
302,292,309,313,2
301,294,305,312,2
301,299,304,311,2
301,306,304,312,2
301,312,303,313,2
302,317,302,314,2
303,319,301,315,2
303,320,301,315,2
304,319,302,314,2
305,315,302,314,2
305,309,303,313,2
306,302,302,313,2
306,296,301,313,2
306,290,300,313,2
306,285,300,314,2
306,282,302,315,2
306,284,303,316,2
306,290,305,315,2
306,299,307,313,2
306,308,307,312,2
305,315,307,310,2
304,318,307,310,2
303,315,306,309,2
303,307,305,308,2
303,298,305,306,2
304,289,305,304,2
306,284,305,303,2
307,284,305,302,2
306,289,305,303,2
306,296,306,304,2
305,304,306,307,2
304,311,307,310,2
302,315,307,311,2
300,317,307,312,2
298,316,306,312,2
296,314,305,312,2
295,312,305,312,2
295,309,305,313,2
295,306,305,314,2
296,302,306,314,2
297,299,306,313,2
299,298,306,311,2
299,297,306,308,2
300,296,305,306,2
301,294,305,304,2
302,291,304,304,2
303,288,303,303,2
304,286,304,304,2
305,288,305,306,2
305,293,306,308,2
305,298,308,309,2
305,305,309,311,2
304,312,309,313,2
302,318,308,315,2
302,322,307,316,2
301,324,306,317,2
302,325,306,317,2
302,325,305,316,2
302,321,304,314,2
301,314,303,311,2
301,306,302,308,2
301,296,301,306,2
301,286,300,303,2
301,275,300,300,2
302,268,301,299,2
303,267,302,300,2
305,268,302,301,2
307,269,303,302,2
308,268,304,303,2
307,267,304,303,2
306,270,304,302,2
304,277,303,301,2
302,287,303,301,2
301,300,303,301,2
300,316,303,302,2
300,332,303,304,2
300,345,303,306,2
300,353,304,308,2
299,358,304,309,2
300,358,304,309,2
299,356,304,309,2
299,351,304,307,2
298,342,304,306,2
298,333,304,304,2
298,325,304,303,2
299,320,303,302,2
301,318,303,302,2
302,319,303,302,2
303,321,303,302,2
304,323,304,303,2
306,323,304,303,2
307,319,305,304,2
307,312,305,305,2
308,303,305,305,2
307,293,305,306,2
306,284,305,307,2
305,277,304,307,2
305,273,304,306,2
305,271,303,305,2
305,271,303,304,2
305,273,303,304,2
304,277,302,303,2
303,281,300,302,2
301,285,299,301,2
300,289,297,300,2
300,297,297,300,2
301,309,297,300,2
301,321,296,302,2
302,331,296,303,2
302,337,296,305,2
301,338,296,307,2
300,335,296,308,2
300,329,297,307,2
299,323,298,307,2
300,319,300,306,2
302,316,302,307,2
303,314,304,307,2
304,312,305,308,2
304,310,306,308,2
304,307,307,308,2
303,306,307,308,2
303,305,307,307,2
303,305,306,306,2
303,304,306,304,2
303,304,306,302,2
303,305,305,300,2
304,307,305,298,2
304,308,304,297,2
304,309,304,297,2
305,309,304,297,2
306,310,304,297,2
306,310,304,298,2
307,310,305,299,2
307,306,307,301,2
307,297,308,302,2
308,287,308,303,2
309,277,308,304,2
309,269,307,305,2
309,264,306,305,2
309,262,305,305,2
308,267,304,305,2
307,279,302,304,2
307,296,302,304,2
307,312,301,304,2
307,323,301,304,2
307,331,301,303,2
307,335,301,303,2
307,334,302,304,2
307,326,302,303,2
307,314,301,302,2
305,300,300,301,2
305,288,301,301,2
305,278,303,302,2
306,273,306,303,2
307,276,310,304,2
309,288,313,304,2
310,302,313,303,2
310,316,311,302,2
310,324,306,300,2
309,324,303,298,2
307,317,301,297,2
306,306,298,297,2
304,292,295,297,2
304,277,293,298,2
304,265,292,301,2
305,258,292,303,2
306,257,293,304,2
306,262,293,304,2
307,273,294,303,2
306,286,293,302,2
305,300,293,301,2
304,313,292,301,2
304,323,294,301,2
303,330,296,302,2
304,331,299,303,2
304,332,301,305,2
303,332,303,307,2
302,332,304,308,2
301,330,304,309,2
301,328,304,308,2
300,325,304,307,2
300,321,304,306,2
300,316,304,305,2
301,311,305,304,2
302,308,305,302,2
303,309,306,300,2
304,313,307,299,2
305,319,308,299,2
306,326,310,300,2
307,330,312,300,2
307,332,312,301,2
307,329,310,301,2
308,325,307,302,2
309,320,305,303,2
310,313,303,305,2
310,306,303,305,2
310,300,303,304,2
309,295,303,302,2
306,291,303,301,2
304,287,303,299,2
302,283,303,298,2
301,277,303,297,2
300,271,303,297,2
300,268,303,298,2
300,271,303,298,2
301,278,303,299,2
302,291,303,299,2
302,305,304,298,2
303,316,305,298,2
304,324,306,299,2
304,330,308,300,2
303,336,309,301,2
303,339,310,303,2
302,340,309,305,2
302,339,307,307,2
302,336,305,309,2
302,333,304,310,2
302,329,303,310,2
302,325,302,309,2
302,321,302,307,2
303,318,301,304,2
304,315,301,301,2
304,312,302,299,2
304,310,303,298,2
304,308,304,299,2
304,308,305,301,2
305,308,306,302,2
305,307,308,304,2
305,305,309,305,2
305,301,309,305,2
304,295,308,304,2
303,290,307,304,2
304,286,306,305,2
306,283,306,306,2
307,283,306,307,2
309,285,307,308,2
309,288,308,309,2
307,291,307,308,2
305,295,305,307,2
304,298,304,307,2
303,303,303,305,2
303,305,303,303,2
302,306,302,301,2
302,305,303,300,2
302,305,304,298,2
302,307,306,297,2
302,313,307,297,2
301,319,309,296,2
299,324,309,295,2
298,326,305,295,2
297,326,302,296,2
297,324,300,297,2
298,321,299,300,2
298,317,299,301,2
298,312,299,302,2
298,308,299,302,2
297,303,300,301,2
297,299,300,301,2
297,295,301,301,2
298,292,301,301,2
299,291,301,302,2
301,291,301,304,2
303,291,301,307,2
305,293,301,309,2
306,297,300,311,2
306,302,300,312,2
306,307,300,312,2
306,311,300,313,2
306,312,300,313,2
305,311,301,312,2
306,308,302,312,2
307,300,304,312,2
308,289,306,310,2
310,277,306,309,2
311,267,306,307,2
310,263,305,306,2
309,265,302,305,2
307,272,299,304,2
305,281,296,303,2
304,295,294,303,2
303,311,294,303,2
302,329,294,304,2
301,342,295,305,2
301,349,296,304,2
301,347,297,304,2
301,340,297,302,2
302,333,298,302,2
303,328,298,302,2
304,326,299,302,2
305,325,301,304,2
307,325,303,306,2
308,323,305,310,2
310,321,306,312,2
310,318,306,314,2
310,315,305,316,2
309,313,305,317,2
309,312,305,316,2
308,312,305,314,2
309,313,305,313,2
309,312,305,311,2
310,310,305,310,2
311,306,305,309,2
312,303,306,309,2
313,299,308,308,2
313,298,309,307,2
313,298,310,306,2
312,297,310,305,2
310,297,311,304,2
309,298,311,303,2
306,301,312,303,2
304,303,311,304,2
302,306,309,305,2
301,310,307,307,2
300,315,307,309,2
301,322,307,313,2
301,327,309,316,2
302,330,309,318,2
302,331,310,319,2
303,331,310,319,2
304,330,310,319,2
304,327,310,318,2
303,322,308,316,2
302,316,307,315,2
303,310,306,314,2
304,304,305,314,2
305,299,306,313,2
307,295,307,312,2
309,293,308,310,2
310,295,309,308,2
309,298,308,306,2
307,301,307,305,2
305,301,307,304,2
304,299,307,304,2
303,299,307,304,2
304,301,308,305,2
305,305,308,305,2
305,308,308,305,2
305,309,308,304,2
305,308,307,303,2
304,308,306,302,2
303,307,305,302,2
303,306,304,301,2
303,304,303,302,2
303,302,302,302,2
303,303,302,303,2
302,306,301,305,2
302,309,302,306,2
302,313,302,307,2
303,317,303,308,2
304,317,305,309,2
304,312,307,310,2
305,303,311,311,2
306,292,314,311,2
306,282,315,312,2
306,272,316,313,2
307,264,317,314,2
309,261,318,315,2
310,265,318,317,2
311,274,319,318,2
312,286,318,320,2
312,299,316,320,2
311,313,314,321,2
309,326,313,321,2
308,335,312,320,2
306,340,313,317,2
304,341,313,314,2
303,339,313,311,2
302,334,313,310,2
303,327,311,309,2
304,320,307,309,2
304,314,305,310,2
305,309,304,310,2
305,305,304,311,2
306,301,304,310,2
305,298,304,310,2
306,296,305,310,2
307,296,306,311,2
308,297,307,313,2
309,299,307,315,2
309,303,307,317,2
310,308,308,319,2
311,312,308,319,2
311,315,307,319,2
310,316,306,318,2
310,315,305,317,2
309,312,304,315,2
309,310,303,313,2
308,310,303,312,2
308,309,304,310,2
308,308,304,308,2
308,308,306,307,2
309,306,307,306,2
310,305,308,305,2
311,303,308,304,2
311,301,307,303,2
311,298,306,303,2
312,297,305,305,2
313,297,306,310,2
314,298,307,317,2
315,303,308,322,2
315,309,309,325,2
313,315,309,326,2
312,323,309,326,2
309,330,309,325,2
307,334,308,322,2
304,334,307,319,2
301,332,305,314,2
299,329,303,312,2
299,328,304,310,2
299,326,306,310,2
301,324,308,311,2
302,322,311,312,2
304,320,312,313,2
304,314,313,314,2
305,305,313,314,2
305,296,313,313,2
306,288,313,313,2
306,282,312,313,2
306,277,312,313,2
306,271,312,312,2
307,266,311,312,2
308,262,311,312,2
308,259,310,310,2
308,260,309,309,2
308,266,308,308,2
308,276,307,307,2
307,286,306,306,2
307,292,306,304,2
306,296,306,303,2
307,297,307,303,2
307,297,308,303,2
308,296,309,304,2
309,299,310,306,2
310,304,311,309,2
311,313,311,312,2
311,319,311,314,2
311,324,310,315,2
310,327,309,316,2
310,331,307,316,2
310,335,306,315,2
310,338,305,315,2
309,339,304,314,2
308,338,303,313,2
308,336,302,312,2
308,334,302,311,2
308,331,302,310,2
308,327,301,308,2
308,326,300,307,2
307,326,300,306,2
307,325,301,304,2
306,321,301,304,2
306,315,302,304,2
305,310,303,306,2
305,304,304,307,2
305,297,305,309,2
306,290,307,311,2
307,284,308,312,2
308,279,308,314,2
309,276,308,314,2
309,276,307,314,2
309,281,306,312,2
308,289,304,310,2
307,297,303,308,2
306,304,302,306,2
306,307,301,304,2
305,307,301,303,2
304,305,301,303,2
304,301,301,303,2
304,299,302,304,2
305,297,302,306,2
306,294,303,306,2
307,294,303,307,2
308,297,304,307,2
308,303,304,307,2
308,309,304,307,2
308,313,304,308,2
307,314,303,307,2
306,312,302,305,2
305,309,301,302,2
304,305,301,299,2
304,302,300,296,2
303,299,300,294,2
303,299,299,291,2
303,301,299,290,2
304,304,299,291,2
305,308,300,293,2
307,313,301,296,2
309,316,301,300,2
311,318,300,303,2
311,317,299,305,2
311,315,297,308,2
311,313,298,311,2
311,312,301,314,2
310,311,304,317,2
310,310,308,318,2
307,309,310,317,2
305,307,311,314,2
302,303,311,310,2
301,299,309,306,2
300,294,308,302,2
300,290,306,300,2
301,286,305,300,2
302,285,305,301,2
302,286,305,302,2
303,289,304,302,2
302,292,304,302,2
302,294,303,301,2
300,295,302,298,2
299,296,301,296,2
298,296,300,295,2
298,296,301,296,2
300,296,301,297,2
301,295,303,300,2
302,292,304,303,2
303,287,305,305,2
305,282,306,308,2
307,276,307,309,2
309,267,308,309,2
311,257,308,308,2
311,246,308,307,2
311,240,309,307,2
310,242,308,307,2
309,252,308,306,2
308,266,308,306,2
307,286,308,305,2
306,308,309,304,2
305,329,309,304,2
303,344,308,303,2
300,351,306,302,2
298,353,303,301,2
297,353,300,300,2
298,352,299,299,2
298,349,298,298,2
299,344,299,298,2
300,339,300,300,2
301,335,302,302,2
302,332,303,304,2
303,329,304,306,2
304,328,304,307,2
304,329,304,308,2
305,329,304,308,2
305,330,302,307,2
304,331,301,307,2
304,331,299,306,2
305,331,299,306,2
306,330,298,306,2
306,329,298,305,2
306,328,298,304,2
306,327,298,303,2
306,326,298,302,2
306,324,298,301,2
305,322,298,300,2
305,317,298,300,2
305,312,299,300,2
305,306,299,301,2
306,303,300,303,2
307,301,301,305,2
308,301,301,308,2
309,301,302,311,2
310,303,302,314,2
310,303,303,315,2
310,303,302,315,2
309,302,301,314,2
309,302,301,312,2
309,302,300,309,2
309,302,299,306,2
309,302,299,304,2
308,302,298,302,2
307,301,297,301,2
306,300,298,302,2
305,298,300,303,2
306,296,303,304,2
306,295,306,306,2
307,295,308,307,2
308,296,310,307,2
308,297,310,308,2
308,299,310,308,2
308,300,308,308,2
308,300,307,306,2
308,300,306,306,2
308,300,306,305,2
308,298,305,304,2
307,295,304,304,2
306,292,303,304,2
305,290,303,303,2
305,287,303,302,2
305,285,303,300,2
305,283,304,299,2
305,282,304,299,2
306,280,305,299,2
307,276,307,300,2
308,272,308,302,2
308,267,309,303,2
308,263,310,304,2
309,263,310,306,2
310,268,310,307,2
311,276,310,307,2
311,290,309,307,2
309,305,308,308,2
308,319,308,308,2
307,330,307,309,2
307,337,307,309,2
306,340,306,308,2
307,342,306,307,2
307,341,306,305,2
307,339,307,303,2
308,335,307,302,2
308,329,307,301,2
308,324,307,301,2
308,318,307,301,2
308,314,306,301,2
307,311,305,302,2
306,310,306,303,2
305,312,307,305,2
305,313,308,307,2
305,311,308,308,2
305,307,307,308,2
305,303,307,307,2
305,300,306,306,2
305,299,305,305,2
306,298,305,304,2
307,296,305,303,2
308,294,305,304,2
309,293,305,304,2
310,293,305,304,2
310,294,305,304,2
309,297,305,303,2
310,299,304,302,2
309,305,304,302,2
308,312,304,303,2
307,319,305,304,2
307,323,305,306,2
307,323,305,306,2
306,321,305,306,2
306,318,306,307,2
306,315,307,307,2
305,312,307,307,2
305,312,307,308,2
306,312,307,309,2
306,313,307,309,2
307,314,307,309,2
307,315,307,309,2
308,314,306,308,2
308,313,305,306,2
308,313,304,306,2
309,313,304,305,2
309,314,304,306,2
309,314,304,306,2
308,313,304,305,2
307,311,304,304,2
306,310,303,302,2
305,309,304,302,2
304,308,304,303,2
304,307,305,304,2
305,306,305,306,2
305,306,306,308,2
305,305,307,309,2
306,303,307,310,2
307,303,307,310,2
307,306,307,309,2
308,309,308,308,2
307,313,307,305,2
306,315,307,302,2
305,316,306,299,2
305,315,305,296,2
305,314,305,295,2
305,311,305,293,2
305,307,305,293,2
306,299,306,294,2
308,289,306,296,2
309,278,307,299,2
309,269,308,301,2
310,262,310,305,2
310,259,310,308,2
310,261,311,310,2
311,270,311,313,2
311,282,310,315,2
311,293,309,316,2
310,304,308,316,2
308,314,307,315,2
306,323,306,314,2
305,331,305,313,2
304,335,303,311,2
304,334,303,309,2
305,329,303,308,2
306,323,304,307,2
306,317,306,309,2
306,313,308,311,2
306,313,311,315,2
305,316,313,318,2
304,322,314,320,2
303,330,314,318,2
302,335,314,314,2
301,334,313,310,2
302,327,313,307,2
303,316,314,305,2
305,301,314,304,2
306,285,314,302,2
307,270,313,301,2
308,259,312,300,2
308,256,311,300,2
308,265,308,300,2
307,283,306,299,2
306,303,304,299,2
303,319,302,299,2
301,327,301,298,2
300,328,299,298,2
299,324,299,298,2
300,317,300,299,2
301,311,301,301,2
302,309,302,304,2
303,312,304,306,2
304,316,305,308,2
304,317,306,309,2
304,316,306,309,2
304,316,306,310,2
303,320,305,310,2
303,325,305,310,2
303,329,304,309,2
303,334,304,308,2
303,336,304,307,2
303,336,304,305,2
303,335,304,304,2
304,335,305,304,2
305,333,305,305,2
305,332,306,305,2
305,331,306,306,2
304,329,306,305,2
305,325,306,305,2
306,319,306,305,2
307,312,306,305,2
308,304,306,304,2
309,298,306,304,2
309,292,306,305,2
309,288,306,305,2
309,287,305,304,2
309,288,304,303,2
309,294,303,302,2
310,301,303,302,2
309,308,303,302,2
308,313,302,302,2
306,316,303,302,2
304,318,304,302,2
303,318,305,302,2
303,318,307,302,2
304,316,308,300,2
305,313,308,299,2
306,313,308,298,2
307,316,308,299,2
307,320,308,299,2
308,325,308,300,2
308,329,309,300,2
308,331,309,301,2
308,331,310,302,2
307,329,310,303,2
306,323,310,304,2
305,313,309,306,2
305,301,308,307,2
305,291,308,308,2
305,286,307,309,2
305,285,307,310,2
305,287,307,310,2
305,292,306,310,2
304,299,305,308,2
303,303,305,305,2
302,304,304,304,2
302,302,303,303,2
302,296,303,303,2
303,289,304,304,2
303,280,305,304,2
304,274,305,304,2
304,271,306,303,2
305,272,306,301,2
304,275,306,299,2
304,279,305,299,2
304,286,305,299,2
304,293,305,301,2
305,299,306,304,2
304,302,306,307,2
304,301,307,310,2
305,296,307,311,2
306,289,307,311,2
307,285,308,309,2
308,284,307,305,2
308,288,306,301,2
307,297,305,298,2
306,311,304,297,2
305,328,302,298,2
304,342,301,299,2
302,351,301,300,2
301,357,300,302,2
299,358,300,303,2
298,357,301,304,2
296,353,301,307,2
296,348,302,309,2
296,342,303,311,2
297,337,303,311,2
297,331,304,311,2
299,326,305,311,2
301,321,305,311,2
302,316,306,311,2
303,312,307,312,2
304,308,307,312,2
305,303,306,312,2
306,301,306,311,2
307,300,305,310,2
307,301,304,309,2
306,303,303,308,2
306,307,301,307,2
305,311,301,307,2
305,316,302,308,2
305,319,302,308,2
304,320,303,308,2
304,319,305,309,2
304,315,306,310,2
305,311,308,312,2
305,309,308,313,2
306,308,309,314,2
306,305,309,314,2
306,302,308,313,2
306,301,307,311,2
306,300,306,310,2
307,300,305,309,2
307,298,304,308,2
307,297,304,307,2
307,296,304,307,2
307,296,304,306,2
306,297,305,306,2
305,300,306,306,2
305,302,308,307,2
305,303,309,307,2
306,302,310,308,2
307,301,311,309,2
307,302,312,311,2
308,303,312,312,2
307,303,313,313,2
307,302,312,314,2
306,300,312,314,2
305,299,311,314,2
304,297,310,313,2
304,295,308,311,2
304,294,307,310,2
304,293,306,307,2
304,291,304,305,2
305,287,303,302,2
305,284,302,300,2
306,282,302,299,2
307,282,304,299,2
308,282,305,302,2
309,282,308,304,2
310,282,310,307,2
311,284,311,309,2
311,287,312,310,2
310,289,311,311,2
310,292,311,312,2
309,296,310,313,2
309,303,309,313,2
308,311,308,313,2
308,320,307,313,2
307,327,306,313,2
306,332,306,313,2
306,336,305,313,2
306,335,304,313,2
305,334,304,311,2
304,331,302,308,2
303,328,301,305,2
302,325,300,302,2
302,323,299,300,2
302,321,300,299,2
303,319,301,299,2
304,317,302,298,2
306,315,305,299,2
308,314,309,301,2
309,312,312,302,2
309,310,314,304,2
309,307,315,306,2
308,303,315,308,2
307,297,313,309,2
306,291,312,312,2
306,287,311,314,2
306,283,311,315,2
306,282,311,315,2
306,283,312,314,2
307,289,311,313,2
307,298,311,312,2
308,307,310,311,2
308,315,309,310,2
308,321,309,310,2
307,324,308,309,2
305,323,307,308,2
304,318,307,307,2
303,312,307,307,2
303,307,308,307,2
303,303,309,307,2
304,301,309,308,2
304,300,310,308,2
305,299,310,309,2
305,300,309,311,2
306,301,309,312,2
306,302,309,312,2
306,304,310,312,2
307,304,310,312,2
307,301,310,312,2
308,295,310,311,2
309,286,309,309,2
310,277,308,308,2
311,269,307,307,2
312,264,306,306,2
314,265,306,306,2
314,274,307,307,2
314,288,307,308,2
313,301,307,310,2
311,310,307,312,2
311,316,307,312,2
310,320,307,312,2
308,321,306,311,2
307,322,305,309,2
306,322,305,308,2
305,323,304,307,2
305,322,304,306,2
306,322,303,305,2
306,322,303,305,2
306,323,302,305,2
306,321,302,304,2
305,316,301,303,2
305,309,301,302,2
306,300,301,302,2
306,290,302,302,2
306,281,302,302,2
307,275,303,303,2
308,275,304,304,2
308,279,304,305,2
308,285,304,305,2
308,293,304,306,2
308,300,305,308,2
309,306,306,311,2
309,311,308,313,2
309,317,309,314,2
309,322,310,315,2
308,325,310,315,2
308,324,310,315,2
308,324,309,313,2
308,324,309,311,2
308,325,308,308,2
308,325,308,306,2
307,323,308,303,2
307,321,307,301,2
306,318,307,301,2
307,317,307,303,2
307,316,308,306,2
309,317,309,308,2
310,317,310,311,2
311,317,311,311,2
311,315,312,312,2
312,311,313,312,2
313,305,314,312,2
314,298,315,312,2
315,289,317,312,2
315,280,318,310,2
315,271,318,309,2
314,264,318,307,2
312,260,316,305,2
311,261,315,304,2
310,268,314,303,2
308,280,312,301,2
307,297,311,299,2
306,312,310,298,2
305,321,309,298,2
304,323,308,298,2
303,323,307,299,2
303,321,307,301,2
304,319,308,303,2
305,318,309,306,2
306,318,310,308,2
307,320,311,312,2
308,324,311,315,2
309,327,311,317,2
309,326,311,319,2
308,324,311,318,2
307,318,310,316,2
306,313,309,313,2
306,309,309,311,2
306,308,310,309,2
307,310,310,308,2
308,312,310,307,2
309,314,311,307,2
309,316,310,308,2
309,318,311,310,2
310,321,311,312,2
309,324,311,313,2
308,326,310,312,2
306,324,310,312,2
305,322,309,312,2
304,318,309,312,2
304,315,309,313,2
303,314,309,314,2
303,313,309,315,2
304,312,310,316,2
304,309,311,316,2
304,302,311,316,2
305,293,311,314,2
305,284,311,312,2
305,275,310,309,2
305,267,310,306,2
306,260,310,303,2
306,257,309,301,2
306,259,309,299,2
306,266,308,299,2
306,275,307,299,2
305,286,307,301,2
305,299,307,303,2
305,314,307,305,2
304,334,308,307,2
304,352,307,309,2
304,363,306,312,2
304,366,305,313,2
305,361,304,313,2
305,351,304,313,2
305,341,304,312,2
305,332,304,312,2
305,325,303,312,2
305,320,303,312,2
304,316,302,312,2
305,314,301,311,2
305,313,302,310,2
306,311,304,311,2
307,308,306,313,2
308,305,309,314,2
308,299,312,314,2
308,292,313,313,2
308,283,314,310,2
307,273,314,308,2
307,265,313,306,2
307,259,313,305,2
308,257,312,306,2
308,260,312,307,2
308,268,312,308,2
306,280,311,310,2
305,296,311,312,2
304,309,311,313,2
304,319,312,313,2
304,323,313,313,2
304,324,313,312,2
304,322,312,311,2
303,321,310,310,2
303,321,308,310,2
303,322,305,310,2
304,323,303,310,2
304,325,302,310,2
305,326,303,309,2
306,326,303,309,2
308,326,304,308,2
309,326,305,309,2
310,325,307,310,2
310,325,308,312,2
309,325,308,313,2
309,324,307,314,2
309,322,307,315,2
309,318,306,316,2
308,312,305,316,2
307,304,305,313,2
306,295,304,311,2
305,286,303,307,2
304,275,303,303,2
303,267,303,299,2
303,262,302,297,2
303,262,302,296,2
304,265,303,295,2
305,271,302,295,2
305,279,302,296,2
305,291,302,298,2
304,304,303,301,2
304,317,305,304,2
305,327,306,308,2
306,332,308,310,2
307,334,310,311,2
306,335,310,312,2
305,336,307,311,2
304,336,304,310,2
304,335,301,309,2
304,333,300,309,2
304,331,300,309,2
304,327,301,310,2
305,324,303,311,2
306,320,305,312,2
308,317,306,311,2
309,315,307,308,2
309,312,308,305,2
310,311,309,304,2
310,310,310,304,2
309,307,311,304,2
308,303,311,305,2
307,299,311,306,2
307,297,311,307,2
307,300,311,308,2
307,307,311,308,2
306,310,311,307,2
306,308,309,306,2
306,303,308,304,2
307,298,308,304,2
308,294,308,303,2
310,292,309,304,2
311,291,309,304,2
312,291,310,304,2
312,291,309,304,2
311,289,309,303,2
309,283,309,301,2
309,275,309,299,2
309,267,309,298,2
309,262,309,298,2
309,259,310,299,2
309,257,311,301,2
308,257,312,302,2
306,262,312,304,2
304,273,313,307,2
303,289,314,309,2
302,307,315,310,2
302,325,315,311,2
302,338,315,312,2
302,348,315,312,2
303,355,314,311,2
302,359,312,310,2
302,359,311,308,2
302,357,310,307,2
303,355,310,307,2
304,352,310,308,2
304,349,311,308,2
305,346,312,309,2
306,344,312,310,2
306,340,312,310,2
306,336,312,310,2
305,332,312,309,2
305,327,312,310,2
306,322,312,311,2
307,314,312,312,2
308,304,313,313,2
309,294,313,314,2
311,283,313,314,2
312,275,312,313,2
312,271,312,312,2
312,270,310,311,2
311,276,308,311,2
311,288,307,310,2
310,301,305,309,2
310,309,304,308,2
310,311,303,305,2
311,309,303,304,2
311,305,303,302,2
311,302,303,302,2
310,301,303,302,2
309,303,304,302,2
307,307,304,302,2
306,314,305,302,2
305,319,307,303,2
304,322,309,304,2
305,323,310,305,2
305,321,311,306,2
305,318,311,308,2
306,312,312,308,2
308,304,312,308,2
310,295,311,306,2
311,287,311,304,2
312,281,311,303,2
313,279,311,302,2
314,284,310,301,2
313,296,309,300,2
313,309,308,300,2
312,319,307,301,2
312,324,307,301,2
311,323,308,302,2
310,319,308,303,2
309,315,309,306,2
308,312,309,308,2
307,310,309,310,2
307,310,309,311,2
306,314,309,311,2
306,317,309,311,2
306,320,309,312,2
307,321,310,312,2
308,321,310,313,2
308,318,309,314,2
309,310,308,312,2
309,300,307,309,2
309,288,305,305,2
310,277,304,302,2
310,267,304,299,2
311,261,304,298,2
311,264,304,296,2
311,274,305,296,2
311,290,305,296,2
309,304,306,298,2
308,313,306,299,2
307,319,307,301,2
306,322,308,302,2
306,325,308,304,2
305,327,307,305,2
305,325,307,306,2
304,321,306,307,2
304,316,305,307,2
304,312,305,307,2
304,310,306,308,2
305,308,307,308,2
306,309,308,309,2
307,313,308,309,2
307,318,308,308,2
307,321,308,306,2
306,320,307,304,2
305,317,307,301,2
304,313,306,300,2
304,313,306,299,2
305,316,306,300,2
305,321,306,300,2
306,324,306,302,2
306,324,306,304,2
306,321,307,305,2
306,315,307,306,2
307,308,308,307,2
308,302,309,308,2
309,298,310,308,2
308,297,310,308,2
308,295,310,307,2
307,295,309,305,2
305,294,308,304,2
304,293,306,301,2
304,290,304,300,2
305,286,303,299,2
305,284,303,298,2
306,284,302,298,2
306,285,302,299,2
307,287,302,300,2
307,289,302,301,2
306,290,302,302,2
307,291,303,303,2
307,289,305,304,2
307,288,307,304,2
307,291,309,305,2
307,300,310,305,2
307,309,311,305,2
307,317,311,306,2
306,325,311,306,2
305,332,311,308,2
304,335,310,309,2
303,334,310,310,2
302,329,309,310,2
301,325,307,309,2
300,319,306,306,2
299,312,305,303,2
299,305,305,300,2
299,299,306,298,2
300,295,306,297,2
301,295,307,297,2
301,298,307,299,2
302,305,308,302,2
302,315,309,305,2
302,325,309,308,2
303,332,308,310,2
303,334,308,312,2
303,332,308,313,2
303,328,308,313,2
304,324,308,313,2
304,319,308,313,2
304,314,307,313,2
305,308,308,312,2
306,304,307,312,2
307,300,308,313,2
308,298,308,315,2
308,294,308,315,2
308,290,308,316,2
308,286,309,315,2
308,283,309,313,2
308,281,309,310,2
308,278,309,308,2
308,275,310,307,2
309,274,310,306,2
309,277,310,306,2
308,284,310,306,2
308,292,309,307,2
307,300,309,307,2
306,308,309,308,2
304,316,308,308,2
303,324,307,309,2
302,330,307,309,2
301,333,306,309,2
300,333,305,308,2
300,331,305,306,2
301,329,304,304,2
301,326,304,303,2
301,322,304,302,2
301,316,304,301,2
301,309,305,301,2
302,302,305,303,2
302,297,306,305,2
303,293,306,309,2
304,290,307,313,2
306,286,308,316,2
307,281,309,318,2
308,276,310,319,2
308,273,309,320,2
308,273,309,320,2
308,276,309,319,2
308,285,310,318,2
308,300,311,317,2
307,317,313,316,2
306,331,314,315,2
305,340,316,314,2
304,345,316,313,2
304,347,316,312,2
302,348,315,310,2
302,348,313,309,2
302,346,312,308,2
303,343,312,308,2
304,340,313,308,2
304,336,314,310,2
304,332,314,312,2
303,328,313,314,2
303,325,312,315,2
302,322,312,317,2
302,321,312,318,2
303,319,314,319,2
303,318,314,319,2
304,315,314,318,2
304,313,314,316,2
304,312,313,313,2
304,309,310,310,2
303,306,308,307,2
302,302,307,304,2
302,296,307,302,2
303,290,307,302,2
303,285,307,302,2
304,280,307,304,2
304,276,307,305,2
303,274,307,305,2
303,275,306,305,2
302,277,305,305,2
301,280,305,305,2
301,283,305,306,2
301,286,305,308,2
301,289,305,309,2
301,288,305,310,2
302,286,306,310,2
302,283,305,310,2
303,280,305,310,2
304,278,305,310,2
306,279,305,308,2
306,284,304,306,2
307,293,303,305,2
306,304,303,304,2
305,313,301,303,2
304,318,300,303,2
302,322,300,304,2
302,327,301,306,2
302,334,301,308,2
302,338,302,310,2
302,337,302,311,2
302,331,302,312,2
302,322,302,312,2
303,312,302,312,2
303,305,303,311,2
303,302,303,310,2
303,302,304,308,2
304,306,303,307,2
304,310,302,305,2
304,315,301,303,2
304,319,300,302,2
303,321,299,302,2
303,320,298,301,2
302,315,297,302,2
302,307,297,303,2
302,297,297,304,2
303,286,298,304,2
303,275,299,303,2
303,267,301,302,2
303,262,304,302,2
304,262,307,303,2
304,267,310,305,2
305,274,311,306,2
304,284,311,307,2
304,295,310,308,2
304,305,310,310,2
305,313,309,313,2
306,320,309,315,2
306,328,308,316,2
307,335,307,317,2
307,339,306,315,2
307,338,306,313,2
306,332,305,310,2
306,323,304,307,2
306,313,304,304,2
305,305,304,302,2
305,301,304,300,2
306,300,305,301,2
307,300,306,303,2
307,301,307,305,2
307,306,308,308,2
307,312,308,310,2
307,317,308,312,2
307,320,309,314,2
308,320,309,316,2
309,319,309,316,2
309,317,308,316,2
310,314,308,315,2
310,312,307,314,2
309,311,307,313,2
308,312,306,311,2
307,313,306,309,2
307,315,305,308,2
306,317,304,307,2
306,318,304,307,2
307,317,304,308,2
308,313,306,309,2
309,308,307,311,2
310,301,309,312,2
310,296,310,313,2
309,294,310,314,2
308,293,309,315,2
308,293,309,316,2
307,296,308,318,2
307,303,308,318,2
307,311,307,318,2
306,319,307,317,2
306,326,306,316,2
305,331,304,314,2
304,334,302,311,2
302,334,300,308,2
302,332,299,305,2
303,329,299,304,2
304,325,299,304,2
305,321,300,304,2
305,318,302,305,2
306,314,304,306,2
305,310,306,307,2
305,306,308,308,2
304,300,309,309,2
305,290,310,309,2
306,275,311,310,2
308,258,312,311,2
310,240,312,312,2
312,222,313,314,2
314,210,313,315,2
315,211,312,315,2
315,227,311,315,2
314,249,310,315,2
312,272,307,315,2
310,296,306,313,2
308,321,304,311,2
307,343,304,309,2
306,359,303,307,2
305,368,302,306,2
303,370,301,304,2
302,366,300,305,2
301,360,301,306,2
300,354,302,308,2
300,348,303,311,2
301,341,304,312,2
302,335,304,313,2
303,328,304,313,2
305,321,303,312,2
306,315,302,310,2
307,310,301,309,2
307,304,300,308,2
307,301,299,307,2
307,300,299,307,2
308,302,299,307,2
308,305,299,308,2
308,307,301,309,2
307,307,303,310,2
307,305,304,311,2
307,300,305,310,2
307,294,306,310,2
308,290,307,310,2
308,290,309,310,2
307,294,310,310,2
306,302,310,311,2
306,310,310,312,2
307,318,311,313,2
307,326,311,314,2
308,336,310,315,2
308,345,309,316,2
307,349,308,315,2
306,346,307,314,2
305,335,306,312,2
305,321,305,310,2
304,309,304,307,2
303,301,303,305,2
302,296,302,302,2
301,295,301,299,2
301,297,300,297,2
300,301,299,296,2
301,305,299,296,2
301,310,300,296,2
302,313,301,296,2
303,314,302,297,2
304,312,303,300,2
304,308,305,303,2
305,305,306,307,2
306,303,307,311,2
307,302,308,313,2
308,303,308,314,2
308,304,308,314,2
308,307,307,313,2
308,309,306,312,2
309,312,305,312,2
309,315,304,311,2
308,317,303,310,2
308,317,303,310,2
307,316,303,309,2
307,312,304,308,2
306,304,305,307,2
305,293,306,306,2
305,282,305,307,2
305,272,304,308,2
305,266,303,309,2
306,264,303,311,2
306,269,303,312,2
306,282,303,312,2
305,296,303,313,2
305,309,303,313,2
305,319,304,312,2
304,326,303,312,2
304,329,303,311,2
304,329,302,310,2
304,328,301,308,2
304,327,300,307,2
304,324,299,306,2
305,321,298,306,2
305,319,298,306,2
306,316,297,307,2
307,314,297,307,2
307,313,298,308,2
307,313,299,309,2
308,312,300,309,2
309,312,301,309,2
309,311,303,309,2
310,310,305,310,2
310,309,308,311,2
310,308,310,311,2
310,306,311,311,2
310,304,310,310,2
309,303,310,310,2
309,302,308,310,2
309,301,307,309,2
308,300,306,308,2
308,300,306,307,2
308,300,306,308,2
308,300,305,308,2
308,301,305,309,2
308,303,306,311,2
308,305,306,312,2
308,308,306,314,2
308,309,306,315,2
308,311,306,317,2
308,312,307,318,2
308,313,307,320,2
309,314,308,320,2
308,313,308,320,2
307,313,308,320,2
306,312,308,320,2
306,312,308,320,2
305,311,307,319,2
305,311,307,319,2
305,309,307,319,2
305,308,306,319,2
305,306,307,319,2
305,304,306,318,2
305,300,306,316,2
306,295,307,313,2
307,289,307,310,2
307,282,306,306,2
308,276,306,303,2
308,271,306,302,2
309,269,306,301,2
309,272,306,302,2
310,282,306,303,2
310,296,306,304,2
310,311,306,305,2
308,322,306,304,2
306,329,306,304,2
305,332,307,305,2
305,331,308,308,2
305,329,308,309,2
304,327,309,310,2
305,326,309,311,2
305,324,309,311,2
305,320,309,312,2
305,316,308,311,2
305,312,307,309,2
305,309,307,308,2
305,307,306,307,2
305,307,307,306,2
305,311,308,306,2
306,314,310,306,2
306,316,311,307,2
306,316,313,309,2
306,312,315,311,2
306,305,316,312,2
306,295,317,312,2
305,286,318,312,2
306,276,317,311,2
305,268,317,309,2
305,262,316,307,2
305,259,315,305,2
304,262,314,305,2
303,268,313,305,2
302,275,313,306,2
301,282,313,306,2
301,283,313,304,2
302,279,313,303,2
304,272,312,301,2
305,263,312,301,2
306,254,312,300,2
306,248,312,300,2
306,251,312,300,2
305,268,310,300,2
304,296,309,302,2
303,327,307,304,2
300,353,305,304,2
298,370,303,305,2
295,378,301,305,2
294,377,299,306,2
294,370,298,306,2
294,361,298,306,2
296,352,299,307,2
297,343,301,307,2
299,334,304,308,2
300,326,307,307,2
301,320,309,306,2
302,318,310,306,2
302,320,309,305,2
301,326,308,303,2
300,329,307,302,2
299,328,306,301,2
298,324,305,299,2
297,320,305,298,2
297,316,304,298,2
297,312,304,298,2
297,309,305,299,2
298,305,305,301,2
300,300,306,303,2
301,295,307,306,2
303,292,307,307,2
304,289,308,307,2
306,286,308,306,2
308,280,308,304,2
309,272,308,303,2
310,265,308,302,2
310,260,308,301,2
310,261,308,301,2
308,270,307,301,2
306,286,306,301,2
304,307,306,302,2
302,329,305,304,2
300,344,304,307,2
298,350,304,308,2
297,346,304,309,2
297,335,304,309,2
297,320,306,310,2
299,304,307,311,2
302,289,309,311,2
304,276,310,311,2
306,271,310,309,2
308,273,310,307,2
307,283,310,304,2
307,300,309,303,2
306,318,308,303,2
304,330,306,303,2
301,337,304,303,2
299,342,303,303,2
298,345,301,301,2
297,342,301,299,2
297,337,300,296,2
297,332,300,294,2
297,327,299,293,2
296,322,300,292,2
296,319,300,293,2
297,316,299,294,2
297,310,298,296,2
299,301,299,299,2
301,290,301,301,2
303,277,304,303,2
305,267,307,305,2
307,261,309,308,2
308,260,310,310,2
309,269,310,311,2
309,287,309,311,2
307,306,307,311,2
306,320,305,309,2
304,328,304,308,2
303,331,304,306,2
302,332,304,306,2
303,333,305,307,2
303,332,305,308,2
303,331,305,310,2
304,328,306,311,2
305,324,307,312,2
305,319,307,313,2
306,313,307,314,2
307,309,307,314,2
307,304,306,314,2
307,297,306,314,2
307,290,307,314,2
307,284,307,313,2
308,280,307,312,2
308,277,308,311,2
308,277,307,309,2
308,283,307,308,2
308,297,307,308,2
307,315,306,308,2
306,332,305,308,2
305,343,305,309,2
305,347,305,309,2
305,346,305,309,2
305,341,305,309,2
306,335,306,309,2
306,328,307,310,2
307,323,308,310,2
307,321,308,310,2
307,321,308,310,2
306,322,308,311,2
305,323,308,311,2
304,323,307,310,2
304,322,306,310,2
303,320,305,310,2
303,317,305,309,2
303,313,304,310,2
303,308,304,310,2
303,304,304,310,2
303,299,305,308,2
303,295,305,306,2
302,293,305,303,2
302,293,304,301,2
302,293,303,300,2
303,293,303,301,2
304,293,304,302,2
305,293,305,304,2
305,293,306,306,2
305,290,307,307,2
305,287,307,308,2
306,284,307,309,2
306,282,306,309,2
307,279,305,307,2
307,281,305,305,2
306,287,304,304,2
305,296,303,302,2
304,303,302,301,2
304,309,301,299,2
304,310,301,298,2
304,308,301,296,2
305,303,303,295,2
306,300,305,296,2
307,298,308,298,2
308,298,311,299,2
308,299,313,301,2
307,302,312,303,2
307,306,311,304,2
306,311,308,305,2
305,317,307,306,2
304,324,305,305,2
303,329,304,305,2
303,332,304,305,2
302,331,305,305,2
303,326,307,305,2
304,319,309,305,2
306,308,310,304,2
307,297,311,304,2
307,287,310,304,2
307,281,309,302,2
306,282,307,301,2
306,289,306,300,2
306,301,305,300,2
305,313,305,301,2
304,322,306,303,2
303,326,306,306,2
304,328,308,309,2
306,328,310,312,2
307,327,312,314,2
308,325,312,314,2
308,324,312,313,2
308,323,311,312,2
307,322,310,311,2
306,322,308,309,2
305,319,307,308,2
305,313,305,306,2
305,307,305,305,2
306,301,305,305,2
307,297,305,305,2
307,295,305,306,2
308,294,304,307,2
308,294,303,308,2
307,296,302,309,2
307,301,302,309,2
306,308,301,310,2
305,312,302,311,2
304,311,304,311,2
304,306,306,311,2
304,300,309,310,2
305,293,310,309,2
306,284,311,309,2
307,275,311,308,2
308,269,311,308,2
310,264,311,308,2
311,261,311,308,2
313,263,311,308,2
314,267,311,307,2
314,274,311,307,2
315,281,311,307,2
313,288,310,306,2
312,293,309,305,2
310,301,308,303,2
307,313,307,300,2
304,326,306,297,2
302,336,306,296,2
301,342,308,297,2
301,343,310,299,2
301,340,311,302,2
301,334,310,305,2
302,327,310,308,2
302,318,310,310,2
303,309,310,311,2
304,303,310,312,2
304,299,310,312,2
305,298,311,312,2
306,298,310,311,2
307,300,310,309,2
308,301,309,307,2
309,303,308,306,2
309,306,307,304,2
309,310,306,303,2
309,316,306,302,2
308,321,305,302,2
307,325,305,302,2
307,326,305,302,2
306,326,305,303,2
305,325,305,302,2
305,323,305,302,2
305,320,305,302,2
304,310,305,303,2
304,294,305,302,2
305,275,306,302,2
306,257,307,302,2
308,242,308,302,2
309,232,308,303,2
310,229,308,303,2
311,235,306,303,2
310,251,305,303,2
308,272,303,303,2
305,291,302,303,2
303,306,301,303,2
301,320,300,303,2
300,330,300,304,2
300,337,301,304,2
300,342,301,306,2
300,345,302,307,2
300,346,303,310,2
300,345,303,311,2
300,343,304,314,2
300,341,305,316,2
301,341,305,318,2
301,339,305,319,2
302,337,305,319,2
302,331,305,318,2
303,324,304,316,2
303,314,302,312,2
303,304,301,309,2
303,295,301,305,2
303,290,300,302,2
303,289,300,299,2
304,291,300,297,2
305,294,299,295,2
306,297,299,294,2
306,300,299,295,2
306,305,300,298,2
307,311,301,303,2
307,318,303,307,2
307,325,305,311,2
307,332,307,313,2
307,337,308,314,2
307,336,309,314,2
307,328,309,312,2
308,316,309,311,2
309,305,309,311,2
310,298,309,311,2
310,298,310,311,2
310,302,309,311,2
309,307,309,311,2
307,310,307,312,2
306,310,306,312,2
305,308,305,312,2
305,303,305,313,2
305,298,306,313,2
305,296,307,313,2
305,297,308,313,2
305,299,307,313,2
304,303,307,313,2
304,306,306,313,2
303,307,305,311,2
301,304,303,309,2
299,300,302,308,2
299,293,301,307,2
301,287,302,307,2
303,281,304,308,2
304,278,305,309,2
305,278,306,309,2
306,280,306,309,2
306,285,306,308,2
306,291,307,308,2
306,296,307,308,2
306,301,306,308,2
306,308,306,308,2
305,316,306,308,2
304,322,305,307,2
303,325,303,306,2
302,325,302,305,2
302,321,302,304,2
302,315,302,303,2
302,310,302,302,2
303,306,303,302,2
303,305,304,303,2
304,305,305,304,2
305,306,305,304,2
305,308,305,305,2
306,309,304,305,2
307,309,303,305,2
307,307,303,303,2
307,301,302,300,2
308,293,301,298,2
308,286,300,296,2
308,281,300,294,2
308,279,299,293,2
307,281,299,295,2
307,287,300,298,2
307,293,300,302,2
306,300,302,305,2
306,307,304,307,2
305,316,306,308,2
305,323,309,309,2
303,329,311,310,2
302,332,312,311,2
300,334,312,311,2
299,334,311,311,2
297,333,309,310,2
296,330,308,308,2
297,328,307,307,2
297,327,306,306,2
297,325,305,305,2
298,320,305,304,2
299,313,305,303,2
300,307,305,302,2
301,303,305,302,2
302,302,306,302,2
303,304,306,303,2
303,306,307,304,2
302,308,306,305,2
302,313,306,306,2
302,317,306,307,2
302,319,306,309,2
303,316,307,311,2
304,310,308,311,2
306,301,308,312,2
306,294,308,313,2
307,289,308,314,2
308,292,308,315,2
308,300,307,315,2
307,311,307,313,2
305,319,306,310,2
304,322,305,308,2
304,319,304,307,2
304,313,303,307,2
304,303,303,307,2
304,293,302,307,2
305,286,303,307,2
305,282,304,308,2
306,284,305,309,2
306,288,306,310,2
305,295,306,310,2
304,303,306,312,2
303,308,307,313,2
303,309,307,313,2
301,307,307,313,2
300,304,306,313,2
299,305,306,313,2
300,308,306,313,2
301,311,305,313,2
302,316,305,313,2
303,323,304,313,2
304,330,303,312,2
303,334,301,310,2
303,336,300,309,2
303,336,300,308,2
304,335,301,307,2
304,333,301,308,2
304,330,302,308,2
304,326,303,309,2
304,322,304,309,2
304,318,305,308,2
304,313,306,308,2
305,306,307,307,2
306,299,306,307,2
306,292,305,308,2
306,285,303,309,2
306,280,302,309,2
306,277,302,309,2
306,278,302,308,2
305,284,303,307,2
305,289,304,305,2
305,294,305,304,2
304,298,305,304,2
304,304,304,304,2
304,309,303,304,2
304,313,303,303,2
305,314,302,302,2
305,312,303,302,2
307,308,304,304,2
307,302,306,306,2
308,295,307,309,2
308,284,307,311,2
307,273,308,312,2
306,266,308,312,2
305,263,307,312,2
304,265,307,310,2
303,273,305,308,2
301,286,304,307,2
301,299,303,306,2
300,310,302,306,2
300,319,301,305,2
301,324,301,304,2
302,330,302,304,2
303,335,302,303,2
304,337,303,302,2
304,336,303,302,2
305,333,304,302,2
305,327,304,302,2
305,317,304,302,2
304,308,304,301,2
303,302,304,301,2
302,300,304,301,2
301,301,304,301,2
300,304,303,302,2
300,309,303,303,2
300,313,302,303,2
301,315,301,303,2
302,312,300,302,2
303,306,299,300,2
304,297,300,299,2
305,285,300,298,2
307,274,301,298,2
308,267,302,299,2
309,264,302,301,2
310,265,303,303,2
310,271,303,304,2
309,283,303,304,2
308,299,302,305,2
307,318,302,306,2
306,333,301,307,2
305,344,301,308,2
304,349,301,309,2
304,350,302,309,2
304,348,303,310,2
304,344,303,310,2
305,339,303,310,2
305,332,303,311,2
305,324,303,311,2
306,316,303,311,2
306,309,303,310,2
306,305,303,309,2
306,302,304,307,2
307,299,304,306,2
307,297,305,306,2
307,292,305,306,2
306,286,305,307,2
305,281,305,308,2
304,275,304,308,2
304,270,304,307,2
306,265,305,303,2
307,262,305,300,2
307,262,306,298,2
306,268,305,297,2
305,279,304,297,2
305,292,304,299,2
304,305,304,301,2
304,318,304,303,2
303,328,304,303,2
303,335,304,303,2
303,337,304,303,2
303,334,304,303,2
304,326,303,302,2
304,318,303,301,2
305,310,303,300,2
306,302,303,298,2
306,297,303,297,2
306,294,303,296,2
306,295,302,295,2
306,298,302,295,2
305,304,301,295,2
305,312,301,296,2
304,321,301,297,2
305,327,302,299,2
305,331,304,301,2
306,333,306,303,2
306,334,307,305,2
307,333,309,306,2
307,330,310,308,2
308,326,309,309,2
309,320,309,309,2
310,312,308,309,2
309,304,308,309,2
309,296,307,307,2
308,289,306,305,2
306,282,305,304,2
305,279,304,302,2
304,281,304,302,2
303,288,304,302,2
302,296,304,303,2
301,304,304,303,2
301,312,305,303,2
301,317,305,304,2
301,317,306,304,2
302,314,308,305,2
303,308,310,306,2
304,302,311,307,2
305,294,311,307,2
305,285,311,305,2
305,279,310,304,2
305,276,309,303,2
305,276,309,304,2
307,277,311,306,2
309,283,312,307,2
310,294,313,308,2
310,308,314,308,2
310,323,313,308,2
308,335,312,308,2
307,345,310,309,2
307,350,309,310,2
308,350,309,312,2
308,343,308,314,2
309,329,309,314,2
309,312,309,313,2
310,295,308,313,2
310,283,309,313,2
310,276,309,312,2
310,275,309,311,2
310,279,308,309,2
310,289,307,308,2
308,298,306,305,2
307,302,304,303,2
306,300,303,301,2
305,295,302,298,2
305,290,300,296,2
305,291,300,294,2
305,298,299,292,2
304,309,298,291,2
304,322,297,291,2
303,330,297,292,2
302,333,298,294,2
301,332,300,297,2
302,328,301,301,2
303,322,302,304,2
304,315,303,307,2
304,307,303,309,2
304,299,302,310,2
304,290,302,310,2
304,284,302,310,2
305,281,303,310,2
304,283,304,309,2
304,287,306,308,2
304,295,306,308,2
304,304,306,307,2
304,314,306,306,2
305,326,306,305,2
305,333,306,305,2
305,334,306,305,2
306,329,306,306,2
306,321,308,307,2
307,313,310,309,2
307,306,312,312,2
309,298,314,313,2
309,294,314,314,2
310,293,313,314,2
309,294,312,313,2
308,295,311,313,2
308,296,311,313,2
308,297,311,314,2
309,296,310,315,2
309,292,311,315,2
309,285,310,315,2
309,279,310,315,2
309,273,309,313,2
307,272,309,311,2
305,278,307,308,2
303,292,306,305,2
302,312,305,304,2
301,331,304,304,2
300,341,305,304,2
301,341,305,304,2
301,337,305,304,2
302,330,305,304,2
302,324,304,305,2
302,318,304,305,2
302,315,303,306,2
302,316,303,306,2
302,317,303,306,2
303,316,303,305,2
303,313,303,304,2
304,308,303,303,2
304,303,303,303,2
305,296,304,302,2
306,289,305,302,2
306,284,305,302,2
306,282,306,302,2
306,284,307,302,2
305,289,308,302,2
305,297,309,303,2
305,306,312,305,2
305,313,313,306,2
305,315,315,307,2
304,312,314,308,2
304,307,312,309,2
305,302,310,310,2
305,300,309,310,2
305,304,308,311,2
305,313,306,311,2
303,326,304,312,2
303,339,302,312,2
303,350,300,312,2
304,354,299,313,2
304,351,298,313,2
305,340,299,313,2
306,326,301,312,2
306,310,304,311,2
307,296,307,310,2
307,285,310,310,2
307,280,311,310,2
307,284,311,312,2
306,294,311,314,2
305,305,311,317,2
305,313,311,319,2
304,319,310,320,2
305,325,310,321,2
305,331,310,322,2
304,335,309,322,2
304,336,309,320,2
304,334,308,316,2
304,330,308,312,2
303,327,308,310,2
303,324,307,308,2
303,321,307,306,2
304,317,307,305,2
304,313,307,303,2
304,308,307,302,2
304,303,308,301,2
304,299,308,301,2
305,296,310,302,2
305,295,311,303,2
305,296,311,304,2
305,299,311,306,2
305,301,311,307,2
306,300,310,309,2
307,299,311,310,2
308,298,311,311,2
308,299,311,311,2
307,301,311,311,2
307,305,311,312,2
306,308,312,312,2
306,308,312,312,2
305,306,311,311,2
305,300,309,310,2
304,292,307,307,2
304,284,305,304,2
305,277,304,302,2
305,271,303,300,2
305,272,302,299,2
306,279,302,299,2
306,292,302,299,2
307,307,304,301,2
308,323,308,304,2
310,334,311,306,2
311,338,314,308,2
311,336,315,309,2
310,331,313,309,2
309,325,310,309,2
307,316,307,308,2
307,307,304,307,2
306,298,302,306,2
305,294,300,304,2
303,292,299,303,2
303,291,299,302,2
303,288,300,302,2
304,286,300,302,2
306,284,301,302,2
307,282,302,302,2
307,282,302,302,2
308,282,303,304,2
308,285,304,304,2
308,290,305,306,2
308,295,305,307,2
308,302,306,309,2
308,307,306,311,2
309,309,306,312,2
309,307,305,312,2
308,304,304,312,2
307,303,303,311,2
305,307,302,312,2
304,315,301,312,2
303,325,300,313,2
302,333,299,312,2
301,339,298,311,2
301,340,298,309,2
302,337,298,308,2
303,330,300,308,2
305,321,301,308,2
306,313,303,309,2
307,309,305,310,2
307,308,307,311,2
307,308,308,312,2
307,310,309,312,2
306,313,308,311,2
305,318,307,310,2
303,320,306,310,2
303,319,307,310,2
303,314,307,310,2
303,309,307,310,2
304,303,308,309,2
305,299,308,308,2
305,297,307,306,2
306,297,306,305,2
306,297,305,303,2
305,298,304,302,2
305,297,302,301,2
304,294,301,301,2
303,292,301,303,2
303,290,302,305,2
304,292,304,308,2
305,296,307,310,2
306,298,310,312,2
307,299,313,314,2
307,299,315,314,2
307,299,315,314,2
307,298,315,313,2
306,294,315,312,2
306,289,314,311,2
307,284,314,310,2
307,281,314,309,2
307,283,312,307,2
307,290,310,306,2
307,299,308,305,2
307,310,307,304,2
308,322,306,304,2
309,333,306,304,2
309,341,307,305,2
309,346,308,305,2
309,348,308,305,2
308,347,307,305,2
307,341,307,304,2
306,331,306,304,2
306,319,306,304,2
306,307,306,304,2
306,299,307,304,2
308,296,307,304,2
308,295,308,304,2
308,294,308,305,2
308,289,309,305,2
309,276,309,305,2
311,256,310,305,2
313,230,311,305,2
315,204,313,305,2
316,181,315,304,2
317,162,316,304,2
318,158,317,304,2
316,176,317,305,2
313,213,316,305,2
310,257,314,305,2
305,300,312,305,2
301,337,309,305,2
299,366,308,306,2
297,382,307,306,2
295,386,306,307,2
294,384,306,308,2
295,380,306,309,2
296,374,307,310,2
298,366,308,310,2
299,357,309,308,2
299,348,309,306,2
299,339,308,305,2
299,333,307,304,2
299,328,306,304,2
300,322,306,302,2
301,314,306,302,2
302,305,307,300,2
303,293,308,300,2
305,279,310,300,2
307,262,311,300,2
308,247,311,301,2
308,236,311,301,2
308,227,310,301,2
308,214,310,301,2
309,203,311,301,2
309,202,312,302,2
310,219,313,302,2
309,248,314,303,2
307,276,314,303,2
304,297,313,303,2
301,315,311,302,2
298,330,310,302,2
297,342,309,302,2
296,345,308,303,2
296,341,307,303,2
296,333,307,302,2
297,324,308,302,2
298,318,309,302,2
300,315,309,303,2
301,312,310,304,2
302,309,310,305,2
303,309,311,307,2
303,314,310,308,2
303,324,310,310,2
302,335,309,311,2
302,345,309,313,2
303,351,309,315,2
303,352,310,318,2
304,349,311,320,2
304,345,313,321,2
304,338,315,321,2
304,332,316,319,2
304,325,317,316,2
303,320,316,313,2
302,314,314,310,2
301,309,312,307,2
301,305,309,305,2
301,303,308,304,2
302,302,307,303,2
302,303,307,302,2
302,305,307,302,2
301,307,307,302,2
302,307,307,303,2
301,303,306,303,2
302,297,307,305,2
302,292,308,307,2
303,286,309,309,2
304,282,309,309,2
305,281,309,309,2
305,283,308,309,2
304,291,307,309,2
304,300,307,309,2
304,309,306,309,2
304,317,305,309,2
305,323,305,308,2
305,327,305,307,2
306,328,305,306,2
307,325,305,305,2
308,319,305,305,2
309,310,306,306,2
310,299,307,308,2
310,289,308,309,2
310,278,308,311,2
310,272,309,311,2
309,271,309,312,2
309,279,309,312,2
309,294,310,312,2
308,312,309,313,2
307,321,310,314,2
306,320,310,315,2
306,309,311,314,2
307,296,313,313,2
307,286,316,313,2
308,275,317,312,2
308,267,319,310,2
308,268,320,308,2
307,278,321,306,2
306,295,322,305,2
305,313,322,306,2
305,327,321,307,2
307,336,320,308,2
308,342,319,310,2
308,346,316,310,2
308,350,313,309,2
307,351,310,307,2
307,350,308,307,2
307,344,306,308,2
308,335,305,310,2
309,325,305,311,2
309,314,306,312,2
310,304,306,313,2
311,296,306,312,2
311,292,306,310,2
312,292,305,309,2
311,297,306,307,2
312,304,306,305,2
313,309,308,305,2
313,311,311,304,2
312,308,313,303,2
311,302,315,303,2
312,295,317,304,2
314,288,318,305,2
316,281,318,307,2
317,276,317,308,2
316,276,315,309,2
316,281,313,310,2
314,293,311,312,2
312,309,309,313,2
311,326,308,313,2
309,339,308,313,2
308,349,307,313,2
307,355,306,313,2
307,358,304,313,2
305,359,302,312,2
305,360,300,311,2
304,360,299,309,2
303,353,298,307,2
302,342,298,306,2
301,330,298,305,2
301,321,298,305,2
301,318,299,305,2
301,318,299,305,2
301,318,300,305,2
302,316,300,306,2
303,312,301,307,2
304,308,302,308,2
304,304,303,309,2
305,297,304,310,2
306,290,304,311,2
307,282,305,312,2
307,274,305,312,2
306,268,304,312,2
306,264,304,311,2
305,263,304,310,2
304,264,305,309,2
303,268,305,309,2
303,280,305,309,2
302,297,306,308,2
302,314,306,308,2
302,329,306,309,2
303,339,306,309,2
303,343,307,310,2
305,339,308,310,2
306,331,309,311,2
306,320,309,310,2
307,309,308,311,2
308,298,307,311,2
309,289,307,312,2
310,288,307,313,2
310,296,307,313,2
310,310,306,314,2
309,319,306,315,2
308,319,305,314,2
308,309,304,313,2
308,296,304,310,2
309,284,305,308,2
311,275,308,307,2
312,273,311,307,2
312,276,314,308,2
311,286,316,310,2
310,301,318,312,2
310,319,319,315,2
309,335,320,317,2
308,347,320,318,2
307,355,317,319,2
307,357,314,320,2
306,356,312,319,2
305,353,312,318,2
305,349,312,316,2
305,346,314,315,2
305,342,316,313,2
306,335,318,310,2
306,325,320,307,2
305,317,320,304,2
304,309,318,302,2
303,303,315,301,2
302,298,310,301,2
302,296,305,301,2
303,298,302,302,2
304,301,301,303,2
306,303,302,305,2
308,306,304,307,2
309,308,307,308,2
311,309,309,309,2
313,310,310,310,2
313,312,311,311,2
313,313,311,311,2
312,313,310,311,2
311,312,308,312,2
310,308,306,312,2
309,303,305,312,2
309,299,303,311,2
310,298,303,311,2
310,300,302,312,2
310,303,301,312,2
311,306,300,312,2
311,306,298,311,2
311,304,298,309,2
310,299,296,306,2
309,292,296,302,2
308,286,296,300,2
306,285,298,299,2
306,289,301,300,2
305,298,305,301,2
305,306,309,304,2
306,311,313,306,2
306,314,315,309,2
306,318,315,311,2
305,319,314,312,2
305,317,313,313,2
305,310,311,312,2
306,301,310,311,2
307,290,309,311,2
308,278,308,310,2
309,266,308,308,2
311,255,310,308,2
312,251,312,307,2
312,252,314,306,2
312,255,315,306,2
312,258,315,305,2
311,262,315,305,2
310,269,315,306,2
307,281,315,307,2
305,299,314,310,2
303,321,313,313,2
302,340,312,315,2
300,351,311,316,2
298,355,310,316,2
298,355,309,316,2
297,352,308,315,2
297,350,306,315,2
297,349,306,315,2
297,348,306,314,2
299,347,306,313,2
300,344,307,311,2
301,340,307,308,2
302,336,308,305,2
303,331,308,304,2
304,326,308,303,2
305,322,308,302,2
305,316,310,302,2
306,309,313,302,2
307,304,316,304,2
308,302,318,307,2
307,300,319,309,2
307,300,316,311,2
306,302,312,312,2
306,302,309,311,2
306,299,307,310,2
306,295,306,311,2
308,289,305,312,2
309,284,305,312,2
310,282,305,313,2
310,283,306,313,2
310,289,307,314,2
311,298,307,316,2
312,310,308,317,2
312,321,308,318,2
310,329,308,318,2
308,333,307,318,2
306,332,306,318,2
305,328,305,317,2
304,318,306,317,2
304,304,307,318,2
305,288,308,320,2
307,272,309,322,2
308,259,309,322,2
308,253,309,321,2
308,256,308,319,2
307,269,307,316,2
306,291,306,314,2
305,313,306,312,2
304,327,306,310,2
303,336,306,308,2
303,339,306,307,2
303,340,305,306,2
303,339,304,306,2
303,337,305,306,2
304,334,305,306,2
304,330,305,307,2
305,327,305,308,2
305,326,304,310,2
305,328,304,312,2
306,329,305,314,2
307,330,306,315,2
308,331,307,315,2
308,330,307,315,2
308,327,306,314,2
309,322,304,313,2
309,317,301,313,2
310,312,299,313,2
310,307,299,312,2
310,302,300,311,2
311,299,302,310,2
311,297,302,309,2
310,296,303,309,2
309,297,303,309,2
308,299,303,309,2
307,302,303,310,2
306,305,303,312,2
306,308,303,313,2
306,311,305,313,2
306,313,306,314,2
306,311,308,314,2
307,305,309,314,2
307,298,310,314,2
308,289,310,315,2
309,280,310,314,2
310,270,310,313,2
310,263,310,311,2
309,265,309,310,2
308,275,308,309,2
307,290,306,310,2
306,305,305,310,2
305,318,303,310,2
304,328,302,310,2
304,334,303,310,2
304,338,304,310,2
305,337,305,311,2
305,334,307,311,2
306,331,307,310,2
307,328,307,311,2
307,327,306,310,2
307,326,306,310,2
308,327,305,309,2
309,327,305,309,2
310,327,306,309,2
310,325,306,310,2
309,321,305,310,2
307,316,305,309,2
306,310,304,309,2
306,304,305,309,2
307,300,305,310,2
308,299,307,311,2
308,303,308,311,2
309,308,308,310,2
308,313,307,308,2
306,315,305,306,2
304,318,302,304,2
302,320,300,304,2
301,321,299,305,2
301,320,298,306,2
300,316,298,307,2
301,310,297,308,2
301,303,298,308,2
303,295,300,309,2
305,286,303,309,2
307,276,306,309,2
308,268,308,308,2
309,264,310,308,2
309,262,309,307,2
309,265,308,307,2
308,274,307,308,2
306,289,306,309,2
304,306,305,311,2
302,322,305,313,2
301,334,305,314,2
301,341,306,314,2
301,343,307,313,2
301,339,308,313,2
302,330,308,314,2
303,317,309,314,2
304,302,309,315,2
305,285,310,316,2
305,268,310,318,2
305,259,311,319,2
305,261,311,319,2
306,272,311,319,2
306,283,309,317,2
306,297,308,315,2
306,312,307,314,2
306,324,307,313,2
306,332,306,312,2
305,337,305,311,2
304,343,304,310,2
303,347,304,309,2
302,350,303,309,2
301,350,303,309,2
301,349,302,309,2
301,346,303,310,2
301,342,303,310,2
302,337,303,310,2
302,331,304,310,2
302,326,305,309,2
302,320,306,308,2
303,315,307,308,2
304,308,307,309,2
304,303,308,310,2
305,299,308,311,2
306,296,307,310,2
307,296,307,309,2
308,296,305,308,2
308,301,305,307,2
308,309,304,307,2
308,316,303,307,2
307,319,303,308,2
307,318,303,309,2
306,316,303,309,2
305,315,303,308,2
305,314,303,307,2
305,313,304,307,2
305,309,305,307,2
306,304,307,308,2
306,298,308,308,2
306,293,310,308,2
307,289,312,309,2
309,285,315,309,2
311,282,316,309,2
312,280,316,308,2
312,278,314,307,2
312,275,310,305,2
312,273,305,303,2
311,275,300,303,2
312,278,297,304,2
311,280,294,304,2
310,280,293,306,2
310,278,293,306,2
311,277,294,307,2
311,279,296,308,2
311,283,299,309,2
309,290,301,309,2
308,301,303,309,2
308,315,304,308,2
309,331,305,309,2
309,344,306,311,2
309,353,305,314,2
308,356,303,316,2
306,354,301,315,2
304,347,300,312,2
302,337,299,309,2
302,326,298,308,2
302,318,298,306,2
302,312,298,306,2
303,310,299,307,2
304,310,299,307,2
305,311,299,307,2
306,309,299,307,2
306,307,300,307,2
307,301,301,306,2
307,294,302,307,2
307,287,303,307,2
307,282,303,308,2
307,280,303,309,2
306,285,303,308,2
306,296,303,308,2
305,310,303,308,2
305,322,303,308,2
305,330,303,307,2
306,332,303,306,2
307,330,303,305,2
309,325,302,306,2
310,319,301,306,2
311,312,300,306,2
311,307,299,305,2
311,301,299,304,2
311,296,299,303,2
310,289,300,302,2
310,282,300,300,2
310,273,300,299,2
310,266,299,298,2
310,263,300,299,2
310,268,301,303,2
310,280,304,307,2
310,294,307,312,2
310,308,309,316,2
309,320,310,320,2
308,329,309,322,2
307,335,308,323,2
304,337,305,322,2
303,336,303,319,2
302,332,301,316,2
302,326,300,313,2
302,320,300,310,2
303,315,300,309,2
304,312,301,307,2
305,311,302,306,2
305,313,304,305,2
306,313,305,305,2
306,313,307,305,2
306,310,309,305,2
306,307,310,306,2
306,303,310,306,2
305,299,308,306,2
305,297,307,306,2
306,298,308,306,2
308,300,310,306,2
311,301,314,306,2
313,301,318,306,2
314,300,321,306,2
313,296,320,306,2
312,286,316,305,2
310,270,311,304,2
310,252,305,303,2
310,234,302,303,2
310,219,300,302,2
310,211,299,300,2
310,214,298,300,2
308,229,297,300,2
307,251,297,301,2
305,275,297,302,2
303,299,298,304,2
300,319,299,304,2
299,333,301,305,2
299,343,303,305,2
298,351,304,304,2
298,357,304,304,2
299,360,304,305,2
300,361,305,307,2
302,359,306,308,2
303,354,308,309,2
305,346,308,309,2
305,336,309,309,2
306,326,308,309,2
305,316,307,308,2
304,305,306,307,2
304,296,305,305,2
304,288,304,303,2
305,287,304,302,2
307,292,304,302,2
309,302,305,303,2
311,314,306,306,2
312,326,307,307,2
312,336,307,308,2
310,341,307,308,2
307,342,306,307,2
305,338,304,304,2
303,333,302,301,2
302,326,301,299,2
302,320,301,297,2
303,313,302,296,2
304,303,303,296,2
306,290,304,296,2
307,278,305,298,2
308,267,306,299,2
309,258,306,301,2
310,256,306,302,2
310,262,306,302,2
310,275,304,303,2
310,291,303,304,2
309,303,303,304,2
309,311,302,304,2
309,314,303,305,2
309,315,304,306,2
311,313,305,307,2
312,309,307,308,2
313,304,308,309,2
313,301,309,310,2
313,300,309,309,2
313,300,309,307,2
311,300,308,306,2
309,299,307,304,2
309,298,306,303,2
309,299,305,302,2
309,301,304,300,2
308,304,303,298,2
308,307,301,298,2
307,310,300,299,2
306,312,299,300,2
305,312,299,301,2
304,308,299,302,2
303,301,299,302,2
303,291,298,302,2
303,280,298,302,2
304,274,297,302,2
306,273,298,304,2
308,278,299,307,2
309,288,301,308,2
308,298,303,309,2
307,309,304,309,2
307,318,304,307,2
306,326,304,305,2
305,330,304,304,2
305,332,304,303,2
305,331,303,303,2
305,329,303,303,2
306,326,303,302,2
307,323,303,301,2
308,321,303,301,2
310,316,304,300,2
312,309,304,300,2
313,297,304,300,2
314,279,306,301,2
314,257,306,302,2
314,235,307,302,2
313,216,308,302,2
314,198,308,302,2
314,184,310,302,2
314,178,312,302,2
314,182,314,303,2
314,197,316,304,2
314,219,317,305,2
312,247,317,306,2
308,281,314,306,2
305,315,311,307,2
302,344,307,308,2
300,364,305,310,2
298,379,303,312,2
298,390,302,314,2
298,397,302,315,2
298,398,301,314,2
298,394,300,313,2
298,386,299,311,2
299,374,299,310,2
300,362,300,310,2
301,351,302,309,2
302,344,302,309,2
303,339,303,308,2
303,336,303,307,2
304,333,304,308,2
305,331,305,309,2
305,331,306,309,2
305,331,306,308,2
305,331,306,307,2
305,329,305,306,2
305,326,304,305,2
