312,313,303,310,1
311,314,304,310,1
308,314,304,309,1
307,313,304,310,1
306,311,304,311,1
307,308,304,313,1
309,306,304,314,1
311,305,304,315,1
313,304,304,316,1
313,303,305,315,1
313,302,305,314,1
311,301,305,313,1
308,299,305,313,1
305,299,305,313,1
302,299,305,313,1
302,299,305,314,1
302,300,306,313,1
303,301,307,312,1
304,302,307,311,1
304,302,305,310,1
305,302,304,308,1
305,303,304,307,1
305,303,304,306,1
305,303,304,306,1
305,303,304,305,1
305,304,304,305,1
305,305,304,305,1
305,306,303,304,1
306,306,302,304,1
307,305,302,303,1
308,304,302,303,1
311,304,303,302,1
312,306,304,301,1
313,308,304,301,1
313,311,304,301,1
312,312,304,300,1
310,311,304,298,1
308,309,304,297,1
307,307,304,296,1
306,307,304,295,1
306,306,303,292,1
306,305,303,291,1
306,306,303,291,1
307,308,304,293,1
309,311,304,297,1
308,314,304,301,1
307,316,303,305,1
306,318,304,309,1
305,318,304,312,1
303,318,304,314,1
302,319,304,313,1
302,320,303,310,1
301,321,303,304,1
301,322,302,297,1
301,321,303,291,1
300,319,302,286,1
298,314,301,283,1
298,309,300,286,1
300,307,301,294,1
303,306,304,305,1
305,305,307,314,1
307,302,310,321,1
307,299,313,325,1
306,297,314,325,1
305,296,314,322,1
304,294,312,316,1
302,292,309,309,1
301,291,307,304,1
301,290,306,301,1
301,289,304,298,1
301,288,303,295,1
302,289,303,295,1
303,292,304,297,1
306,297,305,300,1
308,302,307,302,1
310,306,308,302,1
311,309,308,302,1
312,312,308,302,1
312,315,308,304,1
313,317,309,308,1
314,318,308,312,1
314,319,308,314,1
313,318,308,316,1
312,317,307,317,1
309,314,307,317,1
308,310,307,316,1
306,307,308,315,1
306,305,308,313,1
305,304,309,313,1
306,305,309,313,1
306,306,310,314,1
307,308,310,316,1
306,311,311,318,1
306,313,311,320,1
306,314,312,320,1
306,314,313,317,1
306,314,312,313,1
306,313,311,308,1
306,312,309,303,1
305,310,307,299,1
304,307,305,295,1
304,306,304,293,1
306,306,304,291,1
308,306,305,291,1
310,306,305,292,1
312,306,305,293,1
313,307,304,293,1
314,308,304,293,1
313,309,303,293,1
312,309,302,294,1
312,311,302,296,1
311,311,302,299,1
308,311,303,302,1
306,310,304,305,1
305,309,305,307,1
305,308,305,309,1
305,308,306,312,1
306,310,307,316,1
307,312,308,319,1
308,313,309,322,1
307,313,310,324,1
307,312,309,324,1
306,311,308,323,1
307,311,307,321,1
307,312,306,320,1
307,313,306,319,1
307,314,305,318,1
307,313,305,318,1
308,313,304,317,1
308,311,304,315,1
308,310,303,309,1
308,309,302,303,1
307,307,301,296,1
306,306,300,290,1
304,305,299,284,1
304,303,299,280,1
305,304,300,280,1
307,305,302,285,1
309,307,303,290,1
310,307,304,296,1
310,307,305,301,1
309,309,306,306,1
309,312,307,310,1
310,317,308,314,1
310,323,309,315,1
310,327,308,313,1
310,329,307,311,1
309,330,304,307,1
308,329,302,305,1
308,328,302,304,1
308,326,302,306,1
309,323,305,309,1
310,320,307,313,1
312,318,308,316,1
313,315,309,317,1
314,312,310,317,1
313,311,311,316,1
312,310,311,315,1
312,310,311,312,1
310,307,311,308,1
309,304,310,303,1
308,299,309,299,1
307,295,307,296,1
307,291,305,294,1
307,289,304,293,1
308,288,303,293,1
308,288,301,294,1
308,289,299,294,1
308,290,298,294,1
308,292,299,296,1
309,294,301,301,1
311,297,303,307,1
312,300,306,312,1
311,301,307,314,1
308,301,307,314,1
305,302,307,312,1
303,303,308,310,1
303,305,309,310,1
303,307,310,310,1
304,310,310,309,1
305,311,310,310,1
306,312,309,310,1
308,311,308,310,1
308,310,307,309,1
309,308,306,308,1
308,308,305,307,1
308,308,305,306,1
308,308,305,305,1
309,309,306,306,1
311,309,307,306,1
313,309,307,305,1
314,308,306,305,1
315,307,306,303,1
314,306,305,303,1
313,306,305,303,1
312,306,305,303,1
309,305,306,303,1
306,304,306,304,1
304,304,308,305,1
303,305,309,307,1
303,305,310,308,1
303,305,311,309,1
305,305,312,311,1
306,305,312,312,1
308,306,312,313,1
308,306,312,312,1
309,307,311,311,1
309,307,310,309,1
308,307,309,306,1
307,307,310,304,1
307,308,310,302,1
308,308,310,302,1
310,309,310,301,1
310,310,310,300,1
310,310,308,299,1
308,310,306,297,1
306,309,304,294,1
305,308,303,290,1
303,307,301,286,1
302,305,301,283,1
300,303,300,283,1
300,302,301,286,1
300,301,303,291,1
301,301,305,296,1
303,301,308,302,1
305,303,310,309,1
306,305,312,314,1
307,306,312,315,1
307,306,312,314,1
307,306,310,311,1
306,306,308,307,1
306,305,307,304,1
306,304,306,302,1
306,304,305,301,1
306,304,305,302,1
306,305,305,304,1
306,307,306,305,1
306,310,306,305,1
307,311,306,305,1
307,311,305,305,1
307,312,305,307,1
306,312,304,309,1
307,314,304,311,1
308,316,304,313,1
308,319,303,314,1
307,321,301,313,1
304,322,299,311,1
301,320,298,307,1
299,317,298,303,1
298,311,299,299,1
297,305,300,297,1
296,300,300,296,1
296,297,301,296,1
297,297,303,298,1
297,300,304,301,1
298,304,305,304,1
299,308,306,306,1
300,314,307,308,1
301,318,306,310,1
301,320,305,310,1
301,320,303,310,1
301,317,303,309,1
303,313,303,309,1
305,310,304,310,1
307,308,306,313,1
309,306,308,316,1
310,304,309,318,1
311,301,310,318,1
312,299,310,318,1
312,298,309,316,1
310,296,308,311,1
308,293,306,307,1
307,292,305,304,1
307,293,306,302,1
308,293,306,302,1
308,293,306,300,1
308,293,305,298,1
306,293,304,296,1
306,295,304,295,1
307,298,304,295,1
307,300,304,294,1
307,300,302,293,1
306,301,302,294,1
307,303,302,297,1
309,306,302,301,1
311,308,302,304,1
313,310,303,306,1
314,312,303,307,1
316,314,303,305,1
318,317,302,303,1
318,318,302,301,1
317,318,301,299,1
314,317,302,299,1
312,317,303,300,1
311,317,305,302,1
310,316,306,303,1
307,314,307,303,1
303,311,306,302,1
301,309,305,301,1
300,308,305,300,1
301,308,306,299,1
302,308,306,298,1
304,309,307,299,1
306,309,307,299,1
307,308,306,299,1
307,306,304,299,1
306,303,303,298,1
306,302,301,297,1
306,302,302,298,1
308,303,303,300,1
308,303,304,301,1
307,303,305,300,1
306,301,305,299,1
304,300,306,297,1
304,301,307,296,1
304,305,307,297,1
305,309,307,298,1
306,312,307,299,1
307,314,307,303,1
309,315,307,306,1
309,314,306,308,1
308,312,305,309,1
307,310,305,308,1
307,309,305,306,1
306,308,305,303,1
306,306,305,299,1
306,307,306,296,1
307,309,307,294,1
308,313,307,294,1
308,315,307,293,1
308,316,306,292,1
309,317,306,292,1
309,318,304,293,1
308,318,303,292,1
307,316,302,292,1
305,314,302,291,1
304,310,302,290,1
302,306,303,290,1
302,303,305,294,1
303,302,307,301,1
304,302,309,308,1
305,302,310,314,1
306,300,311,317,1
306,298,310,316,1
306,296,309,312,1
306,294,307,307,1
305,294,305,302,1
305,296,304,299,1
305,298,304,297,1
306,300,303,295,1
307,300,303,294,1
307,300,303,293,1
309,300,304,293,1
311,300,305,295,1
312,301,306,296,1
312,301,307,298,1
312,302,308,299,1
313,303,308,299,1
313,305,308,299,1
312,305,308,298,1
310,307,308,297,1
309,307,307,297,1
307,307,307,296,1
305,307,307,294,1
303,307,308,292,1
303,309,308,291,1
303,310,309,291,1
303,311,309,292,1
303,309,308,294,1
303,305,306,295,1
302,303,304,295,1
302,302,304,294,1
302,303,304,294,1
303,305,305,296,1
303,308,307,298,1
304,309,309,299,1
305,310,309,298,1
305,310,309,296,1
305,310,308,292,1
307,310,307,290,1
309,310,306,288,1
311,310,304,288,1
312,311,304,290,1
313,310,304,291,1
312,309,304,294,1
308,308,305,297,1
304,307,306,300,1
301,307,307,302,1
300,307,307,302,1
300,307,308,302,1
300,307,308,300,1
301,308,307,298,1
303,308,307,297,1
304,308,306,297,1
305,307,305,299,1
305,307,306,303,1
304,308,307,307,1
305,311,308,311,1
306,314,309,314,1
307,315,310,316,1
307,317,311,318,1
307,317,311,319,1
307,316,311,320,1
308,314,310,319,1
307,312,309,316,1
305,309,308,312,1
304,308,307,308,1
304,308,307,306,1
304,309,307,305,1
304,309,308,306,1
305,308,308,306,1
306,307,310,306,1
307,305,311,306,1
308,304,311,306,1
308,304,310,305,1
307,305,309,304,1
305,308,307,303,1
303,311,306,304,1
303,314,306,304,1
304,316,306,305,1
304,317,306,306,1
304,316,306,306,1
304,316,305,305,1
304,314,305,304,1
303,312,305,301,1
302,310,305,300,1
302,309,307,301,1
303,308,309,303,1
304,308,310,306,1
305,307,311,310,1
305,306,311,313,1
305,306,311,316,1
306,306,311,318,1
306,306,311,319,1
306,307,312,318,1
306,308,311,316,1
305,307,310,313,1
305,306,309,310,1
304,305,309,307,1
303,304,308,305,1
304,304,307,303,1
304,305,306,301,1
305,305,305,300,1
305,307,303,300,1
304,309,302,300,1
304,313,301,300,1
304,316,300,300,1
304,321,301,302,1
305,326,302,304,1
307,330,303,307,1
308,334,304,309,1
308,334,306,310,1
308,332,308,311,1
306,328,309,311,1
306,323,310,310,1
305,319,311,309,1
305,314,311,307,1
305,310,311,305,1
305,305,310,303,1
306,301,309,302,1
307,297,309,302,1
308,293,309,304,1
310,291,309,307,1
311,290,310,311,1
311,290,310,312,1
310,289,309,313,1
308,289,306,313,1
305,290,305,314,1
303,291,304,315,1
302,292,303,315,1
302,293,302,314,1
302,295,301,313,1
303,297,301,311,1
304,300,302,308,1
304,301,303,306,1
305,301,303,303,1
306,300,303,299,1
308,299,301,295,1
310,299,300,291,1
311,298,299,290,1
311,299,298,289,1
311,298,298,290,1
309,298,299,293,1
307,300,301,300,1
305,303,304,309,1
304,305,307,317,1
304,306,309,322,1
303,306,310,325,1
303,306,310,326,1
304,307,311,325,1
304,308,312,324,1
305,309,313,323,1
306,309,314,321,1
307,310,315,318,1
309,312,315,318,1
312,315,317,318,1
315,317,317,318,1
315,317,316,318,1
315,316,314,317,1
314,315,312,315,1
314,315,310,313,1
314,315,309,311,1
314,315,308,309,1
314,315,307,307,1
313,313,307,307,1
311,310,307,307,1
309,306,309,309,1
306,302,309,311,1
304,299,309,313,1
302,297,309,313,1
302,295,309,311,1
303,295,309,307,1
305,294,309,303,1
307,294,310,301,1
309,297,310,301,1
311,300,310,301,1
309,302,309,302,1
305,302,308,302,1
301,302,307,304,1
299,301,307,306,1
298,301,307,307,1
299,303,307,310,1
300,305,308,312,1
302,306,308,314,1
303,307,309,316,1
305,308,309,317,1
305,308,309,317,1
306,308,308,317,1
307,309,308,317,1
308,309,309,317,1
310,309,310,317,1
311,310,311,316,1
312,310,310,315,1
313,309,309,313,1
313,308,307,310,1
314,307,305,306,1
315,306,304,302,1
317,307,304,299,1
320,309,304,298,1
323,311,306,299,1
325,314,308,302,1
325,316,310,304,1
321,316,310,306,1
314,314,311,307,1
308,312,311,308,1
303,310,310,310,1
300,309,310,311,1
299,308,310,313,1
299,306,310,315,1
298,305,309,315,1
298,305,309,316,1
298,307,309,317,1
299,308,308,317,1
299,310,308,316,1
300,312,307,315,1
302,314,307,312,1
304,315,306,309,1
306,315,305,304,1
306,313,303,298,1
305,308,299,292,1
304,303,296,286,1
304,299,293,282,1
306,298,293,281,1
312,296,295,280,1
318,294,297,280,1
325,294,301,281,1
332,295,305,284,1
336,297,308,289,1
337,299,311,294,1
335,300,313,299,1
328,301,313,304,1
319,302,313,310,1
310,303,313,316,1
305,306,312,321,1
302,309,311,325,1
300,312,310,326,1
300,314,310,327,1
302,318,311,327,1
304,321,311,326,1
304,321,311,322,1
302,318,309,317,1
299,313,307,312,1
296,306,304,308,1
294,300,301,304,1
293,294,300,301,1
293,291,300,301,1
295,291,301,304,1
297,293,303,307,1
300,296,305,311,1
303,299,307,313,1
306,303,309,316,1
310,307,312,319,1
313,311,314,321,1
315,313,313,320,1
315,314,312,319,1
313,313,310,318,1
309,311,308,317,1
305,308,307,316,1
301,307,306,315,1
298,306,305,314,1
298,306,305,312,1
299,306,305,311,1
299,307,304,309,1
301,308,304,307,1
302,308,304,305,1
303,307,304,304,1
303,305,304,303,1
303,303,303,303,1
302,302,304,303,1
301,301,304,304,1
302,301,305,305,1
302,302,305,308,1
303,303,304,310,1
304,305,304,311,1
303,305,304,311,1
302,305,304,312,1
300,305,304,311,1
300,306,304,309,1
301,306,304,305,1
303,304,304,301,1
306,302,303,295,1
308,299,303,290,1
311,297,303,287,1
315,298,304,287,1
318,301,306,288,1
322,304,307,291,1
323,306,308,294,1
321,307,308,299,1
317,308,307,304,1
310,307,306,308,1
302,304,305,311,1
297,302,304,314,1
294,300,304,314,1
294,299,305,314,1
296,298,305,314,1
298,299,306,313,1
299,299,307,313,1
299,299,309,312,1
300,299,310,312,1
300,300,311,313,1
301,301,312,314,1
302,301,312,315,1
302,302,313,316,1
302,302,313,315,1
303,302,313,314,1
303,302,312,313,1
303,302,311,312,1
303,302,309,313,1
302,302,308,314,1
301,302,307,314,1
299,302,306,313,1
298,301,306,312,1
298,300,307,310,1
300,299,307,308,1
301,298,308,305,1
302,297,308,305,1
303,298,308,306,1
304,300,309,310,1
305,302,309,313,1
305,303,309,313,1
304,303,308,312,1
303,302,306,311,1
302,301,304,310,1
302,299,302,308,1
302,299,301,307,1
304,299,301,308,1
307,301,301,309,1
309,303,301,309,1
311,306,300,308,1
311,310,300,306,1
311,314,299,303,1
308,318,299,300,1
304,319,299,296,1
300,318,301,292,1
297,317,303,289,1
297,315,308,289,1
300,313,313,291,1
303,310,317,295,1
305,305,320,298,1
304,301,320,302,1
302,296,317,305,1
301,293,313,308,1
300,292,309,312,1
300,293,307,312,1
301,293,306,311,1
300,293,304,308,1
300,293,303,305,1
300,292,301,303,1
300,292,301,302,1
301,293,302,302,1
302,294,304,303,1
304,296,307,306,1
307,300,309,311,1
309,303,311,315,1
310,307,310,318,1
310,310,308,320,1
311,313,307,321,1
312,314,305,321,1
310,313,303,319,1
308,311,302,318,1
306,310,301,318,1
305,309,301,318,1
304,309,302,317,1
304,310,303,318,1
303,310,304,318,1
303,310,304,319,1
303,311,304,319,1
304,311,303,319,1
304,310,303,318,1
304,306,303,314,1
304,301,303,310,1
304,296,302,307,1
304,293,302,306,1
304,292,302,305,1
304,293,302,307,1
304,295,302,308,1
303,296,301,309,1
302,297,300,310,1
302,298,301,311,1
302,299,303,311,1
303,300,304,310,1
304,300,305,308,1
304,300,304,307,1
305,299,304,306,1
305,300,304,305,1
306,301,304,303,1
307,301,304,302,1
307,301,305,301,1
306,301,306,302,1
304,301,307,303,1
303,301,308,304,1
303,301,308,304,1
303,301,307,305,1
304,303,307,305,1
306,305,308,307,1
309,308,309,309,1
313,310,310,311,1
317,311,310,312,1
319,311,310,312,1
320,312,309,311,1
319,312,309,310,1
317,313,309,309,1
316,313,309,307,1
314,312,309,305,1
313,312,310,304,1
312,311,311,304,1
310,311,311,305,1
307,310,311,306,1
304,310,309,307,1
302,309,306,308,1
300,308,304,310,1
300,308,304,313,1
301,310,305,315,1
302,312,305,318,1
303,313,306,318,1
304,312,307,316,1
304,310,307,310,1
304,308,306,304,1
304,306,305,298,1
304,304,305,293,1
304,303,305,292,1
303,304,305,294,1
302,305,305,298,1
302,306,305,303,1
301,307,305,306,1
300,307,305,308,1
300,308,305,310,1
300,310,305,312,1
300,310,304,313,1
300,310,305,314,1
301,309,305,316,1
303,309,307,317,1
306,310,308,318,1
307,312,308,317,1
309,313,308,316,1
309,314,307,315,1
309,314,307,314,1
310,313,307,312,1
309,312,306,310,1
307,312,306,309,1
305,311,305,308,1
304,310,305,309,1
302,310,305,310,1
301,312,304,312,1
300,313,304,315,1
300,315,303,317,1
300,318,303,319,1
301,320,303,321,1
303,322,305,322,1
305,323,307,323,1
307,323,310,324,1
310,321,313,324,1
311,319,314,324,1
311,315,314,324,1
309,312,313,323,1
306,310,312,323,1
304,308,311,322,1
304,307,311,319,1
306,306,310,317,1
308,306,310,314,1
311,305,309,312,1
313,304,308,309,1
314,303,307,307,1
314,302,305,307,1
313,300,305,309,1
310,297,305,310,1
308,294,304,312,1
305,292,303,314,1
303,290,302,315,1
300,290,302,315,1
297,290,301,315,1
295,291,301,315,1
295,292,302,317,1
295,293,303,317,1
296,295,303,316,1
296,297,304,315,1
295,301,304,312,1
295,304,304,308,1
296,306,303,304,1
297,308,302,301,1
299,310,302,301,1
301,312,302,302,1
302,313,301,304,1
304,312,300,305,1
305,310,299,306,1
305,308,298,305,1
305,304,299,305,1
305,301,301,304,1
305,299,302,303,1
306,298,303,301,1
306,297,303,298,1
306,297,302,296,1
306,296,301,295,1
306,297,301,295,1
306,299,302,298,1
307,303,304,303,1
308,307,305,308,1
309,308,306,311,1
309,308,306,312,1
309,308,305,311,1
308,308,304,310,1
307,308,303,308,1
306,308,302,306,1
304,308,302,305,1
303,309,301,304,1
303,309,302,306,1
304,310,302,308,1
306,312,304,313,1
307,313,307,317,1
308,313,309,320,1
308,313,310,321,1
307,312,311,321,1
305,311,310,321,1
305,312,309,321,1
304,313,309,320,1
305,315,309,319,1
305,316,309,317,1
306,317,309,314,1
307,317,308,313,1
307,316,308,312,1
308,315,307,311,1
308,314,306,310,1
308,313,305,311,1
308,313,305,312,1
308,313,304,311,1
308,313,303,310,1
308,313,303,308,1
308,312,303,307,1
308,311,303,306,1
309,310,303,305,1
309,308,303,304,1
309,306,303,304,1
308,304,302,304,1
307,302,302,303,1
308,302,303,303,1
308,301,303,303,1
309,301,305,303,1
308,300,306,304,1
306,300,306,304,1
305,301,306,304,1
304,302,308,305,1
305,304,310,307,1
306,307,311,311,1
307,309,312,314,1
307,310,312,316,1
307,311,310,315,1
307,312,308,315,1
306,312,307,313,1
305,313,306,311,1
304,314,306,309,1
304,315,305,307,1
304,315,305,307,1
305,315,305,307,1
304,313,304,306,1
304,310,304,305,1
304,308,305,305,1
304,307,306,306,1
305,306,307,308,1
305,306,308,308,1
306,307,307,308,1
306,308,307,307,1
306,309,306,307,1
307,310,305,305,1
307,311,304,303,1
306,312,304,300,1
306,314,303,296,1
308,317,303,293,1
310,319,303,290,1
311,319,303,287,1
313,318,304,286,1
313,317,303,287,1
312,315,302,289,1
311,314,302,293,1
310,314,302,299,1
309,314,302,303,1
307,312,302,307,1
307,310,300,310,1
306,307,299,311,1
305,305,297,311,1
304,302,297,309,1
304,299,297,307,1
305,296,298,305,1
304,293,299,303,1
304,291,300,301,1
304,291,304,300,1
305,292,307,301,1
306,293,310,302,1
307,295,311,304,1
308,298,311,306,1
309,301,311,309,1
309,303,311,312,1
309,305,309,313,1
310,307,309,313,1
309,307,307,311,1
309,305,306,309,1
308,302,305,307,1
308,301,305,305,1
308,302,305,304,1
309,306,306,305,1
310,310,307,305,1
312,312,308,306,1
314,312,309,307,1
316,310,309,308,1
316,308,308,308,1
315,306,307,307,1
311,305,305,305,1
307,303,302,304,1
304,303,301,304,1
305,304,301,304,1
307,306,302,305,1
308,309,302,307,1
309,311,303,311,1
309,314,304,315,1
307,315,305,318,1
303,312,305,319,1
299,308,305,320,1
295,305,304,318,1
294,303,303,316,1
295,303,303,315,1
297,303,303,313,1
299,304,304,311,1
302,305,305,309,1
304,306,305,308,1
306,308,306,307,1
307,309,305,307,1
307,310,305,308,1
307,310,305,309,1
307,309,305,310,1
306,307,304,309,1
305,305,304,308,1
304,304,304,307,1
303,304,305,307,1
303,305,304,308,1
303,307,305,311,1
302,309,306,312,1
302,311,307,312,1
302,313,307,310,1
302,314,306,308,1
303,315,305,307,1
304,317,304,307,1
304,318,304,309,1
304,317,303,309,1
305,312,303,310,1
306,307,303,309,1
306,303,303,307,1
307,300,303,306,1
306,298,302,305,1
305,299,301,306,1
304,301,301,307,1
303,305,300,307,1
302,309,299,307,1
301,313,299,306,1
301,317,299,305,1
301,319,300,306,1
302,321,300,308,1
303,320,301,309,1
304,317,301,308,1
304,313,301,307,1
304,308,300,306,1
303,304,300,306,1
302,300,300,306,1
300,296,299,306,1
300,292,299,305,1
300,288,299,304,1
301,287,299,305,1
302,287,299,306,1
303,287,300,309,1
304,289,301,312,1
306,292,304,316,1
310,295,306,319,1
312,296,308,318,1
314,296,308,315,1
313,294,308,311,1
310,293,307,307,1
306,292,307,305,1
303,294,307,304,1
302,296,307,304,1
301,299,307,304,1
301,301,307,306,1
301,304,306,310,1
300,308,306,314,1
300,311,305,316,1
299,312,304,316,1
299,312,304,316,1
300,313,305,317,1
303,315,307,319,1
307,317,311,321,1
311,319,313,322,1
315,320,314,319,1
316,319,314,316,1
316,316,314,312,1
312,312,313,310,1
308,307,312,308,1
305,304,311,306,1
302,301,309,303,1
299,299,308,300,1
298,297,307,297,1
298,297,306,295,1
297,297,305,293,1
297,298,304,290,1
297,299,304,289,1
298,300,304,289,1
298,302,305,292,1
299,305,305,295,1
301,308,306,298,1
303,310,307,301,1
305,311,308,304,1
307,312,309,307,1
309,315,311,312,1
311,318,312,316,1
311,318,312,320,1
309,315,311,321,1
306,311,310,321,1
305,308,309,320,1
304,307,310,320,1
303,306,311,319,1
302,306,310,317,1
302,305,309,314,1
301,303,307,310,1
300,301,304,307,1
299,301,303,303,1
299,301,302,300,1
300,302,303,298,1
301,303,303,295,1
302,304,303,294,1
302,304,303,293,1
304,304,304,295,1
306,303,304,296,1
307,301,305,297,1
308,300,306,300,1
309,299,307,305,1
310,302,309,311,1
311,305,310,317,1
312,310,310,321,1
312,314,309,322,1
311,316,308,322,1
311,318,307,320,1
311,320,306,316,1
312,321,306,312,1
313,321,306,309,1
315,321,305,308,1
316,319,305,308,1
315,315,304,309,1
313,310,303,308,1
310,305,303,305,1
307,301,302,301,1
303,298,301,299,1
301,297,301,299,1
298,296,301,300,1
297,295,301,302,1
297,295,301,304,1
299,296,302,306,1
302,297,303,310,1
306,300,305,312,1
309,303,307,313,1
311,306,308,313,1
311,309,310,314,1
311,313,310,315,1
311,316,310,316,1
310,318,309,317,1
309,316,308,316,1
308,313,307,316,1
308,308,306,314,1
308,303,306,312,1
308,299,306,310,1
308,298,306,308,1
308,299,305,307,1
307,300,306,307,1
306,301,307,306,1
305,302,309,306,1
305,303,311,306,1
305,304,312,306,1
306,303,312,305,1
307,302,311,303,1
309,301,309,303,1
310,302,308,302,1
312,304,306,302,1
313,306,306,303,1
315,309,306,305,1
315,312,307,307,1
314,314,307,309,1
312,313,307,309,1
309,310,305,308,1
305,306,303,305,1
301,302,301,303,1
299,300,300,301,1
297,300,300,300,1
297,302,300,301,1
298,306,302,301,1
301,310,304,302,1
303,312,305,301,1
304,311,304,300,1
304,308,303,301,1
304,307,303,304,1
305,306,303,309,1
305,306,303,313,1
305,305,303,316,1
304,304,304,316,1
305,303,304,314,1
306,302,304,311,1
307,301,304,308,1
307,301,305,308,1
309,301,304,309,1
311,302,304,310,1
313,302,304,311,1
313,302,304,311,1
312,302,303,311,1
310,302,303,312,1
307,302,304,312,1
304,302,303,310,1
303,301,303,306,1
303,299,303,302,1
303,297,303,299,1
302,295,302,298,1
302,295,302,300,1
304,297,303,304,1
305,300,305,308,1
306,303,307,312,1
306,306,307,313,1
305,309,307,313,1
305,314,307,313,1
306,319,307,312,1
307,322,306,310,1
308,324,307,305,1
310,325,306,302,1
311,324,306,298,1
311,322,306,295,1
310,317,304,292,1
309,311,303,290,1
307,306,303,292,1
307,303,304,297,1
307,302,305,305,1
307,300,305,310,1
308,298,305,313,1
306,294,304,313,1
305,292,304,312,1
303,290,304,309,1
302,289,304,305,1
302,290,304,303,1
303,291,305,301,1
303,293,304,301,1
304,294,304,300,1
304,295,303,300,1
303,295,301,302,1
303,295,299,304,1
303,294,297,307,1
303,295,297,309,1
305,298,298,313,1
306,301,299,315,1
305,305,301,318,1
304,310,303,320,1
303,315,305,322,1
303,318,306,323,1
302,320,307,322,1
302,321,307,320,1
302,321,308,319,1
303,321,309,318,1
303,318,310,317,1
302,314,310,316,1
301,309,309,314,1
301,305,309,313,1
302,302,309,313,1
304,301,309,314,1
306,298,309,314,1
306,295,308,314,1
306,292,307,313,1
305,290,306,311,1
302,289,305,308,1
301,289,304,306,1
299,288,304,303,1
298,288,304,300,1
297,287,303,297,1
297,286,302,294,1
297,285,301,292,1
298,287,301,293,1
300,290,301,296,1
302,294,302,299,1
305,296,304,302,1
306,298,304,304,1
307,300,304,306,1
307,302,303,308,1
307,304,303,309,1
306,305,302,310,1
305,306,303,312,1
306,307,304,314,1
307,307,304,315,1
309,306,304,313,1
309,304,303,310,1
308,301,302,307,1
308,300,302,305,1
308,300,303,305,1
307,303,305,307,1
305,304,307,308,1
301,305,308,308,1
299,304,308,307,1
299,303,308,305,1
299,302,306,302,1
299,301,305,300,1
300,300,305,298,1
300,300,305,296,1
300,300,305,295,1
300,300,305,293,1
300,300,305,292,1
300,299,305,290,1
300,299,305,289,1
300,300,305,288,1
301,301,306,288,1
301,302,307,290,1
303,304,309,295,1
305,307,311,302,1
306,309,312,310,1
307,310,312,315,1
307,310,312,317,1
306,310,312,318,1
306,311,311,316,1
307,312,309,313,1
307,312,308,310,1
308,313,308,308,1
309,314,308,307,1
309,316,309,307,1
309,318,309,306,1
309,321,308,304,1
308,323,308,302,1
307,324,308,300,1
307,323,308,298,1
307,321,309,297,1
308,320,309,299,1
309,319,311,303,1
310,319,311,307,1
311,319,312,311,1
310,316,312,313,1
308,313,311,314,1
305,309,310,315,1
304,307,310,318,1
304,307,311,321,1
305,307,312,324,1
305,306,313,324,1
305,303,313,321,1
305,299,312,318,1
305,297,310,313,1
306,296,308,308,1
306,296,307,303,1
305,297,306,298,1
304,300,306,295,1
303,303,305,292,1
303,306,304,291,1
302,308,304,292,1
301,310,304,296,1
301,310,305,302,1
302,308,306,307,1
304,305,306,309,1
305,303,306,310,1
306,303,305,312,1
307,304,307,314,1
307,304,308,315,1
306,305,310,316,1
304,304,311,317,1
302,304,310,317,1
300,304,308,317,1
298,304,305,317,1
297,304,302,315,1
298,303,301,313,1
299,303,301,311,1
300,302,302,309,1
301,303,303,310,1
302,304,306,312,1
303,305,309,314,1
303,306,310,313,1
303,306,311,312,1
303,307,310,310,1
303,308,309,307,1
302,308,308,305,1
301,308,307,303,1
301,308,306,301,1
301,308,306,299,1
303,308,305,297,1
306,306,304,296,1
309,306,304,295,1
311,307,305,296,1
313,308,306,298,1
313,309,307,300,1
310,311,308,302,1
307,312,310,305,1
304,313,311,308,1
302,314,311,310,1
302,314,311,312,1
302,315,309,313,1
302,316,309,314,1
302,315,307,312,1
301,314,306,310,1
300,312,304,308,1
300,311,304,307,1
301,311,305,306,1
302,312,307,305,1
304,314,309,306,1
305,314,310,306,1
307,316,310,307,1
309,318,310,308,1
311,321,310,308,1
313,324,310,307,1
315,326,309,306,1
316,327,308,303,1
315,326,307,299,1
314,323,305,295,1
312,319,303,291,1
309,312,302,287,1
307,306,300,286,1
305,302,299,287,1
304,300,299,289,1
305,299,300,295,1
306,299,302,304,1
308,300,305,313,1
310,300,307,320,1
312,300,309,324,1
312,300,311,326,1
311,300,311,325,1
309,299,311,323,1
308,298,310,321,1
307,298,308,319,1
307,299,307,318,1
306,300,307,317,1
305,302,307,316,1
304,305,308,316,1
303,308,307,315,1
303,310,306,313,1
302,311,305,310,1
302,311,304,308,1
302,310,304,305,1
302,310,304,304,1
301,309,304,304,1
301,307,303,305,1
301,306,304,307,1
301,306,305,310,1
301,306,307,313,1
302,307,308,315,1
303,308,308,317,1
304,309,309,319,1
305,309,309,320,1
305,310,310,318,1
305,309,309,315,1
304,309,309,312,1
304,308,308,309,1
301,307,306,304,1
298,306,304,300,1
296,304,302,295,1
296,304,301,291,1
297,304,301,287,1
297,306,301,285,1
298,308,302,286,1
299,312,303,289,1
299,314,304,293,1
299,315,304,298,1
300,315,305,302,1
301,315,305,307,1
301,314,305,310,1
302,313,305,313,1
302,313,305,316,1
302,313,305,318,1
303,314,306,318,1
303,316,308,317,1
303,317,309,316,1
304,318,310,314,1
306,320,310,312,1
307,322,311,310,1
309,325,311,309,1
309,328,310,308,1
310,328,310,306,1
309,326,310,305,1
309,324,310,305,1
310,323,310,305,1
310,322,310,305,1
310,321,309,304,1
308,318,308,304,1
306,313,308,303,1
304,308,307,301,1
304,304,306,299,1
304,302,305,297,1
304,301,305,297,1
304,301,305,297,1
305,301,305,298,1
305,300,304,298,1
305,299,303,298,1
304,297,302,299,1
302,295,301,301,1
301,295,303,305,1
301,297,305,312,1
303,301,309,318,1
304,305,312,323,1
304,308,314,325,1
304,310,315,323,1
305,311,315,319,1
305,313,314,316,1
305,314,314,313,1
305,312,313,312,1
305,310,312,313,1
304,308,311,313,1
303,307,309,312,1
301,305,308,311,1
300,304,307,310,1
301,303,307,309,1
302,303,308,308,1
304,304,308,308,1
305,305,307,306,1
305,305,306,304,1
306,306,306,303,1
308,307,307,303,1
310,308,308,303,1
311,308,308,304,1
311,308,309,306,1
311,308,311,307,1
310,308,312,306,1
308,307,312,304,1
306,306,311,302,1
303,305,310,300,1
301,304,308,299,1
300,304,306,299,1
300,305,306,300,1
302,307,306,301,1
303,307,307,301,1
303,308,306,298,1
303,308,304,294,1
301,309,303,291,1
301,311,302,289,1
300,312,302,288,1
301,312,303,289,1
302,311,304,291,1
304,311,306,295,1
306,312,307,300,1
308,315,307,306,1
308,317,306,311,1
307,319,306,313,1
306,319,307,314,1
306,318,309,315,1
306,317,311,314,1
306,314,312,312,1
305,308,311,307,1
303,300,309,301,1
302,292,306,295,1
301,287,304,290,1
301,284,302,288,1
303,285,302,288,1
305,288,302,290,1
307,290,303,293,1
308,292,303,297,1
309,293,304,300,1
309,295,304,302,1
310,297,305,303,1
309,299,304,301,1
309,302,304,300,1
308,307,303,298,1
308,313,302,295,1
307,318,302,293,1
307,322,302,292,1
308,324,303,291,1
308,324,302,289,1
307,322,301,286,1
305,316,300,282,1
304,308,299,280,1
302,303,300,284,1
303,301,301,292,1
303,298,302,299,1
303,294,302,301,1
302,290,301,300,1
301,286,301,297,1
301,284,301,294,1
302,284,301,292,1
302,286,301,292,1
303,289,301,294,1
304,293,301,298,1
306,296,301,300,1
307,297,302,302,1
309,300,303,304,1
311,305,305,308,1
313,309,304,311,1
313,309,303,312,1
311,308,301,311,1
308,306,299,313,1
305,308,298,316,1
304,312,297,319,1
301,316,296,320,1
299,317,296,319,1
298,317,299,319,1
299,316,304,319,1
301,314,309,319,1
302,313,313,319,1
304,312,314,317,1
304,310,313,316,1
304,309,312,314,1
305,310,311,313,1
305,314,310,313,1
307,318,308,313,1
308,320,305,313,1
308,320,301,312,1
309,318,300,312,1
309,315,298,313,1
309,312,299,313,1
310,309,300,312,1
311,308,302,310,1
313,308,303,308,1
314,308,303,306,1
315,308,302,304,1
315,309,299,302,1
314,311,297,301,1
313,314,297,303,1
313,317,300,307,1
312,319,302,309,1
309,319,303,309,1
306,318,303,308,1
302,316,303,306,1
300,313,304,304,1
299,308,306,302,1
299,304,308,301,1
299,300,310,300,1
300,298,313,302,1
301,298,316,307,1
303,300,319,314,1
304,302,319,318,1
305,303,319,320,1
306,304,318,320,1
307,306,316,320,1
307,308,314,319,1
308,310,311,319,1
308,312,308,319,1
309,313,306,318,1
308,313,305,317,1
307,313,303,315,1
305,315,302,313,1
303,316,301,311,1
303,316,301,310,1
302,316,301,308,1
302,316,301,307,1
303,316,303,307,1
305,316,306,308,1
307,316,309,307,1
310,314,310,306,1
311,312,309,304,1
311,310,309,302,1
311,307,309,301,1
311,305,310,300,1
311,305,312,300,1
311,307,312,301,1
312,309,311,303,1
313,310,311,305,1
315,311,310,307,1
317,311,310,308,1
318,311,310,309,1
318,310,311,309,1
319,311,313,309,1
319,312,314,309,1
318,314,316,308,1
315,315,318,309,1
311,315,318,308,1
308,314,318,307,1
306,311,317,306,1
305,309,315,306,1
305,307,314,305,1
307,304,313,306,1
309,303,313,305,1
311,302,313,305,1
312,305,314,305,1
313,308,314,307,1
314,311,315,309,1
315,315,316,310,1
316,318,317,313,1
316,319,316,314,1
315,318,316,314,1
315,313,315,313,1
314,308,314,312,1
314,306,313,312,1
315,305,313,313,1
316,307,313,313,1
317,308,313,312,1
316,308,312,310,1
316,306,311,307,1
314,303,310,303,1
313,300,309,299,1
310,298,308,294,1
307,299,306,291,1
307,301,305,289,1
307,304,305,288,1
308,305,304,288,1
310,307,304,289,1
311,308,304,291,1
313,310,304,293,1
314,312,304,296,1
314,314,305,299,1
314,315,305,301,1
314,315,306,302,1
312,313,305,302,1
310,313,306,303,1
309,313,308,306,1
309,313,310,310,1
310,313,312,315,1
309,311,312,318,1
309,309,312,317,1
309,308,312,317,1
308,309,312,315,1
309,310,311,313,1
309,310,310,312,1
310,310,308,311,1
310,308,306,311,1
311,307,306,313,1
312,307,306,314,1
312,307,306,315,1
312,307,308,316,1
312,308,309,315,1
312,310,310,314,1
312,312,311,313,1
312,314,311,312,1
312,317,310,311,1
311,316,309,308,1
309,313,307,304,1
307,308,305,299,1
306,303,304,295,1
304,298,303,291,1
303,295,302,288,1
303,293,302,288,1
303,294,302,290,1
305,296,303,293,1
306,297,302,295,1
307,297,302,296,1
309,299,304,297,1
312,300,305,297,1
312,301,307,298,1
312,302,307,300,1
312,303,309,303,1
313,304,310,307,1
313,305,311,312,1
313,305,311,315,1
311,304,311,317,1
310,302,309,318,1
308,301,309,319,1
308,300,310,319,1
308,300,310,317,1
309,300,310,314,1
310,301,311,310,1
310,301,310,307,1
309,302,308,304,1
309,304,307,300,1
309,305,308,298,1
309,305,309,297,1
309,305,310,298,1
309,305,311,299,1
310,305,312,299,1
310,305,313,299,1
310,305,313,297,1
309,306,313,295,1
307,308,312,295,1
306,310,311,296,1
306,313,310,299,1
307,316,310,306,1
308,320,311,312,1
310,321,312,318,1
311,321,312,321,1
313,318,312,321,1
315,314,314,320,1
316,309,314,317,1
316,304,315,314,1
314,300,315,313,1
312,297,314,312,1
311,295,312,312,1
308,295,311,312,1
306,294,308,310,1
303,294,305,305,1
302,295,302,302,1
302,297,302,300,1
302,298,303,300,1
304,299,306,300,1
305,298,308,301,1
305,297,309,302,1
306,297,310,304,1
306,298,310,307,1
306,298,310,308,1
307,298,309,309,1
307,299,309,311,1
307,301,308,313,1
308,302,308,314,1
309,304,308,315,1
310,306,308,315,1
312,307,308,315,1
313,310,308,316,1
312,314,308,316,1
311,318,307,315,1
309,321,307,314,1
306,321,306,312,1
304,320,306,310,1
303,315,307,309,1
302,309,307,308,1
302,304,307,308,1
302,300,307,309,1
303,298,308,310,1
305,298,308,311,1
306,301,307,311,1
306,305,304,309,1
305,308,300,305,1
303,309,296,302,1
301,312,292,299,1
301,314,290,299,1
301,316,290,300,1
303,317,292,303,1
306,321,297,305,1
308,326,303,306,1
309,331,306,307,1
309,336,308,306,1
307,338,308,307,1
305,341,309,307,1
304,345,310,309,1
305,346,312,312,1
305,343,313,314,1
305,334,314,315,1
304,325,312,313,1
304,320,310,310,1
304,317,308,307,1
304,314,306,305,1
305,306,306,304,1
306,295,305,304,1
306,283,307,306,1
306,276,308,310,1
307,274,309,313,1
307,275,310,316,1
307,278,310,317,1
307,281,309,316,1
306,285,308,315,1
307,287,305,314,1
308,288,304,313,1
309,287,304,313,1
310,286,304,314,1
311,286,305,316,1
311,287,304,318,1
311,288,304,320,1
311,291,303,319,1
310,295,303,315,1
310,298,303,309,1
310,300,304,303,1
309,302,306,300,1
308,302,308,299,1
306,301,310,301,1
305,300,310,303,1
304,298,310,303,1
303,297,309,300,1
301,297,308,298,1
298,296,307,295,1
296,296,306,292,1
295,296,305,291,1
295,297,305,292,1
296,298,305,294,1
298,300,304,297,1
299,302,304,299,1
299,303,305,301,1
300,304,305,302,1
302,306,305,303,1
302,307,305,304,1
302,306,305,305,1
302,305,306,308,1
303,304,307,310,1
304,304,309,310,1
304,304,310,311,1
305,306,311,311,1
307,308,311,311,1
308,309,310,312,1
309,309,309,313,1
309,308,307,314,1
309,309,305,315,1
309,310,305,316,1
309,312,305,317,1
308,313,306,317,1
306,312,307,316,1
303,310,306,313,1
301,308,304,310,1
300,307,303,309,1
300,308,302,309,1
301,309,302,309,1
302,308,304,310,1
302,308,305,311,1
303,308,306,310,1
302,307,305,308,1
301,307,305,304,1
301,310,305,299,1
300,312,304,295,1
300,315,303,292,1
300,318,301,290,1
299,319,298,289,1
299,320,297,290,1
299,322,297,296,1
300,321,298,302,1
301,319,300,308,1
301,316,301,312,1
301,315,302,314,1
303,316,303,317,1
306,319,304,321,1
309,321,306,324,1
311,322,307,324,1
312,320,308,320,1
312,314,308,315,1
310,306,307,312,1
308,298,306,309,1
305,291,305,307,1
301,286,303,307,1
298,283,302,306,1
297,283,301,304,1
296,284,300,303,1
295,286,300,301,1
296,288,300,301,1
297,291,300,303,1
298,294,301,305,1
299,296,303,308,1
300,297,305,310,1
301,298,307,311,1
303,299,306,311,1
304,300,306,312,1
305,301,306,313,1
306,304,307,314,1
307,306,307,314,1
306,308,308,315,1
305,310,308,314,1
304,311,307,313,1
302,311,307,312,1
301,311,306,311,1
300,312,305,309,1
301,312,303,309,1
301,312,302,308,1
303,312,301,307,1
305,312,302,306,1
306,314,303,305,1
307,314,303,304,1
307,314,303,302,1
306,312,303,300,1
304,310,302,299,1
304,310,302,298,1
304,312,303,297,1
305,317,303,298,1
305,320,303,301,1
305,325,302,304,1
305,329,301,308,1
304,332,301,312,1
302,332,301,314,1
302,327,300,314,1
301,318,299,312,1
301,307,298,310,1
301,297,298,306,1
301,290,299,302,1
301,288,299,299,1
300,288,301,298,1
299,291,302,299,1
299,295,304,301,1
299,299,306,303,1
301,304,307,304,1
303,310,307,307,1
306,314,306,310,1
307,317,305,313,1
307,315,302,314,1
306,311,298,312,1
304,307,296,310,1
302,303,294,306,1
300,301,295,302,1
298,299,296,298,1
296,298,296,295,1
294,297,297,294,1
294,296,297,294,1
295,296,298,297,1
296,296,299,301,1
298,298,301,308,1
300,301,303,315,1
303,304,305,321,1
304,308,306,324,1
305,311,307,324,1
305,311,306,321,1
304,310,305,318,1
304,310,305,316,1
305,310,305,315,1
306,310,306,313,1
307,310,307,312,1
308,311,308,312,1
309,311,309,311,1
310,311,309,311,1
310,311,309,309,1
311,310,308,307,1
310,309,307,305,1
310,308,306,304,1
310,310,307,305,1
310,311,307,307,1
310,311,308,310,1
310,311,308,312,1
310,311,308,313,1
309,311,308,315,1
309,312,307,316,1
307,312,307,318,1
307,313,307,319,1
306,315,307,319,1
305,317,307,319,1
305,322,306,317,1
305,328,305,316,1
305,333,304,314,1
306,338,302,312,1
307,340,301,309,1
310,341,301,305,1
313,340,301,302,1
316,337,300,298,1
318,333,298,294,1
319,330,296,291,1
318,328,294,289,1
317,326,294,291,1
314,323,295,295,1
312,320,298,301,1
310,318,302,308,1
309,322,305,314,1
308,329,308,317,1
306,336,309,318,1
305,338,311,318,1
304,333,312,316,1
302,317,313,314,1
300,297,314,313,1
299,281,315,313,1
298,268,315,311,1
298,261,314,308,1
298,257,311,306,1
299,256,307,305,1
300,258,305,304,1
302,261,303,302,1
303,263,303,301,1
304,266,303,301,1
303,268,304,302,1
301,269,304,302,1
300,271,302,302,1
299,273,299,302,1
298,276,297,302,1
299,280,296,304,1
300,284,296,305,1
301,288,297,306,1
302,291,298,305,1
303,294,299,304,1
304,297,301,303,1
304,300,304,304,1
305,304,308,306,1
307,307,311,309,1
308,309,313,311,1
309,309,313,312,1
310,310,313,313,1
310,309,312,313,1
310,308,311,312,1
309,306,309,310,1
307,304,306,306,1
305,301,303,301,1
302,298,301,295,1
300,296,300,291,1
298,295,300,287,1
297,295,300,285,1
296,295,301,285,1
298,297,304,289,1
302,302,308,297,1
307,308,312,305,1
312,313,315,312,1
316,317,317,315,1
318,320,316,317,1
319,321,314,319,1
317,319,312,319,1
313,315,310,318,1
309,310,309,316,1
305,306,309,316,1
303,303,310,316,1
303,302,311,316,1
304,301,312,316,1
305,301,312,316,1
307,303,312,315,1
308,306,312,312,1
307,309,313,309,1
307,312,312,307,1
307,314,312,306,1
308,317,312,305,1
310,318,313,304,1
311,317,315,304,1
312,313,315,303,1
311,308,314,303,1
310,305,311,303,1
308,304,309,304,1
307,305,308,306,1
305,306,308,309,1
303,307,307,311,1
302,306,306,312,1
301,303,305,312,1
301,300,306,312,1
302,299,308,313,1
303,299,308,313,1
304,300,309,311,1
306,301,310,311,1
306,303,311,311,1
306,306,312,312,1
305,311,313,313,1
304,315,314,314,1
304,316,313,313,1
302,312,310,309,1
300,307,307,306,1
299,302,304,303,1
299,300,302,301,1
298,299,300,298,1
298,298,300,296,1
299,300,302,296,1
301,303,304,299,1
304,305,305,302,1
306,305,306,304,1
306,304,305,304,1
307,302,304,305,1
307,301,303,305,1
307,301,301,306,1
306,301,298,306,1
305,302,297,305,1
304,301,297,304,1
304,299,299,302,1
304,296,301,298,1
304,295,304,295,1
304,297,307,294,1
304,300,307,296,1
304,306,307,300,1
305,311,307,306,1
305,316,307,311,1
304,321,307,314,1
303,324,306,316,1
303,327,305,317,1
303,331,303,318,1
304,337,303,319,1
306,343,304,319,1
308,347,307,319,1
309,347,310,319,1
310,344,313,318,1
309,339,313,318,1
307,332,312,318,1
305,320,310,317,1
303,306,308,316,1
302,294,307,315,1
301,286,308,315,1
301,281,308,315,1
302,280,308,315,1
302,280,308,314,1
303,279,307,312,1
304,278,306,311,1
306,277,305,308,1
306,276,305,306,1
306,276,305,303,1
305,276,305,300,1
303,275,304,297,1
301,276,305,294,1
300,279,306,293,1
299,285,307,294,1
300,293,309,296,1
302,298,310,298,1
303,301,310,301,1
305,303,310,304,1
307,303,311,308,1
309,304,312,312,1
310,304,312,316,1
309,304,312,320,1
307,304,310,322,1
306,304,309,322,1
306,305,309,321,1
307,305,310,320,1
309,305,312,318,1
312,305,314,317,1
314,306,316,317,1
315,306,315,317,1
315,307,313,318,1
316,309,312,320,1
315,311,311,319,1
315,311,309,317,1
313,310,307,313,1
310,308,305,310,1
306,306,304,307,1
304,305,305,305,1
304,305,306,305,1
305,305,308,305,1
306,305,308,305,1
307,305,306,306,1
307,304,303,307,1
307,304,300,308,1
307,304,300,309,1
306,303,300,310,1
304,303,300,310,1
303,304,301,310,1
303,307,303,311,1
304,310,306,312,1
304,310,308,313,1
304,309,307,312,1
302,307,305,311,1
302,306,304,309,1
302,307,304,309,1
303,308,304,309,1
304,309,303,308,1
304,308,303,308,1
305,308,303,308,1
306,308,304,311,1
306,309,306,314,1
306,308,306,315,1
305,306,305,315,1
304,305,303,313,1
303,305,301,311,1
302,306,298,310,1
301,308,296,311,1
301,311,295,312,1
301,315,296,313,1
302,316,299,312,1
303,313,300,310,1
302,308,301,309,1
302,303,302,309,1
302,301,304,310,1
303,301,305,311,1
305,302,305,311,1
308,303,304,311,1
311,305,305,312,1
313,309,306,314,1
315,312,306,318,1
315,315,306,323,1
314,318,307,327,1
312,318,309,330,1
309,317,311,330,1
307,314,312,329,1
305,311,312,326,1
304,309,312,321,1
303,311,310,316,1
304,315,310,313,1
307,322,311,311,1
311,328,313,309,1
314,331,315,307,1
314,329,316,305,1
312,325,314,305,1
310,321,312,306,1
307,317,310,307,1
305,312,308,309,1
304,307,306,311,1
303,302,305,313,1
304,298,304,314,1
304,293,305,313,1
303,290,305,312,1
301,289,306,311,1
299,293,307,311,1
300,302,307,312,1
301,312,308,312,1
302,319,308,313,1
302,325,308,316,1
304,328,308,318,1
306,326,308,320,1
308,320,308,320,1
310,312,308,320,1
311,305,307,319,1
311,299,305,318,1
311,295,304,316,1
309,292,303,313,1
306,290,302,309,1
303,290,300,304,1
300,290,298,301,1
300,292,298,299,1
300,296,299,298,1
302,301,302,297,1
304,304,304,296,1
305,307,307,295,1
306,308,309,296,1
306,309,310,299,1
306,310,310,303,1
306,309,310,306,1
305,307,311,307,1
305,306,311,307,1
305,307,311,307,1
304,309,310,307,1
303,309,308,306,1
302,308,306,304,1
300,307,303,304,1
301,308,303,307,1
302,309,304,310,1
304,308,306,313,1
305,304,309,315,1
306,300,311,316,1
308,298,314,315,1
310,296,315,315,1
311,297,315,314,1
311,298,315,314,1
310,299,315,313,1
309,299,315,313,1
307,299,314,314,1
306,298,312,315,1
305,296,309,315,1
304,295,307,315,1
305,296,306,315,1
306,297,306,316,1
307,299,306,317,1
307,301,306,318,1
306,302,307,318,1
305,303,307,318,1
304,305,307,318,1
304,307,305,317,1
303,308,305,314,1
303,307,305,311,1
303,304,306,306,1
303,301,309,302,1
303,299,312,300,1
303,301,315,298,1
304,303,315,297,1
304,306,313,298,1
307,310,312,302,1
311,313,312,307,1
315,315,313,313,1
318,316,316,317,1
320,316,318,319,1
321,313,319,319,1
320,311,319,318,1
317,308,317,317,1
313,306,315,315,1
308,305,315,316,1
306,306,315,317,1
305,309,315,318,1
305,314,316,318,1
305,322,315,318,1
305,330,314,317,1
306,338,313,317,1
307,343,314,317,1
307,345,313,317,1
306,337,312,316,1
303,323,311,315,1
299,305,309,313,1
295,291,307,311,1
292,280,306,309,1
291,273,306,307,1
291,271,307,305,1
292,273,307,303,1
294,279,309,302,1
296,286,311,301,1
297,290,313,299,1
297,293,313,297,1
296,295,312,296,1
296,296,311,295,1
297,295,311,295,1
297,294,310,295,1
298,293,309,297,1
299,293,309,298,1
300,292,308,299,1
300,291,308,298,1
301,289,308,298,1
302,290,310,298,1
302,292,311,299,1
301,295,312,301,1
300,298,312,303,1
297,302,312,306,1
296,305,311,310,1
295,308,310,314,1
294,311,310,319,1
294,313,310,323,1
295,313,310,325,1
297,311,309,326,1
298,309,308,326,1
300,307,308,325,1
301,305,308,323,1
302,305,309,321,1
303,307,311,317,1
304,310,313,314,1
304,312,315,313,1
303,313,316,314,1
302,312,317,315,1
301,310,317,317,1
300,308,316,320,1
300,307,314,322,1
301,306,312,321,1
300,305,310,320,1
300,305,308,319,1
300,305,306,317,1
300,304,305,315,1
301,304,307,313,1
302,304,311,312,1
304,304,315,312,1
305,305,319,312,1
305,305,319,310,1
304,304,316,310,1
304,304,313,310,1
304,305,312,310,1
305,307,313,310,1
305,308,314,311,1
307,309,314,311,1
308,310,313,310,1
310,312,310,310,1
312,314,307,312,1
314,318,305,313,1
313,320,303,314,1
311,320,301,314,1
308,320,301,315,1
306,320,303,315,1
305,319,305,315,1
304,318,306,314,1
303,315,307,314,1
303,312,307,315,1
303,309,306,315,1
303,305,306,315,1
303,303,306,314,1
303,302,306,312,1
302,300,305,309,1
301,300,303,308,1
301,301,302,309,1
302,305,303,312,1
303,310,303,315,1
304,316,305,319,1
305,322,306,321,1
305,327,307,322,1
305,329,308,322,1
305,328,307,319,1
305,325,305,316,1
305,320,302,311,1
305,315,299,307,1
305,307,297,302,1
305,300,295,299,1
307,295,294,298,1
310,292,294,298,1
313,291,294,299,1
314,293,295,302,1
314,295,296,304,1
312,296,297,306,1
308,295,298,306,1
303,295,298,303,1
298,294,298,299,1
296,293,299,295,1
295,293,299,291,1
296,293,299,290,1
298,295,299,292,1
301,297,300,297,1
304,300,303,305,1
307,304,306,314,1
309,308,309,320,1
310,310,311,323,1
311,312,311,323,1
311,312,312,322,1
312,312,313,321,1
313,312,314,321,1
313,312,317,320,1
314,311,319,318,1
314,309,320,316,1
315,309,318,315,1
315,310,314,314,1
314,312,310,315,1
313,314,307,315,1
311,316,307,316,1
311,317,310,316,1
312,318,315,316,1
314,318,321,315,1
316,318,328,313,1
316,317,332,312,1
315,315,331,311,1
314,314,326,312,1
312,313,317,314,1
308,311,307,316,1
305,309,297,316,1
302,306,288,316,1
300,303,281,315,1
298,300,279,316,1
299,300,282,318,1
301,301,290,321,1
305,304,299,323,1
309,305,308,323,1
312,307,318,323,1
315,309,324,323,1
316,312,327,322,1
317,316,328,322,1
317,320,326,322,1
318,323,325,321,1
319,325,323,320,1
319,325,320,320,1
317,323,317,320,1
314,318,316,319,1
310,312,318,318,1
306,307,321,317,1
303,303,324,315,1
302,301,327,314,1
302,301,329,313,1
304,300,329,311,1
304,300,327,310,1
305,303,323,309,1
306,306,319,308,1
306,310,314,306,1
306,313,309,303,1
306,316,306,302,1
307,316,305,302,1
309,316,308,302,1
312,316,314,305,1
314,317,321,310,1
315,315,326,313,1
315,313,328,317,1
313,309,326,318,1
309,304,319,318,1
306,302,309,319,1
305,303,301,322,1
305,304,296,325,1
305,306,295,328,1
305,307,296,328,1
305,306,298,326,1
305,306,300,321,1
305,306,302,316,1
306,305,303,309,1
306,303,304,302,1
306,303,303,296,1
306,304,302,290,1
305,309,302,288,1
304,316,301,290,1
304,329,302,297,1
304,345,304,306,1
306,365,305,314,1
308,381,307,320,1
310,389,310,324,1
312,388,311,326,1
313,382,309,324,1
313,373,308,321,1
313,358,307,318,1
312,338,305,314,1
309,315,304,311,1
306,292,302,307,1
303,275,302,305,1
302,266,303,307,1
303,264,306,312,1
303,265,308,318,1
304,267,309,322,1
304,269,310,325,1
304,273,309,325,1
303,276,309,321,1
303,281,308,316,1
302,285,306,312,1
302,287,305,307,1
302,287,304,302,1
300,285,301,297,1
299,282,298,296,1
298,281,296,297,1
298,282,296,302,1
300,286,299,307,1
303,293,305,311,1
306,301,309,313,1
310,309,311,314,1
314,316,311,314,1
317,319,310,312,1
319,321,309,309,1
321,320,308,307,1
323,318,308,307,1
324,314,309,308,1
322,310,310,310,1
321,307,311,311,1
320,305,312,313,1
320,305,314,313,1
319,303,314,312,1
317,300,314,311,1
314,298,315,308,1
309,297,314,305,1
304,296,311,302,1
301,296,308,301,1
298,297,305,301,1
297,299,304,302,1
298,301,303,303,1
300,304,303,305,1
302,305,304,307,1
304,306,303,310,1
304,307,302,312,1
303,306,299,312,1
302,305,298,311,1
301,304,297,309,1
300,303,298,305,1
300,301,297,301,1
299,300,296,297,1
298,298,294,294,1
298,297,293,292,1
298,296,294,292,1
299,296,296,293,1
301,296,298,294,1
302,297,299,293,1
304,298,299,291,1
306,301,299,291,1
307,305,301,292,1
308,309,302,294,1
309,313,304,297,1
310,316,306,302,1
310,317,308,307,1
311,315,309,310,1
311,311,308,312,1
311,307,307,311,1
311,304,305,310,1
311,304,305,308,1
311,308,305,306,1
312,313,307,304,1
313,319,309,304,1
313,322,309,305,1
312,324,308,307,1
310,323,305,308,1
309,320,303,308,1
308,316,301,309,1
308,314,299,310,1
307,313,298,310,1
306,313,296,309,1
306,314,296,308,1
307,313,295,308,1
307,310,295,307,1
307,306,295,307,1
307,301,296,305,1
307,296,296,303,1
307,293,297,301,1
307,294,298,302,1
307,297,299,303,1
307,301,300,304,1
308,304,301,304,1
308,306,303,304,1
309,309,306,305,1
310,313,309,308,1
312,317,312,311,1
312,321,314,312,1
312,322,312,310,1
311,320,308,307,1
311,315,304,303,1
310,310,300,299,1
309,306,297,296,1
308,303,294,294,1
307,302,292,294,1
304,301,292,295,1
302,299,292,297,1
300,297,292,298,1
299,296,292,299,1
298,295,292,300,1
299,296,295,302,1
301,300,299,304,1
304,306,302,308,1
308,312,304,310,1
310,318,304,310,1
311,322,304,309,1
312,324,304,307,1
311,325,305,305,1
309,324,303,305,1
306,321,301,305,1
304,317,301,307,1
303,312,301,308,1
303,309,302,308,1
303,309,303,307,1
303,311,304,307,1
303,313,305,306,1
303,314,307,307,1
303,313,310,307,1
303,309,311,307,1
302,302,312,307,1
301,296,312,306,1
300,291,313,305,1
300,289,313,304,1
300,289,313,303,1
302,291,312,304,1
303,293,310,305,1
306,297,310,305,1
308,300,311,306,1
310,305,311,308,1
311,309,312,311,1
312,312,313,314,1
311,314,314,317,1
308,313,313,319,1
306,310,312,319,1
304,305,311,317,1
303,304,309,314,1
304,305,308,312,1
305,310,307,309,1
305,315,305,308,1
304,320,304,306,1
302,323,304,305,1
301,324,305,304,1
301,320,307,303,1
302,313,307,302,1
304,305,307,302,1
304,298,307,303,1
304,294,307,305,1
304,291,308,308,1
305,290,309,310,1
305,291,310,312,1
306,294,310,314,1
306,299,309,315,1
305,303,308,316,1
304,306,307,316,1
304,308,306,315,1
303,311,306,314,1
304,313,305,312,1
304,316,304,311,1
304,318,303,309,1
304,318,302,308,1
304,314,302,305,1
304,309,302,304,1
304,302,302,301,1
304,295,302,298,1
304,290,301,296,1
304,286,301,294,1
303,284,301,293,1
302,285,301,292,1
302,287,301,293,1
303,288,301,295,1
302,290,301,297,1
301,291,301,298,1
299,289,300,298,1
298,287,300,298,1
298,287,299,299,1
299,289,299,301,1
299,290,300,301,1
299,290,300,300,1
298,289,301,299,1
297,289,301,300,1
298,290,301,303,1
299,291,301,306,1
300,292,300,310,1
302,295,300,313,1
304,298,301,314,1
306,302,302,314,1
308,305,303,312,1
308,307,303,308,1
307,308,302,304,1
306,309,300,300,1
306,309,300,299,1
307,311,302,300,1
308,313,304,304,1
307,314,305,307,1
305,316,305,311,1
303,320,305,315,1
302,323,306,319,1
301,325,308,321,1
300,323,307,322,1
298,322,304,323,1
299,322,301,323,1
301,322,301,324,1
303,322,303,325,1
306,321,305,326,1
310,320,307,327,1
311,321,307,327,1
310,325,306,325,1
309,330,305,323,1
308,337,305,321,1
308,342,306,319,1
308,344,306,317,1
307,342,305,315,1
306,334,304,314,1
304,323,303,314,1
302,310,301,313,1
300,297,299,311,1
298,286,297,308,1
297,280,296,307,1
297,279,295,305,1
298,279,295,302,1
298,280,294,299,1
296,282,294,297,1
296,284,296,297,1
296,286,300,299,1
297,287,302,301,1
298,288,304,304,1
300,289,304,304,1
301,292,303,303,1
301,296,302,302,1
301,303,301,300,1
302,313,301,300,1
303,325,302,300,1
304,336,304,299,1
305,343,304,299,1
306,345,304,298,1
305,340,302,297,1
305,330,301,295,1
305,318,301,295,1
305,308,301,295,1
305,300,302,297,1
305,293,302,298,1
303,288,300,298,1
302,283,298,297,1
300,280,297,297,1
299,278,298,297,1
298,278,301,299,1
299,281,305,303,1
301,284,308,307,1
303,288,311,310,1
305,290,311,312,1
307,292,312,312,1
310,295,311,312,1
313,298,310,311,1
315,302,308,311,1
316,305,307,310,1
316,307,305,311,1
315,307,304,312,1
313,306,305,313,1
310,304,305,313,1
306,302,304,312,1
303,302,303,310,1
301,302,302,308,1
301,302,302,307,1
301,303,303,306,1
301,304,304,306,1
299,304,305,308,1
299,304,306,309,1
298,303,306,309,1
298,303,306,309,1
298,304,306,310,1
299,306,305,311,1
302,308,304,313,1
303,310,303,314,1
305,310,303,314,1
307,308,304,315,1
307,307,306,315,1
307,306,309,315,1
307,308,311,316,1
308,311,312,315,1
307,313,311,313,1
304,312,306,309,1
302,313,300,306,1
301,315,295,304,1
302,319,293,301,1
304,323,294,297,1
305,327,296,292,1
305,330,300,288,1
306,331,302,284,1
304,326,303,283,1
302,318,304,284,1
300,311,307,288,1
301,306,311,294,1
302,304,314,300,1
304,303,316,307,1
305,302,316,312,1
305,300,311,315,1
305,299,305,317,1
306,297,301,317,1
306,295,298,317,1
307,292,298,317,1
308,289,299,316,1
309,288,300,315,1
310,290,301,313,1
310,294,302,310,1
311,297,304,308,1
311,300,306,307,1
311,302,308,307,1
311,303,309,306,1
311,306,310,304,1
311,310,310,302,1
310,315,308,299,1
308,322,305,298,1
306,329,304,296,1
306,335,304,296,1
307,337,306,298,1
310,337,309,301,1
312,334,310,303,1
311,328,311,304,1
308,319,310,305,1
306,310,311,307,1
305,301,311,309,1
305,295,313,310,1
305,291,314,310,1
306,289,314,309,1
307,289,312,307,1
307,291,309,304,1
306,294,307,303,1
305,296,305,301,1
302,297,303,300,1
300,297,303,300,1
297,298,303,302,1
295,299,304,305,1
295,300,305,306,1
297,299,305,308,1
300,299,306,309,1
303,298,307,311,1
306,298,307,312,1
308,298,308,312,1
310,299,309,309,1
310,300,310,305,1
309,302,310,300,1
307,304,309,295,1
304,308,306,290,1
304,317,303,286,1
306,328,301,282,1
310,342,300,279,1
313,353,298,277,1
315,363,299,279,1
316,371,301,282,1
315,373,303,286,1
312,366,306,293,1
308,350,310,301,1
304,330,314,309,1
302,308,318,317,1
301,291,322,320,1
301,277,324,322,1
301,270,323,322,1
301,269,320,322,1
302,270,318,322,1
301,272,314,321,1
301,275,310,320,1
301,277,306,318,1
301,279,304,316,1
301,283,302,314,1
301,286,303,312,1
301,289,303,311,1
301,289,304,309,1
302,289,306,310,1
302,289,309,311,1
303,290,311,312,1
304,292,313,313,1
305,294,315,313,1
307,297,316,313,1
308,298,316,312,1
309,300,315,311,1
310,302,313,311,1
309,303,310,310,1
307,303,308,309,1
306,304,307,308,1
307,305,307,307,1
307,304,307,305,1
308,303,306,303,1
308,302,306,302,1
309,304,306,303,1
311,309,306,304,1
313,316,306,304,1
313,321,305,305,1
314,325,305,305,1
312,326,304,304,1
311,325,304,304,1
309,321,303,304,1
308,314,304,304,1
307,306,305,304,1
307,301,306,305,1
307,297,307,305,1
307,294,308,306,1
307,293,307,307,1
309,292,306,308,1
310,291,306,308,1
311,292,306,308,1
311,293,304,307,1
310,294,303,306,1
309,295,303,304,1
307,296,303,302,1
306,297,303,300,1
305,298,304,298,1
304,299,306,297,1
304,301,308,299,1
304,304,309,302,1
304,306,310,303,1
304,308,311,303,1
305,311,310,303,1
305,315,310,301,1
305,319,310,300,1
305,321,309,299,1
304,320,307,297,1
303,318,306,295,1
302,316,304,294,1
303,313,303,293,1
303,308,302,291,1
304,301,301,290,1
303,294,299,289,1
302,289,299,290,1
301,288,299,291,1
301,288,300,292,1
302,290,302,295,1
304,295,306,299,1
307,301,312,305,1
310,309,317,309,1
312,316,320,311,1
313,321,321,309,1
312,323,319,304,1
311,323,316,299,1
310,319,313,295,1
309,313,311,294,1
308,308,310,296,1
307,305,310,300,1
305,302,310,303,1
303,301,309,306,1
302,300,309,309,1
301,299,308,310,1
301,298,307,311,1
301,300,306,312,1
302,303,307,313,1
303,307,307,312,1
304,310,306,311,1
304,312,305,307,1
305,312,302,303,1
305,311,302,301,1
306,308,303,300,1
307,305,305,299,1
307,301,307,297,1
307,297,308,296,1
306,293,308,295,1
304,289,307,294,1
302,287,305,293,1
301,285,304,294,1
300,283,302,297,1
301,284,301,300,1
303,284,300,304,1
304,285,299,305,1
305,288,299,307,1
306,293,301,308,1
307,301,303,310,1
307,309,304,311,1
306,317,305,312,1
304,322,305,313,1
303,324,304,313,1
304,322,303,313,1
305,318,302,313,1
307,313,302,312,1
308,306,301,312,1
309,302,301,311,1
309,298,300,311,1
309,295,297,310,1
307,293,295,309,1
305,292,294,308,1
304,290,292,307,1
302,289,292,306,1
302,289,294,306,1
303,292,297,306,1
304,298,300,307,1
306,305,304,309,1
307,312,307,310,1
307,317,309,310,1
306,320,311,310,1
306,318,313,310,1
305,314,315,310,1
306,311,316,310,1
305,310,316,309,1
305,310,315,308,1
305,311,313,308,1
306,311,312,309,1
306,309,310,310,1
307,307,310,311,1
307,304,310,311,1
308,302,310,310,1
308,299,312,309,1
308,300,313,309,1
307,305,312,309,1
305,311,308,308,1
302,316,301,306,1
300,318,294,301,1
300,318,289,296,1
300,316,289,290,1
301,311,290,285,1
302,306,295,283,1
304,304,300,283,1
306,303,305,284,1
308,303,309,285,1
310,303,310,287,1
312,303,311,291,1
312,304,312,295,1
313,304,312,300,1
312,304,314,306,1
312,304,315,313,1
311,303,317,318,1
309,303,317,321,1
307,304,318,322,1
306,306,317,321,1
305,308,315,318,1
306,310,311,314,1
306,312,307,307,1
306,312,304,301,1
306,308,301,294,1
304,300,297,288,1
301,291,295,284,1
301,288,295,284,1
301,289,297,287,1
302,294,300,291,1
304,299,304,296,1
305,302,307,300,1
304,302,309,304,1
304,300,309,309,1
305,299,309,315,1
306,302,309,321,1
309,309,308,326,1
310,317,308,328,1
311,324,308,327,1
310,326,306,324,1
307,321,305,320,1
306,311,304,317,1
306,303,303,315,1
308,297,303,314,1
309,294,303,313,1
310,293,302,312,1
309,294,300,311,1
308,294,298,308,1
305,294,296,307,1
302,295,295,309,1
299,297,296,310,1
298,299,297,312,1
298,303,299,313,1
300,306,302,315,1
302,310,305,315,1
305,313,308,316,1
307,316,309,316,1
309,322,311,317,1
311,327,311,316,1
311,329,311,315,1
311,326,309,313,1
308,321,307,310,1
306,315,306,307,1
304,310,303,303,1
303,305,299,298,1
302,301,296,295,1
301,297,294,292,1
299,296,293,291,1
299,299,293,291,1
299,304,295,292,1
299,312,298,297,1
300,320,302,304,1
302,327,307,311,1
304,331,310,316,1
306,330,312,319,1
308,324,313,321,1
309,316,313,322,1
311,307,313,321,1
311,299,312,319,1
311,292,311,316,1
309,286,309,313,1
307,282,305,309,1
304,279,301,305,1
301,279,297,303,1
298,280,293,302,1
296,283,293,303,1
296,287,296,304,1
297,291,302,306,1
299,296,308,307,1
302,299,313,307,1
304,303,315,307,1
307,308,316,307,1
308,313,315,308,1
309,319,313,310,1
311,324,311,311,1
310,323,309,311,1
307,316,308,310,1
303,307,309,310,1
300,300,310,309,1
299,294,312,308,1
298,291,314,308,1
298,291,315,309,1
299,293,314,310,1
300,297,312,311,1
302,303,310,311,1
304,309,309,310,1
306,314,309,308,1
306,318,308,305,1
305,320,306,301,1
304,320,305,298,1
303,317,303,294,1
302,311,300,291,1
301,305,298,287,1
301,298,297,285,1
301,295,296,286,1
303,294,296,290,1
306,296,297,296,1
309,297,298,300,1
310,300,300,303,1
310,305,301,305,1
308,312,303,307,1
307,320,305,310,1
305,327,308,312,1
305,332,312,313,1
306,334,314,314,1
307,331,315,314,1
308,324,316,312,1
308,316,317,309,1
307,309,317,307,1
307,304,317,307,1
308,303,316,307,1
308,303,316,308,1
308,302,314,308,1
307,301,314,310,1
307,300,314,312,1
307,300,314,314,1
306,299,314,313,1
305,298,315,313,1
304,299,316,311,1
305,301,318,309,1
305,306,318,307,1
306,313,317,305,1
307,320,317,305,1
308,326,316,306,1
308,329,316,307,1
308,326,315,306,1
307,318,313,305,1
307,305,311,302,1
306,293,310,298,1
306,286,309,294,1
307,282,309,291,1
307,281,308,291,1
306,283,308,292,1
306,287,307,294,1
305,290,306,297,1
304,293,305,299,1
302,295,305,301,1
298,297,304,303,1
296,300,304,306,1
294,305,303,309,1
295,308,301,311,1
296,310,300,312,1
299,310,298,312,1
302,308,295,312,1
303,304,293,311,1
303,301,294,309,1
302,299,297,307,1
303,299,303,304,1
305,299,308,301,1
305,300,311,300,1
304,301,313,300,1
303,302,314,302,1
302,303,315,303,1
302,304,315,304,1
303,306,315,306,1
304,308,315,309,1
305,311,316,312,1
308,314,317,315,1
311,316,317,318,1
314,318,317,319,1
315,317,316,318,1
316,313,315,315,1
315,306,315,310,1
313,298,313,304,1
309,289,312,300,1
305,281,310,298,1
302,276,308,297,1
301,273,306,298,1
302,275,305,299,1
304,280,302,298,1
305,287,300,297,1
306,293,298,296,1
306,296,297,294,1
307,297,297,293,1
309,297,297,293,1
312,298,298,294,1
315,301,299,297,1
318,305,299,298,1
320,309,298,298,1
320,310,296,298,1
318,310,295,297,1
314,309,296,298,1
310,309,298,299,1
305,309,300,299,1
301,310,301,296,1
301,311,303,293,1
303,311,306,291,1
306,310,308,291,1
309,307,308,291,1
311,303,308,292,1
310,300,307,293,1
310,299,306,297,1
310,300,306,302,1
310,302,307,306,1
310,304,307,309,1
310,308,307,311,1
310,314,308,313,1
310,321,311,314,1
310,329,313,316,1
310,337,315,319,1
309,345,315,323,1
308,351,315,328,1
307,353,313,330,1
306,350,309,329,1
305,344,304,325,1
304,338,299,319,1
304,331,296,313,1
304,325,295,307,1
304,321,295,301,1
304,317,296,296,1
303,314,297,291,1
301,313,298,287,1
300,315,300,286,1
301,320,302,288,1
304,327,305,292,1
306,335,306,296,1
307,343,307,301,1
306,348,309,307,1
306,350,311,311,1
307,347,313,314,1
307,341,315,315,1
308,336,314,315,1
309,332,312,315,1
309,327,310,312,1
309,320,308,309,1
308,313,306,305,1
308,306,305,302,1
307,303,304,300,1
307,302,305,300,1
309,303,306,302,1
311,303,309,304,1
312,301,310,306,1
312,297,310,306,1
312,294,310,307,1
313,292,308,307,1
314,292,305,306,1
315,292,303,304,1
317,293,300,303,1
318,295,298,305,1
318,299,297,306,1
317,303,297,307,1
315,307,298,308,1
313,313,300,309,1
310,318,302,309,1
309,322,304,307,1
308,325,304,306,1
309,326,305,306,1
310,324,306,306,1
310,318,306,305,1
311,310,305,304,1
311,304,304,301,1
311,300,304,300,1
313,301,305,302,1
315,304,308,304,1
317,309,310,307,1
317,312,311,308,1
314,314,308,307,1
310,314,305,306,1
307,312,301,305,1
305,309,299,304,1
303,306,298,303,1
302,304,298,303,1
303,306,299,306,1
305,310,302,312,1
308,315,307,317,1
311,319,312,320,1
314,320,317,323,1
317,319,320,324,1
318,316,322,323,1
318,314,323,321,1
316,311,322,318,1
314,309,320,315,1
313,308,318,313,1
312,307,317,312,1
313,306,315,310,1
314,306,313,306,1
315,307,310,302,1
315,307,308,299,1
316,308,306,299,1
317,310,305,300,1
316,316,305,302,1
315,324,304,304,1
313,333,305,305,1
310,339,305,305,1
309,341,305,306,1
309,337,305,307,1
308,328,304,308,1
309,317,305,309,1
310,305,305,310,1
310,296,306,309,1
310,290,305,308,1
311,286,304,307,1
312,285,304,307,1
311,286,302,305,1
310,288,300,302,1
307,292,298,299,1
306,295,297,297,1
306,299,298,295,1
307,302,301,295,1
308,304,304,294,1
308,305,308,296,1
307,308,310,299,1
306,310,312,304,1
306,312,312,307,1
306,313,311,310,1
307,313,309,311,1
308,313,308,311,1
309,313,306,310,1
308,312,303,308,1
306,310,302,308,1
305,308,301,309,1
304,308,300,311,1
303,308,300,313,1
303,307,298,314,1
303,307,298,313,1
303,311,298,312,1
302,315,298,310,1
301,320,298,308,1
301,324,298,306,1
301,327,298,303,1
303,328,297,299,1
304,327,296,295,1
306,325,295,290,1
308,321,294,288,1
310,315,295,286,1
311,308,295,286,1
311,302,296,287,1
309,297,296,291,1
307,295,297,295,1
306,293,299,298,1
305,291,300,299,1
307,290,302,299,1
309,290,304,298,1
310,292,306,298,1
310,297,308,298,1
309,300,307,299,1
307,302,306,300,1
306,302,305,302,1
305,301,304,305,1
306,300,302,308,1
305,299,300,310,1
304,299,299,312,1
305,301,300,315,1
306,305,302,318,1
308,309,303,319,1
310,314,303,320,1
312,319,304,321,1
314,323,304,320,1
312,325,302,317,1
308,324,299,312,1
304,320,297,307,1
302,314,298,303,1
302,310,300,300,1
303,309,304,299,1
306,312,308,302,1
310,316,312,305,1
313,318,314,309,1
315,319,315,312,1
315,315,314,312,1
314,308,313,311,1
311,301,312,310,1
309,296,311,309,1
307,294,311,308,1
307,295,311,308,1
308,296,311,307,1
308,297,312,307,1
308,298,313,306,1
306,297,313,305,1
305,298,312,305,1
305,299,311,304,1
305,301,310,303,1
306,305,307,302,1
306,310,304,304,1
306,317,301,306,1
306,323,300,308,1
307,327,301,310,1
308,329,303,312,1
310,328,306,313,1
312,324,308,313,1
314,317,309,313,1
314,310,308,310,1
313,303,308,308,1
311,299,307,306,1
309,295,307,304,1
306,293,307,302,1
303,292,307,301,1
301,291,306,299,1
300,291,305,295,1
299,290,305,291,1
299,290,304,290,1
299,292,306,291,1
300,295,307,294,1
301,300,309,298,1
302,307,309,303,1
303,315,308,307,1
302,322,306,310,1
301,326,304,312,1
301,326,302,313,1
301,325,299,313,1
302,325,299,313,1
303,326,303,314,1
304,325,307,315,1
305,321,310,316,1
306,316,312,316,1
306,311,313,316,1
305,309,315,317,1
304,307,315,317,1
303,303,315,316,1
302,299,314,313,1
301,293,313,310,1
301,289,313,310,1
301,286,313,312,1
302,285,315,315,1
303,284,316,319,1
305,284,317,322,1
306,285,317,325,1
306,287,316,327,1
307,289,313,329,1
308,289,310,328,1
307,288,306,326,1
306,286,304,321,1
307,285,303,315,1
307,285,301,309,1
306,284,298,302,1
306,284,296,298,1
305,285,294,296,1
306,286,292,295,1
305,288,292,297,1
305,291,294,300,1
306,298,299,304,1
308,305,302,307,1
310,313,304,307,1
310,318,305,307,1
308,321,304,305,1
305,323,303,305,1
303,321,302,306,1
303,317,302,307,1
304,310,303,309,1
306,301,304,311,1
307,294,304,311,1
307,289,303,310,1
307,287,303,310,1
307,288,303,309,1
306,289,303,307,1
304,290,302,306,1
302,291,300,305,1
300,291,297,304,1
300,291,296,304,1
299,291,295,303,1
300,291,295,303,1
302,293,297,304,1
305,296,299,307,1
308,299,302,310,1
309,303,305,312,1
309,306,308,314,1
309,308,309,316,1
307,309,311,317,1
304,309,312,318,1
301,307,312,317,1
299,304,311,315,1
298,301,311,313,1
299,301,310,311,1
300,302,309,309,1
302,304,307,307,1
303,305,306,307,1
303,307,304,307,1
303,309,303,307,1
303,311,301,308,1
304,315,301,311,1
307,320,301,317,1
311,326,304,321,1
314,329,307,324,1
315,327,310,326,1
315,322,313,326,1
312,315,313,326,1
306,308,312,325,1
302,302,312,323,1
299,299,310,319,1
297,297,308,316,1
297,295,305,311,1
297,296,304,307,1
298,298,303,303,1
298,300,302,299,1
298,302,303,297,1
299,304,304,297,1
299,307,306,298,1
301,310,306,301,1
302,311,308,304,1
303,310,308,306,1
304,308,308,308,1
305,306,308,310,1
306,304,308,313,1
307,302,308,317,1
307,301,308,321,1
307,300,308,325,1
307,300,308,328,1
309,301,307,330,1
310,303,307,329,1
312,304,307,325,1
310,304,305,319,1
307,301,302,312,1
303,298,300,306,1
299,296,299,302,1
298,296,300,301,1
298,296,302,301,1
299,297,304,302,1
299,298,306,303,1
301,299,307,305,1
302,300,308,306,1
304,301,308,306,1
305,302,309,306,1
306,302,310,305,1
308,302,309,305,1
308,303,307,304,1
307,305,303,304,1
305,308,300,304,1
304,314,298,305,1
303,320,297,306,1
302,326,296,307,1
303,330,296,307,1
304,331,298,305,1
307,328,300,302,1
310,321,301,298,1
311,310,301,293,1
312,301,302,289,1
313,294,303,287,1
315,293,305,289,1
314,295,307,294,1
309,297,307,299,1
305,301,307,303,1
302,302,306,307,1
302,301,306,309,1
304,299,308,311,1
307,297,311,312,1
311,296,314,313,1
314,297,317,313,1
317,299,319,314,1
319,301,320,316,1
320,305,319,317,1
318,307,316,316,1
314,307,312,314,1
310,306,309,313,1
308,303,307,312,1
306,302,307,312,1
306,302,307,311,1
305,303,308,312,1
306,305,309,313,1
307,308,309,314,1
309,310,310,315,1
309,311,309,315,1
306,311,306,315,1
304,311,305,315,1
302,311,306,313,1
301,310,306,310,1
301,309,307,306,1
302,309,306,301,1
303,310,307,297,1
308,311,308,293,1
314,313,310,289,1
320,316,312,289,1
324,319,316,292,1
325,321,319,298,1
324,320,321,305,1
323,320,322,314,1
320,321,323,322,1
317,322,324,326,1
312,321,322,327,1
306,318,319,325,1
302,312,317,323,1
299,305,315,321,1
299,298,314,318,1
302,294,314,317,1
310,293,314,317,1
322,295,314,317,1
332,299,313,318,1
340,303,313,320,1
342,307,314,322,1
341,310,318,322,1
336,312,320,319,1
326,314,320,313,1
313,316,318,307,1
302,317,314,300,1
293,318,311,293,1
289,318,309,288,1
287,316,309,285,1
288,313,310,283,1
289,303,311,283,1
290,294,312,284,1
291,286,312,287,1
291,284,312,291,1
291,284,312,295,1
292,285,312,298,1
294,286,313,302,1
298,289,315,307,1
300,290,316,311,1
302,291,316,314,1
304,293,317,317,1
308,297,316,318,1
310,300,313,316,1
310,303,309,312,1
310,306,306,307,1
308,310,304,302,1
307,314,303,299,1
307,319,302,298,1
307,325,301,300,1
306,328,299,302,1
304,329,299,304,1
303,329,299,307,1
302,327,300,309,1
302,320,300,308,1
303,310,301,307,1
304,299,302,306,1
304,289,304,306,1
303,285,306,307,1
302,283,309,308,1
301,284,311,309,1
302,286,314,308,1
303,287,316,308,1
305,289,317,307,1
307,290,316,305,1
307,292,315,304,1
309,293,314,303,1
309,293,314,302,1
309,292,314,301,1
308,292,314,300,1
306,292,313,300,1
304,292,312,300,1
303,293,311,301,1
303,296,312,305,1
305,299,312,310,1
306,302,312,315,1
307,305,310,318,1
307,306,309,318,1
307,307,307,318,1
306,309,305,317,1
306,311,305,317,1
306,313,305,316,1
307,317,308,315,1
307,325,310,315,1
308,335,312,315,1
308,344,313,314,1
308,350,312,315,1
308,351,311,315,1
309,351,310,315,1
310,348,310,315,1
312,344,308,314,1
312,337,306,310,1
311,327,303,305,1
310,315,300,300,1
308,303,299,296,1
308,294,298,295,1
307,289,300,297,1
308,287,303,303,1
309,288,307,309,1
311,290,310,314,1
311,290,311,315,1
309,289,310,313,1
306,285,309,308,1
302,281,307,302,1
298,278,305,296,1
295,277,302,292,1
294,277,299,289,1
294,279,298,288,1
296,282,298,289,1
299,285,298,291,1
302,289,300,296,1
304,294,302,301,1
305,300,304,305,1
305,306,306,309,1
305,313,308,312,1
305,318,309,314,1
306,323,310,315,1
307,328,310,316,1
308,330,309,316,1
308,328,307,315,1
307,323,306,312,1
305,313,303,309,1
304,304,301,308,1
304,297,299,308,1
306,293,299,311,1
308,291,298,313,1
311,290,298,315,1
313,291,299,315,1
313,292,300,314,1
312,295,301,311,1
311,297,301,307,1
309,300,302,302,1
308,303,301,298,1
305,306,301,293,1
302,307,300,289,1
301,307,300,288,1
300,305,301,290,1
300,304,301,295,1
301,304,300,300,1
302,304,299,304,1
302,305,298,307,1
302,305,299,309,1
301,305,302,311,1
300,303,303,312,1
300,301,304,311,1
301,299,304,310,1
301,297,303,309,1
301,296,303,308,1
301,296,305,309,1
302,297,306,310,1
303,300,308,312,1
304,305,308,314,1
306,308,307,314,1
307,310,304,313,1
308,312,302,312,1
309,317,299,311,1
310,324,298,310,1
311,333,299,308,1
312,340,301,306,1
313,347,303,304,1
314,351,304,304,1
315,351,304,304,1
315,344,305,304,1
314,332,308,305,1
312,317,311,306,1
309,304,313,307,1
307,294,315,307,1
305,289,316,307,1
304,288,316,308,1
305,291,317,309,1
306,295,317,313,1
309,298,317,318,1
311,300,317,323,1
313,302,316,327,1
313,303,314,328,1
311,304,311,326,1
308,305,307,322,1
306,306,303,318,1
303,307,302,315,1
302,308,301,314,1
301,308,302,314,1
301,309,303,313,1
301,310,304,313,1
302,308,304,312,1
304,306,305,310,1
304,304,305,308,1
304,302,305,306,1
303,301,305,306,1
304,301,305,307,1
304,301,306,308,1
305,302,307,309,1
305,302,307,308,1
305,302,307,307,1
305,301,307,305,1
305,298,305,304,1
304,297,304,302,1
303,296,303,301,1
302,298,302,300,1
301,301,301,299,1
301,303,300,298,1
300,306,300,296,1
300,307,299,296,1
299,307,299,295,1
299,303,298,295,1
299,299,298,297,1
299,296,299,300,1
300,295,300,303,1
301,295,302,306,1
302,297,303,309,1
304,299,304,312,1
305,301,305,314,1
305,303,306,315,1
304,304,305,315,1
303,304,303,315,1
303,303,302,315,1
303,302,301,314,1
303,301,301,314,1
303,301,302,312,1
303,302,303,310,1
302,301,304,307,1
300,300,305,302,1
299,300,307,298,1
300,302,309,295,1
300,304,311,292,1
300,308,312,291,1
300,312,312,291,1
300,315,311,293,1
302,318,311,299,1
304,320,312,305,1
306,319,310,309,1
306,313,307,309,1
305,305,303,307,1
304,297,302,305,1
304,293,302,303,1
304,291,302,302,1
305,290,303,300,1
306,292,303,298,1
307,294,303,296,1
307,296,303,294,1
307,298,302,293,1
306,301,302,295,1
305,307,304,299,1
305,314,306,302,1
306,321,307,305,1
307,327,307,307,1
307,330,307,310,1
307,333,308,313,1
308,334,309,317,1
308,330,309,319,1
309,324,310,321,1
310,317,310,321,1
311,312,310,320,1
312,309,312,318,1
314,307,313,317,1
315,306,314,315,1
315,303,315,312,1
312,300,315,310,1
308,297,315,309,1
305,294,316,310,1
302,292,316,311,1
301,293,317,313,1
301,296,317,314,1
302,300,317,314,1
303,303,316,314,1
304,305,316,314,1
304,304,315,313,1
303,302,314,313,1
302,300,313,312,1
302,300,312,311,1
304,302,311,310,1
306,304,309,310,1
308,307,307,309,1
309,309,305,309,1
310,310,304,310,1
311,309,304,309,1
310,307,305,308,1
308,304,306,307,1
307,303,307,306,1
306,302,308,304,1
305,302,309,303,1
305,303,309,303,1
304,304,309,304,1
305,305,308,306,1
306,304,308,307,1
307,304,307,308,1
309,303,307,309,1
309,302,306,308,1
308,302,305,306,1
306,301,304,303,1
304,300,304,299,1
303,300,303,295,1
302,300,303,292,1
302,301,302,289,1
302,301,300,287,1
302,301,298,285,1
302,301,295,284,1
302,301,292,285,1
302,300,288,285,1
302,300,286,284,1
302,300,284,282,1
302,301,285,284,1
303,304,288,291,1
305,309,293,303,1
308,315,298,314,1
311,319,302,324,1
313,321,306,330,1
314,323,310,333,1
314,324,313,334,1
314,327,316,334,1
313,328,318,333,1
311,329,317,329,1
309,328,317,325,1
308,328,317,322,1
307,328,317,319,1
307,329,316,318,1
307,331,315,317,1
307,333,313,316,1
306,335,311,314,1
305,336,310,312,1
305,336,308,309,1
306,334,307,307,1
308,332,305,307,1
311,325,305,308,1
314,313,303,309,1
315,300,300,308,1
315,289,297,306,1
316,284,294,305,1
316,285,294,305,1
317,291,297,307,1
320,300,301,311,1
322,306,304,313,1
320,307,306,313,1
317,302,307,312,1
314,295,309,310,1
310,288,310,307,1
307,285,310,304,1
303,283,310,303,1
300,284,310,302,1
298,285,309,302,1
296,288,308,301,1
295,289,306,300,1
296,291,304,299,1
296,292,302,298,1
298,291,300,296,1
299,290,300,294,1
300,290,301,293,1
301,293,303,294,1
304,298,306,299,1
306,302,308,302,1
307,305,309,305,1
305,306,309,305,1
304,305,307,303,1
303,304,305,301,1
303,305,303,300,1
304,306,303,299,1
305,308,302,299,1
306,311,302,301,1
307,313,301,303,1
308,314,301,306,1
308,314,302,309,1
309,313,303,313,1
308,311,305,314,1
306,308,306,315,1
303,305,306,314,1
301,303,306,314,1
300,303,305,314,1
302,304,304,314,1
304,304,302,313,1
306,306,300,314,1
308,307,301,314,1
309,309,303,314,1
309,312,305,313,1
309,314,307,311,1
308,316,310,309,1
307,315,311,308,1
305,311,309,305,1
304,304,307,304,1
303,300,304,304,1
304,297,301,304,1
305,296,298,304,1
305,293,295,306,1
306,292,295,309,1
307,292,297,313,1
307,293,301,315,1
306,294,303,315,1
305,295,305,314,1
305,296,306,312,1
305,298,307,309,1
305,300,307,305,1
305,301,306,302,1
305,304,305,302,1
305,308,304,305,1
305,312,304,308,1
304,316,305,310,1
304,318,305,311,1
305,320,306,311,1
306,322,306,312,1
306,324,307,312,1
307,325,308,312,1
306,324,308,311,1
307,321,309,311,1
306,317,310,311,1
306,313,311,312,1
307,310,311,313,1
308,309,311,313,1
308,309,310,311,1
307,309,308,309,1
306,310,307,307,1
307,309,306,307,1
308,307,307,308,1
311,304,308,311,1
313,304,308,313,1
315,304,309,313,1
315,305,308,313,1
315,307,305,312,1
313,308,303,310,1
312,308,301,307,1
311,307,299,304,1
309,305,297,302,1
308,302,295,301,1
309,300,295,301,1
310,299,295,302,1
313,299,295,301,1
315,298,296,299,1
315,297,297,300,1
312,296,298,302,1
308,295,297,305,1
303,292,296,307,1
299,291,294,308,1
296,291,293,307,1
295,292,292,305,1
296,294,291,303,1
298,297,290,301,1
301,301,289,301,1
303,304,289,302,1
303,306,290,304,1
303,308,295,306,1
304,309,300,308,1
305,310,305,310,1
305,310,308,311,1
305,309,308,312,1
305,310,306,313,1
304,311,305,315,1
304,313,304,315,1
304,314,304,316,1
305,315,306,316,1
306,315,308,316,1
307,314,310,315,1
307,313,310,313,1
307,313,307,310,1
306,312,304,305,1
306,311,302,299,1
306,309,299,293,1
306,309,299,288,1
307,310,299,285,1
307,311,299,284,1
307,313,299,284,1
307,316,301,286,1
308,321,304,289,1
310,326,306,295,1
312,332,307,300,1
314,336,308,304,1
314,338,308,308,1
312,341,308,310,1
310,343,308,311,1
308,342,308,312,1
307,338,307,312,1
307,331,305,311,1
307,321,304,309,1
306,308,302,306,1
306,297,301,301,1
306,289,300,298,1
307,287,300,297,1
308,290,301,299,1
309,295,302,302,1
309,301,304,305,1
309,306,306,307,1
308,309,307,309,1
308,310,308,310,1
308,308,309,311,1
307,303,310,312,1
306,297,311,313,1
305,293,311,314,1
305,292,311,315,1
306,293,310,316,1
307,296,309,317,1
307,300,307,316,1
307,304,306,314,1
307,307,305,311,1
307,308,305,309,1
307,309,305,307,1
306,309,305,306,1
305,306,304,304,1
305,302,303,301,1
304,298,301,299,1
303,294,300,296,1
304,293,299,292,1
305,293,299,289,1
307,294,300,289,1
309,296,302,291,1
312,299,305,296,1
316,303,307,302,1
319,305,308,307,1
320,307,307,311,1
319,308,306,313,1
318,310,305,314,1
318,312,304,313,1
317,314,303,312,1
316,314,302,309,1
313,313,301,307,1
310,311,301,305,1
309,310,301,304,1
308,308,300,304,1
308,306,300,304,1
307,305,300,304,1
308,304,302,306,1
310,303,304,308,1
309,302,306,309,1
306,302,308,311,1
303,301,309,311,1
302,300,309,312,1
302,299,309,311,1
303,297,307,311,1
303,296,304,309,1
303,295,300,308,1
303,295,296,306,1
303,296,292,305,1
303,298,289,304,1
302,300,289,304,1
301,302,290,303,1
301,304,295,302,1
301,306,301,300,1
302,308,304,298,1
302,310,306,297,1
303,311,305,295,1
304,311,303,294,1
304,312,301,294,1
305,315,300,296,1
306,317,301,298,1
305,318,302,300,1
305,320,304,302,1
305,324,306,304,1
305,330,308,306,1
306,333,310,309,1
308,332,312,312,1
310,329,315,316,1
312,326,316,321,1
313,324,317,323,1
312,320,316,323,1
312,315,314,320,1
311,312,312,316,1
309,310,308,313,1
308,308,306,310,1
306,304,304,308,1
305,302,303,307,1
305,300,304,307,1
306,298,305,308,1
308,296,308,312,1
310,294,311,320,1
313,295,314,329,1
316,297,317,336,1
318,297,318,339,1
319,297,318,339,1
319,297,317,336,1
319,299,316,332,1
319,302,314,327,1
319,306,313,322,1
317,308,310,318,1
314,308,307,316,1
311,307,305,315,1
308,306,305,315,1
306,304,304,315,1
304,302,305,315,1
303,301,308,316,1
302,301,309,316,1
302,301,309,315,1
301,301,309,315,1
302,302,309,315,1
303,303,309,315,1
303,304,309,315,1
302,304,310,314,1
300,302,311,313,1
298,300,310,311,1
296,299,309,309,1
295,301,308,307,1
295,305,307,305,1
296,309,307,305,1
298,313,308,304,1
300,316,309,304,1
302,318,310,303,1
304,317,310,302,1
304,315,310,301,1
305,310,311,300,1
305,308,311,300,1
307,309,312,303,1
308,312,312,308,1
308,313,310,311,1
307,311,308,314,1
305,306,305,314,1
304,300,302,314,1
304,298,300,315,1
306,299,298,315,1
309,303,297,316,1
313,309,298,314,1
314,314,299,312,1
313,315,299,308,1
310,314,300,304,1
307,313,301,302,1
307,312,302,303,1
307,314,303,304,1
307,318,304,306,1
308,320,305,305,1
308,321,306,304,1
307,321,307,302,1
305,320,309,299,1
303,317,310,297,1
300,310,310,294,1
299,300,310,291,1
299,292,309,289,1
300,286,309,288,1
300,283,310,289,1
300,281,310,291,1
300,283,312,297,1
301,287,315,306,1
302,291,317,314,1
304,295,319,320,1
305,299,318,324,1
307,301,317,325,1
308,302,315,325,1
308,301,312,323,1
307,300,311,321,1
306,299,311,317,1
306,298,311,312,1
307,298,312,307,1
308,298,312,304,1
310,298,311,302,1
312,299,311,300,1
313,301,311,299,1
314,303,310,299,1
313,305,309,298,1
311,306,308,299,1
309,307,308,301,1
307,307,309,304,1
305,307,308,309,1
303,306,307,313,1
302,306,307,315,1
303,306,308,315,1
304,306,310,316,1
306,307,313,316,1
308,308,316,315,1
308,310,319,315,1
309,311,320,314,1
308,311,319,311,1
307,312,316,308,1
305,313,314,305,1
304,314,314,303,1
304,316,314,303,1
303,317,315,305,1
303,317,316,311,1
304,315,317,316,1
304,313,318,319,1
304,311,318,319,1
304,308,317,318,1
304,306,316,316,1
304,304,315,315,1
304,304,315,314,1
304,304,314,312,1
303,303,313,310,1
303,302,312,308,1
303,301,312,307,1
304,302,312,307,1
305,303,313,308,1
305,304,312,309,1
305,305,310,308,1
304,305,308,305,1
304,308,306,303,1
304,314,305,302,1
304,321,304,301,1
304,328,303,301,1
303,332,303,302,1
304,332,304,303,1
304,328,305,304,1
305,321,305,304,1
305,314,305,305,1
306,307,305,307,1
306,304,308,309,1
309,303,312,313,1
313,305,314,316,1
315,306,314,317,1
315,305,313,315,1
314,303,312,312,1
313,300,310,308,1
310,296,309,304,1
308,292,308,300,1
305,290,307,299,1
304,290,306,300,1
303,293,307,303,1
303,299,309,306,1
304,306,311,308,1
306,313,313,309,1
307,319,313,308,1
308,323,312,307,1
308,325,309,306,1
308,326,307,305,1
309,323,305,303,1
309,316,304,302,1
308,309,303,301,1
308,304,302,301,1
309,303,303,302,1
310,303,303,303,1
309,301,302,303,1
307,298,300,302,1
305,294,300,302,1
305,292,300,304,1
307,292,301,307,1
308,292,303,308,1
309,293,304,308,1
309,295,304,307,1
310,297,304,305,1
310,300,305,304,1
310,303,304,302,1
309,305,304,300,1
308,308,304,299,1
307,309,303,298,1
306,309,303,297,1
306,308,304,297,1
306,308,304,298,1
305,307,304,300,1
304,305,305,301,1
304,305,305,303,1
304,306,307,304,1
305,308,308,304,1
306,312,308,303,1
307,317,309,304,1
307,323,309,305,1
308,329,307,307,1
308,331,305,308,1
306,330,303,309,1
305,326,303,310,1
305,320,303,311,1
306,314,303,312,1
307,309,302,312,1
306,305,300,311,1
305,303,299,310,1
303,302,298,308,1
302,303,299,309,1
302,305,302,310,1
303,307,306,311,1
305,309,309,311,1
307,310,313,311,1
308,310,315,310,1
308,310,315,308,1
307,310,315,305,1
306,309,313,299,1
305,307,311,294,1
304,306,309,293,1
304,305,309,296,1
304,305,309,304,1
305,303,308,312,1
305,301,307,317,1
305,299,306,319,1
304,297,304,318,1
305,296,303,315,1
304,296,303,312,1
304,298,304,310,1
304,303,306,308,1
305,308,308,307,1
305,315,308,307,1
306,320,308,306,1
307,324,308,306,1
308,327,307,306,1
308,329,305,306,1
309,329,305,306,1
309,328,304,304,1
310,329,304,303,1
311,331,304,302,1
311,332,304,299,1
310,333,303,298,1
311,332,303,297,1
311,328,304,298,1
312,322,305,300,1
312,314,305,303,1
311,304,305,306,1
309,294,305,310,1
308,288,305,313,1
308,283,305,315,1
308,281,305,316,1
309,281,306,318,1
310,282,306,319,1
310,284,308,319,1
310,286,309,319,1
309,288,309,318,1
309,291,309,317,1
307,294,309,315,1
306,297,308,312,1
303,299,307,310,1
301,301,306,308,1
299,300,305,306,1
298,300,303,305,1
297,299,300,305,1
298,298,298,305,1
300,298,296,304,1
301,298,294,305,1
302,298,294,307,1
303,300,295,310,1
303,303,297,312,1
304,305,298,312,1
306,307,301,312,1
309,308,303,311,1
312,310,304,308,1
314,311,304,306,1
315,312,303,302,1
315,313,302,299,1
314,314,301,297,1
312,315,299,296,1
309,313,298,295,1
305,309,297,296,1
303,305,297,298,1
302,302,296,298,1
303,299,296,298,1
305,297,297,297,1
307,295,298,297,1
308,295,299,297,1
307,295,300,298,1
305,295,301,298,1
303,298,303,300,1
303,301,305,303,1
303,306,307,306,1
304,310,309,309,1
305,313,309,311,1
306,315,308,312,1
306,316,305,311,1
305,315,302,309,1
302,314,300,306,1
300,312,300,304,1
299,312,303,303,1
299,311,306,304,1
299,311,309,305,1
300,309,311,307,1
300,306,313,309,1
302,304,315,311,1
303,301,316,311,1
305,296,316,309,1
306,293,314,307,1
306,290,311,305,1
307,289,308,305,1
308,291,307,305,1
309,292,305,306,1
309,294,303,305,1
310,294,300,304,1
309,295,299,301,1
309,296,297,299,1
309,301,296,297,1
308,308,295,295,1
307,316,296,294,1
307,324,298,294,1
306,330,300,296,1
305,333,302,300,1
305,331,303,306,1
306,324,304,313,1
308,314,306,318,1
310,305,307,322,1
311,299,308,323,1
311,298,308,323,1
311,299,307,322,1
311,302,306,321,1
310,304,305,319,1
309,307,304,318,1
309,310,305,318,1
310,310,306,318,1
310,309,307,318,1
312,307,308,318,1
314,305,309,317,1
314,303,309,315,1
313,301,308,312,1
310,300,306,309,1
307,302,304,308,1
304,305,302,307,1
303,309,302,308,1
301,312,302,309,1
301,313,302,311,1
302,314,303,313,1
303,313,304,314,1
304,312,305,315,1
304,311,305,315,1
304,312,305,315,1
305,313,306,315,1
305,314,307,315,1
306,315,309,315,1
306,313,309,315,1
305,311,308,313,1
304,308,307,311,1
302,306,305,309,1
301,306,304,309,1
301,307,303,309,1
301,305,303,308,1
300,302,302,308,1
300,300,302,307,1
299,299,301,305,1
298,299,300,303,1
298,300,299,302,1
298,300,300,304,1
298,302,300,305,1
298,302,300,305,1
298,300,301,306,1
300,298,301,307,1
301,297,303,310,1
303,296,306,311,1
304,298,308,312,1
306,300,309,311,1
308,302,309,310,1
311,304,308,309,1
313,306,307,307,1
314,307,306,305,1
315,309,305,304,1
315,311,304,303,1
314,313,304,304,1
311,316,303,305,1
310,318,303,305,1
308,319,302,305,1
308,318,301,304,1
308,316,299,303,1
307,314,298,302,1
306,314,298,302,1
305,314,298,302,1
304,315,298,301,1
302,315,298,297,1
302,316,299,293,1
302,316,299,289,1
303,315,299,287,1
304,312,300,288,1
305,307,301,292,1
305,300,303,298,1
305,295,304,305,1
303,291,306,311,1
301,288,307,315,1
299,285,307,318,1
298,285,305,320,1
297,285,302,321,1
298,287,300,321,1
298,289,301,319,1
300,292,303,317,1
303,297,305,316,1
306,302,309,316,1
308,307,311,317,1
309,311,312,318,1
310,313,312,318,1
310,313,312,318,1
309,311,312,316,1
309,310,312,315,1
309,309,312,314,1
310,309,312,314,1
311,309,312,313,1
312,310,312,313,1
312,312,311,314,1
312,314,311,314,1
310,316,311,313,1
308,317,310,312,1
306,318,309,311,1
305,318,307,310,1
305,315,305,309,1
304,313,303,309,1
304,310,301,307,1
304,309,299,308,1
304,309,298,309,1
305,309,299,312,1
306,310,300,314,1
307,311,302,316,1
306,312,303,316,1
305,312,304,315,1
305,313,305,314,1
305,313,307,313,1
306,314,307,312,1
306,314,308,311,1
307,316,308,310,1
308,318,307,310,1
309,321,306,308,1
309,322,305,304,1
309,321,305,300,1
307,318,305,296,1
304,312,304,292,1
302,304,303,289,1
300,299,302,287,1
300,296,303,287,1
300,292,303,289,1
300,288,304,292,1
300,286,304,297,1
301,287,304,301,1
302,289,304,304,1
303,292,303,305,1
303,295,303,307,1
305,298,304,311,1
307,302,304,316,1
310,306,303,320,1
313,309,302,322,1
316,312,302,324,1
316,314,305,326,1
317,317,307,326,1
316,320,310,327,1
314,326,313,327,1
311,334,315,327,1
308,340,316,326,1
306,344,316,324,1
306,341,315,323,1
304,333,314,320,1
303,321,311,316,1
301,307,309,313,1
300,296,306,309,1
298,289,304,306,1
298,286,302,303,1
298,286,300,302,1
298,288,300,304,1
300,293,301,307,1
302,299,302,310,1
304,305,304,313,1
306,311,306,314,1
306,316,306,315,1
307,320,305,316,1
306,320,306,317,1
307,315,308,317,1
308,309,310,316,1
309,302,312,315,1
310,297,312,314,1
309,295,311,314,1
308,297,308,315,1
306,300,305,314,1
305,302,302,312,1
303,302,300,311,1
302,303,300,311,1
301,303,300,312,1
302,304,302,313,1
303,305,302,314,1
304,306,303,313,1
306,305,303,311,1
307,303,302,309,1
307,303,302,309,1
306,304,303,310,1
306,306,304,313,1
307,309,305,316,1
309,312,306,316,1
309,316,306,315,1
309,320,305,313,1
309,323,304,310,1
308,326,304,307,1
307,329,305,305,1
306,329,305,302,1
306,326,304,299,1
305,321,305,297,1
305,315,305,294,1
304,311,305,294,1
304,309,305,296,1
305,308,305,300,1
306,306,306,304,1
305,303,306,307,1
304,301,306,308,1
302,300,306,308,1
301,300,306,308,1
301,301,307,308,1
302,302,307,306,1
304,303,307,304,1
306,304,307,302,1
307,304,306,300,1
307,304,304,299,1
308,304,303,299,1
309,306,301,302,1
310,309,299,307,1
311,313,299,312,1
311,318,301,315,1
310,324,304,316,1
308,331,307,316,1
306,335,308,316,1
304,335,309,317,1
304,332,308,317,1
304,326,307,317,1
305,318,306,317,1
305,307,303,315,1
305,297,302,313,1
305,290,303,312,1
305,288,305,312,1
306,288,308,312,1
306,290,310,310,1
305,292,311,308,1
303,295,310,306,1
302,297,309,305,1
301,299,308,304,1
300,300,306,304,1
300,301,304,304,1
301,304,304,305,1
303,308,304,307,1
304,311,305,309,1
305,313,305,311,1
306,314,305,312,1
307,313,304,313,1
308,311,304,314,1
309,309,304,315,1
308,308,305,314,1
307,306,305,314,1
306,305,305,312,1
304,305,304,310,1
304,304,304,307,1
304,304,304,304,1
306,304,303,302,1
308,305,303,302,1
311,307,303,302,1
313,308,303,303,1
315,308,303,304,1
315,306,304,304,1
314,303,304,305,1
311,301,303,304,1
306,300,301,304,1
303,299,300,303,1
301,299,299,305,1
301,299,300,306,1
302,297,301,307,1
303,294,302,307,1
304,293,303,308,1
307,293,304,308,1
308,294,304,309,1
309,294,304,309,1
309,294,303,309,1
309,295,302,306,1
310,297,302,303,1
311,299,302,301,1
311,303,303,301,1
311,306,303,302,1
309,309,303,302,1
306,310,302,303,1
305,310,301,305,1
304,311,299,307,1
305,313,298,309,1
307,314,297,310,1
307,314,296,310,1
308,313,296,309,1
308,309,295,307,1
307,304,294,303,1
307,298,292,299,1
306,295,291,295,1
305,293,292,293,1
305,292,294,294,1
304,293,297,297,1
304,294,300,301,1
306,295,304,305,1
307,296,306,307,1
308,296,307,309,1
308,297,306,310,1
306,297,304,311,1
305,298,302,312,1
304,299,300,314,1
303,300,298,316,1
303,302,298,317,1
303,302,298,317,1
305,303,299,316,1
307,303,302,315,1
309,303,306,314,1
309,301,308,312,1
309,300,309,312,1
309,299,309,312,1
309,298,309,313,1
309,297,308,315,1
309,297,309,315,1
309,301,309,316,1
309,306,310,317,1
309,311,309,317,1
307,316,309,317,1
306,318,308,318,1
305,316,307,318,1
304,310,306,318,1
303,300,306,317,1
302,292,305,317,1
301,286,304,317,1
301,284,304,316,1
301,284,303,314,1
302,286,303,310,1
303,288,303,306,1
305,288,303,302,1
307,288,304,298,1
308,286,304,295,1
309,285,304,292,1
310,285,304,291,1
311,285,304,289,1
312,287,304,288,1
312,289,304,288,1
312,292,304,289,1
311,295,303,292,1
310,297,303,295,1
309,300,303,298,1
309,302,303,301,1
310,303,305,305,1
311,304,307,310,1
313,306,310,315,1
314,307,312,320,1
317,309,314,323,1
320,311,315,325,1
322,314,315,325,1
324,316,315,325,1
324,316,314,325,1
323,316,313,324,1
321,315,312,323,1
316,314,311,322,1
312,314,310,321,1
309,313,308,320,1
308,312,307,319,1
308,310,306,318,1
309,309,306,317,1
309,308,306,316,1
308,307,306,313,1
307,308,307,309,1
304,309,306,306,1
302,311,304,303,1
300,313,302,301,1
299,314,301,300,1
298,316,301,301,1
299,318,303,304,1
300,320,303,307,1
300,320,302,309,1
299,318,299,310,1
298,315,297,312,1
298,312,295,313,1
299,309,295,314,1
301,306,296,314,1
302,303,297,314,1
302,300,298,313,1
302,297,299,311,1
302,295,301,308,1
301,293,302,305,1
300,293,303,300,1
299,292,303,294,1
299,293,303,290,1
300,295,304,288,1
301,299,304,286,1
302,302,305,288,1
302,305,306,293,1
303,311,308,302,1
306,318,310,312,1
310,323,312,318,1
312,322,312,322,1
312,319,309,324,1
312,318,306,324,1
311,319,304,325,1
309,322,304,325,1
308,323,305,324,1
308,321,306,320,1
307,315,307,316,1
307,306,307,311,1
307,295,308,308,1
308,287,309,307,1
309,283,310,306,1
310,283,311,307,1
311,286,311,307,1
311,289,311,307,1
311,292,310,306,1
310,294,310,303,1
309,294,310,300,1
308,293,309,297,1
308,293,308,295,1
310,294,308,296,1
312,297,308,299,1
312,302,307,303,1
313,310,307,311,1
313,316,307,319,1
313,320,307,325,1
313,319,307,327,1
312,317,306,326,1
311,314,306,323,1
310,312,306,319,1
308,308,307,315,1
307,306,308,313,1
307,304,309,313,1
307,303,311,314,1
308,302,312,316,1
308,301,313,318,1
307,300,312,319,1
305,300,311,318,1
303,301,309,316,1
302,302,307,314,1
302,304,305,312,1
302,307,304,311,1
304,309,303,310,1
305,310,303,308,1
305,310,303,307,1
304,309,304,306,1
301,305,304,306,1
299,301,304,306,1
297,297,304,305,1
296,295,303,304,1
295,294,303,302,1
294,294,302,299,1
295,294,302,296,1
296,295,301,293,1
299,297,302,291,1
302,299,303,290,1
307,301,304,290,1
310,304,305,291,1
312,306,304,292,1
312,309,303,294,1
310,310,303,295,1
307,310,303,295,1
305,308,303,294,1
303,307,304,293,1
303,307,305,294,1
304,306,306,296,1
303,305,305,297,1
302,306,305,299,1
302,308,305,301,1
302,311,306,304,1
303,314,306,306,1
302,316,306,307,1
301,316,305,308,1
300,314,305,309,1
299,311,306,308,1
297,306,306,305,1
295,302,305,301,1
293,301,305,298,1
293,304,305,296,1
295,311,308,296,1
298,319,310,297,1
300,323,310,298,1
302,324,310,300,1
302,320,310,303,1
302,312,310,306,1
301,302,310,308,1
299,294,309,309,1
297,289,307,309,1
296,287,305,308,1
295,286,303,305,1
296,287,301,301,1
296,289,300,298,1
297,293,303,295,1
299,298,307,293,1
301,304,311,293,1
303,311,313,293,1
304,314,314,293,1
303,310,314,293,1
301,304,313,294,1
298,299,313,295,1
296,295,312,298,1
295,293,312,301,1
294,293,311,303,1
294,293,310,304,1
294,294,308,306,1
295,296,307,306,1
296,298,305,304,1
298,300,304,301,1
300,301,305,299,1
303,304,307,299,1
305,307,309,302,1
308,309,312,307,1
310,313,315,313,1
312,316,317,319,1
313,319,317,322,1
312,321,315,323,1
309,324,312,323,1
306,327,309,321,1
303,329,306,318,1
300,332,304,316,1
299,336,303,314,1
298,339,303,313,1
299,342,305,311,1
300,341,305,309,1
301,333,305,305,1
302,322,306,302,1
302,311,308,301,1
302,304,309,301,1
302,297,310,301,1
301,291,311,300,1
300,286,312,300,1
301,283,312,299,1
301,282,311,298,1
303,283,311,298,1
304,286,309,299,1
303,290,307,300,1
303,294,306,301,1
302,298,305,303,1
301,301,304,305,1
299,301,304,307,1
297,300,304,308,1
297,299,305,309,1
298,299,305,310,1
299,301,304,311,1
299,302,302,312,1
299,304,302,310,1
299,305,302,307,1
299,305,302,304,1
299,304,303,300,1
301,303,304,297,1
302,302,306,294,1
303,303,306,294,1
304,309,307,296,1
305,317,307,299,1
306,325,308,302,1
306,333,309,304,1
307,337,309,306,1
308,339,309,308,1
308,335,308,309,1
308,326,307,310,1
307,314,306,311,1
307,305,306,312,1
307,300,306,312,1
307,299,306,311,1
307,300,308,310,1
308,301,310,308,1
310,301,310,305,1
312,302,310,303,1
314,303,310,302,1
316,305,311,302,1
316,307,311,303,1
315,308,311,304,1
311,309,311,305,1
307,311,311,307,1
304,314,311,310,1
302,317,310,313,1
302,319,310,315,1
302,319,308,315,1
301,317,305,312,1
300,314,303,309,1
299,311,303,307,1
300,311,306,306,1
301,312,310,304,1
302,313,312,301,1
302,313,312,297,1
302,312,311,294,1
301,311,311,290,1
300,309,310,289,1
301,308,310,289,1
302,308,310,291,1
303,308,310,295,1
303,309,310,300,1
304,309,310,304,1
305,309,310,306,1
304,308,309,305,1
302,309,307,303,1
300,311,306,302,1
299,315,305,300,1
299,319,305,299,1
299,321,304,295,1
300,322,303,290,1
301,320,302,284,1
302,317,300,277,1
302,314,298,271,1
302,312,295,267,1
303,308,295,265,1
304,303,296,267,1
305,301,298,277,1
308,303,302,292,1
312,306,306,308,1
315,308,310,320,1
315,307,313,326,1
313,306,315,329,1
309,304,316,328,1
305,303,316,326,1
302,303,316,324,1
300,303,315,323,1
299,304,314,321,1
299,304,312,318,1
300,305,311,315,1
301,306,310,313,1
302,307,308,312,1
303,308,307,310,1
303,309,305,308,1
303,309,304,306,1
304,309,304,305,1
305,309,304,303,1
307,308,305,302,1
309,308,307,300,1
311,307,308,299,1
312,307,309,297,1
311,307,309,298,1
311,307,309,299,1
311,308,309,302,1
310,309,310,305,1
308,309,310,307,1
306,310,311,309,1
305,310,311,309,1
303,311,311,308,1
302,315,311,308,1
301,319,311,308,1
301,325,311,309,1
302,329,310,310,1
303,333,310,310,1
304,336,309,309,1
305,336,307,308,1
305,335,306,304,1
306,332,304,301,1
305,329,302,298,1
305,325,300,298,1
305,322,300,300,1
306,316,301,302,1
307,310,302,303,1
307,305,304,302,1
306,302,305,301,1
305,301,307,300,1
303,301,307,299,1
302,303,308,298,1
303,305,309,298,1
303,305,310,297,1
303,305,309,297,1
302,303,308,297,1
302,300,307,298,1
301,296,306,297,1
300,291,306,297,1
300,288,307,298,1
301,288,308,301,1
302,288,309,303,1
303,289,309,305,1
304,291,308,306,1
304,292,307,305,1
304,294,305,304,1
303,296,303,303,1
302,297,303,302,1
301,299,303,303,1
302,302,305,306,1
303,307,307,311,1
305,310,309,315,1
306,311,309,318,1
306,309,308,319,1
306,306,306,319,1
306,304,305,318,1
307,302,304,316,1
306,300,302,312,1
305,299,301,308,1
303,300,300,305,1
302,302,299,301,1
301,303,299,298,1
300,305,298,296,1
299,307,297,294,1
299,309,296,294,1
299,310,295,295,1
299,313,295,298,1
301,315,295,303,1
304,318,296,308,1
307,321,296,311,1
309,323,297,311,1
311,324,298,309,1
312,324,300,307,1
310,325,301,305,1
308,323,302,304,1
305,318,303,302,1
303,310,304,300,1
301,303,304,299,1
300,297,305,302,1
299,295,305,306,1
298,295,306,311,1
298,295,306,314,1
298,296,306,317,1
298,298,306,319,1
299,300,305,319,1
300,303,303,317,1
301,307,300,314,1
303,313,298,312,1
306,319,296,310,1
309,326,297,311,1
313,333,300,313,1
315,336,305,314,1
316,334,308,314,1
314,327,311,314,1
310,318,311,315,1
306,307,312,315,1
304,299,311,315,1
303,292,310,315,1
303,289,308,315,1
303,287,305,316,1
304,288,303,314,1
304,289,301,311,1
304,290,301,308,1
303,291,301,306,1
303,292,302,304,1
303,294,304,304,1
305,296,305,304,1
307,298,306,304,1
309,300,306,304,1
311,301,307,305,1
311,302,307,307,1
311,303,308,309,1
310,306,308,311,1
309,310,307,311,1
307,315,305,311,1
307,320,303,311,1
306,326,302,311,1
305,331,301,311,1
305,334,299,310,1
304,336,297,309,1
304,335,296,307,1
304,330,296,306,1
305,321,297,305,1
306,312,298,304,1
305,302,299,304,1
304,292,299,304,1
303,282,298,304,1
301,275,297,304,1
299,272,297,303,1
298,271,296,302,1
298,273,295,301,1
299,275,296,302,1
300,278,297,303,1
301,281,300,304,1
302,285,301,306,1
304,289,303,310,1
306,294,303,313,1
307,298,303,315,1
309,301,303,317,1
309,303,303,316,1
310,304,305,315,1
310,302,305,312,1
309,301,304,308,1
309,301,303,304,1
308,303,301,301,1
307,304,299,299,1
306,304,297,297,1
305,304,298,298,1
304,305,300,299,1
303,304,303,300,1
304,303,305,301,1
306,303,307,301,1
308,305,308,301,1
311,309,309,301,1
313,315,309,302,1
315,321,310,305,1
315,327,310,311,1
313,329,310,317,1
311,327,310,322,1
309,320,310,327,1
309,312,309,330,1
310,305,308,332,1
310,300,307,334,1
311,296,307,334,1
312,292,306,333,1
311,289,305,330,1
309,288,303,325,1
308,288,302,320,1
307,289,301,315,1
305,291,301,309,1
304,292,302,304,1
302,293,303,301,1
300,293,304,300,1
298,294,303,300,1
297,296,302,302,1
296,299,302,305,1
296,303,303,308,1
296,308,303,311,1
295,313,303,313,1
296,318,304,315,1
297,323,305,316,1
298,327,308,318,1
301,328,311,319,1
303,325,313,320,1
304,318,314,320,1
304,311,313,320,1
304,304,312,319,1
304,299,311,319,1
304,296,310,318,1
304,293,309,317,1
305,291,307,316,1
304,289,306,313,1
303,288,304,311,1
303,289,303,310,1
303,291,303,309,1
303,294,303,310,1
303,299,304,310,1
304,303,306,310,1
304,307,308,310,1
305,310,311,310,1
305,311,312,308,1
305,309,313,306,1
305,306,312,304,1
305,303,311,303,1
305,302,310,303,1
306,302,309,303,1
305,301,308,305,1
303,300,307,306,1
301,298,306,307,1
299,297,305,308,1
297,297,305,308,1
297,297,304,308,1
296,298,304,308,1
297,300,305,308,1
299,302,306,308,1
300,306,307,309,1
302,310,308,310,1
303,312,309,309,1
303,312,308,308,1
303,312,307,307,1
303,311,307,309,1
304,310,307,311,1
305,311,309,313,1
306,311,310,315,1
307,311,311,317,1
307,310,311,319,1
307,310,310,321,1
306,310,307,321,1
304,310,303,319,1
302,309,299,315,1
300,308,295,311,1
298,308,293,306,1
297,309,292,303,1
297,311,294,303,1
299,314,297,304,1
301,317,301,307,1
302,320,302,310,1
303,322,303,315,1
304,325,305,318,1
305,328,308,321,1
306,332,309,321,1
306,335,310,319,1
306,336,309,317,1
306,335,310,317,1
307,331,310,319,1
308,324,310,322,1
309,315,309,325,1
310,305,308,327,1
310,298,307,328,1
310,295,306,328,1
309,296,306,326,1
307,298,305,324,1
306,302,304,322,1
305,306,303,321,1
304,309,303,319,1
303,310,304,318,1
302,310,304,317,1
301,307,303,316,1
300,302,303,315,1
299,297,303,314,1
300,294,304,314,1
302,294,305,313,1
304,296,306,313,1
306,300,308,313,1
307,304,309,314,1
306,307,310,315,1
304,306,310,317,1
304,305,310,318,1
304,305,310,320,1
305,305,309,320,1
305,306,309,320,1
304,308,308,318,1
303,309,307,315,1
301,311,305,312,1
299,311,303,307,1
297,311,302,301,1
295,309,300,296,1
293,307,300,293,1
293,306,300,293,1
293,303,301,294,1
293,301,301,296,1
295,298,301,298,1
298,296,301,301,1
301,296,302,303,1
303,296,303,305,1
305,298,305,310,1
306,303,309,318,1
307,309,311,325,1
308,315,314,330,1
307,320,315,333,1
307,325,316,335,1
307,328,317,335,1
307,328,316,334,1
307,325,314,332,1
308,321,313,330,1
308,315,312,329,1
308,309,312,328,1
307,306,311,327,1
306,309,311,325,1
305,316,311,325,1
304,322,310,324,1
303,326,310,325,1
302,326,310,327,1
302,324,311,329,1
301,317,311,330,1
300,310,311,329,1
299,303,311,328,1
298,296,310,326,1
298,291,309,325,1
298,288,307,323,1
297,287,305,321,1
297,287,302,319,1
296,288,298,318,1
295,292,296,318,1
295,296,296,318,1
296,302,298,317,1
299,307,301,317,1
301,314,305,317,1
302,321,308,317,1
303,328,311,318,1
303,331,313,319,1
303,330,314,319,1
303,325,314,318,1
303,315,312,316,1
303,304,311,314,1
303,293,310,314,1
304,287,310,315,1
304,283,309,317,1
304,282,308,317,1
303,281,306,317,1
301,281,304,316,1
300,282,302,314,1
300,284,300,313,1
300,286,300,313,1
301,289,298,313,1
301,291,296,312,1
299,294,293,310,1
297,296,291,309,1
297,298,290,309,1
298,300,289,309,1
300,302,288,310,1
303,304,290,312,1
306,306,293,313,1
309,306,296,315,1
308,306,298,315,1
306,304,300,317,1
302,303,303,318,1
300,301,304,319,1
300,300,305,319,1
301,299,305,318,1
302,299,305,317,1
304,300,304,317,1
304,301,303,317,1
304,302,303,315,1
303,304,302,314,1
302,306,302,312,1
301,309,302,312,1
301,311,302,311,1
301,313,301,311,1
300,314,299,311,1
299,315,299,311,1
299,318,299,313,1
300,322,300,314,1
302,325,300,315,1
304,326,300,312,1
304,322,300,308,1
303,315,301,303,1
302,304,300,297,1
299,294,299,292,1
297,287,297,290,1
298,285,297,292,1
300,287,298,297,1
302,290,299,303,1
303,295,301,311,1
305,299,303,318,1
305,302,304,322,1
304,302,303,324,1
303,301,302,323,1
302,301,302,321,1
302,300,301,319,1
303,301,302,317,1
306,304,305,317,1
309,306,307,316,1
311,308,308,312,1
312,308,308,309,1
314,309,307,306,1
314,314,305,303,1
313,321,303,301,1
310,329,301,300,1
306,335,299,302,1
304,342,298,307,1
303,344,299,313,1
303,339,300,317,1
303,327,302,318,1
304,312,303,317,1
304,301,303,317,1
306,295,303,316,1
307,294,303,317,1
307,296,304,318,1
307,298,304,319,1
305,299,303,320,1
303,301,302,322,1
302,304,302,322,1
301,308,301,321,1
301,313,301,319,1
301,318,301,318,1
302,320,301,317,1
303,319,301,317,1
303,315,302,318,1
305,310,303,320,1
306,304,302,320,1
307,299,301,320,1
308,296,299,319,1
308,294,298,319,1
308,293,298,318,1
308,292,298,318,1
308,292,298,317,1
308,293,298,317,1
310,293,297,315,1
312,293,296,312,1
314,293,295,309,1
315,294,292,307,1
315,295,290,305,1
315,298,290,304,1
314,302,292,303,1
311,305,294,303,1
308,309,296,304,1
305,311,297,305,1
303,311,298,306,1
301,309,298,307,1
299,304,298,308,1
297,299,298,309,1
296,295,301,310,1
295,293,303,312,1
294,293,305,314,1
295,294,306,314,1
295,295,307,314,1
296,296,306,312,1
297,296,305,310,1
298,296,303,306,1
298,295,300,302,1
299,295,297,299,1
300,296,295,298,1
302,298,294,300,1
304,302,295,304,1
307,307,296,309,1
310,311,298,314,1
311,312,299,318,1
312,312,299,320,1
311,310,299,321,1
310,308,299,321,1
309,305,300,321,1
308,304,300,320,1
307,305,300,319,1
307,307,300,318,1
307,308,299,315,1
307,309,298,313,1
309,310,297,311,1
310,312,296,310,1
311,314,295,310,1
311,316,295,310,1
311,317,296,312,1
311,318,297,314,1
311,319,299,315,1
310,320,301,315,1
308,320,302,314,1
306,319,303,313,1
304,317,303,313,1
302,316,302,314,1
301,314,301,315,1
302,315,301,316,1
302,315,300,317,1
303,314,299,315,1
303,312,298,313,1
304,310,297,312,1
303,309,295,310,1
302,311,293,310,1
300,316,293,311,1
299,320,293,312,1
298,322,293,313,1
299,323,293,314,1
300,321,294,314,1
301,315,294,313,1
302,305,293,312,1
302,296,293,310,1
302,290,292,309,1
302,288,292,309,1
303,288,292,309,1
303,289,293,310,1
304,291,293,311,1
305,293,293,311,1
305,295,294,309,1
306,297,294,305,1
305,297,294,301,1
303,296,293,297,1
301,295,293,295,1
300,295,293,297,1
302,296,295,304,1
304,300,297,311,1
307,304,299,319,1
309,308,300,324,1
311,312,303,327,1
311,316,305,329,1
309,318,306,329,1
307,320,306,328,1
306,321,305,326,1
306,320,304,322,1
305,318,303,319,1
307,316,302,316,1
309,313,301,312,1
311,307,299,307,1
311,302,298,301,1
311,299,296,296,1
310,298,296,294,1
309,297,297,293,1
307,297,299,294,1
304,298,300,297,1
303,299,300,303,1
302,301,302,309,1
303,303,304,315,1
304,303,308,318,1
306,304,311,319,1
306,305,313,319,1
308,306,312,320,1
310,308,312,322,1
313,312,312,323,1
316,314,311,323,1
319,315,309,323,1
320,316,308,323,1
321,316,308,323,1
321,316,308,323,1
319,315,308,322,1
315,313,306,320,1
308,310,304,317,1
302,307,302,315,1
299,305,301,314,1
298,305,301,313,1
298,306,302,313,1
300,307,303,312,1
302,308,303,310,1
303,308,303,310,1
304,308,302,311,1
305,308,303,313,1
307,308,303,315,1
309,306,304,316,1
309,303,303,315,1
309,300,303,313,1
309,295,301,310,1
308,292,298,304,1
307,288,296,296,1
305,287,294,290,1
303,288,293,288,1
303,294,295,291,1
304,300,298,297,1
306,306,302,303,1
307,310,304,308,1
308,314,306,311,1
309,316,307,313,1
309,318,307,317,1
309,318,306,319,1
307,318,305,320,1
306,317,303,319,1
304,317,300,318,1
302,319,299,318,1
302,324,299,320,1
303,329,300,321,1
305,331,302,322,1
308,332,302,321,1
311,330,302,320,1
314,325,303,316,1
316,316,303,313,1
317,305,303,308,1
316,296,303,305,1
314,291,303,304,1
312,289,305,306,1
308,289,307,308,1
305,289,309,311,1
303,290,311,313,1
303,291,312,315,1
304,291,312,317,1
306,292,310,317,1
308,295,308,316,1
309,300,306,313,1
311,305,304,311,1
312,310,304,309,1
312,313,304,309,1
311,315,304,310,1
308,314,303,313,1
305,312,302,316,1
302,309,301,319,1
300,306,300,320,1
300,303,299,320,1
300,300,299,318,1
300,298,299,316,1
300,298,298,313,1
301,299,298,310,1
303,301,299,309,1
305,304,301,309,1
306,306,303,310,1
307,310,307,313,1
309,312,310,316,1
312,313,313,318,1
317,314,314,319,1
321,314,315,320,1
326,314,315,321,1
329,315,315,322,1
330,317,314,324,1
330,318,313,325,1
326,320,313,323,1
320,320,312,322,1
313,320,311,321,1
308,320,311,321,1
305,320,311,320,1
305,320,310,318,1
305,319,309,317,1
306,319,307,316,1
305,318,305,315,1
304,316,303,313,1
303,315,301,310,1
303,315,302,309,1
304,317,304,309,1
305,319,307,310,1
304,318,309,311,1
303,317,309,311,1
302,321,308,311,1
302,329,308,311,1
301,341,307,310,1
301,354,305,309,1
301,363,303,308,1
300,365,301,306,1
300,355,299,304,1
300,336,298,304,1
300,317,299,304,1
301,300,302,307,1
303,288,304,310,1
305,279,305,312,1
306,272,305,313,1
306,269,306,312,1
308,267,308,312,1
309,268,311,313,1
310,271,312,315,1
310,275,313,319,1
310,279,313,323,1
309,283,313,326,1
308,286,312,329,1
308,289,312,330,1
308,291,311,330,1
307,294,310,329,1
307,296,308,328,1
307,298,306,326,1
307,299,304,324,1
307,300,302,321,1
306,302,301,316,1
306,303,301,311,1
306,305,301,306,1
305,306,302,303,1
305,307,304,302,1
305,307,307,303,1
305,308,309,306,1
305,307,310,310,1
305,305,310,314,1
305,304,311,318,1
306,305,311,323,1
308,310,312,329,1
309,314,313,332,1
309,316,312,333,1
309,315,310,332,1
307,313,308,331,1
306,313,305,330,1
306,313,303,330,1
307,315,302,330,1
309,319,301,330,1
311,322,303,331,1
313,323,303,330,1
314,322,304,328,1
313,319,304,327,1
312,315,305,327,1
312,312,305,324,1
311,309,305,322,1
310,306,304,319,1
310,305,304,317,1
309,302,306,316,1
309,299,308,315,1
307,296,309,315,1
306,294,308,313,1
304,292,308,308,1
304,293,307,304,1
304,295,306,302,1
305,299,305,305,1
307,304,305,310,1
308,310,305,316,1
309,317,305,320,1
309,321,305,323,1
308,324,305,324,1
306,323,304,324,1
303,321,303,323,1
301,319,303,321,1
300,316,303,320,1
300,313,303,322,1
300,308,303,324,1
301,303,302,326,1
301,297,302,327,1
301,293,302,326,1
301,290,302,325,1
302,289,303,325,1
304,291,305,325,1
307,293,308,326,1
308,297,309,326,1
308,300,308,325,1
308,303,306,323,1
307,306,303,320,1
306,311,299,317,1
305,316,295,315,1
305,320,293,314,1
305,323,292,312,1
306,323,293,310,1
307,319,295,308,1
308,311,298,307,1
308,303,301,307,1
307,297,304,308,1
308,295,307,309,1
309,295,308,312,1
312,298,310,314,1
315,300,311,316,1
317,303,311,318,1
319,304,309,318,1
319,303,307,317,1
316,301,304,314,1
312,297,301,311,1
308,292,299,308,1
304,289,298,306,1
302,288,297,308,1
302,289,298,313,1
302,292,299,318,1
301,295,300,322,1
301,297,301,324,1
302,300,302,324,1
303,303,304,325,1
305,306,305,326,1
306,308,306,326,1
307,308,306,326,1
307,308,306,325,1
307,309,306,324,1
307,310,305,323,1
308,311,305,320,1
310,312,304,318,1
313,313,305,315,1
315,314,305,313,1
316,314,305,312,1
317,313,305,310,1
317,313,304,310,1
316,312,304,310,1
314,312,303,312,1
312,313,303,315,1
311,314,303,316,1
309,314,302,317,1
308,312,301,317,1
308,310,301,318,1
309,309,300,321,1
309,309,300,323,1
309,307,300,324,1
308,305,300,323,1
308,305,300,321,1
306,305,298,317,1
302,304,296,312,1
300,304,296,307,1
300,303,297,302,1
302,302,299,297,1
304,304,301,296,1
307,308,303,299,1
308,314,304,305,1
308,320,306,312,1
306,323,308,318,1
304,326,308,322,1
302,325,308,326,1
301,324,307,327,1
302,321,305,326,1
302,317,304,325,1
303,310,304,324,1
304,303,304,323,1
306,298,304,322,1
308,295,303,321,1
308,291,301,320,1
307,289,299,317,1
305,287,295,315,1
302,287,292,314,1
300,288,289,314,1
298,290,287,314,1
297,292,286,314,1
297,294,288,314,1
297,295,291,315,1
298,296,294,316,1
300,297,297,318,1
303,298,300,319,1
306,300,304,321,1
309,302,306,322,1
311,303,307,323,1
312,303,307,321,1
312,302,306,318,1
311,301,305,316,1
311,302,304,315,1
310,304,304,313,1
310,306,305,311,1
310,308,305,309,1
310,310,305,309,1
309,313,306,310,1
308,315,307,312,1
308,316,308,313,1
308,315,309,313,1
307,312,309,314,1
307,310,308,315,1
308,308,308,318,1
309,307,308,322,1
310,307,309,327,1
311,309,309,331,1
312,309,309,332,1
312,307,307,330,1
310,304,306,328,1
307,303,306,325,1
306,304,307,323,1
305,308,306,320,1
304,312,305,316,1
304,317,305,313,1
305,322,305,310,1
307,325,306,309,1
309,326,306,307,1
310,325,306,304,1
310,320,304,301,1
310,316,303,298,1
309,314,304,297,1
309,312,304,298,1
309,311,304,300,1
310,309,305,307,1
311,307,306,314,1
311,304,306,318,1
310,299,305,319,1
309,293,303,317,1
307,289,299,313,1
305,288,295,310,1
303,288,291,307,1
301,290,291,308,1
301,293,294,311,1
301,297,298,315,1
303,301,303,318,1
304,307,307,321,1
306,314,310,322,1
309,321,312,322,1
311,326,312,321,1
313,326,311,320,1
313,321,310,318,1
312,312,308,316,1
311,304,308,313,1
309,297,308,311,1
306,292,308,309,1
303,290,307,308,1
301,290,307,309,1
301,293,308,310,1
302,295,307,311,1
302,296,307,312,1
302,296,307,313,1
302,297,307,314,1
301,297,307,313,1
300,297,306,311,1
299,297,305,308,1
298,297,303,308,1
298,297,302,307,1
298,296,301,307,1
298,296,301,307,1
298,297,301,307,1
299,297,302,307,1
299,297,304,308,1
300,297,306,309,1
302,297,308,310,1
305,297,310,312,1
308,298,311,314,1
309,299,312,317,1
309,300,313,319,1
308,301,314,321,1
309,301,315,322,1
309,301,316,322,1
310,302,317,321,1
311,304,317,321,1
312,306,317,321,1
313,308,315,322,1
313,312,313,321,1
312,315,310,321,1
312,319,309,319,1
311,320,306,316,1
310,319,304,314,1
310,317,302,310,1
309,316,302,309,1
310,315,304,308,1
310,315,305,309,1
310,314,306,309,1
309,314,306,311,1
308,314,307,313,1
307,317,307,314,1
306,321,307,315,1
305,323,307,315,1
305,324,307,316,1
305,324,308,319,1
307,322,309,322,1
308,315,309,325,1
310,305,311,326,1
311,296,311,326,1
311,288,310,324,1
311,283,308,320,1
311,280,305,316,1
311,279,303,312,1
310,281,302,308,1
309,283,302,307,1
307,286,301,305,1
307,288,301,304,1
307,290,299,304,1
306,291,299,303,1
304,293,299,303,1
302,296,301,302,1
302,300,303,302,1
302,306,304,303,1
302,311,304,305,1
303,314,303,306,1
304,316,303,308,1
306,316,304,311,1
309,313,305,314,1
311,309,305,318,1
312,305,305,319,1
311,302,304,319,1
311,298,304,316,1
310,296,305,315,1
310,296,305,314,1
311,296,306,314,1
315,298,308,314,1
318,302,308,314,1
321,304,308,314,1
323,306,307,312,1
323,307,304,310,1
322,308,302,307,1
320,309,302,307,1
315,308,303,309,1
311,308,305,312,1
308,307,309,315,1
306,307,312,317,1
305,308,313,319,1
305,308,313,320,1
305,308,313,321,1
307,309,313,321,1
308,310,312,321,1
308,309,311,320,1
306,306,309,316,1
304,303,309,313,1
302,301,309,310,1
300,300,309,308,1
299,299,311,307,1
299,301,312,305,1
299,302,313,305,1
300,306,314,305,1
301,310,315,308,1
302,315,315,311,1
303,318,315,313,1
304,320,315,314,1
303,321,314,313,1
302,321,312,312,1
301,321,310,312,1
302,318,310,312,1
302,314,310,313,1
303,309,310,314,1
304,304,310,315,1
304,300,309,315,1
304,298,309,314,1
304,297,308,312,1
304,296,307,310,1
303,298,306,308,1
302,301,306,308,1
302,308,306,308,1
302,316,306,308,1
302,324,306,307,1
302,331,307,306,1
303,334,307,307,1
303,331,306,307,1
305,326,305,307,1
306,317,304,308,1
306,306,303,310,1
307,298,304,312,1
307,292,305,314,1
307,289,307,316,1
306,287,309,315,1
304,287,309,311,1
302,288,308,307,1
302,290,308,302,1
301,291,307,296,1
301,292,306,293,1
301,294,305,290,1
300,295,305,290,1
300,296,306,293,1
301,296,307,296,1
302,296,308,300,1
302,295,310,302,1
303,296,310,304,1
304,300,309,306,1
305,303,308,306,1
305,306,307,304,1
305,307,305,301,1
305,308,304,299,1
304,309,303,298,1
304,308,303,298,1
304,307,305,300,1
305,306,306,302,1
306,306,308,305,1
308,306,308,308,1
310,307,309,309,1
313,308,309,310,1
315,308,309,310,1
316,309,309,310,1
314,308,309,311,1
311,308,309,311,1
307,308,309,310,1
304,308,309,308,1
302,308,307,306,1
301,308,305,304,1
300,306,301,300,1
298,304,298,297,1
296,303,297,296,1
297,302,298,297,1
298,301,300,298,1
299,298,302,298,1
301,297,304,299,1
302,296,306,301,1
304,298,309,304,1
305,301,312,308,1
307,305,314,313,1
307,308,316,318,1
307,310,317,321,1
307,312,315,323,1
306,312,313,323,1
305,310,311,322,1
303,309,309,321,1
302,308,309,319,1
301,308,310,317,1
301,308,310,315,1
302,307,310,313,1
301,307,309,312,1
301,306,309,311,1
302,307,309,311,1
303,309,310,310,1
305,312,310,310,1
308,315,310,309,1
309,317,310,308,1
310,319,310,307,1
310,320,310,306,1
309,319,311,304,1
308,318,312,303,1
307,319,314,303,1
306,320,315,302,1
305,322,314,301,1
304,324,314,301,1
304,325,314,302,1
304,323,314,303,1
303,317,314,303,1
302,307,313,302,1
301,297,312,301,1
302,290,312,302,1
303,287,313,305,1
305,287,313,307,1
307,288,313,309,1
309,292,313,311,1
310,297,313,312,1
310,301,313,313,1
308,305,312,312,1
306,307,311,311,1
304,307,310,310,1
303,304,308,309,1
301,301,308,309,1
301,301,307,311,1
302,303,307,313,1
304,307,308,314,1
306,311,310,314,1
307,314,312,313,1
307,317,313,313,1
307,319,313,312,1
305,318,313,311,1
304,316,313,310,1
302,312,313,308,1
300,308,312,306,1
299,304,310,304,1
299,301,309,303,1
300,297,308,302,1
301,293,306,301,1
302,290,305,301,1
302,287,305,301,1
302,285,305,302,1
300,284,304,303,1
296,284,303,304,1
293,285,301,305,1
292,289,301,306,1
293,292,303,306,1
295,295,306,305,1
297,297,309,302,1
299,299,312,301,1
300,299,315,301,1
301,299,316,301,1
302,298,317,301,1
302,298,317,304,1
303,300,318,308,1
305,302,320,311,1
306,303,320,314,1
306,304,319,315,1
306,306,317,316,1
304,311,314,316,1
303,318,312,316,1
303,325,312,315,1
303,332,312,313,1
304,338,313,311,1
305,341,314,310,1
306,338,315,310,1
305,329,315,309,1
304,318,314,308,1
303,306,313,307,1
303,296,312,306,1
303,290,311,307,1
304,288,310,308,1
306,289,309,307,1
307,290,308,305,1
307,292,308,303,1
309,295,308,304,1
309,298,307,305,1
309,300,306,306,1
308,299,305,308,1
307,299,306,309,1
306,298,307,311,1
306,298,308,311,1
305,298,308,310,1
305,298,308,310,1
306,300,309,310,1
307,302,310,309,1
307,302,311,308,1
307,303,312,307,1
307,303,313,306,1
306,303,314,305,1
306,303,314,304,1
306,303,314,304,1
305,303,315,303,1
304,304,316,303,1
304,306,317,303,1
305,307,317,303,1
306,307,317,303,1
306,305,317,302,1
305,304,315,301,1
305,304,315,301,1
305,303,315,302,1
306,304,315,304,1
308,303,316,306,1
309,303,315,307,1
309,303,314,308,1
309,304,313,310,1
308,306,312,311,1
307,307,312,311,1
307,308,311,311,1
307,309,310,310,1
306,310,309,309,1
306,310,308,307,1
307,310,306,306,1
308,312,306,305,1
310,315,305,306,1
311,319,303,307,1
310,321,300,306,1
309,322,298,305,1
308,322,298,305,1
308,323,300,306,1
307,322,304,307,1
306,320,307,307,1
305,317,310,309,1
304,312,312,311,1
304,308,315,315,1
305,305,318,316,1
305,302,320,317,1
306,300,320,317,1
306,297,320,318,1
306,294,319,317,1
305,292,318,316,1
305,292,317,316,1
306,292,315,315,1
307,293,314,314,1
307,294,313,313,1
308,297,312,312,1
309,300,311,312,1
310,304,311,311,1
311,305,311,311,1
311,306,313,311,1
312,308,313,313,1
311,310,314,313,1
310,312,313,313,1
308,314,311,313,1
306,314,310,311,1
305,311,308,307,1
303,308,306,302,1
302,306,304,298,1
302,308,302,295,1
303,313,300,293,1
304,321,298,291,1
306,327,298,293,1
309,332,300,297,1
313,332,302,302,1
317,328,304,308,1
319,319,306,311,1
320,308,308,312,1
320,300,312,310,1
319,294,314,307,1
317,293,316,305,1
315,295,316,304,1
313,299,316,303,1
312,302,315,303,1
312,305,315,303,1
313,305,316,305,1
315,303,318,307,1
316,301,318,308,1
316,300,317,309,1
317,301,315,309,1
317,302,315,310,1
317,303,315,310,1
316,304,315,309,1
314,305,314,307,1
311,306,313,306,1
310,307,313,305,1
309,309,314,305,1
310,311,315,306,1
310,312,316,306,1
310,313,317,305,1
310,313,316,303,1
309,311,315,303,1
309,309,313,304,1
308,306,312,306,1
306,303,311,307,1
304,301,311,309,1
303,300,312,311,1
302,300,315,313,1
303,300,317,313,1
303,301,316,312,1
303,302,314,311,1
303,302,312,309,1
303,303,311,307,1
304,305,312,308,1
305,307,314,310,1
307,309,316,313,1
309,310,318,315,1
310,310,318,316,1
310,311,318,316,1
309,312,316,315,1
307,313,314,313,1
305,313,311,310,1
304,314,310,308,1
303,314,309,306,1
301,313,308,305,1
300,311,306,305,1
299,309,304,306,1
298,305,300,305,1
297,302,297,303,1
296,300,296,302,1
296,298,297,301,1
297,297,301,303,1
299,298,307,307,1
303,300,313,312,1
306,303,319,315,1
310,305,322,316,1
312,308,324,316,1
313,312,324,314,1
313,314,323,312,1
313,316,322,311,1
313,317,320,312,1
313,316,319,313,1
313,313,318,313,1
311,309,315,312,1
309,305,313,311,1
308,302,311,310,1
306,300,309,309,1
306,300,309,308,1
307,300,309,308,1
308,302,310,308,1
310,305,312,309,1
310,309,314,309,1
310,313,316,311,1
309,317,317,312,1
309,320,317,312,1
308,320,316,312,1
307,320,313,310,1
307,320,311,309,1
306,322,308,308,1
306,323,306,307,1
307,323,305,307,1
308,322,305,306,1
308,320,305,304,1
306,314,304,301,1
304,306,302,298,1
301,298,301,295,1
299,292,300,294,1
298,291,301,295,1
298,292,303,298,1
299,294,304,301,1
300,296,305,303,1
301,297,305,303,1
301,299,305,304,1
301,300,307,306,1
302,301,308,307,1
304,300,311,309,1
308,300,313,310,1
310,299,314,312,1
312,300,315,313,1
313,300,315,314,1
312,302,314,315,1
310,305,314,316,1
309,308,314,318,1
307,312,315,318,1
306,313,315,318,1
306,314,314,318,1
305,314,314,318,1
304,314,313,317,1
303,315,312,316,1
305,317,312,314,1
307,319,312,314,1
310,318,312,314,1
311,317,312,313,1
311,313,311,311,1
310,309,310,308,1
308,306,309,306,1
307,305,310,305,1
305,304,310,305,1
304,302,310,304,1
304,300,309,303,1
302,299,307,303,1
302,299,305,302,1
300,299,304,303,1
298,300,302,303,1
296,300,300,302,1
296,297,297,300,1
296,293,295,298,1
298,289,296,296,1
300,288,299,294,1
302,289,302,293,1
304,292,304,292,1
305,296,305,290,1
305,299,304,289,1
304,301,303,289,1
302,303,302,289,1
301,303,301,290,1
301,302,302,290,1
302,299,304,291,1
303,298,307,293,1
304,298,310,297,1
305,298,313,302,1
306,299,315,306,1
307,300,316,310,1
309,302,318,314,1
311,304,319,318,1
312,306,319,321,1
312,309,319,323,1
312,312,318,324,1
312,314,317,324,1
311,314,317,322,1
310,314,317,321,1
310,313,316,320,1
309,309,315,319,1
306,305,312,317,1
304,302,309,316,1
303,300,306,315,1
302,301,305,315,1
302,303,304,315,1
302,304,304,314,1
302,307,305,313,1
303,312,307,311,1
305,319,309,309,1
306,327,310,308,1
307,334,311,306,1
307,338,311,305,1
306,339,311,304,1
305,336,310,305,1
305,329,308,304,1
303,319,308,305,1
301,310,309,305,1
300,304,311,308,1
300,301,313,311,1
302,301,315,315,1
303,302,316,318,1
304,302,316,320,1
304,301,315,320,1
303,299,313,318,1
302,297,311,316,1
301,296,309,315,1
300,299,308,315,1
300,302,310,317,1
299,306,312,319,1
300,308,313,319,1
300,309,314,319,1
301,310,315,318,1
302,310,317,317,1
303,309,317,317,1
304,309,317,316,1
304,307,317,314,1
303,306,317,312,1
303,307,318,310,1
303,308,318,310,1
303,311,318,310,1
305,314,318,311,1
306,316,316,313,1
308,318,315,315,1
309,318,314,315,1
308,316,311,311,1
307,313,309,306,1
306,311,306,302,1
305,311,305,299,1
304,313,305,299,1
304,315,305,302,1
304,316,306,306,1
305,315,306,311,1
306,310,307,315,1
307,303,307,316,1
306,296,305,316,1
305,290,304,316,1
304,288,304,316,1
304,287,306,317,1
305,288,309,317,1
305,290,311,318,1
304,291,314,317,1
305,292,316,317,1
304,293,317,315,1
304,294,317,313,1
304,294,317,310,1
304,295,316,308,1
305,297,316,306,1
307,298,314,304,1
309,299,312,302,1
311,299,309,301,1
312,299,307,302,1
313,301,307,307,1
314,304,309,312,1
315,307,312,317,1
314,308,314,320,1
312,307,315,322,1
310,305,315,323,1
308,305,314,324,1
306,306,314,324,1
305,306,313,322,1
303,305,312,320,1
303,305,311,317,1
303,306,309,315,1
303,308,307,313,1
304,312,305,312,1
305,316,304,311,1
305,321,304,310,1
306,326,305,309,1
306,332,306,310,1
308,338,308,311,1
310,341,310,311,1
310,338,311,310,1
309,330,310,308,1
306,319,308,307,1
304,311,307,309,1
303,307,308,312,1
303,305,309,315,1
303,304,309,318,1
303,303,308,319,1
303,300,307,320,1
303,297,307,320,1
304,295,308,320,1
305,295,309,320,1
306,296,310,320,1
306,297,310,320,1
305,298,310,320,1
305,299,310,319,1
304,300,309,316,1
304,303,309,313,1
305,308,309,311,1
307,315,311,309,1
308,321,311,308,1
308,324,311,308,1
307,325,310,307,1
306,322,309,305,1
305,316,308,302,1
305,307,306,299,1
305,298,304,295,1
305,291,300,292,1
303,286,299,289,1
302,285,298,288,1
302,288,298,290,1
302,293,299,295,1
303,298,299,300,1
304,302,300,306,1
304,306,303,311,1
303,309,305,316,1
303,310,308,320,1
302,309,310,323,1
301,307,312,325,1
301,305,312,325,1
300,305,312,325,1
300,304,312,324,1
301,303,313,324,1
302,302,313,324,1
303,300,314,324,1
304,299,313,324,1
305,299,311,324,1
305,299,310,322,1
305,300,308,321,1
305,301,308,320,1
306,302,309,319,1
307,304,311,318,1
309,306,311,317,1
310,308,312,316,1
310,309,311,315,1
311,309,310,313,1
310,308,309,310,1
310,307,307,307,1
309,307,306,304,1
308,307,306,302,1
309,307,304,300,1
310,307,301,298,1
311,309,298,297,1
312,314,293,297,1
313,322,289,298,1
313,330,286,300,1
312,334,283,302,1
308,334,283,304,1
304,331,287,307,1
303,325,294,308,1
303,315,301,309,1
302,303,307,309,1
300,294,312,311,1
300,289,316,314,1
300,288,319,316,1
303,289,320,318,1
305,292,320,319,1
308,295,320,318,1
309,298,318,318,1
310,302,316,316,1
312,307,315,314,1
313,311,314,311,1
313,314,313,308,1
314,316,311,307,1
315,315,310,308,1
315,313,310,310,1
315,311,311,313,1
314,310,310,316,1
314,308,310,317,1
314,307,310,317,1
314,306,311,317,1
315,306,311,317,1
314,307,312,315,1
314,307,312,314,1
314,307,312,314,1
314,309,313,313,1
314,310,313,312,1
316,311,315,311,1
316,311,317,310,1
316,311,318,309,1
314,311,316,307,1
312,310,312,304,1
311,309,306,302,1
310,309,300,302,1
310,309,298,302,1
309,309,298,304,1
310,310,300,306,1
311,312,302,308,1
312,313,304,309,1
312,315,305,307,1
311,317,305,306,1
310,320,305,305,1
310,323,306,305,1
310,327,309,305,1
310,327,309,304,1
308,325,309,302,1
308,321,309,302,1
307,318,309,302,1
308,316,310,303,1
309,315,311,306,1
311,312,312,307,1
313,308,314,309,1
315,306,315,310,1
317,305,316,312,1
319,306,318,313,1
319,307,318,312,1
317,308,319,311,1
313,308,319,310,1
309,308,319,310,1
307,308,319,309,1
306,308,319,310,1
305,309,318,310,1
306,309,317,312,1
307,308,315,312,1
307,306,313,312,1
306,305,310,311,1
305,305,308,311,1
304,304,307,309,1
304,304,308,307,1
304,304,308,304,1
305,304,309,301,1
305,304,310,299,1
305,303,310,297,1
305,303,310,297,1
306,303,309,298,1
307,303,307,300,1
308,304,306,301,1
308,304,305,303,1
307,306,305,305,1
307,307,305,307,1
306,309,305,309,1
305,311,304,309,1
304,312,303,309,1
303,314,301,307,1
302,315,301,305,1
303,315,300,303,1
305,315,299,300,1
307,315,297,298,1
309,314,294,296,1
310,314,292,295,1
309,315,290,295,1
308,318,288,296,1
306,320,288,299,1
304,322,289,306,1
303,322,292,314,1
303,321,298,323,1
304,320,304,330,1
305,318,310,335,1
307,316,313,337,1
307,313,315,336,1
307,311,315,333,1
307,310,315,328,1
307,310,316,323,1
307,311,317,317,1
307,313,318,312,1
308,312,318,308,1
307,310,317,304,1
307,306,316,303,1
306,302,315,303,1
305,298,313,305,1
305,296,312,307,1
305,294,310,308,1
304,293,308,306,1
303,292,306,304,1
302,292,306,302,1
302,294,307,301,1
303,296,308,300,1
304,297,310,299,1
305,298,310,297,1
305,299,310,298,1
306,300,310,300,1
306,300,310,302,1
307,300,310,303,1
308,299,310,303,1
308,299,309,304,1
308,300,308,304,1
308,301,308,305,1
309,303,308,308,1
310,306,307,311,1
310,309,307,313,1
309,313,306,314,1
308,315,305,313,1
307,316,306,312,1
307,315,307,310,1
307,311,307,308,1
307,307,307,306,1
307,303,307,305,1
306,301,307,303,1
305,300,306,301,1
304,299,305,299,1
303,300,304,295,1
303,301,304,293,1
301,302,304,290,1
301,306,304,289,1
300,311,305,289,1
300,316,305,290,1
300,321,306,294,1
302,325,307,297,1
303,327,308,300,1
304,324,309,300,1
306,319,310,300,1
307,313,309,298,1
309,308,307,297,1
309,306,305,296,1
310,307,304,295,1
310,311,303,295,1
