307,305,314,303,0
307,307,313,303,0
307,305,312,303,0
307,304,312,303,0
307,307,312,303,0
307,313,312,303,0
306,319,312,303,0
306,322,312,303,0
306,322,312,302,0
307,325,313,303,0
307,329,313,304,0
308,330,313,304,0
308,329,313,305,0
307,327,313,305,0
306,321,313,305,0
306,315,313,305,0
306,308,313,305,0
306,304,312,306,0
306,302,311,306,0
307,301,309,306,0
307,303,307,307,0
308,310,305,308,0
309,321,304,310,0
310,331,305,312,0
311,338,306,314,0
313,343,308,314,0
313,343,310,314,0
313,339,312,313,0
312,330,313,312,0
311,318,313,310,0
309,302,314,309,0
307,288,313,308,0
306,277,313,306,0
306,269,313,305,0
306,266,312,304,0
307,268,311,303,0
309,277,311,304,0
310,292,311,306,0
312,307,312,308,0
312,317,312,308,0
312,318,312,308,0
311,312,314,307,0
311,306,315,308,0
311,301,316,307,0
310,297,316,305,0
309,297,316,304,0
308,299,315,304,0
307,302,314,304,0
306,304,313,304,0
305,304,312,303,0
304,302,310,303,0
303,297,309,301,0
303,291,309,298,0
304,285,309,296,0
305,279,309,294,0
305,272,309,291,0
305,268,309,289,0
305,269,309,288,0
306,276,309,288,0
306,285,310,290,0
306,293,312,292,0
307,296,315,295,0
308,300,318,298,0
309,305,320,301,0
310,312,321,303,0
311,318,321,304,0
313,320,320,305,0
315,317,320,306,0
316,312,320,305,0
315,309,318,306,0
313,310,317,306,0
311,313,315,307,0
309,317,313,308,0
309,318,311,307,0
309,315,309,307,0
309,309,307,305,0
309,300,306,303,0
310,292,307,301,0
310,285,307,300,0
311,281,307,299,0
312,282,308,299,0
313,286,309,299,0
314,294,311,300,0
314,304,311,301,0
315,314,312,303,0
315,323,312,304,0
315,330,313,305,0
315,333,314,305,0
315,329,314,305,0
315,324,315,305,0
316,322,316,306,0
317,320,317,306,0
317,317,317,305,0
315,314,317,304,0
314,313,316,303,0
313,317,315,301,0
311,325,314,300,0
310,337,313,299,0
310,347,311,298,0
310,350,311,299,0
311,351,311,299,0
312,349,312,300,0
312,345,313,301,0
312,340,315,302,0
313,331,316,303,0
313,316,318,302,0
314,300,319,301,0
313,286,320,300,0
313,278,319,299,0
313,274,319,299,0
313,274,320,300,0
313,275,320,302,0
312,277,319,302,0
311,278,317,301,0
310,280,316,300,0
309,283,315,299,0
309,285,314,298,0
309,286,313,298,0
309,286,312,297,0
310,287,312,298,0
311,290,312,298,0
312,296,313,299,0
313,303,312,301,0
314,310,312,301,0
313,314,312,302,0
312,314,312,302,0
311,312,312,303,0
311,309,312,303,0
311,308,313,303,0
311,306,314,302,0
312,304,314,302,0
312,303,315,301,0
313,303,314,302,0
314,306,314,303,0
315,311,314,304,0
316,315,314,304,0
316,319,313,305,0
315,320,312,304,0
313,317,311,304,0
311,318,310,303,0
310,323,309,302,0
309,329,309,301,0
309,334,310,301,0
309,337,311,301,0
310,336,311,302,0
311,329,309,302,0
310,317,308,302,0
310,305,308,302,0
310,295,308,301,0
310,290,310,302,0
310,294,311,303,0
312,307,312,305,0
314,327,314,307,0
316,346,315,308,0
316,355,316,309,0
315,350,316,308,0
313,336,317,307,0
312,320,317,305,0
310,305,317,304,0
308,294,316,302,0
306,289,315,299,0
305,290,313,297,0
304,295,312,295,0
303,299,311,293,0
303,298,309,291,0
303,294,308,290,0
303,291,307,289,0
303,290,308,291,0
304,291,309,293,0
305,289,310,295,0
306,284,311,298,0
307,280,312,300,0
308,279,312,302,0
308,282,312,304,0
308,288,313,305,0
307,292,313,305,0
306,295,312,305,0
305,295,312,305,0
305,295,312,305,0
305,295,312,304,0
305,294,312,304,0
305,294,311,304,0
305,294,309,304,0
305,296,309,304,0
306,298,309,304,0
307,299,310,305,0
308,298,313,307,0
310,300,314,309,0
312,305,316,312,0
313,313,316,314,0
312,320,314,314,0
308,328,312,313,0
305,335,309,313,0
301,339,306,312,0
299,336,305,311,0
298,325,304,309,0
297,313,303,307,0
297,304,304,305,0
297,299,305,304,0
299,296,305,302,0
300,293,306,302,0
302,291,306,301,0
303,290,306,302,0
304,292,306,302,0
305,299,307,303,0
306,311,307,303,0
306,324,307,303,0
306,334,307,303,0
307,340,306,303,0
308,345,306,302,0
309,348,305,302,0
310,352,305,302,0
310,355,305,303,0
310,352,305,303,0
309,343,305,303,0
308,334,305,304,0
307,328,304,305,0
306,326,304,305,0
306,325,305,305,0
306,323,306,304,0
307,316,305,303,0
306,305,305,301,0
306,293,304,299,0
305,283,304,298,0
305,279,305,298,0
307,282,307,301,0
308,289,309,304,0
310,295,309,307,0
310,296,309,308,0
310,291,308,308,0
309,285,308,307,0
308,281,308,306,0
308,282,307,305,0
307,284,308,303,0
307,285,308,303,0
307,284,309,302,0
308,283,310,302,0
309,282,310,301,0
310,281,310,300,0
311,283,310,298,0
311,286,309,297,0
311,293,308,295,0
310,302,308,293,0
308,310,307,291,0
305,315,305,290,0
304,316,305,289,0
303,315,305,290,0
303,315,304,291,0
303,316,304,291,0
303,313,303,291,0
303,308,303,292,0
304,305,303,294,0
305,303,304,296,0
306,303,305,298,0
306,305,306,300,0
307,306,307,300,0
308,308,308,301,0
308,312,309,302,0
309,318,309,303,0
310,325,309,305,0
311,330,309,307,0
311,327,309,308,0
312,319,308,309,0
312,312,307,309,0
311,308,307,307,0
310,307,305,305,0
309,309,304,304,0
308,314,303,303,0
308,322,303,303,0
308,330,304,303,0
308,334,306,303,0
307,332,309,304,0
307,325,311,304,0
306,313,312,304,0
306,299,313,305,0
306,291,314,305,0
307,288,315,305,0
308,289,315,305,0
309,292,315,304,0
308,293,314,303,0
308,293,313,302,0
308,292,312,301,0
307,291,312,300,0
307,290,311,300,0
307,287,311,299,0
308,284,311,298,0
310,284,310,297,0
311,287,311,295,0
311,293,311,294,0
310,301,310,293,0
310,311,310,293,0
310,319,310,294,0
310,325,311,295,0
310,328,311,296,0
311,331,311,297,0
310,331,311,297,0
309,330,310,296,0
309,328,311,296,0
309,324,311,296,0
309,319,311,296,0
310,312,311,296,0
310,307,311,297,0
309,308,310,297,0
308,314,310,298,0
307,321,310,298,0
305,326,310,299,0
305,326,309,298,0
305,320,309,297,0
305,312,308,296,0
305,305,308,294,0
305,297,307,293,0
305,291,306,293,0
305,287,305,293,0
305,287,304,295,0
304,290,305,296,0
304,297,307,298,0
305,308,308,299,0
306,324,310,299,0
308,342,312,301,0
310,358,314,301,0
311,367,314,302,0
310,366,312,300,0
308,355,309,296,0
306,344,306,292,0
304,336,302,288,0
303,330,300,285,0
302,322,298,283,0
302,310,298,281,0
301,296,298,280,0
301,287,300,282,0
302,283,303,285,0
303,285,307,289,0
305,291,311,294,0
306,299,315,298,0
306,309,317,301,0
307,319,318,304,0
307,328,319,304,0
306,334,318,304,0
305,336,317,303,0
304,333,316,302,0
304,327,315,302,0
304,318,313,302,0
304,309,311,303,0
304,305,309,304,0
304,304,309,305,0
305,306,308,307,0
305,311,308,307,0
306,318,308,309,0
306,326,308,309,0
306,329,309,308,0
306,327,310,307,0
306,322,310,305,0
306,309,311,303,0
306,292,311,301,0
305,276,310,298,0
304,265,309,296,0
304,259,309,295,0
304,259,308,295,0
304,265,307,296,0
304,278,307,297,0
306,298,309,299,0
308,314,310,299,0
306,318,309,297,0
303,314,308,293,0
300,311,306,291,0
298,312,305,289,0
297,313,305,289,0
296,314,306,289,0
297,313,308,291,0
297,310,308,293,0
298,303,309,295,0
298,296,309,296,0
299,292,310,297,0
300,291,311,298,0
300,295,310,300,0
300,301,310,302,0
300,309,309,303,0
300,316,308,303,0
301,324,307,303,0
301,332,307,302,0
302,340,309,302,0
303,345,310,302,0
305,343,312,303,0
305,332,313,304,0
305,320,313,304,0
305,308,313,303,0
305,301,313,303,0
306,301,313,303,0
307,308,312,303,0
308,314,312,302,0
309,312,312,301,0
309,302,310,300,0
308,288,309,298,0
308,276,308,297,0
308,269,307,296,0
308,270,305,295,0
307,279,303,295,0
307,292,303,297,0
306,305,303,299,0
307,317,304,301,0
309,327,305,304,0
312,334,307,306,0
315,340,309,310,0
319,349,311,313,0
322,361,314,315,0
321,366,314,315,0
317,358,312,313,0
311,339,310,310,0
307,322,307,307,0
304,307,307,306,0
304,296,307,304,0
304,287,307,303,0
304,282,307,302,0
305,279,307,302,0
306,278,307,302,0
307,278,307,302,0
309,277,307,301,0
310,276,307,300,0
311,275,306,299,0
312,277,306,299,0
314,284,306,299,0
315,295,306,299,0
316,309,306,300,0
317,324,307,301,0
316,335,306,301,0
313,341,306,301,0
311,343,305,301,0
308,343,305,301,0
307,341,306,302,0
305,336,306,302,0
304,325,306,302,0
304,310,306,302,0
304,297,305,303,0
305,290,305,304,0
307,291,305,305,0
308,299,305,306,0
308,315,305,306,0
308,334,305,305,0
307,349,304,304,0
304,357,304,302,0
302,360,303,300,0
301,358,303,299,0
300,349,302,298,0
301,331,302,298,0
301,311,302,298,0
301,294,302,299,0
302,285,303,301,0
302,280,304,302,0
304,278,305,305,0
304,277,306,306,0
304,277,307,307,0
304,280,308,307,0
304,283,310,306,0
304,286,311,305,0
305,289,312,303,0
306,291,312,303,0
307,293,311,302,0
307,294,311,302,0
308,292,310,301,0
308,289,310,300,0
308,287,309,299,0
308,284,309,298,0
309,282,309,298,0
309,281,310,299,0
309,279,310,299,0
309,276,310,300,0
309,274,310,301,0
310,276,310,302,0
310,282,310,302,0
311,289,309,303,0
310,293,309,303,0
309,296,308,302,0
308,301,307,301,0
307,306,305,301,0
306,311,304,302,0
305,314,302,302,0
305,316,302,302,0
304,314,302,302,0
304,311,303,302,0
305,308,304,302,0
306,308,305,302,0
307,311,307,302,0
308,317,308,302,0
308,325,308,303,0
308,334,309,303,0
308,342,310,304,0
308,344,310,305,0
308,337,310,305,0
307,326,310,305,0
307,322,310,305,0
307,331,310,306,0
309,346,311,309,0
311,361,312,311,0
311,363,312,311,0
309,349,311,311,0
307,327,310,310,0
305,309,309,310,0
304,297,309,309,0
305,293,309,308,0
305,298,309,307,0
306,305,309,306,0
307,312,308,306,0
308,315,306,306,0
307,310,303,306,0
306,299,303,307,0
305,286,305,308,0
304,276,306,308,0
304,270,308,308,0
304,268,309,309,0
304,271,309,310,0
306,275,310,311,0
307,281,311,311,0
308,286,310,311,0
307,290,310,311,0
306,294,308,310,0
304,297,307,309,0
303,299,307,307,0
303,297,306,307,0
303,292,306,306,0
304,286,306,305,0
305,284,307,305,0
305,287,308,305,0
306,295,310,305,0
306,306,311,307,0
306,316,311,307,0
306,323,311,307,0
306,326,310,307,0
306,327,309,307,0
307,327,309,308,0
309,326,309,309,0
310,323,310,310,0
312,319,310,309,0
313,315,310,309,0
314,314,311,309,0
315,315,311,309,0
314,316,310,310,0
312,317,308,309,0
308,314,306,307,0
305,308,303,304,0
302,300,300,302,0
301,294,299,300,0
300,292,298,299,0
300,292,297,298,0
301,294,296,298,0
301,297,296,298,0
302,300,297,299,0
303,302,298,300,0
304,302,300,301,0
305,303,302,302,0
305,303,304,303,0
306,304,305,304,0
306,305,306,304,0
307,305,306,304,0
308,309,308,303,0
310,317,309,303,0
311,329,310,302,0
312,342,311,303,0
313,356,311,304,0
313,366,311,305,0
313,370,311,306,0
314,372,311,307,0
314,370,311,309,0
316,366,312,310,0
316,358,312,311,0
314,341,312,310,0
311,316,310,307,0
307,291,308,304,0
304,270,308,302,0
303,256,308,300,0
302,248,308,299,0
303,242,309,298,0
304,240,309,296,0
305,240,308,296,0
307,243,308,296,0
308,247,309,296,0
309,253,310,298,0
309,260,310,300,0
309,269,310,302,0
309,279,311,305,0
308,291,311,307,0
308,302,311,310,0
307,310,311,311,0
306,313,311,311,0
305,313,311,312,0
304,310,311,312,0
304,308,311,311,0
304,306,310,311,0
304,304,310,311,0
303,301,310,310,0
304,298,310,310,0
303,296,309,310,0
304,296,309,310,0
304,296,308,310,0
304,294,308,309,0
304,293,307,308,0
304,293,307,306,0
305,296,307,303,0
305,302,307,302,0
305,313,307,301,0
305,324,307,300,0
305,334,307,299,0
306,344,307,299,0
306,348,307,299,0
305,345,306,299,0
304,336,305,300,0
304,330,305,301,0
304,330,304,302,0
305,336,304,303,0
306,346,304,305,0
307,353,304,308,0
308,348,305,309,0
308,329,305,308,0
308,306,305,308,0
308,287,305,307,0
307,273,306,307,0
307,266,307,308,0
307,268,308,308,0
307,278,310,310,0
308,291,310,311,0
308,300,311,311,0
308,302,310,309,0
308,298,308,306,0
308,293,306,303,0
307,288,303,301,0
307,285,300,299,0
307,285,299,299,0
308,286,298,298,0
308,290,297,299,0
308,297,296,299,0
306,302,296,298,0
304,306,297,298,0
303,306,298,299,0
303,306,301,300,0
303,305,304,301,0
304,307,307,302,0
305,308,310,304,0
306,308,311,305,0
306,309,312,306,0
306,310,312,307,0
305,312,310,306,0
304,314,309,304,0
303,321,307,302,0
302,330,306,299,0
302,335,305,298,0
302,332,304,298,0
302,322,304,300,0
302,307,305,302,0
303,292,306,304,0
305,283,308,304,0
307,282,308,305,0
309,286,310,305,0
310,294,311,306,0
312,301,312,305,0
312,302,313,304,0
311,305,314,304,0
310,316,315,304,0
310,333,317,306,0
310,351,319,308,0
311,363,320,311,0
311,357,319,312,0
311,333,319,313,0
311,300,318,314,0
310,268,319,314,0
310,243,318,313,0
310,227,318,312,0
310,220,318,310,0
311,222,317,309,0
311,230,317,309,0
311,243,317,309,0
310,257,317,310,0
309,273,316,310,0
307,288,315,310,0
306,302,313,310,0
305,313,311,308,0
305,321,310,307,0
305,331,309,307,0
306,345,309,308,0
308,362,310,309,0
310,381,311,311,0
312,396,311,312,0
312,395,311,310,0
310,378,310,309,0
309,355,311,307,0
308,331,311,305,0
308,310,311,303,0
308,291,312,300,0
308,275,312,299,0
308,262,313,299,0
307,253,313,301,0
307,254,313,303,0
307,269,313,306,0
308,295,313,309,0
308,324,312,311,0
307,346,311,312,0
305,354,310,313,0
303,348,309,313,0
302,335,309,313,0
301,323,309,314,0
301,313,309,313,0
301,302,308,313,0
301,291,308,312,0
301,281,308,312,0
302,276,309,312,0
303,274,309,312,0
304,275,308,312,0
305,278,307,312,0
306,283,306,312,0
306,290,305,311,0
306,304,305,311,0
307,328,306,311,0
309,357,308,311,0
312,389,310,312,0
314,416,312,312,0
316,424,313,310,0
315,406,312,306,0
313,370,313,303,0
310,334,312,301,0
309,303,313,302,0
307,277,313,305,0
307,258,313,307,0
307,250,312,309,0
308,252,311,311,0
309,260,311,312,0
312,270,313,313,0
314,279,314,314,0
315,283,315,314,0
314,279,315,314,0
312,273,315,313,0
310,270,314,312,0
308,273,313,310,0
306,279,313,309,0
305,284,312,309,0
305,284,311,309,0
304,277,310,309,0
304,271,309,309,0
305,271,309,310,0
305,278,309,310,0
306,292,308,311,0
306,311,307,311,0
307,329,306,312,0
307,338,305,311,0
307,337,304,309,0
307,330,305,307,0
306,322,306,306,0
305,311,306,305,0
305,299,306,304,0
306,288,306,303,0
306,282,306,304,0
308,282,307,305,0
308,287,309,306,0
308,298,310,308,0
308,310,310,309,0
307,320,308,309,0
306,324,306,309,0
306,319,305,308,0
306,310,306,308,0
306,303,309,308,0
307,297,312,307,0
308,292,315,307,0
308,286,318,306,0
308,281,318,305,0
307,280,318,305,0
306,288,317,306,0
306,299,315,307,0
307,313,314,308,0
308,325,313,310,0
308,331,312,311,0
308,330,311,311,0
308,326,310,312,0
309,315,308,312,0
309,300,305,310,0
309,289,302,308,0
309,284,301,307,0
310,287,300,306,0
311,294,301,306,0
311,301,303,307,0
311,303,306,308,0
311,301,310,309,0
310,298,313,310,0
308,296,316,311,0
305,295,319,312,0
304,295,320,313,0
304,295,319,313,0
305,295,318,314,0
305,297,316,314,0
306,299,313,314,0
306,299,311,314,0
306,297,310,313,0
307,293,307,313,0
307,289,305,311,0
308,285,304,310,0
309,285,304,309,0
311,291,306,308,0
311,303,308,308,0
311,321,309,308,0
310,347,311,307,0
310,373,313,307,0
310,395,315,306,0
310,408,319,306,0
308,402,321,304,0
305,372,322,302,0
303,332,321,300,0
302,294,319,300,0
303,267,316,300,0
304,256,313,301,0
306,259,311,303,0
307,269,310,305,0
307,276,311,305,0
308,282,312,306,0
307,284,313,306,0
306,282,312,306,0
304,279,310,304,0
302,278,307,303,0
302,278,305,303,0
302,277,304,304,0
302,275,304,305,0
303,275,304,305,0
304,275,306,305,0
304,278,308,304,0
304,280,310,302,0
304,281,311,301,0
305,283,312,299,0
305,282,312,299,0
306,281,312,298,0
307,279,311,298,0
308,278,311,298,0
309,280,310,299,0
310,286,309,300,0
309,296,309,301,0
308,307,309,302,0
307,316,309,302,0
305,321,308,303,0
304,322,307,303,0
303,320,304,302,0
302,317,302,302,0
302,310,300,302,0
301,304,299,303,0
302,300,298,304,0
304,300,299,306,0
306,305,300,307,0
307,314,302,309,0
308,328,304,309,0
308,338,305,308,0
309,341,306,306,0
309,336,306,304,0
309,331,305,302,0
308,331,304,302,0
307,330,303,302,0
307,321,301,302,0
307,309,299,302,0
307,293,298,302,0
306,280,296,302,0
305,273,296,301,0
306,273,296,301,0
306,278,297,301,0
306,283,300,302,0
306,288,303,303,0
306,290,308,304,0
306,291,312,305,0
306,293,315,306,0
307,298,316,307,0
306,308,318,308,0
305,321,318,309,0
304,331,317,310,0
305,340,316,310,0
305,343,315,310,0
306,338,313,310,0
306,331,312,310,0
306,328,311,310,0
307,330,310,310,0
306,334,308,310,0
304,336,307,309,0
302,332,305,307,0
299,327,305,305,0
299,322,305,304,0
298,316,305,303,0
299,307,305,303,0
300,297,306,303,0
301,286,306,304,0
302,280,306,303,0
303,277,305,302,0
304,279,304,301,0
305,281,304,301,0
306,282,304,301,0
306,282,304,301,0
306,282,305,301,0
305,283,305,300,0
305,288,305,300,0
305,297,305,300,0
305,307,306,300,0
305,313,307,300,0
304,314,309,301,0
304,313,310,301,0
304,309,311,301,0
305,305,312,302,0
305,301,312,302,0
306,302,311,303,0
307,308,310,304,0
307,315,309,304,0
307,318,308,305,0
307,316,307,306,0
307,313,306,306,0
305,307,306,305,0
304,302,306,305,0
304,298,305,305,0
303,295,305,305,0
303,294,305,306,0
303,294,306,305,0
303,293,306,305,0
303,294,307,305,0
303,296,308,305,0
304,298,308,305,0
304,299,307,304,0
305,300,307,303,0
306,300,307,303,0
307,297,307,302,0
307,290,308,302,0
308,285,310,302,0
309,284,310,302,0
309,288,310,302,0
309,296,310,301,0
308,307,310,301,0
307,322,308,300,0
307,338,307,300,0
307,354,306,299,0
308,369,306,299,0
308,376,306,299,0
308,368,307,300,0
309,350,308,302,0
310,330,309,303,0
311,315,310,305,0
312,306,309,305,0
312,300,308,306,0
312,294,307,307,0
312,286,305,306,0
313,274,304,305,0
315,265,303,304,0
317,259,302,304,0
319,255,301,303,0
320,254,300,303,0
319,256,300,303,0
318,261,303,304,0
316,268,309,303,0
313,277,315,302,0
310,288,320,302,0
308,299,322,303,0
306,308,322,302,0
304,314,319,302,0
303,317,314,301,0
302,321,311,301,0
302,327,308,302,0
303,337,306,304,0
304,352,304,306,0
306,366,303,308,0
308,374,302,309,0
309,375,302,309,0
310,368,302,309,0
311,358,302,309,0
313,351,303,309,0
315,346,304,309,0
316,334,305,310,0
316,315,306,310,0
315,296,306,311,0
314,283,306,312,0
313,276,306,312,0
311,273,306,311,0
310,271,306,310,0
309,269,307,310,0
310,269,307,310,0
311,271,308,311,0
313,278,309,313,0
314,289,309,314,0
314,295,308,314,0
312,296,307,313,0
310,296,305,311,0
307,295,303,308,0
305,292,301,307,0
305,287,300,305,0
305,280,299,304,0
306,275,298,302,0
307,276,298,301,0
307,284,299,299,0
307,296,299,298,0
306,309,300,298,0
305,319,300,298,0
304,324,300,299,0
303,325,299,300,0
302,325,299,301,0
302,322,300,302,0
302,316,301,303,0
303,308,301,306,0
305,303,302,308,0
307,300,304,310,0
309,302,307,312,0
312,313,308,313,0
314,335,309,314,0
314,361,310,314,0
313,383,310,314,0
311,393,309,313,0
308,382,307,311,0
305,354,306,310,0
303,323,305,308,0
302,300,305,308,0
302,288,305,308,0
303,287,306,309,0
304,289,306,310,0
305,289,307,311,0
306,285,308,313,0
307,280,309,314,0
307,277,309,316,0
308,274,308,318,0
308,274,308,319,0
308,277,306,320,0
307,287,305,320,0
307,299,303,319,0
305,307,301,317,0
304,310,300,314,0
302,309,299,311,0
302,306,299,310,0
302,303,301,308,0
304,301,302,308,0
304,299,304,307,0
304,294,305,307,0
304,289,305,306,0
304,288,305,307,0
304,290,304,307,0
304,297,303,309,0
305,305,301,310,0
305,313,299,312,0
306,317,298,312,0
305,316,297,312,0
305,310,296,311,0
304,304,296,310,0
304,298,297,310,0
304,293,298,309,0
305,289,299,309,0
305,296,300,309,0
306,314,302,311,0
308,337,303,312,0
309,358,305,313,0
308,367,305,313,0
307,358,305,311,0
304,336,304,310,0
301,313,302,309,0
299,296,301,308,0
298,288,299,309,0
299,289,298,310,0
299,296,297,310,0
299,302,296,310,0
300,306,297,310,0
301,305,298,311,0
303,301,300,311,0
305,296,302,312,0
307,292,304,312,0
308,289,305,311,0
308,288,305,310,0
308,289,305,309,0
306,292,305,309,0
305,296,306,309,0
304,299,306,308,0
303,300,306,307,0
302,300,306,306,0
302,300,306,307,0
302,299,306,307,0
303,298,306,308,0
304,297,306,309,0
304,298,306,310,0
305,299,305,309,0
306,300,305,308,0
306,300,304,307,0
307,295,303,307,0
308,289,302,308,0
308,284,301,310,0
309,284,300,312,0
310,289,300,312,0
310,295,299,312,0
309,299,299,311,0
309,302,299,310,0
309,308,299,308,0
308,318,300,306,0
308,329,301,305,0
307,339,303,305,0
307,345,306,306,0
308,340,308,307,0
307,326,310,307,0
305,313,311,307,0
304,306,312,307,0
303,304,311,307,0
302,307,309,306,0
301,310,306,306,0
301,315,304,306,0
301,322,304,307,0
301,330,304,308,0
302,334,305,309,0
304,330,305,310,0
304,318,305,310,0
305,305,305,310,0
305,297,305,310,0
305,295,305,311,0
304,298,304,311,0
304,301,304,311,0
303,301,304,309,0
304,295,304,307,0
304,290,305,305,0
305,293,307,304,0
305,301,308,303,0
305,310,309,302,0
304,319,308,301,0
303,323,308,301,0
303,320,307,302,0
302,308,307,303,0
303,295,307,304,0
303,284,307,305,0
303,279,308,308,0
304,278,308,310,0
305,279,309,311,0
306,283,309,312,0
307,289,310,313,0
308,295,311,313,0
309,301,311,312,0
309,303,310,309,0
307,302,308,306,0
305,302,306,303,0
303,303,305,302,0
301,302,304,301,0
300,302,305,301,0
300,304,305,301,0
300,309,306,301,0
301,314,306,302,0
301,319,305,302,0
301,325,305,303,0
301,329,304,304,0
301,332,304,305,0
301,332,305,306,0
302,328,305,307,0
302,328,306,307,0
303,335,307,308,0
304,348,308,308,0
305,364,308,308,0
305,378,308,309,0
306,385,307,308,0
307,384,306,307,0
307,376,306,307,0
308,359,305,307,0
307,336,304,307,0
306,310,304,308,0
306,284,304,307,0
304,262,305,307,0
304,250,305,307,0
304,248,305,308,0
305,251,306,308,0
306,257,306,307,0
306,264,305,306,0
306,268,305,305,0
306,273,305,304,0
305,280,305,304,0
305,287,304,304,0
305,293,305,305,0
306,297,305,306,0
306,295,305,306,0
306,292,306,307,0
305,289,307,307,0
304,288,307,307,0
304,290,307,307,0
303,295,307,307,0
302,301,307,307,0
302,304,307,307,0
302,305,307,306,0
302,306,307,306,0
302,305,306,305,0
302,303,305,305,0
302,301,305,305,0
302,299,306,304,0
304,296,307,304,0
305,296,308,305,0
306,297,309,306,0
306,300,309,306,0
305,305,309,305,0
304,311,309,304,0
302,316,308,303,0
302,320,307,302,0
302,320,307,303,0
302,318,307,303,0
303,314,307,304,0
304,312,307,305,0
306,314,307,307,0
307,319,307,309,0
308,324,307,311,0
309,329,308,313,0
310,331,310,314,0
311,331,311,313,0
310,329,313,313,0
310,328,313,312,0
310,327,314,311,0
311,325,314,310,0
311,323,315,310,0
311,322,315,310,0
311,321,316,310,0
310,318,315,309,0
309,312,313,307,0
308,307,311,307,0
307,308,310,306,0
306,315,309,307,0
306,322,308,307,0
306,327,307,307,0
306,328,307,306,0
305,322,307,306,0
305,311,307,305,0
305,301,307,305,0
304,297,306,305,0
304,299,305,305,0
304,305,305,305,0
304,311,305,305,0
305,315,306,306,0
307,313,305,307,0
308,304,305,307,0
308,296,305,308,0
309,290,306,308,0
308,287,306,308,0
308,286,305,308,0
308,287,305,307,0
307,288,305,306,0
307,291,304,306,0
307,294,304,306,0
307,298,305,306,0
308,300,304,307,0
308,300,303,307,0
308,298,303,307,0
309,294,302,307,0
310,292,302,308,0
310,294,301,308,0
309,300,299,308,0
308,306,298,308,0
308,310,297,309,0
307,312,296,308,0
307,314,296,308,0
307,322,298,306,0
307,336,302,305,0
306,353,307,305,0
305,367,312,304,0
303,374,314,304,0
302,369,315,304,0
301,350,315,303,0
299,328,314,302,0
298,307,312,302,0
298,293,310,302,0
298,287,308,302,0
298,284,306,304,0
300,279,306,306,0
302,267,306,308,0
304,251,307,308,0
307,238,308,309,0
310,231,309,309,0
312,232,310,309,0
314,242,311,309,0
314,262,311,309,0
314,285,311,309,0
313,301,312,308,0
311,304,313,306,0
310,299,313,305,0
309,297,314,304,0
309,301,313,304,0
309,309,311,306,0
309,316,309,307,0
308,321,307,307,0
308,323,306,308,0
308,320,305,308,0
308,315,305,309,0
309,310,306,310,0
310,307,307,310,0
311,304,308,309,0
311,304,308,308,0
310,304,307,307,0
307,306,306,305,0
304,309,304,303,0
303,316,302,303,0
302,322,302,303,0
302,328,303,303,0
302,330,304,304,0
303,328,304,304,0
303,323,305,305,0
303,318,305,305,0
304,316,304,306,0
304,316,304,307,0
304,315,304,306,0
304,314,305,305,0
304,313,306,305,0
304,312,307,306,0
304,317,308,307,0
305,329,309,307,0
306,346,310,308,0
308,365,310,309,0
310,382,311,310,0
310,387,311,310,0
310,379,311,310,0
309,364,310,308,0
307,346,309,306,0
305,319,308,304,0
303,291,307,303,0
302,267,307,302,0
302,252,308,302,0
302,242,309,302,0
302,235,309,301,0
303,231,309,300,0
304,231,309,300,0
305,237,309,300,0
307,247,309,301,0
307,263,307,303,0
307,284,305,304,0
307,308,305,305,0
307,332,305,307,0
306,350,305,307,0
305,362,305,308,0
304,367,305,308,0
304,364,304,307,0
305,356,304,306,0
306,349,302,305,0
306,339,301,303,0
307,328,301,302,0
308,320,303,302,0
308,316,304,302,0
308,314,305,301,0
309,316,305,302,0
310,318,303,303,0
310,315,301,304,0
310,309,300,305,0
310,301,300,305,0
309,297,302,305,0
309,295,303,304,0
308,295,305,303,0
307,294,306,303,0
306,292,307,303,0
306,290,308,304,0
305,290,308,305,0
305,292,308,305,0
306,299,307,305,0
306,311,306,306,0
306,324,304,305,0
306,335,303,305,0
306,341,301,305,0
306,339,300,304,0
306,333,300,303,0
306,325,300,302,0
306,315,299,302,0
306,304,299,301,0
306,290,299,301,0
307,277,299,301,0
308,266,300,301,0
309,261,300,303,0
310,262,300,305,0
310,268,301,306,0
312,278,302,308,0
313,290,304,310,0
314,303,306,312,0
315,313,307,312,0
315,318,306,312,0
313,318,305,310,0
310,314,304,309,0
308,306,304,308,0
306,297,304,308,0
305,288,305,308,0
304,281,306,308,0
304,278,306,308,0
305,279,307,307,0
305,284,307,308,0
305,294,306,308,0
305,305,304,308,0
304,314,303,309,0
304,322,303,309,0
305,328,303,309,0
307,334,303,309,0
308,339,303,309,0
308,340,303,308,0
306,333,302,306,0
305,320,302,304,0
303,308,303,304,0
303,298,303,304,0
303,289,304,303,0
303,283,303,304,0
303,280,303,304,0
303,280,304,304,0
303,287,304,305,0
303,297,304,306,0
303,309,303,307,0
303,319,304,308,0
304,324,304,309,0
304,323,305,310,0
304,320,305,310,0
304,315,305,311,0
304,310,305,311,0
303,306,305,312,0
303,304,306,312,0
303,306,306,312,0
303,313,305,312,0
303,325,305,311,0
303,337,304,310,0
304,345,304,310,0
305,343,303,309,0
305,331,303,309,0
304,318,303,309,0
303,308,304,309,0
302,303,304,309,0
301,300,303,307,0
299,298,302,305,0
298,294,300,303,0
296,288,299,302,0
296,284,299,301,0
296,282,300,300,0
297,282,302,300,0
299,284,303,300,0
300,288,304,301,0
300,292,304,302,0
301,295,305,303,0
302,298,305,304,0
303,299,306,305,0
304,300,306,306,0
305,304,306,306,0
305,309,305,307,0
306,313,304,307,0
307,316,303,308,0
308,315,302,309,0
308,309,302,310,0
308,304,303,311,0
308,306,305,312,0
308,314,309,313,0
307,325,312,313,0
306,332,315,313,0
305,331,317,312,0
305,323,318,312,0
305,311,316,312,0
305,300,314,313,0
304,290,312,313,0
303,281,311,313,0
303,275,310,312,0
303,272,309,311,0
302,272,309,310,0
301,276,308,310,0
301,281,307,310,0
299,285,305,310,0
298,286,303,310,0
297,285,302,310,0
296,284,302,310,0
297,283,303,310,0
297,285,304,311,0
298,293,305,312,0
298,304,306,314,0
298,320,307,314,0
299,340,308,314,0
299,361,308,314,0
299,375,308,312,0
298,377,306,310,0
298,367,306,306,0
299,351,305,304,0
299,336,304,302,0
299,326,304,303,0
298,319,304,304,0
299,316,304,306,0
300,315,305,309,0
302,315,306,311,0
303,314,307,312,0
304,311,308,314,0
305,304,310,314,0
305,294,310,314,0
305,287,310,313,0
306,287,309,313,0
306,296,308,314,0
306,311,306,315,0
304,328,305,315,0
303,342,304,314,0
301,351,304,314,0
300,351,305,312,0
300,347,305,309,0
300,339,306,307,0
301,328,306,305,0
301,314,306,304,0
301,298,306,304,0
301,281,305,303,0
301,267,305,302,0
302,260,305,301,0
302,258,305,299,0
302,260,305,298,0
303,260,305,298,0
303,260,304,297,0
304,261,304,297,0
305,263,303,298,0
306,267,304,301,0
307,277,305,303,0
308,289,306,305,0
308,302,307,306,0
308,314,308,306,0
308,322,308,307,0
307,325,308,308,0
306,327,309,310,0
305,328,309,312,0
305,330,310,313,0
305,330,310,313,0
306,328,309,312,0
306,324,309,311,0
306,321,308,311,0
307,322,308,310,0
307,326,307,309,0
306,330,307,308,0
306,333,306,307,0
306,332,306,306,0
306,329,306,306,0
307,325,306,307,0
307,322,306,308,0
308,320,306,308,0
308,318,307,308,0
307,314,307,309,0
306,309,307,310,0
305,305,308,312,0
305,300,310,314,0
305,297,311,315,0
306,295,312,316,0
307,296,312,316,0
307,298,312,315,0
307,299,311,314,0
307,300,310,313,0
308,302,310,312,0
309,300,309,311,0
309,295,308,310,0
309,291,307,309,0
309,288,307,308,0
309,288,307,308,0
310,288,308,308,0
309,288,308,308,0
309,289,307,309,0
308,293,307,309,0
307,302,307,310,0
306,312,306,310,0
306,319,305,310,0
307,322,305,309,0
308,319,304,310,0
309,314,304,311,0
309,310,304,312,0
309,310,304,311,0
308,312,305,310,0
308,320,306,308,0
308,330,307,306,0
307,334,308,305,0
306,327,309,303,0
304,312,310,301,0
303,296,310,299,0
302,284,311,299,0
302,284,311,300,0
302,292,311,302,0
303,302,312,303,0
303,309,312,305,0
303,309,311,306,0
303,300,311,306,0
303,291,310,307,0
303,288,310,307,0
303,291,309,308,0
303,297,309,309,0
302,299,309,309,0
302,297,309,309,0
301,292,308,309,0
302,288,307,308,0
302,287,306,307,0
303,289,305,307,0
304,294,306,307,0
305,298,306,308,0
306,300,308,309,0
307,300,309,310,0
307,301,311,310,0
308,304,312,310,0
309,310,312,310,0
310,316,311,310,0
311,322,311,311,0
312,328,309,312,0
312,336,308,313,0
313,347,307,315,0
313,360,306,317,0
314,374,304,318,0
314,381,303,318,0
313,372,302,316,0
311,349,303,314,0
309,322,304,312,0
308,298,306,310,0
306,280,306,308,0
306,267,306,308,0
306,259,307,308,0
308,261,309,309,0
310,274,310,311,0
313,298,312,313,0
315,326,313,315,0
315,347,313,316,0
313,346,312,314,0
308,326,310,312,0
304,302,308,311,0
302,288,307,310,0
301,283,306,310,0
299,280,306,309,0
299,276,306,309,0
299,273,305,307,0
299,274,304,305,0
300,278,303,304,0
300,283,302,303,0
301,287,301,302,0
302,287,301,302,0
303,285,302,301,0
303,280,302,302,0
304,274,303,302,0
305,268,303,303,0
305,265,303,304,0
306,267,304,304,0
307,273,304,304,0
308,282,304,305,0
308,292,304,304,0
308,302,304,305,0
307,312,303,305,0
307,320,303,305,0
306,325,304,305,0
306,329,305,305,0
305,332,307,305,0
305,333,309,305,0
304,332,310,304,0
304,331,311,304,0
304,331,310,304,0
305,332,309,304,0
305,333,307,304,0
307,335,305,303,0
307,334,304,303,0
308,328,303,304,0
308,319,303,304,0
309,311,304,306,0
309,305,304,308,0
308,301,304,308,0
308,299,303,308,0
308,299,303,308,0
308,301,302,308,0
308,304,301,308,0
308,306,301,307,0
306,304,302,305,0
306,300,302,304,0
305,297,302,303,0
305,297,303,303,0
305,302,304,303,0
306,309,305,304,0
306,315,306,305,0
307,316,306,306,0
306,311,306,305,0
305,302,306,305,0
304,292,306,305,0
302,287,306,306,0
302,287,306,306,0
302,292,306,307,0
303,299,306,308,0
303,307,306,308,0
302,311,304,309,0
301,312,303,309,0
301,309,302,308,0
300,304,300,306,0
299,300,299,304,0
299,297,299,302,0
299,296,299,302,0
300,294,299,302,0
300,293,300,303,0
300,292,301,304,0
300,292,302,307,0
300,291,303,309,0
301,289,303,310,0
303,287,304,312,0
305,285,305,313,0
307,284,306,314,0
309,282,308,315,0
312,281,309,315,0
315,283,311,316,0
318,287,312,315,0
319,290,312,314,0
319,296,311,314,0
318,311,310,314,0
316,333,309,313,0
313,354,306,312,0
310,372,305,311,0
308,384,305,310,0
306,384,306,309,0
304,375,305,309,0
304,364,306,309,0
304,357,306,309,0
305,351,306,309,0
304,336,305,308,0
303,313,304,308,0
301,290,303,308,0
300,273,302,309,0
300,262,302,310,0
301,257,303,310,0
302,256,303,310,0
303,258,303,311,0
304,263,303,311,0
306,270,303,313,0
308,278,302,314,0
309,290,302,315,0
310,300,302,314,0
309,306,301,312,0
308,310,299,310,0
306,316,297,310,0
304,320,296,310,0
302,319,296,310,0
300,313,296,310,0
299,306,298,309,0
297,301,300,308,0
296,299,303,308,0
296,299,306,309,0
296,300,307,310,0
297,300,308,311,0
299,300,308,311,0
300,301,307,312,0
301,302,306,312,0
302,305,305,312,0
304,309,305,311,0
306,313,305,311,0
308,317,305,311,0
309,319,305,311,0
310,319,304,310,0
310,318,303,311,0
309,317,302,310,0
309,316,302,311,0
308,313,302,310,0
308,309,302,310,0
308,307,303,310,0
308,305,303,309,0
307,304,303,308,0
306,305,302,307,0
306,308,302,306,0
305,311,302,305,0
304,308,303,305,0
305,301,304,305,0
306,292,305,306,0
307,285,304,307,0
308,282,304,307,0
309,288,303,308,0
310,304,304,308,0
311,323,305,308,0
310,341,307,308,0
310,350,309,308,0
308,345,311,308,0
306,333,310,308,0
304,318,309,307,0
302,308,307,307,0
301,303,306,306,0
302,301,305,306,0
302,302,305,306,0
303,304,304,306,0
303,303,304,308,0
303,299,304,309,0
302,297,305,309,0
302,297,305,308,0
302,300,305,306,0
302,305,305,305,0
302,310,305,304,0
303,316,305,304,0
304,321,307,305,0
305,323,308,308,0
307,320,308,311,0
308,311,309,312,0
308,297,308,311,0
308,283,308,309,0
309,274,308,308,0
310,272,307,308,0
310,279,307,309,0
310,290,306,311,0
310,300,306,313,0
310,305,306,315,0
309,306,307,316,0
308,303,307,316,0
309,299,308,316,0
309,297,308,315,0
309,299,307,314,0
308,303,307,313,0
307,306,306,311,0
305,306,305,309,0
304,305,304,308,0
304,304,305,307,0
305,303,305,307,0
306,302,305,307,0
306,303,306,307,0
306,303,306,307,0
305,304,307,306,0
304,311,307,306,0
303,323,307,305,0
304,337,307,305,0
305,350,308,306,0
305,355,309,306,0
306,344,310,306,0
306,321,311,307,0
306,301,311,308,0
306,288,311,310,0
307,284,311,312,0
308,283,311,315,0
308,286,310,316,0
309,300,310,316,0
309,326,308,316,0
309,356,308,316,0
309,380,307,315,0
308,386,307,314,0
307,368,307,312,0
305,333,307,311,0
304,296,308,309,0
304,268,309,309,0
305,251,309,309,0
305,245,309,309,0
305,246,308,311,0
305,253,307,311,0
304,262,306,311,0
303,273,304,310,0
303,284,303,310,0
303,293,302,310,0
304,299,302,310,0
305,301,303,312,0
307,299,303,313,0
309,296,304,314,0
312,295,306,316,0
315,297,308,318,0
315,300,308,318,0
314,302,306,317,0
312,301,305,315,0
311,298,305,313,0
310,295,306,311,0
310,292,306,309,0
310,289,307,308,0
309,288,307,307,0
308,290,306,306,0
306,295,306,306,0
305,303,305,307,0
304,310,306,308,0
304,317,306,309,0
304,321,306,311,0
303,323,305,312,0
304,322,305,313,0
304,321,305,313,0
304,320,306,313,0
305,319,307,313,0
306,318,307,313,0
307,316,306,311,0
308,317,304,309,0
309,324,303,308,0
310,337,302,306,0
311,351,302,305,0
313,361,303,303,0
314,361,304,303,0
314,350,306,302,0
314,331,308,302,0
313,315,310,302,0
313,302,311,302,0
310,294,310,301,0
308,291,310,300,0
307,292,309,300,0
306,295,308,300,0
306,294,307,301,0
306,287,307,302,0
306,278,307,304,0
305,272,307,305,0
305,270,307,305,0
305,272,307,305,0
305,277,308,305,0
305,283,308,305,0
305,291,308,305,0
305,297,308,304,0
305,300,308,304,0
306,299,307,305,0
306,297,307,305,0
306,293,307,306,0
306,290,307,306,0
307,289,307,307,0
308,289,308,308,0
309,293,308,308,0
309,303,308,308,0
309,313,308,308,0
309,317,307,306,0
307,312,306,305,0
306,305,305,303,0
305,302,304,303,0
305,301,303,303,0
305,302,303,303,0
305,305,302,303,0
304,309,301,303,0
304,313,301,304,0
303,317,300,304,0
303,318,300,305,0
302,316,299,304,0
301,314,299,304,0
301,314,297,305,0
301,317,297,305,0
302,323,296,306,0
303,331,296,306,0
305,338,297,307,0
307,344,299,308,0
309,348,303,310,0
311,347,307,313,0
311,340,310,314,0
312,330,311,316,0
312,317,312,316,0
310,296,311,315,0
309,273,310,313,0
307,255,308,310,0
306,248,307,308,0
304,252,305,306,0
303,264,303,305,0
301,276,302,305,0
300,286,302,305,0
299,292,302,305,0
299,293,302,305,0
300,292,302,304,0
301,291,301,304,0
302,291,301,304,0
303,292,302,305,0
304,296,303,305,0
305,302,305,306,0
306,308,306,308,0
306,312,307,309,0
306,315,307,309,0
306,316,306,309,0
305,316,304,308,0
305,316,302,308,0
305,316,300,307,0
307,318,299,308,0
310,324,300,309,0
312,332,302,310,0
314,343,304,310,0
314,356,304,309,0
311,369,304,307,0
309,381,303,305,0
307,390,303,304,0
306,389,305,303,0
304,369,307,302,0
302,335,309,302,0
300,301,311,302,0
299,278,313,302,0
299,267,313,303,0
300,269,312,304,0
301,277,311,305,0
302,287,309,307,0
303,294,308,307,0
304,300,307,308,0
304,302,306,307,0
304,302,305,306,0
304,299,305,305,0
304,295,305,304,0
304,290,304,303,0
305,286,304,302,0
305,284,304,303,0
306,289,305,305,0
307,298,306,307,0
307,312,307,308,0
308,326,307,310,0
308,332,308,311,0
307,328,308,311,0
307,320,307,310,0
306,315,306,310,0
306,312,306,310,0
306,311,305,310,0
306,311,305,311,0
306,309,304,312,0
307,302,304,312,0
307,290,304,311,0
308,279,305,310,0
309,270,305,309,0
309,267,306,307,0
308,268,306,306,0
309,271,305,305,0
309,273,306,305,0
311,273,306,306,0
313,271,307,307,0
314,266,307,307,0
313,261,306,305,0
312,263,305,304,0
311,277,305,305,0
310,300,305,305,0
308,325,304,305,0
306,347,302,305,0
305,363,301,307,0
304,368,300,308,0
303,363,300,309,0
302,354,299,311,0
301,344,300,313,0
300,334,300,313,0
300,326,299,313,0
301,320,299,313,0
302,313,300,312,0
302,306,300,312,0
303,298,300,311,0
304,291,300,311,0
305,287,301,311,0
306,287,301,310,0
307,292,303,310,0
308,302,303,310,0
308,313,304,310,0
309,323,304,310,0
310,332,303,311,0
310,336,302,311,0
310,334,300,311,0
309,332,298,310,0
307,330,295,309,0
306,332,294,308,0
305,335,294,307,0
304,337,296,307,0
304,332,299,307,0
303,325,301,306,0
303,320,303,306,0
303,312,305,305,0
303,296,305,305,0
303,279,304,305,0
302,265,304,305,0
302,259,303,305,0
302,259,303,305,0
302,265,303,306,0
302,273,303,307,0
302,281,302,308,0
302,287,302,309,0
302,293,302,309,0
302,300,302,309,0
301,308,302,309,0
301,314,303,310,0
301,319,302,310,0
302,318,302,310,0
302,314,302,311,0
303,308,301,311,0
303,304,300,311,0
303,302,300,309,0
303,302,299,308,0
303,303,299,306,0
303,302,299,306,0
304,299,300,305,0
304,295,302,304,0
305,288,303,304,0
306,281,305,304,0
307,275,307,304,0
308,273,308,305,0
307,279,308,306,0
307,291,308,306,0
306,308,307,307,0
305,323,305,307,0
304,335,304,308,0
303,345,302,310,0
302,351,301,311,0
301,354,300,312,0
300,350,300,311,0
299,336,299,308,0
299,320,298,304,0
299,305,298,300,0
299,293,297,297,0
300,284,298,295,0
300,280,299,294,0
301,277,302,295,0
302,275,306,296,0
302,275,309,298,0
303,283,311,301,0
303,302,312,304,0
304,322,311,307,0
303,337,309,310,0
303,344,307,312,0
303,340,305,313,0
304,326,304,315,0
304,309,305,315,0
304,293,307,314,0
305,282,310,312,0
306,277,312,311,0
307,275,313,309,0
306,276,313,308,0
305,281,312,308,0
304,293,312,310,0
304,306,311,312,0
304,317,310,314,0
304,323,309,315,0
304,323,308,315,0
304,317,308,315,0
303,309,307,313,0
302,301,306,311,0
301,294,305,309,0
301,288,304,307,0
302,282,303,305,0
303,279,303,303,0
304,279,303,302,0
305,282,304,302,0
305,287,304,301,0
306,293,305,302,0
306,300,305,302,0
306,307,305,303,0
305,315,305,305,0
305,324,305,307,0
306,334,305,308,0
306,344,304,309,0
307,350,303,310,0
308,347,301,310,0
308,330,300,309,0
308,304,299,308,0
307,283,297,309,0
306,274,297,309,0
306,283,298,310,0
306,309,300,310,0
307,344,301,310,0
308,378,303,311,0
310,400,306,312,0
310,399,309,312,0
309,371,309,310,0
306,332,309,308,0
304,299,308,306,0
303,278,307,304,0
302,271,306,303,0
301,271,306,303,0
301,273,305,303,0
301,276,305,304,0
302,281,305,305,0
302,286,305,306,0
302,293,305,308,0
302,302,306,311,0
303,309,306,312,0
303,311,305,313,0
302,310,304,312,0
302,306,304,311,0
303,300,304,309,0
304,295,303,307,0
305,292,303,306,0
306,292,303,304,0
306,293,304,304,0
307,295,305,303,0
307,297,306,303,0
307,300,307,304,0
306,302,308,305,0
306,303,308,306,0
305,302,307,307,0
304,301,306,307,0
304,304,306,309,0
305,307,305,310,0
306,309,306,312,0
307,308,307,313,0
306,306,308,313,0
306,303,308,313,0
305,303,309,312,0
304,305,309,312,0
304,313,310,312,0
305,321,310,312,0
306,328,310,311,0
307,332,310,310,0
308,328,310,309,0
309,319,310,309,0
311,309,310,310,0
313,303,312,312,0
315,309,313,314,0
317,321,315,316,0
316,328,315,315,0
312,332,314,314,0
309,337,313,313,0
306,342,313,311,0
305,342,312,311,0
304,335,312,311,0
304,323,312,310,0
304,311,312,310,0
304,302,312,309,0
304,298,310,308,0
304,298,309,307,0
303,299,308,306,0
304,299,307,306,0
304,296,307,305,0
304,292,306,305,0
305,292,306,305,0
306,293,305,306,0
307,295,305,306,0
308,296,306,305,0
308,296,307,304,0
308,295,309,304,0
309,293,311,305,0
309,289,312,306,0
310,283,311,307,0
310,278,310,307,0
310,273,308,307,0
310,270,306,305,0
309,271,305,304,0
309,279,304,302,0
309,292,306,302,0
309,308,309,303,0
309,325,312,304,0
309,336,314,305,0
309,339,314,305,0
310,341,313,305,0
312,348,312,306,0
314,353,312,306,0
314,352,309,306,0
312,342,305,304,0
308,325,300,303,0
304,306,299,302,0
303,291,302,302,0
304,284,306,302,0
305,283,310,303,0
305,280,311,303,0
304,273,312,302,0
303,268,312,301,0
303,268,311,301,0
302,277,311,302,0
301,290,310,303,0
301,304,310,305,0
301,316,310,306,0
301,322,311,307,0
302,322,311,308,0
302,321,312,309,0
303,319,313,310,0
303,316,314,311,0
303,311,314,312,0
303,310,313,311,0
303,315,312,309,0
303,324,310,307,0
304,330,309,306,0
305,329,308,305,0
305,320,308,305,0
306,311,309,305,0
306,308,310,306,0
307,309,310,307,0
306,308,310,307,0
306,303,309,306,0
306,299,308,304,0
306,295,308,303,0
306,294,308,302,0
306,294,308,302,0
307,295,308,302,0
308,295,308,302,0
308,295,308,303,0
308,295,308,304,0
308,297,307,304,0
306,302,307,305,0
305,309,307,305,0
305,318,307,305,0
306,327,307,305,0
306,333,308,305,0
306,337,309,306,0
305,338,310,306,0
304,338,311,306,0
302,334,312,305,0
301,326,312,305,0
301,316,312,307,0
301,309,311,308,0
301,305,310,310,0
301,301,309,311,0
300,296,308,310,0
300,294,307,308,0
300,298,307,306,0
301,306,307,304,0
302,313,307,303,0
302,311,306,301,0
301,299,306,300,0
301,285,305,300,0
301,274,306,301,0
302,272,306,303,0
303,276,307,304,0
305,286,307,305,0
305,294,307,305,0
306,297,306,306,0
306,299,307,306,0
306,304,307,306,0
306,315,307,307,0
308,329,308,309,0
309,343,308,310,0
311,354,308,311,0
312,357,308,311,0
312,346,307,310,0
311,324,305,309,0
308,304,303,307,0
307,290,302,305,0
305,282,302,304,0
305,276,301,303,0
304,269,300,301,0
303,264,300,300,0
302,262,300,300,0
302,266,301,301,0
302,273,302,302,0
302,282,304,304,0
302,292,306,306,0
302,302,308,308,0
302,307,309,310,0
302,306,309,311,0
302,301,309,312,0
301,294,308,312,0
300,288,307,313,0
300,287,306,313,0
299,290,305,314,0
298,298,305,313,0
298,308,305,313,0
299,316,305,312,0
299,321,305,311,0
301,322,305,310,0
302,326,305,310,0
303,335,305,310,0
304,347,305,311,0
305,360,305,312,0
306,366,305,313,0
306,363,305,312,0
305,353,304,311,0
304,341,304,309,0
303,332,303,307,0
302,322,303,306,0
301,313,303,306,0
301,308,303,306,0
302,307,302,307,0
303,311,302,307,0
304,316,302,307,0
304,316,301,306,0
304,308,302,305,0
303,290,302,304,0
303,267,304,303,0
302,250,305,303,0
303,244,307,304,0
303,246,309,306,0
303,251,310,308,0
303,256,310,310,0
302,259,310,311,0
302,260,309,311,0
302,261,308,310,0
302,263,308,308,0
302,269,308,306,0
302,279,307,305,0
301,292,307,304,0
301,303,306,304,0
302,314,306,304,0
303,323,306,303,0
304,333,307,303,0
305,343,307,304,0
306,347,307,305,0
305,343,307,306,0
304,336,306,306,0
303,332,305,305,0
303,329,304,305,0
303,325,304,305,0
302,320,305,305,0
302,313,306,305,0
302,306,309,306,0
303,300,311,306,0
304,294,312,307,0
305,288,311,308,0
304,287,310,309,0
304,290,309,310,0
303,297,308,310,0
303,307,308,310,0
303,319,308,310,0
305,329,308,310,0
306,337,308,308,0
307,341,308,307,0
307,336,307,306,0
305,327,306,306,0
304,321,306,307,0
304,318,307,308,0
304,318,308,310,0
304,316,309,311,0
303,313,310,311,0
303,309,310,310,0
303,305,310,308,0
302,305,310,307,0
302,310,310,307,0
301,316,310,307,0
302,321,310,307,0
302,323,311,307,0
302,321,310,306,0
302,318,311,306,0
303,316,311,306,0
303,314,311,306,0
304,312,310,305,0
304,307,310,304,0
304,298,309,302,0
305,288,309,301,0
306,281,309,300,0
306,278,308,299,0
306,281,306,299,0
305,288,305,298,0
304,297,303,298,0
303,303,303,299,0
303,308,303,301,0
304,312,304,303,0
305,318,306,306,0
307,328,308,309,0
308,340,311,311,0
309,348,313,313,0
309,347,314,313,0
308,339,314,312,0
306,323,313,311,0
304,306,311,309,0
302,294,309,309,0
303,288,308,309,0
304,288,308,309,0
305,290,307,309,0
306,295,307,309,0
306,298,308,310,0
307,297,307,310,0
307,295,308,309,0
308,296,308,309,0
309,298,308,309,0
309,302,308,310,0
309,306,308,310,0
310,310,308,310,0
311,310,309,309,0
312,305,309,308,0
313,295,309,308,0
314,286,309,309,0
314,280,309,309,0
314,283,309,310,0
313,299,308,311,0
313,323,308,311,0
312,347,307,311,0
311,364,305,310,0
310,371,304,308,0
308,362,303,306,0
306,341,302,305,0
304,319,302,305,0
303,300,302,305,0
302,287,301,305,0
301,278,301,304,0
300,274,300,303,0
300,272,301,303,0
300,271,300,303,0
301,271,301,304,0
303,272,301,304,0
304,276,303,305,0
307,280,306,306,0
309,283,309,305,0
310,285,311,304,0
309,283,312,302,0
308,280,312,301,0
306,283,312,300,0
305,294,311,300,0
305,309,310,300,0
305,323,310,300,0
306,332,310,301,0
306,332,310,301,0
307,328,309,302,0
307,324,308,302,0
307,320,307,303,0
306,315,306,302,0
306,310,305,302,0
306,307,303,301,0
307,305,303,301,0
307,304,302,301,0
308,304,303,302,0
308,305,305,303,0
310,312,309,304,0
312,324,312,305,0
313,339,314,305,0
312,348,314,304,0
309,346,313,302,0
308,334,311,300,0
306,319,310,299,0
305,302,308,297,0
304,287,307,296,0
304,276,306,296,0
304,271,306,296,0
303,271,305,297,0
303,274,305,298,0
303,281,304,298,0
303,289,304,300,0
304,297,303,301,0
305,303,302,302,0
306,308,300,302,0
306,309,298,302,0
307,306,297,302,0
308,304,296,301,0
309,303,296,301,0
310,302,297,301,0
310,303,299,302,0
310,305,303,302,0
309,306,308,303,0
308,310,312,304,0
307,314,314,305,0
307,316,314,306,0
307,313,313,307,0
308,309,311,308,0
308,306,309,309,0
309,308,308,310,0
310,312,307,310,0
310,315,306,310,0
311,318,306,309,0
312,316,306,309,0
312,314,306,309,0
312,313,306,310,0
312,314,307,311,0
312,316,308,311,0
312,317,308,311,0
311,315,308,310,0
310,315,307,308,0
311,322,307,307,0
312,331,307,306,0
314,340,308,306,0
315,346,309,305,0
316,339,309,304,0
315,320,309,302,0
314,301,309,301,0
314,289,309,302,0
313,279,309,302,0
312,267,310,302,0
311,256,309,301,0
310,247,309,301,0
310,245,308,300,0
310,249,308,300,0
310,258,309,299,0
310,270,310,299,0
309,283,310,299,0
308,292,310,298,0
307,296,310,298,0
306,297,310,298,0
306,299,309,298,0
307,303,309,300,0
308,311,308,300,0
308,325,307,301,0
309,343,307,303,0
309,361,307,304,0
309,371,308,304,0
308,369,308,303,0
306,357,307,302,0
305,339,306,301,0
303,321,305,301,0
302,307,304,301,0
301,300,303,302,0
300,299,303,303,0
300,300,304,305,0
301,300,305,305,0
303,299,306,305,0
304,297,306,305,0
304,294,305,303,0
305,294,305,302,0
306,295,305,300,0
307,294,305,299,0
307,293,306,298,0
308,293,308,297,0
309,295,309,296,0
309,296,310,297,0
309,296,310,297,0
310,295,310,298,0
309,295,310,298,0
309,297,310,298,0
309,299,310,298,0
309,302,309,299,0
309,305,309,300,0
309,310,308,301,0
308,315,307,303,0
307,320,306,306,0
307,325,305,309,0
307,324,305,310,0
308,318,305,311,0
309,312,305,311,0
310,307,305,310,0
310,305,303,309,0
309,303,302,309,0
308,303,303,308,0
308,304,304,307,0
308,307,306,307,0
309,313,308,306,0
310,320,309,305,0
311,322,309,305,0
312,322,308,304,0
312,320,308,305,0
313,314,307,305,0
311,305,307,304,0
310,296,307,304,0
308,290,309,303,0
307,286,309,302,0
305,284,309,301,0
303,284,307,301,0
303,286,305,301,0
302,288,304,302,0
303,289,302,303,0
304,288,301,304,0
304,286,301,305,0
305,286,301,306,0
306,289,300,307,0
308,297,300,308,0
308,308,301,309,0
308,317,301,310,0
308,320,301,310,0
308,315,300,310,0
308,305,301,310,0
309,295,301,310,0
310,288,302,310,0
311,282,304,310,0
312,280,305,310,0
312,281,306,311,0
312,287,306,310,0
311,295,306,309,0
310,307,306,308,0
309,320,306,307,0
309,329,306,307,0
310,330,306,307,0
311,325,306,308,0
311,318,306,308,0
311,312,306,309,0
310,309,306,310,0
310,311,306,312,0
310,318,306,313,0
309,325,305,312,0
307,329,304,310,0
305,332,303,309,0
305,334,303,308,0
305,334,302,307,0
305,330,302,307,0
306,326,302,307,0
307,326,303,307,0
307,326,303,306,0
307,326,304,305,0
308,324,305,304,0
307,318,306,303,0
307,312,306,303,0
306,307,306,303,0
306,300,305,303,0
305,293,304,303,0
305,289,304,304,0
306,290,305,304,0
306,296,306,305,0
307,304,306,306,0
308,313,306,306,0
309,318,306,306,0
311,317,305,306,0
312,312,305,307,0
313,300,304,308,0
312,286,303,308,0
311,274,303,307,0
310,269,304,305,0
309,270,305,303,0
309,272,305,302,0
308,275,305,302,0
308,279,305,302,0
308,284,305,303,0
308,290,304,305,0
308,301,305,307,0
309,315,305,309,0
309,328,306,311,0
308,333,306,312,0
307,330,306,312,0
307,325,306,313,0
307,326,306,314,0
309,332,307,315,0
311,340,308,315,0
314,351,308,316,0
316,365,309,316,0
316,373,308,316,0
315,364,307,314,0
313,344,306,312,0
311,319,304,310,0
309,293,302,308,0
307,273,301,307,0
306,261,301,306,0
305,256,301,306,0
304,257,300,306,0
303,261,299,306,0
302,268,299,306,0
301,277,298,306,0
300,286,299,306,0
300,294,301,307,0
300,300,303,308,0
301,304,306,309,0
302,306,307,309,0
303,305,308,310,0
305,304,308,311,0
306,304,308,312,0
306,305,307,313,0
306,306,307,314,0
307,308,307,314,0
307,310,307,315,0
307,312,307,315,0
307,313,308,314,0
306,313,307,313,0
305,313,307,312,0
304,311,307,311,0
303,310,306,311,0
302,308,306,310,0
302,307,306,310,0
302,307,306,309,0
302,307,305,309,0
303,308,305,309,0
303,309,305,309,0
303,310,305,309,0
302,310,305,309,0
302,309,304,309,0
302,307,303,309,0
303,307,301,309,0
304,311,300,309,0
305,320,299,309,0
306,331,298,308,0
307,343,298,308,0
308,351,299,308,0
307,352,299,307,0
307,346,298,307,0
305,336,298,307,0
305,328,301,307,0
306,319,304,307,0
306,309,306,307,0
306,299,308,307,0
306,289,309,307,0
306,280,309,306,0
306,273,309,305,0
304,269,309,305,0
304,271,309,305,0
304,278,309,306,0
305,287,310,307,0
305,295,311,308,0
306,302,311,309,0
306,306,311,309,0
306,309,311,308,0
307,316,310,307,0
307,331,310,307,0
308,348,309,308,0
309,357,308,309,0
309,351,308,310,0
308,329,307,309,0
307,303,306,307,0
307,281,306,306,0
307,266,305,305,0
307,256,305,304,0
306,252,306,303,0
306,252,306,303,0
306,260,306,304,0
306,279,307,305,0
306,309,307,306,0
306,341,306,308,0
307,365,306,310,0
306,373,305,311,0
305,358,305,312,0
303,329,304,313,0
302,297,305,313,0
300,271,305,312,0
300,257,304,311,0
300,251,305,310,0
300,251,305,309,0
300,255,306,309,0
301,263,306,309,0
301,273,307,309,0
301,283,308,310,0
301,293,308,311,0
301,302,309,312,0
301,309,310,313,0
300,315,310,313,0
300,317,309,313,0
300,318,308,313,0
300,317,308,313,0
301,315,307,313,0
301,311,308,314,0
303,307,309,314,0
303,303,309,313,0
304,300,309,312,0
305,299,309,310,0
305,305,307,307,0
304,315,307,304,0
304,326,306,302,0
304,339,306,301,0
304,351,306,301,0
305,356,306,301,0
305,354,306,303,0
306,344,306,305,0
306,327,307,307,0
306,308,307,309,0
305,291,307,310,0
303,279,307,309,0
301,274,307,308,0
299,278,307,308,0
298,284,307,308,0
298,289,306,308,0
298,289,306,309,0
299,288,306,309,0
300,288,306,309,0
300,288,307,309,0
301,289,307,308,0
301,291,307,308,0
301,294,306,307,0
301,298,305,307,0
300,301,303,308,0
300,302,302,310,0
301,303,301,311,0
303,304,301,313,0
305,308,301,314,0
307,317,302,315,0
309,327,303,315,0
310,336,304,314,0
310,340,304,313,0
310,335,304,312,0
309,324,303,310,0
308,314,303,309,0
308,308,302,309,0
308,307,301,311,0
308,305,300,313,0
307,300,297,313,0
307,292,296,312,0
306,284,296,311,0
306,278,298,311,0
307,279,300,310,0
308,292,301,310,0
309,313,303,310,0
310,339,305,310,0
309,357,306,310,0
307,358,305,308,0
305,344,303,307,0
304,326,302,305,0
303,311,301,305,0
303,301,301,305,0
304,296,302,306,0
304,295,304,307,0
305,297,306,308,0
305,300,310,309,0
305,303,312,311,0
305,305,314,312,0
305,304,314,313,0
305,301,313,314,0
305,298,312,315,0
306,297,310,316,0
307,297,309,317,0
307,298,308,317,0
307,299,306,317,0
306,300,305,315,0
305,303,304,313,0
305,308,304,312,0
305,316,304,310,0
305,326,303,308,0
306,333,303,307,0
307,335,303,306,0
307,326,303,305,0
307,308,303,306,0
307,289,303,307,0
308,273,304,308,0
309,264,304,308,0
309,264,304,308,0
309,273,303,308,0
308,285,302,306,0
307,296,301,304,0
305,305,300,302,0
305,316,300,301,0
304,324,300,300,0
304,329,301,300,0
304,331,302,300,0
304,330,303,301,0
304,328,304,302,0
304,326,303,303,0
303,328,303,305,0
304,333,303,308,0
304,338,304,310,0
305,337,304,310,0
306,330,305,311,0
307,321,306,311,0
308,310,307,312,0
310,296,307,311,0
311,283,307,311,0
311,276,306,309,0
311,276,305,308,0
310,278,304,308,0
309,284,303,307,0
307,289,302,306,0
306,295,301,306,0
305,299,301,306,0
305,304,301,306,0
306,311,302,307,0
306,321,303,309,0
307,329,304,310,0
307,334,305,311,0
307,330,305,311,0
306,318,305,309,0
306,308,305,308,0
306,309,305,308,0
306,321,305,308,0
306,331,305,308,0
306,333,304,310,0
306,327,303,311,0
306,315,302,312,0
305,300,300,313,0
304,286,299,314,0
304,275,298,314,0
303,269,297,314,0
303,270,296,313,0
302,274,296,313,0
302,280,295,313,0
302,287,296,314,0
303,296,297,314,0
304,306,299,315,0
304,313,301,315,0
303,316,303,314,0
303,317,305,314,0
304,318,306,313,0
304,318,306,313,0
304,317,306,312,0
304,315,305,311,0
304,311,303,310,0
305,308,302,310,0
306,308,301,309,0
306,311,301,308,0
306,314,301,308,0
305,318,301,307,0
304,324,301,306,0
302,326,302,307,0
301,324,302,307,0
300,317,302,307,0
299,307,302,307,0
299,296,302,307,0
298,287,301,308,0
298,283,301,308,0
299,284,301,308,0
300,290,301,308,0
301,303,301,309,0
302,320,301,310,0
303,337,302,311,0
304,352,304,311,0
303,364,307,310,0
303,368,309,309,0
302,361,310,307,0
301,345,309,305,0
300,326,308,303,0
299,306,307,302,0
299,289,306,301,0
299,277,304,299,0
298,269,302,298,0
297,265,300,297,0
297,262,298,298,0
296,262,296,298,0
295,263,295,300,0
295,265,296,302,0
296,267,298,303,0
298,269,300,304,0
300,272,302,304,0
301,276,304,304,0
302,284,305,304,0
303,292,307,305,0
304,298,308,306,0
305,301,308,307,0
305,302,308,306,0
304,304,307,306,0
304,307,307,307,0
304,311,306,307,0
303,312,306,308,0
303,309,306,308,0
304,302,307,310,0
304,290,308,312,0
305,275,308,312,0
306,263,309,311,0
306,259,309,312,0
307,266,309,313,0
307,284,309,315,0
307,306,309,317,0
305,323,307,318,0
303,332,306,318,0
301,335,304,317,0
299,335,304,316,0
299,332,303,315,0
299,326,302,315,0
299,320,302,315,0
300,316,302,315,0
301,314,302,315,0
302,312,302,316,0
302,312,301,316,0
303,314,300,315,0
303,320,298,314,0
303,324,296,312,0
302,321,295,311,0
301,309,294,310,0
300,294,296,309,0
300,280,297,309,0
300,270,299,309,0
301,268,301,310,0
301,273,302,311,0
301,288,302,311,0
301,316,302,313,0
302,346,303,314,0
302,367,304,316,0
303,375,305,317,0
303,370,307,318,0
303,355,307,317,0
303,336,308,316,0
302,319,308,314,0
300,303,307,313,0
299,290,307,313,0
297,281,306,312,0
296,278,305,312,0
295,278,304,312,0
295,279,304,313,0
294,283,304,314,0
294,292,304,314,0
294,306,304,314,0
295,320,303,313,0
296,330,303,312,0
297,332,303,310,0
297,325,304,309,0
298,313,304,308,0
298,299,305,308,0
298,287,305,308,0
298,279,304,308,0
298,274,303,308,0
299,273,302,309,0
299,274,302,309,0
300,276,302,310,0
301,277,302,311,0
302,277,303,311,0
304,278,303,310,0
305,282,303,310,0
306,291,303,309,0
307,305,304,309,0
306,322,303,309,0
305,336,302,309,0
303,343,302,309,0
300,341,302,308,0
298,333,303,307,0
297,323,303,306,0
297,311,304,305,0
297,300,303,305,0
297,293,303,304,0
297,290,303,304,0
298,292,303,304,0
298,298,303,303,0
299,305,303,302,0
299,310,303,301,0
301,312,302,300,0
302,313,302,300,0
304,311,301,301,0
305,309,302,302,0
306,313,302,303,0
307,321,302,305,0
306,328,303,307,0
306,328,306,310,0
304,321,309,312,0
304,310,313,312,0
303,302,315,313,0
303,298,315,312,0
303,297,314,312,0
303,300,313,312,0
304,305,313,312,0
304,308,312,313,0
305,308,313,314,0
305,306,313,315,0
305,305,313,315,0
305,304,313,314,0
304,303,312,313,0
304,300,312,312,0
304,298,311,311,0
304,297,310,311,0
304,296,309,311,0
303,295,307,311,0
302,296,306,309,0
302,298,305,309,0
302,301,304,309,0
303,303,304,309,0
303,304,305,309,0
304,305,306,309,0
305,307,307,309,0
305,310,307,308,0
305,314,308,307,0
304,319,308,307,0
304,323,309,307,0
304,324,310,307,0
303,319,310,307,0
302,308,310,307,0
303,294,310,306,0
304,281,310,306,0
305,273,309,307,0
307,270,309,308,0
309,275,308,310,0
310,287,308,311,0
309,302,308,312,0
309,317,307,312,0
308,329,307,311,0
306,334,306,310,0
304,330,306,308,0
302,319,306,307,0
302,309,306,306,0
302,304,307,305,0
302,304,308,305,0
305,306,309,305,0
307,309,310,305,0
309,310,310,305,0
309,308,310,304,0
309,304,310,303,0
310,299,310,302,0
310,296,310,301,0
310,296,310,300,0
310,300,310,300,0
310,305,310,300,0
309,306,310,301,0
308,302,310,301,0
307,300,310,302,0
307,304,310,303,0
308,310,310,304,0
308,317,310,306,0
309,320,310,307,0
308,317,310,308,0
308,307,311,308,0
306,296,311,308,0
306,288,311,307,0
306,285,311,307,0
307,286,311,306,0
307,290,310,306,0
307,295,310,306,0
308,296,310,306,0
310,294,309,305,0
310,288,308,303,0
310,283,307,300,0
309,284,307,298,0
309,292,308,297,0
308,304,309,298,0
307,315,309,299,0
307,322,308,299,0
306,322,307,299,0
306,320,306,298,0
306,318,306,299,0
307,317,307,301,0
308,315,308,303,0
309,310,308,303,0
309,305,308,303,0
310,301,308,303,0
310,297,308,302,0
310,296,307,301,0
310,297,308,301,0
311,301,308,301,0
311,307,308,301,0
310,313,308,301,0
310,316,308,301,0
310,319,308,302,0
310,319,308,302,0
310,319,309,304,0
309,318,310,306,0
309,316,310,307,0
309,313,310,308,0
308,317,310,310,0
308,328,310,311,0
309,340,310,313,0
309,348,310,313,0
308,346,309,313,0
307,334,307,312,0
306,317,304,311,0
305,299,302,309,0
304,284,301,308,0
304,274,302,306,0
304,272,303,305,0
304,276,304,305,0
304,284,305,305,0
304,291,306,305,0
304,298,307,304,0
304,302,308,304,0
303,305,309,303,0
302,309,310,303,0
302,316,310,303,0
302,323,310,304,0
302,328,310,304,0
302,324,309,305,0
302,314,309,305,0
302,299,308,305,0
304,286,308,304,0
304,275,308,304,0
305,269,309,303,0
305,268,310,302,0
305,274,310,302,0
305,285,310,302,0
306,299,309,302,0
306,313,309,303,0
308,326,309,304,0
310,341,310,306,0
312,353,310,308,0
313,356,311,310,0
312,350,311,310,0
312,340,310,310,0
313,331,310,310,0
313,322,310,310,0
312,312,310,310,0
311,302,310,309,0
310,293,309,309,0
309,289,308,307,0
308,289,307,307,0
308,292,307,306,0
308,298,307,307,0
307,306,308,307,0
307,313,308,307,0
306,318,308,305,0
305,319,307,303,0
305,317,307,301,0
306,315,306,300,0
306,314,306,299,0
306,313,306,300,0
306,313,305,300,0
306,309,303,302,0
306,305,303,304,0
306,303,304,307,0
307,301,306,308,0
307,299,308,308,0
306,296,308,308,0
306,294,309,308,0
306,293,308,308,0
307,294,308,307,0
308,297,308,306,0
309,304,309,304,0
310,313,308,303,0
310,323,308,302,0
310,332,308,302,0
310,335,307,301,0
309,332,305,301,0
309,333,305,302,0
310,339,305,304,0
311,346,305,306,0
312,352,307,307,0
313,352,308,309,0
313,340,309,308,0
312,319,309,306,0
310,299,309,305,0
309,284,309,305,0
308,276,308,306,0
307,273,305,308,0
306,272,303,309,0
306,272,300,310,0
306,274,299,310,0
306,278,299,311,0
307,281,299,310,0
307,284,301,310,0
307,285,302,309,0
307,284,303,308,0
307,283,303,308,0
307,283,303,308,0
307,284,303,308,0
307,289,302,308,0
307,296,302,308,0
308,305,302,310,0
308,317,304,312,0
309,331,305,313,0
310,345,307,315,0
311,358,308,315,0
312,363,309,315,0
311,358,309,313,0
310,346,309,312,0
310,334,309,311,0
309,321,308,309,0
307,306,306,307,0
306,293,305,305,0
306,281,304,304,0
306,272,303,303,0
306,266,303,303,0
307,264,303,303,0
308,265,303,303,0
308,269,304,303,0
309,278,304,302,0
310,290,305,302,0
310,302,305,301,0
310,313,304,301,0
309,319,303,300,0
308,320,303,300,0
308,317,303,300,0
307,318,304,301,0
307,322,304,302,0
308,328,305,303,0
309,334,306,304,0
309,337,306,305,0
309,333,307,307,0
308,324,308,309,0
307,317,308,310,0
307,311,309,310,0
306,307,308,309,0
306,307,307,307,0
306,311,307,307,0
307,316,307,308,0
309,321,307,309,0
311,324,308,311,0
313,323,307,311,0
312,318,307,310,0
310,309,306,308,0
308,299,305,307,0
308,293,304,306,0
309,290,304,306,0
310,290,304,305,0
311,295,304,306,0
312,305,304,307,0
311,316,303,307,0
311,328,303,307,0
309,335,302,307,0
308,332,302,307,0
308,321,301,307,0
308,308,301,306,0
308,296,302,305,0
308,287,303,305,0
308,282,303,304,0
308,280,304,304,0
308,281,306,304,0
308,284,307,304,0
308,288,309,304,0
309,289,310,304,0
310,285,310,304,0
311,277,310,303,0
312,271,310,303,0
312,267,310,304,0
313,267,310,304,0
313,274,310,305,0
313,288,309,307,0
314,305,309,309,0
313,318,308,310,0
312,324,307,310,0
310,325,306,310,0
309,324,306,310,0
307,321,306,311,0
307,320,307,311,0
307,324,308,312,0
307,333,309,314,0
307,347,310,316,0
308,361,310,319,0
308,370,310,321,0
308,367,310,321,0
307,354,309,320,0
306,339,308,318,0
306,326,306,315,0
306,319,305,313,0
308,319,304,311,0
309,327,305,311,0
310,336,306,311,0
311,340,307,311,0
312,336,307,310,0
312,321,307,309,0
310,303,305,309,0
307,289,304,309,0
305,284,304,309,0
303,282,304,309,0
300,281,304,308,0
297,280,303,306,0
295,281,302,305,0
295,283,302,305,0
296,286,302,307,0
297,287,302,308,0
298,288,302,308,0
299,288,301,309,0
301,290,300,309,0
303,294,299,310,0
305,301,300,311,0
306,311,301,311,0
306,321,302,312,0
307,327,302,311,0
307,325,303,310,0
307,313,304,309,0
308,296,306,309,0
309,279,307,308,0
308,266,307,308,0
307,258,307,307,0
307,259,307,307,0
307,270,307,308,0
306,288,306,308,0
304,304,305,308,0
302,312,303,306,0
301,311,301,304,0
300,306,300,303,0
300,302,299,304,0
300,300,298,306,0
300,301,298,308,0
300,304,298,310,0
301,310,299,312,0
302,318,300,313,0
303,327,301,314,0
305,332,302,313,0
306,333,302,313,0
306,328,302,311,0
305,318,300,309,0
304,306,299,307,0
304,294,298,305,0
304,283,298,303,0
304,273,297,301,0
305,268,297,300,0
307,267,298,300,0
309,275,299,300,0
311,291,300,301,0
312,310,302,302,0
314,328,303,304,0
314,340,305,305,0
313,340,305,306,0
311,331,304,304,0
307,319,302,304,0
304,311,300,303,0
301,306,300,304,0
299,305,302,305,0
299,305,305,306,0
300,308,308,307,0
301,310,311,309,0
302,312,311,309,0
302,313,311,308,0
302,312,309,308,0
302,314,309,307,0
303,318,308,308,0
305,326,309,309,0
307,338,309,311,0
308,349,308,312,0
308,349,307,312,0
306,337,306,310,0
303,320,304,308,0
301,305,304,306,0
300,292,303,305,0
300,282,304,304,0
301,276,304,302,0
302,273,305,302,0
303,274,305,301,0
304,277,305,301,0
304,283,305,301,0
303,290,305,302,0
303,298,305,303,0
303,304,305,304,0
304,311,305,305,0
305,321,305,307,0
307,333,305,309,0
308,346,306,310,0
309,357,306,311,0
310,360,306,311,0
311,351,306,309,0
311,329,305,307,0
310,302,304,305,0
309,280,304,305,0
308,264,304,306,0
308,258,305,307,0
308,261,305,309,0
307,274,305,310,0
306,291,304,312,0
305,303,303,312,0
303,308,302,310,0
301,309,302,309,0
301,310,302,307,0
301,312,303,307,0
302,316,304,307,0
303,319,305,307,0
304,319,305,308,0
304,316,306,308,0
305,311,307,308,0
306,309,307,308,0
307,312,306,309,0
309,321,306,310,0
310,334,306,311,0
311,344,305,311,0
311,342,304,311,0
310,329,303,311,0
309,309,303,311,0
308,291,303,311,0
307,281,303,311,0
307,277,304,311,0
306,275,305,309,0
306,275,305,307,0
304,278,305,305,0
304,285,306,303,0
303,297,306,303,0
303,311,307,304,0
302,325,308,305,0
302,333,308,307,0
302,332,308,308,0
303,325,307,308,0
302,317,307,308,0
303,309,306,307,0
303,303,305,306,0
303,300,303,306,0
303,299,303,305,0
304,300,302,305,0
304,305,302,306,0
304,313,302,308,0
304,326,303,310,0
305,337,303,311,0
306,344,303,310,0
308,346,303,310,0
309,344,303,310,0
311,340,303,310,0
312,333,303,310,0
312,325,303,309,0
310,317,303,308,0
309,308,303,308,0
307,299,304,307,0
305,289,307,306,0
303,281,309,305,0
302,278,311,304,0
302,278,312,304,0
301,280,312,304,0
302,279,311,304,0
303,274,309,304,0
303,265,308,304,0
304,252,306,304,0
305,239,306,303,0
306,230,306,302,0
307,229,306,302,0
308,237,305,301,0
307,254,305,301,0
306,278,303,301,0
305,305,302,302,0
304,331,302,304,0
305,356,304,306,0
306,377,306,307,0
307,389,307,307,0
306,389,307,306,0
304,379,308,305,0
302,363,308,303,0
301,348,309,303,0
301,335,310,304,0
302,324,310,305,0
302,313,310,306,0
301,302,309,306,0
299,294,308,306,0
298,288,308,306,0
297,288,308,306,0
297,288,308,308,0
298,291,309,309,0
299,293,309,310,0
299,293,309,311,0
300,290,308,311,0
301,286,307,310,0
302,282,307,308,0
304,281,308,308,0
305,284,308,308,0
306,289,308,309,0
306,298,309,309,0
306,308,308,310,0
306,317,308,311,0
307,325,308,312,0
307,328,308,312,0
307,324,307,310,0
307,314,306,307,0
307,303,304,304,0
307,295,303,302,0
307,294,302,301,0
307,302,302,301,0
307,315,303,301,0
308,325,303,302,0
307,326,304,304,0
308,317,304,305,0
307,305,304,306,0
307,296,305,306,0
307,294,305,307,0
306,297,304,307,0
306,302,304,306,0
306,307,304,306,0
307,308,303,306,0
308,302,303,307,0
310,294,303,307,0
310,286,302,307,0
311,282,302,308,0
312,281,303,309,0
314,284,304,310,0
315,289,306,310,0
314,298,308,310,0
311,313,308,311,0
308,330,307,311,0
305,343,307,310,0
304,351,306,310,0
304,352,306,310,0
304,348,305,310,0
305,341,305,310,0
306,334,305,310,0
306,324,304,310,0
306,311,303,309,0
305,296,303,308,0
304,283,304,308,0
304,274,304,307,0
304,269,304,306,0
304,267,305,306,0
305,270,304,305,0
305,275,304,304,0
306,280,303,305,0
307,288,303,305,0
308,295,303,306,0
309,301,303,306,0
309,303,303,306,0
311,303,303,306,0
312,302,304,307,0
312,303,306,308,0
313,304,307,307,0
312,307,309,307,0
311,310,309,306,0
309,312,310,305,0
308,317,310,305,0
308,323,310,306,0
308,329,310,305,0
308,332,310,306,0
309,331,310,306,0
308,321,310,306,0
307,305,309,305,0
306,287,309,305,0
306,273,309,304,0
306,267,309,303,0
307,268,309,303,0
309,276,309,303,0
310,287,309,304,0
311,299,309,305,0
312,309,308,307,0
312,318,306,310,0
313,327,304,311,0
313,333,304,312,0
314,338,304,312,0
314,344,304,311,0
315,345,305,311,0
314,335,307,309,0
312,320,310,307,0
311,310,313,305,0
310,304,315,304,0
310,302,316,305,0
310,301,317,306,0
310,298,317,306,0
309,295,317,306,0
308,293,316,306,0
308,292,315,306,0
307,290,313,305,0
308,290,312,305,0
309,292,312,306,0
309,295,312,307,0
308,297,311,308,0
307,297,311,309,0
306,295,311,310,0
307,296,311,310,0
307,301,312,308,0
309,311,312,306,0
311,323,310,305,0
311,332,307,303,0
310,334,305,301,0
307,328,304,300,0
305,318,304,300,0
305,307,305,301,0
306,295,306,301,0
307,285,307,301,0
309,273,308,301,0
309,265,308,300,0
308,260,308,299,0
308,263,308,298,0
307,272,308,298,0
306,289,308,298,0
305,307,308,298,0
304,324,308,299,0
304,332,308,301,0
305,333,309,302,0
306,328,308,303,0
306,321,308,305,0
307,315,308,307,0
307,309,308,308,0
308,303,308,310,0
308,298,309,311,0
308,294,309,312,0
307,291,309,311,0
307,290,308,311,0
306,290,308,310,0
306,290,307,309,0
307,289,307,309,0
307,289,307,308,0
308,290,308,307,0
310,291,309,306,0
311,296,310,306,0
312,307,310,306,0
313,326,310,307,0
313,342,310,307,0
312,349,309,308,0
310,345,308,308,0
308,332,308,309,0
306,315,309,310,0
305,298,309,310,0
304,287,309,310,0
303,282,309,309,0
302,283,308,308,0
302,289,307,307,0
301,297,305,307,0
302,306,304,306,0
303,314,304,307,0
303,322,303,308,0
304,328,304,310,0
304,334,304,311,0
305,341,306,312,0
306,345,309,312,0
308,348,311,313,0
309,349,313,313,0
309,341,315,313,0
309,321,315,311,0
307,297,314,310,0
305,278,313,308,0
304,269,312,308,0
304,267,312,307,0
303,270,311,306,0
303,272,311,304,0
303,273,311,303,0
303,275,311,303,0
304,279,311,303,0
303,283,310,302,0
302,287,309,301,0
300,291,308,300,0
300,296,308,298,0
299,301,309,297,0
299,307,310,297,0
300,314,312,298,0
302,319,313,300,0
303,319,313,303,0
304,313,313,305,0
304,306,312,307,0
305,300,311,308,0
306,298,311,309,0
307,299,312,310,0
308,303,313,310,0
308,305,315,311,0
308,303,316,310,0
309,297,316,310,0
309,292,315,309,0
309,295,314,309,0
309,305,312,309,0
310,319,310,310,0
310,329,309,310,0
309,331,308,310,0
308,323,307,309,0
307,310,306,308,0
306,298,306,307,0
306,291,305,307,0
306,290,304,306,0
307,294,304,306,0
308,300,303,306,0
308,304,303,306,0
308,303,303,306,0
309,301,302,306,0
308,297,302,305,0
307,291,303,305,0
306,288,303,304,0
306,285,304,303,0
305,286,304,302,0
305,289,304,301,0
305,297,303,302,0
306,307,304,303,0
306,317,304,305,0
307,324,303,308,0
307,328,303,309,0
307,327,303,310,0
307,324,304,310,0
307,321,305,311,0
307,320,306,311,0
307,318,306,310,0
307,313,307,309,0
307,304,307,308,0
307,294,307,308,0
306,286,307,306,0
305,282,307,306,0
305,280,306,306,0
305,282,306,306,0
305,290,305,306,0
304,302,305,306,0
304,317,305,307,0
303,331,304,307,0
302,339,304,308,0
302,338,304,307,0
303,329,303,307,0
303,321,304,307,0
304,318,304,307,0
305,319,305,308,0
307,323,306,308,0
308,322,307,307,0
308,319,306,305,0
307,314,306,304,0
306,310,306,304,0
305,308,305,305,0
304,307,304,307,0
303,308,304,307,0
302,306,303,308,0
301,302,302,307,0
300,297,302,306,0
300,295,302,305,0
301,298,302,306,0
302,305,303,306,0
304,311,304,307,0
305,313,304,307,0
306,309,304,306,0
305,301,303,306,0
304,297,303,306,0
305,295,304,308,0
307,293,305,309,0
309,292,307,310,0
311,293,308,312,0
313,292,307,313,0
311,289,306,313,0
309,286,304,311,0
305,284,303,310,0
302,285,302,309,0
300,290,302,309,0
299,296,302,310,0
299,302,303,310,0
299,307,303,310,0
300,310,303,310,0
301,310,302,309,0
301,310,301,309,0
300,312,300,308,0
300,315,299,307,0
300,317,299,308,0
300,317,299,308,0
300,316,300,308,0
301,315,301,308,0
302,313,302,309,0
303,312,303,309,0
303,309,304,310,0
304,306,305,310,0
304,307,306,310,0
304,312,307,310,0
304,322,308,309,0
303,333,308,309,0
303,341,309,308,0
303,340,310,307,0
303,330,310,307,0
303,318,310,307,0
304,307,310,307,0
304,300,309,308,0
305,293,309,309,0
306,288,308,310,0
307,285,308,311,0
308,285,307,311,0
309,293,308,312,0
310,309,309,313,0
310,327,311,314,0
310,344,313,314,0
311,355,314,315,0
310,356,314,315,0
309,343,313,315,0
307,324,312,315,0
305,304,310,315,0
304,289,308,315,0
303,282,306,316,0
303,281,306,316,0
302,284,305,316,0
301,289,305,315,0
301,293,305,313,0
300,294,305,312,0
301,292,305,311,0
302,288,304,309,0
302,282,304,308,0
303,279,304,308,0
303,279,304,308,0
304,283,304,308,0
305,289,304,309,0
306,295,304,310,0
306,296,304,310,0
306,295,305,310,0
307,293,306,309,0
307,293,308,309,0
308,295,310,308,0
309,300,312,307,0
309,307,312,307,0
310,316,313,307,0
311,324,314,307,0
312,330,314,305,0
312,331,314,305,0
311,326,313,305,0
310,317,313,305,0
308,306,312,305,0
307,298,312,305,0
306,293,311,305,0
304,293,310,305,0
303,297,308,306,0
302,305,307,306,0
301,313,306,306,0
301,322,305,306,0
301,332,305,306,0
301,340,306,306,0
301,346,307,305,0
302,349,307,305,0
302,349,308,306,0
303,341,309,307,0
303,328,310,307,0
303,313,310,306,0
304,302,310,305,0
305,295,311,306,0
306,293,311,307,0
307,295,312,308,0
308,298,312,310,0
308,303,312,310,0
309,308,312,311,0
309,315,311,311,0
309,323,310,311,0
309,333,310,311,0
309,338,309,311,0
310,335,309,312,0
310,326,309,313,0
310,316,309,315,0
310,306,308,317,0
310,298,308,317,0
308,293,307,316,0
306,290,306,314,0
304,289,305,313,0
303,286,303,310,0
303,279,302,307,0
303,271,301,305,0
305,265,301,304,0
307,263,301,303,0
310,266,301,303,0
312,274,301,304,0
314,284,301,305,0
315,296,300,307,0
314,309,298,310,0
312,327,297,312,0
312,346,299,313,0
313,363,304,313,0
314,377,308,313,0
312,379,310,311,0
308,365,310,309,0
304,341,309,308,0
301,318,308,307,0
299,299,307,307,0
298,284,306,306,0
298,270,305,305,0
298,255,305,304,0
300,244,304,303,0
302,240,304,303,0
304,243,303,303,0
306,253,303,303,0
308,268,303,304,0
308,283,302,304,0
308,295,301,305,0
308,306,301,306,0
307,313,302,307,0
305,317,303,308,0
304,318,305,308,0
303,319,308,308,0
303,320,310,308,0
303,323,312,309,0
304,325,313,310,0
304,327,313,311,0
304,329,311,312,0
303,331,309,311,0
303,332,308,310,0
303,334,307,308,0
304,335,306,305,0
304,334,306,302,0
304,328,305,299,0
304,319,305,297,0
303,309,304,297,0
303,299,304,297,0
304,292,305,299,0
304,290,306,302,0
304,286,306,304,0
304,281,307,305,0
304,278,307,306,0
304,279,308,307,0
304,284,308,308,0
303,291,308,308,0
303,300,308,307,0
302,311,308,306,0
302,323,308,305,0
302,335,308,305,0
303,342,308,305,0
302,343,308,305,0
302,336,308,306,0
302,324,308,307,0
303,314,308,307,0
303,304,308,308,0
303,295,308,307,0
303,287,309,307,0
303,283,310,307,0
305,285,310,307,0
306,293,309,307,0
308,305,308,308,0
308,316,308,308,0
308,323,308,308,0
307,320,307,307,0
305,310,306,306,0
304,300,305,305,0
303,293,304,305,0
302,291,302,304,0
302,292,301,304,0
302,295,301,304,0
303,298,301,304,0
303,302,301,304,0
304,304,301,305,0
303,304,301,305,0
303,301,301,305,0
303,300,300,304,0
304,306,300,304,0
305,320,300,305,0
306,338,301,306,0
307,353,302,307,0
307,359,303,308,0
306,348,303,309,0
306,326,303,310,0
306,305,302,312,0
307,290,301,314,0
308,282,301,316,0
309,278,302,318,0
311,279,304,319,0
312,283,306,319,0
313,292,308,318,0
312,303,309,316,0
310,310,309,313,0
307,308,308,310,0
305,300,306,307,0
303,293,306,304,0
303,290,306,303,0
302,293,306,302,0
302,297,306,303,0
302,301,306,304,0
303,304,306,306,0
303,302,306,307,0
304,297,306,307,0
305,289,305,307,0
307,280,306,305,0
308,271,307,304,0
309,267,308,304,0
310,275,310,304,0
311,294,311,305,0
312,321,312,307,0
313,347,312,309,0
313,363,311,310,0
311,365,310,309,0
310,354,309,308,0
307,336,309,306,0
304,317,308,305,0
302,304,308,304,0
302,297,308,304,0
303,300,308,305,0
303,310,307,305,0
304,323,306,306,0
305,334,306,306,0
305,342,307,305,0
305,345,307,305,0
304,341,307,304,0
303,328,307,305,0
303,311,307,306,0
303,295,308,308,0
303,284,309,309,0
304,277,309,310,0
304,272,309,310,0
304,268,309,310,0
304,266,309,310,0
304,265,309,310,0
304,265,308,309,0
304,269,307,309,0
305,279,306,309,0
305,289,306,310,0
306,297,306,311,0
306,301,307,312,0
305,305,306,312,0
304,307,306,312,0
303,309,305,312,0
303,310,305,311,0
303,312,306,311,0
303,315,307,311,0
304,319,307,312,0
306,324,308,313,0
308,329,308,314,0
309,329,307,314,0
309,320,306,314,0
309,308,306,312,0
309,296,305,310,0
309,286,305,307,0
309,281,304,305,0
309,279,302,304,0
308,282,301,303,0
307,287,300,302,0
305,295,300,302,0
304,304,301,304,0
303,312,301,305,0
302,316,302,305,0
301,317,304,305,0
301,317,305,306,0
302,319,306,306,0
302,320,307,307,0
303,319,308,308,0
304,319,308,308,0
304,321,308,309,0
305,327,308,310,0
304,333,309,311,0
304,336,309,311,0
304,337,309,311,0
303,334,308,311,0
302,328,307,310,0
302,320,307,309,0
302,311,307,307,0
302,304,307,305,0
302,298,307,304,0
303,294,306,304,0
304,293,305,303,0
304,295,304,304,0
305,302,303,306,0
305,312,302,308,0
306,327,302,308,0
307,346,303,307,0
308,363,306,307,0
309,374,308,307,0
311,370,311,308,0
313,346,313,309,0
314,311,313,310,0
314,280,312,311,0
313,259,311,310,0
310,246,309,309,0
308,240,307,307,0
306,239,305,306,0
305,244,304,306,0
304,254,303,306,0
304,266,302,307,0
303,276,300,307,0
302,284,300,306,0
302,290,300,306,0
302,296,301,306,0
304,302,303,307,0
306,307,304,308,0
308,308,305,309,0
309,306,306,309,0
309,300,306,307,0
310,292,306,305,0
310,285,305,304,0
311,279,305,304,0
311,276,305,303,0
311,277,304,304,0
310,283,302,304,0
308,294,301,305,0
307,307,301,306,0
305,315,301,306,0
305,318,301,307,0
305,316,302,307,0
305,313,302,306,0
305,311,302,306,0
306,314,302,307,0
307,320,303,308,0
307,325,303,308,0
306,328,303,308,0
306,328,303,307,0
305,325,302,305,0
304,321,301,304,0
303,316,301,303,0
303,312,301,301,0
303,308,301,300,0
304,306,301,299,0
306,304,302,299,0
307,301,302,300,0
307,299,302,302,0
307,303,302,303,0
308,317,303,305,0
308,337,304,306,0
309,361,305,308,0
311,384,307,309,0
312,398,309,311,0
312,395,311,312,0
311,375,312,313,0
310,347,312,313,0
308,319,311,312,0
306,298,310,311,0
304,286,309,310,0
303,283,307,308,0
302,283,305,307,0
302,284,303,306,0
302,283,302,305,0
303,284,301,305,0
303,288,301,304,0
303,289,302,304,0
302,290,303,302,0
302,290,303,301,0
302,290,303,300,0
301,290,303,300,0
302,290,304,301,0
302,290,304,302,0
303,289,304,303,0
303,290,305,303,0
304,293,305,304,0
305,297,305,304,0
306,301,304,305,0
307,305,303,305,0
308,308,302,306,0
309,310,301,307,0
310,310,300,309,0
310,308,299,310,0
310,306,300,310,0
310,305,300,311,0
311,305,302,311,0
312,304,303,312,0
312,300,304,312,0
312,292,307,311,0
312,284,310,309,0
310,281,314,307,0
309,282,317,306,0
308,286,318,304,0
307,290,317,303,0
305,294,315,302,0
305,300,313,304,0
306,308,311,305,0
306,319,310,308,0
306,329,309,310,0
305,336,309,311,0
303,343,309,312,0
302,348,308,311,0
301,348,308,310,0
302,345,307,308,0
303,342,307,307,0
304,336,307,306,0
304,332,307,306,0
305,329,307,307,0
305,327,307,307,0
306,321,306,307,0
307,313,306,306,0
307,306,306,306,0
306,297,306,306,0
305,287,305,306,0
304,283,305,306,0
304,282,305,307,0
304,285,305,307,0
304,287,305,306,0
304,288,305,306,0
305,288,305,306,0
307,287,304,307,0
307,286,302,306,0
308,284,299,306,0
307,284,297,306,0
306,287,297,305,0
307,293,299,305,0
308,303,303,306,0
309,315,306,307,0
310,325,307,308,0
309,331,308,308,0
309,331,308,307,0
307,329,308,307,0
307,328,308,309,0
307,324,309,310,0
308,320,310,313,0
309,316,311,315,0
309,309,311,315,0
309,299,311,315,0
309,287,310,313,0
308,276,309,311,0
307,270,308,309,0
307,266,307,308,0
306,266,307,308,0
305,270,306,306,0
304,276,305,304,0
304,286,304,303,0
305,298,304,302,0
305,311,304,303,0
306,321,304,303,0
305,325,303,303,0
304,323,302,301,0
304,316,302,300,0
304,309,302,300,0
304,303,304,300,0
305,302,305,301,0
305,307,307,302,0
306,313,308,303,0
306,319,309,305,0
306,317,309,306,0
305,310,308,307,0
304,304,308,308,0
304,305,307,309,0
304,314,307,311,0
304,326,306,311,0
303,331,306,311,0
302,328,305,309,0
302,319,304,308,0
302,311,304,308,0
302,304,304,307,0
301,299,305,306,0
301,297,305,305,0
301,296,305,305,0
301,297,305,303,0
302,297,304,303,0
302,298,303,303,0
302,300,302,303,0
304,302,301,304,0
305,304,301,305,0
307,305,302,306,0
309,308,303,306,0
310,314,305,306,0
310,320,308,306,0
309,326,311,306,0
308,327,313,306,0
307,318,314,306,0
306,302,314,305,0
305,287,312,303,0
304,276,309,302,0
303,273,306,301,0
303,277,304,301,0
303,283,303,301,0
303,289,302,302,0
302,297,302,303,0
302,305,303,305,0
302,312,304,307,0
303,319,305,309,0
303,329,305,311,0
303,339,305,312,0
303,347,305,312,0
302,349,304,312,0
303,344,305,312,0
304,339,305,312,0
305,335,306,310,0
306,335,306,308,0
306,335,306,308,0
306,336,307,308,0
305,333,307,309,0
304,328,307,310,0
304,319,307,310,0
303,308,306,309,0
303,298,304,307,0
303,292,302,306,0
304,290,301,306,0
304,290,300,306,0
305,293,299,307,0
306,298,299,308,0
308,306,300,310,0
310,315,302,311,0
312,327,304,313,0
314,335,306,314,0
314,333,307,314,0
313,324,308,313,0
312,312,308,312,0
310,298,308,311,0
308,289,306,309,0
306,284,304,307,0
304,282,302,306,0
304,283,300,306,0
305,285,300,306,0
305,289,300,306,0
306,293,301,307,0
307,298,302,307,0
306,302,303,307,0
306,304,303,307,0
305,303,306,307,0
305,300,308,307,0
305,295,310,307,0
304,287,310,306,0
303,282,311,304,0
302,281,312,304,0
302,283,312,303,0
302,287,313,304,0
304,293,312,304,0
305,301,312,305,0
306,308,311,306,0
307,315,310,307,0
308,324,308,309,0
308,331,308,310,0
308,335,306,311,0
306,335,306,311,0
305,331,305,311,0
304,323,304,311,0
304,312,305,311,0
304,300,305,311,0
304,291,305,311,0
305,286,305,311,0
305,286,305,312,0
306,288,305,312,0
307,288,305,312,0
308,289,306,312,0
309,290,307,312,0
309,291,308,311,0
309,292,309,310,0
309,295,308,310,0
308,299,308,309,0
307,302,307,308,0
307,305,306,307,0
307,309,305,307,0
308,317,305,308,0
309,327,304,308,0
311,336,303,309,0
312,340,303,309,0
314,337,302,310,0
315,321,302,311,0
315,298,301,311,0
315,275,301,311,0
315,256,301,310,0
314,247,303,309,0
314,248,305,309,0
313,260,306,310,0
313,279,305,310,0
312,300,304,311,0
310,317,302,311,0
309,326,300,311,0
308,326,298,309,0
306,321,296,308,0
305,314,296,305,0
305,309,296,303,0
305,304,296,300,0
305,299,297,299,0
305,296,297,298,0
307,293,298,298,0
309,294,300,298,0
312,299,301,300,0
314,309,301,301,0
314,319,301,302,0
313,329,301,303,0
312,337,302,303,0
310,339,302,302,0
308,336,303,302,0
307,326,304,301,0
305,314,305,300,0
304,303,305,300,0
303,295,306,301,0
302,289,305,301,0
302,282,305,301,0
302,277,305,300,0
303,277,305,300,0
303,280,306,302,0
304,286,306,303,0
304,293,307,305,0
305,297,307,307,0
305,298,307,307,0
306,297,307,307,0
306,292,307,307,0
307,286,307,307,0
307,282,306,307,0
307,282,306,307,0
307,286,305,307,0
307,293,305,308,0
308,302,305,310,0
309,313,304,310,0
310,321,304,310,0
310,324,303,308,0
309,321,303,306,0
308,318,303,304,0
307,319,302,303,0
306,322,301,301,0
306,325,300,301,0
306,325,300,301,0
307,318,300,302,0
308,308,300,303,0
309,299,302,304,0
309,293,303,306,0
308,289,303,308,0
307,289,303,310,0
307,290,303,312,0
308,294,303,313,0
310,301,304,313,0
310,309,305,314,0
310,316,306,313,0
310,317,306,312,0
308,315,306,309,0
307,313,306,307,0
307,310,306,305,0
307,307,305,304,0
307,307,305,303,0
306,309,304,303,0
305,314,304,303,0
305,319,303,304,0
305,320,303,306,0
305,319,303,307,0
306,317,304,309,0
307,313,305,311,0
307,307,305,311,0
307,300,306,311,0
306,294,307,311,0
306,289,308,311,0
306,283,309,311,0
306,280,310,311,0
306,278,309,310,0
306,281,308,310,0
306,286,307,309,0
305,294,306,309,0
305,300,306,309,0
305,305,305,309,0
304,308,304,309,0
305,311,304,309,0
304,312,304,310,0
305,315,304,310,0
306,323,304,311,0
306,332,304,311,0
307,341,304,311,0
307,347,304,311,0
306,344,304,310,0
306,334,304,308,0
305,319,304,306,0
304,306,303,305,0
305,297,303,305,0
305,296,303,305,0
305,302,302,305,0
304,311,302,304,0
304,319,302,303,0
304,322,303,302,0
304,320,305,302,0
304,316,307,304,0
305,314,308,307,0
306,316,310,310,0
308,321,310,313,0
310,330,311,315,0
311,334,312,317,0
311,331,311,318,0
310,323,311,318,0
309,314,311,318,0
309,302,310,317,0
308,287,309,316,0
308,272,309,315,0
309,259,309,315,0
309,250,308,314,0
309,247,306,313,0
309,250,306,311,0
307,259,306,309,0
305,273,307,309,0
303,289,309,308,0
301,305,309,307,0
300,318,310,306,0
300,327,310,306,0
301,332,309,307,0
302,330,308,306,0
302,323,308,306,0
303,316,307,306,0
303,309,307,306,0
304,304,307,306,0
305,299,307,307,0
305,296,307,308,0
306,293,307,310,0
307,291,308,312,0
307,289,308,312,0
306,291,308,312,0
306,296,309,312,0
306,304,309,312,0
306,315,309,312,0
307,324,310,311,0
309,328,310,311,0
310,326,310,310,0
310,323,310,310,0
309,319,310,310,0
306,312,309,309,0
304,305,309,308,0
301,299,309,308,0
301,295,308,309,0
301,290,308,309,0
301,287,308,309,0
302,286,308,309,0
303,288,308,310,0
304,294,308,310,0
304,300,308,311,0
304,305,308,312,0
304,309,308,312,0
304,313,309,312,0
304,320,309,311,0
304,329,309,310,0
305,336,308,310,0
305,339,307,309,0
305,333,306,308,0
306,321,306,307,0
307,308,305,307,0
308,298,306,307,0
309,293,306,307,0
309,294,307,308,0
308,297,307,308,0
307,300,306,309,0
307,300,306,309,0
307,299,305,310,0
307,299,306,310,0
307,303,307,311,0
307,311,309,311,0
308,320,311,311,0
308,328,311,310,0
308,332,311,308,0
310,334,311,307,0
312,336,311,306,0
314,338,311,307,0
315,334,310,307,0
314,320,308,307,0
310,304,306,305,0
307,294,304,305,0
304,290,302,305,0
301,288,300,305,0
300,289,299,304,0
299,290,299,303,0
299,292,299,302,0
300,294,300,302,0
301,296,301,302,0
302,298,302,303,0
303,299,303,304,0
304,299,304,305,0
305,300,305,304,0
306,302,305,304,0
306,305,304,303,0
306,308,305,303,0
306,310,307,304,0
308,310,310,305,0
309,313,312,306,0
309,314,314,307,0
309,311,314,307,0
308,305,312,307,0
307,302,310,307,0
307,301,307,307,0
306,301,305,307,0
306,300,303,307,0
306,300,301,306,0
306,299,299,306,0
305,298,299,306,0
305,297,299,305,0
305,297,301,305,0
305,296,302,304,0
305,296,303,305,0
306,297,303,305,0
307,298,303,306,0
307,300,302,306,0
307,301,302,307,0
307,306,303,307,0
306,314,303,308,0
306,322,304,307,0
305,327,305,307,0
305,325,306,306,0
306,316,306,306,0
306,306,307,306,0
306,298,307,306,0
306,292,308,305,0
305,292,310,304,0
305,300,311,304,0
304,312,310,304,0
304,325,309,304,0
304,336,307,305,0
304,342,306,305,0
304,336,305,306,0
303,321,305,306,0
303,305,305,306,0
303,292,305,305,0
303,283,305,305,0
304,277,305,305,0
306,274,306,306,0
308,272,307,306,0
310,272,308,307,0
311,275,309,308,0
312,282,309,308,0
312,288,309,308,0
311,295,309,309,0
310,304,308,310,0
310,316,308,311,0
309,328,308,312,0
309,340,308,311,0
309,350,308,310,0
310,356,308,309,0
309,356,307,308,0
308,352,306,308,0
306,346,305,309,0
305,338,303,308,0
303,329,301,307,0
302,321,300,305,0
302,318,300,304,0
304,320,300,304,0
306,326,300,305,0
307,329,300,306,0
306,325,299,307,0
306,317,298,307,0
304,309,297,307,0
303,304,297,306,0
302,307,296,305,0
302,317,297,304,0
301,329,298,302,0
300,339,298,301,0
299,341,299,299,0
298,330,299,298,0
298,312,299,298,0
298,295,299,298,0
298,284,300,299,0
299,278,300,300,0
300,276,301,302,0
301,276,302,303,0
301,279,304,304,0
301,282,307,305,0
301,286,309,305,0
301,289,309,305,0
301,291,309,304,0
302,293,308,305,0
303,294,306,304,0
303,295,304,304,0
304,295,302,303,0
303,297,302,302,0
304,297,301,301,0
304,298,302,301,0
304,298,303,301,0
305,297,305,301,0
305,296,307,302,0
306,294,309,303,0
306,292,309,304,0
307,291,309,306,0
307,294,309,309,0
308,300,310,311,0
309,311,311,313,0
309,324,311,314,0
310,333,312,315,0
311,334,312,316,0
312,327,312,315,0
313,312,311,313,0
314,293,311,312,0
314,279,310,312,0
314,275,310,311,0
313,278,309,311,0
311,285,309,310,0
309,297,308,311,0
307,313,307,311,0
306,331,307,312,0
305,347,307,312,0
305,356,308,311,0
304,355,308,310,0
303,348,309,309,0
302,340,309,308,0
301,336,308,307,0
300,336,307,306,0
300,340,306,305,0
301,344,306,305,0
301,343,306,304,0
302,335,306,303,0
302,322,305,302,0
301,307,305,302,0
301,293,305,301,0
302,281,305,300,0
302,275,305,300,0
302,273,305,300,0
303,274,305,301,0
304,278,306,301,0
305,284,306,302,0
306,291,307,302,0
307,298,308,303,0
308,304,309,303,0
308,307,310,304,0
308,307,309,304,0
307,306,309,304,0
306,306,308,304,0
304,306,308,304,0
302,307,308,303,0
301,309,308,303,0
300,311,308,301,0
299,311,308,299,0
299,311,308,297,0
299,306,308,296,0
299,301,308,296,0
300,295,308,296,0
300,291,307,296,0
300,288,306,295,0
299,287,305,295,0
299,288,304,294,0
299,292,304,295,0
300,298,305,296,0
301,306,306,298,0
302,314,308,300,0
302,321,309,302,0
302,324,309,303,0
303,322,309,304,0
303,316,308,304,0
303,311,308,305,0
303,307,307,305,0
303,306,307,305,0
303,311,307,305,0
304,320,308,305,0
304,332,308,305,0
304,342,309,306,0
304,344,310,305,0
304,338,309,305,0
305,333,309,304,0
305,329,309,304,0
305,324,310,304,0
304,317,312,304,0
303,309,314,306,0
303,301,315,307,0
305,295,316,310,0
307,293,316,312,0
310,296,315,314,0
311,300,314,315,0
312,300,313,316,0
312,297,311,315,0
311,291,310,314,0
310,288,309,311,0
307,289,307,308,0
305,295,306,306,0
304,303,305,304,0
304,310,305,303,0
304,314,304,302,0
303,314,304,301,0
303,312,303,300,0
303,309,302,300,0
304,308,301,301,0
304,308,301,302,0
304,310,302,303,0
304,315,303,305,0
304,324,304,307,0
304,335,305,308,0
304,346,306,309,0
304,351,307,309,0
303,346,308,309,0
302,334,309,308,0
302,322,309,306,0
302,312,309,305,0
302,305,309,304,0
302,297,308,303,0
302,290,307,302,0
303,287,307,303,0
303,287,307,304,0
304,288,307,305,0
305,290,307,306,0
305,290,307,306,0
306,291,307,305,0
306,292,307,305,0
306,294,307,306,0
307,298,308,306,0
308,299,310,307,0
308,297,310,306,0
308,291,309,305,0
308,285,308,304,0
307,281,308,303,0
307,286,307,302,0
307,300,305,301,0
308,321,304,300,0
308,340,303,299,0
307,346,302,298,0
306,333,302,298,0
306,310,302,298,0
306,290,303,299,0
307,280,304,301,0
308,281,306,304,0
309,289,307,305,0
309,298,307,307,0
308,304,308,307,0
307,308,307,307,0
306,311,306,308,0
306,313,305,308,0
306,314,306,308,0
307,313,306,309,0
308,308,306,309,0
310,301,305,308,0
310,296,305,308,0
311,293,305,307,0
311,295,304,306,0
310,300,304,306,0
310,307,304,305,0
309,314,303,305,0
309,323,303,304,0
309,333,304,303,0
308,345,305,301,0
308,351,306,301,0
308,349,307,300,0
307,341,307,299,0
306,329,307,297,0
306,319,307,297,0
307,313,307,297,0
308,310,306,299,0
308,309,306,300,0
309,307,306,300,0
308,305,306,300,0
308,302,306,299,0
308,301,306,299,0
307,302,307,298,0
307,304,308,299,0
306,303,309,301,0
306,300,310,302,0
305,297,310,304,0
305,296,310,305,0
305,296,309,305,0
306,297,308,306,0
306,299,308,306,0
306,301,309,306,0
306,303,309,306,0
307,305,309,307,0
307,308,309,306,0
308,311,309,306,0
309,316,309,305,0
310,321,310,304,0
310,326,310,304,0
311,327,309,304,0
311,324,308,305,0
312,318,307,306,0
313,315,307,308,0
313,316,307,309,0
313,319,308,309,0
312,321,310,309,0
311,319,311,308,0
309,310,311,307,0
308,299,311,305,0
308,291,310,305,0
307,287,309,304,0
308,286,307,304,0
307,286,306,303,0
307,289,305,303,0
306,296,304,303,0
305,305,303,303,0
305,315,303,303,0
306,323,303,304,0
307,326,303,305,0
308,324,304,305,0
309,319,305,306,0
310,312,305,307,0
311,306,306,306,0
311,299,306,306,0
311,293,306,305,0
310,288,306,305,0
310,289,306,306,0
310,294,306,306,0
310,298,306,306,0
309,298,305,306,0
308,298,305,306,0
308,297,305,307,0
309,297,305,308,0
310,300,305,308,0
311,302,305,309,0
311,305,305,308,0
312,310,305,308,0
312,315,305,308,0
311,315,305,308,0
310,311,305,308,0
309,305,305,308,0
308,302,305,308,0
309,303,305,309,0
310,306,305,310,0
312,308,305,310,0
313,307,304,309,0
313,300,303,307,0
312,292,302,304,0
311,289,301,301,0
308,289,300,299,0
307,290,299,297,0
306,293,299,297,0
306,295,299,298,0
305,296,300,299,0
306,296,301,300,0
305,297,302,302,0
306,297,302,305,0
306,299,303,309,0
307,302,303,312,0
307,304,303,313,0
307,303,303,314,0
306,301,303,314,0
305,299,304,313,0
304,301,305,313,0
304,306,306,313,0
303,315,307,313,0
303,329,308,315,0
304,345,307,316,0
307,360,305,317,0
309,368,304,317,0
311,369,303,317,0
312,363,302,317,0
312,354,302,316,0
311,342,304,315,0
310,328,305,313,0
309,314,307,312,0
307,302,307,310,0
306,295,307,308,0
305,291,307,308,0
305,287,307,308,0
305,283,306,308,0
304,277,306,307,0
305,272,306,307,0
305,268,306,307,0
305,266,306,307,0
305,266,306,307,0
306,268,306,307,0
306,272,305,308,0
305,280,305,309,0
305,288,305,310,0
306,296,306,312,0
306,305,306,313,0
307,314,307,314,0
307,324,307,315,0
308,332,307,316,0
307,336,307,317,0
306,336,305,316,0
306,334,303,314,0
306,332,303,313,0
308,334,304,313,0
310,335,307,313,0
310,331,310,313,0
310,323,313,313,0
309,316,314,313,0
309,309,314,314,0
308,300,314,314,0
309,291,312,314,0
309,283,311,313,0
309,280,309,311,0
309,282,308,311,0
308,288,306,310,0
308,294,305,309,0
308,299,304,309,0
308,301,303,310,0
307,305,303,310,0
307,311,302,310,0
307,317,302,310,0
308,321,303,310,0
309,319,304,310,0
309,315,305,310,0
308,313,307,310,0
307,314,308,310,0
306,318,308,310,0
306,322,308,310,0
305,321,307,310,0
305,314,307,310,0
305,307,307,309,0
306,301,307,308,0
306,298,308,308,0
306,297,308,307,0
307,295,308,308,0
307,295,309,310,0
308,297,309,311,0
308,299,309,312,0
309,302,308,313,0
308,305,308,314,0
308,307,307,315,0
308,307,307,315,0
308,305,306,315,0
309,302,306,314,0
310,300,307,312,0
311,301,307,311,0
312,302,307,311,0
312,300,306,310,0
312,295,306,309,0
311,295,306,309,0
310,298,307,309,0
308,301,307,308,0
305,303,307,307,0
302,309,308,306,0
300,319,310,307,0
299,330,311,308,0
299,338,312,310,0
300,342,312,312,0
301,340,311,312,0
303,333,309,313,0
304,323,308,313,0
305,313,308,313,0
306,306,307,312,0
306,301,306,312,0
307,298,304,312,0
306,294,304,312,0
306,290,304,312,0
305,287,304,312,0
305,287,305,313,0
305,291,306,313,0
305,303,306,313,0
305,322,307,313,0
305,340,307,312,0
305,349,307,312,0
305,344,308,311,0
305,327,309,309,0
306,311,310,309,0
308,303,312,310,0
310,302,313,312,0
312,304,313,313,0
313,305,312,315,0
312,303,311,315,0
310,295,309,315,0
307,284,306,314,0
304,276,305,314,0
302,273,304,314,0
301,276,304,313,0
299,281,303,313,0
298,287,303,312,0
298,292,303,311,0
297,295,303,309,0
297,296,304,308,0
298,296,303,307,0
298,296,304,307,0
299,295,305,308,0
299,296,306,308,0
300,299,307,310,0
302,304,308,311,0
303,309,309,312,0
304,315,309,312,0
305,318,309,312,0
306,318,309,312,0
307,313,309,311,0
307,306,308,311,0
307,302,307,310,0
307,302,306,309,0
307,306,305,308,0
306,311,304,308,0
306,314,303,308,0
307,316,303,308,0
307,315,302,309,0
308,312,302,309,0
307,312,302,309,0
307,314,302,310,0
307,317,302,311,0
307,316,303,312,0
307,310,303,312,0
307,302,303,313,0
306,300,304,312,0
305,304,306,311,0
305,313,308,311,0
305,324,310,311,0
306,332,312,311,0
306,330,312,312,0
305,320,311,312,0
303,308,310,312,0
302,298,309,312,0
300,292,307,312,0
299,290,306,311,0
299,289,305,310,0
298,287,303,308,0
297,285,302,306,0
296,285,302,304,0
297,285,302,302,0
297,286,303,302,0
299,291,303,302,0
300,299,303,303,0
301,309,304,304,0
303,318,304,306,0
305,322,304,308,0
305,318,304,308,0
305,310,304,308,0
304,303,304,308,0
304,300,303,307,0
304,301,302,306,0
305,304,303,305,0
305,310,305,306,0
305,314,307,307,0
306,317,309,308,0
306,322,310,311,0
308,334,312,314,0
309,351,311,317,0
309,369,311,319,0
309,378,310,320,0
308,373,309,319,0
308,354,308,317,0
307,327,307,315,0
307,299,306,314,0
307,276,306,313,0
307,261,307,312,0
307,253,307,310,0
306,251,306,309,0
306,251,305,308,0
306,253,304,308,0
306,256,304,307,0
305,262,304,306,0
305,272,304,306,0
305,283,303,306,0
305,294,302,306,0
304,302,302,306,0
304,307,302,306,0
303,312,302,306,0
304,318,303,306,0
305,329,304,307,0
306,340,305,308,0
306,341,305,308,0
305,330,305,307,0
304,310,305,307,0
302,287,305,307,0
302,270,305,307,0
303,264,306,307,0
305,265,306,307,0
307,272,306,308,0
308,278,306,307,0
308,281,305,307,0
308,284,304,306,0
308,286,303,306,0
308,290,304,307,0
308,298,304,307,0
307,306,303,308,0
305,314,303,308,0
304,320,303,308,0
302,321,303,308,0
301,320,302,307,0
300,318,302,307,0
300,317,302,307,0
300,316,302,306,0
301,314,302,306,0
301,311,302,306,0
302,310,302,306,0
302,313,302,307,0
304,318,303,308,0
304,325,303,309,0
305,333,303,309,0
306,340,303,309,0
307,343,303,310,0
306,340,303,311,0
306,329,303,311,0
306,316,304,311,0
306,306,305,311,0
306,299,307,310,0
305,297,308,309,0
305,299,309,307,0
305,303,308,307,0
304,305,307,307,0
303,305,306,307,0
303,302,305,307,0
303,299,304,308,0
304,299,302,307,0
304,299,301,307,0
304,300,301,306,0
305,298,302,305,0
305,295,303,305,0
306,296,304,305,0
307,300,305,305,0
307,306,306,305,0
307,310,307,306,0
308,309,307,306,0
308,302,307,307,0
309,297,306,308,0
309,298,305,308,0
309,305,304,307,0
308,314,303,305,0
307,325,303,305,0
307,336,303,305,0
306,342,304,306,0
306,340,305,308,0
306,330,305,309,0
307,313,305,310,0
307,296,305,311,0
307,281,304,311,0
308,269,303,312,0
309,262,303,313,0
310,259,303,312,0
311,257,303,312,0
312,259,303,312,0
312,263,302,312,0
311,270,301,312,0
311,278,300,313,0
310,286,300,314,0
310,294,299,315,0
310,300,299,315,0
309,306,300,315,0
308,309,300,315,0
307,310,301,314,0
305,310,302,314,0
305,310,302,314,0
304,314,303,314,0
304,318,304,313,0
305,320,304,312,0
305,318,304,310,0
305,312,304,308,0
304,307,304,308,0
304,307,304,308,0
304,312,304,310,0
304,321,304,312,0
305,333,304,313,0
305,346,305,314,0
305,358,305,315,0
305,363,305,316,0
304,355,304,316,0
303,336,303,315,0
302,316,302,314,0
301,300,301,314,0
300,289,301,314,0
300,284,300,314,0
300,283,301,314,0
300,284,301,314,0
301,286,301,314,0
301,287,301,314,0
300,286,301,313,0
300,284,302,313,0
301,282,303,313,0
301,281,303,313,0
301,282,303,313,0
302,286,303,314,0
303,294,303,314,0
304,306,304,314,0
305,317,306,314,0
307,323,306,314,0
307,321,307,314,0
307,312,307,314,0
306,300,306,313,0
306,289,307,312,0
307,282,307,311,0
306,278,307,309,0
305,277,307,308,0
304,277,307,308,0
304,277,307,308,0
304,277,308,308,0
304,276,308,309,0
304,277,307,310,0
304,279,307,310,0
303,282,306,310,0
303,285,305,310,0
303,289,305,309,0
302,294,304,309,0
303,301,303,309,0
303,309,304,308,0
304,317,304,308,0
305,323,305,308,0
306,326,307,308,0
307,325,308,309,0
307,320,309,309,0
307,315,311,309,0
308,312,311,310,0
308,314,312,312,0
308,317,312,313,0
307,320,311,313,0
307,321,310,314,0
307,322,309,314,0
308,322,307,314,0
308,321,305,314,0
309,317,303,314,0
309,313,302,314,0
309,308,300,313,0
308,304,298,313,0
307,303,297,312,0
307,308,299,311,0
308,318,302,310,0
310,331,306,310,0
312,342,310,309,0
313,344,314,307,0
312,336,315,305,0
311,323,316,304,0
311,311,314,304,0
309,304,312,304,0
307,304,308,305,0
305,306,305,306,0
304,313,303,309,0
304,323,302,311,0
305,334,301,312,0
305,344,302,313,0
306,348,301,313,0
306,341,301,312,0
305,325,301,311,0
305,307,302,310,0
304,293,303,310,0
304,286,304,309,0
305,284,306,310,0
306,286,308,310,0
307,290,310,311,0
307,295,311,311,0
307,301,311,311,0
307,303,310,311,0
305,301,309,310,0
304,295,308,308,0
303,289,308,307,0
302,284,307,306,0
302,280,306,305,0
302,279,306,305,0
303,278,306,304,0
304,280,306,304,0
306,285,305,304,0
307,293,303,304,0
307,303,303,304,0
308,311,302,304,0
308,318,302,304,0
308,321,301,304,0
308,322,301,304,0
308,322,301,305,0
309,322,302,307,0
309,318,304,308,0
309,313,305,310,0
310,307,306,311,0
310,303,307,310,0
309,300,307,309,0
308,297,307,308,0
308,293,307,306,0
309,289,308,305,0
311,285,308,305,0
312,282,308,305,0
313,285,308,305,0
314,297,308,306,0
314,316,307,306,0
312,338,306,306,0
310,353,305,305,0
307,356,303,305,0
304,348,302,305,0
302,336,302,306,0
301,325,302,306,0
301,317,302,308,0
301,312,303,309,0
301,308,304,311,0
302,307,305,311,0
302,307,305,312,0
302,310,304,312,0
303,312,303,312,0
304,311,302,312,0
304,306,301,312,0
305,299,300,311,0
305,293,299,310,0
305,291,300,309,0
306,296,300,307,0
307,306,301,307,0
309,319,302,306,0
310,327,304,306,0
311,327,306,305,0
310,321,308,304,0
309,310,309,302,0
307,298,310,301,0
307,290,311,300,0
306,287,312,300,0
306,285,313,301,0
305,281,313,302,0
304,276,314,304,0
304,272,314,304,0
305,268,314,305,0
306,266,313,306,0
306,268,312,306,0
307,273,311,308,0
307,281,310,309,0
307,291,310,310,0
306,301,311,310,0
306,309,311,310,0
305,314,311,308,0
303,314,310,306,0
302,312,308,303,0
301,309,305,299,0
301,306,304,296,0
301,303,303,295,0
301,302,304,294,0
300,302,305,294,0
300,305,307,295,0
300,309,308,297,0
301,315,309,300,0
302,320,310,303,0
302,322,310,305,0
302,320,310,306,0
303,319,309,306,0
305,321,308,306,0
307,327,308,306,0
310,334,308,308,0
312,341,310,309,0
313,339,310,310,0
312,331,311,310,0
311,323,311,311,0
310,320,311,311,0
309,323,310,310,0
308,330,310,310,0
308,335,309,311,0
307,333,309,311,0
307,320,308,311,0
307,302,307,310,0
306,286,307,308,0
306,276,306,306,0
304,270,306,304,0
304,267,306,303,0
304,267,306,302,0
304,270,307,302,0
305,274,308,303,0
305,279,309,305,0
306,286,310,306,0
306,289,310,306,0
306,291,310,306,0
305,292,310,305,0
305,295,309,305,0
305,298,308,305,0
305,299,307,305,0
305,304,307,305,0
305,311,307,306,0
305,319,307,306,0
306,324,307,307,0
308,322,308,307,0
309,316,308,308,0
310,312,309,308,0
310,313,309,309,0
309,317,309,310,0
307,316,308,309,0
304,310,308,307,0
300,301,309,304,0
299,292,310,303,0
299,285,311,302,0
300,280,312,303,0
301,277,311,304,0
301,278,310,304,0
302,281,309,305,0
301,286,308,306,0
299,293,307,307,0
298,298,306,307,0
298,302,306,308,0
299,305,307,308,0
300,308,308,308,0
301,312,309,309,0
302,315,310,310,0
304,318,311,311,0
305,321,311,312,0
305,323,311,313,0
305,324,310,314,0
303,324,309,314,0
302,320,309,313,0
302,316,309,312,0
302,314,309,309,0
302,317,308,307,0
303,326,308,306,0
303,335,307,304,0
303,336,306,302,0
304,325,306,299,0
305,309,305,298,0
307,297,305,297,0
308,292,305,297,0
309,295,306,298,0
309,299,307,300,0
309,300,309,303,0
308,297,312,305,0
306,289,314,307,0
305,280,316,309,0
304,275,318,311,0
304,275,317,313,0
304,280,317,313,0
304,289,315,314,0
305,298,313,315,0
306,305,312,316,0
307,316,310,317,0
308,325,310,317,0
308,329,309,316,0
308,327,309,316,0
307,323,310,316,0
305,315,310,315,0
304,306,310,314,0
303,297,309,313,0
303,290,309,313,0
302,286,309,313,0
302,284,309,312,0
303,284,309,312,0
304,282,309,312,0
304,279,309,311,0
303,276,309,310,0
303,272,309,308,0
303,271,309,307,0
303,272,309,308,0
303,277,309,309,0
302,284,309,309,0
302,290,308,309,0
301,294,308,309,0
301,298,307,308,0
301,301,308,308,0
301,303,307,307,0
302,303,307,307,0
303,302,308,307,0
304,300,309,308,0
305,299,309,309,0
305,300,309,310,0
305,304,309,312,0
305,311,309,314,0
305,320,309,314,0
304,332,308,315,0
304,345,308,316,0
303,357,307,316,0
302,365,307,316,0
300,367,306,315,0
299,360,307,314,0
298,345,307,312,0
297,325,307,310,0
298,309,306,308,0
298,302,305,306,0
299,302,304,306,0
299,306,303,306,0
299,313,303,307,0
300,318,303,308,0
302,320,304,309,0
304,319,305,310,0
305,313,305,312,0
307,302,306,314,0
308,294,307,317,0
309,291,307,319,0
309,292,306,320,0
308,298,305,319,0
308,307,305,318,0
308,309,305,317,0
306,303,304,314,0
304,294,304,312,0
303,289,304,309,0
301,288,305,307,0
302,290,304,306,0
302,293,304,306,0
302,293,304,306,0
302,292,304,305,0
302,288,305,305,0
302,284,306,305,0
304,282,308,305,0
305,283,309,305,0
306,287,310,306,0
308,292,311,307,0
309,297,312,308,0
309,299,313,308,0
308,297,313,306,0
305,293,312,305,0
303,289,312,304,0
301,287,312,304,0
301,289,311,305,0
302,292,311,307,0
303,297,311,308,0
305,305,311,311,0
307,318,311,313,0
308,328,311,315,0
308,332,311,316,0
307,329,309,315,0
306,326,308,314,0
306,322,306,312,0
306,317,306,311,0
306,313,306,310,0
307,311,306,311,0
307,311,306,312,0
308,311,306,313,0
309,312,306,313,0
309,313,306,313,0
308,314,307,313,0
309,316,307,314,0
309,319,308,314,0
310,323,308,314,0
310,326,308,314,0
310,324,308,313,0
308,317,307,312,0
306,307,307,311,0
306,300,306,310,0
306,294,306,308,0
306,290,306,307,0
306,290,307,307,0
307,293,306,307,0
307,296,307,308,0
307,300,307,308,0
306,302,307,309,0
305,305,307,309,0
305,309,308,309,0
305,315,307,310,0
306,320,307,310,0
306,324,306,308,0
307,329,305,307,0
309,333,304,307,0
311,336,304,308,0
312,338,305,310,0
312,332,305,310,0
312,317,305,310,0
310,301,305,309,0
309,290,304,308,0
309,285,304,307,0
309,287,304,308,0
311,290,305,308,0
313,293,305,308,0
313,296,306,308,0
313,300,306,307,0
311,307,305,307,0
309,314,304,306,0
306,319,303,306,0
304,320,302,305,0
303,317,302,305,0
302,309,302,306,0
302,302,303,306,0
302,297,303,307,0
302,293,304,307,0
303,290,305,307,0
305,288,306,307,0
306,285,306,308,0
306,283,307,308,0
307,283,307,308,0
306,286,306,308,0
306,292,306,309,0
305,298,304,309,0
305,304,304,309,0
305,311,303,309,0
305,321,304,309,0
304,335,305,309,0
304,352,307,310,0
305,366,309,311,0
305,368,309,312,0
305,355,308,312,0
306,335,305,312,0
306,313,303,311,0
308,294,301,311,0
309,281,300,310,0
310,278,299,311,0
311,284,298,311,0
310,293,297,311,0
309,301,297,309,0
308,309,299,308,0
307,315,300,308,0
307,319,302,307,0
307,320,303,306,0
307,319,303,304,0
306,318,303,302,0
306,318,302,301,0
306,316,302,300,0
306,311,302,301,0
306,303,303,301,0
307,296,304,303,0
309,288,305,304,0
310,282,305,304,0
312,281,306,304,0
312,289,305,303,0
311,301,304,303,0
309,314,303,303,0
308,323,302,305,0
307,321,301,305,0
306,312,300,305,0
306,304,300,304,0
306,297,300,305,0
306,293,300,304,0
306,290,301,305,0
306,291,301,305,0
307,296,302,306,0
308,304,302,307,0
309,310,302,308,0
310,315,302,310,0
310,319,303,311,0
311,322,304,311,0
311,324,305,311,0
311,323,305,311,0
310,318,305,310,0
310,312,305,309,0
310,307,305,309,0
310,304,304,308,0
310,306,304,307,0
310,316,303,307,0
311,334,304,309,0
312,355,304,311,0
313,368,305,312,0
312,366,305,311,0
311,346,305,309,0
310,319,304,308,0
309,297,304,306,0
309,283,305,304,0
308,276,306,303,0
307,272,307,302,0
307,271,307,302,0
306,275,308,302,0
304,281,308,304,0
304,289,308,305,0
303,296,307,307,0
302,301,307,308,0
302,304,307,308,0
303,305,307,307,0
304,305,307,306,0
305,304,306,305,0
306,306,306,305,0
306,310,306,306,0
307,313,305,306,0
307,316,304,307,0
307,320,303,307,0
307,325,302,308,0
307,328,302,308,0
307,329,302,308,0
307,324,305,307,0
307,317,307,306,0
306,311,310,306,0
307,307,312,306,0
307,303,312,307,0
308,298,312,308,0
308,291,312,309,0
308,281,310,309,0
308,273,309,309,0
308,269,308,309,0
308,271,306,309,0
307,279,304,309,0
306,290,303,309,0
306,303,301,308,0
306,316,299,307,0
305,329,298,306,0
305,341,299,304,0
306,352,301,303,0
307,356,302,303,0
308,350,302,302,0
307,335,303,303,0
306,320,303,304,0
306,311,305,305,0
306,306,307,307,0
307,303,309,309,0
308,302,310,310,0
309,307,311,310,0
311,319,312,310,0
313,335,312,309,0
314,352,313,309,0
314,358,313,310,0
314,348,312,310,0
313,328,311,309,0
310,310,309,309,0
308,298,307,308,0
304,290,305,307,0
302,283,303,306,0
301,276,302,306,0
301,271,301,305,0
301,270,301,305,0
302,271,302,305,0
304,275,302,307,0
305,278,302,309,0
306,281,302,310,0
307,285,302,311,0
307,289,302,312,0
308,294,301,311,0
308,298,301,310,0
309,300,302,309,0
309,297,304,307,0
309,291,306,305,0
308,284,308,304,0
308,281,309,303,0
308,283,309,302,0
307,288,308,302,0
307,294,307,302,0
305,299,305,303,0
304,304,304,304,0
303,309,304,305,0
303,316,304,307,0
303,323,305,309,0
303,327,307,309,0
303,327,307,309,0
302,327,308,309,0
303,329,308,310,0
303,331,309,311,0
305,335,309,312,0
307,337,310,313,0
309,334,310,314,0
310,326,310,314,0
311,316,309,314,0
311,308,307,314,0
310,304,306,313,0
308,304,306,313,0
307,306,307,313,0
306,309,308,313,0
305,309,309,313,0
305,310,309,312,0
305,314,308,311,0
305,322,307,310,0
305,331,306,310,0
306,337,305,310,0
306,334,305,310,0
305,323,304,309,0
304,309,303,309,0
302,296,302,308,0
301,286,302,308,0
301,279,302,307,0
301,275,302,307,0
301,275,302,309,0
302,278,303,309,0
303,281,304,310,0
303,286,306,309,0
302,294,309,308,0
302,305,311,308,0
301,317,313,308,0
301,325,313,308,0
300,328,313,309,0
300,328,313,310,0
301,327,312,312,0
302,323,311,312,0
302,316,309,312,0
301,308,308,311,0
301,302,307,310,0
302,296,306,309,0
302,292,306,308,0
302,290,306,308,0
303,291,306,307,0
303,296,306,307,0
304,303,307,307,0
303,305,308,305,0
302,303,308,303,0
301,300,309,302,0
300,299,309,301,0
299,299,309,301,0
299,299,308,302,0
299,298,308,302,0
300,295,308,303,0
301,289,309,303,0
302,282,309,304,0
303,277,310,305,0
304,274,310,306,0
305,277,310,309,0
306,285,310,311,0
306,296,309,312,0
305,307,309,313,0
304,316,308,314,0
303,323,308,314,0
302,328,307,314,0
302,330,306,314,0
302,328,306,314,0
302,323,306,313,0
302,318,307,312,0
302,316,308,310,0
302,314,309,308,0
301,313,310,306,0
302,310,310,306,0
302,307,310,305,0
303,302,308,306,0
302,299,306,305,0
302,300,305,305,0
302,308,305,305,0
302,319,305,305,0
302,327,306,305,0
303,329,307,305,0
304,329,309,306,0
305,326,310,308,0
305,319,310,309,0
305,310,309,309,0
304,304,309,309,0
304,306,308,308,0
305,315,308,307,0
306,330,309,307,0
307,339,309,308,0
308,334,310,307,0
308,320,310,308,0
309,305,311,308,0
309,290,311,309,0
309,275,311,309,0
308,262,309,308,0
307,255,308,307,0
307,253,306,306,0
306,255,305,306,0
306,260,305,305,0
306,266,305,304,0
307,274,305,304,0
307,284,305,304,0
307,294,306,304,0
307,302,307,304,0
307,308,309,305,0
306,310,309,306,0
304,310,309,306,0
303,310,308,306,0
302,312,306,307,0
302,316,305,307,0
302,319,304,307,0
302,322,303,306,0
303,324,304,306,0
303,324,305,307,0
304,323,306,308,0
303,320,306,308,0
303,319,307,307,0
302,322,307,307,0
302,324,307,308,0
303,325,307,309,0
304,319,307,310,0
304,307,306,311,0
304,294,306,311,0
304,284,306,311,0
304,280,306,311,0
305,280,306,310,0
306,283,306,309,0
307,286,306,308,0
307,288,306,309,0
307,292,306,310,0
308,298,305,310,0
307,303,305,310,0
308,307,305,309,0
308,306,305,308,0
309,300,305,307,0
309,293,304,307,0
309,290,304,307,0
309,292,304,307,0
309,297,304,308,0
310,306,305,309,0
311,315,306,310,0
311,318,307,310,0
311,314,307,311,0
310,307,307,311,0
309,303,307,311,0
309,302,307,311,0
307,305,306,311,0
307,312,304,310,0
306,321,304,309,0
306,329,304,309,0
306,334,304,310,0
306,333,305,310,0
306,326,305,311,0
305,318,306,311,0
304,314,306,312,0
304,312,306,312,0
304,312,307,312,0
304,312,307,311,0
305,308,308,310,0
305,300,308,308,0
305,289,309,305,0
304,279,309,303,0
304,274,308,300,0
303,273,308,298,0
303,276,308,297,0
302,279,308,297,0
302,281,308,297,0
302,284,308,298,0
302,287,309,300,0
303,291,310,303,0
304,298,311,307,0
305,308,311,310,0
307,320,312,315,0
308,336,312,318,0
309,354,313,320,0
309,368,312,321,0
309,373,311,322,0
309,369,310,321,0
308,356,308,320,0
308,335,306,319,0
306,312,305,318,0
306,294,304,316,0
305,282,305,315,0
304,275,306,314,0
304,270,308,314,0
303,268,309,313,0
303,271,309,313,0
302,277,308,313,0
301,284,306,312,0
299,292,304,311,0
298,298,302,310,0
298,304,300,309,0
298,308,299,309,0
298,311,298,309,0
299,314,298,309,0
300,317,299,309,0
301,319,299,309,0
302,319,300,309,0
302,319,301,308,0
303,318,302,308,0
303,317,304,309,0
304,314,305,310,0
304,312,306,312,0
305,311,306,313,0
306,313,306,313,0
307,320,305,313,0
307,327,304,313,0
307,333,304,313,0
307,335,303,313,0
307,330,302,313,0
306,317,301,312,0
306,304,302,312,0
306,296,303,312,0
307,295,306,312,0
309,298,309,312,0
310,304,311,312,0
310,310,312,312,0
309,313,313,311,0
307,311,313,311,0
306,306,313,312,0
304,300,312,313,0
303,294,311,313,0
302,290,310,312,0
302,288,309,311,0
302,287,309,310,0
302,285,308,308,0
302,283,306,306,0
302,280,305,304,0
301,279,304,303,0
301,282,303,302,0
301,287,303,303,0
301,294,303,303,0
302,301,303,303,0
302,310,302,303,0
303,322,301,304,0
304,338,301,305,0
305,355,301,307,0
306,370,302,309,0
306,379,303,310,0
307,374,305,311,0
307,363,307,311,0
307,349,308,312,0
306,333,308,311,0
305,319,307,310,0
304,309,307,309,0
303,301,308,308,0
303,291,307,307,0
303,282,307,306,0
304,277,307,307,0
305,277,307,308,0
306,281,308,310,0
306,287,308,312,0
307,291,308,314,0
308,292,308,315,0
308,292,309,315,0
308,294,309,314,0
307,300,310,314,0
307,311,310,313,0
307,324,311,313,0
307,336,311,312,0
308,342,311,312,0
308,341,311,310,0
307,330,310,308,0
305,314,309,305,0
303,301,308,303,0
302,293,306,302,0
301,290,305,302,0
301,290,304,303,0
301,294,303,303,0
301,298,302,303,0
302,303,302,303,0
302,308,302,303,0
303,310,302,303,0
303,310,304,303,0
304,310,306,302,0
304,309,310,303,0
305,309,312,302,0
306,311,314,303,0
306,311,314,304,0
306,306,312,304,0
305,300,309,305,0
304,294,307,305,0
305,289,305,306,0
305,287,304,307,0
306,287,304,307,0
308,294,304,307,0
309,304,304,307,0
310,320,304,307,0
310,331,305,308,0
309,333,306,308,0
308,328,307,309,0
307,321,308,309,0
305,314,308,309,0
304,309,306,309,0
303,307,305,309,0
302,309,305,309,0
303,315,305,309,0
303,321,305,309,0
304,324,305,308,0
304,325,304,308,0
304,321,304,308,0
303,317,304,308,0
302,314,305,309,0
301,314,306,309,0
302,316,307,310,0
303,319,307,310,0
305,322,307,310,0
307,323,307,310,0
309,319,307,310,0
310,313,306,309,0
310,306,305,308,0
310,299,305,307,0
308,293,305,306,0
307,290,305,306,0
305,292,305,306,0
304,299,305,307,0
302,307,305,308,0
301,314,305,310,0
302,322,306,312,0
303,331,306,314,0
305,341,306,316,0
305,349,305,317,0
306,354,304,317,0
306,352,304,315,0
306,340,303,313,0
306,321,303,311,0
306,304,304,311,0
307,292,304,311,0
308,287,304,311,0
307,283,302,310,0
306,284,301,308,0
305,288,300,307,0
306,297,300,307,0
306,308,301,307,0
307,318,302,309,0
306,320,303,311,0
305,314,303,312,0
304,305,303,314,0
304,298,303,314,0
304,293,304,315,0
305,292,305,315,0
306,295,306,315,0
307,300,307,315,0
308,305,307,314,0
309,309,307,313,0
309,309,308,312,0
310,303,308,311,0
310,294,307,310,0
309,286,305,309,0
308,283,304,307,0
307,284,303,308,0
309,289,302,310,0
310,296,302,312,0
312,303,302,312,0
314,310,303,312,0
314,315,304,310,0
313,313,305,308,0
310,306,306,305,0
308,299,307,305,0
306,294,308,305,0
305,292,308,305,0
304,292,307,306,0
304,293,307,307,0
305,293,306,308,0
305,293,306,308,0
305,295,307,309,0
306,300,306,310,0
306,307,306,312,0
307,318,305,313,0
307,331,305,314,0
307,345,304,316,0
308,358,304,316,0
309,368,303,315,0
309,371,302,313,0
308,369,302,311,0
307,363,302,310,0
306,352,302,308,0
305,337,303,306,0
304,322,303,305,0
304,309,304,305,0
305,298,305,304,0
306,292,305,305,0
307,290,305,306,0
308,290,304,307,0
307,288,303,307,0
307,286,303,308,0
306,283,302,308,0
306,281,302,308,0
306,280,302,308,0
306,283,303,307,0
307,291,303,308,0
308,305,303,309,0
310,318,303,310,0
311,327,303,310,0
311,329,302,309,0
310,324,303,309,0
309,319,304,309,0
308,316,305,309,0
308,310,305,309,0
308,303,305,309,0
308,299,304,309,0
307,298,303,309,0
307,298,303,310,0
307,297,302,310,0
306,295,301,310,0
306,293,300,309,0
305,291,301,308,0
305,290,301,307,0
305,290,302,306,0
305,290,303,306,0
305,291,304,306,0
306,294,305,306,0
306,298,305,307,0
307,301,305,309,0
308,302,306,309,0
308,300,307,309,0
309,297,307,308,0
309,296,307,308,0
309,293,308,308,0
308,289,308,307,0
307,286,308,306,0
306,286,309,305,0
304,291,309,305,0
303,300,309,305,0
302,310,308,305,0
302,319,308,305,0
302,326,308,305,0
302,330,308,304,0
302,329,307,303,0
303,326,306,304,0
304,324,306,304,0
304,322,306,305,0
304,321,306,305,0
305,319,306,305,0
304,317,305,305,0
304,316,304,305,0
304,316,304,305,0
305,319,303,305,0
305,322,303,306,0
306,321,303,306,0
306,311,303,306,0
307,300,303,306,0
308,291,303,306,0
308,288,302,305,0
310,291,303,306,0
312,303,302,307,0
313,322,303,309,0
315,340,304,310,0
315,351,307,312,0
315,354,311,313,0
314,344,315,313,0
311,325,318,312,0
307,304,318,310,0
305,288,316,308,0
304,276,314,306,0
304,268,312,305,0
305,265,310,304,0
307,266,310,304,0
309,269,309,305,0
310,272,309,305,0
310,275,309,305,0
309,276,309,305,0
308,277,308,306,0
307,281,307,307,0
307,287,307,308,0
307,295,307,308,0
307,301,306,309,0
306,307,306,309,0
307,311,305,309,0
306,313,305,309,0
306,313,305,309,0
306,311,305,309,0
305,307,306,308,0
305,305,306,309,0
305,306,306,308,0
306,308,307,309,0
306,312,308,310,0
306,316,308,311,0
306,317,308,311,0
305,315,308,312,0
305,311,308,311,0
304,304,308,311,0
304,296,308,309,0
303,290,307,307,0
302,287,306,306,0
301,290,305,305,0
301,297,305,306,0
301,306,306,307,0
301,313,306,308,0
302,316,307,309,0
303,314,307,309,0
303,310,307,309,0
304,307,307,308,0
305,307,307,308,0
306,310,307,308,0
306,316,307,308,0
306,323,308,308,0
306,331,308,308,0
306,340,308,309,0
306,347,308,311,0
307,346,308,311,0
307,341,308,312,0
307,337,307,312,0
307,336,308,312,0
307,334,308,311,0
307,325,308,311,0
307,314,308,309,0
307,304,308,308,0
307,296,308,307,0
306,291,307,306,0
305,288,306,305,0
304,287,305,304,0
304,286,305,303,0
303,286,305,303,0
303,288,304,303,0
302,292,304,303,0
302,296,305,304,0
301,298,306,306,0
302,298,308,306,0
302,297,310,307,0
302,296,311,308,0
303,297,313,308,0
304,298,313,308,0
305,298,314,308,0
305,297,313,308,0
305,296,312,307,0
305,295,310,307,0
305,296,309,306,0
305,297,308,305,0
305,300,307,304,0
305,304,306,303,0
305,308,305,302,0
306,309,305,302,0
307,309,305,302,0
308,308,306,302,0
308,308,307,303,0
308,311,308,304,0
309,317,310,306,0
310,325,310,307,0
311,332,311,309,0
312,336,310,310,0
311,336,309,310,0
310,328,309,310,0
309,320,307,308,0
307,314,306,306,0
307,310,304,304,0
307,305,304,302,0
307,301,304,301,0
306,297,304,300,0
307,296,304,300,0
306,298,305,301,0
306,298,305,302,0
306,297,305,303,0
305,295,305,304,0
305,296,305,304,0
305,298,305,304,0
305,301,305,304,0
305,304,305,305,0
305,306,305,305,0
305,306,305,305,0
306,311,306,305,0
307,323,307,306,0
307,343,308,306,0
308,363,310,306,0
308,378,312,305,0
309,377,313,305,0
308,357,313,304,0
307,327,311,302,0
306,297,308,301,0
304,275,305,301,0
304,265,304,302,0
303,263,303,303,0
302,266,303,305,0
300,273,304,306,0
298,279,305,307,0
298,282,306,307,0
297,284,306,306,0
298,288,306,305,0
298,295,306,305,0
298,303,305,306,0
298,308,305,306,0
298,311,305,306,0
298,314,305,307,0
298,315,306,308,0
299,314,307,308,0
300,311,307,309,0
301,310,307,308,0
303,310,307,308,0
304,313,307,308,0
306,315,306,307,0
307,316,306,305,0
307,313,305,303,0
306,306,304,301,0
305,298,304,300,0
305,291,304,300,0
306,287,304,300,0
307,284,303,300,0
308,282,302,301,0
309,281,301,301,0
310,278,301,301,0
310,278,301,302,0
310,282,301,303,0
310,289,302,305,0
310,299,302,306,0
309,313,302,307,0
308,326,303,309,0
308,337,304,310,0
308,348,307,311,0
309,359,309,311,0
309,362,310,310,0
307,354,310,307,0
305,343,310,305,0
304,331,309,303,0
303,322,308,302,0
303,321,306,302,0
302,324,305,304,0
303,329,305,306,0
303,328,305,309,0
304,322,305,311,0
304,311,307,314,0
304,302,307,315,0
303,296,308,316,0
303,294,308,316,0
302,293,308,316,0
302,293,308,315,0
302,291,307,313,0
303,290,306,311,0
304,289,305,309,0
304,289,305,308,0
305,289,304,307,0
306,288,303,307,0
308,289,303,308,0
309,292,304,308,0
311,298,306,309,0
312,306,308,309,0
312,312,311,309,0
310,314,311,308,0
308,309,311,307,0
305,301,310,307,0
302,293,309,308,0
301,289,307,309,0
300,291,305,310,0
299,295,304,310,0
299,303,302,309,0
299,312,302,309,0
299,318,301,309,0
300,322,301,308,0
302,324,301,307,0
303,324,301,306,0
304,322,301,304,0
305,320,301,303,0
306,320,301,303,0
306,321,301,304,0
306,322,302,305,0
306,320,303,306,0
306,317,303,307,0
306,312,303,307,0
306,307,303,307,0
307,304,303,308,0
310,303,303,309,0
312,304,303,311,0
313,310,304,313,0
314,327,305,314,0
314,350,306,315,0
313,373,307,316,0
312,391,307,316,0
311,399,307,316,0
311,390,306,315,0
310,359,305,314,0
308,319,304,312,0
307,285,302,310,0
307,263,300,309,0
306,252,299,308,0
306,249,299,307,0
306,251,299,307,0
305,257,300,307,0
305,264,301,308,0
305,271,302,309,0
306,278,303,310,0
306,284,304,312,0
306,287,305,314,0
307,286,306,314,0
308,283,308,314,0
308,280,309,312,0
308,277,308,311,0
308,277,308,310,0
308,280,306,310,0
308,286,305,309,0
308,293,304,308,0
308,302,303,307,0
307,312,302,306,0
306,320,300,305,0
306,324,299,304,0
305,325,298,303,0
305,321,298,302,0
305,316,298,301,0
306,311,299,301,0
306,309,302,302,0
307,308,305,304,0
307,307,307,305,0
307,308,308,307,0
307,314,308,308,0
308,323,309,310,0
309,333,308,311,0
309,339,308,312,0
310,338,307,313,0
309,331,306,313,0
309,321,306,313,0
309,312,306,313,0
310,303,305,313,0
310,295,305,313,0
312,289,305,312,0
313,286,305,311,0
314,286,304,311,0
314,291,303,311,0
313,294,303,310,0
313,296,303,309,0
312,296,304,308,0
311,296,306,308,0
310,298,307,308,0
309,301,310,307,0
308,304,312,307,0
307,306,313,307,0
306,308,313,308,0
307,314,311,309,0
307,323,310,310,0
308,335,309,312,0
311,350,308,313,0
313,364,308,313,0
314,373,307,313,0
315,373,307,314,0
314,366,307,314,0
312,350,307,313,0
308,328,305,310,0
305,305,303,307,0
302,288,301,305,0
301,278,300,304,0
301,273,299,304,0
300,272,299,304,0
300,273,298,304,0
300,274,298,305,0
300,274,299,305,0
301,273,299,306,0
302,271,299,306,0
302,268,300,306,0
303,267,300,305,0
303,269,301,304,0
303,274,302,303,0
302,280,302,302,0
301,287,301,302,0
301,294,300,302,0
300,302,299,303,0
300,310,299,304,0
301,318,300,306,0
303,325,301,308,0
304,334,302,310,0
305,340,303,312,0
304,340,304,313,0
303,335,304,314,0
303,329,304,315,0
303,323,304,316,0
303,317,304,318,0
303,310,304,318,0
303,304,304,317,0
303,301,304,315,0
304,300,304,313,0
304,301,305,312,0
304,302,305,311,0
304,303,304,310,0
304,304,302,309,0
304,305,301,308,0
305,309,300,308,0
306,315,300,309,0
307,321,300,311,0
307,326,300,311,0
306,325,302,311,0
305,318,304,310,0
304,306,306,308,0
303,295,308,308,0
303,288,307,308,0
304,287,305,308,0
305,293,303,310,0
305,303,301,312,0
305,314,300,313,0
305,323,299,312,0
305,328,299,311,0
305,329,299,310,0
306,328,299,308,0
306,329,298,306,0
306,332,298,305,0
306,333,297,304,0
306,330,297,304,0
306,320,298,305,0
306,308,299,306,0
306,295,300,307,0
306,285,300,308,0
306,279,300,309,0
307,277,301,309,0
307,278,302,308,0
308,283,302,309,0
309,289,302,309,0
309,292,302,308,0
309,292,301,309,0
309,290,299,309,0
309,289,298,310,0
308,287,298,310,0
307,284,298,309,0
307,280,299,308,0
307,276,300,308,0
307,274,300,308,0
308,277,301,308,0
309,282,301,308,0
310,289,300,309,0
311,298,299,309,0
312,302,299,309,0
312,304,298,309,0
311,304,299,309,0
310,305,300,310,0
309,307,302,309,0
308,309,305,309,0
307,309,307,309,0
307,306,308,309,0
307,302,308,308,0
307,298,307,308,0
308,296,306,307,0
308,296,305,307,0
308,298,304,307,0
308,302,303,307,0
308,305,302,307,0
308,306,302,307,0
308,306,301,305,0
308,308,300,304,0
307,310,300,303,0
306,311,300,302,0
305,308,300,302,0
305,302,300,302,0
304,294,301,302,0
305,291,301,303,0
306,297,302,304,0
308,310,302,305,0
310,327,303,306,0
312,339,303,307,0
312,342,303,306,0
311,336,302,305,0
310,328,302,305,0
308,323,301,305,0
308,327,301,305,0
309,335,300,306,0
309,342,300,307,0
309,348,300,307,0
308,348,299,306,0
308,343,299,304,0
307,334,298,302,0
307,327,297,301,0
307,322,299,302,0
307,314,301,302,0
308,304,304,304,0
310,296,307,305,0
311,289,309,306,0
311,282,309,306,0
311,273,309,304,0
310,268,308,304,0
309,272,306,304,0
307,283,305,304,0
305,296,304,304,0
304,310,304,305,0
305,322,304,306,0
305,325,303,307,0
306,317,302,307,0
305,304,302,307,0
305,292,300,308,0
304,283,300,308,0
303,278,299,308,0
304,279,299,308,0
305,286,300,308,0
307,295,300,309,0
308,304,302,310,0
309,312,303,311,0
308,318,304,310,0
306,323,305,310,0
304,330,307,309,0
303,341,310,308,0
303,351,312,307,0
303,359,313,306,0
303,360,313,305,0
304,351,312,305,0
304,335,312,305,0
304,320,312,305,0
304,308,311,304,0
304,297,310,303,0
303,288,308,302,0
302,283,307,301,0
301,283,306,302,0
301,287,307,303,0
301,294,307,304,0
301,299,308,305,0
302,302,308,306,0
304,305,308,307,0
307,312,308,308,0
309,321,308,310,0
311,331,309,311,0
312,337,309,313,0
311,335,308,313,0
309,322,308,312,0
307,306,308,311,0
305,293,308,308,0
305,286,309,306,0
304,286,309,304,0
304,290,308,303,0
303,298,307,304,0
302,306,306,305,0
302,312,305,306,0
303,315,305,306,0
303,315,305,305,0
304,313,305,305,0
304,310,305,305,0
304,308,306,305,0
305,307,307,307,0
305,307,309,308,0
305,309,310,309,0
305,313,310,310,0
305,321,310,310,0
305,328,310,311,0
304,328,310,311,0
304,322,309,310,0
303,313,309,310,0
303,303,309,310,0
302,293,309,310,0
301,284,308,309,0
300,277,308,307,0
299,276,306,305,0
299,282,305,303,0
300,290,304,302,0
301,296,304,300,0
303,298,305,299,0
304,296,306,298,0
304,294,308,299,0
306,294,310,301,0
307,297,313,304,0
307,302,313,308,0
