305,302,297,312,0
303,305,294,310,0
302,308,292,307,0
300,309,290,304,0
299,312,291,301,0
300,320,294,300,0
301,332,300,302,0
303,342,307,308,0
307,344,313,314,0
310,335,316,318,0
311,322,317,319,0
311,314,317,319,0
309,314,317,318,0
308,315,317,317,0
305,311,317,316,0
304,302,316,315,0
303,293,314,314,0
302,288,313,313,0
303,290,311,314,0
304,296,310,315,0
305,302,309,316,0
306,309,310,317,0
309,314,311,317,0
310,314,311,317,0
310,310,311,317,0
309,306,310,316,0
307,301,308,314,0
303,296,306,313,0
301,293,304,311,0
300,296,303,311,0
301,304,302,310,0
302,314,302,310,0
304,324,302,310,0
304,329,301,310,0
305,327,301,310,0
306,320,302,309,0
306,311,303,309,0
308,302,304,309,0
309,296,304,309,0
310,295,304,308,0
309,297,304,307,0
308,301,304,307,0
308,306,304,307,0
308,313,303,307,0
307,323,303,308,0
306,335,302,309,0
305,345,300,309,0
303,347,296,308,0
300,342,292,304,0
297,333,287,300,0
294,324,284,294,0
292,315,285,290,0
291,308,289,287,0
291,304,295,288,0
293,304,302,291,0
297,307,307,293,0
299,310,309,295,0
300,308,309,295,0
301,297,309,296,0
302,285,309,296,0
302,277,309,298,0
303,275,311,302,0
304,279,313,305,0
305,285,314,307,0
305,290,314,309,0
305,292,313,311,0
306,293,311,313,0
306,295,309,314,0
307,297,306,315,0
308,302,305,315,0
308,310,305,314,0
309,323,306,314,0
309,340,309,314,0
310,356,312,315,0
310,369,313,315,0
309,376,314,314,0
308,368,311,312,0
306,347,309,310,0
304,321,306,309,0
304,299,306,308,0
305,284,306,310,0
306,272,308,312,0
309,263,311,313,0
312,254,313,313,0
313,249,313,312,0
312,245,312,308,0
310,245,310,305,0
308,248,308,301,0
306,257,308,300,0
307,272,308,300,0
308,290,308,302,0
308,309,308,304,0
307,324,307,306,0
306,331,308,309,0
305,330,309,310,0
304,323,311,310,0
304,314,313,308,0
304,307,315,306,0
306,305,315,304,0
308,309,314,303,0
311,317,313,303,0
314,326,312,305,0
316,334,310,308,0
317,336,309,311,0
317,332,309,312,0
315,323,306,312,0
312,311,302,311,0
310,301,298,310,0
307,294,295,309,0
306,291,294,307,0
305,289,295,306,0
305,290,298,305,0
304,291,303,304,0
304,292,307,304,0
304,295,311,304,0
304,299,313,305,0
305,309,314,306,0
305,320,313,308,0
306,330,312,309,0
307,335,310,310,0
307,331,307,311,0
307,319,305,311,0
307,302,305,310,0
308,287,304,310,0
308,281,303,310,0
309,287,303,310,0
310,301,303,309,0
311,319,303,308,0
311,333,303,306,0
310,337,302,304,0
309,328,300,301,0
308,314,299,300,0
307,300,298,299,0
307,288,297,300,0
308,277,299,301,0
309,270,302,302,0
310,265,304,304,0
311,262,305,305,0
311,261,307,306,0
311,264,309,307,0
311,271,312,307,0
311,283,314,308,0
312,298,314,309,0
313,314,313,308,0
313,328,310,305,0
312,330,305,301,0
310,318,299,296,0
307,300,294,292,0
306,286,292,292,0
305,281,292,295,0
305,282,293,298,0
304,287,294,300,0
303,291,295,301,0
304,294,296,301,0
306,296,298,301,0
309,300,300,302,0
313,307,302,306,0
315,318,303,309,0
316,323,301,310,0
315,319,299,309,0
314,315,296,307,0
312,315,293,304,0
310,314,292,302,0
309,312,295,301,0
307,307,300,302,0
307,301,307,303,0
308,298,314,305,0
309,302,318,307,0
310,308,321,310,0
311,309,323,312,0
312,303,322,313,0
311,294,319,312,0
310,288,315,313,0
309,287,311,312,0
308,288,308,312,0
308,292,307,311,0
308,295,307,311,0
308,297,308,310,0
309,296,309,310,0
310,295,308,310,0
311,297,308,310,0
311,300,309,311,0
311,305,309,310,0
311,311,309,310,0
310,317,310,309,0
310,323,310,308,0
309,325,309,308,0
309,321,309,307,0
308,312,308,306,0
308,303,308,306,0
308,300,310,307,0
309,304,312,307,0
309,308,312,309,0
309,309,309,310,0
309,308,305,310,0
307,307,301,309,0
306,306,297,307,0
305,308,296,304,0
305,309,297,300,0
306,307,299,297,0
306,301,301,296,0
307,290,302,296,0
308,277,303,298,0
310,266,304,302,0
311,260,307,305,0
313,262,309,308,0
314,272,312,310,0
313,289,313,310,0
311,313,312,309,0
309,338,311,308,0
308,357,310,307,0
308,363,309,305,0
309,359,308,305,0
310,350,308,306,0
310,338,308,306,0
311,326,308,306,0
311,316,308,306,0
311,309,307,305,0
311,302,305,303,0
310,294,305,302,0
310,289,305,301,0
311,290,305,300,0
311,292,305,300,0
311,293,305,299,0
311,291,306,299,0
311,286,307,299,0
310,279,308,298,0
309,276,310,297,0
307,278,311,297,0
307,282,311,296,0
307,287,309,296,0
308,294,306,295,0
308,301,302,295,0
307,310,298,293,0
307,317,296,292,0
306,321,297,292,0
305,320,300,294,0
304,314,303,298,0
303,305,306,303,0
304,298,306,306,0
306,291,306,307,0
307,287,306,306,0
307,288,308,306,0
308,296,311,305,0
308,306,314,306,0
307,315,316,306,0
307,320,317,309,0
306,318,318,310,0
307,315,317,312,0
307,314,316,312,0
307,313,314,311,0
307,313,312,309,0
306,314,311,308,0
306,313,311,308,0
306,309,311,308,0
307,304,310,307,0
307,301,309,306,0
307,300,308,307,0
308,300,307,307,0
309,302,307,307,0
309,307,306,307,0
308,312,306,307,0
307,315,305,307,0
306,313,304,305,0
305,307,305,303,0
305,303,304,301,0
305,305,303,299,0
304,312,301,295,0
304,322,300,292,0
304,335,299,289,0
306,348,300,290,0
308,353,302,295,0
308,344,305,299,0
308,323,307,303,0
307,303,308,307,0
308,291,310,310,0
308,287,310,312,0
309,286,309,313,0
308,283,307,314,0
307,280,306,313,0
306,280,306,313,0
307,285,306,312,0
307,293,305,312,0
308,301,304,311,0
310,308,302,310,0
310,312,300,309,0
311,314,298,308,0
311,317,299,308,0
312,322,301,309,0
313,326,303,308,0
312,325,304,307,0
312,319,304,306,0
310,311,304,305,0
309,306,304,303,0
308,305,304,301,0
307,307,305,299,0
306,312,306,301,0
306,312,308,305,0
306,306,310,310,0
306,300,312,314,0
306,298,314,316,0
307,299,315,317,0
308,304,315,317,0
309,309,314,317,0
309,314,312,316,0
308,314,308,313,0
306,310,303,311,0
306,306,300,310,0
305,305,299,310,0
306,305,299,311,0
306,305,299,311,0
307,304,299,311,0
308,301,299,310,0
308,297,298,308,0
307,295,298,306,0
306,298,297,304,0
306,312,296,302,0
307,331,295,301,0
308,350,293,301,0
308,354,292,301,0
307,342,291,300,0
304,321,293,298,0
304,300,294,297,0
303,285,298,296,0
303,275,301,297,0
304,270,305,299,0
304,269,307,301,0
305,269,307,303,0
306,269,307,304,0
307,271,308,306,0
308,271,308,307,0
308,269,309,307,0
310,268,310,309,0
311,267,312,309,0
311,267,312,309,0
311,271,311,309,0
310,285,309,309,0
309,306,305,308,0
307,330,301,305,0
305,350,296,302,0
303,363,292,300,0
303,371,289,300,0
303,377,290,301,0
305,385,294,305,0
307,392,300,309,0
309,390,306,313,0
311,374,310,314,0
311,354,311,314,0
311,336,311,313,0
310,320,311,312,0
309,307,310,310,0
308,297,308,309,0
308,288,307,308,0
308,281,307,307,0
309,272,306,305,0
309,263,304,303,0
307,256,303,302,0
307,255,303,301,0
307,256,304,301,0
306,259,304,300,0
305,264,303,301,0
304,274,301,302,0
305,288,299,303,0
306,302,299,304,0
307,313,299,305,0
307,322,299,306,0
307,328,299,307,0
305,329,299,308,0
304,331,300,308,0
303,337,301,308,0
303,347,302,309,0
305,359,304,310,0
308,367,304,311,0
310,363,303,312,0
310,347,302,313,0
310,326,303,312,0
308,306,304,311,0
307,291,305,308,0
306,282,305,303,0
306,279,303,297,0
307,281,301,292,0
308,286,297,289,0
308,292,294,287,0
309,297,291,289,0
310,304,290,293,0
312,312,289,299,0
312,315,289,303,0
310,313,289,305,0
307,308,291,307,0
306,304,296,309,0
306,301,303,312,0
306,302,310,313,0
306,307,316,314,0
305,312,321,315,0
306,317,323,315,0
306,318,323,316,0
306,319,321,315,0
306,321,318,315,0
307,324,316,314,0
307,329,313,313,0
307,332,311,311,0
306,330,310,308,0
306,326,308,307,0
305,319,307,305,0
305,313,304,304,0
304,301,302,302,0
304,286,299,300,0
304,272,298,300,0
304,263,297,299,0
304,260,298,299,0
305,264,300,300,0
306,273,303,303,0
307,283,306,306,0
309,290,309,309,0
310,292,309,311,0
311,292,307,311,0
311,293,305,311,0
311,297,302,311,0
310,301,301,311,0
309,304,300,310,0
308,306,301,311,0
307,307,302,311,0
305,308,303,311,0
304,309,303,311,0
303,308,303,311,0
303,311,304,311,0
304,319,305,309,0
306,330,305,308,0
307,344,304,306,0
307,356,302,305,0
307,358,300,305,0
306,349,300,306,0
306,334,299,308,0
306,319,300,311,0
306,307,300,313,0
307,299,300,314,0
309,293,299,314,0
308,288,296,312,0
307,286,294,310,0
305,288,295,309,0
305,294,298,309,0
306,301,300,311,0
307,311,302,311,0
307,322,302,310,0
306,330,301,307,0
304,331,299,303,0
303,327,298,300,0
303,322,297,298,0
304,317,296,299,0
305,313,298,302,0
308,311,301,306,0
309,309,305,311,0
311,307,308,314,0
312,307,311,317,0
312,313,312,318,0
312,325,310,318,0
312,339,307,318,0
312,350,304,316,0
312,351,300,313,0
312,341,297,308,0
310,325,296,303,0
308,314,298,300,0
308,309,303,301,0
308,311,308,304,0
309,311,311,307,0
308,302,310,307,0
307,291,306,306,0
305,283,302,305,0
304,279,298,306,0
304,279,298,307,0
304,280,299,308,0
305,282,301,309,0
306,283,302,311,0
307,285,304,313,0
308,292,308,314,0
310,305,311,315,0
311,320,313,314,0
312,330,314,312,0
312,332,313,310,0
311,326,309,306,0
308,312,304,301,0
304,296,297,297,0
300,282,290,295,0
298,273,287,294,0
298,271,287,293,0
299,275,289,293,0
300,281,293,294,0
301,284,297,296,0
301,286,301,299,0
302,290,305,301,0
303,298,308,304,0
304,305,309,305,0
304,311,309,306,0
305,314,309,306,0
305,317,309,306,0
305,320,309,306,0
304,322,309,307,0
304,325,308,308,0
304,329,308,309,0
304,330,308,310,0
305,326,309,311,0
306,321,310,312,0
306,319,312,312,0
307,316,313,312,0
308,312,313,312,0
309,307,312,312,0
310,301,311,312,0
311,294,310,311,0
311,289,310,310,0
310,286,311,308,0
309,286,311,307,0
307,287,309,306,0
306,290,306,304,0
306,295,305,303,0
307,303,303,302,0
309,318,303,301,0
311,340,304,300,0
313,367,305,301,0
315,389,305,303,0
314,395,305,305,0
310,384,305,306,0
307,363,303,305,0
303,338,301,302,0
301,316,299,300,0
300,297,299,298,0
300,280,300,296,0
299,270,300,294,0
299,265,299,294,0
299,265,299,295,0
300,268,297,297,0
301,274,295,298,0
302,279,293,299,0
303,283,292,299,0
302,285,293,299,0
302,287,298,301,0
302,288,305,303,0
302,290,312,305,0
303,291,318,306,0
302,292,320,306,0
302,293,320,306,0
301,297,318,306,0
301,304,316,306,0
301,312,313,307,0
301,321,311,307,0
301,330,309,307,0
301,336,306,308,0
302,341,304,308,0
302,344,301,308,0
300,343,299,307,0
299,335,298,306,0
298,322,298,306,0
298,311,300,307,0
298,304,300,309,0
298,302,300,311,0
298,301,299,312,0
298,299,298,313,0
298,297,298,312,0
298,296,298,311,0
298,294,298,310,0
299,289,300,308,0
300,283,303,307,0
302,275,307,307,0
304,269,310,307,0
305,265,313,307,0
307,266,313,308,0
308,272,312,308,0
307,282,310,308,0
307,294,307,306,0
305,309,305,305,0
304,325,303,304,0
303,336,302,304,0
301,346,299,303,0
300,356,297,302,0
299,365,296,302,0
300,371,296,301,0
300,371,297,301,0
301,363,295,303,0
301,352,293,305,0
301,347,291,307,0
302,344,290,309,0
302,342,290,309,0
301,337,291,309,0
300,327,294,308,0
300,314,297,308,0
301,300,301,308,0
302,289,304,309,0
303,282,305,311,0
304,280,307,313,0
305,279,307,314,0
305,281,307,314,0
305,283,306,313,0
305,287,307,312,0
305,293,308,312,0
305,299,309,313,0
306,304,309,313,0
306,307,308,314,0
307,308,307,315,0
308,306,307,317,0
308,305,306,318,0
308,302,305,318,0
307,300,303,317,0
306,300,303,315,0
305,300,304,313,0
304,296,303,310,0
303,293,301,307,0
302,292,299,305,0
301,293,298,304,0
300,293,296,304,0
300,294,294,304,0
300,298,293,303,0
302,304,293,302,0
303,313,294,302,0
304,322,296,301,0
304,330,299,302,0
304,335,302,303,0
303,334,303,305,0
302,328,303,307,0
301,318,302,308,0
302,308,300,309,0
303,300,298,308,0
304,295,296,306,0
305,295,295,304,0
305,299,294,302,0
305,306,294,301,0
305,316,295,298,0
305,326,294,296,0
304,337,294,293,0
304,352,293,290,0
303,368,294,290,0
303,377,298,293,0
303,371,301,297,0
302,356,303,302,0
302,334,304,305,0
301,308,307,307,0
302,285,309,308,0
302,270,311,308,0
303,265,313,308,0
303,269,314,308,0
304,278,314,307,0
304,288,313,307,0
304,300,312,307,0
305,314,312,308,0
305,329,312,309,0
305,336,311,310,0
305,333,309,311,0
305,324,307,310,0
305,311,303,308,0
304,297,300,306,0
304,286,297,305,0
304,282,294,304,0
305,284,293,302,0
303,292,293,300,0
302,304,295,299,0
301,317,299,299,0
302,329,305,301,0
303,337,311,304,0
305,338,314,305,0
306,332,314,306,0
308,326,314,308,0
309,324,312,309,0
308,325,310,310,0
306,323,308,309,0
303,317,307,308,0
301,306,306,306,0
300,295,304,304,0
298,287,302,301,0
298,284,299,298,0
297,283,297,296,0
297,280,297,295,0
297,280,299,295,0
297,282,302,297,0
298,285,306,300,0
299,291,309,303,0
300,298,311,306,0
301,306,311,310,0
303,313,312,313,0
305,323,313,317,0
307,333,314,319,0
308,342,314,318,0
310,350,314,317,0
310,355,314,317,0
311,352,314,316,0
310,342,313,315,0
309,328,312,313,0
308,313,310,311,0
308,302,306,309,0
309,296,302,306,0
310,293,297,302,0
309,289,292,297,0
307,281,289,294,0
306,268,289,293,0
305,258,293,297,0
304,257,298,301,0
302,263,303,306,0
301,270,308,309,0
300,279,312,310,0
300,287,314,310,0
300,295,317,311,0
301,302,319,312,0
303,307,320,313,0
305,308,320,314,0
307,305,318,313,0
306,300,313,313,0
305,297,308,311,0
303,295,304,310,0
301,298,302,308,0
299,307,299,307,0
299,323,297,307,0
299,342,297,309,0
300,356,298,311,0
300,360,301,314,0
301,353,302,315,0
302,339,304,316,0
303,325,305,316,0
304,317,307,315,0
304,313,309,315,0
305,310,309,314,0
304,304,307,314,0
304,296,304,313,0
303,288,302,311,0
303,282,301,310,0
303,278,301,308,0
303,275,301,306,0
304,276,302,305,0
304,281,303,304,0
305,294,304,303,0
305,312,305,304,0
305,333,304,306,0
305,351,303,310,0
305,361,302,312,0
305,360,302,312,0
304,349,303,310,0
303,336,304,308,0
303,328,305,306,0
303,327,307,306,0
305,332,308,308,0
308,342,308,311,0
310,349,309,313,0
310,343,308,313,0
308,325,307,313,0
306,303,307,312,0
304,286,307,310,0
303,275,307,309,0
304,271,307,307,0
304,271,307,307,0
304,272,306,306,0
305,274,306,306,0
306,277,306,306,0
306,281,307,306,0
306,285,307,306,0
307,293,306,306,0
308,301,306,306,0
309,309,305,304,0
311,316,305,303,0
311,318,304,302,0
310,313,301,301,0
308,303,299,299,0
305,294,296,296,0
304,289,294,293,0
303,291,293,290,0
304,295,294,288,0
305,301,295,288,0
306,304,297,290,0
308,303,300,293,0
310,296,303,298,0
311,286,308,304,0
311,276,312,307,0
311,270,314,309,0
309,272,314,310,0
307,282,312,310,0
306,297,308,310,0
305,314,306,310,0
305,328,304,309,0
306,335,303,308,0
307,335,302,308,0
307,331,301,307,0
307,324,300,308,0
308,315,299,308,0
309,306,297,309,0
310,300,297,310,0
310,297,298,312,0
309,296,300,312,0
308,300,302,312,0
307,309,304,310,0
307,327,306,309,0
308,346,305,308,0
308,358,301,306,0
307,356,295,303,0
304,342,291,301,0
303,323,291,300,0
303,306,296,301,0
305,296,303,302,0
306,287,307,303,0
306,278,308,303,0
305,275,308,302,0
305,279,308,302,0
305,287,309,303,0
305,295,309,305,0
305,299,309,307,0
304,300,308,309,0
303,301,308,311,0
302,300,309,311,0
301,299,309,311,0
300,296,308,310,0
300,295,308,309,0
301,296,308,308,0
302,299,308,308,0
302,303,306,308,0
302,305,302,309,0
301,307,299,310,0
300,311,297,312,0
300,318,299,314,0
300,327,303,316,0
301,336,308,318,0
303,342,314,320,0
304,344,318,320,0
305,340,319,320,0
305,332,319,318,0
304,323,318,317,0
304,314,317,316,0
304,304,317,316,0
305,290,316,314,0
305,275,316,312,0
305,263,315,309,0
306,260,314,308,0
306,264,312,307,0
306,272,310,306,0
305,281,309,306,0
306,292,309,307,0
306,302,310,308,0
307,311,311,308,0
305,314,310,306,0
304,311,309,304,0
303,305,307,302,0
302,301,305,299,0
302,297,304,297,0
303,294,303,296,0
304,295,304,297,0
306,301,308,300,0
308,312,311,304,0
308,323,311,307,0
307,330,311,309,0
308,332,310,311,0
307,329,311,313,0
308,330,311,315,0
309,335,311,316,0
310,341,310,317,0
310,346,309,316,0
309,342,308,315,0
308,327,307,313,0
308,304,307,311,0
308,284,307,310,0
308,269,306,308,0
308,264,305,308,0
308,272,305,308,0
310,288,305,309,0
310,302,307,308,0
310,309,307,306,0
309,307,305,304,0
307,303,303,301,0
305,298,300,299,0
304,295,299,299,0
303,294,299,301,0
302,294,300,302,0
302,293,301,302,0
302,293,301,301,0
302,295,299,299,0
302,301,296,297,0
301,307,293,295,0
300,315,292,294,0
299,327,294,295,0
299,340,297,297,0
300,351,301,300,0
301,360,304,301,0
301,362,305,302,0
302,357,305,304,0
303,347,305,307,0
305,340,305,309,0
307,339,305,312,0
310,338,306,313,0
312,335,306,314,0
312,329,305,314,0
312,318,305,314,0
310,305,306,313,0
309,296,308,313,0
308,293,312,312,0
308,293,314,311,0
309,294,315,310,0
309,295,315,308,0
309,296,315,304,0
310,296,314,301,0
310,295,313,299,0
312,295,313,298,0
313,293,311,298,0
312,290,309,298,0
309,285,306,298,0
305,280,301,296,0
301,277,298,294,0
299,280,297,293,0
298,285,298,294,0
300,292,301,297,0
303,300,305,301,0
307,310,308,305,0
309,321,311,308,0
310,330,311,311,0
311,334,311,312,0
311,336,311,312,0
310,337,310,312,0
310,338,309,312,0
310,337,309,311,0
309,331,308,310,0
308,320,307,309,0
308,309,306,309,0
307,302,305,309,0
308,301,303,311,0
309,303,302,312,0
309,305,301,312,0
309,306,301,311,0
308,304,300,308,0
307,299,300,305,0
306,295,300,303,0
305,292,301,301,0
304,291,302,299,0
304,291,303,298,0
304,292,305,298,0
306,292,307,298,0
308,290,309,299,0
309,287,309,299,0
309,287,309,298,0
308,291,308,298,0
308,298,307,298,0
307,307,306,299,0
306,314,304,301,0
306,313,303,303,0
307,307,302,304,0
307,299,303,306,0
307,291,302,306,0
306,284,300,304,0
305,281,298,302,0
303,282,296,301,0
302,285,293,301,0
300,289,292,302,0
299,295,291,302,0
301,302,293,302,0
303,310,296,304,0
304,318,298,305,0
306,327,299,306,0
307,335,302,306,0
306,341,305,306,0
306,343,308,305,0
305,343,312,305,0
306,342,314,305,0
307,341,315,305,0
309,342,315,306,0
311,344,313,308,0
313,348,312,311,0
314,351,311,313,0
313,350,310,313,0
312,346,310,312,0
312,338,310,310,0
311,324,309,309,0
309,310,308,307,0
306,301,308,306,0
303,294,309,305,0
300,283,309,305,0
298,272,310,306,0
297,264,310,306,0
297,259,308,306,0
298,259,308,306,0
300,260,308,306,0
302,260,308,305,0
303,262,309,305,0
304,266,310,304,0
304,272,311,304,0
305,276,312,303,0
305,276,312,302,0
305,274,313,301,0
304,272,311,301,0
302,271,310,301,0
300,274,308,300,0
298,281,307,302,0
298,292,307,304,0
298,305,308,305,0
299,321,309,307,0
300,340,309,310,0
302,361,309,312,0
303,382,310,315,0
304,396,310,316,0
304,398,310,317,0
304,385,310,316,0
303,362,310,316,0
302,338,311,314,0
302,316,312,314,0
302,300,312,313,0
302,291,312,311,0
302,286,311,309,0
301,281,309,306,0
300,275,307,303,0
300,270,306,301,0
301,267,307,301,0
302,268,309,303,0
304,274,311,306,0
304,285,312,309,0
306,299,313,312,0
306,314,312,312,0
306,325,311,311,0
306,328,309,310,0
305,325,308,309,0
304,320,307,312,0
303,314,307,315,0
303,308,307,317,0
302,303,309,318,0
303,301,310,320,0
304,301,312,321,0
305,303,314,322,0
307,308,315,321,0
308,312,315,320,0
308,319,313,319,0
309,334,312,318,0
309,353,311,318,0
310,370,311,318,0
311,380,311,319,0
313,377,310,318,0
313,355,308,316,0
310,326,303,312,0
306,301,297,308,0
302,287,295,305,0
300,282,297,303,0
299,282,301,302,0
299,282,305,302,0
300,281,309,304,0
300,278,310,305,0
301,274,309,306,0
302,273,306,308,0
303,274,304,309,0
303,277,301,310,0
303,281,301,309,0
303,285,300,307,0
303,290,299,306,0
302,295,297,305,0
300,301,296,305,0
299,308,298,305,0
299,318,303,306,0
299,330,307,307,0
301,344,311,309,0
302,351,314,312,0
303,347,316,313,0
303,332,317,314,0
303,313,317,313,0
304,295,316,312,0
305,280,314,309,0
305,272,312,308,0
305,272,309,307,0
305,277,307,307,0
306,286,306,308,0
306,294,304,309,0
307,300,302,308,0
308,301,301,307,0
308,297,299,305,0
307,292,297,302,0
306,289,294,300,0
305,288,293,300,0
304,293,293,301,0
304,304,296,304,0
305,316,300,308,0
306,325,304,311,0
308,325,308,314,0
309,318,311,316,0
310,313,313,318,0
311,313,314,319,0
310,315,314,318,0
309,316,313,318,0
307,318,311,317,0
305,319,309,316,0
303,315,307,314,0
302,307,305,311,0
302,299,305,309,0
301,293,304,307,0
303,289,304,306,0
304,288,303,304,0
305,287,302,303,0
305,287,301,301,0
304,286,300,299,0
303,285,300,297,0
301,287,301,295,0
301,287,301,293,0
301,288,301,290,0
300,291,300,288,0
300,295,299,286,0
301,301,300,288,0
302,310,302,292,0
304,322,305,296,0
306,331,307,300,0
308,339,308,302,0
309,341,307,302,0
309,338,304,301,0
309,334,303,301,0
309,334,302,302,0
309,338,300,303,0
309,342,298,305,0
307,342,297,309,0
306,337,296,312,0
306,328,295,315,0
306,319,293,316,0
306,309,293,318,0
307,302,297,318,0
308,300,303,318,0
308,301,311,317,0
309,301,316,315,0
309,303,318,314,0
309,305,317,314,0
308,303,315,314,0
309,298,313,313,0
309,291,310,312,0
309,290,308,310,0
309,294,309,309,0
310,302,310,309,0
311,306,311,308,0
311,303,311,307,0
311,297,309,307,0
311,293,307,308,0
311,293,305,309,0
312,293,304,310,0
313,292,305,311,0
314,292,308,311,0
315,293,312,310,0
315,293,314,310,0
314,289,315,309,0
313,288,313,307,0
312,297,310,305,0
312,316,306,303,0
311,339,303,301,0
311,362,300,299,0
310,373,299,298,0
309,367,299,298,0
308,350,302,299,0
307,328,305,301,0
306,303,307,301,0
304,285,307,299,0
302,274,306,298,0
301,269,306,299,0
301,270,306,301,0
302,272,307,304,0
303,272,308,306,0
304,272,309,307,0
304,274,309,308,0
305,280,310,308,0
306,288,310,307,0
306,300,309,306,0
307,313,308,304,0
307,328,307,303,0
308,343,306,303,0
308,354,305,303,0
308,360,305,305,0
309,362,304,306,0
309,363,303,307,0
308,359,303,307,0
307,350,303,305,0
305,338,304,304,0
304,324,306,304,0
304,309,308,303,0
302,297,309,303,0
301,288,310,303,0
302,282,310,303,0
302,278,308,303,0
302,277,306,302,0
302,280,304,301,0
302,283,303,300,0
303,284,303,298,0
304,281,304,297,0
306,272,306,298,0
307,258,307,300,0
308,248,308,302,0
308,244,308,304,0
309,247,307,306,0
309,257,305,307,0
309,271,303,308,0
309,287,302,309,0
310,301,301,309,0
311,313,300,308,0
312,322,298,307,0
312,329,294,305,0
311,330,292,304,0
310,325,291,302,0
308,317,292,301,0
308,310,293,301,0
308,307,295,303,0
308,310,296,305,0
308,318,297,308,0
307,330,296,309,0
306,340,297,309,0
305,349,299,308,0
305,355,303,309,0
306,355,307,310,0
307,346,310,312,0
308,330,310,313,0
307,311,308,312,0
307,292,305,310,0
306,280,302,309,0
307,275,301,307,0
308,278,304,307,0
309,286,310,308,0
311,295,318,312,0
312,303,324,315,0
311,308,327,316,0
309,308,326,315,0
306,307,322,313,0
305,309,318,312,0
305,311,314,311,0
305,306,311,311,0
306,299,309,311,0
306,294,308,310,0
306,294,308,310,0
305,297,309,310,0
304,304,311,310,0
303,312,313,312,0
304,318,314,313,0
304,323,314,315,0
304,325,313,315,0
304,324,311,315,0
304,322,307,312,0
305,321,305,310,0
304,324,304,307,0
304,331,304,305,0
305,338,305,303,0
306,342,307,302,0
308,340,308,301,0
309,332,309,301,0
310,320,310,302,0
311,304,312,303,0
311,287,313,305,0
311,276,315,307,0
311,269,315,308,0
311,269,315,309,0
310,270,314,309,0
309,275,313,308,0
308,284,310,307,0
307,294,308,305,0
307,303,306,307,0
306,310,304,310,0
305,316,303,313,0
304,321,302,314,0
303,323,302,314,0
301,322,301,313,0
300,319,300,313,0
300,316,301,312,0
301,314,303,312,0
302,314,304,312,0
303,313,305,312,0
304,313,305,311,0
306,315,304,311,0
306,317,303,310,0
307,320,300,309,0
308,325,297,308,0
309,330,295,307,0
310,336,295,307,0
312,345,298,308,0
314,355,304,310,0
316,361,310,310,0
316,366,315,310,0
317,372,317,310,0
317,372,315,310,0
314,356,311,308,0
310,328,307,307,0
306,299,304,307,0
304,275,303,308,0
303,256,302,309,0
303,245,301,309,0
303,241,300,309,0
304,245,298,307,0
303,253,296,305,0
302,262,293,303,0
301,269,289,301,0
302,277,287,301,0
303,289,286,303,0
304,304,287,306,0
305,319,289,308,0
306,331,292,310,0
306,336,294,312,0
306,334,297,313,0
305,325,300,314,0
304,313,304,315,0
304,303,306,316,0
305,296,308,317,0
305,292,309,317,0
305,290,309,317,0
304,289,309,317,0
304,289,310,317,0
303,291,313,317,0
303,295,317,315,0
303,303,320,315,0
305,316,321,315,0
306,330,319,316,0
307,341,316,315,0
306,341,312,314,0
305,331,310,312,0
303,317,308,311,0
302,303,307,311,0
301,290,306,312,0
302,278,305,313,0
304,269,305,315,0
306,263,306,316,0
307,261,306,316,0
307,265,306,316,0
308,275,306,315,0
308,291,306,314,0
307,312,303,311,0
304,333,299,307,0
301,347,296,303,0
299,347,294,299,0
297,332,293,297,0
296,312,294,297,0
296,294,294,299,0
297,282,294,301,0
299,274,295,304,0
301,268,296,306,0
302,267,298,307,0
304,270,300,308,0
304,277,302,309,0
304,286,303,310,0
304,295,303,311,0
303,303,302,311,0
302,309,302,311,0
302,315,303,310,0
302,318,304,309,0
302,319,306,307,0
302,319,306,305,0
302,316,306,304,0
302,312,306,304,0
303,308,306,304,0
304,305,307,304,0
306,306,309,305,0
307,313,311,306,0
308,324,314,308,0
309,339,316,310,0
310,351,318,311,0
310,357,317,313,0
309,359,312,313,0
308,353,305,312,0
307,335,299,310,0
305,312,293,307,0
303,295,290,305,0
302,290,290,304,0
303,293,293,305,0
305,301,296,308,0
307,307,299,312,0
308,309,302,315,0
309,309,304,317,0
310,306,305,318,0
311,301,306,317,0
312,298,307,317,0
313,296,308,317,0
314,294,307,316,0
313,291,306,315,0
312,286,304,314,0
311,281,304,313,0
311,275,306,311,0
311,269,307,309,0
311,265,309,307,0
311,266,310,306,0
312,275,313,306,0
312,292,314,306,0
312,317,313,306,0
309,342,310,305,0
305,353,305,301,0
300,343,299,297,0
297,324,295,296,0
296,306,294,296,0
296,295,294,299,0
299,289,295,302,0
301,289,298,305,0
302,294,301,306,0
304,302,304,307,0
306,311,306,307,0
307,317,305,306,0
306,320,304,305,0
305,321,303,304,0
304,318,303,305,0
302,312,304,307,0
302,304,306,308,0
301,297,309,309,0
302,293,311,310,0
302,292,313,309,0
303,294,313,308,0
304,299,312,307,0
305,313,310,306,0
305,335,308,305,0
307,360,308,304,0
309,381,310,305,0
311,391,311,307,0
311,379,312,309,0
310,349,311,308,0
308,312,309,306,0
305,279,306,304,0
304,257,304,302,0
303,247,303,302,0
304,248,302,302,0
304,256,303,301,0
304,265,305,299,0
304,273,307,299,0
304,280,309,299,0
305,288,310,300,0
305,294,312,301,0
305,299,312,301,0
304,302,311,302,0
304,304,310,301,0
304,307,308,301,0
305,309,307,300,0
306,311,306,299,0
307,313,304,298,0
308,314,304,297,0
308,314,305,295,0
307,315,305,294,0
305,316,307,294,0
305,319,308,295,0
304,320,308,296,0
304,323,307,297,0
304,326,305,298,0
304,329,306,299,0
306,329,309,300,0
308,324,314,302,0
310,310,317,304,0
312,292,318,305,0
313,277,318,306,0
313,268,317,307,0
314,264,315,308,0
313,262,313,308,0
313,264,311,308,0
313,268,310,309,0
314,276,310,309,0
314,290,310,311,0
314,306,310,311,0
315,319,310,311,0
314,326,310,311,0
314,327,308,311,0
313,326,307,310,0
311,327,306,308,0
310,330,304,307,0
307,332,302,304,0
305,331,302,303,0
303,324,305,302,0
303,314,310,302,0
303,304,314,303,0
304,298,316,304,0
304,296,318,305,0
304,299,318,306,0
304,306,318,309,0
305,313,317,312,0
306,320,315,313,0
306,324,313,313,0
306,321,309,312,0
305,312,306,309,0
305,303,306,307,0
305,299,307,306,0
306,304,309,307,0
308,313,311,310,0
309,324,311,314,0
308,326,311,316,0
307,317,311,317,0
305,303,311,315,0
304,289,311,314,0
304,278,312,312,0
304,270,313,312,0
306,268,315,311,0
307,273,315,311,0
308,285,314,311,0
309,302,315,311,0
310,322,316,310,0
310,334,316,309,0
309,334,314,307,0
307,321,312,305,0
306,303,311,305,0
306,289,311,306,0
308,286,312,308,0
310,291,313,310,0
311,297,312,311,0
309,297,310,308,0
305,290,307,305,0
302,284,304,303,0
300,283,301,302,0
300,285,299,302,0
300,288,297,301,0
300,290,296,300,0
300,291,296,299,0
301,293,297,299,0
302,298,298,299,0
303,306,299,299,0
305,314,300,300,0
306,319,303,302,0
306,322,306,303,0
304,320,308,303,0
302,316,311,303,0
301,313,313,303,0
301,315,314,303,0
303,320,314,304,0
305,327,314,306,0
307,334,314,307,0
308,338,311,309,0
308,336,308,311,0
309,331,306,312,0
309,325,305,313,0
310,318,305,314,0
311,311,305,315,0
310,304,305,314,0
310,301,306,313,0
309,301,308,311,0
308,304,310,311,0
307,307,314,311,0
307,305,317,312,0
307,294,319,313,0
306,279,319,313,0
305,268,317,313,0
305,264,316,311,0
305,264,314,310,0
304,267,311,308,0
304,275,308,307,0
304,288,307,306,0
304,304,306,307,0
304,319,305,307,0
303,329,304,307,0
303,331,300,306,0
302,323,295,305,0
301,312,291,303,0
299,304,289,301,0
298,298,289,301,0
298,295,291,302,0
299,293,294,303,0
300,295,298,304,0
301,301,302,306,0
302,312,306,309,0
303,324,309,312,0
306,335,312,315,0
309,344,316,319,0
312,348,319,323,0
313,340,321,326,0
312,325,322,326,0
311,309,322,325,0
309,300,321,323,0
307,299,320,322,0
306,301,318,322,0
307,305,317,323,0
307,305,315,323,0
307,298,314,323,0
306,287,312,323,0
305,276,312,322,0
304,267,311,321,0
303,265,311,319,0
303,269,310,317,0
302,278,307,315,0
301,288,303,312,0
299,299,299,309,0
299,307,296,306,0
299,313,297,306,0
300,315,300,308,0
302,314,304,311,0
304,310,306,314,0
305,307,308,317,0
306,307,308,319,0
307,308,307,321,0
306,311,306,321,0
306,314,304,320,0
304,316,302,320,0
303,314,302,317,0
302,310,304,315,0
301,307,307,313,0
302,309,309,312,0
303,314,311,311,0
304,320,311,312,0
306,326,311,314,0
307,332,308,315,0
306,338,304,315,0
306,343,301,314,0
305,341,299,313,0
305,330,297,312,0
304,317,296,311,0
304,306,295,310,0
303,298,295,308,0
303,295,297,305,0
302,299,302,303,0
304,309,308,302,0
306,323,312,304,0
309,330,315,305,0
311,320,316,306,0
312,305,316,307,0
313,302,315,309,0
312,314,312,311,0
310,329,307,311,0
306,336,302,309,0
302,329,297,307,0
299,313,295,305,0
298,298,295,305,0
297,289,298,305,0
298,284,301,306,0
299,279,304,307,0
301,276,306,308,0
302,275,306,308,0
303,276,305,308,0
304,278,304,306,0
304,280,304,305,0
305,283,304,304,0
305,284,305,303,0
305,285,304,303,0
306,284,303,302,0
307,282,301,301,0
308,281,298,300,0
308,280,295,300,0
308,283,291,299,0
307,288,290,298,0
305,293,290,298,0
304,297,294,300,0
304,302,298,304,0
304,309,302,308,0
304,318,304,310,0
305,321,305,310,0
306,321,302,309,0
306,318,299,308,0
306,316,298,308,0
307,313,300,310,0
310,309,305,314,0
313,305,310,318,0
316,303,312,321,0
317,306,313,322,0
318,311,312,321,0
315,314,309,319,0
312,317,305,317,0
309,318,303,315,0
306,319,302,313,0
305,320,305,313,0
306,325,308,313,0
307,334,312,314,0
309,346,314,315,0
309,355,314,315,0
309,355,311,314,0
309,350,308,313,0
309,343,307,311,0
310,341,306,311,0
310,348,305,311,0
310,365,304,310,0
311,385,304,309,0
312,396,303,309,0
311,386,301,309,0
310,359,298,309,0
309,327,296,308,0
308,300,294,307,0
307,284,293,307,0
307,274,292,306,0
307,268,293,305,0
308,266,294,306,0
308,268,295,308,0
307,271,297,310,0
306,272,300,313,0
305,271,303,314,0
304,268,306,314,0
305,264,308,313,0
305,262,309,311,0
306,267,310,310,0
307,277,310,310,0
308,290,311,311,0
310,304,311,311,0
309,310,310,311,0
308,309,308,311,0
307,304,307,312,0
306,298,306,311,0
306,290,306,311,0
306,283,306,310,0
307,278,306,309,0
307,276,304,308,0
308,275,303,307,0
309,275,302,307,0
310,277,301,307,0
310,281,300,307,0
310,283,301,307,0
309,282,302,307,0
309,279,304,306,0
308,278,306,306,0
310,278,308,307,0
311,277,310,310,0
310,275,310,311,0
309,275,310,312,0
308,280,309,312,0
307,285,308,311,0
307,291,306,311,0
307,295,304,311,0
307,299,301,310,0
306,301,297,306,0
303,303,295,302,0
302,306,294,299,0
303,311,295,298,0
304,318,297,298,0
306,326,300,301,0
308,334,303,305,0
308,341,305,310,0
307,346,308,315,0
306,345,310,317,0
305,340,311,319,0
304,334,312,320,0
304,330,312,320,0
304,328,311,321,0
305,327,311,322,0
307,325,311,323,0
309,320,311,324,0
309,317,311,323,0
308,317,312,323,0
306,317,315,322,0
304,318,317,322,0
303,320,317,322,0
303,323,315,322,0
304,331,312,321,0
304,346,309,319,0
304,366,305,317,0
304,387,303,314,0
304,398,302,312,0
303,394,304,311,0
302,372,306,313,0
302,345,308,314,0
303,324,311,317,0
304,311,314,319,0
306,301,317,321,0
307,289,318,322,0
307,274,317,321,0
305,261,316,318,0
304,254,313,316,0
304,251,310,314,0
304,253,307,313,0
305,258,305,312,0
306,265,304,313,0
306,273,303,314,0
307,280,302,315,0
307,289,300,316,0
308,297,298,317,0
307,304,297,318,0
306,310,297,318,0
304,316,299,318,0
302,320,302,316,0
300,322,306,315,0
299,321,310,313,0
299,313,312,311,0
300,300,312,310,0
301,288,311,310,0
302,281,311,310,0
303,277,310,312,0
302,274,310,313,0
303,275,309,314,0
303,280,308,314,0
303,289,307,314,0
303,299,306,312,0
303,308,305,311,0
302,315,302,310,0
302,319,301,309,0
301,318,301,308,0
301,312,302,307,0
302,300,303,306,0
302,288,302,306,0
302,279,301,305,0
302,275,300,305,0
303,279,301,306,0
304,288,303,307,0
306,302,307,309,0
309,317,310,312,0
311,328,311,316,0
312,335,311,320,0
312,342,310,322,0
312,347,309,324,0
311,348,307,324,0
308,340,305,324,0
305,326,305,322,0
302,311,306,321,0
301,301,309,320,0
301,293,312,320,0
303,287,315,321,0
304,283,317,322,0
304,283,317,323,0
305,285,316,323,0
305,289,313,322,0
306,294,311,321,0
307,300,309,320,0
308,306,306,320,0
310,313,306,320,0
311,322,306,319,0
312,333,308,319,0
314,346,312,319,0
315,353,315,320,0
315,350,318,319,0
314,343,319,319,0
313,338,319,319,0
312,338,318,320,0
309,333,316,320,0
306,319,314,319,0
303,300,312,318,0
302,283,311,317,0
302,272,311,316,0
302,267,310,314,0
302,267,308,312,0
301,266,306,310,0
300,265,306,308,0
300,262,306,307,0
301,262,308,308,0
304,266,309,310,0
308,276,311,313,0
311,291,313,317,0
313,309,313,320,0
313,323,313,321,0
311,329,312,321,0
309,333,311,320,0
308,337,310,320,0
307,343,310,320,0
306,345,310,320,0
306,337,309,320,0
304,321,308,318,0
302,303,305,316,0
300,291,301,314,0
299,285,297,311,0
297,286,292,308,0
297,290,288,305,0
297,295,288,306,0
298,300,291,309,0
299,303,297,313,0
300,305,303,315,0
301,307,306,315,0
301,309,309,312,0
302,311,310,311,0
304,310,311,312,0
306,307,314,314,0
308,302,317,315,0
309,300,320,316,0
310,301,321,315,0
310,304,320,314,0
309,305,317,313,0
308,306,314,311,0
307,306,309,308,0
306,308,305,309,0
306,312,304,312,0
306,318,303,316,0
306,324,303,318,0
306,333,305,320,0
307,345,307,322,0
309,358,310,324,0
310,364,311,325,0
312,363,312,326,0
312,358,313,327,0
312,348,312,325,0
310,333,310,322,0
307,318,308,320,0
306,306,304,317,0
304,299,301,313,0
304,296,298,311,0
303,295,297,308,0
303,298,296,306,0
303,302,296,305,0
303,307,297,305,0
303,312,301,305,0
303,314,306,306,0
303,310,309,306,0
302,304,309,307,0
302,299,308,308,0
302,292,307,308,0
302,280,306,309,0
303,267,308,309,0
305,257,309,309,0
306,254,308,310,0
307,257,305,310,0
306,267,301,309,0
304,279,297,308,0
301,295,294,306,0
300,314,293,307,0
300,331,295,308,0
300,342,299,309,0
300,348,304,311,0
301,345,308,312,0
302,335,311,312,0
303,325,312,312,0
304,319,311,311,0
306,317,310,311,0
308,315,310,311,0
309,312,311,311,0
310,306,311,311,0
310,301,311,311,0
311,299,310,311,0
311,302,311,312,0
312,309,312,312,0
311,314,313,312,0
309,309,313,310,0
305,296,312,308,0
303,284,312,305,0
302,282,313,304,0
301,289,313,302,0
300,299,313,299,0
299,309,311,296,0
298,319,310,295,0
298,324,308,295,0
299,322,306,297,0
301,316,305,300,0
302,306,304,303,0
304,296,305,306,0
305,288,306,308,0
306,284,307,309,0
307,283,307,310,0
308,282,307,311,0
307,281,306,311,0
307,281,306,310,0
307,280,308,310,0
308,278,310,309,0
308,277,312,308,0
308,276,312,306,0
308,276,311,304,0
307,277,310,301,0
305,279,307,298,0
302,284,305,296,0
300,291,306,297,0
299,298,309,301,0
300,303,312,304,0
302,306,314,309,0
303,312,315,312,0
304,324,314,312,0
306,343,313,312,0
307,364,312,311,0
308,379,312,310,0
308,376,312,309,0
307,357,314,307,0
306,329,315,305,0
304,302,316,303,0
303,283,316,302,0
303,273,318,302,0
305,272,318,305,0
306,276,319,308,0
307,282,319,310,0
307,284,317,310,0
306,281,313,310,0
305,275,311,309,0
304,272,309,308,0
304,277,307,308,0
303,289,305,308,0
302,303,304,308,0
302,317,305,308,0
301,321,308,308,0
301,318,311,306,0
301,313,314,306,0
302,310,316,307,0
305,309,317,309,0
307,311,318,311,0
310,311,318,311,0
312,309,318,313,0
313,304,318,314,0
312,295,318,313,0
310,286,316,312,0
307,278,314,310,0
304,274,312,308,0
302,274,310,307,0
301,281,307,307,0
300,294,305,308,0
300,309,305,308,0
300,323,304,307,0
299,333,304,305,0
299,339,304,304,0
300,338,304,303,0
301,328,302,303,0
301,315,300,303,0
302,303,298,304,0
303,295,299,304,0
304,291,299,304,0
304,291,299,304,0
304,295,298,304,0
304,300,297,304,0
305,304,296,303,0
306,307,297,302,0
306,308,298,300,0
305,304,301,299,0
305,300,305,298,0
305,297,308,299,0
305,297,309,299,0
306,304,308,299,0
307,317,306,299,0
307,333,302,297,0
307,348,299,296,0
307,354,296,294,0
306,348,294,292,0
306,334,294,292,0
304,317,295,292,0
303,302,298,294,0
302,294,300,296,0
301,294,301,298,0
301,297,302,300,0
301,296,303,300,0
300,293,305,300,0
300,291,305,301,0
300,292,304,303,0
301,295,303,305,0
301,300,302,308,0
302,303,301,310,0
303,302,300,311,0
303,297,301,311,0
304,292,304,310,0
304,287,306,309,0
304,284,307,306,0
304,282,306,303,0
305,281,304,303,0
305,281,304,303,0
306,284,305,305,0
306,288,307,307,0
307,291,308,308,0
306,294,308,308,0
307,298,308,307,0
307,302,309,307,0
307,304,309,307,0
307,306,310,307,0
307,309,309,307,0
308,312,307,308,0
308,316,306,308,0
309,321,304,309,0
309,324,301,311,0
309,324,300,312,0
309,323,298,312,0
308,321,299,312,0
308,319,301,311,0
307,316,304,311,0
307,313,308,311,0
306,309,310,310,0
305,304,311,308,0
304,297,311,307,0
303,290,309,305,0
302,286,307,304,0
302,284,305,303,0
303,284,303,304,0
305,285,304,306,0
308,288,306,310,0
311,292,309,312,0
313,295,311,313,0
313,300,312,312,0
311,309,312,311,0
309,324,312,310,0
307,343,311,309,0
306,359,310,309,0
306,369,310,310,0
306,371,310,310,0
305,363,309,310,0
304,347,307,311,0
302,331,305,312,0
301,312,305,312,0
299,293,305,312,0
298,277,306,312,0
298,264,309,312,0
299,253,312,311,0
299,247,315,310,0
300,243,317,309,0
300,240,318,309,0
301,239,318,308,0
303,239,318,307,0
305,241,317,306,0
308,246,316,307,0
310,255,314,308,0
312,266,313,309,0
314,284,313,310,0
316,307,312,311,0
315,329,311,311,0
312,345,308,310,0
308,347,303,306,0
302,334,299,303,0
298,313,295,300,0
296,295,293,298,0
296,284,293,298,0
296,279,292,298,0
297,282,292,300,0
298,290,291,302,0
299,299,291,305,0
299,306,293,307,0
300,311,297,309,0
300,313,302,309,0
301,315,307,308,0
302,317,311,307,0
303,319,313,307,0
304,320,313,307,0
304,320,312,308,0
305,320,311,310,0
304,321,310,313,0
304,320,310,316,0
305,317,310,317,0
306,317,311,318,0
308,320,312,318,0
309,326,313,320,0
311,335,313,321,0
312,346,313,322,0
311,351,312,322,0
309,346,310,321,0
306,335,307,320,0
302,320,305,319,0
300,306,303,317,0
299,295,302,316,0
298,289,302,315,0
299,290,302,313,0
300,297,302,312,0
301,310,302,311,0
302,324,301,311,0
304,336,301,311,0
306,344,301,312,0
308,347,302,313,0
309,343,304,314,0
309,339,307,315,0
310,337,310,316,0
309,334,313,316,0
308,326,314,315,0
306,313,314,314,0
305,299,314,314,0
304,288,313,313,0
303,281,312,313,0
303,278,312,313,0
303,276,311,313,0
303,275,310,312,0
303,274,307,310,0
304,276,305,308,0
306,281,301,307,0
308,290,298,305,0
310,299,296,303,0
313,308,295,303,0
314,314,295,304,0
314,317,295,305,0
312,321,294,307,0
312,327,294,308,0
312,332,293,309,0
311,333,292,311,0
309,326,291,311,0
308,313,293,309,0
307,302,297,307,0
306,295,300,305,0
305,293,303,303,0
304,296,304,300,0
304,300,304,300,0
305,301,304,302,0
306,298,305,305,0
305,294,304,306,0
305,289,305,307,0
305,284,306,308,0
305,280,308,308,0
307,279,311,308,0
308,278,311,309,0
310,277,310,308,0
310,274,308,307,0
310,271,305,306,0
309,269,304,305,0
309,270,302,306,0
308,272,301,307,0
308,277,302,309,0
308,286,304,311,0
308,295,306,312,0
307,304,307,313,0
306,310,307,313,0
305,315,307,312,0
304,318,305,312,0
304,319,303,311,0
304,317,301,309,0
305,312,299,306,0
306,304,298,305,0
307,296,299,307,0
309,288,300,308,0
310,279,303,308,0
311,274,305,308,0
310,277,306,308,0
308,291,306,307,0
307,312,305,307,0
306,334,304,307,0
306,352,304,306,0
306,363,304,306,0
306,368,305,305,0
306,369,305,304,0
307,364,303,303,0
307,355,302,303,0
308,345,301,302,0
308,333,299,300,0
307,321,299,299,0
306,311,301,300,0
305,305,305,302,0
304,301,311,304,0
304,304,315,307,0
305,314,318,309,0
304,326,319,311,0
304,337,318,313,0
305,341,315,314,0
305,337,314,314,0
307,327,312,314,0
307,316,311,314,0
308,307,310,313,0
310,299,309,313,0
310,289,308,312,0
310,281,308,311,0
310,276,308,310,0
309,276,307,310,0
308,278,307,311,0
307,281,306,310,0
305,282,305,309,0
303,283,303,308,0
301,286,301,307,0
300,291,300,308,0
301,296,299,308,0
303,300,298,309,0
304,303,298,308,0
306,305,297,306,0
307,306,296,304,0
309,310,296,304,0
311,313,297,305,0
312,316,299,306,0
312,320,301,306,0
310,324,303,304,0
308,327,306,303,0
307,329,310,301,0
307,331,313,299,0
307,335,315,298,0
308,341,316,299,0
308,345,317,303,0
310,343,318,307,0
312,335,318,310,0
312,323,318,312,0
313,314,317,312,0
312,307,315,312,0
311,302,313,311,0
311,297,312,310,0
311,290,311,310,0
311,281,309,310,0
310,271,307,310,0
309,265,304,310,0
307,267,303,310,0
305,273,301,310,0
303,281,299,308,0
302,287,297,306,0
301,294,293,304,0
300,300,290,300,0
300,306,289,297,0
301,311,292,295,0
302,313,297,295,0
303,310,303,296,0
303,302,308,297,0
302,292,312,299,0
302,286,315,301,0
302,286,317,302,0
303,291,318,304,0
304,300,317,306,0
306,310,315,307,0
307,321,315,307,0
309,331,315,307,0
310,341,315,307,0
310,350,314,306,0
310,355,313,306,0
308,354,311,305,0
307,349,309,304,0
306,342,308,303,0
307,340,307,302,0
307,342,306,301,0
308,344,305,301,0
308,344,306,302,0
309,338,306,302,0
308,323,306,301,0
308,301,305,299,0
307,280,304,298,0
307,266,305,298,0
307,262,305,298,0
306,265,307,298,0
306,273,309,299,0
306,286,311,299,0
306,298,312,300,0
306,306,313,302,0
308,312,313,304,0
308,313,313,306,0
309,311,312,308,0
309,308,310,307,0
310,307,308,306,0
309,309,306,304,0
308,312,303,303,0
306,312,300,302,0
304,309,299,300,0
302,309,298,298,0
302,316,301,296,0
303,331,303,296,0
304,345,307,297,0
305,350,310,300,0
305,343,313,301,0
305,326,315,303,0
306,308,315,304,0
307,292,314,304,0
308,281,314,304,0
310,274,311,303,0
311,270,308,303,0
310,269,304,302,0
308,270,301,303,0
306,273,301,303,0
305,279,303,304,0
304,287,305,305,0
303,296,307,305,0
303,302,308,305,0
303,305,308,304,0
304,306,308,303,0
304,301,308,301,0
306,293,308,301,0
307,286,308,301,0
307,282,307,302,0
307,282,307,303,0
307,287,307,304,0
308,294,308,306,0
308,304,310,306,0
309,315,311,306,0
308,323,311,306,0
307,328,312,305,0
306,330,311,304,0
304,330,310,303,0
303,330,309,302,0
301,328,308,302,0
301,325,307,301,0
302,324,307,302,0
304,324,306,303,0
306,325,305,303,0
308,325,305,302,0
310,327,304,301,0
309,327,303,300,0
308,325,302,300,0
307,324,301,300,0
304,324,299,300,0
303,317,298,300,0
301,304,298,299,0
299,290,300,298,0
299,281,302,298,0
299,278,305,299,0
301,280,307,301,0
303,284,309,303,0
305,288,309,305,0
307,292,307,307,0
309,295,306,308,0
311,299,304,308,0
311,308,302,307,0
311,322,301,304,0
311,336,300,301,0
310,346,301,298,0
308,344,302,295,0
306,327,303,294,0
304,305,304,293,0
303,285,305,293,0
305,273,305,294,0
306,267,304,296,0
307,268,302,298,0
308,275,300,302,0
309,285,299,306,0
310,295,299,310,0
310,303,300,314,0
310,310,300,316,0
310,314,302,317,0
310,316,303,315,0
310,317,305,314,0
311,318,308,312,0
312,322,310,311,0
313,329,312,309,0
314,337,312,307,0
314,341,311,306,0
313,339,310,304,0
312,331,308,303,0
310,323,305,302,0
308,313,303,300,0
306,301,303,300,0
306,290,305,302,0
307,284,307,305,0
308,282,307,307,0
308,282,305,307,0
308,286,303,306,0
308,289,300,305,0
308,293,295,303,0
308,296,290,300,0
307,298,286,298,0
307,299,287,297,0
308,299,292,298,0
308,301,301,300,0
309,302,310,303,0
309,303,316,305,0
309,302,319,308,0
309,303,320,309,0
308,308,320,310,0
308,316,318,310,0
307,325,316,309,0
307,332,314,308,0
306,339,313,306,0
306,346,313,305,0
307,353,313,304,0
307,357,313,303,0
306,357,312,300,0
305,354,310,298,0
304,346,309,296,0
303,334,307,295,0
302,319,305,294,0
301,304,304,295,0
301,295,304,297,0
302,292,305,300,0
305,293,308,304,0
308,297,310,308,0
310,302,312,310,0
312,304,312,312,0
312,301,311,313,0
312,293,309,312,0
311,286,307,311,0
310,282,306,310,0
310,279,306,309,0
310,276,305,307,0
310,274,305,306,0
309,274,305,305,0
308,273,305,305,0
307,271,307,304,0
307,275,309,304,0
307,290,312,304,0
307,314,314,306,0
307,338,313,307,0
306,353,311,306,0
304,358,308,304,0
303,353,304,300,0
303,341,300,296,0
301,325,296,292,0
300,308,293,288,0
299,296,291,287,0
299,291,291,288,0
299,292,292,290,0
300,298,294,294,0
301,304,296,298,0
302,309,298,301,0
303,311,300,304,0
304,310,302,306,0
305,309,305,307,0
305,310,309,307,0
306,314,313,308,0
308,320,318,309,0
309,323,320,309,0
308,320,319,309,0
307,313,318,309,0
305,305,315,308,0
304,296,313,306,0
302,288,312,305,0
302,283,313,304,0
303,283,314,304,0
304,287,316,305,0
304,295,316,305,0
304,306,315,306,0
304,315,313,307,0
303,322,312,307,0
302,326,311,308,0
301,327,310,308,0
300,320,309,307,0
300,305,308,306,0
300,291,308,305,0
300,282,306,305,0
300,277,304,305,0
300,275,302,304,0
301,273,301,304,0
302,272,301,304,0
304,276,301,304,0
305,281,302,304,0
305,288,302,304,0
303,297,302,304,0
301,305,303,303,0
299,312,305,302,0
299,315,308,302,0
299,316,310,302,0
300,312,311,302,0
301,305,311,302,0
301,295,309,302,0
301,285,307,302,0
300,279,305,302,0
300,279,304,303,0
300,282,305,304,0
301,288,304,305,0
301,293,303,306,0
302,297,302,306,0
303,301,299,305,0
303,306,298,305,0
304,312,299,306,0
305,319,300,307,0
306,331,303,308,0
307,344,305,307,0
307,352,306,305,0
305,352,304,302,0
304,347,302,299,0
303,341,300,297,0
303,335,299,296,0
304,329,298,295,0
306,327,298,295,0
308,328,299,298,0
309,330,301,301,0
309,328,303,304,0
307,324,303,305,0
305,325,302,304,0
305,329,302,303,0
303,332,302,301,0
300,332,302,298,0
298,323,302,296,0
297,310,304,295,0
298,297,307,298,0
300,285,310,301,0
303,274,313,304,0
305,268,314,304,0
305,266,313,305,0
305,272,312,304,0
305,281,310,304,0
306,290,310,305,0
306,296,311,305,0
305,300,312,306,0
305,303,313,306,0
305,304,313,307,0
306,306,311,308,0
306,307,309,308,0
306,308,308,307,0
306,311,307,307,0
307,313,307,307,0
308,316,307,308,0
309,317,307,310,0
310,317,307,312,0
310,318,306,312,0
310,321,305,311,0
309,325,304,308,0
308,328,305,307,0
307,330,308,306,0
306,324,311,306,0
306,310,314,306,0
306,294,316,306,0
307,284,317,308,0
308,279,316,309,0
307,279,315,310,0
307,283,314,312,0
306,289,312,313,0
306,294,310,312,0
305,294,309,310,0
305,291,308,308,0
305,288,306,307,0
305,288,305,307,0
306,292,304,308,0
308,297,302,308,0
309,304,301,310,0
309,313,301,311,0
308,323,303,312,0
307,332,306,311,0
306,341,310,310,0
305,347,314,308,0
305,341,316,305,0
305,327,316,304,0
307,309,315,303,0
309,299,314,304,0
310,300,312,304,0
311,314,311,305,0
312,334,311,305,0
313,353,311,307,0
314,360,311,308,0
314,348,311,309,0
313,324,311,309,0
312,298,310,309,0
310,278,307,309,0
309,264,304,308,0
308,255,303,308,0
308,248,303,307,0
309,244,303,305,0
309,243,302,303,0
309,247,300,301,0
308,252,297,299,0
306,260,293,296,0
305,272,290,295,0
304,286,289,296,0
304,300,290,298,0
305,310,294,301,0
307,313,300,305,0
308,311,305,306,0
308,307,308,306,0
308,299,310,305,0
307,291,311,303,0
308,285,312,300,0
308,282,313,298,0
309,284,312,298,0
308,290,310,298,0
308,303,307,298,0
308,320,303,298,0
308,341,300,299,0
307,360,297,302,0
306,369,296,305,0
305,362,298,307,0
303,343,300,307,0
302,323,304,308,0
302,306,306,309,0
302,295,308,310,0
302,291,308,309,0
303,291,308,309,0
304,296,308,309,0
305,304,307,308,0
306,313,307,308,0
307,321,307,309,0
309,324,307,310,0
310,325,307,311,0
310,324,305,311,0
310,318,306,310,0
310,309,307,309,0
309,297,310,308,0
308,286,312,308,0
308,283,314,308,0
309,288,315,309,0
309,295,315,310,0
311,301,314,311,0
311,303,312,312,0
311,303,311,313,0
310,307,309,314,0
308,315,308,314,0
307,324,306,313,0
306,332,305,313,0
306,337,304,312,0
307,335,303,312,0
308,325,302,311,0
308,312,301,312,0
308,299,299,312,0
308,290,298,311,0
308,286,298,310,0
308,285,301,308,0
308,289,306,306,0
308,296,310,303,0
308,305,313,302,0
308,317,314,302,0
308,328,314,303,0
308,333,313,305,0
307,330,311,305,0
305,321,309,305,0
304,309,305,304,0
303,299,304,304,0
303,291,303,304,0
304,287,302,305,0
304,286,301,304,0
304,286,300,304,0
303,288,299,303,0
303,291,297,301,0
302,295,296,300,0
302,299,295,297,0
301,301,294,294,0
301,301,294,292,0
301,297,297,293,0
303,293,301,296,0
304,290,303,299,0
306,289,303,301,0
306,287,302,302,0
306,284,301,302,0
306,283,301,301,0
306,283,302,302,0
306,287,304,302,0
306,297,305,305,0
307,312,307,308,0
308,330,308,309,0
308,350,309,310,0
308,368,309,311,0
307,379,308,311,0
307,375,307,310,0
305,362,306,309,0
304,346,305,307,0
303,328,304,305,0
301,311,304,302,0
301,301,304,300,0
301,302,304,298,0
303,309,305,298,0
304,314,306,298,0
305,315,306,299,0
306,309,305,300,0
305,298,304,301,0
304,286,303,303,0
304,277,303,304,0
304,271,302,305,0
302,271,302,306,0
301,278,301,308,0
300,289,301,307,0
300,298,301,306,0
299,301,301,304,0
298,299,299,301,0
297,292,298,299,0
296,282,297,297,0
298,274,298,296,0
300,271,300,297,0
303,276,302,298,0
306,286,305,301,0
309,300,308,303,0
311,314,311,307,0
311,320,313,309,0
310,316,315,311,0
308,310,315,312,0
308,306,313,313,0
309,303,310,314,0
309,301,306,315,0
309,299,303,315,0
309,296,302,314,0
307,293,302,313,0
304,290,306,312,0
303,288,310,311,0
302,288,313,310,0
303,293,313,311,0
304,303,313,312,0
305,315,312,313,0
306,326,309,314,0
306,330,306,313,0
305,327,303,312,0
305,321,300,310,0
304,313,296,307,0
303,306,292,304,0
302,302,290,301,0
302,300,289,299,0
302,302,290,297,0
303,309,292,295,0
304,319,295,294,0
305,336,298,294,0
307,357,298,296,0
307,371,298,297,0
306,372,298,298,0
305,358,299,300,0
304,335,302,303,0
303,312,305,305,0
303,294,305,307,0
302,286,305,308,0
301,283,305,307,0
300,283,305,305,0
299,284,305,304,0
299,284,306,304,0
300,283,305,304,0
301,284,304,304,0
302,286,303,305,0
303,289,303,306,0
304,290,303,307,0
305,288,305,306,0
305,283,305,304,0
304,278,305,301,0
303,273,304,296,0
302,270,302,290,0
301,270,302,287,0
300,275,303,287,0
301,287,305,291,0
302,301,307,295,0
303,314,310,298,0
304,323,312,301,0
304,324,312,303,0
303,319,311,303,0
302,312,309,304,0
301,308,307,303,0
300,304,306,303,0
300,301,305,302,0
300,298,305,302,0
301,296,305,302,0
303,296,304,301,0
304,297,302,301,0
305,296,300,300,0
305,296,298,301,0
306,299,299,302,0
306,306,301,304,0
307,314,303,306,0
308,319,304,307,0
308,320,305,307,0
309,318,305,306,0
311,311,304,305,0
311,306,305,303,0
312,304,305,303,0
312,307,306,303,0
313,313,307,304,0
313,317,309,304,0
312,320,309,302,0
309,316,309,299,0
306,307,308,296,0
305,295,308,295,0
306,287,308,295,0
307,291,307,297,0
308,306,308,300,0
310,327,309,305,0
311,347,310,309,0
311,359,311,312,0
311,356,311,313,0
309,341,309,313,0
306,321,307,312,0
304,305,305,310,0
303,296,304,309,0
302,291,303,308,0
302,290,302,307,0
303,289,303,307,0
304,289,305,308,0
305,289,305,308,0
305,287,305,308,0
304,287,304,307,0
303,289,301,308,0
302,292,298,307,0
302,300,295,307,0
303,313,294,306,0
304,329,293,305,0
304,346,294,304,0
305,359,296,303,0
306,363,296,302,0
305,355,296,302,0
305,339,296,301,0
303,322,297,301,0
303,307,299,301,0
303,295,302,304,0
305,286,305,307,0
306,280,309,309,0
308,275,311,310,0
308,271,313,310,0
308,270,313,309,0
308,272,312,309,0
309,279,312,309,0
310,289,312,311,0
310,298,311,312,0
309,304,310,313,0
308,307,308,312,0
306,307,306,311,0
304,305,302,309,0
302,304,300,307,0
301,307,299,306,0
301,311,301,305,0
301,316,303,304,0
300,318,304,303,0
300,314,303,301,0
299,307,305,298,0
300,301,305,296,0
302,294,305,295,0
303,286,303,295,0
304,283,303,297,0
305,286,303,299,0
305,296,303,301,0
305,310,302,304,0
305,322,301,306,0
303,325,300,306,0
302,317,298,307,0
301,303,299,307,0
301,290,299,308,0
301,283,301,309,0
301,282,303,308,0
301,282,305,307,0
300,281,305,305,0
300,277,305,304,0
301,275,305,303,0
302,283,304,303,0
305,303,302,304,0
308,329,299,306,0
312,356,296,309,0
314,373,292,310,0
313,372,287,310,0
310,357,282,309,0
308,340,279,308,0
307,329,280,308,0
308,326,283,308,0
309,324,287,308,0
308,316,291,307,0
306,305,293,303,0
302,296,296,300,0
299,289,297,297,0
297,285,298,295,0
296,286,297,295,0
296,290,298,296,0
298,297,299,298,0
300,305,301,302,0
302,311,305,304,0
304,309,308,306,0
304,300,310,307,0
303,289,310,309,0
303,281,310,311,0
303,277,310,312,0
302,280,310,313,0
303,286,310,313,0
303,293,310,313,0
303,300,311,312,0
304,307,311,312,0
305,314,311,312,0
306,321,311,312,0
306,325,310,311,0
304,330,308,309,0
304,337,307,307,0
304,345,305,305,0
303,353,304,303,0
303,361,303,304,0
303,362,302,304,0
303,357,300,305,0
302,351,298,306,0
302,343,297,305,0
302,332,295,303,0
302,322,295,301,0
303,315,296,300,0
303,308,297,300,0
302,298,297,300,0
300,288,298,299,0
300,280,300,300,0
300,275,302,302,0
301,273,304,304,0
301,272,305,306,0
302,274,305,308,0
303,280,306,309,0
304,290,306,310,0
306,299,308,311,0
307,305,311,312,0
307,307,314,312,0
306,304,318,311,0
305,299,321,311,0
303,298,323,311,0
303,304,323,311,0
302,312,322,311,0
301,321,321,310,0
302,327,320,309,0
301,325,320,308,0
300,318,319,306,0
300,307,317,304,0
300,293,315,302,0
301,282,313,300,0
302,275,312,300,0
304,275,311,301,0
304,281,310,303,0
304,287,309,305,0
305,295,308,307,0
307,302,305,309,0
309,307,302,310,0
309,304,298,308,0
308,295,296,306,0
307,289,297,303,0
306,291,300,303,0
308,300,303,305,0
309,310,305,307,0
308,313,304,309,0
307,306,303,308,0
306,298,303,307,0
305,293,305,305,0
304,293,306,304,0
303,297,307,304,0
302,306,307,304,0
301,318,307,304,0
301,330,306,304,0
301,335,306,305,0
301,333,306,307,0
300,325,306,310,0
300,317,308,312,0
300,313,309,314,0
300,314,311,314,0
301,318,312,315,0
304,325,314,316,0
306,331,314,315,0
306,331,312,315,0
307,328,310,315,0
307,325,307,315,0
308,323,306,315,0
308,325,305,315,0
308,329,304,316,0
309,336,305,316,0
311,346,306,316,0
311,351,308,315,0
311,345,311,314,0
311,332,313,313,0
311,315,314,314,0
310,295,315,314,0
308,279,315,314,0
306,267,315,313,0
304,263,314,313,0
303,263,313,313,0
302,265,311,312,0
301,270,309,311,0
300,279,308,310,0
301,289,308,308,0
304,299,308,306,0
306,308,308,303,0
306,313,306,299,0
307,314,305,296,0
308,312,304,294,0
309,311,304,295,0
309,311,305,296,0
308,311,307,299,0
308,311,308,303,0
306,313,310,307,0
305,318,311,310,0
304,320,313,312,0
304,319,314,312,0
305,317,316,312,0
306,312,317,313,0
308,305,317,312,0
310,296,315,312,0
311,290,311,310,0
311,289,306,308,0
310,292,302,305,0
309,295,299,302,0
307,298,297,300,0
305,302,297,299,0
305,306,300,299,0
306,312,305,301,0
308,318,311,305,0
309,322,316,307,0
310,321,318,309,0
311,315,319,311,0
312,307,320,311,0
313,301,320,312,0
315,301,320,313,0
316,305,321,314,0
316,312,321,313,0
314,315,321,313,0
313,316,321,313,0
313,316,321,314,0
313,317,319,315,0
314,319,317,317,0
315,315,314,319,0
315,307,313,320,0
314,297,311,319,0
312,289,311,317,0
310,286,310,314,0
308,289,310,312,0
308,297,309,311,0
308,306,308,310,0
307,316,306,309,0
307,329,307,309,0
307,341,311,310,0
308,346,315,310,0
308,344,316,311,0
306,333,316,311,0
304,320,314,311,0
303,312,312,312,0
303,310,312,313,0
304,309,312,313,0
304,305,310,312,0
305,299,308,310,0
304,295,305,309,0
303,293,302,310,0
301,292,301,311,0
301,293,300,311,0
301,293,300,311,0
301,293,299,309,0
302,292,300,308,0
302,294,302,307,0
303,299,305,307,0
304,308,307,308,0
307,315,310,310,0
309,321,312,311,0
310,321,313,311,0
311,315,314,312,0
310,306,314,311,0
310,297,314,311,0
309,291,315,311,0
310,292,315,311,0
309,298,315,312,0
308,308,316,312,0
306,319,316,312,0
305,323,315,311,0
305,318,314,310,0
304,309,313,308,0
305,302,311,307,0
305,300,310,306,0
306,299,308,305,0
305,297,307,302,0
305,294,307,299,0
304,292,305,298,0
302,287,303,297,0
301,282,302,298,0
300,279,302,301,0
299,281,302,304,0
300,286,304,307,0
299,294,305,308,0
298,302,303,307,0
297,309,300,305,0
296,316,297,303,0
296,325,295,300,0
296,339,294,299,0
297,355,295,300,0
299,365,298,301,0
300,365,300,303,0
301,353,302,304,0
301,327,303,304,0
300,299,307,305,0
301,282,311,308,0
304,277,315,310,0
307,280,318,311,0
308,288,318,312,0
308,293,318,312,0
307,295,316,311,0
304,297,314,310,0
302,299,312,308,0
300,301,308,307,0
300,304,306,306,0
300,308,304,307,0
301,310,302,307,0
302,309,301,308,0
303,303,301,308,0
303,296,303,307,0
303,289,306,307,0
303,283,309,305,0
303,279,313,303,0
304,278,314,302,0
304,279,313,302,0
306,282,312,304,0
307,288,310,305,0
307,298,309,305,0
308,308,307,305,0
310,319,305,306,0
311,327,304,308,0
312,332,302,310,0
312,333,301,312,0
310,331,302,312,0
309,329,304,312,0
308,325,307,311,0
307,320,309,311,0
307,318,309,310,0
307,321,309,311,0
308,328,307,312,0
308,331,304,312,0
308,325,300,312,0
306,316,297,310,0
305,309,295,309,0
304,305,294,307,0
303,303,294,306,0
302,300,296,303,0
302,294,298,300,0
303,290,301,299,0
304,287,304,299,0
305,285,307,302,0
306,284,310,304,0
306,284,313,306,0
307,286,315,306,0
308,287,315,306,0
308,290,313,304,0
307,295,309,300,0
307,298,306,297,0
306,302,304,294,0
306,305,303,293,0
307,311,303,294,0
309,321,304,295,0
312,334,305,297,0
313,346,305,297,0
314,353,305,297,0
315,353,305,299,0
316,344,306,302,0
315,329,307,304,0
314,313,307,304,0
312,301,308,303,0
311,297,310,303,0
311,298,312,304,0
309,298,312,305,0
308,295,313,308,0
308,287,314,311,0
309,280,314,312,0
309,276,314,312,0
311,276,313,311,0
311,283,312,309,0
313,291,310,308,0
313,297,309,307,0
312,298,308,306,0
311,294,307,304,0
310,289,305,302,0
307,283,305,300,0
306,278,307,299,0
305,274,310,300,0
305,273,313,301,0
305,277,314,303,0
306,286,315,304,0
307,296,314,305,0
307,307,314,306,0
307,317,313,307,0
307,323,311,308,0
307,323,310,309,0
306,319,309,310,0
307,314,309,310,0
307,311,309,311,0
308,311,310,310,0
308,308,310,310,0
309,307,310,308,0
310,313,308,307,0
309,326,306,306,0
309,336,304,305,0
309,341,302,305,0
309,335,302,305,0
308,322,304,306,0
306,308,308,306,0
304,299,311,308,0
302,296,314,308,0
300,295,314,308,0
299,297,313,307,0
298,299,311,307,0
298,300,308,306,0
299,299,304,305,0
299,299,300,305,0
301,299,298,305,0
302,301,298,305,0
303,302,297,305,0
304,300,296,304,0
304,299,296,304,0
305,298,296,303,0
306,300,297,304,0
307,306,299,304,0
308,317,302,305,0
308,332,306,306,0
309,346,309,307,0
309,352,310,307,0
309,346,310,305,0
308,332,310,304,0
308,316,308,302,0
308,302,305,300,0
307,293,302,299,0
307,288,298,298,0
307,286,296,299,0
307,284,295,301,0
307,284,295,304,0
308,286,295,307,0
309,289,297,310,0
310,293,298,312,0
312,298,299,311,0
312,305,300,311,0
312,312,300,309,0
310,315,300,305,0
308,314,299,301,0
306,313,297,299,0
304,311,295,297,0
302,309,294,296,0
299,306,292,295,0
297,304,293,296,0
297,302,297,299,0
298,303,302,301,0
301,306,307,302,0
303,309,310,302,0
304,313,313,302,0
305,321,315,304,0
305,333,318,308,0
307,348,320,312,0
307,360,320,314,0
307,368,318,314,0
305,371,315,312,0
304,367,311,310,0
303,357,309,309,0
304,345,309,308,0
304,332,310,309,0
305,318,310,309,0
306,303,311,309,0
307,297,311,309,0
307,297,310,310,0
307,301,309,310,0
308,302,309,310,0
307,294,308,310,0
307,280,307,309,0
307,268,305,307,0
307,261,303,305,0
307,258,302,303,0
308,259,301,303,0
308,265,300,303,0
307,271,301,303,0
307,277,302,302,0
306,281,303,301,0
306,283,304,300,0
306,284,304,298,0
307,286,303,297,0
308,285,303,297,0
309,284,306,299,0
310,286,310,303,0
310,294,313,308,0
310,308,314,311,0
309,324,313,312,0
308,339,311,311,0
307,349,308,308,0
306,350,304,305,0
306,342,301,302,0
306,332,300,301,0
307,324,300,301,0
309,318,302,303,0
310,310,304,305,0
309,301,306,305,0
308,292,308,305,0
306,286,310,304,0
305,283,312,305,0
306,285,314,305,0
306,289,314,305,0
306,294,312,304,0
304,297,310,304,0
303,299,309,302,0
303,301,307,301,0
303,303,306,301,0
304,304,305,301,0
304,305,305,301,0
304,305,303,301,0
304,305,301,300,0
304,305,300,301,0
304,307,300,302,0
306,312,301,304,0
307,324,302,305,0
308,340,304,306,0
309,355,306,307,0
309,366,307,307,0
310,367,308,307,0
310,349,308,306,0
310,318,308,305,0
310,290,308,305,0
312,275,309,305,0
312,274,308,304,0
312,281,308,303,0
311,289,307,302,0
310,294,305,301,0
309,290,304,299,0
309,281,303,299,0
309,271,304,299,0
311,267,304,300,0
311,268,304,301,0
310,278,301,302,0
309,292,299,304,0
307,307,295,306,0
306,322,292,306,0
306,338,289,306,0
305,356,288,306,0
306,373,288,307,0
307,387,290,308,0
307,392,290,309,0
306,382,292,309,0
306,363,295,308,0
305,340,299,307,0
306,316,303,307,0
307,295,306,308,0
309,282,309,309,0
310,278,312,312,0
312,280,315,314,0
312,284,318,317,0
313,287,319,318,0
313,284,318,317,0
312,280,315,316,0
310,275,311,314,0
308,271,308,311,0
306,270,306,309,0
305,269,305,307,0
305,269,306,306,0
305,269,307,306,0
306,269,309,305,0
306,269,311,304,0
306,268,311,304,0
306,270,310,304,0
306,275,309,305,0
306,283,306,305,0
307,296,303,306,0
308,317,300,306,0
309,343,297,306,0
311,367,294,305,0
311,386,294,306,0
310,389,296,305,0
309,373,300,304,0
307,347,305,304,0
307,323,311,304,0
307,306,315,307,0
309,295,316,310,0
310,291,314,311,0
310,294,312,310,0
310,302,309,308,0
310,313,307,306,0
311,325,306,305,0
312,333,304,303,0
314,335,303,304,0
316,338,303,305,0
319,343,304,307,0
321,344,304,308,0
320,336,303,307,0
318,320,303,305,0
313,300,300,302,0
308,283,299,300,0
305,275,299,298,0
303,276,301,297,0
302,282,302,297,0
301,286,302,297,0
301,286,299,297,0
301,283,295,297,0
302,281,291,298,0
302,282,287,298,0
303,285,285,297,0
302,289,286,296,0
302,293,287,294,0
302,294,291,292,0
303,295,297,292,0
306,295,303,296,0
309,295,308,301,0
312,296,312,306,0
314,296,314,311,0
315,296,315,313,0
315,296,316,314,0
314,296,315,312,0
312,296,313,309,0
311,297,309,306,0
309,299,305,304,0
307,300,302,303,0
306,300,301,303,0
307,299,304,304,0
308,298,305,304,0
309,298,304,303,0
309,297,302,302,0
308,297,299,302,0
308,298,298,303,0
308,302,299,304,0
308,308,301,304,0
308,315,302,305,0
308,321,304,305,0
308,323,304,306,0
309,324,304,305,0
309,326,303,304,0
308,325,301,302,0
306,321,300,298,0
305,314,300,294,0
304,308,301,292,0
304,303,302,291,0
304,298,304,290,0
305,297,307,291,0
306,302,310,295,0
309,310,312,299,0
312,316,313,304,0
315,318,315,307,0
318,316,316,310,0
319,314,317,313,0
320,314,319,314,0
320,312,319,315,0
318,307,317,315,0
317,304,315,313,0
315,306,313,312,0
314,311,311,310,0
313,312,307,308,0
312,308,305,307,0
311,300,303,307,0
310,292,305,308,0
310,287,310,309,0
309,287,315,309,0
308,292,319,308,0
307,302,320,307,0
307,313,320,306,0
308,320,318,306,0
308,324,316,306,0
308,323,313,308,0
309,318,312,310,0
310,312,311,311,0
310,307,310,311,0
310,302,309,312,0
311,299,310,313,0
311,299,311,314,0
312,303,313,314,0
311,309,313,314,0
309,313,312,313,0
307,317,310,312,0
306,321,308,312,0
305,326,306,312,0
304,328,305,312,0
304,329,305,311,0
304,328,307,311,0
305,325,310,312,0
306,320,313,313,0
307,315,316,313,0
307,315,317,312,0
308,316,317,312,0
307,315,316,310,0
306,313,314,309,0
304,304,312,307,0
303,293,310,305,0
302,285,310,304,0
302,282,309,302,0
302,283,308,301,0
301,290,308,300,0
302,298,309,300,0
303,304,308,300,0
303,305,306,300,0
302,301,304,300,0
301,296,301,300,0
299,293,298,300,0
297,289,296,299,0
295,284,295,298,0
295,282,297,299,0
296,283,299,301,0
297,286,301,304,0
299,292,303,306,0
301,298,304,307,0
301,305,303,307,0
302,314,301,306,0
302,328,301,306,0
304,344,302,307,0
305,355,304,306,0
305,355,304,304,0
304,342,302,300,0
302,318,297,297,0
301,292,293,295,0
300,270,290,294,0
300,259,290,295,0
302,258,292,299,0
304,264,297,303,0
306,271,302,307,0
307,275,306,309,0
307,279,310,310,0
306,282,312,311,0
305,285,314,310,0
304,288,315,309,0
303,289,314,307,0
302,289,311,307,0
302,286,307,307,0
302,283,305,307,0
303,281,305,308,0
304,281,307,308,0
306,288,309,310,0
308,299,310,313,0
309,309,311,315,0
308,312,312,316,0
307,309,311,316,0
305,305,309,315,0
305,301,307,313,0
305,300,304,311,0
304,303,302,309,0
304,312,302,306,0
305,323,304,305,0
305,334,308,305,0
305,340,311,304,0
304,342,313,303,0
302,344,314,302,0
301,345,314,302,0
300,343,313,302,0
301,337,311,305,0
302,327,310,310,0
303,315,310,313,0
305,305,311,316,0
305,296,312,318,0
306,290,313,319,0
306,285,314,318,0
305,284,313,317,0
305,287,312,316,0
305,294,312,315,0
305,301,311,314,0
306,307,310,313,0
307,309,309,312,0
308,306,308,312,0
309,300,306,312,0
309,293,305,313,0
309,289,305,314,0
309,288,307,315,0
309,290,309,316,0
309,291,310,316,0
309,291,310,315,0
307,292,309,314,0
305,295,305,312,0
302,295,301,310,0
300,295,297,308,0
298,295,295,305,0
298,297,296,305,0
300,299,299,306,0
302,299,303,309,0
304,296,306,312,0
306,292,309,313,0
307,295,311,314,0
309,304,313,314,0
309,313,315,314,0
309,320,315,314,0
309,320,314,315,0
308,307,313,314,0
306,287,311,314,0
305,269,310,313,0
305,260,309,312,0
305,261,309,310,0
305,268,308,310,0
304,280,308,310,0
304,293,308,311,0
305,303,307,313,0
306,310,305,314,0
306,315,304,316,0
307,321,302,316,0
307,333,300,316,0
307,353,299,315,0
307,374,298,314,0
308,389,297,313,0
307,390,297,311,0
307,372,295,310,0
306,343,293,310,0
306,317,293,312,0
307,297,293,314,0
307,285,296,315,0
307,275,301,315,0
307,269,307,314,0
308,266,311,313,0
308,266,313,313,0
308,268,312,313,0
308,271,310,313,0
308,275,306,312,0
308,280,304,311,0
308,282,301,310,0
308,284,299,308,0
308,285,297,307,0
308,288,297,305,0
308,294,297,304,0
308,302,298,304,0
308,312,300,304,0
309,323,302,305,0
311,330,302,305,0
312,329,301,305,0
312,323,301,306,0
312,315,301,306,0
312,305,302,306,0
311,294,303,305,0
309,285,303,305,0
309,283,303,306,0
309,284,303,307,0
308,284,305,308,0
308,282,307,310,0
309,279,308,311,0
309,274,309,312,0
309,271,310,312,0
310,273,309,312,0
309,279,308,312,0
309,287,306,311,0
309,296,303,309,0
308,306,298,308,0
307,319,295,307,0
307,337,293,306,0
307,356,293,304,0
306,371,291,301,0
303,383,288,297,0
301,391,285,292,0
300,390,285,290,0
301,381,290,289,0
302,368,297,291,0
304,352,305,295,0
306,337,312,299,0
306,323,317,303,0
307,311,320,308,0
308,299,321,310,0
309,293,322,312,0
310,295,322,314,0
312,302,322,317,0
312,307,321,319,0
311,304,317,320,0
308,294,311,318,0
305,282,306,316,0
303,274,305,312,0
304,273,306,310,0
305,276,308,309,0
306,283,308,309,0
307,292,308,308,0
307,298,308,308,0
306,298,310,306,0
306,292,311,304,0
305,286,310,303,0
305,284,308,303,0
306,287,306,303,0
307,292,306,305,0
307,298,305,308,0
308,303,303,311,0
309,306,299,314,0
309,306,297,316,0
309,306,296,316,0
308,307,297,315,0
306,307,299,312,0
305,307,301,311,0
303,310,303,309,0
303,316,304,309,0
303,319,304,308,0
304,320,305,309,0
304,320,306,310,0
304,320,310,311,0
303,317,313,311,0
301,312,317,311,0
300,307,321,312,0
301,299,324,314,0
302,291,325,315,0
304,282,324,316,0
305,277,321,316,0
306,276,319,315,0
306,276,318,313,0
307,277,317,311,0
307,279,317,310,0
306,278,317,309,0
306,277,317,309,0
305,279,318,310,0
305,285,318,311,0
306,294,316,312,0
307,305,315,313,0
307,318,313,314,0
306,330,312,313,0
305,343,310,313,0
305,356,309,313,0
305,370,310,314,0
306,382,311,315,0
306,385,312,314,0
305,382,310,313,0
305,380,308,311,0
305,373,305,308,0
303,355,301,304,0
300,324,298,300,0
298,291,296,297,0
298,266,296,296,0
298,252,299,297,0
300,246,301,298,0
301,248,304,300,0
302,254,305,302,0
302,263,307,303,0
302,272,309,304,0
302,279,310,304,0
302,284,309,303,0
303,288,307,303,0
304,291,305,302,0
304,295,304,302,0
304,301,304,304,0
305,308,305,306,0
305,317,304,307,0
305,325,304,308,0
305,329,304,309,0
305,329,304,311,0
305,328,306,312,0
305,325,306,312,0
304,322,304,312,0
302,318,302,310,0
302,312,300,308,0
303,307,299,307,0
304,304,298,307,0
305,302,297,307,0
305,300,297,308,0
304,296,297,307,0
304,295,300,304,0
302,296,304,302,0
302,301,309,301,0
302,308,314,303,0
301,314,318,305,0
301,317,318,308,0
301,316,316,310,0
301,313,313,310,0
302,309,310,310,0
305,304,308,311,0
307,298,308,312,0
308,291,307,313,0
308,288,308,314,0
307,287,311,315,0
306,288,315,314,0
305,293,318,314,0
304,304,318,313,0
303,322,317,312,0
303,341,316,310,0
303,359,316,308,0
304,373,317,309,0
305,381,319,312,0
306,384,320,314,0
307,382,321,315,0
308,375,322,315,0
309,359,322,314,0
308,333,320,311,0
307,301,317,309,0
306,273,314,308,0
306,251,312,309,0
306,236,311,310,0
306,229,312,311,0
306,229,312,312,0
306,234,312,312,0
308,241,312,312,0
309,251,311,312,0
312,264,309,312,0
313,281,307,311,0
312,302,306,310,0
311,318,306,308,0
307,326,309,307,0
305,325,310,305,0
303,316,311,303,0
301,308,312,302,0
300,304,312,301,0
300,304,311,300,0
300,304,309,299,0
300,304,306,298,0
300,304,305,297,0
301,303,306,298,0
302,303,308,299,0
304,302,312,303,0
305,302,315,306,0
307,304,317,309,0
308,304,318,309,0
308,302,318,309,0
307,299,318,309,0
307,297,317,309,0
307,294,318,309,0
307,294,318,309,0
307,298,317,308,0
306,303,315,307,0
306,308,314,307,0
306,310,312,306,0
308,309,311,306,0
308,305,310,305,0
309,302,309,303,0
308,302,308,302,0
308,303,308,301,0
308,309,308,301,0
308,322,309,301,0
308,342,311,300,0
308,363,313,299,0
308,380,315,298,0
309,386,316,297,0
310,377,314,296,0
310,356,311,297,0
310,334,308,299,0
310,316,306,300,0
309,303,304,301,0
308,295,304,302,0
307,291,304,302,0
306,286,305,301,0
305,280,305,300,0
304,270,306,300,0
304,261,305,300,0
304,258,304,301,0
305,265,303,303,0
306,277,302,304,0
306,289,300,305,0
306,298,296,306,0
305,302,293,306,0
304,300,294,307,0
304,297,297,308,0
305,295,299,309,0
306,296,300,310,0
307,298,301,310,0
308,298,300,309,0
308,295,299,307,0
307,292,298,304,0
307,292,298,302,0
307,293,298,300,0
307,295,299,298,0
308,295,301,297,0
310,295,302,298,0
311,297,303,300,0
313,300,302,301,0
313,304,301,302,0
313,310,302,303,0
313,321,305,304,0
313,336,310,308,0
314,351,316,313,0
316,359,321,317,0
317,357,324,318,0
317,354,324,317,0
317,351,322,317,0
315,346,321,315,0
313,336,322,314,0
312,325,324,313,0
311,320,325,312,0
310,320,323,311,0
309,325,321,310,0
310,331,319,309,0
311,337,316,310,0
312,340,313,310,0
313,342,310,311,0
314,342,309,312,0
315,340,309,311,0
315,330,309,310,0
315,315,308,308,0
315,298,306,307,0
315,287,305,306,0
315,285,305,307,0
314,290,306,308,0
313,293,308,309,0
311,290,310,309,0
309,283,311,310,0
309,274,311,309,0
309,268,310,309,0
309,264,308,307,0
310,261,307,306,0
311,260,305,304,0
312,260,304,304,0
313,263,304,306,0
315,267,304,308,0
316,274,304,309,0
316,282,303,311,0
315,286,302,312,0
313,286,302,311,0
310,285,301,310,0
307,288,301,309,0
305,294,302,310,0
304,299,303,310,0
304,302,304,310,0
304,304,304,310,0
305,304,304,309,0
305,304,304,308,0
306,304,303,308,0
306,307,303,309,0
308,315,301,311,0
309,324,300,313,0
310,334,300,313,0
310,342,300,313,0
309,346,299,312,0
307,343,296,309,0
304,335,293,305,0
301,324,291,302,0
300,313,291,302,0
300,301,293,302,0
300,290,295,303,0
301,283,296,304,0
303,286,297,305,0
305,297,297,307,0
307,310,299,308,0
308,320,301,309,0
307,322,301,311,0
306,319,299,311,0
304,315,298,312,0
303,313,298,312,0
303,317,299,312,0
304,326,300,310,0
305,338,299,306,0
306,350,296,302,0
307,355,293,299,0
308,355,289,299,0
308,349,286,300,0
307,342,288,304,0
307,334,294,307,0
307,327,300,309,0
305,318,304,311,0
304,305,305,311,0
301,293,304,310,0
300,286,303,309,0
299,282,302,307,0
298,281,302,306,0
298,282,303,306,0
298,284,304,305,0
298,284,305,305,0
299,283,305,305,0
300,281,304,305,0
301,279,304,306,0
302,278,305,307,0
304,279,307,308,0
305,281,309,309,0
307,287,310,310,0
308,294,310,311,0
308,301,311,311,0
308,304,313,311,0
307,303,316,311,0
308,298,319,311,0
309,286,320,311,0
310,276,319,311,0
312,274,317,312,0
313,279,315,313,0
314,285,313,312,0
312,288,310,310,0
309,289,309,308,0
306,291,309,308,0
304,294,311,309,0
303,297,312,310,0
303,298,312,311,0
303,306,311,311,0
303,319,309,312,0
303,332,306,311,0
302,341,304,309,0
302,340,302,308,0
300,329,302,307,0
299,315,302,307,0
299,301,303,307,0
299,293,304,308,0
301,288,306,310,0
304,288,306,311,0
306,293,307,312,0
308,302,307,312,0
308,312,305,310,0
307,321,303,307,0
305,327,300,302,0
302,325,297,299,0
301,319,296,297,0
301,314,296,298,0
301,315,298,300,0
303,316,301,304,0
305,316,305,307,0
307,315,308,310,0
308,313,309,312,0
308,313,310,313,0
308,315,311,314,0
307,320,311,315,0
307,320,310,315,0
305,313,310,314,0
305,303,309,313,0
304,296,308,311,0
305,296,306,310,0
306,301,304,310,0
305,305,302,308,0
304,303,300,306,0
304,298,299,305,0
304,293,298,305,0
305,290,297,305,0
305,289,296,304,0
305,291,295,304,0
305,294,296,303,0
305,298,297,303,0
304,302,300,303,0
302,308,303,303,0
302,314,304,303,0
303,319,305,305,0
305,322,306,306,0
307,319,305,307,0
307,311,302,308,0
308,302,300,308,0
307,298,300,307,0
307,300,300,306,0
305,306,302,306,0
305,311,307,305,0
305,316,313,304,0
305,321,318,304,0
306,329,322,305,0
307,336,323,307,0
308,338,322,309,0
308,334,318,311,0
308,323,313,313,0
307,312,306,315,0
305,302,300,315,0
304,298,297,315,0
303,298,298,313,0
302,300,300,311,0
301,303,303,308,0
301,306,304,306,0
300,305,304,304,0
299,299,304,302,0
298,290,305,301,0
298,282,306,300,0
298,278,306,300,0
298,278,307,300,0
300,281,308,302,0
301,285,310,305,0
302,291,310,308,0
303,297,311,310,0
305,304,311,310,0
306,315,310,308,0
306,326,310,305,0
306,333,308,301,0
305,338,306,299,0
306,341,307,298,0
307,339,309,299,0
308,334,311,301,0
308,330,314,304,0
308,324,314,304,0
308,314,314,304,0
308,304,313,304,0
308,297,314,306,0
308,291,314,308,0
307,285,313,309,0
307,279,313,310,0
307,273,313,311,0
308,268,314,311,0
310,264,315,312,0
312,263,317,313,0
314,268,319,315,0
314,276,320,315,0
314,286,318,315,0
313,299,316,315,0
312,315,314,315,0
312,333,312,314,0
310,345,308,313,0
309,349,305,311,0
306,347,303,309,0
304,337,302,306,0
302,322,301,303,0
301,307,302,301,0
301,293,303,299,0
302,282,305,297,0
304,274,306,296,0
306,272,308,296,0
309,276,310,298,0
312,288,310,302,0
314,302,307,306,0
313,312,303,307,0
311,317,298,307,0
309,319,294,307,0
306,322,294,306,0
304,324,296,306,0
302,324,301,307,0
301,324,305,309,0
300,325,308,310,0
300,326,308,311,0
301,328,308,312,0
303,328,306,311,0
304,324,301,310,0
305,317,297,309,0
305,311,295,307,0
304,306,296,306,0
303,300,300,304,0
303,296,305,305,0
303,293,311,306,0
303,290,313,308,0
304,286,314,310,0
304,284,313,312,0
306,284,312,314,0
308,289,312,317,0
309,299,312,319,0
309,312,312,319,0
308,324,312,319,0
307,334,312,317,0
305,338,308,314,0
302,337,303,312,0
301,335,298,310,0
301,337,295,311,0
302,341,295,314,0
305,345,298,318,0
307,345,301,321,0
309,343,303,321,0
309,338,303,319,0
308,330,303,315,0
306,317,302,311,0
303,300,301,306,0
301,282,300,303,0
299,271,301,301,0
299,265,302,300,0
299,264,304,300,0
299,265,305,302,0
300,269,307,303,0
302,275,308,305,0
304,284,310,307,0
306,296,311,310,0
308,308,313,312,0
309,318,313,313,0
310,324,313,312,0
310,324,313,312,0
310,320,313,312,0
309,314,313,312,0
308,311,314,311,0
305,308,313,310,0
304,301,313,309,0
302,293,313,307,0
302,287,313,306,0
302,282,312,306,0
303,283,311,306,0
305,289,311,307,0
306,299,310,309,0
308,310,310,311,0
309,317,309,312,0
310,313,309,313,0
311,299,309,313,0
313,283,310,314,0
315,272,310,315,0
316,265,309,316,0
315,261,307,315,0
314,263,305,313,0
314,269,302,311,0
313,278,299,309,0
312,283,297,307,0
312,280,294,304,0
310,273,292,302,0
308,270,292,300,0
305,273,293,299,0
302,284,296,300,0
300,300,297,300,0
298,315,298,301,0
297,324,298,301,0
296,330,297,301,0
297,332,296,302,0
298,333,297,302,0
299,333,300,303,0
300,333,304,304,0
302,333,307,305,0
303,333,310,306,0
304,335,309,306,0
303,337,305,304,0
302,339,301,303,0
302,343,300,303,0
303,344,300,303,0
303,340,301,303,0
304,337,302,304,0
304,335,303,306,0
306,335,303,308,0
308,337,303,311,0
308,336,303,313,0
309,326,303,314,0
309,315,305,314,0
309,308,309,314,0
309,307,313,312,0
308,308,315,309,0
307,310,315,306,0
307,310,312,303,0
306,305,307,301,0
305,295,302,301,0
303,282,300,302,0
303,272,299,303,0
303,269,299,305,0
303,273,299,306,0
303,283,300,305,0
303,298,302,306,0
303,310,303,305,0
302,312,304,304,0
300,305,304,302,0
299,294,306,301,0
299,286,307,302,0
300,284,308,304,0
301,286,307,305,0
302,290,307,306,0
303,296,307,306,0
305,303,308,307,0
306,307,308,308,0
306,305,308,308,0
307,300,308,309,0
307,293,306,309,0
307,287,306,309,0
306,283,306,311,0
306,283,308,313,0
306,286,310,314,0
305,289,311,315,0
305,293,310,314,0
306,296,310,314,0
307,302,308,313,0
308,308,307,313,0
309,313,307,313,0
309,314,306,312,0
309,310,306,312,0
309,300,305,310,0
308,287,305,308,0
307,275,303,306,0
305,267,302,304,0
305,269,300,304,0
306,286,300,304,0
306,314,300,305,0
307,342,299,305,0
306,360,298,304,0
304,360,298,303,0
302,348,297,303,0
301,332,297,304,0
302,319,298,307,0
304,311,299,311,0
305,310,302,314,0
307,314,306,316,0
307,319,310,316,0
307,323,312,315,0
306,326,311,313,0
305,328,306,311,0
304,330,300,309,0
302,331,295,307,0
300,326,290,305,0
299,317,288,304,0
299,307,288,305,0
301,299,289,307,0
302,293,292,309,0
302,291,296,310,0
303,291,302,310,0
304,292,306,311,0
305,296,308,311,0
304,303,307,310,0
303,314,304,310,0
303,324,303,309,0
303,332,301,309,0
302,331,300,309,0
301,320,299,309,0
300,304,300,310,0
299,288,302,311,0
299,275,304,311,0
299,269,305,311,0
300,266,306,311,0
302,267,308,312,0
303,270,310,313,0
305,273,310,314,0
306,275,310,314,0
307,278,309,313,0
308,281,306,312,0
308,287,301,310,0
308,294,296,307,0
306,301,292,304,0
305,307,290,303,0
305,314,290,305,0
305,326,293,307,0
307,339,297,310,0
307,348,300,312,0
306,347,303,314,0
305,337,305,316,0
304,321,307,317,0
303,310,310,317,0
302,312,311,317,0
301,329,311,315,0
300,352,311,313,0
299,371,309,310,0
298,374,308,308,0
297,359,307,307,0
298,332,308,309,0
299,305,309,311,0
300,285,309,313,0
301,275,309,314,0
303,274,308,315,0
305,278,309,314,0
307,283,309,313,0
307,283,309,311,0
305,278,309,309,0
304,270,309,308,0
303,263,307,307,0
303,258,306,306,0
304,258,305,306,0
305,261,305,306,0
306,265,305,307,0
307,272,305,308,0
307,285,306,309,0
307,298,306,310,0
306,311,304,311,0
305,324,303,312,0
305,335,303,313,0
305,345,305,313,0
305,351,307,314,0
304,348,309,314,0
304,335,310,312,0
304,319,308,310,0
303,306,305,308,0
302,299,301,306,0
301,296,299,304,0
301,294,300,304,0
303,293,302,306,0
305,292,304,308,0
307,292,306,308,0
309,295,309,309,0
311,301,311,310,0
313,307,312,311,0
313,311,311,311,0
312,313,310,311,0
311,314,309,310,0
311,315,309,310,0
312,316,308,311,0
312,317,307,311,0
313,318,304,311,0
312,320,302,311,0
311,325,301,310,0
310,332,301,309,0
309,335,301,308,0
308,329,301,306,0
306,315,301,305,0
304,301,301,304,0
304,290,304,303,0
304,287,307,302,0
305,292,310,303,0
307,300,313,303,0
309,309,314,303,0
310,316,313,302,0
310,314,309,301,0
310,306,305,303,0
310,297,301,305,0
309,289,298,308,0
309,285,297,311,0
309,286,298,312,0
309,290,300,313,0
309,296,302,313,0
309,303,304,312,0
309,312,305,312,0
308,322,305,311,0
307,331,304,310,0
306,340,304,309,0
307,347,306,309,0
308,348,308,309,0
310,341,310,310,0
312,330,310,311,0
313,320,308,311,0
312,315,304,310,0
309,310,301,308,0
306,307,299,306,0
303,303,298,304,0
302,297,300,303,0
301,285,300,301,0
301,272,300,301,0
303,261,300,302,0
304,255,301,304,0
305,252,303,305,0
305,253,304,306,0
306,256,305,306,0
306,263,306,306,0
307,271,308,306,0
307,278,310,305,0
307,285,313,305,0
307,289,316,306,0
307,289,318,307,0
307,289,319,308,0
308,292,318,310,0
308,299,316,310,0
308,308,314,308,0
306,317,311,305,0
303,325,308,302,0
302,330,304,299,0
300,331,301,297,0
300,331,299,297,0
300,329,299,298,0
301,327,301,301,0
303,326,303,306,0
304,326,305,309,0
306,329,307,311,0
307,335,307,313,0
309,344,305,315,0
311,353,304,316,0
311,356,303,317,0
310,351,305,317,0
309,341,309,317,0
308,331,314,317,0
307,325,320,317,0
308,320,323,317,0
309,313,325,318,0
309,305,324,319,0
309,297,323,320,0
309,288,320,320,0
308,281,318,319,0
306,276,316,318,0
305,277,315,316,0
305,285,314,314,0
305,297,312,313,0
305,310,309,312,0
304,322,307,312,0
304,327,304,311,0
304,323,302,309,0
303,315,301,306,0
301,307,301,303,0
299,303,302,301,0
298,301,304,301,0
298,303,307,302,0
300,309,309,303,0
302,321,310,304,0
304,336,309,307,0
307,351,308,310,0
309,362,308,313,0
309,370,308,314,0
310,376,309,314,0
310,378,309,312,0
311,378,309,309,0
310,370,307,305,0
309,350,306,303,0
308,320,307,303,0
307,288,307,304,0
306,262,306,304,0
304,248,305,305,0
303,245,302,305,0
301,249,299,306,0
299,256,296,306,0
298,264,294,307,0
297,272,294,308,0
297,280,296,309,0
297,287,298,309,0
298,291,300,310,0
299,295,301,311,0
301,298,302,313,0
303,302,305,314,0
305,310,308,314,0
306,324,311,316,0
308,338,313,317,0
309,351,314,318,0
310,357,315,319,0
311,350,315,319,0
310,328,314,317,0
309,303,313,315,0
308,283,312,313,0
307,267,310,313,0
307,256,307,312,0
306,249,304,310,0
306,244,302,309,0
305,241,302,307,0
305,243,304,306,0
305,252,306,306,0
305,265,308,304,0
303,275,307,302,0
302,281,306,300,0
301,283,306,299,0
303,285,308,301,0
305,289,310,304,0
309,295,312,307,0
311,305,312,311,0
313,316,311,314,0
315,325,310,315,0
315,331,309,316,0
312,338,306,316,0
308,344,305,316,0
304,348,305,317,0
302,345,307,318,0
302,341,309,319,0
303,340,312,319,0
304,340,313,320,0
304,341,313,320,0
304,342,314,320,0
306,343,312,320,0
307,343,309,320,0
308,344,306,320,0
309,346,304,319,0
309,350,304,318,0
310,352,305,317,0
309,347,305,316,0
308,335,305,314,0
307,321,306,314,0
306,309,306,314,0
306,301,305,314,0
306,295,304,314,0
308,294,303,314,0
310,297,303,313,0
312,306,303,313,0
312,319,303,312,0
310,330,303,309,0
307,334,303,306,0
304,331,305,304,0
302,325,308,302,0
301,315,310,302,0
302,304,309,302,0
304,296,307,301,0
304,292,303,300,0
305,291,300,299,0
306,289,297,298,0
305,287,294,296,0
304,285,292,297,0
303,285,294,301,0
304,286,296,306,0
304,287,298,310,0
305,289,299,312,0
306,291,299,312,0
306,292,298,311,0
305,292,298,311,0
305,296,299,312,0
306,305,300,313,0
307,316,302,314,0
307,324,303,313,0
307,329,304,312,0
306,327,305,311,0
306,324,307,311,0
306,324,308,310,0
306,326,307,308,0
307,326,307,307,0
306,321,307,306,0
305,313,309,308,0
305,307,312,312,0
306,299,315,316,0
307,293,319,320,0
309,288,320,322,0
310,284,320,322,0
310,279,318,321,0
311,274,317,320,0
312,271,316,318,0
312,269,316,316,0
312,271,317,315,0
312,273,319,313,0
312,279,321,312,0
312,289,323,312,0
312,300,323,312,0
311,308,321,312,0
311,311,318,312,0
310,310,313,312,0
310,309,308,312,0
310,310,303,312,0
311,318,302,312,0
312,329,304,312,0
313,341,307,311,0
313,348,311,310,0
312,344,314,308,0
310,334,315,306,0
308,327,315,305,0
307,324,313,304,0
306,322,312,304,0
306,314,310,303,0
307,300,308,302,0
307,284,308,302,0
308,271,307,302,0
309,263,307,303,0
310,260,306,304,0
310,265,304,306,0
309,278,303,309,0
308,295,303,312,0
307,312,304,314,0
307,325,305,315,0
307,333,305,315,0
306,334,305,316,0
306,331,306,315,0
306,328,308,316,0
307,328,312,316,0
309,332,314,316,0
308,337,314,315,0
307,338,312,313,0
306,337,309,311,0
306,335,307,309,0
306,328,305,308,0
306,317,304,307,0
305,310,303,307,0
305,306,303,306,0
304,304,303,306,0
304,303,303,306,0
303,301,304,306,0
302,299,304,305,0
301,297,305,304,0
301,298,305,304,0
301,303,304,304,0
300,310,303,304,0
300,314,301,302,0
300,313,299,302,0
301,308,298,303,0
302,301,298,304,0
303,295,298,306,0
305,290,300,307,0
306,286,301,308,0
306,285,300,307,0
306,286,297,305,0
305,289,292,302,0
305,296,288,298,0
305,302,286,294,0
304,307,286,292,0
305,306,289,292,0
306,306,295,295,0
307,314,300,300,0
308,328,305,304,0
308,341,307,307,0
309,345,309,310,0
308,334,311,312,0
307,311,313,313,0
307,287,313,314,0
308,271,312,315,0
308,265,309,315,0
308,272,305,315,0
308,287,302,314,0
309,305,299,313,0
310,320,298,313,0
310,327,299,312,0
310,326,302,313,0
309,320,306,313,0
308,314,311,315,0
308,309,316,315,0
307,303,319,313,0
306,299,319,311,0
305,298,317,310,0
305,299,314,308,0
305,299,312,308,0
306,300,311,308,0
307,301,311,308,0
308,303,313,308,0
307,303,315,308,0
306,301,317,307,0
305,298,317,306,0
305,296,317,306,0
306,299,316,306,0
308,311,316,307,0
310,329,315,307,0
310,347,315,308,0
310,357,314,308,0
308,357,312,307,0
306,350,309,307,0
304,339,307,307,0
303,325,306,308,0
301,309,306,308,0
300,290,308,307,0
300,275,312,308,0
300,265,314,307,0
301,260,317,307,0
302,260,318,306,0
303,264,319,305,0
305,270,319,305,0
307,278,318,306,0
309,287,317,308,0
311,299,316,310,0
311,308,314,311,0
311,310,312,312,0
310,307,312,313,0
310,304,311,314,0
308,304,311,314,0
308,307,311,314,0
306,313,311,313,0
304,322,311,311,0
303,336,311,309,0
302,351,310,308,0
302,362,309,307,0
301,365,307,304,0
300,356,304,300,0
299,337,302,295,0
298,314,300,293,0
299,296,299,292,0
299,284,301,291,0
299,278,304,291,0
300,277,307,293,0
301,283,311,295,0
302,292,314,297,0
303,305,315,300,0
304,318,315,302,0
306,331,314,304,0
308,337,313,306,0
309,336,311,308,0
310,327,307,308,0
310,312,303,308,0
309,296,299,307,0
308,285,297,308,0
308,280,297,308,0
309,279,297,309,0
308,277,300,308,0
308,278,303,307,0
307,281,306,306,0
307,284,306,303,0
306,285,304,302,0
306,287,303,302,0
307,290,302,303,0
307,295,301,305,0
307,301,299,306,0
306,308,299,307,0
306,316,301,309,0
308,322,302,312,0
309,329,303,314,0
310,334,302,315,0
310,336,301,315,0
310,335,301,315,0
310,335,303,315,0
310,334,305,315,0
310,331,309,316,0
310,327,314,317,0
310,323,318,317,0
312,322,321,318,0
313,324,323,319,0
315,327,322,319,0
315,330,320,317,0
312,331,317,314,0
309,330,316,312,0
306,327,317,311,0
305,316,316,310,0
304,301,315,310,0
303,286,314,310,0
302,275,311,310,0
302,270,308,309,0
302,270,306,308,0
301,274,304,306,0
301,280,302,305,0
300,286,301,304,0
299,290,301,303,0
299,294,302,304,0
300,300,305,307,0
301,305,309,310,0
302,310,311,311,0
302,313,313,311,0
302,311,314,311,0
303,307,314,311,0
305,306,314,310,0
306,310,313,310,0
307,314,312,309,0
307,317,310,307,0
306,315,309,307,0
305,308,309,305,0
306,298,310,304,0
307,288,311,303,0
308,283,311,303,0
308,286,308,301,0
307,296,305,300,0
306,303,303,298,0
304,306,303,297,0
304,310,306,299,0
304,318,309,304,0
305,330,312,311,0
306,343,314,316,0
305,351,316,319,0
304,348,317,321,0
302,338,317,321,0
300,327,317,319,0
298,319,315,316,0
297,317,314,313,0
298,320,312,312,0
299,326,312,312,0
301,334,311,310,0
301,334,311,309,0
302,327,311,308,0
302,312,312,307,0
302,296,311,307,0
302,282,311,308,0
302,274,311,308,0
303,271,312,309,0
304,272,312,309,0
305,276,313,310,0
306,282,312,310,0
307,286,310,311,0
306,287,308,311,0
307,284,306,311,0
306,278,305,311,0
307,273,303,311,0
308,272,302,312,0
310,273,302,311,0
311,273,303,310,0
313,273,304,307,0
314,270,305,305,0
313,269,305,304,0
311,275,306,302,0
309,290,306,301,0
306,306,305,301,0
304,318,306,301,0
303,324,305,301,0
302,327,305,304,0
301,330,305,304,0
301,336,306,305,0
301,342,308,305,0
301,346,309,305,0
301,343,310,305,0
300,335,310,305,0
300,323,310,306,0
299,313,310,308,0
299,306,309,310,0
298,304,308,311,0
298,305,305,311,0
298,307,302,311,0
298,309,300,310,0
298,309,300,309,0
299,308,302,308,0
299,307,306,307,0
299,306,308,306,0
300,305,308,305,0
300,307,308,305,0
301,313,307,305,0
301,321,307,305,0
302,329,306,305,0
302,335,305,305,0
301,336,303,303,0
299,334,300,302,0
297,332,299,301,0
296,330,299,301,0
296,324,302,304,0
297,312,306,307,0
299,301,310,311,0
301,292,312,315,0
304,287,311,316,0
305,286,308,318,0
307,286,306,318,0
308,289,304,317,0
308,296,302,315,0
308,304,302,314,0
308,313,304,311,0
308,322,306,309,0
308,333,307,307,0
307,341,306,307,0
307,345,305,310,0
307,344,304,312,0
308,336,304,313,0
309,323,305,312,0
310,310,305,310,0
309,305,304,309,0
308,307,304,307,0
307,310,304,305,0
306,315,305,304,0
305,316,307,304,0
305,313,308,305,0
305,307,308,306,0
304,301,307,307,0
304,295,306,308,0
304,291,307,308,0
305,291,308,309,0
306,294,310,310,0
308,295,310,311,0
308,291,309,311,0
307,285,307,311,0
307,280,305,311,0
308,279,301,311,0
309,282,298,311,0
310,286,294,310,0
310,292,290,310,0
309,301,288,309,0
308,309,288,309,0
307,318,292,311,0
306,326,298,312,0
304,326,303,312,0
302,318,307,310,0
301,303,309,309,0
300,288,311,309,0
300,277,312,310,0
301,269,314,310,0
301,264,314,311,0
301,262,313,311,0
301,262,312,311,0
302,266,310,312,0
303,273,311,314,0
304,283,311,315,0
306,293,311,314,0
307,304,310,313,0
308,315,308,310,0
309,328,307,307,0
310,343,304,304,0
310,354,301,301,0
308,362,299,300,0
306,363,298,301,0
305,356,299,303,0
303,340,300,304,0
302,326,301,304,0
301,316,304,304,0
301,310,306,304,0
301,307,307,304,0
301,308,307,305,0
302,311,306,306,0
303,318,305,307,0
306,326,304,309,0
308,334,303,309,0
309,336,301,307,0
309,334,298,305,0
309,323,298,303,0
309,307,299,304,0
309,292,301,305,0
309,282,303,308,0
308,278,305,309,0
308,279,306,311,0
309,283,309,312,0
310,288,310,313,0
311,292,311,313,0
313,294,312,313,0
314,297,311,314,0
314,300,311,314,0
313,301,309,314,0
312,303,309,314,0
312,304,308,314,0
312,305,308,313,0
312,306,308,312,0
312,306,306,312,0
310,306,304,310,0
309,307,303,309,0
308,309,303,307,0
308,310,303,305,0
308,311,304,303,0
308,311,304,301,0
308,309,303,301,0
309,307,302,301,0
310,306,302,302,0
310,305,302,302,0
310,306,303,303,0
310,307,304,304,0
310,308,305,304,0
309,308,305,305,0
308,306,304,307,0
306,304,303,309,0
306,302,302,311,0
306,299,301,312,0
305,299,300,313,0
306,301,300,314,0
306,302,301,313,0
306,301,302,313,0
307,298,305,312,0
308,297,306,312,0
309,303,305,312,0
310,316,303,311,0
312,331,301,311,0
313,346,300,311,0
314,354,302,311,0
313,347,305,311,0
312,326,307,310,0
311,300,309,309,0
309,279,309,307,0
308,273,309,308,0
308,285,309,309,0
308,310,309,310,0
309,337,308,311,0
309,353,306,313,0
310,353,306,315,0
309,336,307,316,0
309,312,310,317,0
307,286,313,317,0
306,268,315,317,0
306,258,315,318,0
306,253,313,318,0
305,254,311,318,0
306,258,307,317,0
306,265,304,317,0
306,274,301,317,0
307,282,298,316,0
308,288,296,315,0
309,294,295,315,0
311,302,296,314,0
313,309,298,313,0
313,314,299,312,0
310,315,298,311,0
307,313,298,310,0
305,311,300,309,0
303,313,302,307,0
302,315,304,307,0
303,316,306,307,0
303,314,308,306,0
303,309,308,305,0
301,303,309,305,0
301,297,310,305,0
301,294,311,306,0
301,292,312,308,0
303,295,311,310,0
305,301,311,311,0
306,308,312,311,0
307,312,314,311,0
308,314,315,310,0
309,314,315,310,0
308,312,314,309,0
308,306,313,309,0
308,298,313,310,0
308,292,312,311,0
307,287,311,312,0
308,285,310,313,0
309,286,310,314,0
310,289,312,315,0
310,295,312,315,0
309,302,312,315,0
309,307,310,314,0
308,310,308,314,0
307,310,306,314,0
307,311,305,314,0
307,314,305,314,0
307,319,306,313,0
307,326,307,312,0
306,339,306,311,0
306,357,305,310,0
308,376,305,311,0
309,387,305,310,0
310,387,305,309,0
310,371,304,307,0
310,344,303,306,0
309,316,303,305,0
307,294,301,305,0
306,279,298,304,0
305,273,296,304,0
305,271,294,303,0
306,271,295,301,0
308,273,298,301,0
310,277,303,302,0
312,281,310,304,0
312,285,316,305,0
310,292,322,305,0
309,304,325,305,0
309,321,327,306,0
310,338,327,307,0
311,350,324,308,0
312,348,320,309,0
311,338,315,309,0
308,328,310,308,0
306,320,306,308,0
304,315,304,309,0
302,309,303,309,0
301,300,303,309,0
301,291,304,310,0
301,282,305,309,0
303,275,304,309,0
304,270,304,309,0
306,271,304,310,0
308,276,304,311,0
310,284,302,312,0
311,291,300,311,0
312,297,299,311,0
312,300,297,311,0
311,299,294,309,0
308,297,291,307,0
305,293,288,304,0
301,289,288,300,0
299,287,289,297,0
298,289,292,297,0
298,296,296,299,0
299,304,298,302,0
301,312,300,304,0
301,317,302,306,0
302,319,306,308,0
304,318,309,312,0
305,316,313,317,0
306,315,317,319,0
307,314,320,320,0
307,313,321,320,0
307,314,320,319,0
305,316,318,318,0
304,319,315,319,0
304,322,313,320,0
305,328,311,321,0
304,335,308,320,0
304,340,305,319,0
303,343,303,317,0
303,341,302,315,0
303,332,301,312,0
303,315,299,309,0
302,298,297,306,0
302,287,296,304,0
301,284,295,303,0
299,287,295,303,0
298,292,298,306,0
298,298,301,310,0
298,302,304,312,0
298,304,306,314,0
297,307,306,314,0
297,311,305,313,0
297,315,303,312,0
298,319,302,312,0
300,321,302,312,0
302,320,303,311,0
303,316,305,310,0
305,311,307,309,0
306,307,309,308,0
306,304,311,306,0
304,304,312,304,0
302,311,313,304,0
300,321,314,305,0
300,331,313,306,0
300,336,311,307,0
301,333,307,306,0
301,320,304,304,0
301,303,303,303,0
301,284,306,303,0
301,268,310,304,0
300,258,313,306,0
300,254,316,308,0
300,256,317,310,0
301,261,317,311,0
301,267,317,312,0
302,274,315,311,0
301,282,313,309,0
300,291,311,306,0
299,300,309,304,0
298,308,307,302,0
298,314,306,302,0
298,317,307,305,0
298,314,308,307,0
297,307,309,308,0
298,301,307,308,0
298,295,306,306,0
297,291,303,305,0
296,289,301,305,0
296,288,301,306,0
297,287,303,308,0
299,287,306,312,0
302,287,310,314,0
305,291,314,316,0
308,299,316,317,0
309,310,317,315,0
309,318,316,313,0
307,322,313,310,0
305,323,310,307,0
304,317,307,305,0
303,309,304,302,0
303,305,302,299,0
303,311,299,297,0
303,321,298,296,0
303,333,297,298,0
302,340,298,301,0
301,338,298,303,0
300,329,297,305,0
300,319,296,308,0
302,314,297,313,0
303,313,297,317,0
304,311,296,320,0
304,307,295,319,0
305,305,294,316,0
306,304,294,313,0
306,300,295,312,0
307,296,298,311,0
308,293,300,310,0
308,293,301,310,0
308,296,300,308,0
307,301,300,306,0
305,310,302,304,0
303,324,303,302,0
302,340,302,303,0
302,352,298,303,0
303,355,294,304,0
304,345,293,307,0
305,331,294,311,0
305,320,296,313,0
306,312,298,313,0
305,305,301,312,0
305,296,303,309,0
305,283,304,307,0
304,272,305,305,0
305,266,307,304,0
306,264,308,304,0
307,265,309,305,0
308,268,308,305,0
309,269,306,306,0
310,269,304,306,0
309,267,302,306,0
308,266,302,306,0
307,268,303,306,0
307,273,304,306,0
308,278,305,305,0
308,284,304,303,0
307,291,302,302,0
307,297,300,301,0
306,302,299,300,0
305,304,302,299,0
304,306,306,299,0
303,307,313,300,0
303,307,318,301,0
304,308,319,303,0
306,309,318,304,0
307,313,315,304,0
308,324,311,304,0
309,338,309,305,0
311,353,309,306,0
312,364,309,306,0
313,370,309,305,0
312,372,307,302,0
310,369,305,299,0
308,362,304,297,0
305,350,304,295,0
304,333,305,296,0
304,312,308,299,0
305,289,311,302,0
305,271,311,304,0
306,262,311,305,0
307,261,311,306,0
307,266,310,308,0
307,272,309,308,0
306,278,308,307,0
306,279,307,306,0
306,278,305,304,0
306,277,304,302,0
307,277,304,302,0
308,279,304,303,0
309,285,305,305,0
311,291,306,308,0
312,296,305,309,0
313,295,304,308,0
313,290,302,307,0
313,284,300,306,0
312,281,298,305,0
310,283,297,304,0
307,290,297,304,0
306,304,297,303,0
305,323,297,301,0
305,342,298,301,0
304,353,299,301,0
303,355,300,303,0
303,350,302,305,0
304,341,301,308,0
304,333,298,311,0
304,326,297,312,0
306,322,297,313,0
309,319,297,314,0
310,316,296,313,0
310,312,294,312,0
310,310,292,312,0
311,307,291,311,0
311,302,289,310,0
309,294,288,308,0
308,283,288,307,0
306,276,289,305,0
304,272,292,303,0
301,274,297,302,0
301,283,303,303,0
301,298,309,305,0
302,316,314,307,0
303,330,317,308,0
303,336,317,308,0
303,330,317,307,0
303,317,316,305,0
303,303,316,304,0
303,293,314,305,0
303,286,312,306,0
303,286,310,306,0
304,289,308,306,0
305,289,307,306,0
306,285,305,306,0
307,283,304,307,0
308,282,304,307,0
309,282,306,310,0
310,284,309,312,0
311,289,312,315,0
311,297,314,316,0
310,304,315,316,0
307,310,314,315,0
304,314,312,314,0
303,316,312,313,0
302,317,313,312,0
302,317,314,311,0
301,316,314,310,0
301,316,314,308,0
301,316,312,306,0
300,315,309,303,0
299,312,307,301,0
299,307,305,299,0
299,299,304,298,0
301,289,305,299,0
304,282,306,302,0
308,279,308,306,0
311,282,309,310,0
313,291,308,314,0
314,306,307,316,0
313,323,303,316,0
311,340,300,316,0
310,353,298,315,0
309,359,297,314,0
308,358,297,313,0
307,352,298,311,0
305,346,301,310,0
305,343,305,309,0
306,339,309,308,0
305,335,312,307,0
305,328,314,305,0
306,315,315,304,0
307,301,316,304,0
309,287,317,303,0
310,275,318,303,0
311,266,318,302,0
313,257,317,300,0
314,249,317,299,0
314,245,316,298,0
314,247,315,299,0
314,260,313,299,0
315,281,310,300,0
315,306,307,299,0
316,328,304,297,0
316,345,300,294,0
315,354,297,292,0
313,356,295,293,0
311,355,295,296,0
309,352,297,299,0
309,346,299,302,0
307,334,302,303,0
306,317,304,303,0
305,299,306,303,0
305,284,305,303,0
305,275,302,304,0
306,273,298,306,0
305,276,295,307,0
304,283,293,308,0
302,290,295,306,0
301,295,298,304,0
299,298,301,301,0
298,299,303,299,0
299,300,305,297,0
300,303,305,295,0
302,307,305,294,0
303,313,305,295,0
306,317,305,297,0
308,320,305,299,0
310,321,305,301,0
312,317,305,303,0
311,308,303,303,0
310,298,301,303,0
308,287,299,302,0
306,276,300,301,0
304,267,302,299,0
302,260,303,298,0
302,257,304,298,0
302,262,306,299,0
302,278,307,301,0
303,299,308,304,0
304,320,310,306,0
306,342,312,308,0
308,361,313,309,0
311,376,314,311,0
315,385,314,312,0
317,385,314,312,0
317,379,313,311,0
315,375,310,309,0
313,372,307,307,0
310,370,304,305,0
306,362,303,303,0
303,345,301,302,0
301,320,301,302,0
301,291,302,304,0
301,264,303,305,0
302,247,304,306,0
303,239,304,307,0
304,238,304,306,0
305,241,303,305,0
305,246,303,304,0
306,254,304,304,0
307,266,307,305,0
308,281,310,309,0
309,291,312,312,0
308,292,313,314,0
306,292,312,315,0
304,293,310,315,0
303,297,308,315,0
302,301,308,315,0
302,305,307,315,0
303,308,307,314,0
304,309,306,314,0
305,307,304,313,0
306,305,301,312,0
307,305,298,310,0
307,307,297,308,0
306,312,297,307,0
306,318,298,305,0
304,319,301,303,0
303,316,303,301,0
303,312,304,300,0
303,311,305,298,0
304,315,306,298,0
306,321,309,298,0
308,328,311,300,0
310,334,314,303,0
311,341,315,305,0
311,347,314,307,0
309,349,313,306,0
306,344,312,304,0
303,336,313,303,0
301,328,314,302,0
301,321,315,303,0
300,316,315,302,0
300,311,312,302,0
299,305,309,302,0
299,300,306,301,0
299,297,304,300,0
301,297,302,299,0
302,299,300,299,0
304,301,299,300,0
306,304,298,300,0
308,309,299,302,0
309,314,298,304,0
310,320,299,306,0
311,326,301,308,0
312,332,303,308,0
311,337,304,309,0
310,340,304,308,0
308,334,304,307,0
306,317,306,307,0
305,296,310,306,0
306,275,315,306,0
307,259,318,305,0
307,250,319,303,0
307,246,317,302,0
306,248,314,301,0
306,256,313,302,0
306,270,311,302,0
306,286,309,304,0
306,300,308,306,0
306,313,306,308,0
305,323,304,309,0
305,331,304,310,0
305,338,304,310,0
306,344,306,310,0
308,349,309,311,0
310,350,312,312,0
311,343,315,312,0
312,331,315,313,0
311,316,314,313,0
309,301,312,313,0
307,291,309,313,0
306,290,307,313,0
304,288,304,311,0
303,282,301,309,0
301,276,299,306,0
300,275,298,304,0
299,279,297,302,0
300,284,295,301,0
300,291,294,299,0
301,301,293,299,0
302,311,294,299,0
304,324,297,301,0
305,337,299,303,0
304,347,302,305,0
302,350,306,305,0
301,348,309,306,0
300,344,312,307,0
301,336,312,307,0
302,327,311,307,0
303,317,307,305,0
303,309,303,303,0
304,305,300,299,0
305,304,298,297,0
304,300,299,296,0
304,295,301,296,0
302,291,305,297,0
301,289,309,299,0
301,291,312,301,0
302,293,314,303,0
302,295,315,304,0
302,298,315,304,0
302,303,313,306,0
303,310,311,307,0
305,317,310,308,0
306,327,309,307,0
308,337,306,306,0
309,344,305,306,0
309,347,305,306,0
308,342,307,307,0
307,334,309,308,0
307,328,312,310,0
306,325,312,310,0
306,322,311,311,0
306,320,309,311,0
307,316,307,311,0
308,307,304,310,0
308,296,301,308,0
306,287,296,306,0
303,282,292,303,0
302,279,289,301,0
303,280,290,300,0
304,282,294,302,0
305,288,299,304,0
305,296,305,305,0
305,304,309,306,0
305,309,311,306,0
304,312,312,306,0
306,314,312,305,0
308,317,313,305,0
310,320,314,307,0
312,328,316,311,0
314,338,318,315,0
315,339,318,317,0
313,331,315,316,0
310,319,312,314,0
306,307,306,312,0
303,300,302,309,0
301,297,300,306,0
299,301,301,305,0
299,305,302,306,0
298,307,304,308,0
298,304,306,309,0
298,297,308,312,0
298,291,309,313,0
299,288,310,315,0
300,289,310,316,0
301,293,310,317,0
301,301,309,317,0
302,313,308,317,0
303,328,308,318,0
304,343,309,318,0
306,354,310,318,0
308,356,310,316,0
308,343,309,313,0
307,322,308,310,0
307,303,306,308,0
308,293,304,307,0
309,290,304,307,0
310,291,303,306,0
310,295,304,306,0
309,298,305,307,0
308,302,307,307,0
308,306,309,307,0
308,310,310,308,0
307,310,311,308,0
306,302,311,308,0
305,287,312,306,0
304,270,313,305,0
304,256,314,304,0
305,247,315,303,0
305,244,315,302,0
305,246,313,301,0
306,254,312,302,0
307,269,311,303,0
308,287,311,303,0
310,307,309,305,0
312,327,308,308,0
314,343,307,311,0
313,348,306,311,0
308,342,305,310,0
304,334,304,308,0
300,332,302,307,0
300,336,301,307,0
302,343,300,309,0
303,348,301,309,0
305,347,301,309,0
304,338,303,308,0
304,322,306,307,0
305,307,310,306,0
305,300,312,306,0
307,300,314,307,0
307,303,314,309,0
307,305,313,310,0
305,302,312,310,0
303,295,311,309,0
302,287,311,309,0
303,280,311,309,0
304,275,311,310,0
306,271,308,310,0
307,270,305,309,0
307,272,301,308,0
307,280,298,306,0
307,289,297,305,0
306,298,297,303,0
304,306,298,303,0
302,311,297,303,0
301,314,297,302,0
300,314,295,300,0
300,311,295,298,0
299,306,295,296,0
299,301,296,296,0
300,297,300,296,0
302,297,303,297,0
303,306,306,298,0
304,326,308,300,0
306,351,311,302,0
308,373,312,303,0
309,385,312,302,0
309,379,308,301,0
308,356,305,298,0
307,327,300,294,0
305,302,297,291,0
303,289,296,289,0
303,286,296,289,0
303,289,299,290,0
304,292,302,292,0
304,292,304,294,0
304,289,306,296,0
304,286,307,296,0
306,281,308,298,0
307,280,308,301,0
309,280,309,306,0
309,283,310,310,0
309,286,310,313,0
309,287,308,313,0
308,286,305,313,0
307,283,303,312,0
307,281,302,311,0
307,286,303,310,0
307,296,305,309,0
307,311,309,308,0
308,324,313,307,0
309,333,316,306,0
309,336,318,306,0
309,333,317,306,0
308,327,315,307,0
307,322,313,308,0
307,319,311,308,0
306,320,308,307,0
305,325,307,306,0
305,330,308,305,0
305,334,311,304,0
305,338,313,303,0
305,342,314,303,0
307,345,313,303,0
306,342,309,302,0
304,329,305,300,0
302,311,302,298,0
300,295,302,296,0
299,286,303,297,0
300,286,305,298,0
301,288,306,302,0
303,289,307,303,0
304,290,307,305,0
305,290,306,306,0
306,290,306,307,0
307,287,306,307,0
309,282,308,309,0
311,275,311,311,0
313,267,315,313,0
315,256,318,313,0
315,244,319,312,0
315,236,318,311,0
314,233,315,309,0
311,239,311,307,0
308,258,305,306,0
305,289,301,305,0
302,321,299,303,0
300,350,298,303,0
300,369,298,303,0
300,373,298,304,0
299,364,297,304,0
297,350,298,304,0
297,338,299,304,0
297,332,301,305,0
298,333,303,306,0
300,338,305,309,0
301,343,308,310,0
303,343,309,311,0
304,334,311,311,0
306,320,311,310,0
306,307,310,308,0
306,297,308,307,0
306,292,307,306,0
306,290,306,306,0
306,292,306,305,0
307,297,306,304,0
307,302,304,303,0
306,305,303,300,0
306,303,302,298,0
305,298,300,297,0
305,292,298,295,0
305,290,297,294,0
305,294,299,295,0
307,303,303,297,0
309,313,308,301,0
311,316,313,306,0
312,308,316,309,0
311,297,318,311,0
309,289,316,310,0
306,284,313,309,0
304,286,310,306,0
303,292,308,305,0
302,299,306,304,0
302,307,305,304,0
302,313,304,304,0
303,315,304,304,0
304,312,303,304,0
305,310,301,303,0
306,311,299,303,0
307,313,298,300,0
307,315,296,297,0
307,312,296,294,0
307,304,297,294,0
307,296,298,297,0
307,290,297,301,0
307,286,297,305,0
307,284,298,308,0
308,281,301,311,0
308,278,304,313,0
308,278,307,314,0
309,281,310,314,0
310,286,311,314,0
310,295,311,315,0
310,306,309,315,0
310,317,307,316,0
310,326,305,317,0
310,330,305,317,0
309,326,305,317,0
308,315,307,317,0
308,300,311,317,0
308,283,316,317,0
309,265,320,316,0
310,252,323,316,0
312,244,325,314,0
313,243,325,313,0
311,252,321,312,0
310,271,315,312,0
308,294,308,311,0
305,317,303,311,0
304,336,300,313,0
303,352,301,314,0
303,361,303,314,0
302,357,304,314,0
300,349,302,313,0
298,341,298,313,0
297,340,293,313,0
297,342,290,313,0
297,346,290,312,0
298,348,292,311,0
299,344,295,311,0
300,331,298,310,0
301,313,303,309,0
303,297,307,308,0
303,288,312,308,0
304,285,314,308,0
303,288,316,309,0
303,298,318,310,0
303,310,319,311,0
305,322,319,312,0
306,331,317,313,0
307,331,314,313,0
306,322,309,311,0
305,309,304,309,0
304,300,300,307,0
304,294,297,307,0
305,294,294,306,0
306,297,292,305,0
307,298,293,303,0
308,292,296,301,0
308,284,301,300,0
310,277,305,299,0
312,272,308,299,0
314,266,307,299,0
315,260,304,299,0
315,258,299,299,0
314,259,294,298,0
312,265,290,297,0
309,279,288,296,0
307,302,291,297,0
305,328,295,298,0
304,350,299,301,0
302,361,302,303,0
302,358,306,304,0
302,348,308,305,0
303,339,310,307,0
305,329,310,308,0
306,319,310,309,0
308,308,309,308,0
309,295,309,306,0
309,285,308,305,0
308,279,307,303,0
308,281,307,303,0
307,286,308,304,0
306,288,308,306,0
306,288,309,307,0
308,289,310,310,0
310,292,312,312,0
311,294,312,314,0
312,296,311,316,0
313,300,309,317,0
313,307,306,317,0
312,318,304,317,0
312,329,301,314,0
310,336,300,310,0
308,334,302,307,0
307,332,305,304,0
305,335,310,303,0
304,344,313,303,0
304,352,315,304,0
305,350,316,304,0
306,341,314,303,0
307,330,311,302,0
308,323,307,301,0
309,319,304,299,0
309,316,302,297,0
308,311,300,295,0
306,301,299,295,0
305,289,298,297,0
305,278,298,300,0
304,269,296,303,0
304,262,295,306,0
303,259,294,307,0
303,259,295,307,0
303,264,297,308,0
301,274,299,307,0
300,288,301,305,0
299,299,302,304,0
300,308,304,303,0
301,316,304,302,0
302,323,302,302,0
303,331,301,304,0
304,340,301,306,0
307,349,303,308,0
309,359,305,309,0
312,370,306,308,0
313,375,308,306,0
312,370,311,304,0
310,355,313,302,0
308,334,314,300,0
306,313,314,299,0
303,294,313,297,0
300,280,310,294,0
299,271,306,293,0
297,268,302,291,0
297,269,298,290,0
297,273,296,289,0
297,280,294,289,0
299,289,293,288,0
301,299,294,288,0
305,308,297,291,0
308,316,301,297,0
311,318,303,302,0
312,312,304,306,0
313,301,304,308,0
313,289,304,309,0
314,280,302,310,0
315,277,299,310,0
314,279,297,309,0
312,284,295,307,0
309,289,296,304,0
307,295,299,303,0
305,297,303,303,0
305,292,307,304,0
306,282,310,306,0
308,271,313,307,0
309,263,316,308,0
311,254,319,309,0
313,248,322,309,0
313,249,322,309,0
313,259,321,308,0
313,275,318,308,0
312,294,314,308,0
310,314,311,308,0
309,333,308,308,0
309,346,305,307,0
308,349,302,307,0
307,347,301,306,0
306,343,301,306,0
306,335,302,307,0
305,326,304,307,0
304,317,307,306,0
304,311,307,306,0
304,310,306,306,0
304,312,303,306,0
304,314,300,305,0
304,316,298,305,0
303,318,298,304,0
303,321,299,304,0
303,327,302,304,0
304,335,307,305,0
304,342,311,306,0
304,345,313,307,0
305,340,313,307,0
306,331,310,305,0
307,317,307,304,0
308,301,303,302,0
308,288,300,301,0
308,283,298,301,0
308,280,297,301,0
306,279,297,301,0
304,279,297,301,0
302,284,299,303,0
301,288,299,305,0
301,293,300,308,0
302,302,302,311,0
304,317,303,313,0
306,334,303,314,0
308,348,302,314,0
310,354,301,314,0
310,348,301,314,0
310,334,301,313,0
309,320,302,312,0
307,308,304,311,0
305,299,305,309,0
303,294,306,308,0
301,292,307,309,0
300,291,309,311,0
301,291,310,313,0
302,292,310,313,0
302,298,308,312,0
302,309,304,309,0
301,318,300,304,0
300,316,296,300,0
299,305,296,298,0
300,288,298,300,0
301,273,302,305,0
303,264,305,310,0
304,261,308,314,0
305,270,310,316,0
305,289,310,317,0
306,315,309,318,0
306,340,307,318,0
307,356,305,317,0
308,358,304,316,0
308,346,302,314,0
307,325,301,313,0
305,303,302,312,0
304,284,303,310,0
304,271,304,309,0
304,265,305,308,0
304,268,306,308,0
305,276,306,308,0
305,286,306,307,0
305,297,306,306,0
306,309,305,305,0
306,320,303,304,0
306,327,301,303,0
306,329,302,305,0
306,324,306,307,0
307,313,310,309,0
307,301,312,311,0
308,294,312,312,0
307,293,312,313,0
307,300,312,313,0
307,313,313,313,0
307,328,315,313,0
307,341,316,312,0
308,349,317,312,0
309,349,318,312,0
310,337,317,310,0
309,311,314,307,0
308,282,309,305,0
307,258,304,304,0
307,242,302,303,0
306,235,302,303,0
305,236,304,303,0
306,243,309,303,0
306,253,313,302,0
306,265,316,302,0
305,280,316,303,0
304,295,314,304,0
302,307,311,305,0
299,317,308,306,0
298,328,307,308,0
299,342,307,311,0
300,359,307,314,0
301,375,307,316,0
301,379,305,315,0
300,368,304,313,0
299,350,303,311,0
298,335,303,309,0
298,326,304,308,0
299,320,304,308,0
301,316,306,308,0
303,310,307,308,0
304,305,308,307,0
306,303,307,307,0
307,303,306,307,0
309,306,305,307,0
309,305,303,307,0
307,299,300,304,0
305,291,297,303,0
302,285,295,302,0
299,283,294,302,0
298,283,294,302,0
297,284,295,302,0
297,281,297,303,0
298,275,299,303,0
299,272,301,303,0
299,275,302,303,0
300,283,303,303,0
301,294,303,302,0
302,305,304,302,0
303,317,306,302,0
304,326,309,303,0
307,330,313,305,0
310,330,316,306,0
311,322,316,307,0
310,309,314,306,0
308,296,311,304,0
305,292,308,305,0
304,299,307,308,0
304,312,306,311,0
305,325,305,314,0
305,330,304,314,0
304,326,302,312,0
302,315,298,309,0
300,302,293,304,0
298,291,289,300,0
298,287,286,297,0
298,289,286,294,0
299,298,290,293,0
302,311,296,295,0
303,320,301,297,0
303,318,305,299,0
303,312,309,301,0
303,307,313,302,0
303,303,314,303,0
302,302,314,304,0
302,305,314,304,0
301,312,313,304,0
301,317,312,304,0
302,317,311,305,0
302,313,312,305,0
303,308,313,306,0
304,303,314,307,0
306,300,315,308,0
309,299,316,310,0
312,297,314,311,0
313,294,311,311,0
314,286,305,312,0
314,276,300,311,0
314,265,296,311,0
314,255,295,309,0
312,248,298,308,0
310,248,304,307,0
308,257,311,307,0
305,272,316,307,0
302,291,319,308,0
301,310,319,310,0
301,328,319,311,0
301,345,317,311,0
301,356,315,311,0
302,363,313,310,0
301,368,311,309,0
302,368,309,309,0
302,359,308,308,0
302,342,308,308,0
303,323,310,307,0
304,307,311,307,0
305,292,313,308,0
305,276,312,308,0
305,264,312,308,0
304,260,310,308,0
302,263,308,308,0
300,269,304,307,0
298,275,300,304,0
296,282,296,301,0
295,290,294,298,0
296,300,295,298,0
298,309,299,300,0
302,317,304,304,0
306,324,308,309,0
309,328,311,313,0
310,327,312,314,0
309,325,310,314,0
307,325,309,313,0
305,328,309,312,0
305,334,311,311,0
305,340,312,311,0
307,342,314,312,0
308,338,316,313,0
308,332,316,313,0
307,323,316,313,0
306,311,315,311,0
304,299,314,308,0
303,289,313,305,0
302,280,313,302,0
302,270,312,300,0
303,263,312,298,0
304,261,311,296,0
306,267,312,295,0
309,277,314,295,0
309,290,314,297,0
309,305,312,300,0
308,322,310,302,0
308,337,309,305,0
308,347,308,308,0
309,353,308,311,0
310,355,309,313,0
311,350,309,313,0
311,336,309,312,0
311,312,309,310,0
310,287,309,309,0
309,270,309,308,0
308,268,311,308,0
308,279,313,308,0
308,297,314,308,0
308,313,313,308,0
308,314,312,306,0
307,305,309,304,0
308,292,308,305,0
310,283,307,306,0
312,276,306,306,0
313,274,304,305,0
312,276,299,303,0
310,282,295,301,0
307,290,290,300,0
304,297,286,300,0
303,299,284,300,0
302,299,285,302,0
302,298,286,302,0
301,297,288,301,0
302,300,289,300,0
303,305,292,299,0
303,311,295,299,0
303,315,299,301,0
304,319,303,302,0
305,321,307,303,0
307,320,311,304,0
308,317,314,305,0
310,310,316,305,0
312,301,317,305,0
313,292,317,305,0
314,288,316,304,0
314,290,316,304,0
315,298,317,304,0
315,308,318,303,0
313,317,317,301,0
312,320,314,300,0
310,315,311,299,0
308,307,306,298,0
307,304,303,299,0
307,309,302,299,0
307,315,304,301,0
307,319,307,304,0
307,325,311,307,0
307,334,314,309,0
306,342,315,309,0
305,346,313,308,0
305,344,311,307,0
304,335,309,305,0
304,322,309,305,0
304,312,309,305,0
305,309,309,306,0
305,312,309,306,0
305,316,308,306,0
303,314,308,305,0
302,302,308,304,0
301,286,308,302,0
300,272,307,301,0
299,266,307,300,0
299,266,306,301,0
299,270,306,302,0
300,277,306,303,0
301,288,307,304,0
303,304,307,305,0
303,321,306,307,0
303,336,307,307,0
302,343,307,306,0
302,343,309,307,0
302,339,311,309,0
304,336,312,310,0
305,336,312,312,0
307,336,311,313,0
307,331,308,313,0
306,319,305,312,0
305,303,302,311,0
303,290,300,310,0
301,282,300,308,0
299,279,303,307,0
298,278,304,305,0
298,279,306,303,0
298,281,307,303,0
298,284,307,303,0
299,289,307,305,0
301,297,307,308,0
304,307,307,310,0
307,313,306,311,0
308,312,304,309,0
308,301,300,305,0
308,288,296,301,0
308,280,293,300,0
308,285,292,301,0
307,301,295,303,0
306,317,299,306,0
304,328,302,308,0
303,332,304,308,0
301,331,305,308,0
299,327,305,308,0
299,324,304,307,0
298,324,303,306,0
299,329,303,306,0
300,336,303,307,0
301,340,303,307,0
301,337,303,306,0
302,328,302,306,0
303,317,300,306,0
303,307,297,305,0
303,303,296,305,0
303,304,297,305,0
303,306,300,304,0
302,302,301,301,0
300,291,300,298,0
297,279,296,295,0
295,274,291,293,0
293,276,288,294,0
293,283,289,296,0
294,291,293,300,0
297,298,298,305,0
299,303,303,309,0
300,304,305,312,0
302,302,308,314,0
304,301,308,315,0
304,302,306,316,0
305,302,304,317,0
305,302,302,317,0
307,301,303,318,0
309,300,304,319,0
311,302,305,321,0
313,307,306,322,0
313,313,306,321,0
312,318,305,318,0
309,323,305,315,0
307,327,305,312,0
305,327,307,309,0
305,325,310,307,0
306,323,312,307,0
307,321,313,308,0
308,320,313,308,0
308,317,311,309,0
306,315,310,309,0
305,315,310,308,0
304,313,310,307,0
304,304,311,307,0
304,290,312,305,0
305,276,312,303,0
305,272,312,302,0
306,276,311,302,0
306,284,310,304,0
306,292,310,306,0
306,298,309,309,0
307,302,309,310,0
307,303,309,310,0
307,306,310,311,0
308,316,310,311,0
309,330,310,312,0
311,345,310,313,0
313,356,311,314,0
314,357,311,314,0
313,343,311,314,0
310,324,310,313,0
307,309,309,311,0
305,302,309,311,0
304,303,309,310,0
303,307,308,310,0
303,313,307,309,0
302,319,306,309,0
302,321,306,307,0
301,318,308,305,0
301,312,310,305,0
303,307,312,305,0
304,307,313,306,0
306,310,313,308,0
306,313,312,308,0
307,314,310,308,0
307,312,308,307,0
306,306,306,305,0
304,298,303,305,0
303,293,301,305,0
302,291,300,306,0
302,291,300,307,0
304,290,299,309,0
305,286,298,312,0
307,279,297,314,0
308,271,295,315,0
309,266,293,314,0
308,266,290,312,0
306,269,287,310,0
304,276,287,309,0
305,290,290,309,0
307,309,294,311,0
309,328,296,312,0
310,344,298,314,0
310,356,299,314,0
309,359,301,314,0
308,353,305,314,0
305,337,307,312,0
304,316,306,310,0
303,299,305,309,0
304,291,302,309,0
304,291,300,308,0
304,292,298,305,0
303,289,298,302,0
303,285,300,301,0
303,279,303,301,0
304,276,304,302,0
305,278,306,304,0
307,288,307,307,0
308,303,307,308,0
309,319,307,309,0
309,329,308,310,0
308,330,311,310,0
308,325,314,310,0
309,316,316,311,0
310,306,316,310,0
310,294,314,309,0
309,285,310,307,0
309,281,308,305,0
309,286,308,303,0
310,294,308,302,0
310,306,308,303,0
310,320,309,305,0
309,333,309,307,0
309,339,308,308,0
307,341,308,308,0
306,341,307,307,0
304,337,307,306,0
304,327,307,306,0
303,312,309,306,0
303,296,309,307,0
304,284,311,308,0
304,275,312,309,0
305,270,313,309,0
307,270,313,311,0
308,272,313,313,0
309,275,312,313,0
308,278,310,312,0
306,284,309,311,0
303,291,309,310,0
302,302,310,309,0
302,315,312,308,0
302,330,313,307,0
304,345,313,308,0
307,357,313,309,0
308,358,311,309,0
308,346,309,308,0
307,324,307,306,0
307,303,305,304,0
307,289,305,303,0
308,281,305,303,0
309,276,307,304,0
310,271,309,305,0
311,268,311,308,0
312,269,312,311,0
312,270,312,311,0
312,271,309,310,0
311,273,306,308,0
311,281,303,306,0
310,291,301,305,0
309,302,298,305,0
309,313,297,305,0
309,321,298,306,0
311,327,300,308,0
311,328,301,310,0
312,323,301,311,0
312,312,303,311,0
311,302,305,310,0
311,295,309,309,0
310,292,313,307,0
309,293,316,306,0
309,293,318,305,0
309,294,318,305,0
309,299,316,304,0
309,309,313,303,0
309,321,312,304,0
309,332,313,305,0
310,336,312,307,0
309,332,311,308,0
308,324,309,309,0
307,319,308,309,0
306,319,307,309,0
305,323,307,310,0
304,332,307,310,0
304,341,307,311,0
305,342,308,312,0
306,331,309,311,0
307,318,309,311,0
308,307,309,311,0
309,298,309,309,0
309,292,306,307,0
308,289,303,305,0
307,287,300,304,0
306,288,298,303,0
306,289,297,302,0
307,287,297,301,0
309,284,298,299,0
312,284,299,298,0
312,283,300,297,0
312,282,301,297,0
311,286,303,298,0
311,297,307,300,0
313,315,312,304,0
314,332,315,308,0
314,337,317,310,0
314,332,316,311,0
314,326,315,312,0
314,319,312,312,0
314,311,309,311,0
312,300,305,311,0
311,288,302,312,0
310,282,300,312,0
310,282,298,313,0
309,287,298,312,0
307,297,300,312,0
305,310,305,313,0
303,321,310,312,0
302,327,314,311,0
302,325,317,310,0
301,315,316,308,0
300,303,314,305,0
300,291,310,304,0
302,281,307,304,0
304,275,306,305,0
306,276,306,305,0
309,282,306,306,0
311,290,308,307,0
311,294,308,308,0
310,292,308,308,0
309,287,307,306,0
309,283,308,306,0
310,284,311,307,0
313,289,314,309,0
316,301,317,311,0
318,314,319,313,0
318,325,319,313,0
317,336,320,313,0
315,349,319,314,0
312,363,318,314,0
309,373,317,315,0
307,378,315,316,0
307,376,311,318,0
307,362,308,320,0
308,338,306,321,0
309,311,306,322,0
310,290,307,322,0
311,276,309,321,0
312,271,310,319,0
311,273,311,316,0
310,281,311,313,0
310,293,309,311,0
311,308,308,309,0
312,323,306,307,0
313,332,306,306,0
313,332,305,306,0
312,323,307,306,0
312,312,310,307,0
312,303,314,307,0
312,299,318,306,0
313,298,319,306,0
314,300,319,306,0
314,302,317,305,0
315,296,315,303,0
314,286,312,300,0
313,277,309,298,0
311,273,307,297,0
310,272,305,297,0
309,276,302,297,0
309,282,301,299,0
309,290,302,302,0
309,299,303,307,0
308,308,303,310,0
308,315,302,313,0
307,321,302,313,0
308,328,300,313,0
310,335,299,311,0
310,339,300,309,0
310,337,301,307,0
307,327,301,305,0
305,315,302,304,0
303,306,302,305,0
302,301,304,305,0
302,298,304,306,0
302,295,305,306,0
302,291,305,306,0
302,288,305,305,0
303,286,306,305,0
304,285,307,305,0
306,285,307,306,0
307,283,308,306,0
308,280,309,306,0
309,279,310,305,0
310,281,312,304,0
311,285,312,301,0
310,292,311,298,0
310,299,307,297,0
310,304,304,298,0
311,309,303,301,0
313,317,304,305,0
313,329,306,310,0
313,339,306,314,0
310,344,307,315,0
307,347,307,316,0
306,351,307,315,0
305,352,307,313,0
303,348,307,309,0
302,338,307,306,0
300,326,307,304,0
299,312,307,304,0
299,299,309,306,0
300,288,311,309,0
300,285,313,311,0
301,292,312,311,0
301,305,310,312,0
301,320,308,311,0
302,331,306,310,0
303,333,305,310,0
304,326,305,309,0
304,315,305,307,0
306,313,306,306,0
307,319,306,305,0
308,327,306,304,0
309,330,307,303,0
309,324,307,301,0
309,311,306,299,0
307,294,304,297,0
306,279,301,296,0
304,267,298,294,0
303,258,296,293,0
303,255,297,293,0
303,255,300,294,0
304,257,304,295,0
304,261,307,297,0
304,266,308,298,0
304,272,308,299,0
304,278,307,301,0
305,287,305,303,0
307,296,304,304,0
307,305,302,304,0
308,310,299,304,0
307,313,296,304,0
306,314,293,302,0
306,317,292,302,0
306,322,293,304,0
308,325,296,307,0
309,324,301,309,0
311,319,305,310,0
312,312,308,311,0
312,303,309,310,0
312,296,308,309,0
312,291,307,307,0
312,295,307,305,0
313,309,307,305,0
315,328,310,304,0
316,349,311,305,0
317,369,310,306,0
318,380,307,307,0
317,376,304,307,0
315,360,300,309,0
314,341,299,311,0
313,319,299,312,0
311,298,301,312,0
310,285,303,311,0
309,281,304,309,0
308,284,304,307,0
306,288,303,304,0
304,290,300,302,0
303,291,297,301,0
303,290,295,301,0
303,289,296,301,0
303,293,299,302,0
305,304,301,304,0
306,319,303,308,0
307,332,304,311,0
306,336,303,312,0
304,328,302,312,0
302,313,304,312,0
301,300,305,312,0
301,293,309,312,0
303,289,313,312,0
305,288,315,311,0
307,285,313,309,0
307,280,309,307,0
308,273,306,306,0
308,267,304,305,0
308,264,304,306,0
308,266,303,308,0
308,272,304,310,0
307,281,305,312,0
307,291,306,312,0
307,302,305,310,0
306,310,304,308,0
306,318,304,308,0
306,323,306,310,0
305,325,309,313,0
305,323,311,316,0
305,319,312,317,0
305,319,312,317,0
307,326,311,317,0
309,338,312,315,0
312,353,312,314,0
313,364,312,312,0
312,369,312,312,0
311,370,311,312,0
311,365,311,311,0
310,356,311,311,0
309,339,310,310,0
308,317,310,309,0
307,296,310,308,0
305,282,311,307,0
305,275,312,306,0
304,273,313,306,0
305,272,312,306,0
305,273,310,306,0
306,273,307,305,0
306,273,305,304,0
306,274,303,303,0
306,276,303,302,0
306,282,303,302,0
307,292,304,302,0
309,304,303,303,0
311,317,303,305,0
313,326,305,307,0
314,327,306,308,0
314,324,307,309,0
311,319,307,308,0
308,313,305,306,0
306,307,303,305,0
304,300,300,305,0
303,291,299,305,0
302,282,299,305,0
302,274,301,305,0
302,268,302,304,0
302,263,301,302,0
302,260,299,300,0
301,261,297,299,0
301,266,295,297,0
300,272,294,298,0
302,279,297,301,0
303,285,301,305,0
305,292,305,307,0
305,301,308,309,0
304,310,310,310,0
302,317,313,309,0
301,320,316,308,0
301,319,318,309,0
302,317,320,311,0
304,315,322,314,0
307,311,323,315,0
309,307,324,316,0
312,303,324,315,0
314,301,323,314,0
316,305,321,312,0
316,313,316,311,0
315,326,312,311,0
313,338,307,310,0
312,345,303,310,0
310,347,300,309,0
309,342,297,308,0
306,332,295,307,0
304,322,294,307,0
303,316,296,309,0
302,313,299,309,0
301,313,301,309,0
301,315,302,307,0
300,321,301,303,0
299,327,300,299,0
298,332,300,298,0
299,335,302,301,0
300,336,305,307,0
303,340,308,314,0
307,346,312,319,0
309,353,315,321,0
310,355,314,320,0
310,347,313,317,0
308,334,311,313,0
306,317,309,311,0
304,305,306,310,0
303,301,304,309,0
302,305,303,309,0
302,309,304,308,0
302,307,305,307,0
302,300,307,306,0
302,290,307,305,0
303,280,307,303,0
303,271,306,301,0
303,265,305,299,0
303,261,306,299,0
303,261,307,298,0
303,263,310,299,0
304,265,313,300,0
305,264,316,301,0
306,264,316,302,0
307,264,315,301,0
308,268,313,301,0
310,277,312,301,0
310,286,312,300,0
309,293,312,300,0
307,299,312,299,0
307,302,311,299,0
306,305,309,300,0
306,308,308,302,0
306,311,308,304,0
307,314,307,305,0
307,316,305,304,0
305,313,301,302,0
302,308,295,299,0
300,302,291,298,0
299,297,290,298,0
300,291,292,300,0
301,286,296,303,0
302,286,302,305,0
303,295,309,307,0
304,311,316,308,0
305,331,320,309,0
306,347,320,310,0
306,354,318,309,0
305,348,314,307,0
305,332,311,306,0
305,316,310,306,0
306,307,309,307,0
307,306,309,308,0
309,311,312,309,0
310,323,314,310,0
310,338,315,311,0
309,348,315,310,0
308,350,314,310,0
307,346,314,309,0
307,340,312,308,0
307,337,311,308,0
308,338,309,308,0
310,339,309,308,0
312,334,307,308,0
312,317,305,307,0
312,296,304,307,0
311,275,305,308,0
311,262,306,308,0
311,258,309,308,0
310,262,310,308,0
308,269,312,309,0
306,276,312,310,0
305,282,311,311,0
303,285,309,310,0
302,284,305,310,0
300,282,302,309,0
299,282,299,308,0
299,287,300,308,0
300,292,302,309,0
302,297,304,310,0
304,297,305,310,0
305,298,305,309,0
306,297,303,309,0
306,297,300,309,0
306,296,298,309,0
306,297,297,307,0
306,301,297,305,0
307,307,296,303,0
308,314,296,301,0
309,319,296,302,0
