309,302,311,321,1
311,299,311,321,1
311,299,311,322,1
312,301,311,322,1
313,303,311,321,1
313,306,311,319,1
312,307,310,316,1
311,309,309,315,1
310,309,308,314,1
309,309,306,313,1
308,307,303,311,1
307,306,301,310,1
307,306,299,310,1
308,307,299,311,1
310,309,299,311,1
311,312,299,311,1
312,318,300,311,1
313,323,300,311,1
313,325,300,310,1
313,323,299,308,1
312,317,298,306,1
310,309,297,305,1
306,302,296,304,1
304,295,296,306,1
302,291,297,307,1
301,288,300,309,1
301,288,304,309,1
301,289,305,309,1
302,291,306,309,1
304,294,306,310,1
305,297,306,311,1
307,300,306,312,1
309,303,306,312,1
310,304,305,311,1
310,303,303,309,1
310,300,302,306,1
309,299,302,304,1
309,298,302,302,1
309,296,303,300,1
310,295,303,300,1
310,295,303,300,1
308,296,304,299,1
306,297,303,298,1
305,299,303,298,1
305,301,303,297,1
305,303,302,298,1
306,306,302,299,1
307,307,303,301,1
308,307,304,302,1
308,306,306,304,1
306,303,306,304,1
303,300,305,304,1
299,298,304,305,1
297,299,303,306,1
296,300,302,306,1
297,303,302,305,1
298,306,302,304,1
300,310,300,301,1
302,311,298,300,1
304,311,297,299,1
306,311,297,303,1
308,310,299,308,1
309,309,302,312,1
309,306,304,315,1
307,304,306,314,1
305,303,307,313,1
304,302,308,310,1
304,301,308,306,1
303,299,306,301,1
302,298,305,297,1
301,297,304,293,1
300,297,303,289,1
299,297,302,288,1
299,300,301,290,1
299,302,302,295,1
300,305,301,300,1
301,307,300,306,1
301,307,300,310,1
302,308,301,314,1
304,310,302,318,1
305,312,303,320,1
306,314,304,320,1
307,315,305,319,1
308,314,304,318,1
308,310,303,317,1
308,306,303,316,1
309,302,303,315,1
309,299,303,312,1
310,297,303,309,1
310,297,302,306,1
309,296,302,303,1
308,297,301,300,1
308,296,301,300,1
307,295,301,302,1
307,294,300,304,1
307,293,299,306,1
306,292,297,308,1
305,291,296,309,1
305,292,296,309,1
306,293,297,308,1
307,296,299,308,1
309,299,301,307,1
310,303,303,307,1
311,305,304,305,1
311,306,304,306,1
310,306,304,307,1
307,305,303,308,1
304,304,302,310,1
303,305,301,312,1
301,306,300,315,1
301,311,301,316,1
301,316,301,317,1
301,318,300,317,1
302,319,300,318,1
303,320,301,320,1
305,321,303,322,1
306,318,304,323,1
305,312,304,321,1
303,305,302,318,1
301,300,299,313,1
299,296,297,310,1
298,295,295,307,1
298,296,294,306,1
298,297,294,305,1
300,298,295,305,1
303,300,299,305,1
306,302,301,304,1
308,302,303,304,1
309,302,304,303,1
309,302,306,303,1
308,303,308,303,1
307,304,308,304,1
305,305,308,304,1
304,305,306,303,1
303,305,304,303,1
303,308,301,306,1
303,309,300,309,1
303,307,299,310,1
303,304,299,312,1
303,302,299,314,1
305,302,300,316,1
307,304,301,315,1
311,306,301,312,1
314,307,301,308,1
317,309,302,306,1
319,311,304,308,1
320,313,306,310,1
318,314,306,312,1
315,313,306,313,1
311,311,305,315,1
307,309,304,316,1
304,307,304,317,1
302,305,304,317,1
302,304,304,318,1
302,304,305,319,1
303,305,306,320,1
304,306,306,320,1
305,309,306,320,1
305,312,305,319,1
304,313,304,316,1
303,313,302,312,1
301,311,300,307,1
300,308,299,304,1
300,307,299,303,1
300,307,300,304,1
301,306,300,306,1
302,306,302,309,1
304,306,303,313,1
306,307,304,318,1
309,307,305,320,1
310,306,306,320,1
309,305,305,319,1
308,304,304,317,1
306,304,304,315,1
304,305,304,313,1
303,306,303,311,1
302,307,303,308,1
302,309,303,304,1
303,310,303,301,1
304,309,303,298,1
303,308,302,297,1
303,307,301,297,1
301,306,301,299,1
300,306,299,302,1
299,306,299,305,1
299,307,298,307,1
300,307,298,309,1
301,309,300,311,1
303,311,303,313,1
305,314,306,315,1
308,317,307,315,1
310,320,307,315,1
312,325,307,313,1
312,330,307,312,1
312,336,307,310,1
312,338,306,308,1
311,331,305,306,1
310,321,303,304,1
309,311,303,304,1
310,306,303,303,1
311,304,302,300,1
311,303,300,296,1
310,303,296,292,1
308,303,292,288,1
307,302,290,288,1
305,297,289,290,1
303,291,288,293,1
302,285,290,297,1
302,282,295,301,1
302,281,302,306,1
303,282,307,308,1
304,284,310,310,1
304,286,311,310,1
306,289,312,311,1
307,292,312,311,1
309,294,311,310,1
309,297,310,308,1
308,299,309,305,1
307,302,309,304,1
307,304,308,303,1
306,304,308,302,1
305,303,308,301,1
305,301,308,302,1
304,300,308,302,1
304,299,307,302,1
303,299,306,302,1
302,300,306,303,1
302,301,306,304,1
302,303,307,304,1
303,304,307,305,1
303,307,307,305,1
304,308,307,304,1
305,310,307,304,1
305,312,306,304,1
305,314,306,304,1
305,314,305,305,1
305,313,306,307,1
306,312,306,310,1
307,311,306,312,1
308,310,304,312,1
308,309,302,311,1
308,309,300,310,1
307,309,299,307,1
307,307,297,305,1
307,306,297,304,1
307,307,297,304,1
308,309,299,305,1
308,310,300,304,1
308,309,301,303,1
307,308,301,302,1
307,306,301,302,1
307,306,302,301,1
307,306,303,301,1
306,308,304,301,1
305,310,304,299,1
303,312,304,297,1
301,314,304,295,1
300,315,305,295,1
301,317,307,297,1
303,319,309,301,1
305,319,311,305,1
306,317,312,308,1
306,313,312,308,1
306,307,311,308,1
305,302,310,309,1
305,301,309,311,1
306,302,308,313,1
305,302,305,312,1
305,303,300,308,1
305,305,297,305,1
307,309,295,303,1
309,312,295,303,1
312,313,297,304,1
314,312,299,303,1
314,310,302,304,1
312,308,304,306,1
310,306,305,308,1
308,305,305,307,1
308,304,305,305,1
308,302,305,301,1
309,303,304,298,1
312,306,304,297,1
314,310,305,296,1
316,312,305,297,1
316,314,305,297,1
314,315,305,300,1
311,317,307,305,1
309,318,308,310,1
307,320,309,313,1
306,320,307,313,1
306,318,305,308,1
304,316,302,300,1
302,315,297,290,1
300,312,294,279,1
299,305,290,268,1
297,297,286,258,1
295,289,284,250,1
294,285,285,247,1
295,286,289,250,1
298,292,294,257,1
302,299,298,265,1
304,302,301,272,1
304,302,301,278,1
304,300,301,287,1
305,301,303,302,1
309,305,307,319,1
311,310,310,334,1
313,313,313,342,1
315,315,314,345,1
317,316,315,345,1
319,317,317,344,1
320,318,317,342,1
318,317,316,340,1
315,315,314,337,1
313,314,311,334,1
310,313,310,332,1
309,312,310,330,1
309,311,311,328,1
309,311,313,325,1
309,311,315,322,1
309,310,316,319,1
309,309,316,314,1
308,307,314,310,1
306,305,312,307,1
305,303,310,305,1
305,303,308,304,1
305,302,307,301,1
305,300,306,298,1
304,299,304,297,1
302,299,303,295,1
300,298,301,294,1
299,299,299,295,1
300,301,299,296,1
300,302,300,298,1
301,302,302,302,1
301,303,306,305,1
301,304,309,309,1
301,305,312,312,1
302,306,313,314,1
303,307,313,316,1
304,308,313,317,1
306,310,312,317,1
309,311,310,317,1
311,312,308,316,1
311,311,305,314,1
310,310,304,312,1
310,309,303,310,1
309,309,304,309,1
309,309,306,309,1
311,310,309,309,1
313,311,311,309,1
314,310,313,309,1
313,309,314,310,1
314,309,315,311,1
316,309,316,312,1
318,309,316,314,1
320,309,317,315,1
321,311,318,316,1
320,312,317,316,1
316,312,315,316,1
311,312,314,314,1
307,312,312,311,1
304,310,310,308,1
303,308,308,306,1
303,306,308,304,1
304,306,309,304,1
305,306,310,304,1
307,307,310,303,1
309,308,310,303,1
311,308,310,303,1
313,309,311,303,1
315,309,313,304,1
316,309,315,306,1
316,309,317,309,1
315,308,317,311,1
312,306,315,311,1
308,302,312,308,1
304,299,308,303,1
300,298,304,296,1
298,298,301,289,1
296,297,299,283,1
296,296,298,278,1
296,295,300,277,1
299,297,305,282,1
304,302,311,290,1
308,307,315,300,1
310,311,317,310,1
312,315,317,318,1
312,318,316,323,1
312,319,314,326,1
309,318,312,326,1
306,316,311,325,1
304,313,311,325,1
304,311,312,325,1
304,312,313,325,1
305,314,314,325,1
307,316,314,323,1
308,316,314,322,1
307,314,313,319,1
306,312,311,317,1
305,309,308,316,1
305,307,304,314,1
304,304,300,312,1
305,302,298,311,1
306,300,298,311,1
308,301,301,312,1
309,303,304,313,1
308,303,308,313,1
307,303,312,313,1
306,304,315,314,1
307,306,317,317,1
309,307,319,319,1
311,309,320,321,1
312,309,319,322,1
311,309,318,321,1
309,311,316,320,1
308,312,315,319,1
308,313,313,317,1
309,311,312,315,1
308,309,311,313,1
308,306,310,311,1
308,305,309,311,1
309,305,309,311,1
308,304,308,310,1
307,303,307,309,1
305,303,306,308,1
303,303,306,306,1
303,303,306,305,1
305,303,306,305,1
307,304,306,305,1
309,305,305,304,1
310,305,303,302,1
309,305,301,300,1
306,304,298,297,1
303,302,295,295,1
300,303,294,294,1
301,305,296,295,1
303,308,300,295,1
307,311,304,296,1
309,313,308,297,1
309,314,310,298,1
307,314,311,299,1
304,312,311,299,1
300,308,310,298,1
298,305,310,299,1
297,305,310,302,1
298,306,312,305,1
300,306,313,309,1
303,307,314,312,1
306,308,314,315,1
308,309,313,317,1
309,309,312,317,1
310,307,310,317,1
310,306,309,315,1
309,306,308,313,1
309,306,308,311,1
309,306,307,309,1
307,305,307,308,1
306,304,308,306,1
305,302,308,305,1
305,302,308,304,1
305,302,309,304,1
306,304,310,305,1
305,306,311,306,1
305,310,312,308,1
304,312,312,309,1
303,311,312,308,1
302,309,311,306,1
300,306,310,304,1
300,304,309,302,1
301,303,308,302,1
303,302,308,302,1
304,303,308,304,1
305,304,309,307,1
306,305,309,309,1
305,306,308,309,1
304,306,306,308,1
303,306,304,307,1
303,307,303,305,1
304,309,302,304,1
305,312,304,305,1
305,315,306,307,1
306,316,309,308,1
307,316,311,309,1
307,315,312,308,1
308,314,312,305,1
308,312,311,303,1
309,311,310,303,1
311,311,309,304,1
312,310,307,306,1
313,310,305,308,1
313,311,304,309,1
313,311,304,309,1
313,311,305,309,1
313,311,307,309,1
313,310,308,309,1
312,307,309,308,1
311,304,309,308,1
310,302,309,308,1
309,301,308,308,1
308,302,307,308,1
307,304,307,309,1
308,307,306,308,1
308,310,305,306,1
308,311,303,303,1
307,309,301,298,1
306,306,299,294,1
306,304,298,290,1
305,303,298,288,1
305,302,298,288,1
306,302,298,290,1
306,304,298,292,1
307,308,299,296,1
308,312,302,299,1
309,315,305,302,1
309,316,307,305,1
309,317,308,307,1
309,317,308,309,1
308,316,307,309,1
307,313,306,309,1
307,310,307,310,1
308,308,309,312,1
309,306,310,313,1
310,305,311,312,1
309,304,310,311,1
308,305,311,311,1
308,307,311,311,1
309,309,312,311,1
309,309,312,311,1
310,310,313,313,1
311,311,314,314,1
311,312,314,317,1
312,312,314,319,1
312,312,314,321,1
311,312,314,321,1
310,311,313,320,1
309,308,311,318,1
308,305,309,315,1
306,302,308,312,1
305,298,306,309,1
304,295,306,306,1
304,293,306,304,1
305,294,305,303,1
306,294,305,301,1
306,294,304,300,1
307,294,304,300,1
307,296,305,301,1
307,298,307,302,1
307,300,308,302,1
307,301,309,302,1
307,302,310,300,1
307,304,311,300,1
308,306,311,301,1
308,308,312,303,1
309,310,312,305,1
307,310,312,309,1
305,311,312,314,1
305,310,312,318,1
304,310,312,322,1
303,310,311,324,1
303,308,309,325,1
303,306,307,324,1
302,304,305,322,1
301,304,304,320,1
301,304,305,318,1
300,304,306,317,1
301,305,308,316,1
301,305,309,314,1
302,306,309,311,1
303,306,310,309,1
304,305,310,305,1
305,304,309,303,1
305,304,308,302,1
306,303,307,302,1
307,304,307,303,1
309,304,308,306,1
310,306,311,310,1
313,307,314,313,1
314,309,316,315,1
314,311,315,316,1
313,312,314,315,1
309,310,314,314,1
306,307,315,312,1
302,302,315,311,1
300,298,316,310,1
298,295,317,309,1
297,294,317,308,1
298,294,316,309,1
301,296,316,310,1
305,300,316,312,1
308,303,315,313,1
310,307,313,314,1
311,309,313,315,1
311,312,312,317,1
309,311,311,318,1
305,308,310,317,1
303,304,308,315,1
300,301,307,314,1
299,298,306,313,1
298,296,306,311,1
298,295,305,309,1
298,295,305,309,1
300,296,305,309,1
302,297,305,310,1
303,299,306,312,1
303,300,306,313,1
303,302,305,314,1
303,304,304,315,1
304,306,303,317,1
304,308,302,319,1
304,308,302,319,1
303,308,301,318,1
302,306,302,316,1
303,305,304,314,1
304,304,306,311,1
305,302,307,307,1
306,301,307,302,1
307,300,306,299,1
307,299,306,298,1
307,298,304,299,1
307,299,303,300,1
308,302,302,302,1
307,304,301,302,1
306,306,300,302,1
305,308,300,301,1
304,310,302,301,1
303,312,303,301,1
301,314,304,302,1
300,314,303,302,1
299,312,303,302,1
299,309,302,301,1
299,307,301,299,1
299,307,300,296,1
300,307,300,293,1
300,308,299,289,1
300,308,299,287,1
301,308,299,289,1
303,308,301,294,1
304,309,303,301,1
305,312,304,310,1
306,313,306,319,1
307,314,308,327,1
307,312,308,332,1
307,310,308,335,1
307,310,307,334,1
306,310,306,332,1
305,310,305,328,1
304,309,304,324,1
303,309,304,320,1
302,307,304,318,1
303,305,304,316,1
305,305,302,314,1
306,304,301,313,1
307,303,300,312,1
308,303,300,311,1
308,303,301,310,1
308,303,302,310,1
307,304,303,309,1
306,303,302,309,1
305,303,300,307,1
305,303,299,306,1
305,301,301,306,1
307,300,304,306,1
311,300,307,307,1
315,302,309,308,1
318,304,311,308,1
320,306,312,307,1
320,307,311,306,1
319,308,310,305,1
316,308,308,303,1
310,307,307,303,1
304,308,305,303,1
300,308,304,305,1
298,308,302,305,1
296,308,300,305,1
296,308,299,303,1
297,306,299,301,1
298,304,300,299,1
298,301,302,296,1
298,299,304,296,1
298,299,306,297,1
298,297,308,298,1
299,297,308,300,1
299,297,309,302,1
300,298,309,305,1
300,300,309,307,1
300,302,308,308,1
301,305,306,308,1
302,306,306,309,1
303,306,305,309,1
304,307,305,310,1
305,309,306,312,1
307,310,308,313,1
309,312,309,314,1
310,312,310,313,1
311,310,310,311,1
312,306,310,307,1
312,302,310,304,1
312,300,311,302,1
311,299,311,300,1
310,300,310,299,1
309,303,310,298,1
308,306,309,296,1
308,308,308,294,1
306,309,306,292,1
303,306,305,288,1
300,301,304,285,1
298,297,303,284,1
296,297,303,287,1
296,298,304,293,1
298,302,305,301,1
301,305,307,311,1
304,309,310,319,1
306,312,311,326,1
307,312,312,328,1
308,310,311,329,1
307,308,310,327,1
304,305,308,324,1
301,303,306,321,1
299,303,305,318,1
297,303,304,314,1
297,305,303,311,1
297,307,303,309,1
296,306,304,308,1
296,304,305,308,1
296,302,306,310,1
297,301,307,313,1
298,302,308,316,1
300,304,309,318,1
301,306,310,319,1
303,307,309,317,1
304,309,307,315,1
305,310,305,314,1
305,311,303,313,1
304,310,300,312,1
302,309,298,312,1
300,307,297,312,1
300,308,299,312,1
300,308,302,312,1
300,307,305,312,1
300,306,308,312,1
301,306,312,314,1
301,307,313,315,1
301,305,314,316,1
300,304,313,315,1
301,304,312,313,1
302,303,310,310,1
302,302,309,306,1
302,300,308,303,1
302,300,308,302,1
301,300,307,302,1
301,300,307,303,1
302,301,307,305,1
304,303,306,306,1
306,304,306,309,1
309,306,306,312,1
310,308,307,314,1
310,310,308,317,1
307,312,309,318,1
305,310,309,318,1
304,307,309,317,1
304,304,308,316,1
304,303,308,315,1
304,304,308,315,1
305,306,308,315,1
305,308,308,313,1
303,311,308,312,1
302,312,306,309,1
300,312,305,307,1
298,311,305,305,1
297,309,305,304,1
295,307,304,302,1
294,304,303,301,1
292,302,303,300,1
291,300,302,298,1
291,300,302,298,1
293,301,302,298,1
297,302,303,298,1
299,304,303,298,1
302,306,304,299,1
304,307,305,301,1
306,310,307,304,1
308,311,310,310,1
309,312,311,316,1
309,311,312,320,1
309,308,312,321,1
308,306,311,322,1
305,304,311,323,1
304,303,311,323,1
303,305,311,323,1
302,307,311,323,1
301,310,311,322,1
300,313,310,320,1
302,315,310,319,1
303,318,310,316,1
305,318,310,314,1
306,316,309,311,1
306,313,308,307,1
306,309,306,304,1
306,304,305,302,1
306,300,304,302,1
306,297,304,303,1
305,295,304,303,1
304,293,303,302,1
303,291,302,303,1
301,290,301,304,1
300,291,301,305,1
300,292,302,308,1
300,293,303,309,1
302,296,305,311,1
304,299,308,313,1
305,304,310,315,1
306,308,311,316,1
306,309,311,315,1
305,307,309,314,1
304,304,308,311,1
303,301,307,310,1
303,302,307,309,1
303,304,307,309,1
303,305,307,309,1
303,307,307,308,1
303,308,308,309,1
303,308,309,310,1
303,309,310,311,1
303,311,311,313,1
304,312,311,314,1
304,313,311,314,1
304,313,310,314,1
304,312,310,312,1
304,311,309,311,1
304,310,308,309,1
304,309,307,307,1
305,307,307,305,1
306,306,307,304,1
308,305,307,304,1
308,305,307,304,1
309,306,308,304,1
309,308,308,304,1
308,309,308,304,1
307,310,308,305,1
306,312,307,305,1
306,313,306,306,1
306,315,306,307,1
306,317,305,308,1
307,316,303,308,1
306,315,302,308,1
306,314,302,308,1
305,313,303,308,1
305,313,303,308,1
305,313,304,308,1
305,313,305,308,1
305,315,305,308,1
305,317,305,308,1
306,320,306,309,1
305,321,306,308,1
305,322,306,308,1
305,324,306,308,1
306,325,306,308,1
306,325,305,308,1
305,321,305,307,1
304,316,304,306,1
303,312,304,305,1
304,308,303,304,1
304,305,302,303,1
304,303,301,302,1
305,301,301,302,1
306,299,301,301,1
307,298,301,300,1
306,297,301,299,1
306,297,301,299,1
306,297,301,299,1
306,298,302,300,1
307,301,303,302,1
307,304,303,303,1
308,306,303,304,1
308,307,304,305,1
309,308,304,306,1
310,309,304,307,1
310,309,304,308,1
309,310,303,308,1
307,312,302,308,1
305,312,301,308,1
303,311,300,307,1
301,308,299,306,1
299,305,298,304,1
298,303,297,302,1
298,302,297,301,1
298,301,297,301,1
300,301,299,301,1
302,302,301,301,1
305,303,302,301,1
307,306,303,302,1
309,310,304,304,1
311,316,305,305,1
312,319,305,307,1
312,320,304,308,1
310,319,303,308,1
308,316,302,307,1
305,313,300,305,1
304,309,299,303,1
303,307,299,302,1
303,306,300,303,1
302,307,301,304,1
301,309,303,306,1
302,311,304,305,1
302,311,303,302,1
301,309,300,297,1
299,306,295,289,1
297,303,289,282,1
297,302,285,276,1
299,303,284,274,1
302,305,287,275,1
306,309,291,280,1
311,314,297,289,1
316,320,304,300,1
320,324,309,311,1
321,327,312,320,1
320,327,314,326,1
317,324,314,328,1
313,320,312,328,1
310,315,309,325,1
308,311,307,321,1
306,309,305,319,1
304,309,304,317,1
304,310,303,315,1
303,310,301,312,1
303,311,300,309,1
303,311,300,308,1
303,313,299,307,1
303,313,298,306,1
302,312,297,306,1
302,312,297,306,1
302,314,298,308,1
303,316,299,311,1
304,317,299,313,1
305,318,299,314,1
306,318,298,315,1
306,317,297,315,1
306,315,296,314,1
306,313,296,312,1
306,310,296,309,1
307,308,296,306,1
307,307,297,302,1
307,307,298,299,1
308,307,299,298,1
307,308,300,299,1
306,309,301,300,1
305,309,302,300,1
304,308,302,300,1
303,307,300,301,1
304,307,301,304,1
304,309,302,308,1
306,313,304,313,1
308,316,305,316,1
309,320,305,317,1
310,321,305,316,1
310,321,305,315,1
309,320,303,314,1
307,316,302,314,1
304,312,301,312,1
303,309,301,312,1
302,309,301,312,1
301,309,301,313,1
301,309,302,313,1
301,310,303,312,1
301,312,303,311,1
301,315,303,309,1
301,317,302,306,1
300,320,302,302,1
299,325,302,300,1
299,328,302,298,1
299,329,302,298,1
300,327,302,299,1
300,322,302,300,1
301,319,300,303,1
301,315,300,306,1
302,312,300,309,1
302,310,300,310,1
302,306,301,312,1
301,303,302,314,1
301,301,303,316,1
301,299,303,317,1
301,295,302,317,1
301,293,301,316,1
301,292,299,314,1
302,292,297,312,1
302,294,294,310,1
302,295,291,307,1
303,297,289,306,1
303,300,289,307,1
304,303,290,308,1
304,306,292,308,1
303,308,295,308,1
304,308,299,307,1
304,307,303,305,1
303,304,306,304,1
301,302,308,302,1
300,301,308,301,1
300,302,307,300,1
299,302,306,300,1
300,302,304,301,1
302,303,303,303,1
304,305,303,306,1
307,307,304,307,1
310,308,305,304,1
313,308,305,300,1
314,307,305,294,1
314,304,305,288,1
313,301,304,285,1
310,298,304,283,1
305,296,303,286,1
301,296,303,292,1
299,299,304,298,1
298,303,304,303,1
299,309,305,307,1
300,313,305,309,1
302,317,306,310,1
304,319,307,311,1
306,320,308,311,1
307,320,309,310,1
308,320,310,310,1
309,321,311,311,1
309,320,312,312,1
308,318,311,313,1
307,315,309,313,1
305,312,307,313,1
303,309,305,311,1
303,307,305,310,1
303,306,305,308,1
303,305,305,307,1
303,304,305,304,1
303,303,305,302,1
304,304,305,301,1
305,304,305,300,1
307,304,304,300,1
308,306,303,300,1
308,308,301,301,1
307,311,299,301,1
306,312,298,300,1
305,312,297,297,1
304,311,297,297,1
305,309,298,298,1
304,306,299,299,1
304,302,300,300,1
304,299,301,302,1
304,297,302,305,1
305,298,302,308,1
306,299,303,310,1
307,302,304,311,1
307,306,304,312,1
309,310,305,313,1
310,314,306,314,1
312,315,306,315,1
313,316,307,316,1
314,315,307,317,1
313,313,307,318,1
312,311,307,317,1
311,308,306,317,1
309,306,305,315,1
308,304,304,314,1
307,303,303,311,1
307,302,303,310,1
306,301,303,308,1
306,300,302,307,1
305,300,302,307,1
305,300,302,308,1
304,299,302,309,1
304,300,303,310,1
304,300,304,309,1
304,302,303,308,1
304,304,303,307,1
304,305,302,306,1
304,304,302,305,1
303,302,301,304,1
302,301,301,303,1
302,301,300,303,1
302,301,301,303,1
303,302,303,302,1
304,303,304,302,1
306,303,304,301,1
308,303,304,301,1
309,303,304,301,1
309,304,304,302,1
311,306,305,303,1
312,308,306,304,1
313,309,307,303,1
312,311,307,303,1
311,311,307,303,1
310,309,307,303,1
307,307,307,303,1
305,305,306,305,1
303,303,307,307,1
303,302,308,309,1
304,302,309,310,1
305,302,309,310,1
306,301,308,312,1
308,301,308,312,1
309,301,308,312,1
310,303,308,312,1
311,303,309,311,1
310,303,309,310,1
308,303,309,308,1
306,302,307,307,1
305,301,307,306,1
304,301,306,304,1
304,301,305,303,1
305,303,304,304,1
306,305,304,305,1
308,305,304,307,1
308,306,304,309,1
309,307,303,310,1
308,307,303,310,1
306,305,302,309,1
304,303,301,308,1
303,301,300,307,1
302,301,300,308,1
302,301,301,308,1
303,302,302,309,1
304,303,302,309,1
306,305,303,309,1
308,307,304,309,1
309,308,305,309,1
310,309,305,310,1
310,308,305,311,1
309,307,305,313,1
307,305,305,313,1
306,304,305,313,1
305,304,305,311,1
305,305,305,310,1
306,306,304,308,1
307,306,303,305,1
307,305,302,303,1
308,304,302,302,1
308,304,303,304,1
307,305,303,306,1
307,305,304,306,1
306,303,304,307,1
306,302,304,305,1
305,300,304,301,1
305,300,302,295,1
305,299,301,287,1
304,299,300,279,1
304,300,299,272,1
304,300,298,267,1
303,301,297,267,1
303,303,298,275,1
303,306,300,289,1
304,309,301,303,1
303,309,303,314,1
303,309,305,321,1
304,310,307,326,1
304,311,309,329,1
304,312,310,331,1
303,312,311,331,1
302,311,312,330,1
300,310,313,329,1
300,310,312,328,1
300,309,311,326,1
301,309,308,324,1
302,309,306,322,1
303,311,303,320,1
302,313,301,318,1
302,316,300,317,1
303,317,300,315,1
303,315,300,311,1
304,309,300,306,1
303,303,300,301,1
302,298,301,297,1
303,296,303,295,1
304,298,305,296,1
305,302,307,301,1
305,306,309,307,1
304,309,309,311,1
303,311,309,315,1
302,313,310,318,1
303,316,310,321,1
304,318,310,322,1
306,321,310,323,1
307,323,310,324,1
308,325,310,324,1
308,326,310,324,1
309,325,310,323,1
310,322,310,321,1
311,318,309,317,1
310,313,307,312,1
309,309,306,307,1
308,304,304,302,1
307,301,303,298,1
307,299,302,295,1
307,299,303,296,1
306,301,304,298,1
304,303,306,302,1
303,302,308,306,1
303,300,309,311,1
302,298,311,315,1
302,297,311,319,1
302,296,311,321,1
304,296,311,321,1
305,296,310,321,1
305,296,308,319,1
305,297,306,318,1
304,297,304,316,1
304,298,304,314,1
304,298,304,313,1
305,299,306,313,1
306,302,310,314,1
308,305,312,314,1
309,308,313,312,1
309,309,311,307,1
307,309,309,301,1
305,311,306,295,1
301,313,304,290,1
298,316,302,287,1
295,317,301,285,1
293,316,300,286,1
293,314,301,290,1
295,311,301,297,1
296,307,301,305,1
298,304,302,312,1
299,303,302,316,1
301,302,303,318,1
301,302,305,318,1
301,302,307,317,1
301,301,310,315,1
303,301,313,313,1
304,301,314,310,1
305,301,315,307,1
306,301,314,305,1
307,301,312,302,1
307,300,311,301,1
307,300,309,301,1
307,300,309,302,1
308,301,310,303,1
308,302,310,304,1
307,304,310,305,1
306,306,310,305,1
305,307,310,304,1
304,307,309,303,1
304,307,309,305,1
305,307,310,306,1
307,307,311,308,1
308,308,311,309,1
308,309,309,306,1
308,310,306,302,1
306,310,303,297,1
304,308,301,293,1
300,305,299,289,1
298,300,298,286,1
296,297,299,285,1
296,295,300,287,1
298,296,302,291,1
301,297,304,296,1
304,299,307,302,1
307,302,308,307,1
309,304,308,310,1
311,304,307,311,1
310,302,306,310,1
308,300,305,309,1
305,299,305,310,1
304,298,306,311,1
303,298,306,312,1
303,298,305,313,1
305,299,305,313,1
307,300,305,312,1
309,301,306,311,1
312,301,306,310,1
313,302,306,309,1
315,301,308,309,1
315,302,309,309,1
315,304,309,311,1
313,305,310,314,1
311,306,310,315,1
308,307,309,317,1
305,307,308,317,1
303,307,307,316,1
301,306,307,315,1
301,307,308,314,1
302,308,308,314,1
304,310,309,314,1
306,312,309,313,1
306,314,309,312,1
306,315,308,309,1
306,316,306,307,1
306,317,305,306,1
305,316,304,305,1
304,313,303,306,1
304,307,302,307,1
304,303,301,308,1
304,300,300,308,1
304,299,299,306,1
304,298,297,302,1
303,297,297,298,1
302,295,296,294,1
300,295,297,292,1
299,296,298,293,1
301,298,300,295,1
303,297,301,297,1
304,294,301,299,1
305,291,300,301,1
306,289,300,303,1
306,289,299,306,1
306,289,300,311,1
305,290,301,315,1
305,292,303,319,1
306,293,305,321,1
308,292,306,321,1
309,291,307,319,1
310,290,307,315,1
309,289,306,309,1
308,288,305,306,1
308,290,306,305,1
308,293,307,307,1
308,297,307,310,1
309,301,308,314,1
311,303,310,317,1
311,304,310,319,1
312,304,310,320,1
312,304,309,319,1
311,303,308,317,1
310,303,306,313,1
309,304,303,309,1
309,305,301,305,1
308,307,299,301,1
307,307,298,297,1
305,304,298,295,1
305,302,300,294,1
304,302,302,296,1
305,303,304,298,1
305,304,305,301,1
306,304,305,303,1
306,302,304,304,1
306,302,304,305,1
307,303,305,306,1
307,306,306,308,1
309,312,308,312,1
310,316,310,314,1
310,317,309,316,1
310,315,308,315,1
308,311,307,315,1
308,308,306,314,1
307,306,306,314,1
307,306,306,314,1
307,308,305,316,1
307,310,305,316,1
308,311,305,317,1
309,312,306,317,1
309,311,307,316,1
309,309,307,316,1
308,308,308,315,1
307,308,308,314,1
307,308,308,313,1
307,308,308,312,1
308,307,307,310,1
309,307,307,309,1
309,307,306,309,1
310,307,305,309,1
310,306,305,310,1
309,304,305,311,1
306,304,305,312,1
303,303,304,312,1
301,303,305,311,1
300,303,304,310,1
299,303,304,309,1
300,304,304,309,1
301,305,305,307,1
302,305,305,305,1
302,306,304,303,1
302,307,303,302,1
302,309,302,302,1
303,310,302,303,1
305,312,302,305,1
306,314,302,307,1
307,316,302,307,1
307,316,303,308,1
307,316,305,307,1
306,313,307,306,1
306,310,308,306,1
306,307,308,309,1
306,306,307,313,1
306,304,306,316,1
304,303,304,317,1
302,300,302,315,1
301,298,300,313,1
301,298,300,309,1
301,299,301,307,1
300,300,303,307,1
300,300,306,307,1
299,301,307,308,1
300,301,308,310,1
302,301,309,311,1
305,301,309,312,1
307,299,308,310,1
308,297,305,305,1
305,296,302,298,1
303,295,300,291,1
300,297,299,286,1
299,300,298,281,1
298,302,299,279,1
298,303,300,280,1
300,305,303,287,1
301,309,306,297,1
304,311,309,306,1
305,311,311,312,1
306,310,312,314,1
307,309,312,314,1
307,311,311,313,1
308,313,310,312,1
309,316,310,312,1
308,319,309,312,1
308,318,308,314,1
307,316,306,316,1
305,310,306,317,1
304,305,305,317,1
304,301,304,317,1
303,297,304,314,1
303,295,303,311,1
304,295,303,309,1
305,296,304,308,1
306,297,303,308,1
306,297,302,306,1
305,297,302,305,1
304,299,302,306,1
304,300,302,307,1
303,301,304,308,1
303,302,304,308,1
303,302,304,309,1
303,302,305,308,1
304,302,306,307,1
304,302,306,306,1
305,302,306,304,1
305,302,306,302,1
304,303,306,299,1
304,304,306,297,1
304,305,307,297,1
305,307,307,296,1
305,308,306,295,1
306,308,305,295,1
307,308,304,295,1
309,308,303,296,1
311,309,302,297,1
311,308,301,297,1
310,308,300,296,1
308,308,300,295,1
304,309,301,295,1
300,310,301,297,1
298,310,302,300,1
295,310,303,304,1
294,308,304,307,1
293,305,305,310,1
294,303,305,310,1
295,302,305,310,1
296,303,305,308,1
298,304,306,307,1
300,307,308,308,1
302,309,311,311,1
303,310,313,315,1
303,311,314,319,1
303,312,313,323,1
303,314,313,326,1
304,317,312,328,1
304,321,311,329,1
305,323,309,328,1
304,322,307,326,1
304,317,306,323,1
303,314,306,319,1
304,311,307,316,1
305,309,307,313,1
306,307,308,311,1
307,305,308,309,1
307,304,308,308,1
309,303,308,308,1
311,303,308,309,1
312,304,308,311,1
312,306,307,313,1
311,309,305,313,1
309,313,304,313,1
307,317,302,311,1
306,318,300,309,1
304,316,298,305,1
304,311,297,303,1
304,307,298,303,1
306,304,299,303,1
306,301,301,305,1
305,299,302,308,1
304,298,304,311,1
305,299,307,312,1
305,300,309,313,1
305,302,310,312,1
305,305,310,311,1
304,307,310,310,1
304,309,309,309,1
304,312,308,308,1
304,314,307,308,1
304,316,306,308,1
304,318,306,309,1
305,318,307,310,1
306,317,307,310,1
306,313,306,307,1
305,309,305,304,1
304,304,305,302,1
303,301,306,300,1
303,298,308,300,1
303,295,310,301,1
304,292,311,301,1
305,291,312,302,1
307,293,313,305,1
309,294,312,306,1
309,295,311,306,1
309,296,309,305,1
309,297,307,305,1
309,298,305,306,1
309,301,303,307,1
309,304,301,307,1
308,304,299,306,1
306,304,298,304,1
305,304,299,303,1
305,304,302,302,1
304,304,304,301,1
303,303,307,302,1
302,303,310,303,1
302,302,312,304,1
302,301,313,304,1
303,300,312,304,1
303,300,312,303,1
304,300,311,302,1
306,301,311,300,1
308,304,312,298,1
309,307,313,299,1
309,308,313,302,1
308,309,313,306,1
305,309,312,310,1
303,308,310,313,1
301,308,308,313,1
301,310,307,314,1
302,314,306,316,1
303,316,306,317,1
304,315,305,317,1
304,312,304,316,1
303,308,305,315,1
303,306,307,316,1
304,306,309,318,1
305,308,310,320,1
307,309,311,321,1
308,310,311,320,1
307,310,310,319,1
306,309,307,318,1
305,310,306,318,1
304,311,305,318,1
306,313,305,318,1
308,315,305,317,1
309,315,305,316,1
310,316,307,316,1
309,317,309,315,1
309,317,310,315,1
308,316,311,314,1
308,315,312,314,1
307,314,312,312,1
304,312,313,310,1
302,309,312,307,1
300,306,312,305,1
300,303,312,304,1
301,302,312,303,1
301,302,311,304,1
302,302,310,306,1
303,303,308,309,1
303,305,306,309,1
302,306,303,309,1
300,307,301,308,1
299,307,299,307,1
298,306,300,306,1
298,306,302,305,1
299,306,305,305,1
301,308,310,306,1
303,311,314,308,1
304,314,318,310,1
305,318,319,310,1
306,320,318,308,1
306,318,316,305,1
306,313,313,301,1
305,308,310,298,1
305,304,307,295,1
304,303,306,294,1
305,303,305,295,1
307,306,305,297,1
310,310,307,299,1
312,311,309,302,1
314,310,311,304,1
315,309,311,307,1
315,309,312,309,1
316,309,312,310,1
317,311,312,311,1
318,313,312,310,1
317,314,311,309,1
313,314,310,305,1
310,310,309,301,1
307,306,307,298,1
305,303,306,298,1
305,301,307,301,1
307,298,308,303,1
309,296,310,305,1
310,294,311,305,1
309,292,311,304,1
307,292,311,303,1
305,292,310,302,1
305,294,308,300,1
305,296,307,299,1
305,297,305,298,1
305,300,305,299,1
306,303,306,301,1
306,308,307,304,1
307,312,309,306,1
309,317,311,307,1
310,319,312,306,1
309,317,312,303,1
307,314,311,301,1
306,311,309,298,1
305,310,308,296,1
304,310,308,295,1
304,312,308,295,1
305,313,309,296,1
305,315,310,296,1
305,315,310,297,1
306,314,310,299,1
307,313,310,301,1
308,311,311,303,1
309,308,311,306,1
309,304,312,308,1
309,301,313,311,1
309,297,314,314,1
309,294,315,316,1
310,292,315,318,1
311,292,316,319,1
311,293,315,318,1
310,293,314,316,1
309,295,313,312,1
309,297,312,310,1
308,299,313,307,1
307,300,313,304,1
306,301,313,300,1
306,302,311,297,1
305,303,310,294,1
305,305,308,293,1
306,306,306,294,1
307,307,306,296,1
308,307,306,300,1
308,306,306,305,1
309,304,307,308,1
309,304,307,310,1
309,303,307,312,1
308,303,306,313,1
306,303,305,315,1
305,304,304,316,1
305,304,305,315,1
305,304,306,315,1
305,304,307,315,1
305,305,308,315,1
305,306,310,315,1
306,309,311,315,1
307,314,311,316,1
309,318,311,316,1
310,322,312,316,1
311,324,312,314,1
311,322,311,311,1
311,317,309,307,1
310,312,308,304,1
309,309,306,302,1
308,307,305,302,1
306,304,303,303,1
305,301,301,303,1
305,299,299,302,1
304,297,297,301,1
304,297,296,299,1
304,297,296,298,1
304,298,300,297,1
304,300,306,298,1
305,303,311,300,1
305,305,314,302,1
305,306,314,303,1
305,306,313,304,1
304,306,312,305,1
304,305,311,305,1
304,303,311,305,1
304,301,310,305,1
305,299,310,305,1
305,300,310,304,1
305,301,309,304,1
305,305,308,304,1
306,308,307,304,1
307,312,307,305,1
308,314,306,305,1
307,315,306,305,1
307,312,306,304,1
307,309,306,304,1
306,306,306,303,1
305,303,305,302,1
305,301,305,301,1
305,301,305,301,1
306,301,305,301,1
307,303,304,302,1
308,305,304,304,1
308,309,303,305,1
308,312,303,305,1
307,314,303,305,1
307,314,303,304,1
306,314,303,301,1
305,312,301,297,1
303,308,300,291,1
301,303,298,286,1
300,300,297,283,1
300,301,297,283,1
301,302,298,284,1
301,303,299,285,1
300,301,299,284,1
301,299,300,287,1
303,301,301,292,1
305,304,303,299,1
308,309,306,306,1
312,314,309,312,1
315,317,312,317,1
318,319,314,321,1
320,320,316,323,1
320,320,317,324,1
319,318,316,324,1
315,316,314,323,1
311,314,312,321,1
306,312,310,320,1
303,310,308,318,1
301,309,307,317,1
300,308,306,315,1
299,308,305,313,1
299,307,304,310,1
300,306,301,308,1
300,306,298,306,1
299,307,296,304,1
298,307,295,301,1
297,308,294,299,1
298,310,295,298,1
300,314,297,298,1
303,319,300,300,1
306,323,302,302,1
308,329,304,305,1
310,333,306,309,1
311,336,308,313,1
312,336,309,317,1
312,335,310,318,1
311,332,310,318,1
310,330,309,317,1
309,326,308,316,1
309,322,307,315,1
308,317,307,312,1
307,309,305,308,1
307,299,305,304,1
307,292,304,301,1
308,287,304,299,1
308,285,304,299,1
306,285,304,299,1
305,287,305,300,1
303,291,306,302,1
302,296,307,304,1
300,300,306,305,1
299,302,305,304,1
298,301,302,303,1
298,300,301,302,1
298,299,299,301,1
299,298,298,300,1
301,297,297,300,1
303,297,297,302,1
304,298,300,303,1
305,299,302,303,1
305,300,304,303,1
306,300,305,304,1
308,301,306,306,1
309,302,307,307,1
309,303,307,307,1
309,305,308,305,1
308,307,307,304,1
307,309,306,301,1
307,312,306,299,1
306,313,305,298,1
305,311,305,298,1
304,310,305,301,1
304,311,307,305,1
305,313,308,308,1
306,316,309,311,1
308,319,309,312,1
309,320,309,312,1
310,320,308,310,1
310,319,307,307,1
310,317,305,303,1
308,314,304,298,1
307,311,304,294,1
307,309,304,293,1
306,308,305,294,1
304,308,306,298,1
303,309,308,304,1
303,310,309,309,1
302,311,308,314,1
301,310,306,316,1
299,308,304,319,1
298,308,304,320,1
298,308,305,321,1
299,309,306,322,1
302,311,308,324,1
306,314,309,324,1
309,316,309,323,1
311,318,308,321,1
313,318,306,318,1
313,317,305,315,1
313,316,304,313,1
312,314,304,312,1
310,313,305,311,1
308,312,308,310,1
307,311,309,310,1
306,310,310,309,1
305,308,310,308,1
304,307,310,307,1
303,306,309,306,1
303,305,306,305,1
303,305,304,304,1
303,304,303,303,1
304,304,303,301,1
305,305,303,300,1
306,306,303,299,1
307,307,304,299,1
307,307,305,298,1
308,306,305,299,1
308,304,306,300,1
308,303,306,301,1
308,303,307,304,1
309,305,308,307,1
310,307,309,309,1
311,310,310,311,1
312,314,311,313,1
312,318,312,315,1
312,320,312,316,1
312,320,312,317,1
313,317,313,316,1
314,313,312,315,1
313,311,311,312,1
313,310,309,308,1
311,312,307,304,1
310,313,306,300,1
307,314,304,298,1
305,313,303,296,1
303,311,303,297,1
302,309,304,300,1
302,307,305,303,1
301,305,306,305,1
301,304,306,305,1
302,303,307,305,1
303,302,307,304,1
304,299,306,301,1
303,296,305,298,1
303,293,304,297,1
304,291,304,296,1
304,292,304,295,1
305,294,304,295,1
305,296,304,295,1
305,297,304,295,1
306,298,304,296,1
306,298,305,295,1
306,297,305,295,1
306,298,306,295,1
305,298,306,294,1
303,297,305,293,1
301,294,305,291,1
300,293,305,291,1
301,296,306,296,1
304,300,308,303,1
306,304,310,312,1
309,309,312,320,1
311,313,313,326,1
312,315,313,330,1
314,316,312,330,1
314,314,311,328,1
312,312,310,325,1
309,309,309,322,1
305,308,309,319,1
302,307,309,317,1
302,307,309,314,1
302,307,309,312,1
303,307,309,310,1
304,307,308,308,1
303,307,308,306,1
302,306,307,304,1
301,304,306,304,1
300,303,305,304,1
301,302,306,305,1
302,303,307,305,1
303,304,306,306,1
304,305,305,307,1
304,306,304,309,1
304,308,302,310,1
303,309,300,311,1
303,311,298,312,1
304,311,298,313,1
305,309,299,313,1
307,306,301,312,1
309,304,304,312,1
310,304,307,312,1
311,304,310,313,1
312,305,311,313,1
312,305,312,312,1
312,302,311,310,1
311,299,311,307,1
311,297,310,306,1
312,296,309,305,1
313,296,308,304,1
313,296,307,303,1
313,297,305,302,1
313,300,305,302,1
312,304,307,302,1
312,308,309,303,1
311,312,310,303,1
311,315,311,304,1
311,318,312,305,1
312,321,312,306,1
313,321,311,306,1
313,317,310,305,1
313,310,309,303,1
312,304,308,300,1
311,300,307,298,1
309,297,307,296,1
307,294,306,294,1
303,290,305,292,1
300,289,304,291,1
299,289,305,291,1
299,290,305,293,1
300,293,306,298,1
303,295,307,303,1
306,298,308,308,1
309,301,308,310,1
312,304,307,311,1
313,306,307,312,1
314,309,306,314,1
314,312,305,315,1
314,315,305,316,1
313,318,305,316,1
312,318,305,316,1
310,315,306,314,1
308,310,306,311,1
306,302,305,307,1
304,296,303,301,1
304,292,301,295,1
303,290,300,289,1
303,292,299,285,1
303,296,299,284,1
303,300,299,286,1
304,303,299,290,1
304,306,299,298,1
305,305,298,305,1
305,303,298,310,1
304,300,297,313,1
302,298,296,314,1
301,297,297,315,1
300,298,300,315,1
301,300,304,316,1
302,302,307,317,1
304,303,310,318,1
304,304,311,317,1
304,304,311,316,1
305,302,310,313,1
305,300,309,310,1
306,300,308,307,1
307,301,307,307,1
308,303,307,308,1
309,304,307,310,1
309,307,308,311,1
308,308,308,311,1
306,308,308,312,1
304,307,306,311,1
301,305,304,309,1
299,302,302,306,1
298,300,300,304,1
298,298,298,302,1
298,298,297,301,1
299,297,296,301,1
298,297,296,300,1
298,297,297,300,1
299,298,299,301,1
300,302,302,304,1
302,304,305,308,1
304,307,307,309,1
303,308,307,309,1
302,308,306,305,1
300,307,304,300,1
298,306,302,294,1
298,305,299,288,1
297,304,298,284,1
299,303,298,282,1
302,303,301,283,1
305,305,304,288,1
307,307,307,296,1
307,308,310,303,1
306,310,313,308,1
306,313,316,313,1
306,316,317,317,1
306,320,319,319,1
306,323,319,320,1
306,325,318,319,1
306,326,316,317,1
306,326,314,314,1
306,327,312,312,1
306,327,311,310,1
306,326,311,310,1
305,325,311,309,1
302,323,310,308,1
299,321,309,308,1
298,319,309,308,1
298,314,309,307,1
299,306,309,306,1
300,298,308,305,1
302,293,308,304,1
305,290,308,303,1
307,291,309,302,1
308,293,309,302,1
310,296,310,302,1
309,298,310,301,1
307,299,309,300,1
305,300,308,298,1
303,300,306,295,1
301,300,304,293,1
299,299,302,292,1
297,300,300,291,1
297,303,298,292,1
298,307,299,295,1
300,312,299,299,1
301,314,299,303,1
302,312,299,305,1
302,307,300,306,1
302,301,303,306,1
302,298,306,305,1
303,297,309,305,1
304,298,310,304,1
304,298,311,304,1
305,298,312,305,1
305,298,312,307,1
307,299,313,309,1
308,301,313,311,1
310,304,312,311,1
311,305,311,310,1
310,307,310,309,1
310,308,309,309,1
309,309,308,309,1
308,308,307,310,1
308,306,306,311,1
307,306,306,312,1
307,306,306,314,1
307,307,305,315,1
307,307,305,316,1
307,306,305,316,1
307,306,305,315,1
307,308,305,314,1
306,311,305,312,1
306,315,305,309,1
307,319,305,305,1
307,320,305,300,1
307,316,304,296,1
306,311,303,293,1
305,307,301,293,1
304,305,301,294,1
304,304,302,297,1
306,306,305,302,1
307,310,307,307,1
309,313,308,312,1
309,314,309,313,1
308,313,309,311,1
306,312,308,308,1
304,311,307,306,1
303,311,307,304,1
302,310,307,303,1
302,310,306,304,1
303,309,306,305,1
304,309,306,306,1
305,310,306,307,1
307,310,306,307,1
308,309,305,307,1
307,308,305,308,1
307,309,305,310,1
306,310,306,312,1
305,311,305,313,1
304,313,304,313,1
302,313,302,312,1
301,313,301,311,1
301,311,299,310,1
303,310,299,308,1
304,309,299,307,1
306,309,300,307,1
308,309,301,308,1
310,310,303,309,1
312,310,304,310,1
314,311,304,310,1
315,312,304,309,1
316,314,304,308,1
317,318,303,305,1
318,323,302,303,1
317,327,302,300,1
314,329,301,297,1
311,329,300,294,1
306,328,299,292,1
302,323,298,291,1
298,314,297,289,1
295,305,296,290,1
294,299,297,293,1
295,296,299,298,1
296,296,301,302,1
297,297,301,305,1
297,297,300,309,1
297,296,298,311,1
296,295,297,312,1
295,293,296,311,1
295,291,296,310,1
296,289,299,308,1
298,289,303,306,1
299,291,306,305,1
300,292,307,303,1
300,293,308,303,1
300,295,309,306,1
301,298,310,309,1
302,300,310,312,1
303,303,309,313,1
303,305,308,314,1
304,306,307,314,1
304,307,306,315,1
304,307,305,315,1
305,308,304,316,1
305,307,303,315,1
306,306,302,313,1
307,305,302,312,1
307,305,303,310,1
307,304,304,309,1
306,304,304,306,1
306,305,304,304,1
305,306,304,302,1
305,307,305,300,1
305,308,304,299,1
305,308,303,298,1
304,306,302,297,1
303,305,301,296,1
302,305,301,298,1
303,305,302,301,1
305,309,304,305,1
308,314,306,308,1
311,319,308,311,1
312,323,308,315,1
311,323,307,318,1
309,320,305,319,1
306,315,303,319,1
303,310,302,317,1
302,306,302,315,1
302,305,304,313,1
303,307,308,313,1
306,309,310,314,1
307,311,312,316,1
308,313,312,318,1
309,314,312,319,1
309,314,311,320,1
309,313,310,319,1
309,311,308,318,1
308,309,306,316,1
306,308,304,314,1
305,308,302,313,1
305,308,302,312,1
305,308,301,310,1
305,309,300,308,1
305,310,299,305,1
304,311,298,303,1
303,312,297,299,1
301,313,296,296,1
299,313,296,294,1
298,311,298,294,1
300,311,300,295,1
302,310,302,298,1
303,308,303,300,1
305,306,303,302,1
307,304,304,306,1
310,303,305,310,1
312,305,306,313,1
313,306,306,315,1
311,308,306,315,1
310,310,305,315,1
308,313,305,314,1
305,315,305,313,1
301,316,304,312,1
298,316,303,309,1
297,316,303,307,1
297,316,304,304,1
297,317,304,302,1
297,317,304,301,1
298,318,304,302,1
299,319,304,304,1
300,318,305,307,1
301,315,305,309,1
302,312,305,311,1
304,310,306,312,1
305,307,307,313,1
306,305,309,313,1
307,303,311,312,1
307,300,312,311,1
307,298,312,309,1
307,296,313,308,1
307,295,313,307,1
306,296,314,307,1
306,297,315,309,1
307,299,316,311,1
308,301,316,313,1
308,303,314,313,1
307,304,313,312,1
305,305,311,310,1
304,306,310,309,1
304,308,311,307,1
304,308,311,306,1
305,309,312,305,1
305,310,312,304,1
306,312,312,303,1
307,314,312,303,1
307,316,312,302,1
307,316,312,300,1
306,315,311,299,1
304,313,310,296,1
303,311,308,292,1
303,308,307,290,1
303,306,306,288,1
304,304,307,288,1
306,302,308,288,1
307,302,309,289,1
309,303,310,291,1
311,304,312,294,1
311,306,313,297,1
310,308,314,301,1
308,310,315,305,1
307,312,314,309,1
305,314,313,312,1
305,315,312,313,1
304,314,312,313,1
305,312,311,312,1
305,309,310,310,1
307,308,309,306,1
308,307,307,302,1
307,307,305,298,1
305,308,303,295,1
304,309,302,293,1
303,309,302,292,1
304,306,303,294,1
304,302,306,298,1
305,301,309,303,1
307,301,312,309,1
308,302,315,313,1
309,303,316,314,1
310,304,317,313,1
310,305,317,312,1
312,306,317,311,1
313,307,318,311,1
314,310,318,311,1
315,314,318,311,1
315,317,318,312,1
315,318,317,312,1
315,317,317,312,1
315,314,316,312,1
314,312,315,311,1
313,310,314,309,1
312,310,314,307,1
311,310,313,305,1
310,308,312,302,1
308,307,311,299,1
307,305,310,297,1
305,304,310,295,1
305,302,310,294,1
304,300,309,293,1
303,299,308,292,1
302,299,306,291,1
302,302,305,291,1
302,305,305,290,1
303,307,305,290,1
304,308,304,290,1
305,309,304,291,1
304,309,304,291,1
304,310,304,291,1
304,312,305,294,1
304,315,306,295,1
304,316,306,297,1
305,317,306,298,1
305,317,305,297,1
305,317,304,296,1
306,318,302,297,1
307,318,301,298,1
307,316,300,300,1
307,313,299,303,1
307,310,300,305,1
309,305,303,307,1
311,302,307,309,1
313,301,310,313,1
314,301,314,316,1
314,300,317,318,1
313,299,319,320,1
312,298,320,321,1
309,296,320,321,1
307,296,318,320,1
304,297,316,320,1
303,300,314,319,1
303,302,312,319,1
302,304,310,318,1
301,304,308,316,1
301,303,308,316,1
302,301,308,315,1
303,298,308,314,1
303,296,308,313,1
304,295,307,311,1
305,295,307,310,1
307,296,307,309,1
309,297,308,308,1
310,298,308,306,1
310,299,308,304,1
310,301,309,303,1
309,303,309,302,1
309,306,308,299,1
309,308,307,297,1
308,311,306,296,1
307,314,305,296,1
307,315,304,296,1
306,314,302,296,1
305,312,301,295,1
303,309,301,295,1
302,307,301,296,1
302,306,303,298,1
303,305,305,300,1
304,305,307,301,1
304,304,308,302,1
305,303,309,303,1
305,303,310,304,1
306,303,312,306,1
307,304,314,309,1
307,304,315,312,1
307,305,315,315,1
307,306,315,317,1
307,306,315,319,1
307,306,315,319,1
307,307,315,318,1
306,307,313,316,1
306,307,312,314,1
306,306,311,312,1
307,307,311,311,1
309,308,311,311,1
311,307,310,310,1
312,306,309,309,1
314,306,308,307,1
314,309,308,307,1
314,312,308,308,1
313,315,309,310,1
311,317,308,310,1
308,316,307,310,1
305,313,305,309,1
303,309,304,308,1
301,307,303,307,1
300,305,302,305,1
299,303,303,304,1
298,302,304,302,1
298,301,304,299,1
298,300,304,294,1
298,300,303,290,1
298,300,303,284,1
299,300,303,280,1
301,300,303,275,1
303,299,303,273,1
305,299,304,274,1
308,301,305,280,1
311,306,308,289,1
313,310,310,298,1
311,314,311,305,1
309,318,312,313,1
308,323,313,321,1
308,326,314,326,1
308,329,315,329,1
307,333,316,331,1
307,336,317,332,1
307,338,317,332,1
306,337,316,330,1
305,334,315,328,1
303,326,313,324,1
302,318,312,321,1
300,311,312,320,1
300,307,311,318,1
300,303,310,318,1
301,300,309,316,1
302,297,308,315,1
301,293,307,314,1
301,291,307,314,1
300,289,308,315,1
301,289,310,315,1
300,291,311,315,1
301,293,312,313,1
302,295,312,310,1
303,297,313,307,1
306,300,313,305,1
308,303,314,303,1
310,305,315,303,1
312,305,314,302,1
312,306,313,303,1
311,306,312,303,1
309,306,310,301,1
307,306,307,301,1
306,306,307,302,1
306,306,308,306,1
308,307,309,311,1
309,307,310,315,1
309,305,311,317,1
308,304,311,317,1
307,302,311,317,1
305,300,311,315,1
305,300,310,313,1
304,300,310,310,1
303,301,309,308,1
303,302,308,308,1
302,301,307,307,1
301,299,307,306,1
301,298,306,306,1
300,297,305,305,1
300,296,304,303,1
299,296,304,303,1
299,297,302,302,1
300,297,301,302,1
300,298,301,301,1
302,298,302,301,1
303,299,302,301,1
304,300,302,300,1
304,300,303,298,1
304,299,305,295,1
303,298,307,292,1
302,297,308,290,1
303,296,309,288,1
303,296,310,287,1
304,296,310,290,1
306,298,311,296,1
308,299,312,303,1
310,300,313,311,1
311,300,311,316,1
310,300,310,318,1
308,301,308,318,1
308,302,307,317,1
307,303,306,316,1
306,306,305,314,1
306,308,306,313,1
305,309,305,310,1
304,308,304,307,1
304,307,303,303,1
303,307,303,301,1
303,307,303,298,1
303,305,303,297,1
303,303,304,297,1
303,300,305,297,1
304,300,307,300,1
306,302,309,305,1
308,305,310,311,1
309,308,310,315,1
309,309,310,317,1
308,307,309,317,1
307,305,308,317,1
306,304,307,316,1
306,302,306,314,1
305,301,307,313,1
306,301,306,312,1
306,301,307,312,1
307,300,307,312,1
306,298,306,311,1
304,297,306,308,1
303,296,305,306,1
303,298,304,305,1
303,302,304,306,1
303,307,305,307,1
304,312,305,308,1
303,314,305,308,1
302,313,303,308,1
301,313,303,309,1
300,313,304,311,1
301,314,305,314,1
303,314,308,316,1
304,314,309,317,1
305,313,310,318,1
307,310,310,317,1
309,306,309,313,1
309,303,307,309,1
308,300,305,304,1
306,298,302,299,1
305,299,302,294,1
304,300,301,291,1
304,300,301,290,1
304,301,301,290,1
305,302,302,293,1
306,303,304,296,1
308,303,305,299,1
308,303,307,302,1
309,303,307,306,1
310,304,305,309,1
309,304,303,311,1
309,304,302,312,1
309,305,301,314,1
310,309,303,318,1
311,311,305,321,1
311,313,308,324,1
310,312,309,326,1
308,310,309,325,1
305,305,306,320,1
302,302,304,314,1
300,299,301,307,1
299,297,299,302,1
299,296,298,297,1
300,295,297,293,1
302,296,297,292,1
303,298,298,295,1
304,302,298,299,1
304,302,299,303,1
304,301,300,306,1
304,299,302,307,1
304,298,303,306,1
306,299,305,306,1
308,301,305,307,1
309,303,304,307,1
310,305,303,306,1
309,308,302,306,1
309,310,301,307,1
309,310,302,308,1
308,309,303,308,1
307,306,305,307,1
306,305,305,304,1
306,302,305,303,1
305,302,305,301,1
306,301,305,301,1
307,301,307,302,1
308,300,308,303,1
308,299,309,304,1
309,300,309,306,1
310,300,309,308,1
310,302,309,308,1
310,303,309,307,1
310,304,308,304,1
309,305,307,300,1
307,307,306,296,1
305,308,305,293,1
303,308,304,291,1
302,308,303,290,1
303,307,304,291,1
304,309,305,294,1
306,310,306,297,1
307,310,307,299,1
308,308,307,299,1
308,308,308,301,1
307,308,309,303,1
307,308,309,306,1
305,307,310,307,1
304,306,309,308,1
303,307,308,310,1
303,309,308,314,1
303,311,308,316,1
302,311,308,317,1
302,310,308,315,1
301,309,308,312,1
299,308,309,309,1
299,306,310,308,1
298,305,310,308,1
298,303,309,310,1
298,302,308,313,1
297,302,307,316,1
296,302,307,319,1
297,303,308,322,1
298,304,310,323,1
299,304,311,322,1
300,306,311,320,1
302,307,312,318,1
303,309,312,316,1
305,312,312,313,1
308,315,311,311,1
311,319,311,308,1
313,324,311,306,1
314,327,310,307,1
314,327,310,308,1
312,322,309,310,1
308,314,306,309,1
305,305,304,308,1
302,300,304,306,1
300,297,304,304,1
299,298,304,302,1
298,300,304,300,1
299,303,304,300,1
301,304,303,301,1
303,306,303,304,1
305,307,303,308,1
306,306,302,311,1
307,305,301,313,1
307,303,300,313,1
306,302,300,312,1
306,300,301,311,1
308,300,303,311,1
310,302,306,312,1
313,304,310,312,1
314,305,312,312,1
315,305,312,311,1
313,305,312,310,1
310,305,311,310,1
307,304,310,310,1
305,303,309,310,1
303,302,308,310,1
303,304,307,309,1
303,307,305,307,1
304,311,305,305,1
304,312,304,304,1
304,311,303,303,1
304,307,303,302,1
304,304,303,302,1
306,302,303,299,1
307,302,302,297,1
307,302,302,293,1
308,302,302,291,1
310,303,305,290,1
313,306,308,291,1
315,309,312,294,1
315,310,315,296,1
315,310,317,297,1
314,308,318,298,1
311,306,316,297,1
308,304,310,296,1
306,300,304,295,1
305,296,301,297,1
305,294,302,300,1
306,294,304,304,1
307,296,307,307,1
309,297,310,309,1
309,297,310,309,1
310,297,309,307,1
310,297,308,306,1
311,298,306,305,1
313,300,303,304,1
315,302,303,305,1
317,304,303,306,1
318,306,305,308,1
317,308,307,311,1
317,308,309,313,1
316,306,311,315,1
315,305,312,318,1
315,305,313,321,1
314,306,314,323,1
314,307,314,324,1
314,308,313,325,1
313,309,312,325,1
313,310,311,323,1
312,310,310,319,1
311,309,308,315,1
309,307,306,310,1
308,305,304,305,1
307,305,303,300,1
306,305,303,298,1
306,307,303,298,1
305,309,305,299,1
305,311,306,303,1
305,311,309,307,1
304,309,310,311,1
304,307,311,314,1
303,306,312,314,1
303,307,311,313,1
304,307,311,312,1
304,308,309,311,1
304,309,308,310,1
304,308,307,310,1
305,307,306,312,1
306,305,305,314,1
307,304,305,315,1
305,302,305,316,1
305,300,306,316,1
306,300,307,315,1
308,302,310,314,1
309,305,312,313,1
310,305,314,312,1
310,304,315,311,1
309,300,313,309,1
308,296,311,308,1
308,294,309,309,1
307,292,308,308,1
307,290,307,306,1
306,288,305,304,1
304,286,303,302,1
302,286,302,301,1
302,288,301,303,1
303,292,302,306,1
304,298,303,311,1
304,302,303,316,1
304,305,305,321,1
303,306,306,326,1
304,305,307,328,1
305,304,308,327,1
306,304,309,324,1
307,302,308,321,1
306,300,306,317,1
306,298,304,313,1
305,296,302,310,1
304,296,300,307,1
304,296,299,305,1
304,297,299,302,1
304,297,299,300,1
303,298,299,298,1
302,298,300,297,1
302,301,301,297,1
302,306,300,297,1
301,312,297,296,1
300,317,293,296,1
298,320,289,297,1
297,322,288,298,1
298,323,288,300,1
299,324,292,303,1
301,323,297,306,1
303,322,303,307,1
306,320,309,308,1
309,318,314,308,1
310,315,316,308,1
311,310,316,308,1
310,306,314,309,1
308,303,311,309,1
306,299,307,309,1
304,295,305,308,1
303,292,304,306,1
302,290,304,303,1
301,289,304,300,1
299,290,304,297,1
299,292,303,296,1
300,293,304,295,1
300,293,305,297,1
301,293,307,302,1
302,295,309,309,1
304,298,312,316,1
306,302,314,321,1
308,306,316,325,1
310,310,317,327,1
312,312,317,327,1
311,310,317,324,1
310,307,315,320,1
307,305,313,316,1
305,304,311,313,1
305,304,309,312,1
305,304,308,311,1
305,305,307,312,1
306,305,306,312,1
306,305,306,313,1
306,304,306,314,1
306,304,305,316,1
305,303,305,317,1
305,302,305,318,1
305,302,304,318,1
306,302,302,318,1
306,303,301,317,1
306,301,301,317,1
306,300,302,317,1
306,299,306,316,1
306,299,309,315,1
306,298,312,314,1
306,298,314,312,1
305,298,313,310,1
304,298,312,309,1
302,300,310,307,1
302,303,309,306,1
302,305,309,304,1
303,306,309,303,1
304,305,310,304,1
305,305,312,306,1
306,304,313,307,1
306,303,313,306,1
304,301,311,302,1
302,299,308,297,1
300,298,305,291,1
299,297,302,284,1
299,296,302,279,1
302,296,303,279,1
305,298,306,284,1
310,303,310,295,1
315,309,313,306,1
318,314,314,315,1
319,319,314,321,1
319,322,315,325,1
318,325,315,328,1
316,326,314,329,1
313,323,312,328,1
311,319,310,326,1
308,316,309,324,1
307,315,308,321,1
308,316,308,319,1
308,316,308,316,1
307,315,307,311,1
305,311,306,307,1
303,306,306,304,1
301,301,307,303,1
299,298,308,304,1
300,297,309,306,1
302,298,310,307,1
304,299,311,307,1
305,299,311,306,1
306,300,310,305,1
307,300,311,306,1
307,301,311,307,1
306,301,311,308,1
305,301,312,309,1
304,302,312,311,1
304,305,312,313,1
305,308,312,315,1
306,311,311,316,1
308,310,310,315,1
309,307,309,312,1
310,304,308,310,1
311,302,307,307,1
310,300,307,305,1
308,300,306,303,1
305,300,305,301,1
302,301,304,301,1
300,302,304,303,1
299,304,303,306,1
298,305,302,309,1
298,306,302,312,1
299,307,303,314,1
301,308,304,316,1
302,308,305,316,1
303,308,306,315,1
303,308,307,315,1
304,308,306,313,1
305,309,306,313,1
307,310,305,313,1
308,312,304,312,1
310,313,304,311,1
312,315,303,310,1
313,317,304,309,1
313,319,304,308,1
311,321,304,308,1
310,322,304,307,1
308,323,303,307,1
306,322,303,307,1
305,320,304,307,1
303,318,307,306,1
303,314,308,305,1
303,309,310,304,1
304,304,311,303,1
305,300,311,302,1
306,295,310,300,1
307,290,309,297,1
307,287,308,294,1
307,287,308,294,1
307,290,308,296,1
308,296,309,301,1
310,303,310,307,1
312,310,311,314,1
313,314,312,319,1
313,314,312,321,1
312,312,311,319,1
310,309,309,315,1
309,307,306,311,1
307,305,305,307,1
306,304,303,303,1
306,304,302,300,1
306,304,300,300,1
307,305,300,302,1
308,308,301,304,1
308,311,303,306,1
307,312,304,306,1
306,314,304,305,1
305,314,304,304,1
306,313,305,304,1
307,312,308,306,1
309,312,312,309,1
310,312,313,311,1
309,313,313,311,1
308,313,311,309,1
306,312,309,307,1
305,309,307,304,1
304,306,305,300,1
303,304,303,297,1
302,305,302,295,1
302,307,301,293,1
302,311,301,293,1
303,316,302,295,1
304,320,303,298,1
304,320,304,303,1
304,316,305,306,1
305,312,306,309,1
304,308,306,310,1
304,305,307,311,1
304,304,308,310,1
305,304,309,309,1
307,305,310,309,1
307,305,309,309,1
305,306,309,309,1
303,307,308,309,1
303,308,308,310,1
303,310,307,311,1
304,312,307,312,1
305,314,307,313,1
305,315,307,313,1
304,315,306,311,1
302,316,305,309,1
300,316,304,308,1
299,318,304,308,1
300,319,304,307,1
300,318,304,306,1
301,315,303,305,1
302,311,303,304,1
303,308,302,304,1
302,306,302,304,1
300,304,301,304,1
298,303,301,304,1
297,302,302,303,1
297,303,304,304,1
297,304,305,304,1
298,306,306,304,1
300,308,305,305,1
301,310,303,303,1
301,311,302,302,1
302,311,301,301,1
303,311,301,300,1
305,311,301,300,1
306,311,302,299,1
306,312,302,300,1
308,314,302,302,1
309,316,302,304,1
310,318,302,308,1
310,319,304,312,1
310,318,306,316,1
310,316,308,319,1
310,314,310,320,1
310,312,309,322,1
310,311,308,321,1
310,312,307,321,1
310,313,307,320,1
311,314,306,319,1
310,313,305,317,1
309,313,304,315,1
306,313,304,314,1
305,315,304,316,1
305,319,304,318,1
305,323,304,319,1
305,327,304,321,1
305,331,305,322,1
307,332,307,324,1
308,330,308,325,1
308,324,308,323,1
307,316,306,322,1
305,309,305,320,1
304,304,305,320,1
304,301,306,319,1
304,300,306,319,1
304,298,305,317,1
303,298,304,316,1
302,299,303,314,1
303,300,303,313,1
304,302,303,312,1
305,302,303,311,1
306,300,303,310,1
305,298,304,308,1
306,297,304,306,1
306,297,305,305,1
307,298,304,304,1
307,298,303,303,1
307,298,302,302,1
307,296,301,302,1
308,296,301,304,1
309,298,303,307,1
311,302,305,310,1
313,304,307,310,1
314,307,309,309,1
313,310,310,309,1
312,312,311,310,1
312,314,311,311,1
312,314,311,311,1
313,311,311,310,1
313,307,309,309,1
311,304,306,309,1
310,303,304,308,1
309,304,302,308,1
308,305,302,307,1
306,306,303,308,1
305,308,305,310,1
304,311,307,311,1
303,312,307,311,1
303,312,307,310,1
304,310,306,307,1
305,309,305,303,1
307,307,304,298,1
308,304,302,294,1
307,301,301,292,1
306,299,300,293,1
306,302,301,297,1
308,304,302,301,1
309,306,303,303,1
310,309,304,305,1
311,312,306,306,1
312,314,308,307,1
312,315,309,308,1
312,314,309,309,1
312,313,309,309,1
312,312,307,309,1
311,311,306,308,1
312,312,303,308,1
313,311,302,308,1
313,312,302,308,1
315,313,304,309,1
315,314,306,310,1
313,313,308,310,1
312,312,309,312,1
311,310,310,312,1
310,309,309,313,1
310,309,309,313,1
310,308,309,313,1
309,308,308,311,1
308,307,308,309,1
307,307,308,306,1
306,305,307,304,1
305,304,307,303,1
306,304,307,303,1
308,303,307,302,1
310,302,307,302,1
310,302,306,303,1
310,302,305,305,1
311,302,305,308,1
312,302,306,311,1
312,303,306,314,1
312,304,307,318,1
312,307,309,321,1
311,309,309,323,1
310,312,307,321,1
309,313,305,317,1
308,312,304,312,1
307,310,304,308,1
306,307,305,305,1
306,305,306,304,1
308,304,308,303,1
312,305,310,304,1
314,307,310,304,1
315,309,310,304,1
314,310,309,303,1
311,311,307,303,1
308,312,304,303,1
304,312,301,303,1
301,311,300,303,1
301,310,300,305,1
301,308,300,305,1
301,304,300,304,1
301,300,300,301,1
302,296,300,298,1
303,293,299,295,1
305,289,298,292,1
305,285,296,290,1
305,283,296,290,1
306,284,298,293,1
307,287,300,297,1
309,291,303,301,1
310,295,307,305,1
312,298,309,307,1
313,301,311,309,1
313,302,312,308,1
311,301,313,308,1
310,300,313,306,1
309,298,313,306,1
307,299,313,307,1
306,301,313,308,1
305,302,312,309,1
305,303,311,308,1
305,304,310,306,1
306,305,308,302,1
306,305,306,298,1
306,305,305,295,1
307,307,304,296,1
308,310,305,300,1
309,310,305,304,1
308,307,306,307,1
306,303,306,309,1
305,300,307,312,1
305,299,307,314,1
305,299,307,315,1
305,299,307,314,1
305,299,306,312,1
305,298,306,307,1
306,299,304,302,1
305,301,302,299,1
306,305,302,298,1
306,310,303,301,1
308,312,305,304,1
309,310,306,307,1
309,306,307,312,1
310,303,308,315,1
310,302,309,318,1
310,302,307,318,1
308,302,305,317,1
307,304,303,313,1
306,305,301,310,1
306,306,301,308,1
306,305,300,308,1
306,304,301,307,1
306,302,302,307,1
306,301,303,308,1
307,301,304,309,1
307,302,304,309,1
307,304,304,308,1
307,305,303,307,1
308,307,303,306,1
310,309,302,307,1
311,310,303,307,1
311,311,303,307,1
308,310,303,306,1
305,308,302,305,1
302,304,300,304,1
299,300,299,303,1
299,298,299,302,1
300,297,300,303,1
303,297,302,304,1
307,299,305,306,1
309,300,308,308,1
310,301,310,311,1
311,302,311,314,1
310,303,310,316,1
308,303,309,317,1
307,303,308,317,1
306,302,306,316,1
305,302,304,312,1
304,303,303,310,1
305,305,304,308,1
306,307,305,306,1
307,308,305,305,1
309,307,306,304,1
309,306,305,304,1
309,305,304,302,1
308,304,304,301,1
308,304,304,301,1
308,305,305,301,1
308,307,306,301,1
309,309,306,302,1
310,312,307,302,1
310,314,308,303,1
310,315,309,304,1
309,315,309,304,1
307,312,308,305,1
305,308,308,305,1
304,304,308,305,1
303,301,307,304,1
302,299,307,303,1
301,299,306,302,1
302,301,306,301,1
302,304,305,300,1
301,307,303,298,1
300,309,302,298,1
300,309,302,299,1
301,308,303,301,1
304,308,305,302,1
307,308,305,301,1
308,309,304,299,1
310,310,303,297,1
309,312,302,294,1
309,313,301,291,1
308,312,302,289,1
308,312,303,289,1
308,312,304,291,1
307,313,305,294,1
307,315,306,298,1
308,317,307,302,1
310,318,307,306,1
311,318,308,308,1
313,316,307,309,1
313,310,306,307,1
313,305,306,305,1
312,304,305,305,1
311,306,305,308,1
310,309,304,313,1
308,313,304,317,1
307,319,304,320,1
308,325,305,321,1
308,331,307,320,1
308,334,307,319,1
306,331,306,317,1
304,323,304,315,1
303,314,303,312,1
301,305,302,310,1
299,295,303,307,1
298,285,303,305,1
298,279,304,305,1
299,277,304,305,1
299,277,304,306,1
301,279,304,307,1
302,281,305,308,1
303,284,305,306,1
303,287,305,304,1
302,289,305,301,1
302,291,304,297,1
302,292,303,294,1
302,295,303,292,1
304,297,303,292,1
305,300,303,295,1
307,303,303,298,1
308,306,304,302,1
310,307,304,304,1
311,308,304,305,1
312,307,304,305,1
310,304,305,305,1
309,301,305,305,1
308,299,306,306,1
309,298,307,307,1
310,299,307,309,1
309,301,306,309,1
307,303,305,309,1
305,304,304,310,1
304,307,303,310,1
306,311,305,311,1
308,314,308,310,1
310,318,310,309,1
311,321,311,308,1
310,321,311,307,1
309,319,311,307,1
307,315,309,306,1
305,312,308,305,1
303,310,306,304,1
303,308,305,304,1
303,307,304,303,1
303,305,303,302,1
303,304,302,299,1
303,303,301,298,1
304,304,301,297,1
306,307,302,297,1
307,309,301,298,1
307,311,301,299,1
307,311,300,302,1
306,311,300,306,1
306,309,300,309,1
307,307,301,310,1
306,307,302,309,1
306,308,301,307,1
305,310,299,303,1
304,313,297,299,1
304,316,295,296,1
305,319,295,294,1
306,321,296,294,1
309,320,299,296,1
310,317,303,300,1
311,312,309,303,1
312,306,313,305,1
311,301,315,306,1
308,297,315,307,1
306,297,315,307,1
304,299,315,307,1
303,302,314,305,1
302,306,313,304,1
301,310,312,305,1
302,312,312,308,1
304,311,313,310,1
305,307,312,310,1
306,305,312,311,1
308,306,311,311,1
309,310,311,311,1
310,315,310,312,1
311,321,310,314,1
312,325,309,315,1
313,328,309,316,1
315,329,309,318,1
314,326,309,318,1
312,319,308,317,1
309,312,306,314,1
307,306,306,311,1
307,302,306,309,1
306,300,306,307,1
306,297,306,306,1
305,294,306,305,1
304,290,306,304,1
305,287,306,304,1
304,285,304,304,1
304,285,304,303,1
304,286,303,303,1
303,288,303,302,1
304,290,304,302,1
305,293,305,301,1
306,295,305,301,1
307,298,306,301,1
309,301,306,303,1
311,305,307,305,1
313,309,308,308,1
314,312,308,310,1
313,314,308,310,1
313,313,307,310,1
311,309,307,308,1
310,304,306,305,1
309,299,305,304,1
308,297,304,304,1
308,297,303,305,1
306,296,303,307,1
304,295,303,308,1
303,296,302,309,1
302,298,303,310,1
301,300,304,310,1
300,301,304,309,1
298,302,304,307,1
297,303,305,306,1
297,303,305,305,1
297,303,305,304,1
300,304,305,303,1
303,305,304,301,1
304,305,303,297,1
306,304,302,294,1
307,305,300,292,1
307,307,300,293,1
307,310,299,293,1
307,312,299,294,1
307,313,298,295,1
306,313,299,297,1
305,314,301,299,1
304,314,302,302,1
304,313,303,304,1
304,313,304,306,1
303,312,305,308,1
303,311,306,311,1
303,312,307,314,1
303,315,308,315,1
303,320,308,317,1
303,324,308,318,1
302,329,308,319,1
302,331,307,319,1
302,330,306,319,1
302,325,305,319,1
302,318,305,320,1
301,310,305,321,1
301,304,305,321,1
301,298,304,320,1
301,294,304,317,1
300,291,304,315,1
300,290,304,313,1
300,292,304,311,1
300,299,304,310,1
302,309,304,310,1
303,322,304,309,1
304,333,303,307,1
305,339,301,305,1
305,339,299,302,1
306,337,298,300,1
306,329,298,299,1
306,321,298,298,1
305,311,299,298,1
305,305,299,298,1
304,304,297,297,1
302,308,297,297,1
300,317,296,297,1
300,328,295,299,1
300,339,294,302,1
301,345,294,305,1
302,343,296,310,1
304,332,298,313,1
305,316,299,315,1
305,300,301,315,1
305,290,302,314,1
304,284,302,311,1
303,281,303,307,1
303,280,304,305,1
303,278,307,305,1
304,277,310,306,1
304,275,312,307,1
306,276,313,308,1
306,276,314,310,1
307,278,314,312,1
306,282,313,314,1
305,287,312,315,1
305,289,312,316,1
305,288,312,316,1
305,286,311,315,1
304,286,310,315,1
305,287,309,315,1
305,290,307,314,1
306,292,306,314,1
307,293,306,312,1
307,293,305,310,1
307,292,306,307,1
307,290,306,304,1
307,287,306,300,1
307,286,305,297,1
307,287,303,296,1
307,292,302,297,1
307,300,303,303,1
308,310,304,310,1
308,317,306,316,1
307,321,309,319,1
305,321,311,320,1
303,314,313,320,1
302,305,314,320,1
302,297,315,318,1
302,293,315,316,1
302,290,314,314,1
302,289,313,312,1
302,289,312,310,1
302,289,312,309,1
302,291,311,307,1
303,295,310,306,1
304,301,309,307,1
305,308,308,308,1
305,314,307,309,1
305,320,306,308,1
303,328,305,307,1
303,337,305,306,1
302,346,304,304,1
301,352,304,304,1
302,354,304,304,1
303,349,304,304,1
303,337,305,305,1
305,324,306,307,1
305,313,307,309,1
305,306,307,312,1
303,300,305,313,1
300,295,304,313,1
299,290,304,312,1
299,288,304,310,1
299,289,305,308,1
301,292,306,307,1
303,293,307,306,1
305,292,307,306,1
305,289,307,305,1
304,289,306,304,1
304,289,305,304,1
303,289,304,303,1
302,290,305,302,1
301,292,306,303,1
301,295,309,305,1
303,299,312,309,1
306,303,315,314,1
309,306,316,318,1
312,308,316,320,1
313,308,315,319,1
314,308,313,316,1
314,309,310,313,1
313,310,308,311,1
312,312,307,308,1
311,316,306,307,1
311,319,307,306,1
311,321,306,304,1
310,322,305,303,1
310,321,305,302,1
309,319,304,301,1
307,315,303,299,1
306,311,302,297,1
304,307,302,295,1
303,305,301,293,1
301,302,299,292,1
299,299,298,294,1
298,297,299,297,1
299,297,301,300,1
301,298,303,303,1
302,299,305,305,1
303,302,306,306,1
305,304,307,308,1
306,307,308,311,1
307,310,309,315,1
306,311,309,319,1
306,313,309,322,1
305,317,309,325,1
307,325,309,328,1
308,334,309,331,1
310,344,310,332,1
310,352,309,332,1
309,357,309,331,1
308,358,310,329,1
307,351,310,326,1
306,337,310,321,1
305,322,309,316,1
304,309,309,313,1
303,299,309,310,1
303,294,309,309,1
303,291,308,309,1
303,290,306,309,1
302,290,305,309,1
302,291,303,309,1
301,294,301,309,1
301,298,300,308,1
301,302,300,308,1
302,306,301,308,1
302,310,303,308,1
302,313,305,309,1
301,315,307,310,1
301,317,308,310,1
301,316,308,309,1
299,313,308,308,1
298,311,307,308,1
297,311,306,308,1
296,313,305,308,1
296,314,303,308,1
297,317,302,308,1
298,320,302,308,1
299,324,303,309,1
302,329,305,309,1
304,331,306,309,1
305,330,307,308,1
304,327,307,307,1
303,322,309,306,1
304,314,310,306,1
304,304,312,307,1
305,296,313,307,1
305,290,313,307,1
306,286,312,306,1
306,283,312,306,1
307,281,311,306,1
308,281,311,307,1
310,282,311,306,1
311,284,310,305,1
312,286,308,304,1
312,288,308,304,1
312,291,308,304,1
312,293,307,305,1
312,295,304,304,1
311,297,301,303,1
309,299,297,300,1
308,300,294,298,1
306,300,293,296,1
306,300,292,294,1
306,301,294,293,1
307,302,297,292,1
308,304,300,293,1
309,307,303,294,1
309,310,306,296,1
308,313,307,299,1
308,316,309,304,1
307,318,310,309,1
306,317,310,313,1
305,316,310,315,1
305,318,311,316,1
304,323,312,317,1
304,328,312,317,1
303,329,311,316,1
303,328,310,313,1
303,325,309,310,1
304,321,309,306,1
305,313,308,303,1
306,305,307,300,1
306,300,305,298,1
307,299,304,295,1
307,303,303,294,1
307,309,303,294,1
306,315,304,294,1
305,318,304,295,1
304,317,306,296,1
303,314,307,296,1
302,311,309,299,1
302,307,311,304,1
302,304,312,308,1
302,300,313,310,1
304,296,312,310,1
305,292,311,308,1
307,291,311,307,1
307,290,310,306,1
307,290,310,307,1
307,290,310,309,1
308,292,310,311,1
309,293,310,313,1
309,294,308,313,1
308,295,305,312,1
306,296,303,310,1
304,297,301,309,1
304,299,302,309,1
304,300,303,311,1
305,302,304,312,1
306,303,305,311,1
307,304,306,310,1
308,306,306,309,1
309,307,307,307,1
310,309,307,306,1
311,310,306,306,1
312,312,306,306,1
313,314,306,306,1
314,313,305,305,1
313,311,305,304,1
312,309,305,304,1
310,308,304,304,1
310,307,302,303,1
309,307,301,301,1
308,308,301,299,1
308,311,300,297,1
309,313,301,294,1
309,314,302,291,1
309,313,303,289,1
310,315,304,290,1
310,320,307,291,1
311,328,308,293,1
311,336,308,295,1
312,342,307,297,1
311,343,306,299,1
309,338,304,298,1
308,328,304,297,1
307,320,304,296,1
306,316,307,298,1
307,317,308,302,1
307,318,309,306,1
307,318,308,308,1
307,314,306,309,1
307,308,305,309,1
308,304,305,310,1
310,302,306,310,1
313,303,307,310,1
315,304,308,309,1
316,308,308,310,1
316,311,307,311,1
315,312,307,312,1
314,313,305,311,1
312,313,304,310,1
309,312,302,308,1
304,309,300,305,1
301,306,298,303,1
300,302,297,302,1
300,295,296,302,1
300,286,296,302,1
300,279,296,301,1
300,274,297,301,1
300,272,298,301,1
301,273,301,302,1
303,277,304,304,1
304,280,306,306,1
304,282,307,307,1
303,285,307,307,1
302,288,307,308,1
302,292,307,308,1
302,295,308,308,1
303,297,308,307,1
303,298,308,305,1
303,299,308,305,1
304,300,308,305,1
304,301,308,306,1
305,302,308,307,1
306,304,308,307,1
307,306,307,308,1
307,309,307,308,1
308,312,306,309,1
309,314,305,309,1
310,315,305,310,1
311,313,304,310,1
310,310,305,311,1
308,307,305,310,1
307,304,306,308,1
306,301,306,306,1
306,299,307,304,1
306,298,307,302,1
306,297,307,301,1
305,298,307,300,1
306,298,307,300,1
307,299,307,300,1
308,299,308,299,1
310,300,309,299,1
311,300,310,297,1
311,301,310,296,1
310,304,308,293,1
309,310,307,291,1
307,319,306,289,1
306,330,305,289,1
306,342,304,291,1
306,350,303,296,1
305,352,303,301,1
304,347,302,305,1
302,340,302,308,1
301,335,303,310,1
302,333,305,312,1
302,331,307,314,1
302,328,310,315,1
302,324,311,315,1
303,318,312,315,1
305,307,313,314,1
306,295,313,313,1
306,283,313,310,1
305,272,312,305,1
304,265,310,301,1
304,262,310,297,1
305,262,309,294,1
305,265,309,293,1
306,269,309,295,1
306,275,310,297,1
307,280,311,298,1
307,285,311,299,1
307,288,310,299,1
306,290,308,298,1
304,291,305,297,1
300,290,302,297,1
298,289,302,298,1
298,289,303,301,1
300,291,305,304,1
303,295,308,308,1
307,300,311,311,1
310,306,314,314,1
313,310,316,317,1
315,313,317,320,1
316,313,317,322,1
317,311,317,322,1
317,310,315,323,1
318,309,315,323,1
317,309,314,322,1
315,309,312,321,1
314,309,311,318,1
313,307,309,314,1
311,305,308,311,1
310,304,306,309,1
310,304,303,307,1
309,306,301,308,1
309,309,299,309,1
308,313,299,312,1
308,318,299,316,1
308,321,300,319,1
309,320,303,321,1
309,317,306,321,1
308,314,307,320,1
308,310,308,318,1
308,308,307,315,1
307,308,308,312,1
306,309,308,310,1
305,311,309,310,1
306,313,310,309,1
306,315,310,310,1
306,314,309,310,1
306,311,308,311,1
306,307,308,312,1
306,302,308,312,1
305,299,309,312,1
305,297,312,313,1
305,296,313,314,1
305,295,314,313,1
305,294,313,313,1
304,293,312,312,1
304,294,310,311,1
304,297,309,310,1
304,303,308,309,1
304,310,307,308,1
305,317,306,306,1
306,323,305,305,1
306,327,304,303,1
307,328,303,301,1
308,326,303,299,1
308,322,303,299,1
309,316,303,301,1
310,310,304,304,1
311,306,305,307,1
309,306,306,308,1
308,310,306,309,1
306,317,306,309,1
304,322,305,309,1
302,325,304,309,1
302,324,303,308,1
304,319,304,309,1
306,312,304,309,1
308,301,304,307,1
309,289,302,304,1
308,281,299,302,1
306,276,297,301,1
303,276,295,299,1
301,278,294,298,1
300,282,294,297,1
300,285,294,297,1
300,287,293,297,1
300,288,292,297,1
301,289,291,297,1
302,290,290,297,1
305,291,290,298,1
309,294,292,301,1
312,297,295,305,1
315,299,297,307,1
316,301,299,308,1
317,305,302,309,1
316,311,304,311,1
313,318,305,314,1
310,324,305,317,1
308,327,305,321,1
306,330,305,323,1
306,331,305,325,1
306,330,306,327,1
306,328,306,328,1
306,325,306,326,1
306,319,305,322,1
306,311,304,317,1
304,303,301,311,1
303,298,299,305,1
302,296,296,300,1
301,296,293,295,1
300,300,290,294,1
300,307,290,297,1
302,312,293,302,1
304,313,298,306,1
306,310,302,310,1
307,305,305,313,1
308,301,307,315,1
308,297,309,316,1
307,296,309,317,1
307,298,310,318,1
309,301,310,319,1
311,306,311,321,1
313,311,312,321,1
314,315,312,320,1
314,317,311,318,1
313,316,310,316,1
311,312,309,312,1
307,307,308,307,1
304,302,307,305,1
301,300,306,303,1
299,300,305,304,1
297,302,305,305,1
297,303,305,306,1
298,306,305,308,1
300,307,305,310,1
301,308,306,312,1
304,310,307,314,1
305,312,308,315,1
305,316,307,315,1
304,321,307,314,1
304,325,307,313,1
304,329,307,312,1
305,330,307,311,1
306,329,307,309,1
306,325,307,309,1
307,317,306,308,1
307,309,306,308,1
307,303,305,308,1
306,300,305,309,1
306,299,304,308,1
307,300,304,308,1
306,301,303,307,1
305,302,301,305,1
303,304,299,304,1
303,307,298,304,1
304,311,297,304,1
304,315,296,304,1
305,319,296,304,1
305,323,296,306,1
306,327,297,307,1
306,330,298,308,1
307,329,299,308,1
308,323,299,307,1
309,315,299,306,1
309,309,298,304,1
309,304,296,303,1
307,302,295,302,1
306,301,294,300,1
304,300,294,299,1
303,299,295,298,1
302,299,298,299,1
302,298,301,301,1
302,297,304,304,1
303,295,305,306,1
304,292,306,306,1
305,288,306,305,1
307,286,306,304,1
308,288,306,303,1
310,293,307,303,1
312,298,308,305,1
313,307,309,308,1
314,318,310,313,1
315,328,309,315,1
316,336,307,314,1
315,344,305,311,1
314,349,304,307,1
311,349,303,303,1
308,343,303,298,1
305,331,304,293,1
302,318,304,291,1
299,305,305,291,1
297,297,307,296,1
296,290,309,301,1
296,287,311,306,1
297,285,312,310,1
298,284,313,313,1
299,285,314,316,1
301,287,316,319,1
302,289,318,321,1
304,291,319,324,1
305,293,319,325,1
306,295,317,325,1
306,298,315,324,1
307,300,312,321,1
307,304,310,318,1
307,307,309,315,1
307,308,310,313,1
306,305,310,311,1
305,303,311,311,1
305,302,312,310,1
305,304,312,310,1
305,308,313,308,1
305,315,313,308,1
305,322,313,308,1
304,328,313,309,1
303,334,313,310,1
302,338,313,311,1
301,340,313,311,1
301,338,311,310,1
300,332,310,309,1
301,320,308,306,1
301,308,307,303,1
303,297,305,301,1
305,289,305,301,1
308,285,306,303,1
310,281,308,306,1
310,279,310,308,1
309,278,311,310,1
306,279,312,310,1
304,282,312,312,1
303,285,312,312,1
301,287,312,313,1
300,288,311,313,1
299,289,310,314,1
299,291,310,314,1
299,292,310,313,1
299,294,310,312,1
300,295,310,311,1
300,297,310,310,1
301,299,310,309,1
301,300,311,307,1
302,302,311,306,1
303,304,311,306,1
304,306,310,305,1
304,308,309,304,1
303,312,307,304,1
304,316,306,304,1
304,320,305,305,1
305,323,304,306,1
306,323,304,307,1
306,321,305,308,1
306,317,306,307,1
307,314,308,305,1
308,311,310,303,1
309,308,312,300,1
308,305,313,297,1
308,302,312,295,1
308,301,312,293,1
309,300,312,293,1
310,300,312,295,1
311,299,312,298,1
312,299,312,303,1
313,300,313,307,1
314,302,315,312,1
314,304,317,315,1
314,305,318,317,1
312,306,318,317,1
310,307,318,316,1
308,307,317,314,1
307,308,316,312,1
305,308,315,310,1
304,307,313,307,1
303,306,311,302,1
303,304,310,296,1
302,303,308,290,1
302,301,307,286,1
301,300,307,283,1
300,299,307,283,1
300,300,307,288,1
301,304,308,295,1
302,307,308,302,1
303,310,308,308,1
304,313,309,313,1
305,315,309,315,1
305,316,308,316,1
305,318,308,317,1
306,318,308,316,1
305,318,308,313,1
304,316,307,309,1
301,313,306,305,1
300,309,304,301,1
299,306,304,298,1
298,303,303,294,1
298,300,303,293,1
298,299,302,293,1
298,300,303,297,1
298,303,304,302,1
300,307,305,308,1
301,310,305,313,1
302,311,306,316,1
302,308,306,316,1
301,305,306,315,1
301,303,306,313,1
301,302,307,311,1
303,305,308,310,1
305,309,310,309,1
307,311,310,308,1
309,311,310,307,1
310,312,310,307,1
310,310,309,308,1
309,307,308,308,1
307,307,307,309,1
307,312,306,310,1
307,321,305,310,1
308,334,304,310,1
310,347,303,310,1
311,359,302,310,1
311,367,303,310,1
310,366,304,309,1
307,352,304,308,1
304,334,305,306,1
301,315,306,306,1
299,300,308,309,1
299,288,310,314,1
299,280,310,318,1
298,275,309,320,1
297,272,307,319,1
297,271,305,318,1
297,272,305,315,1
300,276,307,313,1
303,281,309,312,1
306,285,312,312,1
308,289,313,312,1
310,291,314,311,1
311,291,314,310,1
311,290,314,307,1
309,288,313,305,1
308,287,312,302,1
306,286,310,299,1
305,286,308,295,1
304,286,306,293,1
302,287,306,290,1
299,288,305,289,1
297,289,305,288,1
296,290,306,291,1
298,294,308,296,1
301,299,310,303,1
305,304,312,309,1
309,308,314,313,1
311,311,316,315,1
313,312,316,315,1
314,313,316,315,1
314,313,317,314,1
315,313,317,314,1
315,311,317,314,1
314,310,317,315,1
314,309,317,316,1
314,310,317,316,1
313,311,317,315,1
312,313,316,313,1
311,313,315,311,1
310,313,314,308,1
310,313,314,304,1
310,312,313,301,1
310,314,312,298,1
309,315,311,295,1
307,317,309,293,1
306,319,309,294,1
306,321,308,298,1
306,324,308,303,1
307,323,309,309,1
307,319,310,313,1
307,312,310,314,1
306,306,309,314,1
306,303,308,312,1
306,301,307,310,1
306,299,306,308,1
305,298,305,306,1
304,298,303,304,1
305,298,302,303,1
305,300,302,302,1
305,302,303,302,1
306,304,303,301,1
306,305,304,301,1
306,307,305,301,1
307,311,306,302,1
309,318,306,304,1
310,325,305,306,1
311,332,304,307,1
311,338,303,307,1
312,344,302,306,1
313,350,302,307,1
313,353,303,308,1
314,354,304,310,1
316,354,305,311,1
318,353,307,313,1
320,346,309,313,1
320,330,310,312,1
318,309,311,310,1
315,289,311,306,1
312,275,312,302,1
310,267,311,297,1
308,265,311,293,1
308,267,311,291,1
308,271,312,291,1
309,274,312,293,1
310,278,311,295,1
310,282,310,298,1
309,285,308,300,1
308,289,308,302,1
306,292,308,304,1
303,296,308,307,1
302,298,309,310,1
301,300,310,314,1
301,303,311,316,1
301,303,311,316,1
302,303,311,315,1
303,301,311,314,1
304,300,311,314,1
306,300,312,313,1
308,300,312,311,1
308,301,312,309,1
308,301,311,307,1
307,301,310,305,1
306,301,310,302,1
306,301,309,300,1
307,301,310,300,1
307,302,310,300,1
307,303,310,300,1
307,304,310,301,1
306,304,309,303,1
305,305,307,306,1
305,305,305,309,1
305,305,304,309,1
304,303,302,308,1
304,302,301,305,1
304,303,299,303,1
303,304,299,300,1
303,304,300,299,1
302,304,302,300,1
303,305,303,300,1
303,307,304,299,1
303,309,305,298,1
302,312,305,297,1
303,314,306,297,1
304,317,307,297,1
306,323,308,299,1
307,330,308,302,1
308,335,308,305,1
308,338,308,308,1
309,339,307,308,1
309,337,306,308,1
309,333,305,306,1
310,326,305,305,1
309,319,304,305,1
309,313,304,308,1
309,306,304,312,1
308,298,305,317,1
307,294,305,320,1
306,295,306,321,1
306,300,306,320,1
306,307,307,318,1
307,314,307,315,1
309,320,307,311,1
311,325,308,310,1
313,327,308,310,1
314,324,308,311,1
314,316,306,312,1
312,306,304,314,1
311,297,302,315,1
309,290,302,316,1
307,285,302,316,1
306,285,302,316,1
304,287,303,314,1
304,291,304,312,1
303,295,304,308,1
303,297,305,304,1
304,298,305,302,1
304,299,305,301,1
304,301,305,303,1
305,305,306,308,1
306,312,308,315,1
306,319,308,320,1
306,322,309,324,1
306,321,309,326,1
307,316,309,326,1
309,312,311,326,1
312,309,312,325,1
314,308,312,322,1
315,309,313,318,1
314,310,312,315,1
312,308,310,313,1
309,303,308,311,1
306,296,306,310,1
304,290,305,310,1
303,285,304,310,1
302,283,305,310,1
301,284,307,310,1
301,286,308,310,1
301,288,308,310,1
301,289,307,310,1
302,290,306,309,1
302,291,304,308,1
302,293,303,308,1
303,295,302,308,1
304,297,302,309,1
304,298,302,309,1
303,298,302,309,1
302,299,302,310,1
301,301,301,311,1
301,302,301,310,1
301,304,300,309,1
300,308,300,308,1
300,315,301,308,1
300,325,303,310,1
302,336,305,312,1
305,347,307,312,1
307,355,308,312,1
308,359,307,311,1
308,359,305,309,1
307,357,303,308,1
305,351,301,305,1
304,340,298,302,1
302,325,296,298,1
300,309,295,296,1
300,295,295,296,1
302,282,297,297,1
304,271,299,298,1
305,265,301,302,1
307,264,303,306,1
307,266,304,310,1
308,269,304,312,1
308,273,304,313,1
307,278,305,313,1
307,282,305,312,1
307,286,305,309,1
307,290,304,306,1
308,295,303,304,1
308,298,303,304,1
309,300,303,304,1
308,302,303,305,1
308,301,302,306,1
307,300,302,308,1
307,299,302,313,1
306,299,303,320,1
306,301,304,326,1
307,302,305,331,1
307,303,305,332,1
307,304,303,331,1
305,305,301,328,1
303,308,298,324,1
302,310,297,320,1
302,312,297,317,1
303,314,299,316,1
303,318,302,316,1
304,322,304,317,1
304,328,305,317,1
304,331,306,317,1
304,331,306,318,1
305,329,306,321,1
307,328,307,325,1
309,327,308,329,1
312,324,309,331,1
314,320,309,332,1
316,318,310,332,1
318,315,309,332,1
317,313,309,330,1
315,311,308,328,1
312,310,306,325,1
308,310,305,324,1
305,309,305,322,1
304,309,305,322,1
303,309,305,322,1
304,310,304,322,1
306,314,303,323,1
307,322,303,323,1
307,333,302,324,1
306,341,301,324,1
305,342,299,322,1
303,339,297,319,1
301,330,296,316,1
300,318,296,313,1
301,305,298,311,1
303,297,301,311,1
306,294,305,312,1
309,295,308,313,1
312,299,309,313,1
313,302,308,313,1
314,303,307,313,1
313,303,306,313,1
312,302,304,313,1
309,300,303,313,1
305,300,302,313,1
302,302,302,315,1
300,306,303,316,1
299,309,303,317,1
298,311,304,316,1
298,311,303,315,1
297,309,302,313,1
297,304,301,310,1
296,299,300,305,1
295,295,297,299,1
294,292,295,294,1
295,292,294,290,1
296,294,294,287,1
298,298,295,288,1
300,304,297,293,1
302,311,300,300,1
305,319,304,310,1
307,324,308,319,1
310,324,310,324,1
310,318,310,324,1
309,312,309,323,1
309,308,308,321,1
307,305,307,320,1
306,302,305,320,1
304,299,304,320,1
304,297,303,321,1
304,296,303,322,1
304,296,303,322,1
305,298,305,323,1
306,300,306,322,1
307,302,306,321,1
307,303,305,320,1
307,305,303,320,1
305,307,300,318,1
303,310,299,317,1
302,313,298,316,1
303,316,299,316,1
304,318,300,316,1
305,317,301,315,1
304,314,302,314,1
304,312,301,314,1
303,310,302,313,1
304,309,302,312,1
303,308,303,309,1
303,309,303,306,1
304,312,303,304,1
305,317,305,306,1
307,325,307,309,1
309,332,310,314,1
309,335,311,319,1
308,335,312,321,1
306,334,311,321,1
303,333,310,320,1
300,331,309,318,1
300,327,308,317,1
300,322,308,317,1
299,317,308,316,1
298,312,307,314,1
297,307,306,313,1
297,302,305,311,1
297,297,306,310,1
298,293,307,309,1
299,289,307,309,1
300,286,306,308,1
300,283,306,307,1
299,280,305,303,1
298,279,304,300,1
297,278,303,298,1
295,279,303,297,1
295,282,302,298,1
296,285,302,300,1
297,288,303,301,1
298,291,303,303,1
300,295,303,304,1
302,297,303,306,1
304,298,302,307,1
305,299,302,306,1
306,300,300,305,1
306,302,298,302,1
305,305,296,301,1
306,310,295,299,1
306,317,296,297,1
307,323,298,297,1
307,328,301,298,1
307,330,304,302,1
308,329,307,304,1
309,322,309,305,1
311,314,310,307,1
313,306,311,311,1
314,300,312,314,1
313,296,310,316,1
310,294,307,315,1
306,292,304,313,1
303,292,303,311,1
301,294,304,308,1
301,297,305,306,1
301,300,308,305,1
302,304,309,305,1
303,306,310,305,1
303,307,310,304,1
303,307,309,303,1
304,307,308,301,1
304,307,307,300,1
304,306,307,302,1
304,305,307,306,1
303,303,308,309,1
302,300,308,310,1
300,300,308,311,1
300,304,307,310,1
300,313,307,309,1
302,324,305,308,1
303,334,304,307,1
302,341,304,305,1
302,343,303,304,1
302,337,303,304,1
302,325,303,305,1
303,313,303,308,1
304,301,304,310,1
304,292,305,312,1
304,285,306,313,1
303,281,306,314,1
303,279,307,314,1
302,279,307,313,1
303,281,308,312,1
304,283,309,310,1
306,286,310,309,1
306,288,310,307,1
306,290,309,306,1
305,291,308,307,1
305,293,306,308,1
305,295,305,309,1
306,297,304,308,1
307,300,303,307,1
308,302,303,306,1
308,305,303,304,1
308,307,303,304,1
307,308,303,303,1
306,309,303,302,1
305,308,303,300,1
303,309,302,298,1
301,309,303,296,1
300,307,303,294,1
301,304,303,294,1
301,302,304,295,1
303,301,304,297,1
304,302,305,299,1
306,304,305,301,1
308,307,306,302,1
310,311,307,305,1
312,314,309,309,1
314,317,310,311,1
314,318,310,313,1
314,318,309,313,1
312,315,308,313,1
310,315,307,311,1
308,317,307,309,1
306,322,307,308,1
306,327,308,307,1
306,332,309,305,1
307,336,309,305,1
308,336,310,305,1
308,331,309,305,1
308,323,309,307,1
307,314,308,309,1
307,306,307,312,1
308,300,306,314,1
308,295,305,315,1
308,292,304,314,1
307,290,304,313,1
307,290,304,313,1
307,290,304,313,1
306,291,303,312,1
304,293,302,311,1
303,296,299,309,1
301,299,297,307,1
298,302,296,304,1
297,305,296,302,1
295,307,297,301,1
294,309,298,301,1
295,308,299,301,1
296,307,300,301,1
298,305,301,302,1
302,307,303,303,1
306,313,305,303,1
309,322,307,304,1
312,332,309,305,1
314,342,312,309,1
316,348,314,313,1
314,348,315,315,1
311,342,315,315,1
306,331,314,313,1
301,320,313,313,1
297,313,311,312,1
295,306,309,312,1
295,299,307,312,1
297,292,306,312,1
298,287,304,311,1
300,285,304,311,1
302,285,304,310,1
303,287,306,311,1
305,290,308,312,1
307,292,310,315,1
309,292,311,316,1
310,289,312,316,1
310,287,311,315,1
309,286,310,313,1
309,287,310,310,1
308,287,310,307,1
308,289,310,305,1
308,290,310,305,1
308,292,311,306,1
308,294,312,307,1
307,296,312,308,1
307,298,312,308,1
307,300,311,307,1
307,302,311,307,1
307,304,311,308,1
307,306,311,307,1
307,306,311,307,1
307,305,311,307,1
308,305,311,308,1
308,305,312,309,1
309,305,313,309,1
310,306,314,309,1
309,306,314,307,1
308,306,314,307,1
307,307,314,306,1
306,309,314,306,1
306,312,313,305,1
306,313,312,304,1
307,313,311,304,1
307,312,311,303,1
307,312,310,303,1
307,312,310,304,1
307,312,311,306,1
308,313,312,309,1
308,314,312,312,1
307,315,310,313,1
305,318,309,314,1
303,320,309,313,1
302,321,310,314,1
302,321,313,314,1
302,320,317,315,1
303,318,319,316,1
304,314,320,316,1
305,309,320,314,1
304,305,318,312,1
304,302,315,309,1
303,301,312,306,1
302,300,309,305,1
301,299,308,303,1
300,298,307,302,1
301,299,307,300,1
301,299,307,298,1
302,299,305,296,1
303,300,304,294,1
304,303,304,295,1
305,306,305,297,1
305,310,307,300,1
305,313,310,302,1
304,316,312,305,1
303,322,315,306,1
303,328,317,306,1
302,333,318,306,1
302,336,319,305,1
303,335,318,303,1
302,329,316,301,1
300,320,313,301,1
298,306,309,301,1
297,292,307,303,1
296,281,306,304,1
297,273,305,303,1
298,270,304,301,1
299,270,303,296,1
301,272,302,289,1
303,274,300,282,1
305,276,300,276,1
308,279,301,275,1
310,283,302,279,1
311,289,304,288,1
311,293,307,300,1
311,297,309,310,1
309,299,311,316,1
306,301,312,319,1
305,301,312,319,1
303,302,313,319,1
303,304,313,318,1
304,307,314,318,1
306,312,314,319,1
309,316,315,319,1
312,320,315,319,1
315,322,314,319,1
317,321,314,319,1
318,317,314,319,1
319,313,313,319,1
318,312,312,318,1
316,311,310,316,1
312,310,308,314,1
308,308,307,313,1
305,308,306,312,1
303,307,306,311,1
303,306,306,311,1
303,305,307,309,1
304,303,307,309,1
305,300,308,308,1
307,297,309,307,1
308,296,309,306,1
310,297,309,306,1
311,301,308,307,1
312,305,308,308,1
313,309,309,308,1
313,310,309,308,1
312,309,309,308,1
311,312,309,307,1
309,319,309,306,1
308,326,308,305,1
306,331,306,303,1
304,334,305,303,1
305,335,304,304,1
306,332,305,305,1
308,322,305,307,1
309,307,305,308,1
308,292,305,309,1
306,278,304,309,1
304,269,304,310,1
303,264,305,311,1
301,264,305,311,1
300,266,307,312,1
300,270,309,312,1
301,274,310,312,1
303,280,311,312,1
305,286,310,310,1
306,292,309,310,1
306,299,309,311,1
306,304,310,312,1
306,309,311,313,1
306,311,312,313,1
305,312,312,314,1
306,309,313,314,1
307,305,313,315,1
308,301,314,315,1
309,298,314,315,1
310,297,312,314,1
310,297,311,312,1
310,299,311,310,1
309,301,310,307,1
307,304,308,303,1
304,307,307,301,1
302,311,306,300,1
302,313,306,299,1
302,314,306,298,1
303,313,305,298,1
304,312,305,300,1
307,311,305,304,1
310,309,306,307,1
312,308,307,311,1
312,309,307,314,1
311,310,308,317,1
309,312,310,319,1
308,314,311,320,1
307,315,313,319,1
306,314,312,316,1
306,311,311,313,1
306,308,310,309,1
307,305,310,305,1
307,301,309,302,1
306,296,308,299,1
305,293,306,296,1
305,292,305,295,1
305,294,305,295,1
306,295,305,296,1
308,297,305,297,1
309,298,305,299,1
310,298,306,302,1
311,299,306,305,1
310,300,305,306,1
308,301,305,306,1
307,306,304,305,1
308,312,302,304,1
309,319,301,303,1
310,325,300,305,1
311,332,301,308,1
311,337,303,311,1
311,339,305,314,1
310,337,308,318,1
309,332,311,321,1
309,328,312,324,1
310,325,314,325,1
311,319,314,325,1
312,311,313,323,1
312,304,312,321,1
311,298,310,319,1
312,295,309,317,1
311,291,308,315,1
309,288,307,313,1
307,286,306,311,1
306,284,306,308,1
305,284,307,304,1
305,285,307,301,1
305,287,306,299,1
305,290,306,298,1
305,293,306,300,1
307,297,307,302,1
308,300,308,305,1
309,303,308,308,1
309,305,308,309,1
309,308,307,309,1
308,310,306,307,1
306,310,306,305,1
305,310,306,304,1
304,310,308,304,1
303,310,309,306,1
303,311,310,308,1
302,309,311,310,1
303,305,311,312,1
303,300,310,312,1
303,297,309,312,1
302,295,307,312,1
302,296,307,311,1
302,297,306,310,1
302,299,307,309,1
302,302,306,309,1
302,304,306,309,1
301,307,306,308,1
301,309,305,306,1
301,310,305,304,1
303,309,305,302,1
305,306,304,300,1
307,304,304,299,1
308,304,305,299,1
310,308,306,301,1
311,314,306,301,1
311,318,305,300,1
309,320,304,297,1
307,318,303,296,1
306,315,303,297,1
305,312,303,299,1
305,309,303,300,1
305,306,302,301,1
305,304,302,302,1
304,300,301,301,1
303,298,301,301,1
302,296,300,301,1
302,295,300,302,1
302,295,302,303,1
302,295,303,304,1
303,296,305,305,1
303,298,307,306,1
304,299,308,306,1
304,301,308,306,1
304,302,307,306,1
304,302,306,306,1
304,302,306,305,1
304,302,305,303,1
304,302,304,302,1
304,302,304,301,1
304,303,305,301,1
305,304,305,302,1
306,305,305,303,1
307,306,305,303,1
308,307,305,304,1
309,308,306,304,1
310,308,306,305,1
310,309,306,305,1
310,309,305,306,1
311,308,305,306,1
310,307,303,305,1
310,305,302,303,1
310,304,301,302,1
309,306,301,299,1
308,310,300,297,1
307,315,300,295,1
306,321,300,293,1
307,327,300,293,1
308,329,301,295,1
307,329,301,296,1
305,323,300,298,1
303,317,300,301,1
301,311,300,304,1
300,307,301,306,1
300,304,301,307,1
300,300,301,307,1
301,298,301,306,1
302,298,301,307,1
304,298,302,307,1
305,298,303,307,1
305,297,304,308,1
306,297,306,309,1
307,296,307,309,1
308,296,307,308,1
308,296,306,306,1
308,296,304,303,1
307,296,303,300,1
306,297,301,297,1
306,300,300,294,1
307,303,299,293,1
307,306,298,292,1
308,308,297,291,1
308,308,297,289,1
309,308,296,289,1
309,308,297,291,1
309,308,299,294,1
309,312,300,298,1
309,318,301,303,1
309,328,301,307,1
309,337,302,309,1
310,344,302,309,1
310,346,301,308,1
311,345,302,307,1
313,344,302,306,1
315,340,303,307,1
316,332,304,308,1
315,324,303,309,1
312,316,303,309,1
308,308,303,308,1
306,301,302,308,1
305,295,302,306,1
304,291,302,304,1
303,288,303,302,1
303,287,302,301,1
302,287,302,300,1
302,286,302,302,1
302,287,301,304,1
303,288,299,307,1
303,289,298,310,1
303,294,297,312,1
303,300,297,314,1
304,307,296,314,1
305,311,297,312,1
305,311,299,312,1
307,307,302,311,1
309,303,304,311,1
308,301,305,310,1
307,302,305,309,1
306,305,305,308,1
304,309,305,308,1
302,314,305,309,1
302,318,306,310,1
303,318,306,311,1
303,314,307,311,1
304,307,307,311,1
305,301,308,311,1
307,298,310,313,1
309,297,312,314,1
310,298,314,316,1
310,299,315,318,1
310,301,315,320,1
309,303,315,321,1
309,306,315,321,1
310,309,315,320,1
311,313,315,318,1
311,319,314,315,1
312,324,314,312,1
313,326,313,310,1
312,323,313,309,1
310,315,311,309,1
308,306,310,309,1
306,300,308,310,1
305,297,306,311,1
304,296,305,312,1
304,297,303,312,1
304,298,302,312,1
306,299,301,311,1
306,300,302,310,1
307,301,302,309,1
307,302,304,308,1
307,302,306,308,1
308,301,308,308,1
307,302,309,309,1
307,303,309,309,1
308,305,308,309,1
307,309,308,308,1
308,313,307,308,1
308,316,306,307,1
308,318,306,307,1
308,320,306,307,1
307,320,305,306,1
306,317,304,305,1
306,312,302,304,1
305,306,302,302,1
305,303,302,299,1
307,303,303,296,1
308,304,302,293,1
309,305,302,292,1
309,307,302,294,1
310,310,303,296,1
310,310,305,297,1
310,310,306,298,1
310,309,306,300,1
309,307,306,301,1
308,303,304,302,1
308,297,303,303,1
308,293,302,304,1
308,294,301,304,1
309,299,301,305,1
311,306,302,307,1
313,315,304,309,1
314,323,304,311,1
315,328,303,312,1
315,326,302,314,1
315,316,302,315,1
314,302,303,315,1
312,291,304,315,1
310,286,305,316,1
308,284,306,317,1
306,284,308,317,1
305,286,309,317,1
304,287,309,316,1
305,289,309,315,1
306,292,309,314,1
307,295,309,313,1
308,300,308,311,1
307,308,307,310,1
307,316,306,309,1
306,322,306,309,1
304,323,305,308,1
303,320,304,307,1
302,315,305,306,1
303,313,305,306,1
304,312,304,305,1
306,311,302,303,1
307,312,299,301,1
307,313,297,298,1
305,313,296,295,1
301,312,296,292,1
299,307,297,291,1
297,301,299,292,1
297,296,301,295,1
298,294,304,298,1
302,293,305,300,1
306,293,307,303,1
309,296,308,306,1
313,298,309,309,1
314,300,308,311,1
313,299,307,311,1
312,299,306,310,1
312,298,305,309,1
311,299,306,308,1
311,300,306,307,1
310,304,306,307,1
308,309,306,307,1
305,315,306,307,1
304,322,306,308,1
304,328,307,310,1
307,333,310,312,1
309,333,312,314,1
310,329,313,315,1
311,321,314,315,1
312,313,314,315,1
312,307,314,313,1
310,303,312,310,1
308,301,308,306,1
306,302,305,303,1
305,304,302,300,1
305,307,301,297,1
307,311,301,295,1
307,313,304,294,1
309,314,307,295,1
310,313,311,297,1
310,310,313,298,1
310,308,313,300,1
309,308,313,302,1
310,309,313,305,1
310,311,313,308,1
310,312,313,310,1
310,312,312,311,1
310,310,312,311,1
309,308,312,311,1
310,306,312,308,1
310,301,312,303,1
309,296,311,296,1
308,293,310,290,1
307,292,309,289,1
307,294,309,292,1
306,298,309,296,1
306,303,309,299,1
306,310,309,301,1
306,316,310,302,1
306,320,311,304,1
306,317,311,305,1
306,308,311,306,1
306,298,311,307,1
307,291,311,306,1
308,287,310,304,1
309,285,310,302,1
309,284,310,298,1
309,288,310,295,1
308,294,310,297,1
308,301,311,300,1
307,308,312,304,1
307,315,313,308,1
306,319,314,311,1
306,319,315,313,1
306,318,315,314,1
306,315,316,314,1
306,310,315,313,1
305,304,315,313,1
304,299,314,313,1
303,296,315,315,1
304,295,315,316,1
305,295,315,318,1
307,297,315,320,1
310,299,314,320,1
311,300,313,319,1
311,301,311,318,1
310,302,309,318,1
309,304,308,317,1
307,306,307,316,1
305,308,307,315,1
304,310,308,314,1
304,312,310,313,1
304,313,311,311,1
304,314,311,307,1
304,315,310,303,1
303,316,308,299,1
301,317,305,295,1
299,319,303,291,1
299,321,302,289,1
300,325,302,290,1
303,326,301,290,1
303,322,300,290,1
304,316,300,291,1
305,313,302,295,1
307,313,305,300,1
307,314,306,305,1
306,316,307,309,1
306,320,306,313,1
306,325,306,316,1
307,330,306,320,1
310,333,308,322,1
311,331,309,323,1
312,324,310,322,1
312,316,310,320,1
311,307,309,317,1
310,299,309,314,1
308,294,308,311,1
307,291,307,309,1
305,293,305,307,1
304,296,304,306,1
304,301,303,306,1
303,303,303,307,1
303,303,303,310,1
302,301,303,312,1
302,299,304,313,1
302,297,306,314,1
302,294,307,314,1
303,292,307,313,1
304,290,307,310,1
305,291,307,308,1
307,293,307,307,1
309,296,307,307,1
310,301,307,307,1
311,305,308,307,1
311,310,307,306,1
310,314,307,303,1
309,315,306,301,1
308,313,306,299,1
308,310,305,298,1
307,305,304,297,1
307,302,303,296,1
307,301,303,295,1
307,302,302,295,1
308,304,301,294,1
308,304,300,292,1
307,302,297,290,1
306,301,295,289,1
305,305,293,290,1
304,310,291,292,1
303,316,290,294,1
303,319,290,298,1
303,320,292,302,1
304,317,296,306,1
305,313,300,310,1
306,309,305,314,1
307,307,308,317,1
308,307,310,319,1
309,308,310,319,1
310,311,310,319,1
311,314,310,318,1
312,315,310,318,1
313,316,311,318,1
314,314,311,316,1
315,312,311,312,1
315,310,311,308,1
314,308,311,304,1
312,306,311,304,1
309,303,311,305,1
307,302,310,308,1
306,301,310,311,1
305,299,308,313,1
305,297,306,314,1
305,295,305,314,1
305,294,304,314,1
306,294,303,313,1
305,296,302,311,1
303,298,302,309,1
303,303,302,308,1
304,310,303,309,1
305,316,304,311,1
306,320,305,311,1
307,322,306,310,1
308,326,306,310,1
309,332,305,309,1
309,335,304,307,1
309,338,303,305,1
307,339,302,304,1
306,339,300,304,1
306,337,300,305,1
307,332,300,305,1
308,322,299,304,1
308,309,298,302,1
308,300,298,300,1
307,296,299,299,1
306,297,300,298,1
303,300,301,298,1
301,302,301,298,1
298,305,302,300,1
297,307,303,302,1
298,308,305,305,1
301,305,307,307,1
303,299,309,310,1
305,294,310,310,1
305,290,310,310,1
304,287,309,308,1
303,285,308,307,1
303,285,308,306,1
302,284,308,305,1
300,284,309,305,1
300,285,310,305,1
301,287,311,306,1
302,289,312,305,1
302,293,312,304,1
303,297,312,303,1
304,301,311,302,1
305,304,310,299,1
305,304,308,297,1
304,303,306,294,1
304,302,305,293,1
303,302,305,294,1
303,301,305,297,1
303,300,305,299,1
303,300,305,301,1
304,299,307,304,1
306,299,308,306,1
308,298,309,307,1
308,298,309,306,1
309,300,309,304,1
308,303,308,301,1
309,309,306,297,1
309,317,305,294,1
309,326,304,293,1
310,333,304,293,1
311,337,305,293,1
311,339,306,293,1
311,338,305,293,1
310,338,304,294,1
310,335,303,295,1
309,327,300,295,1
308,317,298,297,1
307,308,298,300,1
308,303,300,303,1
309,298,303,306,1
309,295,304,307,1
308,293,305,306,1
307,291,305,305,1
306,291,305,305,1
305,295,305,304,1
306,300,306,304,1
306,305,307,304,1
308,310,308,304,1
309,313,309,306,1
309,315,311,309,1
307,313,312,311,1
304,306,312,312,1
303,299,311,310,1
301,294,310,308,1
302,291,309,305,1
302,290,307,302,1
303,291,307,302,1
305,294,307,306,1
308,300,309,311,1
311,305,311,317,1
313,310,313,321,1
312,311,314,324,1
310,310,315,324,1
308,307,314,322,1
305,305,312,318,1
304,304,309,314,1
303,303,308,310,1
303,304,307,305,1
304,308,307,302,1
304,313,307,299,1
305,319,307,297,1
305,325,306,296,1
305,330,306,296,1
304,332,305,298,1
303,331,304,300,1
301,327,304,301,1
300,320,304,302,1
299,313,306,304,1
300,308,308,305,1
303,306,309,306,1
305,303,310,307,1
305,299,310,305,1
304,293,309,303,1
302,287,308,300,1
300,284,307,299,1
299,283,305,299,1
297,284,303,301,1
297,286,302,303,1
297,289,301,305,1
298,293,302,307,1
299,298,304,310,1
300,302,306,314,1
301,306,307,316,1
301,310,308,318,1
301,313,308,319,1
302,314,308,320,1
302,315,308,320,1
302,314,306,319,1
303,314,306,319,1
305,315,305,319,1
306,315,305,318,1
306,314,306,318,1
306,312,307,316,1
305,310,306,315,1
304,309,305,313,1
304,308,303,311,1
304,308,302,309,1
305,311,299,308,1
306,314,299,307,1
308,319,298,306,1
310,322,299,303,1
310,319,300,300,1
310,312,300,299,1
309,303,300,300,1
308,298,300,302,1
308,296,300,305,1
309,298,301,309,1
310,301,302,313,1
310,307,302,318,1
309,310,302,321,1
308,312,303,323,1
307,313,303,325,1
306,315,306,326,1
307,319,307,326,1
307,322,309,326,1
307,325,308,324,1
308,325,307,322,1
309,324,306,320,1
311,320,305,319,1
312,313,305,317,1
312,308,304,315,1
311,304,303,313,1
310,302,302,309,1
308,301,301,306,1
306,299,300,300,1
304,298,298,293,1
302,297,297,288,1
301,296,296,285,1
302,296,296,286,1
305,297,298,289,1
308,297,301,296,1
311,302,305,304,1
315,309,310,314,1
318,317,314,321,1
320,324,315,326,1
320,329,315,329,1
320,333,315,330,1
319,332,315,329,1
316,324,313,325,1
313,313,311,320,1
309,301,309,316,1
307,294,308,311,1
305,289,308,308,1
305,287,307,304,1
304,287,307,302,1
305,287,307,302,1
306,290,307,303,1
307,294,308,303,1
308,298,308,304,1
309,303,308,305,1
309,306,307,305,1
310,306,306,304,1
311,304,306,303,1
312,302,306,302,1
313,302,306,302,1
313,303,306,302,1
313,306,306,304,1
313,309,306,306,1
313,313,307,310,1
314,317,308,313,1
313,320,309,315,1
310,323,309,316,1
308,323,309,316,1
305,321,309,315,1
302,318,308,315,1
299,314,308,313,1
297,310,307,312,1
297,306,307,310,1
297,302,306,309,1
297,299,306,309,1
298,297,306,310,1
300,297,306,311,1
301,297,306,313,1
301,297,305,312,1
300,298,304,311,1
300,300,302,309,1
300,303,301,307,1
300,309,301,306,1
301,319,303,306,1
302,329,305,307,1
303,337,306,307,1
304,342,307,306,1
305,344,307,305,1
305,340,307,305,1
305,330,307,306,1
304,317,307,307,1
305,305,308,310,1
306,297,309,314,1
308,291,310,316,1
310,288,312,317,1
311,288,313,316,1
311,289,313,315,1
312,291,314,315,1
311,294,315,314,1
309,297,315,313,1
308,300,315,313,1
307,301,315,313,1
306,301,313,311,1
305,300,311,309,1
305,299,308,307,1
305,301,305,305,1
305,302,303,303,1
304,303,300,300,1
302,303,297,298,1
299,303,296,296,1
297,304,295,294,1
295,305,296,294,1
295,306,297,293,1
296,307,300,292,1
298,309,303,292,1
299,311,306,294,1
301,315,309,299,1
302,322,312,305,1
304,331,316,313,1
306,340,318,319,1
308,347,319,324,1
308,349,319,327,1
309,344,318,328,1
307,331,316,326,1
306,314,314,324,1
304,299,312,320,1
302,288,310,315,1
301,282,310,310,1
300,280,310,307,1
301,281,310,304,1
302,284,310,302,1
302,288,309,299,1
303,293,308,297,1
303,299,307,298,1
303,306,306,300,1
303,311,306,302,1
302,313,306,304,1
301,312,307,304,1
301,308,307,305,1
302,304,309,306,1
303,300,309,307,1
304,297,309,307,1
305,295,309,306,1
306,294,309,305,1
307,294,307,303,1
305,295,305,302,1
305,296,304,300,1
305,298,304,300,1
305,301,304,301,1
305,304,305,304,1
305,305,306,307,1
305,303,307,310,1
304,300,307,311,1
303,298,306,312,1
301,299,305,313,1
300,304,305,316,1
300,311,305,318,1
302,318,306,320,1
306,322,309,321,1
309,323,311,322,1
312,321,312,321,1
312,314,312,318,1
311,306,312,314,1
311,298,310,311,1
308,294,309,307,1
305,293,307,304,1
301,295,305,301,1
299,297,304,300,1
298,300,304,299,1
298,300,304,299,1
299,299,304,299,1
301,297,305,301,1
302,297,306,304,1
303,300,307,309,1
305,304,307,312,1
306,307,306,313,1
307,310,304,314,1
308,314,304,314,1
308,317,302,312,1
306,318,301,309,1
304,318,299,306,1
301,315,299,303,1
299,310,298,300,1
297,305,297,297,1
294,300,296,293,1
292,293,295,288,1
290,288,295,283,1
290,284,296,280,1
291,283,298,280,1
293,283,299,283,1
294,285,300,286,1
295,287,301,289,1
296,289,301,292,1
297,291,301,294,1
298,294,303,297,1
300,297,305,299,1
301,300,308,301,1
303,302,310,304,1
304,305,311,306,1
306,307,312,309,1
308,310,313,312,1
310,311,314,315,1
312,313,314,317,1
313,315,314,319,1
313,315,313,319,1
313,316,311,317,1
312,316,310,315,1
312,317,308,313,1
311,319,306,309,1
310,324,305,306,1
310,330,303,303,1
310,339,302,302,1
310,349,302,302,1
311,358,303,302,1
312,363,303,302,1
311,361,302,301,1
310,353,301,299,1
310,343,301,298,1
308,332,300,295,1
306,321,300,292,1
304,308,299,290,1
303,292,299,287,1
302,278,299,285,1
301,269,299,288,1
302,267,299,295,1
302,268,299,304,1
303,271,299,310,1
303,273,300,314,1
304,276,301,317,1
304,280,303,319,1
305,287,305,321,1
307,294,307,324,1
308,300,308,325,1
309,306,309,324,1
311,311,309,323,1
312,315,310,321,1
312,318,310,320,1
312,318,310,319,1
312,314,310,318,1
313,310,310,318,1
313,304,310,318,1
312,298,309,317,1
311,293,308,316,1
308,290,306,314,1
307,289,305,311,1
306,289,304,309,1
305,289,303,307,1
305,290,303,307,1
305,289,302,307,1
304,289,302,307,1
304,289,301,307,1
304,290,300,306,1
304,293,300,305,1
304,296,301,305,1
305,300,302,306,1
305,304,304,307,1
305,308,306,310,1
307,311,309,313,1
309,315,310,314,1
311,319,311,313,1
312,321,311,312,1
313,320,311,310,1
314,316,311,308,1
315,314,311,307,1
315,314,310,307,1
314,315,310,307,1
311,318,310,309,1
310,319,310,310,1
312,317,312,310,1
314,315,312,310,1
315,310,310,309,1
314,305,307,306,1
311,299,304,303,1
308,295,304,301,1
306,291,304,301,1
305,289,306,299,1
303,289,308,300,1
301,290,310,302,1
300,290,311,303,1
299,291,311,305,1
298,293,311,307,1
298,295,311,309,1
299,299,312,311,1
301,302,313,312,1
303,306,315,313,1
304,311,316,314,1
305,316,317,315,1
306,323,318,317,1
306,330,318,317,1
307,336,317,317,1
307,338,316,316,1
307,336,314,314,1
306,332,313,312,1
306,326,311,310,1
306,318,310,306,1
305,310,309,303,1
305,306,308,301,1
305,305,307,300,1
305,305,306,299,1
306,305,305,300,1
307,304,305,301,1
308,302,306,303,1
309,299,307,305,1
310,298,308,307,1
310,298,309,308,1
311,300,310,308,1
311,299,310,308,1
310,297,311,310,1
309,296,312,313,1
309,294,313,315,1
309,293,313,317,1
308,292,313,317,1
308,292,312,317,1
307,292,311,316,1
307,292,310,314,1
308,294,308,312,1
308,295,306,309,1
308,296,304,307,1
308,297,303,304,1
308,297,303,302,1
309,298,303,301,1
311,300,304,301,1
312,304,305,302,1
313,306,305,305,1
314,307,304,309,1
313,305,302,312,1
312,302,301,314,1
309,298,300,315,1
306,295,301,315,1
304,294,302,317,1
302,296,304,318,1
302,298,306,319,1
302,300,307,319,1
302,302,308,318,1
303,305,309,317,1
304,308,309,317,1
304,310,308,315,1
304,312,307,314,1
304,313,307,314,1
304,314,306,314,1
304,314,306,315,1
304,312,306,315,1
303,310,306,315,1
303,309,308,315,1
303,309,309,314,1
302,308,309,312,1
301,307,309,310,1
300,305,308,307,1
300,304,307,304,1
299,305,307,302,1
300,307,307,301,1
301,311,307,301,1
302,316,307,302,1
304,323,308,304,1
306,330,309,306,1
306,336,309,308,1
306,341,310,311,1
307,342,311,313,1
307,340,311,313,1
306,337,311,311,1
306,336,312,310,1
307,334,313,307,1
308,329,314,306,1
309,320,314,305,1
309,310,314,305,1
309,299,315,305,1
309,292,314,306,1
309,290,312,306,1
309,292,310,306,1
309,295,309,307,1
309,298,307,308,1
308,300,305,309,1
307,300,304,310,1
306,297,304,310,1
306,291,303,309,1
305,285,301,307,1
304,281,299,305,1
304,278,298,303,1
304,278,299,302,1
304,279,301,303,1
305,281,304,304,1
307,282,307,305,1
308,284,310,305,1
308,284,311,305,1
308,285,310,304,1
309,285,309,302,1
309,287,309,302,1
310,291,308,303,1
310,295,308,306,1
310,301,309,309,1
310,306,310,312,1
311,310,311,315,1
311,311,311,317,1
311,310,311,316,1
310,308,310,315,1
308,305,309,312,1
306,302,308,308,1
304,301,306,305,1
304,301,304,301,1
304,302,302,295,1
305,302,300,288,1
306,300,299,281,1
306,299,298,277,1
307,301,299,276,1
309,306,300,280,1
311,314,302,289,1
311,320,304,298,1
310,322,306,307,1
309,318,307,313,1
309,312,308,318,1
311,307,309,320,1
312,303,308,320,1
314,302,307,319,1
315,302,306,318,1
315,305,306,317,1
315,309,305,317,1
313,312,303,316,1
310,314,303,316,1
308,315,303,316,1
306,315,304,316,1
305,313,305,315,1
304,308,305,313,1
303,304,305,309,1
302,300,305,304,1
301,299,305,301,1
301,299,306,299,1
301,300,308,298,1
302,301,308,298,1
303,302,308,299,1
303,301,307,301,1
302,301,307,303,1
301,301,306,305,1
301,302,305,306,1
300,306,304,306,1
300,312,304,307,1
300,318,304,308,1
301,324,304,308,1
303,327,305,308,1
304,326,305,308,1
305,321,305,307,1
304,314,304,307,1
304,307,302,307,1
303,306,302,307,1
304,310,302,308,1
304,314,302,309,1
305,317,304,309,1
304,317,305,309,1
303,316,306,308,1
303,314,306,307,1
304,311,306,306,1
306,306,306,305,1
307,300,306,305,1
308,294,306,306,1
309,290,307,307,1
310,289,309,309,1
311,288,310,310,1
311,289,309,310,1
312,290,306,310,1
312,291,302,309,1
312,291,299,308,1
311,290,298,308,1
310,290,298,307,1
309,291,301,308,1
308,292,305,307,1
307,293,309,307,1
307,296,313,306,1
307,299,315,305,1
306,302,315,304,1
305,307,314,304,1
304,311,313,305,1
304,314,312,306,1
304,313,310,307,1
306,310,308,308,1
307,308,307,309,1
308,306,306,310,1
307,305,305,310,1
306,303,304,310,1
304,302,302,308,1
303,301,300,306,1
302,300,299,305,1
302,300,299,304,1
304,301,299,306,1
306,303,299,308,1
308,305,300,309,1
309,307,300,307,1
310,309,299,305,1
311,310,299,303,1
312,312,298,301,1
313,314,298,302,1
315,315,300,303,1
315,314,301,304,1
315,312,304,306,1
315,310,305,308,1
315,308,306,309,1
316,307,306,309,1
316,306,307,310,1
315,305,308,310,1
314,305,308,310,1
312,307,309,311,1
312,311,309,311,1
311,315,309,311,1
311,318,308,311,1
311,317,307,310,1
310,315,307,308,1
309,313,306,307,1
307,312,306,307,1
307,312,306,308,1
307,312,306,309,1
307,312,305,310,1
306,313,304,310,1
304,313,303,310,1
304,312,303,309,1
304,310,302,308,1
304,308,302,307,1
305,305,302,305,1
305,303,303,304,1
306,303,304,304,1
306,303,305,305,1
306,303,305,306,1
306,303,306,306,1
305,304,306,307,1
305,307,305,307,1
304,309,304,306,1
304,311,304,308,1
305,313,303,310,1
306,312,303,312,1
306,310,302,313,1
306,308,301,312,1
304,307,300,309,1
302,306,299,306,1
301,307,299,304,1
302,309,301,302,1
303,310,303,300,1
305,310,305,298,1
307,309,307,297,1
309,307,309,298,1
311,305,309,299,1
312,305,309,298,1
313,304,308,297,1
312,304,308,295,1
310,304,307,291,1
307,304,305,289,1
303,304,303,286,1
299,304,300,285,1
296,304,297,284,1
294,303,295,285,1
293,301,295,287,1
294,299,297,290,1
296,299,300,295,1
299,301,303,301,1
301,303,306,305,1
303,305,308,307,1
304,306,308,306,1
305,307,309,305,1
306,310,310,305,1
306,314,311,306,1
308,317,311,307,1
309,320,312,310,1
311,324,312,312,1
313,327,312,315,1
313,328,311,316,1
312,327,309,316,1
310,323,305,314,1
308,317,302,312,1
306,311,298,309,1
304,306,296,307,1
304,301,297,306,1
304,297,299,306,1
303,293,301,306,1
304,290,304,307,1
305,288,308,309,1
306,288,311,311,1
307,288,311,311,1
305,289,310,310,1
303,288,308,309,1
301,288,307,308,1
301,289,307,307,1
301,291,307,306,1
303,292,308,306,1
306,294,309,307,1
310,297,310,309,1
313,298,311,311,1
314,299,312,311,1
314,300,313,310,1
314,300,313,307,1
313,301,313,305,1
312,304,313,306,1
312,312,313,308,1
312,320,313,309,1
311,329,313,310,1
310,335,312,309,1
309,340,311,308,1
308,341,310,308,1
307,338,308,307,1
306,334,308,308,1
306,329,308,309,1
308,326,309,310,1
309,320,309,311,1
308,312,309,310,1
307,303,308,308,1
305,296,307,307,1
303,289,305,305,1
302,285,304,304,1
301,282,303,303,1
301,282,302,303,1
301,286,301,304,1
302,293,301,306,1
303,300,301,308,1
304,303,300,309,1
304,303,300,308,1
304,301,300,308,1
304,300,301,307,1
304,299,301,306,1
304,299,302,304,1
304,301,302,303,1
303,303,303,302,1
302,306,303,302,1
302,307,303,302,1
301,305,303,302,1
301,302,303,303,1
301,299,304,304,1
301,297,305,306,1
302,296,306,308,1
304,297,307,310,1
305,297,307,310,1
307,298,307,308,1
307,299,306,307,1
307,300,305,306,1
305,300,305,306,1
302,299,304,305,1
299,298,303,303,1
297,296,302,301,1
297,297,302,300,1
298,300,301,300,1
297,303,300,299,1
296,306,298,299,1
295,308,297,300,1
294,307,297,301,1
294,305,297,302,1
294,304,298,303,1
294,303,299,304,1
295,302,300,304,1
297,302,301,305,1
299,302,302,306,1
301,303,304,306,1
302,303,304,306,1
303,303,303,305,1
303,302,303,304,1
304,303,303,304,1
305,305,304,304,1
305,306,304,306,1
305,307,305,307,1
307,309,306,308,1
307,315,307,308,1
307,324,307,309,1
307,334,307,309,1
306,345,307,311,1
305,354,306,311,1
304,360,304,311,1
304,359,301,310,1
303,352,299,309,1
304,338,298,308,1
304,323,297,306,1
304,311,298,305,1
305,302,302,304,1
307,295,306,304,1
308,291,310,303,1
309,288,313,303,1
310,284,313,300,1
309,280,311,298,1
308,277,309,297,1
308,275,309,298,1
309,277,309,302,1
309,281,310,307,1
309,287,309,310,1
308,293,309,312,1
308,297,308,313,1
308,299,308,313,1
308,298,308,312,1
308,297,308,310,1
309,297,309,309,1
310,298,310,308,1
311,298,310,306,1
310,298,311,303,1
310,299,310,300,1
309,300,309,297,1
309,301,308,293,1
308,305,307,289,1
307,310,307,287,1
305,316,308,288,1
306,322,309,290,1
307,328,310,295,1
309,334,312,300,1
311,340,312,304,1
311,338,312,306,1
310,330,311,307,1
309,320,310,306,1
306,312,309,305,1
304,306,307,303,1
302,303,306,302,1
302,301,304,300,1
302,302,304,298,1
303,303,303,297,1
305,304,302,296,1
306,303,301,294,1
306,300,300,292,1
305,297,300,289,1
304,296,300,288,1
304,296,301,287,1
305,295,302,288,1
307,295,303,291,1
309,295,304,297,1
310,296,306,301,1
310,297,306,306,1
309,299,307,308,1
307,301,307,309,1
306,303,306,308,1
304,305,305,307,1
304,307,303,305,1
303,307,302,303,1
302,307,301,302,1
303,308,299,300,1
303,310,297,299,1
305,313,296,299,1
307,314,295,300,1
307,314,295,302,1
308,312,295,304,1
308,311,296,305,1
308,313,297,306,1
308,317,299,308,1
308,322,301,309,1
307,326,302,309,1
307,328,302,309,1
307,326,302,309,1
307,320,301,309,1
306,312,300,307,1
306,304,299,305,1
306,299,299,302,1
307,298,300,300,1
307,299,301,299,1
306,301,300,296,1
305,302,298,293,1
303,303,297,291,1
302,303,296,291,1
300,303,297,292,1
299,302,298,295,1
300,300,300,298,1
301,300,302,301,1
303,301,304,306,1
305,304,306,311,1
307,308,309,315,1
309,311,311,318,1
310,311,312,319,1
310,307,312,319,1
308,298,311,317,1
307,290,310,316,1
305,286,309,315,1
304,285,308,316,1
305,287,307,315,1
305,289,306,314,1
305,292,305,313,1
305,295,304,312,1
305,297,303,311,1
305,298,302,311,1
305,298,302,310,1
304,299,302,309,1
303,299,302,308,1
302,300,302,305,1
301,301,302,302,1
301,303,301,298,1
301,306,300,294,1
302,313,300,292,1
303,322,299,291,1
305,331,299,291,1
306,337,299,291,1
307,340,298,292,1
308,339,299,295,1
307,334,300,297,1
304,324,302,299,1
301,315,304,301,1
299,308,307,302,1
296,304,308,304,1
296,302,310,304,1
296,299,311,303,1
297,297,311,301,1
299,296,310,300,1
301,296,308,300,1
303,295,307,299,1
304,294,306,299,1
305,293,305,299,1
306,291,305,299,1
306,291,306,298,1
306,291,306,298,1
305,292,307,297,1
304,293,308,297,1
303,297,310,299,1
302,304,311,302,1
302,314,312,304,1
303,321,311,305,1
303,326,310,303,1
303,329,309,302,1
305,330,309,303,1
308,328,309,305,1
311,323,311,309,1
312,318,312,312,1
313,315,312,314,1
313,313,312,315,1
311,311,311,315,1
307,307,311,313,1
304,305,310,310,1
302,303,310,308,1
301,302,310,306,1
300,300,310,304,1
301,298,311,303,1
303,296,311,303,1
304,293,311,304,1
304,291,310,305,1
304,290,309,305,1
303,289,306,306,1
301,289,303,306,1
301,291,301,307,1
301,293,300,307,1
302,295,299,308,1
303,296,300,308,1
305,297,301,308,1
307,297,304,309,1
308,297,305,308,1
309,298,307,306,1
309,300,309,304,1
308,303,310,303,1
307,305,311,302,1
307,306,312,301,1
306,307,313,300,1
307,308,313,301,1
307,310,314,303,1
308,313,314,305,1
308,315,313,308,1
307,316,313,308,1
306,315,312,307,1
306,314,311,304,1
306,313,309,302,1
306,313,307,299,1
307,316,306,299,1
308,318,306,299,1
309,319,306,299,1
309,315,306,299,1
308,310,305,299,1
308,308,303,300,1
308,306,303,302,1
309,307,304,304,1
310,309,305,306,1
311,312,305,309,1
311,316,305,312,1
310,317,305,314,1
309,315,305,314,1
307,312,304,314,1
305,309,304,314,1
304,308,304,313,1
303,309,303,313,1
304,309,302,313,1
305,309,302,312,1
306,310,301,312,1
309,312,302,311,1
311,317,304,308,1
312,323,305,305,1
311,330,306,302,1
311,335,306,300,1
310,337,305,298,1
309,336,305,296,1
308,330,305,293,1
307,321,306,292,1
305,311,306,291,1
303,301,306,290,1
300,292,304,290,1
299,285,303,291,1
298,278,302,292,1
298,274,302,295,1
300,275,304,301,1
302,281,307,308,1
305,288,311,315,1
306,297,314,320,1
306,304,316,322,1
306,309,316,323,1
304,311,315,323,1
303,311,314,321,1
302,307,312,319,1
302,302,311,317,1
302,297,309,314,1
302,293,306,311,1
303,290,303,309,1
304,290,300,308,1
304,291,297,306,1
303,293,295,305,1
302,294,295,304,1
301,296,296,303,1
300,298,298,304,1
301,300,300,303,1
303,302,302,302,1
303,303,303,300,1
303,302,304,299,1
303,301,304,299,1
303,301,305,301,1
304,302,305,304,1
305,303,306,306,1
306,305,307,308,1
307,310,309,312,1
308,315,311,315,1
308,317,312,316,1
306,315,311,314,1
304,311,310,312,1
302,307,309,310,1
302,306,308,308,1
303,308,307,308,1
304,311,307,308,1
307,313,306,309,1
309,315,306,312,1
311,318,306,315,1
313,321,307,318,1
313,323,307,320,1
314,325,308,321,1
314,325,308,321,1
314,324,308,320,1
314,325,308,318,1
313,329,308,315,1
311,334,307,312,1
309,338,306,308,1
307,336,305,305,1
304,330,303,302,1
302,320,301,301,1
301,309,301,301,1
301,300,301,303,1
301,292,302,306,1
301,288,303,308,1
301,286,304,311,1
302,285,304,313,1
302,285,304,314,1
303,284,304,314,1
303,284,303,313,1
304,286,301,312,1
304,288,300,311,1
304,291,299,310,1
305,294,298,311,1
306,298,298,311,1
305,302,298,311,1
305,305,299,311,1
306,308,299,311,1
307,310,299,310,1
309,313,298,309,1
310,316,298,307,1
311,321,298,305,1
311,324,298,304,1
309,327,299,302,1
308,330,300,302,1
307,331,301,302,1
307,330,303,304,1
307,328,304,306,1
307,326,305,307,1
308,325,305,309,1
308,323,306,311,1
307,320,306,313,1
305,316,306,314,1
303,310,305,313,1
302,303,304,312,1
301,295,304,311,1
301,288,303,309,1
300,283,303,308,1
299,282,303,308,1
299,282,302,307,1
299,283,301,308,1
298,285,300,307,1
299,288,300,307,1
299,291,299,307,1
300,294,298,308,1
302,297,298,309,1
304,300,299,311,1
306,303,299,313,1
308,305,299,313,1
309,306,298,312,1
309,308,299,310,1
311,311,300,309,1
313,314,301,308,1
315,315,301,306,1
314,316,300,305,1
312,314,299,303,1
309,313,299,301,1
307,313,300,300,1
305,314,301,300,1
303,314,303,300,1
301,313,304,302,1
300,313,305,305,1
300,312,306,308,1
302,312,306,311,1
303,312,307,313,1
305,310,307,313,1
306,309,307,313,1
307,309,307,313,1
308,310,307,314,1
308,314,308,314,1
308,320,308,315,1
308,327,307,316,1
308,332,307,317,1
308,334,307,316,1
308,331,306,316,1
307,324,304,314,1
306,314,303,313,1
306,304,302,313,1
305,298,302,314,1
305,297,303,315,1
304,296,303,317,1
304,297,304,318,1
303,297,303,319,1
303,297,303,319,1
303,298,302,317,1
304,300,302,314,1
305,304,302,310,1
305,309,302,306,1
305,316,301,303,1
305,322,300,299,1
305,327,300,297,1
305,330,300,297,1
305,329,301,300,1
307,326,303,303,1
309,324,304,306,1
310,322,305,308,1
311,321,305,310,1
310,318,306,312,1
309,314,306,313,1
308,310,307,313,1
307,304,307,313,1
305,296,306,312,1
304,288,305,311,1
302,281,305,311,1
300,276,304,311,1
300,274,304,311,1
301,275,304,312,1
302,278,306,314,1
303,282,307,316,1
304,287,307,318,1
304,291,307,320,1
305,294,306,321,1
304,297,305,321,1
303,301,303,320,1
303,303,301,318,1
303,306,302,316,1
303,307,303,314,1
304,306,304,314,1
304,306,305,315,1
305,304,305,315,1
306,303,306,316,1
306,302,306,316,1
306,301,307,316,1
306,300,307,315,1
306,300,308,314,1
306,302,307,313,1
305,304,307,311,1
304,306,306,309,1
304,306,305,306,1
304,305,304,304,1
304,304,304,302,1
305,304,303,299,1
306,303,303,299,1
308,303,304,301,1
309,304,304,304,1
310,308,305,307,1
310,317,305,309,1
309,328,304,310,1
308,339,303,309,1
307,347,302,307,1
307,353,300,306,1
306,354,297,304,1
306,349,295,305,1
306,339,295,307,1
307,326,296,310,1
306,312,299,314,1
306,299,301,317,1
304,290,304,320,1
304,284,306,323,1
303,280,307,324,1
301,277,307,323,1
299,276,306,322,1
298,275,306,319,1
298,277,306,317,1
299,280,307,315,1
301,284,308,313,1
303,288,308,311,1
304,291,308,309,1
305,294,307,307,1
305,295,306,305,1
306,296,305,304,1
305,296,303,303,1
305,296,303,302,1
305,297,303,303,1
306,298,303,303,1
306,299,304,304,1
306,299,305,304,1
306,301,306,303,1
307,302,307,304,1
307,305,308,304,1
307,308,310,305,1
306,310,310,307,1
305,310,311,308,1
304,310,310,309,1
303,310,309,311,1
304,311,308,312,1
304,313,307,313,1
305,315,306,314,1
305,319,306,314,1
306,324,307,315,1
307,329,308,315,1
308,333,309,315,1
310,334,309,315,1
312,332,310,314,1
314,329,310,312,1
315,325,309,309,1
314,322,308,307,1
312,320,307,304,1
309,316,306,301,1
304,311,304,299,1
300,304,303,297,1
296,295,302,296,1
293,288,301,296,1
291,284,299,295,1
290,282,298,295,1
290,282,296,293,1
290,282,293,291,1
290,284,292,291,1
291,285,292,290,1
291,286,293,290,1
293,288,295,290,1
293,289,297,291,1
294,290,299,293,1
296,292,301,296,1
297,294,304,298,1
299,296,307,301,1
301,298,311,304,1
303,300,313,308,1
305,300,315,310,1
307,302,316,312,1
308,303,317,312,1
308,303,316,312,1
308,304,314,310,1
307,304,312,308,1
306,305,311,306,1
305,307,310,305,1
305,308,310,308,1
306,311,311,311,1
307,314,312,314,1
308,319,313,316,1
309,325,313,316,1
310,332,313,314,1
309,340,312,312,1
309,349,312,311,1
308,355,311,310,1
306,356,311,309,1
305,350,311,310,1
305,339,312,311,1
305,323,311,312,1
305,308,311,313,1
305,297,310,313,1
306,290,309,311,1
307,287,308,308,1
307,286,307,305,1
307,285,305,304,1
307,286,305,304,1
308,287,304,306,1
308,290,304,308,1
307,293,303,311,1
306,295,302,313,1
305,298,301,314,1
304,301,301,315,1
303,303,301,314,1
302,304,302,313,1
300,304,303,312,1
298,305,304,312,1
298,307,307,313,1
299,311,310,314,1
300,315,313,314,1
301,318,314,315,1
303,320,314,313,1
304,320,314,312,1
305,317,314,310,1
305,313,313,309,1
305,309,314,308,1
306,305,313,308,1
307,302,313,308,1
308,300,314,309,1
309,302,314,309,1
310,306,314,309,1
311,311,314,307,1
312,316,314,305,1
312,321,313,303,1
312,326,312,303,1
312,330,313,303,1
314,333,313,304,1
315,333,313,303,1
315,328,313,300,1
313,319,311,297,1
310,311,309,295,1
306,304,309,295,1
304,299,309,299,1
302,295,309,303,1
301,293,308,308,1
301,293,306,311,1
301,294,305,312,1
301,295,304,310,1
302,296,304,306,1
303,297,305,301,1
303,298,305,297,1
302,298,305,293,1
301,298,305,290,1
300,298,305,289,1
299,296,304,289,1
300,295,305,290,1
300,296,307,293,1
301,300,309,298,1
302,305,310,301,1
304,311,309,304,1
304,319,309,307,1
305,329,307,311,1
306,339,306,313,1
307,346,306,316,1
308,348,307,317,1
309,344,309,318,1
310,338,311,317,1
312,333,313,317,1
313,330,314,318,1
313,326,314,319,1
314,321,314,322,1
315,315,313,325,1
314,308,311,327,1
313,302,309,327,1
310,294,307,326,1
308,287,308,324,1
307,282,309,322,1
307,280,311,320,1
308,280,313,319,1
308,282,314,317,1
307,284,314,315,1
307,288,313,314,1
308,292,312,312,1
308,296,312,310,1
308,299,312,309,1
308,301,311,308,1
307,304,311,307,1
307,306,310,306,1
307,308,310,305,1
307,308,309,303,1
307,306,309,302,1
305,303,308,302,1
303,300,308,302,1
302,299,308,302,1
302,298,308,303,1
302,297,307,302,1
302,296,305,301,1
302,297,303,300,1
303,300,302,300,1
305,303,301,299,1
307,306,300,300,1
309,310,300,303,1
311,314,302,308,1
312,316,305,314,1
312,317,306,317,1
310,317,308,317,1
308,316,308,315,1
307,316,309,313,1
308,314,309,309,1
307,311,308,305,1
306,306,307,302,1
305,302,306,301,1
304,300,306,303,1
304,301,307,305,1
304,302,307,308,1
303,303,308,311,1
303,305,309,312,1
304,307,310,313,1
304,308,309,313,1
305,309,308,312,1
305,310,306,310,1
305,312,304,307,1
304,316,304,304,1
303,324,304,302,1
302,335,305,302,1
302,347,306,304,1
302,354,307,305,1
302,353,306,306,1
301,346,304,307,1
301,338,302,307,1
301,333,301,308,1
301,329,302,310,1
303,325,303,312,1
305,319,305,312,1
307,310,307,310,1
308,302,309,309,1
310,297,310,311,1
311,291,311,312,1
310,287,312,314,1
309,282,312,315,1
308,280,311,314,1
306,277,310,313,1
305,274,309,311,1
302,272,308,308,1
300,271,306,306,1
299,273,306,306,1
298,277,307,307,1
299,281,308,309,1
300,286,310,313,1
301,289,312,317,1
303,292,313,320,1
304,294,314,321,1
304,295,315,321,1
304,296,314,320,1
303,296,313,318,1
302,295,311,315,1
301,295,310,313,1
301,295,310,312,1
302,296,309,311,1
304,298,310,311,1
305,301,309,311,1
306,304,309,312,1
307,307,309,313,1
307,309,309,313,1
306,309,308,312,1
305,308,307,310,1
304,308,306,308,1
302,309,305,306,1
301,310,303,304,1
301,311,303,304,1
303,310,304,303,1
304,309,306,305,1
306,308,307,307,1
307,307,309,310,1
306,307,311,311,1
305,308,312,312,1
304,309,312,311,1
304,307,311,310,1
303,305,310,309,1
303,302,308,309,1
303,301,307,308,1
303,302,305,308,1
305,304,305,309,1
307,307,305,310,1
308,310,304,309,1
309,311,304,306,1
308,316,304,304,1
308,323,304,304,1
307,330,304,305,1
307,336,304,307,1
308,339,305,310,1
308,340,307,314,1
309,339,309,317,1
310,330,309,318,1
310,316,308,316,1
309,303,307,314,1
308,297,305,312,1
307,296,305,313,1
307,298,306,314,1
308,302,307,317,1
308,306,308,319,1
309,310,309,319,1
311,314,311,319,1
313,317,312,319,1
314,315,312,318,1
315,309,311,315,1
314,302,310,312,1
313,297,308,308,1
310,294,306,306,1
307,293,305,304,1
303,294,303,302,1
299,296,303,301,1
297,300,302,300,1
297,303,302,300,1
299,307,303,301,1
302,306,304,303,1
304,305,305,306,1
305,303,306,310,1
306,303,307,314,1
306,304,307,318,1
306,308,307,321,1
306,312,307,323,1
306,316,308,325,1
307,319,309,325,1
309,321,310,325,1
310,319,311,324,1
311,314,312,322,1
310,307,313,320,1
310,302,313,318,1
309,298,312,316,1
308,298,311,314,1
308,300,310,314,1
306,302,309,313,1
305,304,308,312,1
304,305,309,313,1
305,305,309,313,1
306,303,309,313,1
307,302,308,312,1
308,301,308,312,1
308,302,308,312,1
309,303,308,312,1
311,304,309,312,1
311,304,309,311,1
310,303,309,311,1
310,303,309,310,1
310,305,309,311,1
310,308,310,313,1
312,310,311,315,1
312,313,311,316,1
311,316,311,316,1
309,318,311,315,1
308,319,310,313,1
307,319,310,311,1
308,318,310,309,1
309,319,309,308,1
311,322,309,307,1
312,327,308,306,1
313,330,307,305,1
311,331,306,302,1
310,328,304,299,1
307,323,303,296,1
305,320,302,295,1
303,317,302,296,1
302,316,303,298,1
302,313,304,299,1
301,306,304,299,1
301,296,303,298,1
300,285,303,298,1
300,280,303,299,1
300,281,304,301,1
302,285,304,302,1
304,288,304,304,1
306,292,303,305,1
307,294,300,306,1
307,293,297,305,1
306,292,297,305,1
307,292,299,307,1
307,293,301,310,1
307,295,305,313,1
307,297,307,314,1
306,299,309,314,1
305,300,309,313,1
305,301,310,312,1
305,300,311,310,1
304,300,311,307,1
303,300,311,304,1
303,301,311,302,1
303,303,310,301,1
304,308,310,301,1
305,314,309,301,1
306,319,308,301,1
306,323,308,302,1
306,322,307,304,1
306,319,306,306,1
305,313,304,308,1
302,306,303,310,1
299,301,301,311,1
297,298,301,313,1
297,299,302,315,1
298,302,303,315,1
299,303,305,314,1
300,304,306,313,1
301,304,305,311,1
303,304,305,307,1
303,304,305,303,1
304,304,304,301,1
304,306,303,302,1
305,310,303,305,1
305,314,303,308,1
305,316,303,309,1
305,317,303,310,1
305,319,303,312,1
306,323,303,316,1
308,326,304,319,1
310,328,303,320,1
312,329,302,319,1
313,329,301,318,1
313,331,301,317,1
313,333,302,315,1
313,337,303,314,1
310,343,304,312,1
307,350,304,311,1
305,352,305,311,1
303,348,304,310,1
302,340,304,310,1
300,330,304,311,1
299,320,305,311,1
299,311,305,311,1
300,303,306,311,1
302,295,307,311,1
302,290,307,310,1
303,286,306,308,1
302,283,305,306,1
