308,271,309,312,0
308,264,308,312,0
308,263,307,312,0
308,264,307,311,0
309,267,306,310,0
309,274,305,308,0
310,286,303,307,0
311,301,300,306,0
310,317,297,305,0
307,328,295,304,0
304,332,294,303,0
301,333,295,303,0
300,331,296,304,0
299,327,298,305,0
299,324,299,307,0
301,325,300,308,0
303,327,301,309,0
306,330,300,309,0
307,328,300,307,0
307,317,299,306,0
307,302,299,306,0
307,288,299,305,0
306,282,299,305,0
307,283,300,305,0
306,293,301,305,0
306,305,303,305,0
305,317,304,305,0
304,324,306,307,0
305,322,307,308,0
305,313,309,309,0
305,304,309,310,0
306,298,310,311,0
306,298,309,312,0
307,302,310,313,0
308,307,311,314,0
307,309,311,314,0
307,304,311,314,0
307,294,311,314,0
307,284,311,313,0
308,276,311,313,0
310,275,312,312,0
311,281,312,312,0
311,288,311,310,0
310,296,309,309,0
309,305,308,308,0
310,316,308,308,0
310,325,308,308,0
311,332,308,309,0
311,338,308,310,0
311,340,308,310,0
309,335,308,309,0
307,321,307,307,0
305,305,305,305,0
304,293,303,303,0
303,289,302,301,0
303,291,301,300,0
304,298,301,299,0
306,309,302,300,0
308,322,305,302,0
310,332,308,305,0
311,337,311,309,0
310,335,312,311,0
309,328,312,311,0
308,316,311,311,0
307,302,309,311,0
306,289,308,309,0
306,280,307,308,0
306,275,307,308,0
306,274,306,309,0
306,276,306,309,0
306,281,305,308,0
306,289,304,307,0
306,301,304,306,0
307,317,303,305,0
308,335,303,305,0
309,351,303,305,0
309,359,304,305,0
308,358,303,304,0
308,349,303,304,0
308,333,303,304,0
308,312,302,305,0
308,293,302,306,0
309,280,302,308,0
311,272,303,308,0
312,268,303,308,0
312,266,303,307,0
311,270,303,306,0
310,282,301,305,0
308,298,299,303,0
306,316,296,302,0
304,332,294,302,0
304,345,293,302,0
304,349,292,303,0
303,340,293,303,0
303,324,293,302,0
301,306,294,301,0
300,294,295,301,0
300,288,297,301,0
300,286,298,302,0
300,286,300,303,0
302,287,302,304,0
304,285,304,306,0
305,283,305,307,0
306,280,305,308,0
307,278,305,308,0
307,280,304,309,0
309,289,303,310,0
310,304,302,311,0
310,325,301,312,0
309,346,300,312,0
307,354,299,311,0
306,343,298,310,0
304,326,298,309,0
304,311,299,309,0
304,302,299,309,0
304,297,299,309,0
304,297,299,310,0
303,299,298,310,0
302,307,297,310,0
302,316,297,311,0
303,327,299,312,0
304,335,301,313,0
305,337,302,314,0
305,331,303,314,0
304,320,303,314,0
303,309,303,312,0
302,299,301,311,0
302,293,301,308,0
302,287,301,306,0
302,281,301,304,0
303,276,303,303,0
305,275,304,303,0
307,276,307,304,0
309,281,309,306,0
312,289,311,308,0
313,302,311,309,0
312,315,310,309,0
310,321,308,308,0
306,323,305,307,0
303,323,303,306,0
301,328,303,306,0
300,338,303,307,0
299,350,304,307,0
299,359,304,306,0
300,359,304,307,0
301,353,304,308,0
301,341,304,308,0
301,334,304,309,0
301,336,304,310,0
301,340,303,311,0
300,341,302,311,0
299,335,301,309,0
298,321,301,308,0
298,300,300,307,0
297,281,300,305,0
297,269,299,304,0
297,263,298,303,0
298,260,298,302,0
299,259,298,302,0
301,261,299,303,0
302,265,301,305,0
304,269,302,308,0
305,270,303,310,0
306,270,303,311,0
306,270,303,312,0
306,274,303,312,0
306,281,302,312,0
305,292,300,311,0
303,307,299,309,0
302,324,299,307,0
302,339,299,305,0
303,349,300,304,0
303,352,302,304,0
304,354,304,304,0
305,364,305,306,0
306,382,306,307,0
306,399,307,309,0
306,408,306,310,0
306,403,305,311,0
305,378,304,310,0
304,341,303,310,0
302,302,301,308,0
300,272,298,306,0
299,253,295,304,0
299,245,292,301,0
299,248,289,300,0
301,256,289,299,0
302,271,290,299,0
305,297,294,301,0
306,326,298,303,0
308,348,301,305,0
307,361,304,305,0
307,364,306,307,0
306,350,307,307,0
305,324,307,307,0
304,294,306,307,0
305,265,305,306,0
306,244,303,307,0
308,233,303,307,0
309,233,303,308,0
310,238,303,308,0
311,241,302,309,0
311,243,302,309,0
310,247,302,308,0
309,254,302,308,0
309,261,302,309,0
309,270,302,310,0
309,279,301,312,0
308,290,301,312,0
308,301,299,313,0
308,310,299,313,0
309,320,299,313,0
310,327,300,314,0
310,330,300,315,0
309,330,300,313,0
307,330,298,312,0
306,332,298,312,0
305,337,298,311,0
305,344,299,310,0
305,351,300,309,0
305,356,301,309,0
304,353,303,308,0
303,342,304,308,0
302,324,305,307,0
301,302,305,306,0
301,283,304,305,0
301,270,304,304,0
301,262,303,303,0
302,258,303,302,0
302,256,303,303,0
303,257,303,303,0
304,264,303,304,0
306,273,303,304,0
307,283,304,304,0
308,293,304,304,0
309,305,304,306,0
311,322,305,308,0
313,339,306,310,0
314,347,307,311,0
313,341,307,311,0
313,325,307,311,0
313,303,308,310,0
313,283,308,310,0
313,269,308,310,0
313,261,307,309,0
313,257,307,307,0
312,259,307,306,0
312,264,308,305,0
312,272,309,305,0
312,280,310,305,0
311,287,309,305,0
310,292,307,303,0
308,296,305,299,0
305,299,301,296,0
304,306,299,295,0
305,314,299,294,0
305,319,301,294,0
307,319,304,296,0
309,314,307,298,0
310,306,310,301,0
311,300,311,304,0
311,298,310,306,0
311,297,309,306,0
310,297,307,307,0
310,307,306,308,0
311,326,305,309,0
311,350,306,312,0
312,373,309,316,0
313,382,311,320,0
312,371,313,321,0
310,350,314,321,0
310,336,314,321,0
309,336,315,321,0
310,344,315,321,0
308,344,313,320,0
306,327,310,318,0
304,299,307,316,0
302,274,304,313,0
302,263,303,312,0
302,261,302,312,0
303,267,302,312,0
304,275,303,312,0
305,284,303,312,0
306,290,304,312,0
307,292,304,312,0
308,292,305,312,0
309,293,307,312,0
311,295,308,312,0
311,295,309,311,0
310,291,308,310,0
309,285,308,308,0
306,282,307,306,0
305,284,307,305,0
305,287,306,304,0
305,290,307,304,0
306,293,306,305,0
307,300,306,306,0
307,311,306,305,0
307,321,305,303,0
305,324,305,302,0
304,319,305,302,0
302,313,306,302,0
302,307,307,302,0
302,303,308,303,0
303,298,309,304,0
304,295,310,306,0
304,294,310,307,0
304,293,310,308,0
303,293,309,308,0
303,300,309,308,0
303,314,308,307,0
305,333,309,307,0
306,353,309,307,0
308,366,308,309,0
309,364,307,309,0
309,347,306,309,0
309,328,306,309,0
309,316,306,311,0
309,307,307,313,0
310,299,306,314,0
310,293,306,315,0
311,292,305,315,0
310,288,303,314,0
308,281,301,312,0
306,275,300,310,0
305,273,300,308,0
305,276,300,307,0
306,281,299,305,0
306,286,298,304,0
307,292,297,303,0
306,291,296,301,0
304,286,296,300,0
303,281,297,300,0
303,281,298,301,0
304,287,300,303,0
304,298,301,303,0
304,310,301,304,0
303,317,301,305,0
304,318,301,306,0
304,315,302,309,0
306,308,304,311,0
307,298,305,312,0
307,287,306,313,0
307,280,306,313,0
307,280,307,312,0
307,287,307,311,0
306,299,307,311,0
307,315,307,311,0
308,333,308,312,0
310,347,310,314,0
311,356,311,317,0
311,358,312,318,0
312,356,311,319,0
312,351,310,319,0
312,349,310,318,0
311,351,310,316,0
309,357,309,313,0
309,361,308,311,0
308,364,308,310,0
307,367,308,308,0
308,370,308,309,0
308,373,310,311,0
310,372,312,314,0
311,361,314,317,0
311,341,314,319,0
309,315,314,319,0
307,287,313,317,0
304,262,312,314,0
303,248,311,312,0
303,248,311,310,0
303,250,310,308,0
303,247,308,305,0
303,243,305,303,0
302,245,303,301,0
301,252,302,301,0
301,261,302,301,0
301,267,303,301,0
301,271,304,302,0
300,278,306,303,0
300,290,307,304,0
302,305,310,306,0
303,320,312,307,0
304,329,314,307,0
304,331,314,307,0
306,333,314,308,0
307,339,313,309,0
308,348,313,310,0
308,361,311,310,0
308,379,310,311,0
308,400,309,311,0
308,415,309,312,0
307,408,309,310,0
305,373,307,308,0
303,324,307,306,0
302,284,307,305,0
303,267,307,305,0
305,269,306,306,0
306,279,305,305,0
306,284,304,304,0
305,288,301,303,0
304,289,299,303,0
302,290,296,301,0
302,291,293,300,0
300,291,291,298,0
299,288,289,295,0
298,287,289,294,0
299,295,290,295,0
300,312,293,298,0
301,327,295,302,0
301,332,297,306,0
302,331,298,309,0
303,325,298,311,0
304,316,298,312,0
305,307,298,313,0
306,301,298,315,0
306,294,299,314,0
304,283,300,313,0
303,273,301,311,0
301,266,302,310,0
301,266,303,309,0
301,273,304,308,0
301,286,304,307,0
302,299,304,306,0
302,303,304,305,0
303,298,303,305,0
304,289,302,305,0
305,287,302,304,0
305,290,302,303,0
306,298,303,302,0
306,307,304,302,0
306,312,304,303,0
306,311,304,304,0
306,307,304,306,0
306,301,303,307,0
305,296,302,308,0
305,297,301,309,0
305,306,301,312,0
306,322,302,315,0
306,336,303,318,0
306,343,304,319,0
306,350,306,319,0
308,359,307,318,0
308,361,308,316,0
308,350,308,315,0
308,331,308,313,0
307,304,306,310,0
306,276,304,307,0
304,257,303,305,0
303,249,302,303,0
302,251,303,302,0
301,258,304,303,0
301,265,306,304,0
300,270,308,305,0
300,273,310,305,0
300,275,312,305,0
300,279,313,306,0
301,283,315,306,0
302,289,315,305,0
303,297,314,305,0
304,308,312,303,0
306,322,311,303,0
307,337,310,303,0
308,349,309,304,0
309,353,308,306,0
310,351,307,307,0
310,346,305,307,0
311,344,303,307,0
311,345,301,306,0
311,340,299,305,0
310,325,298,304,0
309,302,299,304,0
307,277,303,304,0
306,256,308,306,0
305,242,314,307,0
304,239,319,307,0
305,247,322,309,0
305,264,323,309,0
304,282,322,309,0
303,294,319,307,0
302,301,314,305,0
302,307,311,303,0
302,315,307,300,0
302,329,303,299,0
303,346,300,298,0
304,361,298,298,0
304,367,298,298,0
304,363,300,300,0
304,352,302,302,0
305,338,302,305,0
307,328,302,308,0
307,321,300,310,0
308,313,298,311,0
308,306,295,312,0
309,299,292,314,0
309,291,292,314,0
310,285,294,313,0
310,281,299,313,0
311,279,305,311,0
310,278,311,310,0
309,277,315,307,0
307,278,315,305,0
306,284,313,303,0
304,294,310,302,0
301,304,307,300,0
299,309,304,299,0
298,313,302,299,0
298,315,303,301,0
299,317,304,303,0
301,321,306,306,0
303,332,307,309,0
305,351,307,310,0
306,374,306,311,0
307,395,306,312,0
307,403,306,312,0
306,388,306,312,0
305,360,307,311,0
304,336,307,310,0
304,321,306,310,0
303,309,306,309,0
303,301,306,308,0
304,300,306,309,0
305,304,307,309,0
308,308,307,309,0
311,312,309,310,0
314,312,310,311,0
315,304,311,310,0
315,292,309,309,0
313,281,308,308,0
311,275,306,306,0
308,276,305,304,0
304,277,303,302,0
301,276,300,300,0
299,276,298,300,0
299,278,297,300,0
299,281,297,301,0
300,285,298,303,0
303,288,298,305,0
305,287,298,308,0
307,284,298,308,0
309,284,299,310,0
310,287,299,311,0
310,290,300,311,0
309,291,300,311,0
308,291,301,311,0
308,292,302,311,0
308,293,302,310,0
308,298,303,310,0
308,307,303,309,0
308,319,304,309,0
308,335,305,309,0
307,351,305,310,0
307,358,305,309,0
308,356,304,308,0
308,345,303,306,0
307,330,300,304,0
306,317,298,303,0
306,309,297,303,0
307,307,297,303,0
309,310,298,305,0
310,314,300,308,0
312,317,302,311,0
314,323,304,314,0
315,333,306,315,0
315,345,305,313,0
314,355,303,310,0
312,355,302,308,0
309,341,301,307,0
305,320,301,306,0
303,300,304,307,0
301,284,308,308,0
301,270,311,309,0
301,260,313,309,0
302,259,313,309,0
303,266,312,310,0
305,278,310,310,0
306,292,307,309,0
307,301,304,308,0
307,301,301,306,0
307,295,298,305,0
306,284,297,304,0
305,275,296,304,0
305,271,297,304,0
304,271,300,305,0
303,273,303,305,0
301,279,304,305,0
300,289,306,306,0
300,299,306,307,0
300,307,308,309,0
301,313,310,310,0
302,315,312,312,0
304,315,314,313,0
305,312,315,313,0
305,308,314,312,0
306,304,313,311,0
306,305,312,310,0
307,313,310,310,0
309,326,309,310,0
310,344,308,310,0
311,359,306,310,0
311,365,305,309,0
310,361,303,310,0
310,353,303,310,0
309,341,303,309,0
308,327,304,308,0
307,316,305,306,0
306,311,308,305,0
305,310,312,305,0
304,307,315,305,0
304,303,316,306,0
303,302,316,307,0
304,309,314,309,0
305,326,313,310,0
307,344,312,311,0
309,351,311,312,0
310,350,311,313,0
311,336,311,313,0
310,313,311,312,0
308,290,310,310,0
305,275,309,309,0
302,267,309,307,0
301,266,309,307,0
301,271,310,307,0
302,285,312,309,0
303,301,313,310,0
305,314,314,312,0
307,320,314,312,0
307,314,314,310,0
307,302,313,308,0
307,292,311,307,0
306,287,309,306,0
305,288,307,306,0
305,289,305,304,0
305,290,303,303,0
305,289,300,302,0
306,286,298,299,0
306,285,296,298,0
305,290,297,297,0
305,301,299,297,0
305,312,302,299,0
306,317,305,302,0
305,313,307,304,0
304,304,308,304,0
303,292,307,304,0
301,283,307,303,0
300,279,305,302,0
299,282,304,301,0
299,294,304,301,0
300,316,303,301,0
302,343,303,303,0
303,366,302,304,0
304,372,301,303,0
304,357,299,301,0
305,330,299,301,0
305,306,301,301,0
305,286,304,303,0
305,271,308,306,0
306,259,312,309,0
308,252,314,312,0
310,250,316,313,0
312,255,316,314,0
312,267,318,315,0
312,284,318,316,0
313,302,319,316,0
313,319,319,316,0
312,334,317,315,0
311,342,314,315,0
309,347,312,316,0
309,356,310,318,0
308,362,310,318,0
307,362,309,317,0
305,358,308,316,0
303,351,307,315,0
302,338,305,312,0
300,320,304,310,0
299,306,302,308,0
298,295,301,307,0
298,289,301,305,0
299,287,301,305,0
301,289,302,305,0
304,298,303,306,0
307,313,305,308,0
311,328,306,311,0
313,335,307,312,0
314,328,308,313,0
312,311,309,313,0
310,294,308,313,0
307,284,308,311,0
305,280,307,309,0
304,278,305,308,0
303,277,303,306,0
303,278,302,306,0
304,281,302,306,0
304,286,303,307,0
304,292,305,310,0
303,299,306,311,0
303,306,307,311,0
304,311,308,311,0
305,312,307,310,0
306,308,308,310,0
307,304,308,310,0
308,302,309,312,0
309,305,310,313,0
310,313,309,313,0
310,321,308,311,0
309,329,304,308,0
309,331,301,305,0
308,324,297,303,0
307,316,294,301,0
306,312,294,301,0
306,315,296,303,0
305,321,300,307,0
304,321,304,310,0
302,311,308,313,0
301,300,312,315,0
302,294,314,316,0
303,296,316,317,0
303,303,316,316,0
303,312,315,314,0
303,321,315,314,0
303,322,314,313,0
303,313,313,311,0
302,301,312,310,0
302,291,311,309,0
302,284,311,308,0
303,279,311,307,0
305,275,311,306,0
307,271,310,306,0
309,268,310,306,0
310,270,309,307,0
309,277,307,307,0
307,286,305,306,0
305,295,303,305,0
303,305,302,304,0
302,317,300,302,0
302,331,300,302,0
302,344,302,302,0
303,356,304,303,0
304,364,306,305,0
305,367,307,308,0
307,358,307,310,0
307,339,306,311,0
306,318,304,311,0
306,301,302,312,0
305,291,302,313,0
306,289,302,314,0
307,295,302,315,0
309,307,303,316,0
310,321,305,315,0
311,336,307,313,0
312,345,309,311,0
313,344,311,310,0
313,335,312,309,0
312,326,310,309,0
311,320,306,308,0
309,314,301,305,0
305,300,296,301,0
300,282,291,296,0
296,266,288,291,0
294,255,288,287,0
294,249,292,285,0
294,246,297,284,0
296,245,302,286,0
297,246,306,290,0
299,251,309,295,0
300,259,309,300,0
301,267,309,303,0
302,277,309,305,0
302,289,309,307,0
302,307,309,309,0
302,329,309,310,0
303,350,309,311,0
304,360,309,312,0
304,356,309,312,0
303,341,309,312,0
303,322,309,312,0
302,307,310,312,0
302,299,311,313,0
301,296,313,313,0
301,296,314,313,0
301,300,314,312,0
301,305,314,311,0
301,310,314,312,0
302,320,313,313,0
303,337,313,313,0
304,360,313,314,0
305,386,313,314,0
305,399,312,314,0
304,386,311,312,0
302,350,310,307,0
299,309,308,304,0
297,279,307,302,0
297,263,308,302,0
297,258,308,302,0
297,259,306,301,0
297,264,302,298,0
297,270,298,297,0
297,277,295,297,0
299,284,294,299,0
300,289,296,302,0
302,293,298,304,0
304,297,302,307,0
307,302,306,308,0
308,309,309,310,0
308,316,311,311,0
309,319,311,312,0
308,316,311,312,0
307,310,311,310,0
305,301,310,309,0
304,291,309,307,0
302,282,309,305,0
300,275,309,304,0
299,269,310,303,0
299,266,310,302,0
299,268,310,300,0
299,277,309,300,0
299,292,307,300,0
299,310,304,299,0
298,325,301,297,0
297,335,298,295,0
296,339,295,294,0
296,338,294,295,0
298,340,296,297,0
299,344,299,300,0
300,343,304,304,0
301,336,309,308,0
302,326,313,312,0
302,315,315,315,0
304,306,315,316,0
305,300,315,318,0
306,299,315,318,0
307,302,315,319,0
309,307,314,319,0
310,314,313,317,0
309,319,311,315,0
308,321,308,312,0
307,317,305,310,0
306,306,302,309,0
304,293,300,308,0
303,282,298,307,0
301,275,297,306,0
300,272,297,305,0
298,272,297,304,0
297,276,297,302,0
296,285,296,302,0
296,297,295,302,0
296,307,295,302,0
296,314,295,304,0
298,316,296,305,0
299,314,300,307,0
301,313,304,308,0
303,315,309,309,0
304,325,313,310,0
306,336,314,310,0
306,340,313,310,0
306,331,311,309,0
306,315,309,308,0
306,297,308,308,0
307,283,308,308,0
307,274,307,308,0
309,269,307,309,0
310,269,307,308,0
310,276,306,308,0
310,285,305,307,0
308,293,303,305,0
306,297,302,303,0
304,298,301,302,0
303,294,300,301,0
302,289,299,300,0
302,293,299,300,0
303,307,300,302,0
305,328,300,303,0
307,347,301,304,0
308,361,300,304,0
308,365,300,304,0
308,361,300,304,0
308,355,299,303,0
307,343,299,303,0
307,330,300,302,0
307,323,301,302,0
306,323,303,303,0
306,328,304,303,0
305,334,306,304,0
305,336,307,305,0
306,328,307,306,0
306,306,306,306,0
306,278,306,305,0
306,254,307,305,0
307,240,307,305,0
308,235,308,304,0
309,239,309,304,0
310,249,309,304,0
310,261,309,304,0
309,272,308,303,0
306,284,307,302,0
304,296,305,302,0
303,306,305,303,0
303,313,305,303,0
303,316,305,303,0
303,316,305,303,0
304,316,305,303,0
305,316,306,303,0
306,318,306,303,0
306,319,306,303,0
306,318,306,303,0
305,315,305,303,0
304,311,305,303,0
304,306,305,303,0
304,302,305,303,0
304,299,305,303,0
304,297,305,303,0
303,298,305,304,0
303,298,305,304,0
303,298,304,304,0
303,296,303,303,0
303,293,303,303,0
303,289,303,303,0
304,287,303,304,0
305,288,302,305,0
305,290,303,305,0
306,294,303,306,0
306,299,303,306,0
307,308,304,306,0
309,322,304,308,0
310,336,305,309,0
310,351,306,310,0
308,365,306,310,0
307,375,305,311,0
306,378,305,311,0
305,375,305,311,0
304,364,304,310,0
303,347,304,308,0
302,323,303,306,0
302,297,302,303,0
302,274,301,301,0
302,259,301,301,0
302,253,301,302,0
303,251,302,303,0
304,255,303,304,0
306,261,304,306,0
306,269,306,308,0
307,278,307,310,0
307,288,308,311,0
307,299,309,312,0
307,312,310,312,0
308,328,310,313,0
308,343,310,313,0
308,355,310,313,0
307,360,309,312,0
306,355,307,310,0
306,341,305,308,0
305,325,304,308,0
306,311,304,308,0
305,296,303,309,0
305,283,303,311,0
304,275,303,311,0
304,272,302,311,0
305,273,301,311,0
304,276,300,311,0
303,280,299,310,0
302,284,298,309,0
301,287,297,308,0
300,287,297,307,0
300,284,298,305,0
300,282,298,304,0
302,278,299,304,0
304,276,301,304,0
307,273,302,305,0
308,268,303,305,0
310,265,304,307,0
310,266,305,308,0
311,273,306,309,0
311,287,307,310,0
312,305,307,310,0
311,324,307,310,0
311,340,307,309,0
312,353,306,309,0
312,359,306,307,0
312,359,304,307,0
311,356,302,305,0
310,348,299,304,0
307,336,296,302,0
304,324,292,300,0
301,310,289,299,0
299,295,289,298,0
298,281,291,298,0
296,267,296,298,0
296,259,302,300,0
296,258,308,303,0
296,264,313,304,0
296,275,316,306,0
296,287,318,308,0
295,299,317,309,0
295,309,315,311,0
295,319,313,311,0
296,329,311,312,0
298,337,310,312,0
300,344,310,313,0
302,349,309,314,0
305,355,309,316,0
308,362,309,317,0
310,368,309,317,0
311,368,308,316,0
310,352,307,314,0
308,326,305,311,0
306,299,304,309,0
304,282,302,307,0
303,274,302,306,0
303,273,302,304,0
303,275,302,303,0
303,279,302,303,0
303,283,302,303,0
304,287,303,303,0
304,290,304,303,0
306,297,304,304,0
306,309,303,305,0
308,328,302,306,0
309,352,301,306,0
310,377,300,307,0
309,387,298,307,0
306,377,295,305,0
304,353,293,304,0
302,329,293,304,0
301,310,296,304,0
303,300,300,306,0
305,297,305,307,0
307,299,308,308,0
307,301,310,309,0
307,304,311,310,0
308,309,310,310,0
308,310,310,309,0
307,308,308,307,0
306,303,306,305,0
306,296,304,303,0
305,288,303,301,0
304,280,303,299,0
305,270,306,300,0
307,260,310,304,0
308,252,313,307,0
310,244,316,310,0
311,238,318,310,0
312,234,319,311,0
313,234,321,311,0
315,238,321,312,0
315,245,321,311,0
314,253,318,310,0
312,264,314,308,0
309,279,310,306,0
306,296,307,304,0
304,315,305,303,0
303,332,304,304,0
303,345,303,305,0
305,354,303,306,0
307,362,302,307,0
309,364,302,308,0
310,359,302,307,0
310,349,304,305,0
309,335,307,304,0
307,316,312,303,0
304,298,318,302,0
301,287,322,302,0
299,283,323,303,0
298,286,322,303,0
298,294,320,304,0
298,301,316,304,0
299,306,314,305,0
299,308,313,306,0
301,307,313,308,0
303,302,313,310,0
304,294,312,309,0
306,287,312,308,0
308,290,311,307,0
309,299,311,308,0
310,315,310,309,0
311,335,309,310,0
310,350,308,311,0
309,357,308,312,0
307,360,309,313,0
306,355,311,314,0
305,338,313,313,0
305,313,315,311,0
306,289,315,309,0
306,273,314,308,0
307,270,311,306,0
307,275,309,305,0
307,285,309,305,0
307,295,309,304,0
307,302,310,303,0
307,300,309,301,0
306,291,306,299,0
305,282,302,297,0
303,278,299,296,0
303,277,298,297,0
302,277,299,301,0
303,281,302,304,0
304,291,305,307,0
305,302,307,309,0
306,309,308,309,0
306,311,309,308,0
306,307,309,307,0
307,298,308,307,0
307,288,307,306,0
307,281,305,306,0
308,281,303,307,0
308,287,301,308,0
308,294,299,308,0
307,302,299,307,0
305,309,300,307,0
302,315,303,306,0
300,318,305,305,0
298,314,307,303,0
297,307,306,302,0
296,298,304,301,0
296,289,303,301,0
297,280,302,300,0
299,277,303,299,0
301,279,305,300,0
305,286,306,301,0
308,296,308,303,0
310,308,308,305,0
314,321,307,307,0
316,335,305,308,0
317,351,303,308,0
317,363,300,306,0
317,362,297,305,0
315,346,295,303,0
313,321,294,302,0
313,299,293,301,0
313,284,292,301,0
313,278,292,300,0
314,279,294,300,0
315,284,297,302,0
316,287,303,303,0
315,285,307,304,0
314,276,309,304,0
313,265,308,304,0
313,259,303,304,0
313,259,299,304,0
313,268,298,305,0
312,289,302,308,0
312,318,313,310,0
310,344,326,312,0
308,354,337,313,0
304,347,343,312,0
300,331,345,311,0
297,309,341,310,0
296,290,335,310,0
295,275,328,309,0
296,265,321,308,0
298,259,316,308,0
299,258,312,307,0
299,261,310,306,0
300,266,309,306,0
301,273,308,306,0
302,279,308,305,0
302,285,307,305,0
302,290,307,304,0
303,296,307,305,0
305,302,307,305,0
308,309,306,306,0
312,321,306,308,0
315,335,306,310,0
318,352,307,312,0
321,364,307,314,0
322,363,306,315,0
321,349,304,313,0
319,330,299,310,0
314,312,294,305,0
309,293,289,301,0
305,280,287,299,0
301,277,287,299,0
299,282,290,302,0
298,293,295,306,0
298,305,299,307,0
298,312,303,307,0
297,311,305,305,0
298,308,304,303,0
299,311,305,302,0
302,321,306,303,0
306,336,308,306,0
309,347,312,309,0
311,339,314,311,0
310,315,317,313,0
309,286,317,314,0
307,263,316,315,0
306,252,315,315,0
304,253,312,314,0
303,262,310,312,0
301,278,308,310,0
300,295,308,307,0
298,311,308,306,0
296,322,308,304,0
295,323,308,303,0
295,319,308,301,0
296,311,308,300,0
297,303,308,299,0
299,299,307,298,0
300,298,306,298,0
302,299,306,298,0
302,303,306,299,0
303,307,307,301,0
304,309,308,303,0
304,309,310,304,0
304,312,310,304,0
305,317,309,304,0
306,322,309,303,0
306,319,308,303,0
306,310,307,303,0
306,304,307,303,0
306,308,307,303,0
306,319,308,303,0
306,332,309,304,0
305,340,310,304,0
304,335,310,304,0
301,321,310,303,0
301,309,311,304,0
301,307,311,304,0
302,313,311,304,0
302,319,311,304,0
302,322,311,304,0
301,317,310,304,0
300,304,309,302,0
300,288,308,301,0
299,274,307,301,0
299,269,307,302,0
300,272,306,301,0
301,282,305,300,0
301,295,304,299,0
301,305,302,298,0
301,310,302,299,0
302,311,303,300,0
303,305,305,301,0
304,294,305,300,0
306,281,306,299,0
307,267,307,299,0
309,254,309,299,0
310,243,310,299,0
309,238,311,299,0
307,240,312,300,0
305,250,313,300,0
302,267,314,301,0
301,290,313,302,0
300,313,312,301,0
299,328,309,300,0
299,337,306,299,0
300,343,303,298,0
301,348,301,299,0
303,354,299,300,0
305,363,298,301,0
308,373,297,302,0
309,383,297,304,0
308,383,297,304,0
306,366,296,303,0
302,341,295,301,0
299,319,293,300,0
297,305,293,298,0
297,298,293,298,0
298,296,295,300,0
300,294,297,303,0
301,293,300,305,0
302,291,305,308,0
302,291,311,309,0
303,293,316,310,0
304,301,319,311,0
305,313,319,312,0
306,326,317,313,0
307,338,314,314,0
307,347,310,313,0
307,349,306,311,0
305,341,302,310,0
303,329,299,307,0
301,312,297,305,0
301,295,297,305,0
302,284,297,306,0
303,282,299,309,0
306,289,300,312,0
307,301,301,314,0
309,314,301,315,0
310,323,301,315,0
310,324,301,313,0
309,319,302,310,0
308,312,302,308,0
307,304,304,308,0
307,298,305,308,0
307,288,306,309,0
306,276,306,308,0
305,266,305,309,0
304,260,305,308,0
303,259,305,308,0
303,262,304,307,0
304,269,303,306,0
305,281,302,306,0
307,294,301,306,0
309,306,300,307,0
311,313,299,308,0
311,315,300,308,0
312,317,301,309,0
313,320,302,310,0
315,321,303,311,0
315,316,303,311,0
314,308,302,311,0
312,303,299,311,0
310,304,298,312,0
309,309,295,312,0
308,310,293,312,0
306,308,292,312,0
305,305,292,312,0
304,302,292,311,0
304,300,292,310,0
304,301,292,309,0
304,306,295,308,0
305,318,298,306,0
305,334,302,305,0
306,348,306,305,0
307,357,308,307,0
308,362,309,310,0
309,359,308,311,0
309,347,307,312,0
308,332,305,313,0
306,317,302,312,0
304,302,299,310,0
303,290,297,307,0
303,283,297,305,0
302,281,297,304,0
303,279,299,304,0
303,278,300,304,0
303,280,302,305,0
302,285,303,306,0
303,290,304,307,0
303,294,305,307,0
304,295,305,306,0
304,295,306,305,0
306,295,306,305,0
307,297,305,305,0
309,302,304,305,0
310,313,304,304,0
310,329,303,304,0
310,341,303,304,0
309,344,305,304,0
308,337,307,304,0
308,326,309,304,0
308,316,311,303,0
307,310,311,301,0
305,307,309,299,0
303,303,306,296,0
302,301,303,295,0
302,299,302,297,0
302,298,302,298,0
302,295,302,300,0
302,295,303,302,0
302,300,304,304,0
303,309,304,306,0
304,320,304,307,0
305,334,304,309,0
306,341,305,310,0
307,338,306,310,0
307,329,306,310,0
307,319,307,310,0
306,306,308,310,0
306,296,310,310,0
305,290,311,310,0
303,289,311,310,0
301,291,310,310,0
301,296,309,310,0
301,303,307,309,0
301,306,306,309,0
301,303,304,309,0
300,296,304,308,0
299,291,304,308,0
299,288,304,308,0
298,289,303,307,0
297,290,303,307,0
298,292,302,307,0
299,295,302,307,0
299,299,302,307,0
300,304,301,307,0
300,309,300,306,0
301,314,299,305,0
303,321,298,304,0
304,325,297,304,0
306,325,295,304,0
307,325,296,304,0
309,325,296,305,0
310,324,297,306,0
312,325,298,308,0
313,328,298,310,0
314,329,297,312,0
314,326,297,313,0
313,316,296,313,0
312,304,297,312,0
309,292,299,310,0
305,282,302,307,0
302,276,305,305,0
298,276,307,303,0
297,279,307,303,0
297,284,305,303,0
297,288,303,305,0
298,292,301,307,0
300,294,302,309,0
301,294,304,312,0
302,290,307,315,0
304,286,311,319,0
305,282,312,321,0
306,279,313,322,0
306,278,313,322,0
305,278,314,321,0
306,281,314,321,0
306,290,313,320,0
306,303,313,320,0
307,317,312,319,0
308,328,311,318,0
308,332,310,316,0
307,330,310,314,0
306,327,310,311,0
305,326,309,310,0
306,328,309,309,0
307,332,309,310,0
309,340,309,311,0
311,350,310,313,0
312,359,309,314,0
313,363,309,317,0
312,363,309,318,0
312,352,308,317,0
312,335,307,316,0
312,318,305,314,0
310,304,304,312,0
308,299,302,311,0
307,302,302,310,0
306,308,302,308,0
307,307,302,307,0
308,298,302,307,0
308,281,304,306,0
309,259,306,305,0
309,240,309,305,0
308,233,312,304,0
306,237,315,304,0
303,252,316,306,0
301,271,316,307,0
299,287,315,310,0
300,300,316,313,0
301,314,316,315,0
303,328,317,316,0
304,338,317,316,0
304,344,316,315,0
304,345,315,313,0
304,342,314,310,0
305,341,311,308,0
305,345,308,306,0
306,352,306,303,0
308,362,305,303,0
308,368,305,304,0
308,361,305,306,0
307,341,305,307,0
304,316,306,306,0
302,297,307,306,0
301,287,311,307,0
302,286,314,307,0
304,295,315,307,0
305,310,315,308,0
307,327,313,310,0
308,336,312,311,0
309,331,310,311,0
308,312,309,311,0
307,291,309,312,0
307,275,309,312,0
308,267,309,313,0
308,266,309,314,0
309,269,309,314,0
308,274,308,312,0
307,278,307,309,0
306,279,307,305,0
304,278,306,300,0
302,279,305,296,0
301,279,304,292,0
300,282,304,289,0
300,288,304,287,0
301,301,306,290,0
304,319,309,297,0
306,337,312,305,0
308,351,314,312,0
310,356,315,315,0
309,350,315,316,0
307,333,314,316,0
306,315,313,315,0
305,304,312,314,0
305,300,312,314,0
304,300,311,313,0
303,302,311,312,0
303,303,312,311,0
302,304,314,310,0
301,304,315,310,0
301,303,315,308,0
302,299,315,306,0
302,298,314,305,0
302,301,313,304,0
303,308,312,305,0
304,317,312,305,0
305,328,312,307,0
307,341,313,309,0
308,354,313,311,0
309,356,314,312,0
309,347,314,312,0
308,332,313,313,0
308,316,313,315,0
309,300,312,316,0
309,286,312,315,0
309,277,310,313,0
309,273,309,312,0
308,275,309,311,0
307,281,311,310,0
306,288,314,310,0
305,293,317,310,0
306,303,320,309,0
309,324,322,310,0
313,353,322,311,0
317,381,321,313,0
320,398,319,314,0
319,386,316,313,0
315,348,313,311,0
311,306,312,310,0
308,277,313,309,0
306,262,313,309,0
305,260,314,309,0
303,266,315,309,0
302,278,315,309,0
302,292,314,308,0
302,304,313,307,0
303,310,313,307,0
305,312,313,307,0
306,309,312,306,0
306,303,312,306,0
307,297,311,306,0
308,292,311,306,0
308,288,311,305,0
307,283,310,306,0
307,277,310,306,0
306,272,310,305,0
306,268,309,305,0
305,267,308,304,0
304,272,306,302,0
304,280,305,301,0
302,288,303,298,0
301,296,302,296,0
299,301,301,295,0
299,305,300,294,0
301,306,300,294,0
304,307,300,296,0
308,309,302,299,0
311,314,305,302,0
313,320,310,303,0
313,328,315,304,0
314,334,319,304,0
314,336,320,304,0
312,329,319,305,0
310,318,318,307,0
308,310,319,310,0
307,305,319,312,0
307,303,320,314,0
307,303,319,314,0
307,303,318,312,0
307,307,317,310,0
308,311,316,309,0
308,312,315,307,0
309,311,315,307,0
311,309,315,307,0
313,307,315,307,0
313,309,315,307,0
312,316,314,306,0
311,325,312,305,0
311,333,310,304,0
310,333,308,303,0
309,320,305,303,0
307,302,303,301,0
305,288,301,300,0
303,284,299,299,0
302,289,299,300,0
303,299,299,300,0
304,310,301,302,0
306,322,304,305,0
308,334,307,307,0
308,341,310,307,0
306,344,311,306,0
304,343,311,305,0
303,337,310,304,0
302,326,309,306,0
302,312,308,308,0
303,295,309,310,0
304,279,309,312,0
304,268,308,312,0
305,260,308,312,0
306,257,306,310,0
307,260,305,309,0
308,267,304,308,0
309,278,304,308,0
309,288,303,307,0
309,297,303,306,0
309,302,302,304,0
308,305,302,303,0
308,307,302,302,0
307,308,302,302,0
307,309,303,303,0
307,309,304,304,0
308,311,304,306,0
308,312,304,307,0
309,313,304,308,0
309,314,304,310,0
310,313,304,311,0
311,309,305,311,0
311,303,306,310,0
312,298,307,308,0
313,302,309,307,0
314,318,310,307,0
314,341,310,307,0
314,366,310,307,0
314,385,308,306,0
313,388,306,305,0
310,369,304,304,0
308,338,304,304,0
307,311,305,306,0
308,297,307,308,0
309,300,308,310,0
310,310,307,311,0
310,313,306,309,0
308,305,304,307,0
307,296,302,305,0
307,287,301,304,0
307,279,299,303,0
307,272,297,302,0
307,270,295,301,0
307,271,294,300,0
307,275,295,300,0
306,281,299,302,0
305,288,305,304,0
304,295,311,308,0
305,300,316,311,0
306,303,318,315,0
307,307,319,317,0
307,311,317,318,0
308,315,316,317,0
308,319,313,315,0
307,321,312,313,0
307,322,310,310,0
306,322,308,309,0
306,319,307,308,0
306,315,305,306,0
307,314,304,305,0
307,316,304,304,0
307,320,304,303,0
306,318,304,302,0
304,310,304,300,0
303,301,304,299,0
302,295,304,301,0
302,293,305,302,0
302,297,305,303,0
302,304,306,304,0
302,312,307,305,0
302,319,308,307,0
303,323,309,309,0
304,320,309,309,0
304,313,309,309,0
304,305,308,310,0
305,303,307,309,0
307,310,306,308,0
309,326,305,308,0
311,347,305,308,0
312,367,304,308,0
313,375,304,308,0
313,367,304,307,0
312,352,304,308,0
311,345,304,309,0
311,352,304,310,0
310,366,305,310,0
308,372,306,310,0
307,367,307,308,0
306,348,307,306,0
306,317,307,304,0
306,287,306,302,0
306,265,305,301,0
306,250,304,300,0
306,239,304,300,0
305,231,305,301,0
306,226,306,302,0
307,222,307,303,0
308,222,307,303,0
309,225,307,304,0
309,230,308,304,0
309,238,309,303,0
309,248,311,302,0
309,262,312,300,0
308,275,314,300,0
308,285,314,300,0
307,295,313,300,0
307,304,311,299,0
307,312,307,298,0
307,320,303,298,0
307,326,299,298,0
305,330,296,298,0
304,332,294,299,0
302,332,294,299,0
301,330,297,301,0
300,327,301,304,0
301,323,306,308,0
302,319,311,312,0
304,318,314,315,0
306,323,316,317,0
306,331,317,319,0
306,333,317,318,0
304,330,315,316,0
302,324,312,313,0
301,319,309,310,0
300,318,307,307,0
300,318,306,306,0
300,319,305,305,0
301,318,305,305,0
302,316,305,305,0
303,315,306,306,0
304,316,307,307,0
306,320,308,308,0
308,327,309,311,0
311,337,310,313,0
314,349,312,315,0
316,359,313,317,0
315,364,313,316,0
312,361,313,314,0
309,352,313,311,0
306,343,314,310,0
305,340,314,309,0
305,341,313,308,0
305,341,311,306,0
304,340,308,305,0
303,337,305,304,0
303,334,302,303,0
303,332,301,304,0
305,330,302,304,0
307,329,304,304,0
309,322,307,304,0
309,304,311,304,0
307,283,315,304,0
306,267,318,303,0
304,257,318,303,0
302,253,317,303,0
302,253,315,303,0
302,256,313,304,0
303,259,311,305,0
304,262,309,306,0
306,268,308,307,0
307,275,307,308,0
307,282,307,308,0
308,285,306,308,0
308,286,306,308,0
309,287,306,308,0
310,288,306,309,0
311,289,306,308,0
311,289,306,308,0
310,288,306,308,0
309,288,306,308,0
307,286,306,308,0
306,281,307,306,0
305,273,308,305,0
304,268,309,305,0
304,269,308,306,0
304,280,308,308,0
304,299,308,311,0
304,320,307,313,0
305,338,307,315,0
304,351,307,316,0
304,356,306,316,0
304,351,306,315,0
304,342,307,315,0
304,331,307,316,0
304,323,308,315,0
304,318,309,315,0
304,320,309,315,0
304,328,309,315,0
304,338,309,316,0
305,345,309,316,0
306,349,309,316,0
307,351,309,316,0
309,354,308,315,0
310,362,306,313,0
309,375,303,311,0
306,378,298,308,0
302,366,293,304,0
298,344,289,301,0
295,317,288,298,0
294,288,289,298,0
295,265,293,299,0
297,251,297,301,0
298,246,301,302,0
300,249,304,304,0
301,257,307,308,0
303,270,308,312,0
305,282,309,315,0
306,294,309,318,0
309,305,310,321,0
310,312,309,321,0
311,315,308,320,0
311,315,307,319,0
311,310,307,316,0
312,300,307,314,0
314,289,309,313,0
316,281,311,313,0
318,279,314,314,0
318,283,316,314,0
318,294,317,314,0
317,306,316,313,0
314,316,312,313,0
312,324,308,311,0
309,328,304,309,0
306,331,303,308,0
304,336,304,308,0
303,342,305,308,0
303,344,306,306,0
303,339,306,304,0
304,328,306,304,0
304,316,307,304,0
304,305,308,305,0
305,299,309,306,0
305,297,310,306,0
306,302,311,308,0
308,308,311,310,0
309,313,310,312,0
310,316,309,313,0
310,316,309,315,0
311,312,308,315,0
311,306,307,315,0
310,298,307,315,0
309,291,309,314,0
308,289,310,313,0
307,294,312,313,0
307,302,313,314,0
307,313,314,313,0
308,325,315,313,0
309,339,314,312,0
309,345,313,311,0
308,332,311,311,0
306,304,309,310,0
305,275,307,309,0
304,255,306,309,0
304,244,304,309,0
304,240,304,307,0
305,240,304,306,0
306,246,304,305,0
307,260,305,305,0
307,278,306,305,0
308,296,307,306,0
308,310,308,306,0
307,318,307,305,0
306,321,305,303,0
303,320,303,300,0
301,313,300,299,0
300,307,298,297,0
300,306,297,296,0
300,308,295,296,0
299,314,294,296,0
299,321,294,296,0
299,329,296,297,0
301,334,299,299,0
302,333,303,302,0
304,327,306,305,0
305,320,307,307,0
306,314,308,309,0
308,311,308,309,0
309,309,308,309,0
310,307,307,309,0
311,305,307,308,0
311,305,307,306,0
311,306,306,305,0
311,302,305,304,0
312,297,304,303,0
312,293,304,303,0
312,292,304,304,0
312,292,303,303,0
311,290,301,302,0
310,288,300,302,0
309,289,300,301,0
309,298,302,302,0
310,315,306,304,0
312,344,311,306,0
313,376,316,309,0
313,396,320,309,0
311,395,321,308,0
307,372,320,305,0
304,336,317,302,0
302,302,315,303,0
302,279,314,305,0
303,270,313,309,0
305,270,313,312,0
307,277,312,314,0
309,285,309,315,0
309,291,306,314,0
307,292,302,311,0
304,291,298,307,0
301,288,294,304,0
299,286,291,302,0
298,283,289,300,0
298,281,287,298,0
297,280,286,296,0
297,279,285,295,0
297,279,286,294,0
297,281,289,295,0
297,285,296,296,0
298,289,303,298,0
300,293,310,301,0
302,296,314,304,0
304,298,317,306,0
305,299,317,308,0
307,301,315,310,0
308,307,314,311,0
309,313,313,311,0
309,315,313,311,0
310,311,312,309,0
310,300,310,307,0
309,285,308,305,0
307,271,307,303,0
306,262,306,302,0
305,261,305,302,0
305,266,304,301,0
304,274,304,301,0
304,282,302,300,0
304,288,301,300,0
305,295,300,300,0
305,302,298,301,0
305,312,297,301,0
305,326,296,301,0
305,341,295,301,0
306,360,294,302,0
307,383,294,303,0
307,401,294,303,0
306,407,294,303,0
304,400,295,301,0
304,383,295,300,0
304,362,296,300,0
304,340,297,300,0
304,314,298,301,0
305,288,297,300,0
305,269,296,299,0
306,261,295,299,0
307,267,296,300,0
309,284,297,302,0
310,307,299,305,0
310,330,302,309,0
310,345,305,311,0
309,340,306,311,0
308,323,307,310,0
306,304,305,309,0
305,289,304,308,0
305,279,302,308,0
305,273,302,307,0
305,270,301,306,0
306,268,300,304,0
306,270,300,304,0
307,272,299,304,0
309,275,299,305,0
311,279,299,306,0
312,286,299,306,0
313,294,299,306,0
313,298,302,305,0
312,302,306,305,0
311,304,311,304,0
309,307,315,303,0
308,313,317,303,0
308,319,316,304,0
308,325,314,305,0
308,328,310,306,0
307,324,306,306,0
305,315,303,304,0
303,304,301,302,0
301,296,300,300,0
300,290,301,299,0
300,284,303,299,0
300,281,304,298,0
301,283,304,299,0
301,293,304,301,0
302,306,303,302,0
303,319,303,304,0
304,330,302,305,0
305,336,303,308,0
306,339,303,309,0
308,344,304,310,0
310,354,305,312,0
313,367,306,313,0
315,377,308,314,0
316,371,308,311,0
313,343,306,308,0
309,304,304,305,0
306,270,303,303,0
305,253,302,303,0
304,249,302,302,0
304,253,300,302,0
304,259,299,301,0
305,265,297,300,0
305,268,296,298,0
305,269,294,297,0
305,271,293,296,0
305,282,293,296,0
304,302,295,297,0
303,325,299,299,0
303,344,304,301,0
304,353,307,304,0
305,350,310,305,0
307,334,310,305,0
308,313,310,305,0
310,299,310,305,0
311,295,310,304,0
311,296,310,303,0
310,294,309,301,0
307,290,308,298,0
304,286,306,297,0
302,285,305,296,0
300,285,304,295,0
299,284,303,294,0
299,283,302,294,0
298,283,300,293,0
299,285,299,292,0
300,290,299,293,0
301,296,300,294,0
302,301,302,297,0
303,304,305,299,0
304,304,306,301,0
304,301,306,301,0
304,298,305,301,0
304,296,304,302,0
304,295,302,302,0
305,297,300,301,0
306,302,297,299,0
306,309,294,298,0
307,317,293,296,0
308,328,292,295,0
310,341,293,297,0
312,352,296,301,0
313,359,301,305,0
312,356,307,308,0
311,344,313,309,0
309,334,316,309,0
307,332,317,309,0
306,341,314,308,0
306,354,312,308,0
306,359,311,308,0
304,347,310,306,0
302,322,311,305,0
300,297,312,304,0
299,280,312,304,0
299,272,311,304,0
299,273,310,306,0
300,278,309,307,0
301,282,309,308,0
302,285,308,308,0
303,287,308,309,0
304,291,307,308,0
304,298,306,308,0
304,306,306,308,0
305,313,305,308,0
306,317,305,307,0
307,321,305,306,0
308,320,305,304,0
308,317,306,303,0
308,312,306,301,0
308,306,306,300,0
308,299,305,299,0
306,291,304,297,0
304,288,303,296,0
303,288,302,296,0
302,290,303,296,0
302,289,304,297,0
302,285,304,298,0
302,281,305,300,0
302,280,306,301,0
303,281,306,301,0
304,285,306,301,0
305,291,306,302,0
306,298,306,302,0
307,303,305,301,0
307,304,303,300,0
306,302,302,299,0
305,299,302,298,0
304,299,303,299,0
304,303,304,301,0
304,308,307,303,0
305,313,310,306,0
305,313,314,308,0
307,311,318,310,0
309,309,320,312,0
311,306,320,312,0
313,305,319,311,0
314,304,317,309,0
315,304,314,307,0
314,304,311,304,0
313,307,307,301,0
311,314,304,298,0
308,319,300,296,0
306,320,298,294,0
305,318,297,293,0
306,312,298,292,0
306,300,300,293,0
307,286,303,294,0
307,277,304,296,0
307,272,305,297,0
307,270,305,297,0
308,270,305,297,0
308,276,304,298,0
309,294,303,299,0
309,321,302,301,0
310,349,300,302,0
310,368,299,303,0
311,366,298,302,0
309,346,299,301,0
307,319,300,299,0
305,295,302,298,0
304,278,303,297,0
302,272,304,296,0
302,277,304,296,0
302,287,304,298,0
303,296,306,300,0
303,301,310,303,0
303,301,314,305,0
303,296,317,306,0
303,292,318,307,0
303,291,318,306,0
303,293,316,306,0
303,295,314,306,0
303,298,311,307,0
304,302,309,307,0
305,307,307,307,0
307,313,306,307,0
308,319,305,307,0
309,325,306,306,0
308,332,306,305,0
308,344,308,305,0
309,361,310,306,0
310,384,310,307,0
310,404,310,307,0
309,408,309,306,0
306,390,308,305,0
305,358,306,305,0
304,326,306,304,0
305,298,306,303,0
307,279,307,302,0
308,264,308,301,0
308,253,309,301,0
308,244,309,300,0
307,243,310,299,0
306,251,309,300,0
306,265,309,301,0
305,277,308,302,0
304,283,308,303,0
303,286,308,305,0
302,288,309,305,0
301,291,310,306,0
302,294,310,306,0
303,295,311,308,0
303,296,311,308,0
304,297,310,309,0
305,297,310,309,0
306,298,309,308,0
306,299,308,307,0
306,301,307,307,0
306,302,306,306,0
307,304,306,305,0
307,309,306,304,0
307,317,307,305,0
308,326,307,306,0
309,332,307,307,0
310,331,306,307,0
310,321,304,306,0
310,308,302,304,0
309,293,301,302,0
308,282,301,301,0
308,276,302,301,0
310,276,304,302,0
313,283,307,304,0
316,297,310,308,0
318,309,310,309,0
317,313,308,309,0
315,310,305,308,0
314,305,304,309,0
315,305,306,311,0
316,314,309,314,0
318,334,312,318,0
319,358,315,321,0
317,376,316,321,0
313,382,315,317,0
309,375,314,313,0
305,363,312,309,0
303,346,310,307,0
302,328,307,306,0
302,312,305,307,0
303,300,302,307,0
305,292,300,307,0
306,286,299,307,0
306,284,300,307,0
305,284,302,307,0
304,286,307,306,0
302,287,313,305,0
301,289,317,305,0
300,290,319,305,0
300,291,319,304,0
301,293,317,304,0
301,296,314,303,0
302,301,311,302,0
303,307,308,301,0
303,316,306,300,0
304,323,304,299,0
304,327,304,298,0
304,325,302,298,0
303,317,302,297,0
301,305,301,296,0
299,295,300,295,0
298,289,298,294,0
297,290,298,295,0
297,299,297,297,0
297,312,297,301,0
299,325,298,304,0
301,330,300,307,0
303,326,303,311,0
305,311,306,314,0
308,295,309,315,0
309,281,311,316,0
311,271,313,317,0
311,264,313,317,0
311,259,313,316,0
312,258,312,314,0
311,261,311,314,0
311,266,309,313,0
311,272,308,313,0
310,275,308,313,0
310,278,307,313,0
309,286,307,312,0
308,300,307,311,0
307,318,306,309,0
306,334,306,309,0
306,343,306,310,0
307,341,307,309,0
308,334,307,309,0
308,330,308,308,0
309,331,309,308,0
308,332,309,307,0
306,324,309,306,0
305,313,309,305,0
305,303,309,305,0
304,293,309,306,0
303,284,309,307,0
302,278,307,307,0
302,273,305,306,0
300,271,302,302,0
299,271,299,299,0
298,273,298,296,0
298,276,299,294,0
299,280,302,294,0
300,286,306,295,0
302,296,309,297,0
305,309,312,301,0
308,321,314,304,0
309,328,314,306,0
309,326,313,306,0
308,318,312,306,0
308,311,312,307,0
308,313,312,308,0
309,315,313,309,0
309,312,315,309,0
309,303,315,309,0
309,290,315,308,0
309,273,315,307,0
308,260,314,307,0
308,252,313,307,0
307,252,313,308,0
307,259,313,309,0
307,271,313,309,0
306,284,312,309,0
305,298,312,309,0
304,311,311,308,0
303,319,310,307,0
303,325,308,307,0
302,330,307,307,0
302,335,307,308,0
302,336,307,310,0
302,333,308,312,0
302,327,308,313,0
303,322,308,314,0
304,319,307,314,0
305,320,307,314,0
306,326,307,313,0
306,335,307,313,0
308,345,306,313,0
308,351,306,312,0
309,350,305,310,0
309,338,305,309,0
309,322,304,307,0
310,312,305,307,0
311,310,306,306,0
311,311,306,306,0
311,311,306,306,0
311,307,306,307,0
312,303,306,308,0
312,299,305,309,0
311,295,304,308,0
310,294,302,307,0
308,294,301,306,0
306,293,299,305,0
305,288,298,304,0
304,284,298,303,0
304,282,299,302,0
304,285,301,303,0
305,292,302,304,0
306,301,303,303,0
306,305,303,302,0
305,305,302,301,0
303,298,301,301,0
301,289,300,299,0
300,283,300,298,0
299,281,300,296,0
299,281,300,296,0
299,286,300,296,0
299,294,300,296,0
300,303,300,297,0
301,310,301,297,0
302,312,302,298,0
304,308,304,299,0
306,302,305,301,0
308,295,306,303,0
309,289,308,306,0
310,287,309,308,0
311,290,309,309,0
310,296,307,310,0
308,305,304,310,0
307,316,301,310,0
306,327,299,310,0
306,335,297,308,0
305,337,295,307,0
304,333,295,305,0
304,327,297,303,0
304,321,298,302,0
303,314,300,302,0
302,307,301,301,0
301,303,300,301,0
301,304,299,301,0
301,308,297,302,0
302,316,295,304,0
302,323,294,305,0
303,326,296,306,0
303,328,301,309,0
305,328,308,312,0
305,325,315,315,0
306,318,320,316,0
307,312,323,316,0
308,308,324,315,0
308,310,324,315,0
307,312,322,314,0
306,310,318,312,0
305,307,315,311,0
304,305,312,309,0
303,300,309,308,0
303,292,307,307,0
304,284,306,307,0
304,282,305,307,0
305,285,304,308,0
306,289,303,308,0
306,293,303,308,0
305,296,302,307,0
304,298,300,306,0
303,302,300,305,0
303,311,300,303,0
303,327,300,301,0
304,348,300,300,0
306,368,301,302,0
308,381,303,305,0
310,376,304,308,0
311,353,304,310,0
311,324,304,311,0
313,300,304,312,0
314,284,304,313,0
316,279,303,313,0
317,279,303,314,0
317,277,303,314,0
316,276,304,314,0
314,280,307,315,0
312,287,308,314,0
311,293,309,312,0
308,291,308,310,0
305,290,309,308,0
303,291,310,308,0
302,291,311,307,0
301,290,310,308,0
300,292,309,309,0
300,302,308,310,0
300,312,306,310,0
299,319,303,308,0
298,320,301,306,0
297,319,300,303,0
297,311,298,300,0
297,298,298,298,0
298,286,298,297,0
299,279,297,297,0
301,278,298,300,0
304,286,301,302,0
306,300,303,306,0
308,314,306,311,0
308,325,308,313,0
307,333,309,315,0
305,332,309,314,0
303,323,308,313,0
301,314,307,313,0
301,309,306,312,0
301,307,305,312,0
302,306,303,311,0
302,305,301,309,0
302,305,298,307,0
302,304,294,305,0
302,302,292,304,0
301,303,291,303,0
301,311,293,304,0
302,325,298,306,0
304,340,303,310,0
305,350,306,312,0
307,347,307,312,0
307,335,306,311,0
306,320,304,309,0
304,305,302,307,0
302,291,301,305,0
301,282,303,306,0
300,282,306,307,0
299,289,308,309,0
299,298,310,310,0
300,305,309,310,0
301,306,309,310,0
302,300,309,309,0
303,288,309,310,0
305,273,309,310,0
308,262,311,312,0
310,257,312,313,0
312,261,313,314,0
313,278,313,316,0
314,303,313,317,0
313,330,313,317,0
312,351,312,315,0
309,361,309,313,0
307,362,308,312,0
306,359,307,312,0
305,353,306,312,0
305,345,306,310,0
304,337,307,309,0
305,332,307,308,0
304,331,307,307,0
304,333,307,306,0
303,333,307,306,0
303,326,307,306,0
302,314,307,306,0
302,305,308,305,0
303,299,309,305,0
305,296,310,305,0
306,297,311,306,0
308,301,311,306,0
309,303,311,308,0
310,303,310,309,0
308,299,309,309,0
306,297,307,309,0
305,301,306,308,0
305,312,306,308,0
306,326,306,307,0
307,336,305,306,0
308,333,304,305,0
307,319,303,304,0
306,303,302,303,0
306,291,302,302,0
306,287,302,302,0
307,287,302,302,0
307,286,301,302,0
305,282,299,302,0
304,278,298,302,0
302,277,298,301,0
301,282,299,301,0
299,292,303,301,0
299,302,306,301,0
299,310,309,300,0
299,314,311,299,0
300,311,310,298,0
300,306,309,298,0
301,301,306,298,0
301,300,304,298,0
302,302,301,298,0
301,302,298,298,0
300,301,295,296,0
299,299,291,294,0
299,297,287,292,0
299,295,286,290,0
299,294,287,289,0
299,292,290,290,0
301,293,294,293,0
302,301,300,296,0
303,318,305,299,0
304,340,310,302,0
305,356,313,305,0
304,356,315,307,0
303,340,315,309,0
302,320,314,310,0
301,302,313,310,0
301,291,312,311,0
302,288,310,311,0
303,290,309,311,0
303,295,307,310,0
303,299,304,309,0
302,302,302,308,0
301,303,301,308,0
301,303,301,308,0
301,304,301,309,0
303,303,302,310,0
304,300,303,310,0
306,299,303,310,0
307,303,304,309,0
309,313,304,308,0
310,326,303,307,0
310,338,302,307,0
311,346,301,306,0
310,344,299,305,0
308,337,298,305,0
307,333,299,305,0
305,330,300,305,0
304,322,300,305,0
304,314,301,305,0
304,306,302,306,0
305,297,303,307,0
306,287,306,307,0
306,280,309,308,0
306,275,313,309,0
306,273,316,308,0
307,273,316,309,0
309,273,316,310,0
309,277,313,310,0
310,288,310,310,0
310,308,306,310,0
310,334,304,311,0
310,358,302,310,0
310,370,300,310,0
309,366,300,309,0
308,347,299,308,0
307,323,300,308,0
307,303,301,308,0
307,292,303,309,0
306,289,305,309,0
305,290,309,310,0
304,294,311,311,0
303,299,312,313,0
303,306,312,314,0
303,313,312,314,0
304,318,310,314,0
305,320,309,314,0
305,313,309,313,0
305,301,307,312,0
305,288,307,311,0
306,276,305,310,0
307,269,305,308,0
307,268,303,307,0
308,275,303,306,0
309,289,302,306,0
309,303,301,306,0
308,311,299,305,0
308,307,298,305,0
308,294,297,305,0
308,280,297,306,0
308,268,297,307,0
309,263,299,307,0
309,268,302,307,0
309,285,304,307,0
309,309,305,306,0
307,335,304,305,0
305,352,301,304,0
303,355,298,302,0
301,347,296,301,0
300,334,296,300,0
301,322,297,301,0
303,314,299,303,0
305,312,301,305,0
308,316,302,308,0
312,323,303,309,0
315,335,305,312,0
316,344,306,313,0
315,343,307,315,0
314,334,308,317,0
314,326,309,319,0
313,321,310,320,0
311,316,309,321,0
309,311,308,321,0
307,308,306,321,0
305,308,305,320,0
304,308,304,319,0
304,307,303,317,0
304,306,303,314,0
304,307,303,311,0
304,309,304,308,0
305,313,304,306,0
306,316,304,306,0
306,317,304,307,0
306,315,303,309,0
306,312,301,310,0
306,311,299,310,0
305,310,297,309,0
305,310,297,308,0
305,309,297,308,0
305,310,299,308,0
306,314,303,308,0
306,319,307,309,0
306,318,309,310,0
306,308,309,310,0
306,299,309,310,0
306,294,307,311,0
306,295,305,311,0
306,299,303,311,0
306,302,302,311,0
306,301,301,312,0
306,300,301,313,0
306,302,300,314,0
308,310,300,314,0
310,326,300,313,0
311,336,300,310,0
309,336,300,308,0
308,328,301,306,0
306,317,304,306,0
305,307,307,306,0
304,304,311,307,0
304,312,313,309,0
305,327,314,312,0
305,345,313,313,0
305,360,312,314,0
305,367,310,313,0
305,361,308,311,0
305,337,307,308,0
305,306,305,306,0
305,279,304,304,0
305,260,303,304,0
305,249,302,304,0
306,244,301,304,0
306,245,299,304,0
307,253,297,304,0
307,265,295,304,0
306,278,294,305,0
305,291,293,305,0
304,301,295,306,0
304,308,298,307,0
304,311,302,311,0
305,311,307,314,0
306,311,310,318,0
307,311,313,321,0
308,309,315,322,0
307,308,316,321,0
305,308,314,319,0
303,309,312,316,0
301,311,310,314,0
300,311,308,313,0
300,311,306,313,0
300,310,304,313,0
300,310,304,313,0
302,312,304,313,0
302,315,305,313,0
302,322,305,313,0
303,333,305,314,0
302,347,306,315,0
302,359,306,316,0
302,364,306,316,0
302,353,306,316,0
302,331,307,315,0
303,308,310,315,0
305,296,312,314,0
307,296,313,314,0
308,306,313,314,0
310,318,313,314,0
312,329,313,315,0
312,327,313,316,0
312,312,312,316,0
311,293,311,316,0
311,276,310,315,0
310,264,308,315,0
309,255,306,314,0
308,248,304,313,0
307,244,303,310,0
305,243,302,308,0
304,249,303,307,0
304,261,303,306,0
304,277,304,305,0
304,291,304,305,0
304,300,304,305,0
304,304,303,306,0
304,306,304,307,0
304,310,305,310,0
304,314,309,312,0
303,322,312,313,0
303,330,315,314,0
303,339,317,316,0
305,344,317,317,0
305,338,317,318,0
305,326,315,318,0
304,311,312,317,0
304,299,309,317,0
304,291,306,316,0
304,288,305,316,0
304,289,304,316,0
305,294,304,317,0
306,302,305,317,0
306,308,306,316,0
304,308,308,313,0
302,305,309,311,0
303,302,311,310,0
303,305,312,309,0
304,310,312,308,0
305,315,310,309,0
306,320,307,308,0
306,330,304,306,0
306,342,301,304,0
306,349,298,302,0
304,349,297,300,0
303,346,297,299,0
302,347,299,300,0
304,350,302,304,0
307,351,304,308,0
310,344,306,311,0
311,331,308,313,0
311,314,309,315,0
309,297,311,317,0
307,280,311,317,0
305,262,311,317,0
304,249,312,316,0
304,244,312,315,0
304,249,312,315,0
304,260,311,314,0
303,270,310,312,0
302,275,308,310,0
301,278,306,309,0
300,283,305,309,0
301,290,303,309,0
301,298,303,308,0
302,304,303,308,0
303,306,304,307,0
303,306,306,307,0
304,307,308,307,0
304,308,310,307,0
305,307,312,307,0
306,302,313,307,0
306,297,312,307,0
307,294,311,307,0
308,293,310,308,0
308,294,311,309,0
309,297,311,311,0
310,302,313,312,0
311,305,313,312,0
310,304,314,311,0
309,304,314,310,0
308,301,314,309,0
306,298,314,308,0
306,297,314,307,0
305,298,313,307,0
305,301,311,307,0
304,303,309,308,0
303,303,308,308,0
303,303,306,308,0
304,304,306,309,0
304,312,306,310,0
304,321,306,311,0
304,329,307,311,0
303,334,307,310,0
302,336,307,310,0
303,338,308,310,0
304,339,310,311,0
305,339,312,313,0
305,338,314,314,0
306,336,315,314,0
306,335,316,314,0
306,332,316,313,0
306,327,316,313,0
306,317,315,312,0
306,302,313,312,0
306,289,313,311,0
305,282,312,312,0
305,280,312,311,0
304,280,312,311,0
303,280,311,311,0
303,281,311,311,0
303,284,311,311,0
302,288,310,312,0
302,291,310,312,0
301,295,309,312,0
301,301,308,312,0
302,311,307,312,0
304,322,305,313,0
306,335,303,313,0
309,352,301,314,0
311,364,297,313,0
310,365,293,311,0
310,362,291,309,0
309,360,291,308,0
309,353,294,309,0
309,340,299,310,0
309,319,306,312,0
308,297,311,314,0
308,282,317,315,0
308,275,321,316,0
307,272,322,315,0
306,270,321,314,0
303,269,318,312,0
300,270,313,310,0
299,273,308,309,0
298,277,302,307,0
298,282,299,307,0
298,287,297,308,0
300,292,297,310,0
302,297,299,312,0
305,302,301,313,0
307,308,303,314,0
309,314,304,315,0
309,321,307,315,0
309,322,310,314,0
307,316,311,313,0
306,310,312,311,0
305,308,313,311,0
305,315,312,311,0
306,327,312,311,0
308,340,312,312,0
309,350,312,314,0
310,348,312,315,0
311,332,312,316,0
312,314,311,316,0
312,300,309,317,0
311,291,307,316,0
310,283,306,316,0
309,279,305,315,0
308,278,305,315,0
306,281,306,315,0
304,288,308,315,0
303,295,310,315,0
302,299,311,314,0
302,301,312,314,0
303,302,312,314,0
305,298,313,314,0
306,290,312,313,0
307,283,311,314,0
308,282,310,314,0
308,285,310,313,0
307,292,309,312,0
306,305,309,312,0
304,323,309,312,0
303,337,308,313,0
301,345,307,313,0
299,347,306,313,0
298,343,306,312,0
298,332,306,311,0
298,320,306,310,0
299,313,306,309,0
300,312,306,308,0
301,316,306,308,0
303,321,306,308,0
304,324,307,307,0
304,320,307,306,0
304,311,306,306,0
304,301,306,307,0
304,294,306,307,0
304,289,305,307,0
305,286,306,307,0
307,284,305,307,0
308,286,305,308,0
309,291,304,308,0
309,298,304,309,0
310,306,304,309,0
310,311,302,307,0
309,311,300,303,0
307,308,298,299,0
305,307,297,298,0
303,309,294,296,0
302,315,292,295,0
300,326,291,295,0
300,343,291,294,0
300,359,292,295,0
301,371,295,297,0
303,375,298,301,0
305,366,299,304,0
308,344,300,306,0
309,316,300,308,0
308,289,301,309,0
307,268,303,309,0
306,256,307,310,0
305,252,313,312,0
305,256,317,314,0
304,266,319,317,0
304,280,319,318,0
305,298,318,319,0
306,317,316,319,0
307,332,314,318,0
309,338,314,317,0
309,335,313,316,0
308,325,311,314,0
306,316,309,312,0
304,311,306,308,0
303,310,304,305,0
302,308,301,303,0
302,302,300,302,0
302,294,299,301,0
302,288,299,300,0
303,286,300,301,0
304,285,301,301,0
304,283,302,301,0
305,280,302,302,0
306,283,304,303,0
307,290,307,305,0
308,301,311,306,0
308,316,315,307,0
308,329,317,308,0
307,333,317,308,0
305,324,314,308,0
302,310,311,307,0
301,296,307,307,0
299,286,304,306,0
299,282,303,306,0
299,285,301,305,0
300,291,301,305,0
300,295,301,304,0
301,293,302,303,0
302,287,304,303,0
303,280,305,304,0
303,273,306,306,0
305,270,308,309,0
306,270,309,311,0
308,272,309,311,0
308,279,308,310,0
308,293,307,309,0
308,313,306,308,0
307,334,305,308,0
307,353,305,308,0
308,367,306,307,0
309,372,307,307,0
309,367,307,306,0
308,354,306,306,0
307,341,304,305,0
307,329,304,305,0
306,318,304,304,0
305,308,303,303,0
304,298,303,301,0
303,287,302,299,0
303,278,300,297,0
303,275,298,298,0
304,277,296,300,0
305,283,295,303,0
304,289,295,305,0
305,297,297,307,0
305,308,302,309,0
307,321,306,312,0
309,334,310,313,0
311,344,311,313,0
312,346,311,313,0
312,335,310,312,0
310,319,308,312,0
310,304,307,312,0
308,293,305,311,0
307,285,303,309,0
305,281,301,307,0
305,280,299,305,0
305,280,298,303,0
304,280,298,302,0
305,280,297,301,0
305,278,298,302,0
306,275,298,303,0
308,272,301,305,0
310,274,304,308,0
312,284,307,310,0
315,309,310,312,0
317,343,312,314,0
319,376,313,316,0
320,397,312,316,0
317,389,310,314,0
313,359,306,310,0
309,324,303,309,0
308,296,301,309,0
307,275,301,308,0
306,265,301,307,0
306,264,303,307,0
305,269,305,306,0
305,282,308,306,0
306,302,310,307,0
306,319,310,308,0
305,325,309,309,0
303,318,306,308,0
301,304,303,307,0
300,288,300,306,0
299,277,299,305,0
299,272,299,305,0
301,269,299,306,0
302,269,300,308,0
304,270,301,310,0
306,272,301,311,0
307,276,302,312,0
307,279,302,313,0
307,283,301,312,0
307,289,301,311,0
307,296,300,310,0
307,304,299,309,0
308,311,298,308,0
308,317,298,306,0
307,320,299,305,0
306,323,301,305,0
305,331,304,306,0
305,344,306,308,0
306,360,308,310,0
307,373,310,311,0
307,378,312,311,0
306,365,312,311,0
304,339,312,310,0
303,315,311,309,0
301,301,310,308,0
300,297,309,309,0
300,296,308,309,0
301,295,306,309,0
301,292,305,309,0
302,288,303,308,0
301,285,302,306,0
301,284,301,306,0
301,287,302,305,0
300,292,302,304,0
300,297,303,303,0
300,301,304,302,0
302,302,304,302,0
304,301,304,300,0
305,299,303,298,0
305,298,302,297,0
305,296,300,296,0
305,295,298,296,0
305,297,297,295,0
305,303,298,296,0
307,314,301,298,0
311,330,306,304,0
314,340,310,309,0
315,340,312,313,0
316,331,311,314,0
314,321,310,314,0
312,312,308,313,0
310,310,306,311,0
308,315,305,309,0
307,323,303,308,0
306,331,304,308,0
307,331,305,310,0
307,323,308,313,0
308,314,312,316,0
310,307,314,319,0
311,307,316,320,0
313,312,315,321,0
314,321,314,322,0
315,331,312,322,0
316,340,308,322,0
315,342,305,321,0
313,333,303,320,0
310,318,303,318,0
307,299,305,316,0
305,283,308,315,0
305,271,310,315,0
305,266,311,314,0
305,266,311,314,0
306,271,311,314,0
305,279,310,313,0
304,287,308,312,0
304,294,307,311,0
304,298,306,312,0
304,300,306,311,0
305,299,305,311,0
307,298,305,310,0
309,297,304,310,0
310,299,304,310,0
313,303,304,310,0
314,309,304,310,0
315,316,305,311,0
314,322,306,311,0
312,323,305,311,0
309,316,305,311,0
307,308,304,312,0
305,299,304,313,0
304,293,304,313,0
304,290,304,314,0
304,290,305,314,0
304,291,305,314,0
304,292,304,314,0
305,294,305,313,0
306,296,305,313,0
307,297,306,312,0
309,297,307,312,0
310,299,308,313,0
312,301,309,314,0
314,303,309,314,0
315,305,309,315,0
316,307,309,315,0
316,312,309,316,0
315,316,308,314,0
313,318,307,312,0
309,322,306,310,0
307,330,306,309,0
306,341,306,309,0
306,346,306,310,0
306,343,306,310,0
305,337,306,308,0
304,329,306,307,0
302,319,306,306,0
302,307,307,306,0
302,298,307,306,0
303,292,307,306,0
304,289,308,307,0
304,285,308,308,0
305,281,308,309,0
306,278,308,311,0
306,275,308,312,0
307,272,309,312,0
308,270,309,312,0
309,274,310,312,0
311,283,309,312,0
310,293,308,310,0
309,299,307,309,0
308,304,306,308,0
306,307,306,307,0
304,310,305,307,0
304,312,306,307,0
304,313,306,308,0
304,313,307,308,0
305,311,307,308,0
305,310,307,306,0
305,308,305,305,0
305,309,304,302,0
304,315,303,300,0
303,322,302,300,0
303,329,304,300,0
304,336,306,302,0
306,342,309,306,0
308,344,312,309,0
311,341,313,311,0
312,335,313,312,0
312,323,311,311,0
312,306,309,309,0
311,291,308,308,0
310,281,307,305,0
310,274,307,304,0
310,273,308,304,0
310,275,309,305,0
310,282,309,305,0
310,291,309,306,0
309,298,308,306,0
308,305,307,306,0
307,309,305,306,0
306,314,304,305,0
306,320,304,305,0
304,326,305,305,0
304,327,306,306,0
303,326,308,306,0
303,323,308,306,0
303,320,308,306,0
304,318,308,307,0
305,316,308,309,0
305,315,308,310,0
306,317,308,310,0
307,321,309,311,0
306,324,309,312,0
306,323,309,311,0
305,320,309,309,0
305,318,308,308,0
305,320,307,307,0
306,326,307,305,0
306,333,307,305,0
306,338,308,305,0
307,338,308,305,0
308,334,309,305,0
308,329,308,305,0
308,324,307,304,0
307,322,306,304,0
306,322,305,304,0
305,320,304,304,0
304,315,302,304,0
303,309,302,304,0
301,306,302,305,0
302,306,302,307,0
302,307,303,308,0
303,306,303,308,0
304,304,302,309,0
304,299,302,308,0
304,292,301,309,0
304,286,302,309,0
305,283,304,310,0
306,289,308,311,0
307,302,311,311,0
308,318,314,312,0
309,333,315,313,0
309,343,315,313,0
307,340,313,313,0
306,326,311,311,0
304,308,309,311,0
303,296,306,310,0
303,290,304,310,0
303,294,303,310,0
304,301,302,309,0
304,307,302,308,0
305,311,301,308,0
307,314,301,308,0
308,317,301,309,0
309,314,302,310,0
310,306,301,310,0
309,298,301,310,0
307,294,301,309,0
305,293,303,309,0
304,292,306,308,0
302,292,308,306,0
301,293,309,304,0
299,296,309,303,0
299,300,308,303,0
299,304,306,302,0
299,309,304,302,0
300,315,302,303,0
301,319,302,304,0
302,321,301,305,0
304,320,299,305,0
304,316,298,305,0
305,311,298,304,0
305,310,298,304,0
307,316,299,303,0
307,328,301,303,0
308,341,302,302,0
308,351,303,302,0
308,352,303,302,0
309,342,303,302,0
308,325,304,302,0
309,308,306,304,0
309,295,308,306,0
310,289,310,307,0
311,291,311,309,0
311,298,311,310,0
312,304,310,310,0
312,308,309,310,0
311,304,308,308,0
310,294,307,306,0
308,286,306,305,0
307,289,305,304,0
306,302,304,304,0
305,318,303,304,0
305,332,303,305,0
305,337,303,306,0
305,330,303,308,0
306,315,304,309,0
307,303,305,311,0
309,297,306,313,0
312,300,307,315,0
314,309,308,318,0
316,316,308,318,0
315,314,307,316,0
313,306,305,313,0
311,299,303,310,0
308,298,302,308,0
308,297,303,306,0
308,296,306,305,0
308,296,309,304,0
308,295,311,304,0
308,294,312,303,0
306,295,312,303,0
305,303,311,303,0
304,318,309,303,0
304,341,308,303,0
304,367,308,304,0
306,386,308,305,0
308,393,308,306,0
308,384,307,305,0
308,364,306,303,0
306,339,305,301,0
305,313,304,301,0
303,291,305,301,0
303,278,307,303,0
303,273,308,304,0
304,273,309,306,0
304,278,310,307,0
304,283,310,307,0
304,289,310,307,0
304,292,309,306,0
304,293,309,304,0
304,293,309,303,0
305,292,309,302,0
305,290,308,300,0
305,287,307,300,0
306,283,306,299,0
307,281,305,299,0
309,281,303,298,0
310,283,301,297,0
310,286,300,295,0
308,293,299,295,0
307,300,301,295,0
306,308,305,295,0
305,316,310,296,0
305,324,314,297,0
306,337,317,300,0
307,355,319,303,0
309,372,319,305,0
309,384,318,307,0
310,390,318,306,0
308,386,318,305,0
306,373,318,304,0
304,347,317,304,0
301,313,316,302,0
298,278,313,302,0
297,253,311,301,0
297,238,309,302,0
298,234,307,302,0
300,240,306,304,0
301,252,305,305,0
302,267,304,306,0
302,280,303,306,0
302,291,304,305,0
301,301,305,304,0
301,310,308,303,0
302,318,312,304,0
303,324,314,305,0
305,327,315,306,0
307,326,315,307,0
308,319,314,308,0
309,309,313,307,0
310,303,311,307,0
311,308,312,307,0
312,320,313,306,0
313,335,314,306,0
314,347,314,306,0
313,349,314,306,0
310,339,314,306,0
307,322,312,307,0
304,305,311,307,0
302,292,309,307,0
301,283,307,308,0
302,279,305,310,0
303,277,305,311,0
304,275,305,311,0
304,274,304,310,0
304,276,304,310,0
304,279,304,310,0
304,283,305,309,0
303,287,307,308,0
303,291,308,307,0
303,297,309,307,0
303,303,310,306,0
304,309,310,306,0
304,311,310,307,0
304,311,309,308,0
304,308,309,308,0
305,306,309,308,0
306,304,309,308,0
307,304,310,308,0
308,306,311,308,0
307,307,311,308,0
306,305,310,307,0
305,300,310,307,0
304,294,311,306,0
304,289,312,307,0
305,286,313,308,0
307,289,315,309,0
309,301,315,310,0
311,321,316,311,0
314,345,315,311,0
314,363,313,309,0
312,364,309,307,0
309,351,304,304,0
304,331,299,302,0
301,310,296,301,0
299,295,294,300,0
299,287,294,300,0
298,282,295,302,0
299,278,296,303,0
300,276,297,304,0
300,276,298,303,0
300,276,300,303,0
301,278,303,304,0
302,283,306,306,0
303,293,309,307,0
303,308,311,309,0
304,324,312,312,0
305,337,313,312,0
306,346,313,313,0
306,348,314,314,0
307,338,314,316,0
308,322,314,317,0
309,311,315,318,0
310,308,314,320,0
310,315,314,322,0
310,326,313,322,0
310,336,313,322,0
309,340,313,320,0
309,334,312,318,0
308,318,312,316,0
309,298,312,314,0
309,284,313,313,0
311,275,313,312,0
312,272,312,310,0
312,271,311,308,0
311,272,308,305,0
311,275,306,303,0
310,281,304,303,0
309,289,303,302,0
307,295,302,304,0
306,300,302,306,0
305,302,303,308,0
306,302,305,309,0
307,306,308,311,0
310,316,310,312,0
311,324,310,313,0
311,326,310,313,0
308,324,308,312,0
306,321,307,311,0
305,324,306,312,0
305,331,306,313,0
306,337,305,313,0
306,337,304,313,0
306,334,302,312,0
306,331,300,311,0
307,330,297,310,0
309,329,296,309,0
310,327,296,309,0
311,325,298,309,0
311,321,301,309,0
310,316,304,309,0
308,312,307,309,0
308,311,310,308,0
308,314,311,308,0
308,317,311,308,0
309,314,309,307,0
310,307,309,308,0
310,295,308,308,0
310,283,309,309,0
309,272,310,309,0
309,264,310,308,0
308,258,308,307,0
307,256,305,306,0
304,258,302,305,0
302,262,299,304,0
301,266,299,304,0
300,267,300,305,0
302,268,302,306,0
304,271,303,308,0
306,277,304,309,0
307,282,305,309,0
307,285,305,308,0
307,286,305,307,0
306,289,304,307,0
306,292,303,306,0
305,296,301,306,0
305,305,300,306,0
305,319,300,307,0
304,335,299,308,0
305,348,300,309,0
307,359,300,310,0
309,365,301,310,0
310,356,301,309,0
310,334,300,306,0
308,310,300,304,0
307,293,300,304,0
307,281,301,304,0
307,275,301,306,0
308,275,301,307,0
308,279,300,308,0
307,286,300,307,0
306,293,301,305,0
305,301,304,303,0
305,312,307,303,0
307,321,309,303,0
307,326,311,304,0
307,324,310,306,0
307,315,310,309,0
306,303,309,311,0
306,296,308,312,0
305,300,308,313,0
305,309,309,313,0
304,318,310,313,0
304,327,310,313,0
303,334,311,312,0
304,344,312,312,0
305,359,312,313,0
306,370,312,313,0
306,371,312,311,0
304,363,310,309,0
303,350,309,308,0
303,333,308,307,0
302,312,309,307,0
302,292,309,306,0
301,274,310,306,0
300,260,310,306,0
300,251,311,305,0
300,246,311,305,0
300,242,311,305,0
301,240,312,305,0
302,240,312,305,0
302,243,312,305,0
304,249,311,306,0
304,257,311,307,0
304,266,310,308,0
303,273,309,308,0
302,279,309,307,0
302,283,309,306,0
302,286,310,305,0
302,289,310,305,0
303,294,309,305,0
304,299,309,305,0
305,304,309,305,0
305,312,308,305,0
305,316,307,305,0
305,315,305,305,0
305,309,303,303,0
305,305,300,301,0
305,304,297,299,0
305,304,294,298,0
305,304,293,297,0
306,298,294,298,0
307,286,298,300,0
309,276,304,302,0
310,272,309,304,0
310,276,311,305,0
310,285,311,305,0
310,296,310,304,0
311,304,307,303,0
311,307,306,303,0
312,312,306,303,0
312,318,307,303,0
311,323,308,303,0
310,327,309,302,0
308,330,308,300,0
305,334,306,299,0
303,340,304,299,0
302,346,303,299,0
302,343,303,299,0
301,330,305,300,0
301,315,307,303,0
301,303,308,306,0
302,296,308,308,0
302,294,308,309,0
303,296,308,311,0
305,300,309,312,0
306,311,311,313,0
309,328,313,315,0
311,346,315,316,0
313,360,317,318,0
316,368,319,319,0
318,365,319,320,0
318,347,317,319,0
317,323,315,317,0
314,301,312,314,0
308,283,310,311,0
303,270,309,309,0
299,262,309,308,0
298,259,311,308,0
299,262,312,309,0
300,269,312,310,0
301,277,312,312,0
303,282,311,311,0
303,285,309,309,0
303,286,309,307,0
304,290,309,306,0
304,299,310,305,0
304,311,310,305,0
304,322,310,305,0
303,327,310,305,0
303,326,310,305,0
303,320,310,306,0
303,313,310,308,0
303,306,310,309,0
303,299,310,310,0
303,294,309,310,0
303,291,308,310,0
303,293,308,311,0
303,298,307,311,0
304,304,306,311,0
304,310,305,310,0
304,310,304,308,0
304,301,303,305,0
303,284,302,302,0
303,266,301,300,0
303,256,300,297,0
303,256,299,296,0
304,263,297,295,0
304,273,296,294,0
304,281,296,294,0
304,288,297,295,0
305,297,300,298,0
306,311,304,303,0
308,327,307,308,0
309,342,309,313,0
310,348,310,315,0
310,340,310,315,0
308,325,309,312,0
305,314,309,310,0
303,313,311,309,0
302,317,314,309,0
301,323,315,309,0
301,329,314,309,0
301,333,312,307,0
300,337,310,306,0
299,340,308,305,0
300,337,307,305,0
300,322,307,305,0
300,302,309,305,0
301,283,311,304,0
301,268,313,305,0
302,261,314,305,0
303,261,315,305,0
303,266,314,305,0
303,273,314,306,0
303,281,313,305,0
304,289,312,305,0
305,294,311,305,0
305,294,310,305,0
306,292,310,306,0
306,291,310,306,0
306,289,310,306,0
306,288,310,306,0
306,289,309,306,0
307,293,309,308,0
308,300,307,308,0
309,308,305,308,0
310,316,303,308,0
309,323,300,307,0
309,328,298,305,0
308,332,297,302,0
308,336,295,299,0
308,342,295,299,0
308,350,296,299,0
307,356,297,299,0
306,359,299,300,0
305,359,302,301,0
304,352,306,303,0
303,338,312,304,0
302,322,316,307,0
301,304,319,309,0
301,288,318,310,0
300,276,317,311,0
299,269,315,312,0
298,265,313,313,0
298,262,312,314,0
298,261,312,314,0
297,262,311,313,0
297,268,310,311,0
297,277,309,310,0
297,288,309,308,0
297,297,309,307,0
297,303,310,306,0
298,308,310,305,0
300,313,311,305,0
302,316,312,305,0
304,318,312,305,0
305,322,312,304,0
306,327,310,302,0
305,330,308,300,0
305,333,307,300,0
305,335,306,301,0
306,330,307,301,0
307,316,308,301,0
308,304,311,303,0
309,306,313,305,0
310,318,315,307,0
311,336,315,309,0
310,350,314,310,0
309,353,312,310,0
307,344,310,310,0
304,328,308,309,0
302,309,305,308,0
301,290,303,306,0
300,278,302,304,0
299,276,300,303,0
298,280,299,301,0
298,288,300,301,0
298,296,301,301,0
298,299,303,302,0
299,299,305,302,0
301,301,306,302,0
303,312,308,303,0
304,328,309,303,0
303,337,310,303,0
300,329,311,303,0
297,309,311,301,0
296,286,310,301,0
296,268,309,302,0
298,257,310,305,0
300,255,310,308,0
302,263,310,310,0
302,279,311,311,0
303,300,312,313,0
302,319,312,315,0
302,330,313,317,0
302,332,314,318,0
302,328,314,318,0
302,323,313,318,0
303,316,313,318,0
304,308,312,317,0
304,303,310,317,0
304,302,308,315,0
303,304,306,314,0
302,307,303,314,0
301,311,301,315,0
301,316,301,315,0
301,322,301,316,0
301,326,301,316,0
301,326,302,315,0
301,324,302,314,0
302,322,302,313,0
302,323,302,311,0
304,325,301,312,0
305,328,301,313,0
306,332,302,314,0
306,334,304,315,0
305,333,307,317,0
304,334,309,317,0
303,335,311,317,0
302,333,311,316,0
303,327,310,314,0
304,318,308,314,0
307,314,305,314,0
309,317,303,315,0
310,325,301,315,0
310,334,300,314,0
309,338,300,313,0
306,333,300,312,0
304,322,302,311,0
302,313,305,311,0
301,306,307,310,0
300,299,308,310,0
300,292,308,309,0
301,287,306,308,0
302,283,304,307,0
302,279,301,306,0
303,279,299,305,0
304,281,299,307,0
307,283,300,309,0
310,284,301,310,0
311,284,301,310,0
312,284,300,308,0
312,285,299,306,0
311,290,298,306,0
312,297,298,306,0
311,307,299,306,0
310,318,301,306,0
309,328,303,306,0
308,334,306,307,0
306,335,308,308,0
306,330,309,308,0
306,324,310,309,0
307,321,310,310,0
309,323,309,311,0
310,331,308,312,0
312,343,307,313,0
314,353,307,313,0
315,358,308,314,0
317,353,308,313,0
318,338,309,313,0
317,315,308,314,0
315,291,307,313,0
312,273,305,312,0
309,266,303,310,0
306,268,301,307,0
303,275,297,305,0
301,288,294,302,0
299,304,291,300,0
298,319,289,297,0
298,329,289,296,0
299,336,289,296,0
301,340,292,298,0
303,340,295,300,0
306,333,298,303,0
307,322,300,305,0
307,314,302,306,0
306,312,305,306,0
306,315,308,307,0
306,321,312,308,0
307,326,314,310,0
308,322,314,312,0
310,311,313,315,0
312,303,313,317,0
315,305,313,319,0
317,318,312,320,0
317,334,310,319,0
314,344,308,317,0
310,338,306,314,0
306,319,305,311,0
304,295,304,308,0
303,273,304,305,0
303,256,303,303,0
304,243,301,302,0
304,231,298,301,0
304,223,296,299,0
304,218,295,299,0
304,220,297,300,0
304,228,300,302,0
303,243,302,303,0
302,262,305,305,0
301,285,308,307,0
300,310,310,310,0
301,336,311,312,0
301,358,311,313,0
301,375,310,314,0
301,384,309,314,0
300,381,308,313,0
299,364,309,313,0
298,339,310,312,0
298,315,311,311,0
298,294,312,310,0
298,278,311,309,0
299,268,311,308,0
301,266,310,307,0
304,268,308,306,0
307,272,307,306,0
309,280,307,305,0
310,283,307,304,0
310,284,308,303,0
308,286,310,303,0
307,290,310,304,0
306,296,311,306,0
305,301,312,306,0
303,302,312,306,0
302,301,313,305,0
302,302,313,305,0
304,309,313,305,0
306,321,312,305,0
308,333,311,306,0
310,340,310,308,0
311,334,310,308,0
309,312,309,308,0
308,286,309,309,0
307,268,310,310,0
307,261,311,312,0
308,265,312,313,0
309,276,312,314,0
311,292,313,315,0
313,312,313,317,0
315,335,313,320,0
316,349,313,320,0
314,344,311,318,0
311,331,309,315,0
307,320,306,313,0
304,310,304,312,0
302,303,302,311,0
302,298,301,312,0
302,296,300,311,0
303,296,299,311,0
304,301,300,311,0
305,309,302,311,0
307,319,305,310,0
308,324,309,310,0
308,316,312,309,0
306,296,313,307,0
304,274,312,305,0
304,258,310,303,0
305,254,308,303,0
307,261,306,301,0
307,277,303,299,0
306,295,301,297,0
304,311,299,296,0
303,326,298,298,0
303,338,299,300,0
303,345,300,301,0
304,347,300,302,0
304,345,301,304,0
305,341,302,305,0
304,339,303,306,0
304,339,304,307,0
304,339,303,307,0
304,339,302,306,0
304,334,301,305,0
304,324,300,305,0
304,312,299,304,0
304,304,299,303,0
304,301,301,301,0
304,300,304,301,0
304,301,307,302,0
306,301,310,302,0
308,299,311,304,0
310,301,312,305,0
313,306,312,307,0
316,314,313,309,0
318,322,313,311,0
317,320,314,311,0
314,306,314,309,0
308,288,314,306,0
303,276,313,303,0
300,271,310,302,0
298,271,307,301,0
298,273,304,300,0
297,277,303,300,0
297,279,303,301,0
297,281,304,302,0
298,284,306,302,0
300,296,307,302,0
303,321,307,302,0
305,358,306,301,0
307,396,306,299,0
308,415,305,296,0
306,405,304,293,0
305,367,304,291,0
303,321,304,291,0
301,281,305,293,0
301,257,306,296,0
302,248,307,299,0
303,254,307,302,0
303,270,305,305,0
304,288,303,306,0
305,302,303,306,0
307,308,304,306,0
308,306,307,306,0
308,300,312,308,0
307,298,316,311,0
308,302,318,313,0
308,316,319,315,0
308,335,319,315,0
308,348,317,315,0
306,351,315,314,0
306,343,313,312,0
306,328,313,310,0
306,311,312,309,0
307,297,312,307,0
308,288,312,306,0
309,281,312,305,0
309,277,311,304,0
309,274,310,304,0
309,274,308,302,0
309,276,307,302,0
309,281,305,301,0
310,287,304,300,0
310,292,304,300,0
311,294,304,301,0
312,293,305,302,0
314,291,306,303,0
314,290,306,304,0
315,294,305,304,0
316,300,304,305,0
315,304,303,305,0
314,308,302,305,0
313,309,301,305,0
311,306,300,305,0
310,298,300,304,0
308,288,299,303,0
307,283,299,302,0
307,289,300,302,0
307,305,304,304,0
307,331,308,305,0
306,359,312,306,0
305,380,313,306,0
305,391,314,306,0
306,392,314,307,0
307,384,314,307,0
306,363,313,306,0
306,336,311,305,0
305,308,310,305,0
305,284,308,305,0
305,267,307,305,0
304,258,305,305,0
304,257,302,306,0
304,260,299,306,0
303,266,296,305,0
302,272,292,304,0
301,278,290,303,0
301,284,289,302,0
301,289,291,301,0
301,296,295,301,0
303,308,301,304,0
305,324,306,307,0
308,344,309,310,0
310,365,311,312,0
311,377,311,312,0
310,373,311,310,0
309,352,311,307,0
307,328,311,305,0
306,312,311,305,0
305,305,311,306,0
305,304,309,306,0
304,304,308,306,0
303,299,307,306,0
302,290,306,307,0
302,279,305,308,0
303,273,305,309,0
305,276,305,311,0
306,283,306,312,0
307,290,307,312,0
307,291,307,312,0
307,288,306,311,0
307,286,304,310,0
307,288,303,309,0
306,293,302,308,0
304,299,301,307,0
302,303,299,305,0
301,303,299,304,0
302,302,300,305,0
302,299,302,306,0
303,297,306,308,0
304,296,309,310,0
305,296,312,312,0
306,296,314,314,0
307,297,315,316,0
308,299,314,316,0
308,301,313,317,0
307,304,312,317,0
307,307,311,318,0
307,309,310,317,0
305,310,308,315,0
303,310,306,312,0
301,311,305,310,0
301,314,305,309,0
302,323,305,308,0
303,345,306,307,0
305,374,306,307,0
307,403,306,308,0
309,421,306,308,0
309,418,305,307,0
310,391,306,307,0
309,357,307,308,0
309,326,309,309,0
309,300,310,309,0
308,277,310,309,0
307,255,308,309,0
305,239,306,308,0
303,230,304,306,0
301,228,302,305,0
300,231,301,304,0
301,240,300,305,0
302,253,300,306,0
303,269,300,307,0
304,286,300,308,0
304,305,300,309,0
305,320,299,309,0
306,326,299,311,0
308,327,300,312,0
310,326,303,314,0
311,320,307,316,0
312,309,310,316,0
312,291,314,315,0
312,267,315,312,0
311,239,315,309,0
310,212,315,307,0
310,195,313,306,0
310,196,312,305,0
309,216,309,304,0
307,247,305,302,0
304,277,300,301,0
300,306,296,299,0
298,331,293,299,0
296,347,290,298,0
295,357,291,299,0
295,363,294,301,0
296,365,298,303,0
297,361,301,305,0
297,351,302,307,0
297,338,301,307,0
298,326,300,307,0
299,316,299,306,0
299,309,299,305,0
299,307,301,305,0
300,306,306,305,0
301,308,311,306,0
303,313,315,308,0
306,319,319,310,0
309,323,320,312,0
310,323,319,313,0
310,318,317,313,0
309,310,314,312,0
307,304,312,310,0
305,302,310,309,0
305,301,309,308,0
305,301,308,308,0
305,307,307,307,0
306,322,305,307,0
308,343,305,309,0
310,364,305,313,0
312,376,304,315,0
312,374,304,315,0
312,360,304,315,0
311,342,306,315,0
309,325,308,315,0
307,312,312,314,0
306,302,315,313,0
306,293,317,312,0
307,289,317,311,0
308,289,317,311,0
309,290,315,311,0
309,292,313,311,0
309,297,310,309,0
308,309,308,308,0
307,326,307,308,0
306,340,306,309,0
305,341,305,309,0
304,329,304,308,0
302,308,303,307,0
300,288,302,306,0
298,272,301,305,0
298,263,301,303,0
298,258,301,303,0
298,257,301,304,0
298,257,302,305,0
299,259,302,307,0
300,261,302,308,0
302,264,302,310,0
304,266,301,311,0
306,270,300,311,0
307,277,299,311,0
307,284,298,310,0
307,289,297,308,0
307,290,297,307,0
306,284,299,307,0
306,274,301,307,0
307,265,305,308,0
307,263,310,309,0
308,268,314,310,0
308,282,316,311,0
308,297,316,311,0
307,309,315,312,0
305,315,312,311,0
303,318,308,311,0
301,320,304,310,0
300,319,300,308,0
299,316,297,306,0
300,315,296,305,0
301,320,297,305,0
305,334,299,307,0
310,354,303,310,0
315,378,307,314,0
320,401,309,318,0
322,418,309,319,0
321,416,308,318,0
317,388,306,316,0
311,348,306,313,0
305,310,307,310,0
300,285,309,308,0
297,270,310,308,0
297,265,312,307,0
298,267,313,308,0
300,276,313,308,0
302,287,312,309,0
304,297,312,309,0
305,300,310,309,0
307,298,309,310,0
309,294,307,311,0
311,292,307,312,0
313,291,306,312,0
313,291,306,313,0
312,292,306,314,0
311,294,305,315,0
311,298,304,316,0
311,303,304,316,0
311,308,303,317,0
310,312,302,316,0
308,312,300,316,0
306,308,299,314,0
304,302,298,313,0
303,297,298,312,0
303,295,298,312,0
304,295,299,312,0
306,296,300,313,0
308,298,304,313,0
309,300,307,314,0
309,300,310,313,0
308,300,310,312,0
307,305,309,311,0
305,316,308,311,0
305,328,307,311,0
305,336,308,313,0
306,336,309,314,0
306,327,310,315,0
305,314,310,316,0
305,302,310,316,0
304,294,308,314,0
304,291,306,313,0
305,293,305,311,0
305,298,304,309,0
305,302,303,307,0
306,301,303,306,0
308,298,302,306,0
310,296,304,305,0
312,298,305,305,0
315,303,308,307,0
316,308,311,309,0
315,306,312,308,0
312,297,311,307,0
309,288,309,305,0
305,282,305,302,0
302,280,302,298,0
301,286,299,296,0
302,302,298,295,0
302,320,297,296,0
302,333,298,297,0
303,336,300,300,0
304,329,301,303,0
305,319,303,305,0
305,307,304,308,0
306,296,304,310,0
307,285,304,312,0
308,279,304,314,0
310,280,305,316,0
311,287,306,318,0
312,299,307,320,0
313,309,308,322,0
313,315,310,323,0
313,314,310,323,0
312,309,310,322,0
312,303,310,321,0
311,301,311,320,0
311,303,313,319,0
311,309,317,318,0
310,318,318,317,0
310,326,319,317,0
309,331,317,317,0
309,331,314,317,0
308,329,311,317,0
307,327,310,317,0
308,326,309,317,0
308,325,308,317,0
308,319,307,315,0
308,304,305,313,0
309,285,304,312,0
310,269,302,311,0
312,259,301,310,0
313,257,300,310,0
313,257,300,311,0
312,259,299,311,0
311,263,298,312,0
310,269,297,312,0
308,277,296,313,0
308,288,296,314,0
308,303,297,315,0
310,323,299,316,0
311,349,302,316,0
311,375,305,316,0
310,392,307,314,0
308,395,308,311,0
304,383,306,309,0
302,358,303,307,0
299,330,301,306,0
297,306,299,306,0
297,292,299,306,0
297,286,299,306,0
298,285,300,307,0
298,286,301,307,0
297,288,302,307,0
298,287,303,307,0
298,284,304,307,0
299,281,305,307,0
301,281,306,306,0
303,285,307,305,0
304,291,308,303,0
305,301,307,301,0
306,313,306,300,0
306,323,306,298,0
306,325,304,297,0
305,323,303,297,0
305,318,302,297,0
304,305,301,296,0
303,288,301,295,0
302,272,302,296,0
303,260,304,299,0
304,250,307,302,0
305,243,309,306,0
306,241,310,307,0
306,245,311,308,0
308,257,310,308,0
309,274,309,309,0
310,291,307,308,0
309,301,305,306,0
307,305,303,305,0
305,310,303,303,0
302,319,301,301,0
300,330,300,300,0
298,341,298,300,0
298,347,296,301,0
298,346,295,302,0
298,341,295,303,0
299,335,299,305,0
299,331,305,308,0
300,328,310,310,0
300,325,314,312,0
299,324,315,312,0
299,323,313,312,0
299,318,310,311,0
300,314,307,310,0
301,309,305,309,0
302,302,304,308,0
302,296,304,307,0
302,290,305,307,0
302,288,306,308,0
303,288,308,309,0
303,290,309,310,0
304,294,310,311,0
306,299,311,313,0
306,303,311,313,0
305,302,311,313,0
303,296,310,311,0
301,290,309,309,0
299,289,308,308,0
297,293,308,308,0
297,299,308,308,0
297,306,308,309,0
297,315,309,309,0
297,325,309,310,0
298,333,310,311,0
299,336,310,312,0
300,333,309,311,0
300,322,308,310,0
301,308,307,309,0
303,298,307,308,0
306,296,307,308,0
309,306,308,310,0
311,321,308,311,0
313,333,308,312,0
314,337,307,312,0
315,332,305,311,0
314,319,303,310,0
312,303,301,310,0
309,290,299,309,0
308,286,299,308,0
306,291,301,308,0
306,302,304,310,0
308,313,307,311,0
311,320,309,312,0
313,326,310,311,0
315,332,309,310,0
315,332,307,308,0
313,325,305,307,0
311,315,303,305,0
309,308,302,304,0
307,306,302,303,0
307,308,302,303,0
307,310,302,303,0
307,310,302,301,0
306,308,300,298,0
305,300,298,295,0
304,287,296,293,0
304,269,295,291,0
306,254,296,291,0
307,248,297,292,0
308,255,299,294,0
310,271,302,298,0
311,288,305,303,0
312,299,306,307,0
312,302,305,309,0
312,301,304,311,0
313,300,302,312,0
313,302,302,312,0
313,306,301,311,0
311,311,302,308,0
310,312,303,306,0
309,309,307,304,0
308,306,310,303,0
309,309,313,303,0
309,313,313,303,0
309,312,313,302,0
308,304,313,302,0
308,290,313,302,0
308,278,313,302,0
308,275,314,303,0
308,276,313,304,0
307,277,313,304,0
306,280,313,305,0
305,290,313,305,0
304,305,312,305,0
302,318,312,305,0
302,329,311,305,0
303,338,312,306,0
305,346,312,309,0
308,353,312,312,0
310,359,311,313,0
311,359,310,313,0
311,346,307,311,0
309,325,304,308,0
307,301,301,305,0
307,282,299,302,0
307,270,298,302,0
308,267,299,304,0
310,275,302,307,0
313,293,305,311,0
314,313,309,313,0
315,328,313,315,0
315,332,315,315,0
313,322,314,313,0
310,307,312,310,0
307,293,309,308,0
306,285,306,307,0
306,282,305,307,0
305,281,304,307,0
305,281,303,307,0
305,282,303,306,0
305,283,302,305,0
305,284,300,303,0
305,285,299,303,0
306,288,298,303,0
308,295,297,304,0
310,305,298,305,0
313,316,298,306,0
315,322,299,307,0
316,318,301,307,0
317,305,302,306,0
316,290,302,305,0
316,280,302,305,0
315,283,301,304,0
314,293,299,303,0
312,302,298,303,0
310,310,297,302,0
310,319,296,303,0
310,331,296,304,0
311,349,297,306,0
312,362,298,307,0
312,364,298,306,0
312,354,298,305,0
313,342,300,305,0
314,334,303,307,0
315,328,306,310,0
314,315,306,311,0
311,295,305,311,0
308,278,303,311,0
306,268,302,311,0
305,266,304,311,0
304,271,306,312,0
303,279,310,312,0
304,285,311,312,0
304,289,311,312,0
306,292,310,311,0
307,296,309,310,0
307,302,306,309,0
307,308,304,308,0
306,315,301,306,0
305,324,299,306,0
305,334,298,306,0
305,340,298,306,0
305,340,297,306,0
304,333,297,306,0
303,323,298,306,0
302,313,300,306,0
301,306,302,306,0
302,302,303,306,0
302,299,304,306,0
303,298,304,307,0
304,297,303,308,0
305,296,303,309,0
306,296,303,311,0
307,297,303,313,0
308,297,304,313,0
308,296,303,313,0
307,296,301,311,0
307,300,300,307,0
307,308,300,304,0
307,321,302,301,0
307,338,304,301,0
308,354,307,302,0
309,364,310,306,0
310,362,312,310,0
309,347,313,312,0
308,325,312,314,0
307,305,311,315,0
306,292,309,315,0
307,288,309,316,0
308,288,309,317,0
309,281,309,316,0
309,271,308,314,0
309,264,307,312,0
309,261,306,310,0
309,265,304,308,0
309,272,303,307,0
309,277,303,306,0
309,278,302,306,0
308,280,302,305,0
308,286,301,305,0
308,301,302,305,0
308,321,302,305,0
308,338,301,305,0
308,348,301,305,0
308,350,301,305,0
308,348,301,307,0
309,347,302,308,0
310,348,301,308,0
310,340,301,306,0
308,321,298,303,0
306,302,296,300,0
305,293,293,298,0
304,292,291,297,0
303,295,291,296,0
304,301,293,298,0
305,308,297,302,0
307,314,300,306,0
309,320,302,310,0
311,324,304,312,0
312,324,306,314,0
313,320,308,315,0
313,312,309,314,0
312,300,310,314,0
312,287,309,313,0
311,276,307,312,0
310,269,304,311,0
308,267,304,309,0
306,268,305,309,0
304,275,309,308,0
301,284,312,307,0
300,296,313,306,0
300,307,313,306,0
301,316,312,306,0
302,327,312,307,0
302,340,310,309,0
303,355,309,310,0
304,368,309,311,0
304,370,307,310,0
304,354,305,308,0
305,329,304,307,0
307,304,303,307,0
308,287,302,307,0
310,278,301,308,0
310,275,301,308,0
310,276,300,308,0
310,282,300,308,0
311,288,300,309,0
311,295,301,309,0
310,300,301,310,0
309,303,301,311,0
309,305,302,311,0
309,306,302,311,0
309,307,303,310,0
309,308,303,309,0
310,313,302,307,0
311,323,302,305,0
311,337,301,304,0
311,353,300,303,0
311,361,300,303,0
311,356,302,304,0
311,339,306,305,0
312,317,309,307,0
312,296,312,308,0
312,279,312,308,0
311,269,311,309,0
308,263,310,310,0
306,262,308,311,0
306,262,307,312,0
306,262,306,313,0
306,263,306,313,0
307,266,306,313,0
307,270,306,312,0
307,275,305,311,0
306,279,304,310,0
305,282,302,309,0
305,285,301,309,0
306,287,301,309,0
307,292,301,309,0
308,301,302,309,0
309,313,301,308,0
310,329,301,306,0
309,348,301,304,0
310,365,301,303,0
310,375,300,303,0
312,374,300,304,0
312,361,300,304,0
311,339,298,305,0
310,319,297,306,0
309,306,295,307,0
308,301,294,308,0
307,299,293,309,0
306,298,292,309,0
305,297,294,308,0
305,295,297,307,0
304,294,301,306,0
304,295,305,307,0
305,302,310,307,0
306,313,315,308,0
307,326,318,309,0
309,339,319,310,0
309,347,316,308,0
307,344,312,305,0
305,332,306,301,0
302,315,302,297,0
301,299,300,296,0
300,286,301,296,0
299,279,302,298,0
300,278,303,301,0
300,287,305,305,0
302,306,307,309,0
305,330,308,313,0
307,342,308,315,0
307,331,308,314,0
306,307,308,313,0
305,284,308,312,0
305,269,307,311,0
304,262,307,309,0
304,261,306,309,0
303,266,304,307,0
302,275,302,306,0
301,288,301,305,0
300,301,299,306,0
300,311,299,307,0
301,316,299,309,0
302,318,300,311,0
304,318,301,313,0
306,316,303,315,0
306,310,306,315,0
304,300,306,313,0
302,290,306,310,0
302,284,306,308,0
301,282,306,306,0
302,283,307,306,0
302,284,308,306,0
303,287,309,306,0
303,292,308,306,0
303,300,308,305,0
303,310,307,305,0
303,320,306,305,0
303,329,307,305,0
303,333,308,307,0
302,332,312,308,0
300,323,314,309,0
299,311,316,310,0
298,300,316,310,0
298,294,315,311,0
298,292,313,311,0
300,293,311,311,0
301,294,310,311,0
303,294,310,311,0
306,293,310,312,0
308,290,310,312,0
310,288,311,313,0
312,288,311,313,0
314,294,311,314,0
315,303,310,314,0
315,313,309,314,0
314,321,307,313,0
313,332,306,312,0
313,351,304,310,0
312,376,302,309,0
312,402,301,310,0
313,422,301,311,0
314,427,301,313,0
314,410,300,313,0
312,376,299,313,0
308,337,299,309,0
303,301,297,306,0
298,273,296,301,0
294,254,296,296,0
291,241,296,291,0
290,235,295,287,0
290,233,294,284,0
291,237,293,282,0
292,243,293,282,0
294,251,294,284,0
297,260,297,288,0
299,269,302,292,0
301,277,307,297,0
303,283,311,300,0
304,289,314,303,0
305,292,315,304,0
305,295,315,304,0
305,296,315,304,0
305,296,315,303,0
306,295,316,303,0
307,294,317,303,0
309,294,318,305,0
311,297,318,308,0
313,304,318,311,0
313,311,318,311,0
313,314,316,311,0
311,315,315,310,0
311,315,315,309,0
311,315,315,309,0
311,311,315,307,0
311,301,314,305,0
310,289,312,303,0
308,281,310,301,0
306,278,310,300,0
305,279,309,300,0
305,280,309,300,0
305,280,309,301,0
305,280,309,301,0
306,285,309,302,0
307,297,308,303,0
308,308,307,303,0
308,317,306,304,0
307,322,304,304,0
306,326,302,304,0
306,330,301,305,0
305,334,300,305,0
305,340,299,305,0
305,349,298,305,0
305,362,298,305,0
307,376,298,306,0
309,385,297,307,0
310,382,296,307,0
309,364,296,306,0
308,343,297,305,0
306,326,301,304,0
304,316,306,305,0
304,308,312,306,0
305,299,317,309,0
305,293,320,310,0
307,295,319,310,0
307,300,317,309,0
309,308,314,308,0
310,314,313,307,0
310,310,312,306,0
310,296,311,306,0
310,284,311,306,0
309,280,310,306,0
309,283,309,308,0
309,288,307,309,0
309,293,306,310,0
309,298,307,310,0
309,301,309,310,0
308,301,311,308,0
305,298,313,306,0
303,294,313,304,0
302,294,312,302,0
300,299,310,300,0
300,314,308,299,0
301,334,306,299,0
303,351,304,299,0
304,356,302,300,0
305,348,301,301,0
304,332,301,303,0
305,314,302,304,0
306,300,303,306,0
307,290,306,308,0
308,285,309,311,0
310,285,313,312,0
311,296,315,312,0
313,311,316,310,0
313,324,316,307,0
312,330,314,304,0
311,326,311,302,0
309,314,308,299,0
306,300,306,298,0
304,290,305,298,0
302,289,304,298,0
300,293,303,298,0
298,299,302,298,0
296,304,302,299,0
295,306,301,299,0
295,298,300,299,0
296,283,300,298,0
297,271,300,297,0
300,263,301,298,0
303,260,302,299,0
306,259,304,302,0
308,261,306,304,0
309,266,307,307,0
310,277,308,308,0
310,289,309,309,0
309,302,310,308,0
309,314,310,308,0
309,322,309,306,0
308,325,308,305,0
308,325,308,304,0
308,325,308,305,0
309,327,308,306,0
310,331,308,306,0
311,336,308,305,0
312,341,309,305,0
312,345,311,305,0
312,342,314,306,0
310,332,316,306,0
309,318,317,306,0
307,308,317,306,0
306,301,316,306,0
306,295,314,306,0
306,285,312,305,0
307,275,311,304,0
307,267,310,303,0
307,267,309,301,0
307,276,307,300,0
306,293,305,298,0
306,313,302,297,0
304,328,300,296,0
303,330,299,296,0
302,326,299,296,0
301,319,300,298,0
301,315,302,300,0
302,316,303,303,0
303,321,305,306,0
305,331,307,310,0
305,342,308,313,0
305,350,308,314,0
304,353,308,315,0
304,352,306,313,0
302,343,304,310,0
300,328,302,307,0
298,310,301,304,0
297,292,301,301,0
295,280,301,300,0
295,273,301,300,0
296,272,301,300,0
297,275,302,302,0
298,281,302,303,0
300,288,303,305,0
301,296,304,306,0
302,305,307,308,0
303,317,310,309,0
304,329,312,310,0
304,340,313,309,0
303,349,311,309,0
302,354,309,308,0
302,350,305,307,0
301,337,303,307,0
301,315,301,307,0
300,288,300,306,0
299,263,301,306,0
299,248,303,305,0
298,243,306,304,0
298,246,308,303,0
299,254,309,303,0
298,264,309,302,0
297,272,308,302,0
296,279,308,303,0
297,285,309,306,0
298,290,309,307,0
298,292,308,308,0
298,293,308,307,0
298,296,307,306,0
297,302,306,306,0
298,310,307,305,0
300,320,307,306,0
302,329,308,307,0
305,332,308,309,0
307,328,307,309,0
308,325,306,309,0
309,326,306,309,0
310,334,306,310,0
310,348,306,311,0
310,358,307,312,0
308,363,307,312,0
306,360,307,313,0
304,350,308,313,0
303,332,308,312,0
303,309,308,313,0
303,286,308,314,0
303,265,308,315,0
304,249,307,315,0
304,237,306,312,0
304,230,305,307,0
303,230,305,303,0
302,238,307,300,0
302,251,309,298,0
301,268,312,297,0
301,283,313,296,0
302,291,311,295,0
304,292,310,294,0
305,289,308,292,0
306,288,307,292,0
306,292,306,293,0
305,300,305,294,0
305,309,304,296,0
304,316,304,299,0
303,322,305,303,0
303,328,306,307,0
304,334,308,310,0
305,338,309,312,0
306,338,310,313,0
307,338,310,314,0
308,340,311,316,0
309,344,311,317,0
309,350,311,319,0
308,356,310,320,0
308,361,310,320,0
308,366,309,319,0
309,367,308,318,0
311,363,307,315,0
311,352,307,313,0
310,333,308,310,0
308,311,310,307,0
307,292,311,305,0
306,278,313,305,0
305,272,316,306,0
305,272,319,307,0
304,278,320,309,0
303,291,320,311,0
302,307,319,313,0
303,323,318,315,0
303,334,317,317,0
303,330,315,317,0
303,316,314,317,0
304,304,313,317,0
306,298,312,318,0
309,300,311,317,0
310,307,309,315,0
310,316,308,314,0
310,318,306,313,0
308,309,305,310,0
306,294,302,308,0
305,282,300,306,0
304,275,296,305,0
304,274,294,304,0
305,280,293,304,0
305,291,294,305,0
307,303,298,307,0
308,312,302,309,0
309,313,305,310,0
310,311,307,312,0
310,307,309,312,0
309,302,312,312,0
309,297,315,312,0
309,290,318,311,0
310,281,320,310,0
311,271,320,309,0
312,266,320,309,0
313,264,319,308,0
312,264,316,307,0
311,266,313,305,0
309,272,310,304,0
307,283,307,303,0
306,298,305,302,0
305,310,304,302,0
304,318,303,302,0
304,325,303,302,0
305,331,303,302,0
305,332,303,302,0
305,329,303,301,0
305,324,304,302,0
305,318,304,304,0
306,313,306,307,0
307,311,309,311,0
309,312,310,314,0
310,319,312,316,0
311,332,312,317,0
313,349,311,318,0
313,368,310,320,0
313,384,308,320,0
313,385,305,320,0
310,367,303,317,0
307,336,302,314,0
305,299,302,311,0
304,266,303,309,0
305,247,304,309,0
307,243,305,308,0
310,252,306,308,0
311,267,305,308,0
310,283,305,308,0
310,295,306,308,0
309,300,308,307,0
308,299,309,306,0
307,300,310,306,0
307,307,311,306,0
306,320,310,306,0
307,336,309,308,0
307,348,308,309,0
308,351,307,310,0
308,341,306,310,0
307,326,304,311,0
307,314,302,311,0
305,309,300,311,0
304,310,297,309,0
301,316,294,306,0
299,320,292,302,0
299,317,293,301,0
300,308,296,300,0
302,296,299,302,0
304,287,301,304,0
307,280,303,306,0
309,277,304,307,0
310,276,304,308,0
311,277,303,309,0
312,279,303,310,0
313,282,304,310,0
313,285,305,311,0
312,287,306,312,0
311,286,306,313,0
309,284,306,313,0
307,281,305,312,0
306,280,304,312,0
306,281,302,311,0
305,287,300,311,0
306,296,298,309,0
305,306,297,308,0
305,314,297,307,0
305,319,301,307,0
304,319,306,307,0
304,314,310,307,0
304,306,312,307,0
305,301,313,307,0
306,298,313,307,0
307,299,312,306,0
308,302,311,305,0
307,307,310,305,0
306,312,309,305,0
306,317,308,305,0
305,321,306,303,0
304,326,305,302,0
304,332,303,301,0
304,338,302,301,0
305,342,302,302,0
305,347,303,303,0
306,353,303,304,0
307,356,303,307,0
308,353,304,308,0
309,347,305,309,0
311,340,306,309,0
312,334,307,309,0
312,324,307,309,0
312,311,308,309,0
312,296,308,309,0
313,288,308,310,0
313,291,308,310,0
313,304,308,311,0
314,319,308,312,0
314,327,307,312,0
314,323,304,311,0
313,316,302,309,0
312,311,299,307,0
311,303,297,304,0
308,293,297,302,0
305,280,299,301,0
303,269,304,301,0
302,263,308,302,0
301,264,311,303,0
300,269,312,304,0
300,275,312,304,0
300,281,311,305,0
299,285,310,306,0
300,287,308,308,0
301,287,306,309,0
302,286,306,311,0
304,283,308,312,0
306,279,309,313,0
309,279,312,314,0
312,287,313,316,0
314,304,315,316,0
314,320,315,315,0
313,328,313,312,0
310,330,311,309,0
307,327,308,305,0
304,320,305,303,0
303,309,302,302,0
302,295,301,300,0
302,283,300,300,0
302,277,301,300,0
303,278,303,301,0
303,284,305,303,0
303,291,307,304,0
302,297,308,305,0
300,301,308,305,0
299,302,308,305,0
299,304,308,304,0
301,310,308,305,0
303,321,308,305,0
305,340,309,306,0
309,365,309,306,0
311,383,308,305,0
312,384,307,303,0
311,367,308,302,0
310,341,310,301,0
308,311,313,302,0
308,284,317,303,0
309,270,321,305,0
311,267,323,307,0
311,272,322,308,0
310,277,319,308,0
308,282,316,307,0
306,287,312,307,0
304,290,308,306,0
304,295,306,305,0
303,303,306,306,0
303,313,306,306,0
303,319,306,307,0
303,321,307,307,0
303,317,307,307,0
304,312,308,308,0
306,309,308,308,0
308,309,308,309,0
310,309,307,310,0
311,309,306,310,0
311,312,305,310,0
310,317,305,310,0
310,324,305,309,0
311,329,305,309,0
311,328,304,308,0
310,317,305,308,0
309,301,306,308,0
308,288,309,308,0
308,282,312,308,0
308,286,314,309,0
309,295,315,310,0
309,299,315,310,0
308,292,314,311,0
307,283,315,310,0
307,278,316,310,0
307,278,317,309,0
306,280,316,307,0
304,281,314,305,0
302,279,311,303,0
302,278,308,302,0
302,275,305,301,0
303,274,302,301,0
304,274,300,301,0
305,275,298,301,0
305,279,298,301,0
306,284,300,300,0
306,290,304,300,0
305,294,307,300,0
305,299,309,301,0
305,311,310,303,0
305,334,310,304,0
306,364,309,307,0
308,392,309,310,0
311,409,309,312,0
312,405,309,313,0
311,376,309,312,0
310,336,308,311,0
308,298,307,309,0
307,271,306,308,0
307,255,305,307,0
306,247,304,305,0
305,247,301,303,0
305,256,300,300,0
304,273,298,298,0
303,289,296,295,0
302,298,296,292,0
301,301,297,292,0
300,300,302,294,0
301,295,307,298,0
303,290,311,302,0
306,288,314,305,0
308,292,315,307,0
308,302,315,308,0
308,311,315,308,0
307,315,316,308,0
304,317,318,308,0
302,317,320,309,0
301,315,320,309,0
300,311,319,309,0
298,307,317,308,0
297,303,314,307,0
296,300,312,305,0
296,296,309,304,0
297,294,308,303,0
298,295,307,302,0
299,298,306,301,0
301,306,305,301,0
303,318,305,302,0
304,333,305,303,0
306,348,305,305,0
307,358,305,306,0
308,356,306,307,0
308,343,306,309,0
308,328,307,310,0
308,319,307,313,0
307,316,307,315,0
306,316,308,315,0
304,312,309,314,0
300,301,310,312,0
298,288,312,310,0
296,282,313,310,0
297,282,312,309,0
298,287,311,309,0
301,299,310,309,0
304,316,310,309,0
307,334,311,309,0
309,347,313,308,0
310,350,314,307,0
310,339,315,306,0
308,319,315,306,0
308,296,315,307,0
307,276,314,309,0
307,262,314,310,0
308,253,314,310,0
308,246,314,311,0
309,239,314,310,0
309,237,314,311,0
309,243,314,312,0
308,255,314,314,0
307,268,313,314,0
304,281,311,314,0
302,292,310,314,0
300,304,308,313,0
299,315,307,313,0
299,322,306,311,0
299,327,304,311,0
299,327,304,310,0
299,325,305,310,0
299,319,308,309,0
299,314,310,309,0
300,309,312,309,0
300,303,314,309,0
300,297,315,309,0
300,291,314,310,0
300,286,313,310,0
300,284,312,310,0
301,286,311,310,0
301,293,311,311,0
303,305,311,313,0
304,320,311,314,0
304,328,310,315,0
304,326,310,315,0
305,316,310,314,0
305,303,309,311,0
304,290,307,308,0
303,280,305,306,0
301,274,303,303,0
300,271,300,300,0
298,270,299,298,0
298,273,300,298,0
299,280,302,299,0
300,288,304,302,0
301,297,305,305,0
303,304,305,306,0
304,312,305,306,0
305,324,304,306,0
306,339,305,307,0
306,354,306,308,0
307,369,308,310,0
308,384,312,312,0
308,395,315,313,0
309,400,318,314,0
309,396,320,315,0
307,382,319,315,0
304,360,318,315,0
301,336,315,315,0
298,311,312,314,0
296,290,310,313,0
295,276,308,311,0
294,271,306,309,0
294,273,304,307,0
296,278,302,306,0
296,280,300,304,0
297,278,297,304,0
298,273,296,304,0
299,271,295,305,0
301,272,294,307,0
303,281,295,308,0
304,294,297,311,0
305,303,301,312,0
305,303,305,313,0
303,297,310,312,0
302,289,315,312,0
300,281,318,312,0
299,276,319,312,0
299,273,317,311,0
298,273,316,311,0
297,275,314,310,0
297,279,312,310,0
297,283,310,310,0
297,285,309,310,0
298,285,310,310,0
299,284,310,311,0
300,283,312,311,0
302,284,312,311,0
304,286,312,311,0
305,292,312,311,0
305,302,311,310,0
305,316,310,309,0
305,326,308,307,0
303,329,306,304,0
302,329,303,301,0
300,329,301,300,0
299,330,300,300,0
298,324,300,301,0
296,308,302,301,0
294,292,304,300,0
293,283,307,301,0
292,280,308,301,0
291,281,309,301,0
291,286,308,301,0
293,293,309,303,0
296,305,310,305,0
300,320,311,307,0
304,339,311,310,0
306,354,312,312,0
308,359,312,313,0
310,359,312,314,0
311,358,311,315,0
311,351,308,313,0
307,335,304,309,0
302,315,301,304,0
298,296,298,300,0
296,280,297,298,0
295,271,298,297,0
296,269,300,299,0
299,270,303,303,0
301,274,304,306,0
303,279,305,307,0
304,285,304,308,0
304,294,305,308,0
304,305,307,309,0
304,317,308,310,0
304,330,309,311,0
304,340,308,312,0
303,347,306,312,0
301,347,303,310,0
299,344,300,309,0
297,341,298,307,0
296,338,297,305,0
296,335,297,306,0
297,331,299,307,0
298,321,302,308,0
298,308,304,310,0
300,297,305,311,0
300,290,308,311,0
301,289,312,311,0
301,293,317,312,0
301,296,320,312,0
301,295,323,313,0
301,288,323,314,0
301,280,320,314,0
301,276,316,313,0
300,276,312,312,0
301,281,308,311,0
303,290,306,311,0
305,301,307,311,0
306,311,307,311,0
308,315,309,312,0
309,312,310,311,0
309,305,310,310,0
309,299,310,309,0
309,293,309,309,0
309,287,307,311,0
309,284,306,313,0
310,286,304,314,0
309,290,303,314,0
308,296,303,313,0
306,306,303,311,0
306,320,305,310,0
307,337,308,309,0
308,356,310,308,0
308,366,312,308,0
307,359,313,308,0
305,341,313,309,0
302,323,313,309,0
301,312,312,310,0
300,306,310,311,0
300,305,308,310,0
299,306,306,309,0
299,307,304,308,0
299,307,304,308,0
299,303,305,309,0
300,298,306,311,0
301,298,308,314,0
303,304,310,317,0
305,315,311,319,0
306,322,313,319,0
306,322,314,318,0
306,314,315,317,0
306,302,316,316,0
306,289,317,315,0
306,280,318,314,0
307,275,318,313,0
307,274,317,311,0
307,272,315,309,0
307,269,312,308,0
306,265,309,307,0
307,258,308,306,0
307,250,307,305,0
308,244,308,306,0
309,244,309,306,0
310,254,311,308,0
311,275,312,310,0
313,303,312,313,0
314,338,313,315,0
315,373,316,318,0
314,397,317,318,0
310,404,318,315,0
306,399,317,311,0
303,389,314,308,0
301,382,311,306,0
299,379,308,306,0
299,374,306,307,0
300,365,306,309,0
301,349,306,310,0
301,330,306,311,0
302,314,306,312,0
302,301,307,312,0
303,287,307,311,0
303,273,309,310,0
304,265,310,309,0
305,268,311,308,0
306,278,311,309,0
306,292,312,310,0
307,305,312,311,0
306,307,311,312,0
304,295,311,312,0
303,276,310,313,0
303,260,311,314,0
304,250,311,315,0
306,247,312,315,0
307,252,311,315,0
308,263,310,314,0
308,284,308,313,0
308,309,306,313,0
307,334,304,313,0
307,354,303,313,0
307,366,301,313,0
307,366,301,314,0
307,353,302,315,0
308,339,304,316,0
309,333,308,318,0
310,335,313,319,0
310,338,317,318,0
310,338,319,317,0
310,331,319,314,0
310,320,318,311,0
309,310,316,309,0
309,303,313,308,0
309,299,311,307,0
309,296,309,308,0
309,293,306,308,0
309,290,303,307,0
309,289,301,306,0
309,289,299,304,0
310,288,298,303,0
310,283,299,301,0
312,273,301,302,0
313,268,304,302,0
314,273,307,304,0
314,290,308,304,0
313,308,307,303,0
312,322,305,303,0
310,329,302,302,0
308,323,301,302,0
308,312,301,304,0
308,302,302,307,0
308,296,303,309,0
308,294,305,312,0
309,296,307,314,0
310,301,310,316,0
312,307,314,316,0
313,313,317,316,0
313,318,318,316,0
312,318,319,314,0
312,315,318,313,0
312,314,318,312,0
313,318,317,311,0
314,327,316,310,0
316,334,315,310,0
316,330,313,309,0
315,318,310,309,0
313,305,308,310,0
311,294,306,310,0
310,287,306,311,0
309,285,307,311,0
309,288,308,310,0
310,293,309,309,0
310,301,309,309,0
311,311,309,309,0
311,318,308,309,0
310,315,306,309,0
309,307,304,308,0
308,298,302,309,0
307,293,301,309,0
307,292,301,309,0
307,295,302,309,0
307,299,305,309,0
306,300,308,309,0
306,296,311,310,0
306,289,314,309,0
307,285,314,309,0
307,292,314,308,0
308,310,314,308,0
311,332,313,308,0
313,353,313,309,0
314,366,312,310,0
316,363,311,311,0
316,344,310,312,0
317,317,310,313,0
317,292,309,313,0
318,270,308,314,0
317,250,306,313,0
317,240,304,314,0
317,244,302,314,0
317,257,299,313,0
316,276,296,312,0
315,294,293,311,0
313,305,292,309,0
311,307,293,308,0
308,303,297,306,0
305,297,302,305,0
305,292,307,304,0
304,289,311,304,0
305,290,312,304,0
306,293,313,306,0
308,297,312,308,0
309,303,311,310,0
310,311,310,311,0
311,319,309,311,0
311,325,309,311,0
312,330,308,310,0
313,337,306,309,0
313,343,304,308,0
313,346,300,306,0
312,347,297,303,0
311,347,294,301,0
310,339,291,299,0
308,320,291,298,0
306,298,291,299,0
306,280,294,302,0
307,268,297,307,0
308,263,299,310,0
310,262,302,313,0
311,265,303,314,0
311,271,304,316,0
311,278,305,316,0
310,285,305,316,0
309,292,307,316,0
308,300,308,316,0
307,307,310,316,0
307,316,312,316,0
307,324,313,316,0
308,331,313,316,0
310,333,312,315,0
310,332,312,313,0
310,330,311,311,0
310,330,310,310,0
310,332,310,309,0
311,340,310,309,0
313,352,310,310,0
315,364,311,311,0
314,365,310,310,0
312,350,309,309,0
309,328,308,308,0
307,311,308,308,0
306,304,307,307,0
306,304,307,307,0
307,304,307,308,0
308,300,307,308,0
309,294,307,309,0
310,287,307,310,0
310,283,308,311,0
311,284,308,312,0
311,287,308,312,0
311,292,307,312,0
310,298,307,311,0
311,303,306,310,0
312,306,306,311,0
314,307,306,311,0
316,307,306,311,0
318,303,306,310,0
319,300,305,309,0
318,300,303,306,0
316,305,302,304,0
315,315,302,302,0
313,326,304,300,0
312,327,305,300,0
310,320,306,299,0
308,310,306,300,0
306,298,306,301,0
305,286,305,304,0
305,275,304,306,0
306,267,303,309,0
307,261,304,311,0
309,260,306,312,0
311,263,309,314,0
313,267,312,314,0
315,273,313,313,0
314,283,312,311,0
313,293,309,309,0
311,302,306,306,0
309,308,304,305,0
307,310,303,304,0
307,309,304,305,0
307,309,306,307,0
308,308,308,310,0
309,306,308,311,0
310,306,307,312,0
309,306,306,311,0
309,307,305,309,0
308,309,305,308,0
307,309,306,307,0
306,305,306,305,0
305,300,306,303,0
305,295,305,301,0
304,292,304,298,0
305,291,303,297,0
306,292,301,296,0
307,295,301,297,0
309,296,301,299,0
310,296,301,302,0
310,293,303,304,0
311,288,304,306,0
311,284,305,307,0
311,287,306,308,0
311,299,306,308,0
312,318,305,310,0
313,339,304,310,0
313,358,302,310,0
312,373,299,309,0
312,385,298,308,0
312,390,297,308,0
312,381,297,307,0
312,353,297,305,0
312,314,299,304,0
312,278,301,305,0
313,258,304,306,0
313,250,306,307,0
312,247,307,308,0
309,245,306,307,0
307,248,304,307,0
305,257,304,307,0
306,269,303,309,0
307,282,304,311,0
308,298,304,313,0
309,315,305,315,0
309,336,306,316,0
308,353,305,317,0
307,360,304,317,0
305,356,303,316,0
305,348,303,315,0
305,339,303,315,0
306,332,303,314,0
308,325,303,313,0
308,317,302,311,0
307,312,300,310,0
307,306,298,309,0
307,297,297,308,0
306,286,297,305,0
304,276,298,303,0
303,269,300,302,0
303,267,303,302,0
303,270,306,303,0
303,276,306,304,0
304,282,306,305,0
305,291,305,306,0
307,301,305,308,0
309,307,304,308,0
309,309,303,307,0
309,308,301,305,0
309,305,299,302,0
307,299,297,298,0
305,291,294,295,0
304,286,293,294,0
304,285,293,294,0
305,291,295,295,0
307,303,297,298,0
309,316,301,302,0
309,323,304,305,0
309,325,306,305,0
307,326,308,305,0
306,327,308,303,0
306,330,309,303,0
307,336,309,305,0
308,341,309,308,0
310,338,309,311,0
311,331,310,313,0
310,324,310,314,0
309,318,311,315,0
308,310,311,315,0
307,298,312,314,0
307,284,311,314,0
308,274,310,314,0
309,269,308,314,0
309,270,307,313,0
310,274,305,312,0
309,280,303,310,0
309,285,301,308,0
309,291,299,306,0
310,299,299,306,0
312,306,301,307,0
314,313,304,308,0
316,317,305,309,0
316,316,306,309,0
315,308,306,309,0
314,298,306,309,0
312,289,305,309,0
311,281,304,309,0
312,276,302,308,0
312,274,300,307,0
312,278,298,306,0
312,289,298,305,0
311,308,299,304,0
311,330,301,303,0
310,350,303,303,0
310,362,304,304,0
309,361,304,305,0
308,345,305,305,0
307,321,304,303,0
304,295,303,301,0
303,274,302,298,0
302,263,301,296,0
302,260,300,295,0
301,264,299,296,0
301,271,300,298,0
303,283,301,301,0
305,297,304,304,0
308,312,305,308,0
312,330,306,312,0
315,347,306,314,0
317,361,304,315,0
318,376,303,316,0
318,389,301,317,0
316,398,299,317,0
313,392,297,314,0
309,367,296,311,0
304,333,295,307,0
300,304,296,304,0
298,283,297,302,0
297,272,299,300,0
296,267,299,298,0
296,265,297,295,0
296,263,293,292,0
296,262,289,290,0
296,264,287,289,0
296,267,287,290,0
298,273,289,296,0
300,283,294,303,0
302,295,298,311,0
303,309,301,315,0
305,322,303,319,0
306,333,305,322,0
307,336,306,323,0
306,329,306,322,0
305,317,307,320,0
304,306,309,319,0
304,297,310,317,0
304,291,310,314,0
303,288,308,310,0
304,286,306,307,0
304,286,304,304,0
305,286,303,302,0
306,286,302,301,0
306,287,305,300,0
306,288,310,302,0
305,290,315,303,0
305,291,319,305,0
305,293,320,308,0
306,294,318,310,0
306,297,314,311,0
306,304,309,312,0
306,313,302,310,0
304,325,295,307,0
302,337,288,304,0
300,344,283,302,0
299,341,281,301,0
298,330,282,301,0
297,320,285,304,0
297,313,289,308,0
299,312,295,312,0
301,317,301,313,0
302,328,304,313,0
303,341,307,313,0
304,355,309,313,0
305,364,311,314,0
305,360,313,314,0
305,347,315,314,0
304,332,318,313,0
303,316,319,311,0
302,298,320,310,0
301,286,319,310,0
301,279,317,309,0
302,278,315,308,0
302,278,313,308,0
303,277,312,307,0
304,270,312,306,0
304,261,312,306,0
305,257,313,307,0
306,259,313,308,0
306,264,312,309,0
307,266,311,308,0
307,267,311,308,0
308,269,311,307,0
309,280,310,308,0
308,301,308,308,0
307,327,307,309,0
306,350,306,309,0
305,367,305,310,0
304,372,305,309,0
303,361,304,307,0
302,342,305,306,0
301,323,306,305,0
301,309,308,304,0
301,301,309,303,0
302,299,310,302,0
303,303,310,303,0
305,309,310,304,0
306,317,309,305,0
307,320,308,306,0
307,316,307,307,0
307,308,306,306,0
307,303,307,306,0
308,302,308,306,0
308,303,311,307,0
309,304,314,308,0
309,305,318,309,0
309,305,320,311,0
309,305,321,312,0
309,308,320,313,0
308,313,317,314,0
307,318,315,313,0
306,319,312,313,0
305,317,311,312,0
304,310,311,311,0
303,301,310,309,0
302,294,309,307,0
302,290,308,305,0
302,291,307,304,0
303,296,307,305,0
304,303,307,305,0
305,313,307,304,0
305,328,307,302,0
304,345,306,302,0
305,359,306,303,0
306,364,306,303,0
307,356,307,304,0
307,333,307,303,0
306,307,306,301,0
305,285,305,300,0
303,272,303,299,0
301,266,301,298,0
300,264,299,296,0
299,265,298,295,0
299,267,297,294,0
298,270,297,294,0
299,275,296,295,0
300,282,297,297,0
301,289,297,298,0
303,296,298,301,0
304,303,299,303,0
305,308,300,304,0
305,311,301,305,0
305,313,301,306,0
306,309,301,306,0
306,303,300,307,0
306,302,299,307,0
305,306,298,307,0
304,310,297,306,0
302,314,297,305,0
300,322,298,305,0
299,335,302,304,0
299,349,305,304,0
300,360,308,306,0
302,358,310,307,0
303,340,310,308,0
304,313,308,308,0
304,288,306,308,0
304,272,305,308,0
304,267,305,307,0
303,269,307,306,0
302,273,308,306,0
302,275,310,305,0
303,278,311,305,0
303,281,309,305,0
304,282,308,304,0
304,284,306,304,0
305,286,304,303,0
305,289,303,303,0
304,295,302,303,0
305,303,302,304,0
305,311,303,305,0
306,320,304,307,0
308,328,306,309,0
309,331,306,310,0
310,326,306,311,0
309,318,305,311,0
309,311,304,312,0
309,308,302,311,0
307,307,301,309,0
306,311,300,307,0
304,316,299,305,0
303,318,300,303,0
302,318,301,303,0
302,316,303,303,0
302,312,304,304,0
302,305,306,306,0
303,297,307,308,0
304,291,308,309,0
306,288,308,311,0
307,289,307,313,0
309,295,307,314,0
310,306,307,315,0
311,320,307,314,0
311,337,307,314,0
311,353,310,313,0
310,365,312,313,0
310,368,314,311,0
308,360,315,310,0
307,342,314,309,0
305,317,312,308,0
303,294,310,307,0
301,279,308,306,0
301,276,308,307,0
301,279,308,308,0
301,286,308,308,0
302,293,307,309,0
303,301,306,310,0
303,310,304,312,0
304,318,303,313,0
305,323,303,314,0
306,326,302,314,0
306,325,302,312,0
304,319,301,310,0
303,308,299,306,0
301,293,296,302,0
299,280,294,298,0
299,271,292,295,0
299,268,291,294,0
300,269,292,294,0
301,274,295,296,0
302,278,298,299,0
302,277,303,301,0
302,272,307,302,0
303,268,310,304,0
305,268,312,305,0
307,273,311,306,0
308,279,308,306,0
308,287,304,306,0
308,293,301,305,0
307,299,300,305,0
307,306,300,307,0
307,313,301,310,0
307,319,304,312,0
308,323,306,313,0
308,322,308,314,0
308,314,309,315,0
309,303,310,316,0
311,297,310,317,0
312,301,309,318,0
313,314,308,319,0
314,330,306,318,0
313,342,304,316,0
310,347,301,314,0
306,342,300,311,0
303,336,302,309,0
303,333,303,308,0
303,331,304,309,0
304,329,304,309,0
304,324,302,308,0
305,319,301,306,0
306,315,300,305,0
307,315,300,305,0
307,317,301,305,0
307,319,302,305,0
307,320,301,304,0
307,319,300,302,0
306,310,299,301,0
305,297,299,299,0
304,285,300,299,0
302,276,301,298,0
301,273,302,297,0
300,274,303,296,0
300,280,303,296,0
301,291,302,297,0
302,306,301,299,0
304,318,300,300,0
305,325,299,302,0
307,326,298,304,0
308,321,299,306,0
310,315,300,307,0
310,310,301,308,0
310,310,303,309,0
310,311,304,309,0
309,312,305,308,0
308,312,305,307,0
306,311,305,306,0
305,309,305,305,0
304,308,305,305,0
304,306,305,304,0
305,300,304,303,0
306,294,304,302,0
306,290,303,301,0
305,290,301,300,0
304,292,300,299,0
303,296,299,300,0
302,300,298,300,0
300,303,298,301,0
299,308,299,303,0
298,314,300,305,0
298,321,302,309,0
300,325,304,311,0
301,324,304,313,0
302,323,303,315,0
303,323,303,316,0
304,320,304,317,0
305,313,307,316,0
305,304,310,315,0
305,297,313,314,0
305,292,315,313,0
305,288,315,311,0
305,282,314,309,0
306,274,311,308,0
306,265,310,307,0
307,255,308,305,0
307,246,306,305,0
308,243,306,305,0
310,248,306,307,0
311,259,306,310,0
311,282,307,313,0
312,316,307,315,0
311,352,307,315,0
308,377,309,315,0
306,390,311,313,0
305,383,311,311,0
304,362,311,309,0
303,342,310,307,0
302,329,308,307,0
302,324,306,306,0
303,319,304,306,0
303,310,302,306,0
303,300,299,305,0
303,292,295,304,0
303,287,293,303,0
302,287,291,302,0
302,290,291,302,0
301,296,291,302,0
301,303,292,302,0
302,307,293,302,0
303,307,294,301,0
305,305,296,301,0
307,301,299,301,0
307,294,302,301,0
306,290,305,301,0
305,288,306,301,0
304,293,306,302,0
304,303,305,303,0
305,316,304,304,0
305,327,303,304,0
306,334,302,305,0
305,335,303,304,0
304,333,304,303,0
302,329,305,301,0
301,325,305,300,0
300,323,306,301,0
301,322,306,303,0
301,315,305,305,0
302,301,305,307,0
302,286,304,308,0
302,277,303,309,0
303,279,302,308,0
303,293,301,309,0
305,316,302,310,0
306,339,303,310,0
306,345,303,309,0
303,334,301,306,0
300,314,299,303,0
298,297,297,300,0
296,288,294,296,0
294,286,293,293,0
293,287,293,292,0
293,290,294,293,0
294,293,298,297,0
296,296,303,302,0
298,298,307,307,0
300,298,309,311,0
303,296,310,311,0
304,293,310,311,0
305,291,310,309,0
305,290,309,307,0
305,292,307,305,0
305,295,306,304,0
306,299,306,303,0
307,302,305,303,0
308,306,304,303,0
310,309,303,304,0
311,311,301,305,0
314,318,299,306,0
315,332,298,307,0
315,345,299,307,0
313,346,302,307,0
308,338,306,305,0
305,328,311,304,0
302,321,316,305,0
301,318,318,306,0
301,318,318,308,0
301,319,316,309,0
302,317,315,311,0
303,309,313,311,0
303,294,311,310,0
304,275,311,309,0
305,261,310,309,0
306,252,311,309,0
306,250,311,311,0
307,256,310,312,0
306,270,310,313,0
305,289,309,313,0
304,310,308,312,0
303,329,307,311,0
302,345,307,310,0
302,356,307,308,0
303,358,307,306,0
303,357,307,307,0
304,355,307,308,0
304,350,307,309,0
303,340,307,309,0
301,324,306,309,0
300,303,305,310,0
300,281,304,310,0
300,263,304,310,0
301,252,304,311,0
302,246,304,310,0
302,245,305,308,0
302,251,305,306,0
301,261,305,304,0
300,272,305,303,0
300,280,305,303,0
300,287,306,303,0
301,293,306,305,0
303,298,307,306,0
305,301,308,306,0
307,304,309,306,0
307,307,307,305,0
307,310,304,305,0
307,313,302,304,0
306,316,299,305,0
305,322,298,306,0
306,329,298,307,0
305,336,301,308,0
306,340,304,308,0
306,334,306,308,0
305,323,307,308,0
306,314,308,309,0
307,312,308,310,0
309,317,307,310,0
310,327,307,310,0
310,338,307,310,0
310,344,308,309,0
309,337,307,308,0
308,321,305,305,0
306,303,302,302,0
306,294,299,299,0
305,294,296,296,0
305,299,294,295,0
305,306,295,296,0
305,307,297,299,0
305,301,300,303,0
304,292,302,307,0
303,285,303,309,0
303,281,303,310,0
303,279,304,311,0
304,278,305,311,0
305,279,305,311,0
305,282,306,310,0
306,286,305,309,0
306,290,305,307,0
306,295,304,305,0
305,302,305,304,0
305,312,305,304,0
306,326,306,306,0
308,338,308,309,0
309,342,309,311,0
309,331,309,313,0
308,314,308,314,0
307,298,308,315,0
307,289,307,314,0
308,286,305,314,0
309,288,303,312,0
309,296,301,311,0
308,306,300,310,0
306,315,299,310,0
305,320,301,311,0
304,321,305,311,0
303,314,310,310,0
302,304,314,311,0
303,294,317,312,0
303,288,318,312,0
304,285,317,313,0
305,286,314,313,0
306,288,311,313,0
306,292,308,312,0
305,296,306,312,0
305,299,306,311,0
306,300,307,311,0
308,300,308,311,0
310,302,308,311,0
312,309,309,311,0
314,323,310,311,0
316,339,310,311,0
317,353,310,310,0
316,358,309,309,0
314,350,308,307,0
312,331,308,304,0
310,314,308,303,0
308,305,309,303,0
306,304,309,304,0
305,311,310,304,0
305,320,310,305,0
305,327,309,304,0
305,328,307,301,0
304,321,305,297,0
304,307,302,294,0
303,294,300,291,0
303,287,299,291,0
303,285,298,293,0
304,287,298,295,0
305,290,300,299,0
307,294,302,302,0
310,298,305,306,0
313,304,307,310,0
316,310,308,313,0
317,312,309,315,0
317,313,309,314,0
316,316,310,314,0
315,320,313,313,0
314,326,315,311,0
312,332,318,310,0
312,335,318,309,0
311,327,316,307,0
309,313,313,304,0
307,297,309,302,0
305,288,305,300,0
304,285,302,300,0
304,288,299,301,0
304,294,297,302,0
305,302,295,304,0
307,315,293,305,0
308,329,293,306,0
308,340,294,306,0
307,344,298,306,0
305,338,302,304,0
303,328,306,302,0
302,318,309,300,0
302,312,311,298,0
303,306,312,298,0
305,300,311,297,0
306,293,310,297,0
307,288,308,296,0
306,284,306,295,0
305,283,303,294,0
303,286,300,293,0
303,291,300,294,0
304,298,299,296,0
305,304,300,297,0
307,309,303,298,0
309,313,305,299,0
310,315,307,301,0
311,315,308,301,0
311,313,308,301,0
311,313,307,301,0
311,318,306,300,0
312,327,304,300,0
312,339,302,298,0
313,349,299,298,0
315,353,297,297,0
316,348,295,297,0
315,333,295,297,0
314,320,297,299,0
314,318,301,303,0
314,326,306,307,0
314,332,312,309,0
314,331,315,311,0
313,321,317,310,0
311,306,317,309,0
308,293,315,307,0
306,283,313,305,0
306,276,311,303,0
306,271,310,302,0
307,268,309,301,0
308,265,308,300,0
310,264,306,300,0
311,267,304,300,0
311,271,302,300,0
310,274,299,299,0
308,278,298,298,0
307,282,298,297,0
307,287,300,297,0
307,292,301,298,0
307,296,302,297,0
307,296,303,297,0
307,296,304,298,0
308,298,306,300,0
309,306,308,303,0
311,317,310,306,0
312,325,311,307,0
310,330,312,307,0
308,331,311,306,0
305,330,310,305,0
304,327,309,304,0
304,323,309,305,0
304,321,309,306,0
306,320,310,308,0
308,319,311,309,0
309,315,311,309,0
310,310,311,308,0
310,307,311,307,0
310,308,310,305,0
310,313,309,303,0
310,322,308,302,0
311,334,307,301,0
311,344,306,301,0
311,344,305,301,0
310,330,304,300,0
309,312,302,299,0
308,295,302,298,0
308,282,302,299,0
309,277,304,300,0
310,282,306,301,0
311,293,307,302,0
310,304,306,302,0
309,310,305,301,0
308,311,303,299,0
307,309,302,298,0
306,305,303,298,0
306,301,305,298,0
307,296,307,299,0
308,292,309,300,0
308,287,309,301,0
307,284,309,300,0
306,283,309,300,0
307,285,309,300,0
306,290,309,300,0
305,295,309,300,0
304,300,309,300,0
303,309,311,300,0
303,322,313,301,0
304,336,315,302,0
305,350,316,304,0
306,360,315,305,0
306,360,314,305,0
306,353,312,304,0
305,340,309,302,0
304,327,305,299,0
302,315,301,295,0
301,304,297,290,0
300,295,295,287,0
301,286,297,286,0
302,279,302,289,0
304,274,308,295,0
307,270,313,302,0
308,267,317,307,0
309,268,318,311,0
309,272,318,313,0
308,278,316,312,0
307,287,313,311,0
305,302,310,310,0
304,320,307,309,0
304,335,306,308,0
304,345,306,308,0
305,343,306,307,0
306,329,307,305,0
306,310,307,303,0
307,294,308,302,0
308,284,308,302,0
309,282,308,302,0
309,285,307,301,0
308,289,306,300,0
307,291,305,299,0
306,291,305,298,0
304,292,307,299,0
304,293,309,301,0
303,295,312,303,0
303,297,313,305,0
303,299,315,308,0
304,301,316,311,0
305,304,316,312,0
307,307,317,314,0
309,310,317,316,0
311,314,317,317,0
312,319,317,317,0
312,321,317,316,0
311,320,315,314,0
311,321,314,313,0
311,330,313,314,0
313,348,313,315,0
314,372,313,315,0
315,395,313,315,0
313,400,311,312,0
310,382,309,308,0
307,353,308,305,0
306,329,308,304,0
306,315,309,304,0
306,310,309,305,0
306,308,309,305,0
306,309,309,306,0
306,306,307,305,0
306,300,306,305,0
305,289,305,305,0
305,280,303,305,0
304,275,303,306,0
303,274,303,305,0
302,276,303,304,0
302,280,304,303,0
301,283,305,302,0
302,285,306,302,0
301,287,307,302,0
301,290,307,302,0
300,293,307,302,0
299,296,308,302,0
299,299,309,303,0
299,299,310,303,0
300,298,310,303,0
301,293,310,303,0
302,288,309,303,0
303,286,310,302,0
305,288,309,302,0
306,295,309,303,0
306,306,308,303,0
307,320,307,303,0
309,332,305,304,0
311,341,305,307,0
314,344,306,311,0
315,340,308,315,0
315,333,310,317,0
314,323,310,316,0
311,311,306,311,0
306,293,301,304,0
301,276,297,299,0
298,266,296,296,0
296,264,299,296,0
294,268,303,297,0
293,274,307,300,0
293,281,311,302,0
293,288,313,304,0
294,295,312,306,0
296,300,311,307,0
298,306,311,308,0
302,319,311,310,0
305,338,312,312,0
307,359,313,313,0
309,374,313,314,0
310,380,312,313,0
309,371,310,311,0
307,351,307,308,0
304,328,305,305,0
302,307,304,303,0
300,289,303,301,0
299,275,302,300,0
299,264,303,300,0
300,257,304,300,0
301,252,304,301,0
301,251,305,302,0
302,253,306,303,0
304,259,305,303,0
305,270,304,302,0
305,290,303,301,0
306,317,303,301,0
306,343,304,304,0
307,362,306,305,0
306,367,307,306,0
306,357,308,307,0
307,342,308,307,0
307,328,307,307,0
307,322,306,308,0
308,322,305,308,0
309,323,305,307,0
310,321,306,306,0
309,316,307,303,0
307,305,308,302,0
306,296,309,301,0
305,290,308,300,0
303,287,307,300,0
302,286,304,300,0
302,286,303,301,0
302,287,302,301,0
303,287,303,302,0
305,283,304,303,0
308,278,305,304,0
310,275,306,305,0
312,275,307,306,0
313,278,309,306,0
313,282,310,306,0
311,286,310,306,0
309,289,309,305,0
306,295,307,303,0
303,303,304,300,0
301,312,301,299,0
300,320,300,298,0
301,322,301,297,0
301,319,303,297,0
301,314,305,298,0
303,310,309,302,0
305,306,313,306,0
307,303,316,310,0
308,302,318,313,0
310,302,319,316,0
310,305,319,318,0
311,312,319,320,0
310,322,318,321,0
310,333,315,320,0
310,342,313,318,0
309,351,310,315,0
308,356,308,313,0
307,359,307,310,0
305,363,305,309,0
304,369,305,308,0
304,371,304,308,0
305,365,303,308,0
304,350,303,308,0
304,327,302,307,0
303,301,301,307,0
303,277,301,306,0
304,256,301,306,0
305,236,302,306,0
306,222,302,306,0
308,217,302,306,0
310,224,303,308,0
311,242,302,308,0
310,267,302,308,0
308,292,303,307,0
305,312,307,306,0
304,316,311,306,0
303,310,315,306,0
303,303,317,306,0
303,300,316,307,0
304,301,313,307,0
303,305,311,306,0
303,309,307,304,0
302,310,304,304,0
301,309,302,303,0
301,308,301,303,0
300,307,299,304,0
301,306,299,305,0
302,305,301,306,0
304,305,302,308,0
308,305,304,310,0
312,305,304,312,0
315,308,305,314,0
318,315,306,315,0
320,326,307,316,0
320,337,308,317,0
319,345,308,315,0
315,348,309,313,0
311,345,309,310,0
306,337,308,307,0
302,325,306,305,0
298,315,305,303,0
295,307,303,301,0
294,300,300,300,0
293,293,299,298,0
293,288,298,297,0
295,284,300,297,0
296,277,302,298,0
298,269,303,299,0
299,264,304,299,0
300,264,304,299,0
300,272,304,300,0
300,287,304,301,0
300,308,304,302,0
300,334,305,303,0
301,358,305,305,0
301,377,305,307,0
302,383,305,309,0
302,376,305,310,0
302,361,306,311,0
301,342,307,313,0
302,323,309,315,0
303,305,311,316,0
303,291,311,316,0
303,280,312,316,0
303,272,311,315,0
303,265,311,313,0
302,260,310,312,0
302,259,308,310,0
302,263,307,310,0
301,270,306,309,0
302,280,306,308,0
302,293,307,308,0
303,308,307,310,0
304,323,308,311,0
305,334,308,312,0
306,344,307,313,0
307,351,307,314,0
308,354,306,314,0
308,352,305,313,0
307,348,305,312,0
307,343,306,311,0
306,332,307,311,0
306,318,308,311,0
305,304,308,312,0
305,295,308,312,0
305,293,309,313,0
306,296,310,314,0
308,300,311,315,0
310,302,312,315,0
311,302,312,315,0
313,299,312,314,0
313,294,311,313,0
312,288,311,313,0
311,285,310,312,0
308,284,308,309,0
305,286,306,307,0
303,289,305,305,0
302,294,305,304,0
302,301,304,303,0
302,306,304,303,0
302,305,304,303,0
302,298,303,303,0
303,289,303,303,0
303,283,302,303,0
303,278,302,303,0
303,274,302,303,0
305,273,302,303,0
305,277,301,304,0
306,289,301,305,0
307,307,300,305,0
308,326,300,306,0
309,339,299,306,0
309,341,298,306,0
310,332,296,305,0
310,317,294,304,0
310,301,293,303,0
309,289,293,302,0
309,286,295,302,0
307,291,298,303,0
305,303,302,303,0
303,314,304,303,0
302,326,305,303,0
301,333,304,303,0
301,331,301,303,0
301,325,297,301,0
301,319,293,299,0
302,316,289,297,0
302,313,285,295,0
303,308,284,295,0
304,306,284,296,0
305,310,287,300,0
308,320,291,304,0
310,331,297,307,0
312,339,301,309,0
311,337,304,309,0
309,328,305,307,0
307,313,304,305,0
305,299,303,304,0
303,291,302,304,0
303,290,302,305,0
303,291,302,306,0
304,288,303,306,0
304,282,304,307,0
304,275,306,308,0
304,270,308,307,0
304,266,308,306,0
303,265,307,305,0
303,265,305,304,0
303,269,304,303,0
304,276,302,304,0
305,288,301,305,0
307,301,301,306,0
310,317,302,307,0
313,332,302,308,0
315,343,303,308,0
316,351,303,308,0
315,353,302,307,0
312,344,302,305,0
308,329,302,305,0
304,313,303,305,0
301,301,303,306,0
300,296,304,308,0
300,296,305,310,0
300,297,306,310,0
302,298,306,311,0
303,299,305,310,0
303,300,305,309,0
303,303,305,309,0
304,308,305,309,0
305,314,307,309,0
306,323,309,310,0
307,332,310,312,0
309,336,310,313,0
310,335,310,314,0
309,325,310,314,0
308,311,308,313,0
306,298,307,311,0
305,291,305,310,0
304,288,305,309,0
305,289,304,308,0
305,294,304,307,0
305,303,303,306,0
305,315,303,305,0
306,329,303,304,0
308,335,304,303,0
309,330,305,302,0
310,312,305,301,0
310,288,306,300,0
309,268,305,301,0
308,259,305,302,0
307,259,304,303,0
306,267,303,304,0
305,276,302,306,0
305,281,301,307,0
305,280,300,308,0
304,278,299,308,0
303,278,298,306,0
303,283,297,304,0
303,291,295,301,0
302,300,294,298,0
301,308,294,296,0
301,314,296,296,0
302,317,300,297,0
303,314,303,299,0
304,313,306,302,0
305,314,308,305,0
306,315,308,308,0
306,314,307,309,0
306,312,305,308,0
305,307,305,307,0
305,303,306,306,0
304,300,308,306,0
304,300,311,308,0
305,300,314,311,0
306,300,315,312,0
307,302,314,313,0
308,308,313,313,0
309,318,311,313,0
310,327,309,312,0
310,333,307,311,0
311,339,306,310,0
