302,288,307,306,2
302,286,306,305,2
302,286,305,305,2
302,289,306,304,2
302,293,307,303,2
303,299,309,302,2
303,306,311,301,2
302,309,312,302,2
302,306,313,302,2
301,301,314,304,2
300,298,314,304,2
300,298,314,305,2
302,299,314,306,2
303,298,315,306,2
304,297,315,307,2
305,294,314,308,2
305,291,313,309,2
305,286,313,309,2
305,283,313,309,2
306,283,313,310,2
307,286,312,310,2
308,285,311,310,2
309,279,310,311,2
311,270,309,310,2
310,261,307,308,2
308,252,305,304,2
306,244,302,299,2
304,241,300,296,2
303,246,300,293,2
302,260,301,292,2
301,280,304,294,2
301,301,306,297,2
301,318,309,301,2
301,329,311,303,2
301,335,311,305,2
303,338,312,307,2
304,338,312,307,2
306,334,312,309,2
307,329,311,309,2
308,324,310,309,2
309,318,310,309,2
311,313,309,309,2
314,309,307,309,2
316,305,305,309,2
317,303,304,309,2
317,301,303,309,2
317,298,301,310,2
317,294,299,309,2
316,289,297,307,2
315,285,295,305,2
315,280,294,304,2
314,276,295,303,2
313,271,298,303,2
313,270,305,303,2
312,270,312,304,2
312,270,317,306,2
312,270,318,307,2
311,272,316,308,2
311,279,314,309,2
311,289,312,309,2
310,303,310,309,2
309,315,308,309,2
309,323,306,308,2
309,329,305,308,2
309,330,305,309,2
311,328,305,308,2
311,321,305,307,2
312,314,306,306,2
310,309,306,304,2
305,305,306,302,2
299,301,305,301,2
296,297,304,301,2
296,293,305,300,2
298,290,308,299,2
301,287,311,299,2
305,285,313,299,2
310,287,316,299,2
314,293,318,299,2
317,302,317,300,2
317,312,314,300,2
317,318,310,300,2
316,319,306,300,2
314,313,303,299,2
312,304,301,299,2
312,296,300,299,2
312,289,299,299,2
312,284,297,299,2
312,281,295,300,2
313,277,295,301,2
316,271,299,301,2
320,264,305,301,2
322,258,310,300,2
323,256,313,300,2
323,259,314,301,2
322,266,314,301,2
322,274,314,303,2
321,280,315,304,2
319,285,315,305,2
316,290,315,306,2
314,294,314,306,2
311,296,312,306,2
309,298,310,306,2
308,298,308,307,2
306,298,308,307,2
306,300,307,309,2
305,302,307,310,2
306,304,307,312,2
306,306,305,313,2
304,307,302,313,2
303,307,298,312,2
303,306,295,312,2
303,304,295,310,2
303,301,296,309,2
303,298,299,308,2
304,294,301,307,2
306,291,303,307,2
306,286,303,307,2
305,280,301,306,2
304,276,300,307,2
304,276,302,307,2
303,276,305,307,2
301,279,305,305,2
299,286,303,303,2
298,297,300,301,2
298,308,298,301,2
298,316,300,301,2
299,319,305,301,2
299,319,310,300,2
300,319,315,300,2
302,317,319,301,2
301,315,318,302,2
299,313,313,304,2
298,312,306,306,2
298,311,302,309,2
297,307,301,311,2
297,301,302,314,2
297,292,304,315,2
297,284,305,316,2
297,278,305,317,2
297,276,304,316,2
297,278,304,315,2
299,284,302,313,2
300,292,299,310,2
300,300,296,308,2
300,307,294,306,2
299,311,292,305,2
299,312,291,303,2
298,310,293,302,2
297,308,295,303,2
297,306,299,305,2
297,304,302,306,2
297,304,303,308,2
296,303,302,307,2
294,302,300,305,2
293,299,298,303,2
292,296,297,299,2
292,291,297,297,2
294,284,297,296,2
297,273,298,295,2
299,259,299,295,2
302,247,301,297,2
304,242,302,300,2
305,245,303,302,2
305,255,304,304,2
304,271,303,304,2
304,291,302,304,2
303,312,300,303,2
301,328,299,303,2
300,336,300,303,2
300,337,300,305,2
300,330,301,307,2
301,321,302,309,2
302,314,304,310,2
302,313,306,312,2
302,317,306,314,2
302,322,306,315,2
301,324,307,314,2
300,321,306,313,2
300,315,306,311,2
301,307,306,310,2
302,299,306,309,2
303,292,306,307,2
303,287,305,306,2
303,286,304,306,2
302,290,303,306,2
302,296,302,304,2
302,303,301,303,2
302,307,302,302,2
302,307,301,301,2
301,304,301,300,2
302,299,301,301,2
303,292,301,301,2
304,283,301,303,2
305,272,301,304,2
306,260,302,304,2
309,254,304,304,2
313,253,306,305,2
316,258,307,306,2
319,270,307,307,2
320,287,308,310,2
318,306,309,312,2
313,322,308,314,2
307,329,307,315,2
300,330,306,315,2
295,326,304,314,2
292,321,302,313,2
291,316,300,312,2
294,311,299,311,2
296,305,299,309,2
299,300,299,308,2
302,297,299,307,2
305,298,298,306,2
307,302,298,305,2
307,309,297,304,2
307,319,297,304,2
306,328,300,306,2
306,331,305,308,2
305,327,310,310,2
304,318,315,311,2
303,310,315,313,2
304,303,313,314,2
305,299,311,314,2
306,296,310,313,2
306,293,309,312,2
305,291,308,310,2
305,288,307,309,2
305,286,306,308,2
305,283,305,307,2
304,277,305,307,2
305,269,305,306,2
305,262,305,305,2
306,257,307,304,2
307,251,310,303,2
308,247,311,302,2
309,248,310,300,2
309,252,309,300,2
310,256,308,300,2
313,258,308,300,2
315,261,307,299,2
316,267,306,299,2
316,274,304,300,2
314,282,302,302,2
310,291,301,303,2
306,302,299,304,2
304,314,298,305,2
302,322,297,307,2
302,327,297,308,2
303,331,298,307,2
303,334,299,306,2
303,338,300,306,2
303,344,300,305,2
302,348,302,305,2
301,347,303,304,2
300,342,304,304,2
300,332,305,303,2
300,320,307,303,2
302,306,308,302,2
305,294,309,302,2
308,284,310,301,2
311,277,310,301,2
313,273,309,301,2
314,274,308,301,2
315,277,307,300,2
315,282,306,300,2
314,287,304,300,2
312,287,303,300,2
311,281,302,300,2
310,272,303,300,2
309,264,305,300,2
308,264,307,301,2
308,270,309,302,2
307,280,310,305,2
306,292,310,307,2
304,301,310,308,2
303,308,309,310,2
302,312,309,311,2
302,314,310,311,2
302,311,311,310,2
302,304,312,309,2
302,296,312,308,2
302,287,312,307,2
304,273,311,306,2
306,260,310,306,2
307,249,309,307,2
309,240,310,309,2
310,236,310,311,2
310,239,309,312,2
309,253,308,313,2
307,277,307,313,2
305,303,307,313,2
303,324,307,312,2
301,337,308,312,2
300,343,308,312,2
300,340,308,313,2
302,332,307,313,2
305,320,307,313,2
308,307,308,312,2
311,296,310,312,2
312,289,311,311,2
313,290,312,311,2
312,297,311,311,2
309,308,309,311,2
306,323,309,312,2
304,336,310,314,2
305,345,312,316,2
308,347,313,316,2
310,347,314,314,2
312,342,313,313,2
311,331,309,311,2
310,316,304,309,2
309,303,301,308,2
308,293,299,308,2
309,286,299,309,2
309,283,300,310,2
310,284,301,311,2
311,287,303,312,2
312,291,304,312,2
312,295,304,312,2
313,298,303,312,2
313,301,304,312,2
314,302,305,312,2
313,298,306,311,2
313,289,307,311,2
313,281,307,311,2
313,278,306,312,2
313,282,305,312,2
312,290,305,313,2
310,298,304,312,2
309,306,302,312,2
309,312,303,312,2
309,315,305,313,2
310,317,307,313,2
311,314,309,314,2
312,309,309,315,2
311,303,308,315,2
311,297,306,316,2
310,292,305,316,2
310,290,305,315,2
311,290,305,315,2
311,294,308,315,2
310,299,310,315,2
310,302,312,315,2
308,305,313,316,2
308,306,314,316,2
306,306,315,316,2
306,304,315,316,2
307,297,313,315,2
308,289,311,314,2
310,282,310,314,2
311,275,309,313,2
311,272,309,312,2
310,272,307,310,2
309,276,307,309,2
308,284,306,308,2
309,293,305,308,2
309,300,304,308,2
310,303,303,309,2
309,302,303,308,2
309,299,303,308,2
309,297,303,308,2
308,297,303,308,2
308,300,303,309,2
308,303,304,309,2
308,307,304,309,2
307,310,304,309,2
306,310,302,308,2
305,308,301,307,2
305,305,302,308,2
306,304,306,308,2
306,303,310,309,2
307,301,313,310,2
306,301,313,310,2
306,303,311,310,2
305,308,307,309,2
306,314,304,309,2
306,318,301,309,2
306,320,299,310,2
305,318,298,310,2
305,314,300,311,2
306,310,303,311,2
307,305,306,313,2
310,300,307,314,2
313,294,309,314,2
316,286,311,314,2
316,279,311,312,2
314,272,311,310,2
312,266,309,308,2
310,264,307,307,2
308,266,305,307,2
308,272,302,307,2
307,279,300,307,2
307,288,298,307,2
306,294,298,306,2
306,298,299,305,2
306,301,303,306,2
307,303,307,307,2
308,303,308,308,2
308,304,308,310,2
307,303,306,310,2
305,304,302,311,2
305,308,300,311,2
305,313,300,311,2
304,320,300,310,2
303,326,300,309,2
303,333,300,308,2
302,337,299,309,2
302,337,299,310,2
302,334,299,311,2
302,330,300,312,2
302,327,302,312,2
303,321,304,312,2
303,314,306,310,2
303,307,306,307,2
304,301,306,306,2
304,297,305,305,2
305,293,304,302,2
305,291,304,300,2
304,294,303,299,2
303,300,302,298,2
302,306,302,298,2
302,310,302,299,2
302,310,302,302,2
302,306,303,304,2
303,299,305,305,2
304,294,306,307,2
306,291,309,308,2
307,291,312,310,2
308,293,316,310,2
308,298,318,310,2
307,304,318,310,2
306,310,317,310,2
306,316,316,311,2
306,320,314,312,2
305,322,313,312,2
303,323,311,312,2
302,323,309,312,2
300,321,307,310,2
300,316,306,309,2
300,310,306,309,2
303,302,307,309,2
305,294,308,309,2
308,288,309,309,2
309,280,310,308,2
311,273,311,307,2
312,270,312,306,2
313,272,312,306,2
312,278,311,305,2
310,288,309,306,2
309,298,308,306,2
307,303,307,306,2
306,303,304,305,2
305,299,302,303,2
304,293,301,301,2
303,289,299,300,2
304,289,300,299,2
303,293,302,300,2
303,298,303,302,2
303,303,304,303,2
304,306,305,304,2
305,307,305,304,2
306,308,305,305,2
308,312,304,304,2
308,318,304,304,2
308,327,303,306,2
308,336,302,308,2
307,342,301,309,2
305,345,301,309,2
304,342,300,310,2
304,334,300,309,2
304,323,301,308,2
304,311,303,308,2
304,300,305,308,2
306,291,307,307,2
308,283,311,307,2
311,279,315,306,2
312,279,317,305,2
311,281,316,304,2
309,288,312,305,2
307,297,308,308,2
306,309,303,310,2
305,319,300,312,2
304,325,297,312,2
303,326,295,311,2
303,323,294,311,2
303,317,295,311,2
304,311,298,310,2
305,305,301,308,2
307,303,302,307,2
307,304,304,304,2
306,309,304,301,2
304,316,304,300,2
303,324,304,299,2
303,329,304,300,2
304,330,305,301,2
305,326,305,303,2
307,319,305,305,2
308,314,304,307,2
308,313,304,309,2
308,314,304,310,2
307,317,304,313,2
305,319,304,315,2
305,317,303,318,2
304,315,303,319,2
304,312,302,320,2
305,309,302,320,2
306,306,303,318,2
307,305,303,317,2
307,307,302,314,2
308,310,301,312,2
307,313,299,309,2
307,313,298,307,2
307,312,297,306,2
307,309,297,305,2
308,303,299,306,2
309,297,300,307,2
309,293,301,307,2
310,290,302,307,2
310,292,301,307,2
309,298,301,307,2
308,303,300,306,2
307,307,299,305,2
306,307,299,303,2
306,304,299,303,2
306,303,299,302,2
307,305,299,302,2
307,311,300,303,2
307,319,300,305,2
307,326,299,307,2
306,331,299,309,2
306,332,299,310,2
305,330,299,311,2
305,326,302,311,2
306,321,304,310,2
307,314,306,310,2
307,305,307,309,2
306,296,307,308,2
306,288,307,308,2
306,284,306,307,2
306,282,305,306,2
306,283,305,307,2
307,286,305,308,2
306,290,306,309,2
306,295,308,310,2
305,301,308,311,2
305,308,308,311,2
305,315,307,311,2
304,323,306,310,2
304,329,305,308,2
304,333,304,306,2
305,335,305,305,2
306,336,306,303,2
307,335,307,303,2
307,333,307,301,2
306,329,306,301,2
306,326,305,301,2
305,323,304,300,2
305,320,303,301,2
304,317,302,300,2
303,316,301,300,2
303,318,301,301,2
304,320,301,303,2
305,318,301,304,2
306,311,300,303,2
307,301,301,302,2
306,293,302,301,2
303,289,303,301,2
300,289,303,302,2
298,293,302,303,2
296,297,301,303,2
296,298,301,304,2
297,298,301,304,2
298,296,302,304,2
300,293,302,303,2
301,287,303,303,2
302,278,303,302,2
303,270,303,302,2
302,269,304,303,2
301,278,305,303,2
300,292,305,305,2
299,306,306,307,2
298,316,306,309,2
298,322,306,310,2
298,326,305,311,2
299,326,304,311,2
300,325,304,311,2
301,322,304,309,2
303,316,305,308,2
304,308,305,306,2
306,299,307,303,2
308,288,309,301,2
310,281,309,299,2
311,279,308,297,2
311,279,307,295,2
310,281,305,294,2
310,287,304,292,2
309,295,304,292,2
307,302,304,292,2
304,307,305,293,2
300,310,307,295,2
297,312,309,298,2
297,312,311,301,2
297,313,314,304,2
298,315,315,308,2
298,317,314,311,2
299,315,313,313,2
300,308,311,314,2
301,299,308,314,2
302,289,306,313,2
301,281,305,311,2
302,279,305,310,2
303,285,305,310,2
304,294,306,311,2
305,307,306,313,2
307,321,307,314,2
308,333,308,315,2
309,344,308,315,2
310,350,306,314,2
309,349,303,313,2
308,339,301,310,2
307,320,301,307,2
307,295,301,304,2
306,266,302,304,2
306,238,304,304,2
307,214,307,305,2
306,202,308,305,2
306,206,307,305,2
305,222,308,305,2
304,248,309,305,2
302,275,312,305,2
302,298,314,306,2
302,314,315,309,2
302,321,314,311,2
302,323,313,313,2
302,322,312,314,2
303,316,313,315,2
304,305,314,314,2
305,294,315,313,2
307,286,315,313,2
309,283,316,312,2
310,281,315,311,2
312,284,313,309,2
313,288,312,309,2
314,291,312,309,2
314,292,311,309,2
312,294,312,311,2
310,296,312,311,2
308,295,312,312,2
307,289,313,311,2
306,276,313,311,2
306,260,313,310,2
305,250,314,309,2
304,255,313,309,2
303,277,311,310,2
300,298,308,310,2
298,309,307,311,2
297,316,306,311,2
298,326,305,310,2
298,337,305,309,2
299,347,304,308,2
299,352,305,307,2
299,354,306,305,2
300,352,307,304,2
302,348,307,302,2
304,341,308,300,2
306,335,308,300,2
307,329,308,300,2
306,323,308,300,2
306,317,308,302,2
307,311,307,305,2
307,304,305,308,2
308,295,304,310,2
308,287,303,312,2
309,279,301,312,2
310,275,300,313,2
311,277,299,313,2
312,288,299,314,2
312,303,300,314,2
313,318,301,313,2
314,331,303,313,2
315,340,304,312,2
315,344,304,311,2
315,342,304,310,2
314,338,303,309,2
315,333,304,308,2
316,330,307,308,2
316,329,310,307,2
316,328,312,308,2
315,326,311,307,2
313,321,310,306,2
312,313,308,305,2
311,303,307,304,2
310,292,306,303,2
308,283,304,302,2
306,278,302,301,2
304,276,301,300,2
304,276,300,300,2
304,278,302,301,2
304,285,304,302,2
305,296,307,303,2
305,306,308,305,2
306,316,309,306,2
307,322,308,307,2
308,324,307,307,2
309,324,305,307,2
310,323,305,307,2
311,323,305,308,2
314,323,306,309,2
315,322,307,310,2
315,319,307,311,2
314,312,307,311,2
312,304,306,312,2
309,297,307,312,2
306,292,307,311,2
305,288,307,309,2
304,285,306,307,2
304,285,307,305,2
305,287,307,303,2
305,289,306,303,2
304,290,305,303,2
304,292,303,303,2
303,299,302,304,2
303,309,302,306,2
302,317,302,308,2
302,322,302,310,2
302,323,303,311,2
303,321,305,310,2
304,318,306,309,2
305,313,307,309,2
308,307,307,310,2
310,301,307,310,2
312,293,306,311,2
312,287,306,311,2
311,282,307,311,2
311,279,308,310,2
313,281,310,309,2
314,290,312,309,2
314,303,312,309,2
313,311,310,309,2
312,308,307,309,2
311,294,303,309,2
311,273,300,308,2
313,249,299,307,2
315,226,299,306,2
317,212,303,305,2
317,212,307,305,2
314,230,310,305,2
309,260,311,305,2
303,296,311,306,2
298,326,310,305,2
295,342,308,305,2
292,345,307,305,2
293,340,307,306,2
295,334,307,307,2
298,329,308,308,2
301,326,309,309,2
304,323,309,308,2
305,319,310,308,2
304,315,310,307,2
303,311,311,307,2
303,303,312,308,2
303,296,313,308,2
304,293,314,309,2
305,300,313,310,2
306,313,312,310,2
307,329,309,310,2
306,342,306,311,2
306,349,304,311,2
305,350,302,312,2
305,350,302,313,2
305,346,303,313,2
305,338,304,312,2
304,328,304,311,2
304,317,303,310,2
305,307,303,309,2
305,299,303,308,2
306,291,303,309,2
306,287,303,309,2
306,287,304,309,2
306,292,304,310,2
306,298,304,310,2
306,304,304,311,2
306,308,304,311,2
307,312,305,311,2
308,315,305,311,2
309,317,303,310,2
309,315,302,307,2
308,311,301,304,2
307,307,301,303,2
306,302,301,302,2
306,296,302,302,2
306,290,305,303,2
306,284,307,305,2
306,280,308,305,2
307,279,307,306,2
307,282,305,306,2
307,288,303,305,2
306,297,301,306,2
305,308,299,307,2
303,320,299,309,2
301,327,298,309,2
300,329,298,310,2
299,329,299,310,2
298,326,300,308,2
296,320,303,306,2
294,311,305,303,2
294,301,306,302,2
295,292,306,301,2
297,286,306,302,2
300,284,306,304,2
302,284,305,306,2
303,288,304,308,2
304,294,302,310,2
304,303,299,310,2
304,314,297,310,2
304,323,295,310,2
303,331,295,310,2
303,333,297,311,2
304,329,299,312,2
305,321,301,313,2
306,311,303,314,2
307,300,304,315,2
308,291,304,315,2
308,286,304,316,2
308,286,304,315,2
308,289,304,315,2
308,292,304,317,2
308,293,305,317,2
308,294,307,317,2
308,296,309,318,2
309,299,311,317,2
308,302,311,316,2
307,304,309,315,2
306,305,308,314,2
305,305,306,314,2
305,300,305,315,2
306,293,303,317,2
307,284,302,319,2
307,278,301,319,2
308,276,301,317,2
308,280,301,315,2
308,291,301,314,2
307,307,301,314,2
307,322,301,314,2
308,333,301,314,2
309,335,301,313,2
308,332,301,312,2
307,325,301,310,2
307,318,301,309,2
306,311,303,308,2
307,307,304,308,2
308,309,304,308,2
309,316,304,309,2
309,323,303,309,2
307,328,301,310,2
305,329,300,310,2
302,326,298,310,2
299,319,297,310,2
297,311,298,310,2
296,305,300,309,2
295,300,302,309,2
295,298,303,309,2
297,301,303,308,2
300,305,303,309,2
304,308,303,309,2
307,308,302,310,2
308,306,302,311,2
308,302,303,312,2
308,299,304,313,2
306,298,304,313,2
305,298,303,314,2
303,297,303,314,2
304,296,303,314,2
305,292,304,314,2
306,287,304,315,2
308,284,305,315,2
309,286,307,315,2
310,294,308,314,2
310,305,308,313,2
310,313,308,311,2
309,315,306,308,2
306,312,303,305,2
304,306,300,302,2
303,300,300,301,2
303,295,301,301,2
304,292,303,302,2
306,290,304,304,2
309,289,306,306,2
310,289,306,308,2
310,292,305,310,2
310,297,304,312,2
309,302,303,314,2
308,308,303,316,2
308,315,302,318,2
308,317,300,318,2
307,315,299,318,2
307,312,299,317,2
307,308,300,316,2
308,306,302,316,2
308,305,303,316,2
308,307,303,315,2
307,313,303,314,2
308,319,303,313,2
308,322,303,313,2
310,323,304,312,2
311,321,305,311,2
312,319,305,311,2
312,314,304,311,2
312,306,302,311,2
311,298,300,310,2
309,292,298,309,2
308,289,298,308,2
306,290,297,306,2
305,293,299,306,2
305,300,302,306,2
305,310,306,307,2
303,323,308,308,2
301,335,309,309,2
299,343,308,309,2
298,347,307,310,2
299,346,308,311,2
301,340,308,311,2
303,329,308,311,2
304,317,308,310,2
307,305,308,308,2
308,296,307,305,2
310,290,305,302,2
311,288,302,301,2
312,289,301,301,2
312,292,301,303,2
310,298,302,304,2
307,306,304,307,2
305,314,305,309,2
303,318,306,311,2
302,318,307,313,2
301,315,308,313,2
300,310,308,314,2
300,305,308,314,2
301,302,307,315,2
302,301,306,316,2
303,299,306,316,2
304,296,306,316,2
305,291,306,315,2
305,287,306,313,2
305,282,306,310,2
305,277,306,307,2
305,273,306,306,2
305,276,306,305,2
305,283,306,306,2
304,293,306,305,2
303,302,307,306,2
303,307,307,306,2
303,311,307,305,2
303,314,306,305,2
303,318,306,304,2
303,324,305,304,2
303,329,305,304,2
302,331,305,304,2
302,326,305,304,2
302,317,305,303,2
303,308,305,302,2
303,303,306,301,2
304,301,306,300,2
304,303,306,298,2
304,304,305,297,2
304,306,305,297,2
304,305,307,297,2
304,302,309,298,2
304,299,309,298,2
304,298,309,297,2
305,298,310,297,2
306,302,310,297,2
307,310,310,298,2
307,321,309,301,2
307,330,309,303,2
306,338,310,305,2
303,340,309,306,2
300,337,308,306,2
297,330,307,305,2
296,320,306,304,2
297,311,306,304,2
297,305,306,304,2
298,302,306,303,2
300,300,307,303,2
302,299,308,303,2
303,298,309,302,2
304,296,309,302,2
304,295,308,301,2
304,292,307,301,2
305,288,306,300,2
307,285,306,301,2
310,283,307,303,2
312,284,308,305,2
313,288,309,306,2
314,294,310,306,2
313,300,310,305,2
313,306,310,305,2
313,307,311,304,2
314,304,312,304,2
315,299,313,304,2
316,294,313,304,2
317,293,313,305,2
319,297,312,306,2
320,304,311,307,2
319,312,309,308,2
317,318,308,308,2
313,321,305,309,2
309,325,303,310,2
307,330,301,311,2
305,333,299,312,2
304,334,299,311,2
304,331,300,309,2
304,327,300,307,2
304,322,299,305,2
304,316,299,303,2
304,312,299,304,2
303,307,299,304,2
304,301,301,305,2
306,295,303,307,2
309,293,305,308,2
311,292,305,308,2
311,293,303,307,2
310,294,300,307,2
306,296,296,307,2
303,298,294,308,2
301,301,295,309,2
301,305,297,309,2
302,312,301,309,2
304,322,305,310,2
305,328,310,309,2
306,331,313,309,2
305,331,312,309,2
305,329,310,310,2
305,325,308,311,2
305,318,307,311,2
305,313,305,311,2
304,311,303,310,2
304,312,304,308,2
303,313,305,306,2
303,313,307,305,2
303,311,308,304,2
303,308,310,303,2
303,303,308,302,2
302,298,305,301,2
302,290,301,301,2
302,282,299,301,2
302,273,297,300,2
302,268,296,300,2
302,267,296,299,2
302,270,296,300,2
303,280,297,300,2
303,295,299,301,2
303,310,300,303,2
303,321,302,304,2
303,326,304,305,2
304,327,306,305,2
303,326,307,306,2
304,321,308,306,2
304,311,309,307,2
305,298,310,308,2
306,284,311,308,2
306,271,312,308,2
307,261,313,308,2
307,258,312,309,2
308,262,311,309,2
309,273,309,308,2
309,291,307,308,2
309,311,305,307,2
309,327,304,307,2
309,334,302,308,2
311,333,302,308,2
312,327,301,308,2
312,319,301,309,2
311,313,302,309,2
309,309,303,311,2
308,309,304,311,2
308,314,305,312,2
308,322,306,312,2
308,326,306,312,2
307,325,304,313,2
307,322,304,314,2
306,318,303,315,2
305,316,304,315,2
304,315,306,315,2
304,314,308,314,2
304,313,309,312,2
304,312,309,311,2
304,312,308,309,2
304,312,306,309,2
305,311,305,309,2
306,311,306,311,2
308,312,308,313,2
309,313,310,313,2
311,313,313,313,2
312,314,314,311,2
314,318,316,309,2
316,324,317,308,2
316,330,317,307,2
315,331,314,306,2
313,327,311,305,2
311,320,307,305,2
308,313,305,304,2
306,309,305,304,2
305,307,305,305,2
305,304,305,305,2
305,299,304,307,2
307,289,304,306,2
307,278,304,306,2
307,265,303,305,2
307,254,304,305,2
307,249,306,304,2
307,250,307,304,2
306,254,306,304,2
304,263,303,303,2
302,272,300,301,2
300,280,298,299,2
300,282,298,299,2
300,277,299,299,2
301,271,301,301,2
302,266,303,304,2
304,267,304,308,2
304,274,305,310,2
303,289,306,311,2
302,310,306,310,2
299,330,306,309,2
297,345,306,307,2
295,354,307,307,2
295,359,308,306,2
295,360,310,305,2
297,358,310,305,2
301,355,310,305,2
304,351,310,304,2
307,345,309,304,2
309,337,309,303,2
310,327,308,304,2
311,319,308,304,2
311,314,308,305,2
310,312,307,305,2
309,312,307,306,2
308,313,307,306,2
307,313,307,305,2
306,314,308,304,2
306,315,310,303,2
305,315,310,302,2
304,315,310,302,2
304,316,308,303,2
304,317,306,304,2
303,320,306,305,2
304,319,306,305,2
305,315,307,305,2
307,311,306,304,2
308,308,305,302,2
309,305,303,300,2
309,303,303,299,2
309,299,302,300,2
309,295,303,301,2
310,293,304,302,2
309,292,306,303,2
310,294,308,304,2
310,300,309,306,2
309,306,309,307,2
308,309,309,308,2
307,310,309,309,2
306,306,309,311,2
306,301,310,312,2
306,297,310,312,2
307,295,309,313,2
308,292,308,312,2
309,286,306,312,2
309,276,304,310,2
309,267,303,310,2
310,260,303,310,2
311,256,304,311,2
311,259,305,313,2
310,268,306,315,2
309,279,307,316,2
308,285,307,318,2
306,289,308,317,2
306,291,308,316,2
306,291,309,315,2
307,291,309,314,2
307,294,309,312,2
307,302,308,312,2
306,314,307,311,2
306,324,305,311,2
305,329,303,311,2
305,330,303,310,2
306,327,302,309,2
307,323,302,307,2
309,319,302,306,2
311,316,303,307,2
314,316,304,308,2
318,316,305,311,2
318,314,304,313,2
316,310,302,314,2
312,309,300,315,2
308,313,299,316,2
306,320,299,317,2
304,329,300,318,2
302,335,301,318,2
301,337,301,319,2
299,335,303,319,2
300,330,305,318,2
301,323,308,318,2
303,318,310,317,2
305,314,312,316,2
306,311,313,314,2
306,309,312,312,2
306,309,310,310,2
305,310,307,309,2
305,311,305,308,2
304,310,302,307,2
303,306,301,305,2
301,301,300,304,2
300,296,299,304,2
299,292,299,303,2
298,294,300,304,2
299,299,301,305,2
299,307,303,307,2
300,316,303,308,2
300,323,303,309,2
301,327,302,311,2
302,327,303,312,2
303,321,303,313,2
304,314,303,314,2
305,308,303,315,2
305,304,304,314,2
306,302,304,313,2
307,298,303,313,2
307,295,303,312,2
308,294,302,311,2
310,294,303,311,2
310,296,304,310,2
310,299,305,310,2
310,303,306,311,2
308,308,306,312,2
307,311,306,312,2
305,312,306,312,2
304,310,304,311,2
304,306,302,311,2
304,302,299,311,2
305,298,298,311,2
306,292,298,310,2
307,283,298,309,2
306,273,299,308,2
306,262,300,307,2
305,254,301,307,2
305,249,301,308,2
306,251,301,310,2
308,260,302,312,2
310,273,304,314,2
311,287,305,314,2
312,302,305,313,2
312,317,304,311,2
311,329,302,309,2
310,336,301,307,2
310,339,301,306,2
310,338,300,305,2
309,336,300,303,2
306,334,299,302,2
303,331,299,302,2
302,327,299,303,2
301,318,301,306,2
303,308,303,309,2
304,300,305,313,2
306,293,306,315,2
307,289,306,317,2
307,288,306,318,2
306,291,306,318,2
304,297,307,318,2
303,303,307,318,2
302,308,308,318,2
302,312,309,317,2
300,314,309,314,2
299,316,307,312,2
299,318,306,311,2
300,318,306,310,2
301,317,306,309,2
302,315,306,308,2
303,314,305,307,2
304,313,305,306,2
304,312,303,305,2
304,311,302,304,2
303,309,300,303,2
303,307,299,302,2
303,307,298,302,2
304,308,297,302,2
305,310,296,302,2
306,314,296,304,2
309,317,297,305,2
313,319,299,307,2
317,320,303,309,2
320,320,307,311,2
322,320,309,313,2
323,318,312,315,2
325,317,313,316,2
326,316,314,315,2
327,314,315,314,2
327,313,315,313,2
327,312,314,312,2
325,310,313,311,2
323,307,311,309,2
321,304,310,308,2
320,302,309,308,2
319,299,307,308,2
315,294,306,308,2
311,287,305,308,2
305,277,303,308,2
301,266,303,309,2
300,254,304,309,2
301,241,306,309,2
303,232,308,308,2
305,232,309,307,2
305,242,308,306,2
304,261,307,305,2
302,284,305,304,2
299,306,303,303,2
297,324,302,303,2
296,335,302,304,2
296,340,302,306,2
297,344,304,307,2
298,343,304,308,2
299,338,304,309,2
301,333,303,309,2
304,328,302,309,2
307,325,302,308,2
307,323,301,307,2
307,322,300,307,2
305,321,300,306,2
302,320,300,305,2
300,316,299,304,2
297,313,297,304,2
295,307,296,304,2
296,300,296,306,2
299,295,297,308,2
302,291,299,311,2
305,287,300,312,2
307,286,300,312,2
307,288,301,311,2
306,291,302,309,2
305,289,303,307,2
305,286,305,306,2
306,281,307,306,2
306,277,309,308,2
306,274,310,310,2
306,272,310,311,2
304,276,309,313,2
303,287,308,315,2
302,302,306,316,2
301,315,305,316,2
300,324,305,315,2
299,327,304,315,2
298,324,304,314,2
298,319,303,314,2
298,310,303,314,2
300,300,303,314,2
300,290,304,313,2
301,284,305,313,2
300,281,304,311,2
298,285,301,310,2
296,289,298,309,2
293,290,298,308,2
292,285,299,307,2
293,280,302,307,2
295,278,306,308,2
297,278,310,309,2
300,280,312,311,2
302,286,313,312,2
303,295,311,311,2
304,304,309,310,2
305,314,307,309,2
306,323,306,308,2
308,331,305,306,2
309,339,303,306,2
309,344,302,305,2
310,346,300,304,2
311,344,299,303,2
311,337,299,302,2
309,327,298,301,2
305,314,297,299,2
301,305,297,297,2
299,301,296,296,2
298,302,296,296,2
298,309,296,296,2
298,318,296,297,2
299,326,296,298,2
300,330,296,300,2
300,331,297,301,2
300,329,297,302,2
301,322,299,304,2
303,314,301,306,2
304,308,304,308,2
305,306,307,310,2
307,307,310,311,2
309,307,312,311,2
310,302,315,311,2
311,292,316,311,2
311,282,316,311,2
311,276,314,310,2
309,276,312,310,2
308,279,310,310,2
307,285,308,311,2
307,290,306,311,2
307,295,304,311,2
306,301,302,309,2
305,307,298,306,2
305,314,296,303,2
304,318,295,300,2
303,321,295,297,2
304,322,298,295,2
305,324,302,293,2
305,325,305,292,2
304,326,307,292,2
303,324,307,293,2
302,320,306,294,2
302,313,305,296,2
301,305,306,298,2
300,299,307,300,2
300,296,307,303,2
298,296,306,305,2
297,296,305,306,2
297,300,304,305,2
299,302,304,304,2
301,299,305,302,2
303,290,305,300,2
306,275,306,300,2
308,257,306,299,2
310,243,306,298,2
312,238,307,298,2
313,242,307,299,2
314,257,307,300,2
314,280,306,300,2
313,306,305,301,2
311,329,305,301,2
309,340,305,301,2
309,343,305,300,2
310,339,306,300,2
312,333,307,300,2
314,328,308,301,2
315,324,309,301,2
315,324,310,302,2
313,328,310,303,2
311,335,309,305,2
309,340,308,307,2
308,341,308,307,2
308,337,307,306,2
309,326,305,305,2
309,312,303,304,2
309,301,302,304,2
308,294,302,304,2
305,293,302,304,2
302,295,302,303,2
299,300,303,304,2
298,306,305,304,2
300,310,308,305,2
305,309,311,304,2
311,301,314,304,2
317,289,315,304,2
321,271,315,303,2
324,250,314,301,2
326,232,312,300,2
329,219,311,300,2
329,220,310,301,2
327,235,310,303,2
322,261,309,304,2
318,289,307,306,2
312,311,306,307,2
306,325,304,308,2
302,333,301,309,2
299,336,301,310,2
298,335,302,311,2
298,334,305,312,2
298,337,308,312,2
299,343,312,311,2
300,347,316,310,2
300,348,317,308,2
300,345,314,307,2
301,340,310,306,2
302,333,307,304,2
303,325,305,303,2
303,315,303,302,2
304,303,302,300,2
305,291,302,298,2
307,279,302,296,2
309,273,302,296,2
310,272,302,297,2
311,273,300,298,2
310,280,299,298,2
309,296,298,299,2
309,314,299,301,2
309,326,299,301,2
309,333,300,302,2
309,337,300,302,2
310,337,301,302,2
311,335,301,301,2
310,332,303,301,2
311,330,305,302,2
310,327,307,302,2
310,323,308,302,2
309,318,308,302,2
309,308,306,301,2
308,296,304,301,2
307,283,302,301,2
308,273,300,303,2
309,268,298,304,2
310,270,298,306,2
310,280,299,307,2
308,296,302,308,2
307,314,307,308,2
306,327,309,307,2
305,335,309,307,2
304,336,308,306,2
305,333,307,306,2
305,323,305,305,2
307,312,304,304,2
307,303,303,304,2
306,297,302,304,2
306,292,302,305,2
307,286,302,306,2
307,282,303,307,2
307,282,304,308,2
307,283,305,309,2
308,286,308,308,2
308,290,310,307,2
308,294,311,305,2
308,295,311,304,2
307,299,310,305,2
306,312,309,305,2
304,328,308,305,2
303,342,307,306,2
303,351,307,307,2
303,355,306,307,2
302,354,305,307,2
302,350,304,305,2
302,341,302,303,2
304,330,302,302,2
308,322,303,302,2
312,318,305,302,2
316,318,308,301,2
318,324,311,301,2
320,338,312,300,2
320,355,312,300,2
319,364,310,301,2
317,361,307,302,2
313,346,305,303,2
309,326,304,304,2
305,308,303,306,2
303,294,304,307,2
303,287,304,308,2
305,287,305,308,2
307,289,304,308,2
308,289,303,308,2
309,283,301,306,2
310,275,300,305,2
311,270,300,305,2
312,269,301,305,2
313,269,303,306,2
313,268,306,308,2
312,266,309,310,2
309,265,309,310,2
304,265,307,310,2
302,269,304,311,2
300,277,302,312,2
299,291,300,313,2
298,308,300,313,2
298,323,301,313,2
298,332,302,311,2
298,339,303,310,2
300,346,304,311,2
302,351,304,313,2
305,354,303,316,2
307,352,302,317,2
307,345,300,318,2
306,335,299,317,2
306,323,300,315,2
306,311,302,314,2
308,298,304,313,2
309,288,305,312,2
311,280,308,312,2
313,273,310,310,2
314,269,311,309,2
316,270,311,309,2
316,274,310,309,2
314,282,307,309,2
313,293,305,310,2
311,304,303,311,2
309,314,301,311,2
306,322,300,311,2
302,330,300,309,2
298,339,299,308,2
295,345,299,307,2
295,347,299,307,2
296,345,299,307,2
298,343,301,308,2
300,341,302,308,2
302,337,304,308,2
304,328,305,307,2
306,317,306,306,2
308,307,308,306,2
309,303,311,307,2
310,302,313,308,2
311,305,315,309,2
311,311,316,310,2
311,318,315,310,2
309,321,312,309,2
308,318,309,307,2
307,313,307,306,2
307,307,305,305,2
307,301,305,304,2
308,297,305,303,2
309,294,304,303,2
310,292,304,302,2
310,295,302,302,2
311,302,301,302,2
311,307,300,302,2
312,308,301,302,2
314,307,304,303,2
316,304,308,304,2
318,296,311,305,2
319,283,313,305,2
319,271,314,305,2
318,266,313,305,2
316,267,310,305,2
313,271,309,304,2
309,281,309,304,2
306,295,309,304,2
304,308,309,304,2
302,320,308,304,2
299,332,307,304,2
298,342,305,303,2
297,348,303,304,2
297,349,303,304,2
299,347,304,305,2
301,344,305,306,2
302,338,308,306,2
303,330,310,306,2
302,321,311,305,2
301,309,311,304,2
300,298,311,303,2
299,289,310,303,2
297,284,310,302,2
296,280,309,303,2
296,275,309,303,2
297,269,308,302,2
299,269,307,301,2
303,276,305,301,2
305,291,304,302,2
305,310,303,302,2
304,328,303,303,2
300,343,302,304,2
297,352,302,304,2
296,351,303,304,2
298,339,305,304,2
300,321,308,304,2
304,302,311,304,2
307,289,314,304,2
311,287,316,304,2
312,296,317,305,2
311,309,317,306,2
310,319,317,307,2
309,325,318,309,2
308,326,318,310,2
307,322,318,312,2
307,315,318,312,2
306,307,316,312,2
306,298,314,311,2
307,292,311,311,2
307,288,309,312,2
308,287,310,313,2
310,289,312,313,2
311,297,313,314,2
312,306,314,313,2
312,315,313,312,2
310,320,311,310,2
309,321,310,309,2
309,319,308,308,2
309,316,308,307,2
309,314,307,307,2
308,312,306,306,2
308,308,306,306,2
308,303,307,305,2
308,298,307,305,2
308,296,308,304,2
307,293,310,303,2
307,291,310,301,2
306,294,309,300,2
305,305,305,299,2
304,318,301,299,2
304,329,300,298,2
306,332,300,299,2
307,329,301,299,2
309,324,303,299,2
309,319,304,300,2
310,313,305,300,2
310,309,307,302,2
311,309,309,305,2
312,310,310,307,2
310,308,311,308,2
309,305,310,307,2
308,305,309,307,2
307,311,307,306,2
306,318,305,304,2
304,322,304,302,2
303,325,304,300,2
302,324,303,299,2
303,319,301,297,2
304,312,300,297,2
305,306,299,297,2
306,300,299,298,2
305,295,299,298,2
303,290,300,298,2
302,289,301,297,2
301,291,302,297,2
302,297,303,297,2
304,305,305,298,2
307,315,308,299,2
310,328,310,301,2
312,339,312,305,2
313,345,313,307,2
312,346,312,309,2
311,341,312,310,2
310,331,311,309,2
310,320,309,309,2
309,312,307,308,2
308,306,305,307,2
307,301,303,305,2
306,297,300,303,2
305,295,297,301,2
305,294,294,300,2
305,292,294,300,2
306,288,296,301,2
306,285,299,302,2
305,282,301,303,2
304,279,302,304,2
303,276,302,304,2
301,275,303,304,2
301,277,304,304,2
300,279,306,304,2
301,282,307,304,2
303,285,308,305,2
305,288,309,306,2
307,294,309,307,2
308,305,310,307,2
308,320,309,306,2
306,332,307,305,2
306,340,305,305,2
306,345,303,304,2
305,346,303,303,2
305,347,303,303,2
306,345,304,304,2
307,342,305,303,2
308,337,304,302,2
310,334,304,304,2
312,332,305,305,2
314,330,305,308,2
317,327,306,310,2
318,321,306,311,2
316,310,306,311,2
312,298,306,311,2
307,291,305,310,2
305,289,304,310,2
304,292,305,309,2
305,299,305,310,2
305,309,307,310,2
304,320,308,309,2
304,329,309,309,2
305,333,310,309,2
306,332,311,308,2
307,326,312,307,2
307,317,313,306,2
306,307,312,306,2
306,297,311,307,2
306,284,309,307,2
306,269,308,306,2
306,253,307,305,2
306,240,306,304,2
307,230,306,304,2
308,227,306,304,2
308,235,306,304,2
308,252,305,303,2
307,273,304,302,2
305,291,302,300,2
303,301,299,299,2
301,309,297,297,2
300,319,293,296,2
299,330,291,296,2
299,339,291,297,2
299,345,291,297,2
300,350,292,297,2
299,352,293,297,2
298,348,294,298,2
298,340,297,299,2
298,330,300,302,2
299,319,304,305,2
301,308,308,309,2
304,297,311,312,2
306,286,313,315,2
308,279,314,316,2
309,278,313,316,2
309,284,312,315,2
310,294,311,313,2
310,306,309,312,2
309,318,306,311,2
307,328,302,310,2
305,335,299,308,2
302,340,297,306,2
301,344,297,304,2
300,346,300,302,2
301,348,304,301,2
302,347,306,301,2
303,341,306,302,2
304,332,306,303,2
305,322,307,303,2
306,312,307,304,2
307,304,308,305,2
308,299,309,304,2
308,297,308,304,2
308,297,307,304,2
307,300,308,305,2
307,304,309,306,2
306,308,310,307,2
305,309,310,308,2
305,307,311,308,2
304,304,311,308,2
304,300,309,308,2
305,298,308,308,2
306,297,306,307,2
306,298,305,307,2
306,301,305,306,2
305,305,305,306,2
302,307,306,306,2
299,308,305,306,2
297,309,305,306,2
296,310,305,305,2
296,310,307,305,2
297,311,309,304,2
299,311,310,304,2
301,312,310,303,2
302,312,308,302,2
303,311,306,301,2
305,309,303,302,2
306,304,302,303,2
308,298,303,305,2
310,289,304,307,2
312,279,304,308,2
312,271,304,308,2
312,265,304,308,2
309,264,302,307,2
306,268,302,307,2
304,277,303,307,2
303,288,306,308,2
303,300,309,310,2
303,313,310,312,2
304,324,309,314,2
304,332,309,315,2
305,338,308,316,2
306,340,309,316,2
306,340,310,315,2
305,339,310,314,2
304,340,309,312,2
304,345,307,312,2
304,346,306,311,2
303,340,304,311,2
303,331,302,310,2
303,323,301,310,2
304,318,301,311,2
306,317,301,311,2
309,316,303,312,2
313,316,305,312,2
318,316,308,313,2
321,315,310,314,2
321,312,311,314,2
317,308,311,313,2
312,305,311,314,2
307,301,311,314,2
303,298,311,314,2
303,299,312,315,2
303,304,313,317,2
304,310,312,318,2
305,313,312,319,2
306,314,312,318,2
306,315,311,317,2
306,316,308,316,2
305,312,306,315,2
305,305,305,314,2
306,298,305,313,2
306,295,305,311,2
306,294,305,310,2
306,295,305,309,2
306,297,306,308,2
307,299,309,308,2
309,301,312,308,2
310,301,314,307,2
310,302,313,305,2
310,303,310,304,2
310,305,307,303,2
310,310,305,303,2
308,314,303,303,2
307,316,301,302,2
306,314,298,301,2
306,308,298,300,2
306,297,299,300,2
307,283,301,300,2
308,270,304,299,2
309,261,308,300,2
310,257,311,300,2
311,257,313,301,2
311,262,315,302,2
310,270,315,304,2
309,279,315,305,2
308,289,313,307,2
307,301,312,308,2
305,313,310,309,2
304,325,309,310,2
304,335,308,310,2
305,345,307,309,2
307,351,308,309,2
309,353,308,309,2
309,351,308,309,2
309,347,308,310,2
308,339,308,311,2
308,333,308,312,2
307,328,308,312,2
307,326,307,312,2
306,329,306,312,2
306,336,306,312,2
306,340,305,312,2
306,337,306,313,2
305,329,307,311,2
303,320,307,311,2
303,312,308,310,2
303,305,308,309,2
304,301,308,308,2
304,299,308,307,2
305,300,308,306,2
305,303,308,305,2
307,306,309,304,2
308,309,310,302,2
309,312,311,301,2
309,312,311,299,2
309,312,310,297,2
309,310,309,296,2
309,309,308,297,2
309,308,307,299,2
309,308,307,302,2
309,307,306,305,2
309,306,306,308,2
308,302,305,310,2
306,297,304,310,2
305,292,303,309,2
304,289,303,308,2
305,290,303,308,2
306,291,305,307,2
307,292,305,306,2
308,294,305,306,2
308,298,304,306,2
309,302,304,308,2
310,308,303,309,2
311,314,302,310,2
311,317,301,310,2
311,318,301,309,2
310,316,301,309,2
308,311,302,308,2
305,306,301,308,2
304,303,300,307,2
303,300,300,307,2
303,300,301,308,2
303,301,302,307,2
304,304,302,307,2
304,306,302,307,2
303,308,302,307,2
302,311,302,307,2
302,314,301,307,2
303,315,302,308,2
303,314,302,308,2
304,311,302,309,2
305,309,302,308,2
306,307,302,308,2
308,306,302,308,2
308,303,301,309,2
309,299,299,309,2
310,293,299,310,2
310,286,298,310,2
310,279,298,310,2
310,274,299,309,2
310,270,300,308,2
309,271,301,308,2
308,276,303,307,2
307,284,305,305,2
306,292,306,304,2
305,298,306,304,2
304,305,306,303,2
303,310,305,303,2
302,312,305,302,2
301,311,306,302,2
301,308,306,302,2
300,304,305,303,2
300,301,304,304,2
301,300,304,306,2
302,301,304,306,2
303,304,305,307,2
303,308,305,306,2
304,312,305,306,2
304,313,305,306,2
304,312,304,306,2
305,306,303,306,2
305,299,303,306,2
306,291,304,307,2
307,285,307,308,2
308,280,308,310,2
309,279,309,312,2
309,281,308,314,2
308,288,308,314,2
307,294,306,315,2
306,299,306,315,2
305,303,306,315,2
305,305,308,314,2
305,309,309,314,2
307,311,310,313,2
308,311,310,311,2
308,312,308,310,2
307,313,306,309,2
307,316,304,309,2
307,319,303,309,2
307,321,302,309,2
307,322,301,308,2
305,322,300,306,2
304,323,298,304,2
304,323,298,303,2
305,321,298,302,2
307,315,299,302,2
309,304,302,303,2
310,295,303,305,2
313,288,304,307,2
314,283,304,311,2
314,278,303,313,2
314,276,304,313,2
312,281,307,313,2
310,290,308,313,2
307,302,308,313,2
305,313,307,312,2
304,318,304,311,2
302,319,302,309,2
302,318,300,306,2
302,316,299,304,2
304,315,300,302,2
306,316,303,302,2
308,318,306,301,2
308,318,309,302,2
306,316,310,302,2
304,313,308,303,2
302,310,305,304,2
301,310,302,306,2
301,310,300,308,2
302,309,298,310,2
303,307,298,311,2
304,305,299,310,2
304,303,301,310,2
305,303,303,309,2
306,304,304,308,2
306,307,305,307,2
305,312,305,305,2
303,319,304,303,2
301,326,303,302,2
299,331,301,301,2
297,336,299,302,2
297,338,297,302,2
296,337,296,303,2
297,334,295,304,2
298,331,294,306,2
299,328,294,307,2
299,323,295,307,2
300,317,295,307,2
301,310,296,306,2
302,303,296,304,2
302,297,295,302,2
303,290,294,301,2
303,284,293,300,2
303,283,293,299,2
302,287,296,299,2
301,294,300,298,2
300,303,304,298,2
300,314,308,300,2
298,324,312,303,2
296,332,313,305,2
295,335,311,307,2
295,332,309,309,2
296,325,307,310,2
298,317,305,311,2
300,312,304,311,2
304,308,303,311,2
308,307,303,309,2
312,307,303,307,2
313,306,304,306,2
314,306,304,305,2
313,304,303,306,2
310,300,302,306,2
307,297,301,307,2
305,295,301,308,2
304,297,302,309,2
303,300,304,310,2
303,302,306,312,2
303,300,308,313,2
303,296,309,314,2
303,288,309,315,2
304,281,308,315,2
305,274,308,314,2
305,270,308,313,2
305,270,307,312,2
305,274,306,310,2
304,282,305,309,2
304,292,303,308,2
304,302,302,308,2
304,307,300,308,2
305,308,300,309,2
307,306,301,309,2
310,304,302,308,2
313,301,304,309,2
317,301,305,310,2
320,306,306,310,2
320,313,306,310,2
318,319,306,310,2
313,323,305,310,2
307,324,304,309,2
302,322,303,308,2
298,321,302,308,2
295,322,301,307,2
294,322,301,307,2
295,324,302,306,2
297,326,304,307,2
301,333,305,308,2
304,342,305,310,2
307,349,305,311,2
309,352,305,311,2
310,351,305,310,2
310,349,305,310,2
310,346,305,310,2
308,341,304,309,2
306,336,302,309,2
304,329,299,309,2
302,320,297,310,2
302,312,297,311,2
304,305,298,312,2
305,301,300,312,2
307,297,303,312,2
307,294,306,311,2
306,293,308,310,2
306,295,308,309,2
305,299,308,308,2
304,303,307,306,2
303,308,305,305,2
302,314,303,305,2
302,319,302,305,2
303,322,301,305,2
304,321,302,305,2
306,319,304,305,2
308,315,305,305,2
309,311,307,306,2
310,310,308,306,2
310,309,307,306,2
308,308,306,306,2
307,308,303,306,2
308,307,302,306,2
308,306,302,307,2
308,308,302,307,2
307,312,303,308,2
307,319,304,310,2
308,327,306,310,2
308,332,307,310,2
308,333,307,308,2
308,326,308,306,2
308,314,308,304,2
307,298,307,302,2
308,284,307,301,2
307,275,306,300,2
308,274,306,300,2
309,280,306,300,2
308,289,306,301,2
307,298,307,302,2
304,306,306,303,2
302,312,306,303,2
300,315,306,304,2
298,314,305,306,2
297,310,305,307,2
297,303,305,309,2
297,296,305,310,2
298,289,306,311,2
299,284,307,311,2
302,280,308,311,2
304,279,310,311,2
307,281,311,311,2
309,286,312,310,2
310,290,312,309,2
310,294,310,307,2
309,297,308,306,2
308,300,306,305,2
308,303,305,303,2
308,304,304,302,2
308,304,303,302,2
308,301,302,302,2
306,300,302,303,2
305,301,302,303,2
304,306,302,304,2
304,310,302,306,2
305,312,304,306,2
306,311,306,308,2
308,311,308,310,2
309,313,312,312,2
310,316,315,313,2
311,318,317,315,2
312,319,318,316,2
312,317,319,317,2
311,316,319,316,2
310,314,319,314,2
307,316,318,312,2
303,320,316,310,2
300,324,314,309,2
298,325,311,309,2
298,324,310,309,2
299,323,309,309,2
301,320,310,310,2
303,316,309,311,2
304,312,308,311,2
305,307,307,310,2
304,303,307,308,2
304,300,307,307,2
304,298,307,306,2
305,300,307,306,2
305,302,308,307,2
306,305,307,307,2
308,308,307,308,2
309,311,308,309,2
311,317,309,310,2
310,323,308,310,2
309,325,308,311,2
308,322,308,311,2
306,315,310,310,2
306,307,311,309,2
307,300,314,308,2
309,296,316,307,2
311,295,317,307,2
312,298,316,306,2
312,299,314,306,2
310,298,311,305,2
309,294,307,304,2
310,289,304,303,2
311,284,302,302,2
313,277,302,302,2
316,270,304,303,2
318,263,306,304,2
318,259,308,304,2
316,258,309,303,2
314,261,310,304,2
311,266,310,305,2
309,274,309,305,2
305,285,308,306,2
302,298,308,307,2
300,310,308,308,2
297,322,308,307,2
294,332,308,306,2
293,341,308,304,2
294,347,308,304,2
298,351,309,304,2
302,351,309,303,2
306,348,310,303,2
310,339,311,304,2
312,327,312,304,2
313,313,313,303,2
313,300,314,302,2
313,288,314,302,2
313,281,313,302,2
313,278,313,302,2
313,281,313,302,2
314,287,312,301,2
314,295,311,302,2
315,302,309,302,2
314,308,307,304,2
313,313,307,306,2
312,316,307,307,2
311,318,307,310,2
310,319,308,312,2
309,320,308,314,2
308,320,309,314,2
307,319,309,313,2
306,317,308,312,2
305,313,306,309,2
304,310,305,306,2
303,306,305,303,2
304,302,306,302,2
304,297,306,302,2
305,294,307,302,2
305,293,307,302,2
306,294,308,304,2
306,295,308,305,2
306,297,307,305,2
306,301,308,306,2
306,305,309,306,2
306,308,311,306,2
306,309,313,306,2
306,308,315,306,2
307,307,317,307,2
309,306,318,307,2
311,305,318,307,2
312,304,318,307,2
312,305,316,307,2
313,307,314,307,2
312,308,312,306,2
311,310,309,306,2
310,314,307,306,2
309,316,308,306,2
309,317,309,307,2
310,317,311,307,2
311,315,312,307,2
311,312,311,307,2
311,310,310,306,2
311,308,309,306,2
310,307,309,306,2
310,307,309,306,2
311,309,309,307,2
311,313,311,307,2
312,316,312,307,2
312,317,314,307,2
312,315,315,307,2
312,307,315,308,2
312,295,315,309,2
311,283,315,310,2
311,273,314,311,2
311,271,313,312,2
311,274,311,312,2
310,282,310,312,2
309,289,308,310,2
309,289,306,309,2
308,284,305,308,2
309,276,305,307,2
309,271,306,308,2
310,269,308,308,2
311,272,311,309,2
311,283,312,309,2
310,298,312,309,2
310,313,311,309,2
309,322,310,310,2
308,326,309,311,2
307,324,309,310,2
306,320,309,309,2
307,314,309,308,2
308,308,309,307,2
309,307,308,307,2
310,311,308,308,2
311,317,308,309,2
311,324,306,309,2
311,329,305,309,2
309,332,305,309,2
307,331,304,309,2
305,325,304,309,2
305,312,306,308,2
306,296,309,307,2
307,280,313,305,2
309,273,315,304,2
311,273,315,304,2
311,278,314,304,2
311,287,310,305,2
311,297,307,307,2
311,306,304,308,2
311,315,302,310,2
312,322,302,311,2
312,326,303,312,2
312,325,306,313,2
311,324,308,312,2
309,325,309,312,2
308,325,309,310,2
307,321,309,309,2
307,313,309,308,2
307,299,310,308,2
308,282,310,307,2
309,261,311,305,2
310,242,311,304,2
311,233,311,302,2
312,236,311,302,2
313,251,311,302,2
313,272,310,303,2
314,294,309,304,2
315,308,310,306,2
316,315,312,308,2
316,316,314,308,2
316,316,316,309,2
313,315,316,309,2
310,313,315,309,2
306,315,311,310,2
304,318,308,311,2
303,321,306,311,2
304,323,304,311,2
305,326,304,310,2
307,329,305,309,2
309,330,307,309,2
310,327,308,308,2
310,320,308,308,2
310,311,308,307,2
310,300,308,306,2
309,291,308,305,2
309,287,309,306,2
310,290,309,307,2
310,298,309,307,2
309,308,308,307,2
307,320,307,306,2
306,329,305,306,2
305,333,305,306,2
305,332,304,306,2
305,326,305,307,2
305,317,307,308,2
306,306,309,310,2
306,296,311,311,2
307,285,312,312,2
307,279,312,313,2
308,277,312,312,2
308,279,311,311,2
307,282,310,310,2
307,285,308,309,2
307,288,307,309,2
307,291,307,308,2
307,295,306,308,2
306,301,307,309,2
305,309,307,310,2
303,321,308,311,2
301,332,308,311,2
300,343,308,311,2
299,349,309,313,2
299,348,310,314,2
301,341,312,314,2
302,330,313,313,2
305,320,313,312,2
307,312,312,309,2
309,307,310,306,2
310,304,309,302,2
311,302,309,299,2
311,300,311,298,2
311,298,313,299,2
312,295,316,302,2
314,291,318,304,2
315,284,319,307,2
314,275,317,308,2
312,267,314,310,2
310,263,312,312,2
308,265,311,313,2
307,277,311,312,2
306,295,309,312,2
305,313,308,311,2
304,328,307,310,2
303,337,305,308,2
303,339,303,307,2
303,336,301,306,2
302,330,299,305,2
303,323,298,304,2
303,318,298,303,2
304,315,301,302,2
305,312,306,300,2
307,310,310,299,2
309,307,314,299,2
309,304,316,300,2
308,299,316,301,2
306,293,315,302,2
303,288,312,303,2
302,284,310,303,2
302,282,309,303,2
304,283,309,304,2
305,285,310,306,2
307,289,310,308,2
307,295,309,309,2
307,297,309,310,2
308,296,309,311,2
309,294,309,310,2
310,294,310,310,2
312,296,311,310,2
312,299,312,311,2
310,303,312,310,2
305,306,311,309,2
301,307,309,308,2
297,304,306,306,2
296,297,304,305,2
297,289,303,305,2
300,285,302,304,2
303,288,301,303,2
305,297,299,302,2
305,312,299,302,2
305,325,300,303,2
305,331,302,303,2
305,332,304,304,2
306,327,306,305,2
307,320,308,306,2
307,313,309,306,2
307,306,309,305,2
306,304,309,305,2
306,305,308,305,2
306,307,307,305,2
306,307,307,305,2
305,305,307,304,2
304,301,307,304,2
304,296,306,304,2
303,295,306,303,2
302,298,307,303,2
301,301,307,304,2
299,302,308,304,2
299,305,308,305,2
298,310,308,306,2
298,313,308,307,2
298,313,307,306,2
298,310,305,306,2
300,308,303,305,2
301,310,302,304,2
302,314,302,304,2
303,319,302,303,2
304,322,303,302,2
304,321,303,302,2
303,318,302,301,2
301,311,300,300,2
300,304,299,300,2
300,298,299,300,2
301,296,301,301,2
303,296,304,302,2
304,299,306,303,2
305,306,308,304,2
307,312,310,305,2
308,315,313,306,2
308,315,315,307,2
306,312,316,307,2
303,309,315,308,2
300,308,313,310,2
298,307,311,312,2
296,306,309,313,2
296,301,307,314,2
297,296,307,313,2
300,291,306,312,2
304,289,305,311,2
307,288,304,310,2
309,290,302,309,2
309,294,301,308,2
307,300,301,307,2
305,306,303,306,2
303,309,305,307,2
302,309,308,308,2
303,307,310,309,2
303,306,310,310,2
304,304,310,311,2
304,303,309,311,2
305,303,308,312,2
305,305,306,311,2
304,307,304,310,2
302,308,302,309,2
300,309,302,308,2
299,311,302,307,2
297,312,302,306,2
297,312,303,305,2
297,312,303,305,2
298,313,304,305,2
299,316,305,305,2
299,320,305,306,2
300,321,305,306,2
301,319,305,306,2
302,315,307,307,2
303,311,309,307,2
304,308,311,307,2
304,305,312,306,2
303,303,312,305,2
302,304,311,305,2
301,305,306,305,2
300,307,303,304,2
300,308,300,304,2
300,309,299,305,2
300,309,298,305,2
299,308,298,306,2
300,307,298,308,2
301,307,299,309,2
302,307,300,311,2
303,304,302,312,2
305,299,305,313,2
307,295,308,313,2
308,292,310,313,2
308,291,310,313,2
309,290,309,312,2
310,294,308,313,2
312,303,307,312,2
313,314,305,313,2
314,325,305,314,2
312,332,304,314,2
308,335,303,314,2
302,333,303,313,2
297,327,304,313,2
294,318,305,313,2
293,309,305,312,2
294,304,306,312,2
296,303,307,312,2
298,305,306,311,2
300,307,306,311,2
301,306,306,311,2
302,301,306,311,2
303,293,306,311,2
305,285,307,312,2
307,278,310,313,2
308,275,313,314,2
310,277,316,314,2
311,284,317,313,2
309,294,316,312,2
307,303,313,311,2
306,307,310,311,2
305,308,308,310,2
304,305,306,309,2
304,302,305,309,2
304,299,304,308,2
304,295,304,308,2
304,292,305,308,2
303,293,305,307,2
303,298,304,307,2
302,306,304,307,2
302,315,303,307,2
302,322,303,309,2
303,328,303,311,2
304,332,303,312,2
304,333,305,312,2
305,332,306,312,2
305,329,308,312,2
305,328,308,311,2
305,327,308,311,2
305,327,307,311,2
305,326,307,312,2
304,324,306,313,2
302,323,305,313,2
300,325,304,313,2
299,327,304,311,2
298,327,303,309,2
298,327,303,307,2
300,326,303,305,2
303,325,304,304,2
306,323,306,304,2
309,319,308,305,2
310,312,308,306,2
311,304,308,307,2
310,299,309,309,2
310,296,309,310,2
310,294,309,310,2
309,292,308,309,2
308,288,306,308,2
306,285,303,307,2
304,282,300,307,2
303,281,298,308,2
303,283,298,308,2
304,287,298,309,2
306,291,300,308,2
306,299,301,308,2
307,307,303,309,2
308,313,304,309,2
308,316,304,310,2
307,317,304,311,2
307,314,305,311,2
307,310,305,312,2
306,305,304,313,2
305,300,302,313,2
306,298,299,312,2
306,297,298,311,2
306,298,297,309,2
306,302,296,308,2
306,308,297,307,2
307,313,298,305,2
307,314,300,303,2
308,307,302,299,2
308,295,305,297,2
309,282,308,295,2
310,270,310,295,2
310,262,312,294,2
309,257,312,295,2
308,258,313,296,2
306,265,314,298,2
305,278,316,301,2
304,295,318,305,2
303,311,319,309,2
303,323,318,311,2
302,333,315,313,2
302,339,311,315,2
302,341,307,316,2
303,339,304,315,2
303,336,302,314,2
304,333,303,314,2
305,331,304,315,2
306,329,305,316,2
306,328,306,316,2
307,327,306,315,2
308,326,307,316,2
308,327,308,317,2
308,327,308,317,2
308,325,308,317,2
308,322,307,315,2
307,317,306,314,2
307,311,304,312,2
308,305,302,311,2
308,301,301,311,2
309,299,300,311,2
309,298,301,311,2
308,296,303,309,2
307,296,305,308,2
307,298,307,308,2
308,301,308,307,2
308,304,309,307,2
309,305,309,306,2
311,304,309,306,2
312,305,308,306,2
313,307,307,306,2
312,312,307,306,2
310,316,306,305,2
309,318,306,304,2
309,320,305,303,2
310,321,306,303,2
310,321,306,303,2
311,317,307,303,2
311,309,307,303,2
310,300,307,304,2
308,293,307,304,2
307,288,308,304,2
306,286,308,306,2
305,286,308,308,2
305,287,308,310,2
305,289,309,311,2
305,292,309,311,2
304,298,309,309,2
303,306,309,307,2
302,313,308,306,2
302,319,306,306,2
302,322,305,306,2
302,323,304,306,2
302,322,304,306,2
303,320,304,305,2
303,315,304,304,2
305,309,304,304,2
305,302,304,304,2
306,293,303,303,2
306,286,302,303,2
306,281,300,302,2
306,281,300,301,2
305,283,299,301,2
303,285,301,301,2
301,285,303,301,2
300,283,306,301,2
301,285,309,301,2
304,291,310,302,2
306,298,311,303,2
308,303,311,305,2
310,309,311,307,2
311,313,310,308,2
310,318,309,310,2
309,320,307,312,2
309,321,305,312,2
308,322,303,311,2
308,322,301,310,2
307,320,299,310,2
307,315,299,309,2
307,309,300,309,2
307,304,303,309,2
308,300,307,309,2
308,298,312,309,2
309,299,315,310,2
309,305,317,310,2
308,314,317,310,2
306,323,315,310,2
304,330,313,310,2
304,335,312,310,2
302,336,309,310,2
301,335,308,311,2
301,333,307,313,2
302,329,306,314,2
303,321,306,313,2
304,312,305,312,2
305,304,304,309,2
305,299,303,306,2
305,297,301,303,2
305,296,299,300,2
304,295,298,298,2
304,293,298,297,2
303,290,298,296,2
303,287,299,295,2
303,286,298,294,2
304,288,296,293,2
304,290,294,289,2
302,291,292,283,2
300,291,290,277,2
299,292,290,274,2
298,295,293,278,2
298,298,298,287,2
298,299,304,296,2
300,298,311,304,2
303,295,317,311,2
307,291,321,316,2
310,289,324,319,2
313,288,324,321,2
313,291,322,322,2
312,299,318,322,2
310,307,315,320,2
309,314,313,319,2
308,317,311,317,2
307,319,310,316,2
308,319,308,315,2
309,315,306,313,2
309,308,304,311,2
309,297,301,309,2
309,284,300,307,2
309,271,299,306,2
309,260,300,306,2
309,254,302,306,2
310,256,304,304,2
309,264,306,303,2
308,278,309,303,2
307,294,310,303,2
306,308,310,302,2
305,319,310,302,2
304,326,311,303,2
304,330,313,303,2
304,329,315,304,2
304,326,316,305,2
304,321,316,307,2
303,318,314,309,2
303,316,310,310,2
303,316,307,310,2
303,317,306,309,2
303,320,304,308,2
302,325,304,307,2
302,328,304,306,2
302,330,304,306,2
302,328,304,305,2
302,326,304,305,2
302,322,302,304,2
303,318,302,303,2
303,316,302,301,2
303,316,302,301,2
304,318,301,301,2
304,322,302,301,2
305,327,303,302,2
305,331,304,302,2
306,333,305,303,2
305,334,306,303,2
304,332,306,304,2
303,329,305,306,2
302,324,305,308,2
300,316,305,310,2
299,308,304,312,2
299,302,304,313,2
299,298,305,313,2
300,297,307,313,2
302,294,309,312,2
303,292,310,309,2
304,290,310,307,2
306,285,309,304,2
308,278,308,302,2
310,268,308,300,2
311,258,308,298,2
313,254,309,297,2
313,255,310,297,2
313,264,310,298,2
312,283,309,301,2
310,305,307,305,2
308,323,306,308,2
305,333,304,310,2
302,336,302,310,2
301,337,302,310,2
300,336,302,310,2
301,333,303,308,2
301,328,305,307,2
302,323,306,305,2
303,317,307,304,2
304,309,307,303,2
304,301,308,302,2
304,293,309,302,2
304,285,311,302,2
304,277,313,302,2
304,271,314,304,2
305,270,314,305,2
306,272,314,307,2
306,279,314,308,2
306,287,313,309,2
305,295,314,309,2
304,300,314,309,2
304,304,314,308,2
303,307,312,308,2
303,309,308,307,2
303,309,306,307,2
303,310,305,306,2
304,312,304,305,2
304,321,305,306,2
304,337,305,306,2
304,354,306,307,2
305,368,308,307,2
306,378,310,306,2
307,382,312,306,2
307,381,314,306,2
308,375,316,305,2
308,363,315,304,2
307,349,313,304,2
307,338,310,304,2
307,328,308,304,2
306,319,305,305,2
305,308,303,306,2
304,296,301,306,2
304,289,301,306,2
304,287,301,306,2
305,289,301,306,2
307,293,302,305,2
308,300,304,304,2
309,309,307,303,2
310,316,310,302,2
309,317,313,302,2
307,312,314,302,2
306,304,314,304,2
305,297,312,306,2
305,289,310,307,2
305,282,307,307,2
306,278,305,307,2
307,277,303,306,2
307,280,302,306,2
306,288,303,306,2
305,297,304,307,2
304,305,305,307,2
303,312,305,307,2
301,318,304,305,2
299,320,304,303,2
298,319,304,302,2
299,315,305,303,2
300,311,306,304,2
302,307,307,306,2
302,303,308,306,2
303,300,308,307,2
303,297,308,307,2
304,293,309,307,2
305,291,309,309,2
306,288,310,310,2
307,283,311,310,2
307,277,313,308,2
306,273,313,306,2
305,273,313,305,2
305,278,313,304,2
304,285,314,304,2
305,292,315,304,2
305,300,316,304,2
305,308,316,305,2
305,315,316,306,2
304,317,315,308,2
304,317,313,309,2
304,316,310,309,2
303,314,307,309,2
303,315,305,308,2
304,315,304,307,2
304,316,302,306,2
305,317,301,304,2
305,317,300,303,2
305,313,299,302,2
305,306,299,302,2
305,299,300,301,2
306,291,303,301,2
307,284,305,300,2
308,276,307,301,2
309,269,309,303,2
308,265,309,305,2
307,263,308,306,2
306,262,306,305,2
305,260,305,304,2
306,260,304,304,2
306,263,304,304,2
307,269,304,303,2
308,275,303,302,2
308,284,303,302,2
309,294,302,301,2
308,305,302,301,2
308,320,303,301,2
309,337,304,302,2
309,350,306,304,2
309,360,306,305,2
309,364,304,306,2
308,362,302,305,2
306,358,301,304,2
304,353,300,304,2
302,346,302,304,2
301,339,304,304,2
302,331,305,305,2
302,324,307,305,2
304,320,307,306,2
305,318,307,307,2
307,318,306,306,2
308,319,304,306,2
309,323,302,307,2
308,326,301,307,2
308,328,303,307,2
308,328,305,307,2
309,325,307,308,2
310,318,309,308,2
311,310,310,308,2
311,303,310,308,2
311,300,310,307,2
311,302,311,306,2
310,306,311,306,2
309,311,311,307,2
307,313,310,308,2
306,313,310,309,2
305,314,310,310,2
305,315,309,310,2
305,317,309,310,2
304,319,308,309,2
304,320,307,308,2
303,320,306,307,2
302,319,306,307,2
303,317,307,307,2
304,313,309,308,2
305,309,309,309,2
306,306,309,310,2
308,302,310,310,2
309,295,309,310,2
309,286,309,308,2
310,278,309,307,2
310,274,310,306,2
309,278,311,305,2
308,288,312,305,2
307,300,313,305,2
307,308,313,306,2
306,313,313,307,2
306,315,313,308,2
306,316,312,309,2
307,315,312,310,2
307,314,312,310,2
308,314,312,310,2
309,312,311,310,2
308,310,309,308,2
308,309,306,306,2
308,307,301,303,2
308,304,296,300,2
308,299,292,297,2
309,296,289,294,2
309,297,290,293,2
308,302,294,293,2
306,309,298,293,2
302,316,302,294,2
299,322,306,297,2
298,325,309,301,2
297,327,311,303,2
298,329,312,305,2
301,330,313,306,2
304,328,313,307,2
307,324,314,308,2
310,319,314,308,2
312,317,314,308,2
314,316,313,308,2
315,311,312,308,2
316,301,312,307,2
316,290,313,307,2
316,279,314,306,2
315,270,315,305,2
315,264,316,304,2
316,261,318,303,2
315,262,318,302,2
313,267,315,301,2
310,275,310,300,2
309,285,305,300,2
307,295,302,300,2
307,303,301,300,2
306,308,300,299,2
305,313,300,300,2
305,317,300,300,2
306,318,300,301,2
306,318,300,302,2
308,315,300,304,2
309,311,301,305,2
311,305,303,307,2
313,301,305,308,2
313,301,305,310,2
313,305,306,311,2
313,313,305,311,2
310,320,304,310,2
308,325,302,309,2
305,325,301,309,2
304,318,301,308,2
304,307,303,308,2
305,296,305,307,2
307,288,308,308,2
309,285,309,309,2
310,288,310,309,2
310,297,309,309,2
309,310,308,308,2
307,323,307,307,2
305,334,306,306,2
304,340,305,306,2
304,342,303,306,2
304,341,301,307,2
304,335,300,308,2
304,327,299,309,2
304,317,298,309,2
304,308,298,309,2
306,304,298,309,2
308,303,301,307,2
310,304,305,306,2
311,308,309,306,2
312,315,312,307,2
310,322,313,308,2
309,324,313,310,2
307,322,311,310,2
305,318,308,311,2
304,316,306,310,2
304,313,303,308,2
303,313,302,307,2
304,314,301,306,2
305,316,302,306,2
306,318,303,306,2
307,320,304,305,2
308,318,304,304,2
308,314,305,303,2
309,308,305,302,2
309,301,304,302,2
308,294,305,301,2
307,288,306,302,2
308,283,309,302,2
308,281,313,303,2
309,281,315,304,2
309,281,316,304,2
310,282,315,304,2
311,285,315,305,2
311,291,314,306,2
311,300,313,307,2
311,311,312,307,2
310,315,311,307,2
307,313,309,305,2
306,305,308,304,2
306,296,308,304,2
306,288,309,304,2
307,285,309,305,2
306,288,308,305,2
306,295,308,306,2
305,306,308,307,2
304,320,309,308,2
303,334,309,308,2
302,343,309,307,2
302,347,308,307,2
301,346,307,308,2
301,341,306,308,2
303,334,305,310,2
304,328,306,312,2
305,324,307,313,2
303,321,306,313,2
301,319,304,313,2
301,318,302,313,2
301,317,300,313,2
302,315,298,313,2
302,312,298,313,2
303,309,299,311,2
303,309,302,309,2
303,311,304,308,2
303,314,306,308,2
303,318,307,308,2
302,319,307,307,2
301,320,307,306,2
300,321,307,305,2
299,324,308,305,2
299,326,310,305,2
300,328,312,305,2
302,329,314,305,2
302,328,313,304,2
302,327,311,303,2
301,325,308,302,2
300,322,307,301,2
300,315,307,301,2
301,304,308,301,2
303,291,311,302,2
304,277,314,304,2
304,268,316,306,2
305,262,318,308,2
306,261,318,308,2
306,269,316,309,2
305,284,314,310,2
302,301,311,310,2
300,314,308,311,2
299,321,306,310,2
298,323,305,309,2
298,323,304,308,2
300,321,305,308,2
301,318,306,308,2
302,316,307,307,2
302,314,308,307,2
302,313,309,307,2
302,314,310,308,2
301,317,310,307,2
300,320,309,307,2
298,321,309,307,2
297,320,310,308,2
297,315,311,309,2
300,308,313,311,2
303,300,316,313,2
307,290,318,314,2
310,279,320,315,2
311,266,320,314,2
311,253,319,313,2
310,244,317,311,2
309,242,315,310,2
308,247,314,310,2
308,257,314,311,2
308,273,313,311,2
307,292,311,312,2
305,312,309,311,2
303,328,306,310,2
300,341,304,310,2
298,350,303,308,2
297,355,302,307,2
297,357,304,307,2
298,355,306,307,2
299,351,309,306,2
299,345,310,306,2
300,340,311,306,2
301,334,312,306,2
301,329,312,307,2
301,322,311,307,2
301,314,310,308,2
300,302,309,309,2
300,289,307,310,2
300,281,306,311,2
300,279,305,313,2
301,282,305,315,2
301,288,306,316,2
300,295,306,317,2
300,300,306,317,2
301,302,307,316,2
301,302,308,314,2
301,302,308,313,2
302,302,308,312,2
302,305,308,311,2
302,309,309,310,2
301,316,309,310,2
301,324,309,311,2
301,332,308,310,2
301,338,307,308,2
300,341,305,306,2
299,341,304,305,2
299,338,303,304,2
300,331,302,304,2
300,320,304,305,2
302,308,305,306,2
304,301,307,309,2
305,298,310,311,2
305,299,313,313,2
305,301,314,313,2
304,301,314,311,2
302,300,314,310,2
302,300,314,308,2
302,301,314,307,2
303,303,313,308,2
304,304,311,309,2
306,305,310,311,2
306,306,309,314,2
306,307,309,315,2
305,305,308,315,2
304,304,308,314,2
303,304,307,312,2
304,305,306,311,2
305,306,307,310,2
306,308,307,309,2
307,307,308,308,2
307,301,308,306,2
309,291,309,305,2
311,276,310,305,2
312,262,311,305,2
313,250,310,305,2
314,245,309,305,2
315,249,309,306,2
314,261,310,307,2
312,281,311,309,2
310,302,311,310,2
308,318,310,309,2
306,328,309,307,2
303,332,308,305,2
301,331,307,304,2
299,328,307,303,2
298,326,309,302,2
299,324,310,302,2
298,325,310,302,2
298,326,308,302,2
297,328,306,301,2
296,331,305,302,2
297,332,306,303,2
299,330,309,304,2
301,325,313,306,2
302,318,316,308,2
302,308,318,308,2
301,296,317,308,2
301,287,315,307,2
302,281,312,306,2
304,279,310,305,2
305,282,308,305,2
307,289,306,306,2
308,298,305,306,2
307,307,304,307,2
306,315,303,308,2
305,323,302,309,2
304,330,302,310,2
304,335,301,311,2
303,337,300,311,2
303,337,300,311,2
302,336,300,310,2
303,335,300,309,2
303,335,300,308,2
303,331,299,308,2
303,320,299,307,2
303,304,299,307,2
305,291,300,306,2
306,283,300,306,2
309,279,301,306,2
311,277,302,306,2
313,277,302,306,2
313,279,302,305,2
313,285,301,305,2
310,294,300,304,2
306,304,299,304,2
302,313,298,303,2
300,318,298,303,2
299,320,298,302,2
301,322,299,302,2
303,323,301,302,2
304,323,302,304,2
306,323,302,307,2
307,323,302,309,2
308,322,301,311,2
307,319,299,311,2
306,314,299,310,2
306,308,298,308,2
305,303,299,307,2
305,297,301,306,2
304,292,303,305,2
304,289,304,305,2
303,287,305,305,2
303,287,306,305,2
302,288,307,304,2
302,288,307,303,2
302,287,308,303,2
303,284,309,303,2
304,278,309,304,2
305,271,309,305,2
306,265,308,306,2
307,261,308,306,2
307,263,307,306,2
308,269,306,306,2
308,280,305,306,2
307,294,304,307,2
305,310,303,308,2
302,325,301,309,2
300,337,299,310,2
298,345,298,310,2
297,350,298,309,2
297,351,298,308,2
298,349,300,308,2
299,345,301,308,2
303,339,303,308,2
307,331,305,307,2
311,324,307,306,2
314,315,308,306,2
315,302,308,305,2
315,289,308,303,2
313,280,308,303,2
311,277,307,304,2
310,282,306,305,2
308,292,304,308,2
307,302,303,310,2
306,311,303,311,2
305,317,303,310,2
304,321,302,309,2
304,323,303,308,2
304,324,302,307,2
306,324,301,307,2
306,323,301,307,2
308,320,301,308,2
309,317,301,309,2
310,314,303,310,2
310,310,304,310,2
311,305,305,309,2
310,299,306,307,2
310,294,304,306,2
310,290,301,306,2
311,289,297,306,2
311,292,295,306,2
311,298,294,307,2
312,305,294,308,2
312,312,295,308,2
310,317,297,308,2
309,318,299,308,2
307,317,301,308,2
306,315,303,308,2
306,313,304,308,2
307,312,304,307,2
308,309,306,307,2
309,306,307,306,2
309,300,308,305,2
310,294,308,304,2
311,287,309,303,2
313,282,311,303,2
316,280,313,304,2
319,285,314,306,2
322,294,314,306,2
323,305,314,306,2
322,317,314,306,2
319,326,313,307,2
314,328,313,307,2
310,325,312,307,2
305,321,311,307,2
302,316,311,307,2
300,311,310,306,2
299,306,309,305,2
300,301,309,305,2
302,298,308,304,2
304,295,307,305,2
305,294,306,306,2
307,295,305,307,2
308,299,305,307,2
308,304,304,307,2
307,309,304,308,2
307,314,303,309,2
307,315,302,309,2
306,315,302,308,2
306,313,301,306,2
306,311,300,306,2
308,309,301,307,2
309,308,300,308,2
311,307,300,309,2
311,308,301,310,2
311,310,302,310,2
311,314,303,309,2
309,320,305,308,2
308,324,305,306,2
307,324,306,305,2
306,319,305,305,2
305,312,303,306,2
305,305,301,307,2
305,302,300,309,2
305,303,299,311,2
305,306,300,312,2
306,309,302,311,2
307,310,303,310,2
309,307,304,309,2
310,302,304,307,2
310,296,304,307,2
311,289,306,306,2
312,284,307,307,2
314,281,309,307,2
314,281,310,307,2
311,282,307,307,2
309,285,303,307,2
306,288,300,307,2
306,292,297,307,2
307,297,297,308,2
309,304,297,307,2
310,309,298,306,2
311,315,298,305,2
312,318,298,302,2
311,319,297,300,2
309,319,297,299,2
307,319,299,300,2
305,320,300,300,2
301,321,301,301,2
296,320,301,302,2
294,320,301,304,2
294,318,301,305,2
296,317,301,307,2
298,315,302,309,2
301,312,304,310,2
303,307,305,311,2
305,304,306,311,2
306,300,307,311,2
307,296,307,311,2
308,291,308,310,2
309,285,308,310,2
309,279,307,311,2
309,277,305,312,2
310,277,304,313,2
311,280,303,313,2
312,287,304,313,2
314,296,305,311,2
315,306,306,310,2
316,317,308,309,2
316,327,308,308,2
315,333,307,308,2
315,337,305,309,2
314,338,303,310,2
313,339,301,312,2
314,338,301,313,2
313,335,301,314,2
312,330,301,314,2
311,323,301,314,2
310,315,300,311,2
309,309,299,309,2
308,305,300,307,2
308,304,301,306,2
308,302,303,306,2
309,301,304,306,2
310,302,306,306,2
311,305,306,305,2
310,306,305,305,2
309,303,304,304,2
307,297,305,304,2
307,291,307,304,2
307,289,310,305,2
308,291,312,306,2
308,294,313,308,2
309,299,314,310,2
309,306,315,312,2
309,312,316,313,2
309,315,317,315,2
310,315,318,316,2
310,313,318,316,2
309,311,317,315,2
308,309,315,314,2
308,309,313,312,2
308,310,312,312,2
308,312,311,312,2
308,315,309,312,2
308,320,307,313,2
308,327,306,313,2
309,337,305,314,2
310,346,305,315,2
311,352,305,314,2
311,355,305,313,2
311,355,304,312,2
311,350,301,312,2
310,341,300,311,2
309,329,298,310,2
308,315,298,310,2
306,304,298,310,2
304,296,298,311,2
303,291,298,313,2
303,289,300,314,2
303,287,301,315,2
304,284,303,315,2
304,281,304,313,2
304,279,305,312,2
304,278,306,310,2
305,278,308,309,2
305,279,309,308,2
307,281,310,308,2
307,286,310,308,2
308,293,308,309,2
309,302,303,309,2
310,313,297,309,2
311,325,292,309,2
311,339,290,308,2
312,353,291,306,2
313,365,293,305,2
313,370,297,302,2
311,368,301,300,2
310,362,305,301,2
309,347,310,304,2
308,323,314,308,2
308,296,316,311,2
307,271,317,313,2
306,252,317,314,2
305,243,316,315,2
305,244,314,316,2
305,250,314,316,2
305,257,313,317,2
305,264,312,317,2
305,271,312,317,2
305,275,312,317,2
305,278,312,317,2
304,281,313,317,2
305,283,313,317,2
305,285,312,318,2
307,285,312,317,2
307,284,312,316,2
307,284,312,315,2
306,284,312,313,2
305,288,311,313,2
305,293,312,312,2
305,299,312,311,2
305,305,312,309,2
305,309,313,308,2
304,311,313,309,2
304,310,313,310,2
303,304,314,311,2
302,297,314,311,2
301,294,312,311,2
300,294,309,311,2
299,298,307,311,2
298,306,304,311,2
297,314,302,310,2
297,320,301,309,2
296,322,301,308,2
296,322,301,307,2
296,322,303,307,2
297,321,306,307,2
298,319,308,307,2
298,317,308,308,2
300,314,307,308,2
300,309,307,310,2
302,302,307,310,2
303,293,308,310,2
304,285,309,309,2
305,280,311,308,2
307,279,312,307,2
309,280,313,305,2
310,285,315,303,2
310,296,317,302,2
310,310,318,302,2
309,322,316,302,2
307,330,313,302,2
306,333,309,303,2
306,332,306,303,2
306,329,304,304,2
306,323,304,305,2
305,317,304,307,2
304,310,304,309,2
304,305,305,311,2
303,300,307,312,2
304,297,307,313,2
304,298,306,313,2
304,301,304,313,2
303,307,303,312,2
303,313,302,311,2
304,316,302,311,2
305,319,301,310,2
306,319,301,308,2
305,316,301,306,2
304,312,302,305,2
304,308,303,304,2
305,305,305,305,2
306,303,308,305,2
307,301,310,306,2
308,299,310,306,2
308,298,310,306,2
308,300,309,306,2
307,303,309,306,2
306,307,309,306,2
306,311,308,306,2
305,313,306,305,2
303,314,305,305,2
303,315,305,305,2
303,318,305,306,2
304,319,306,306,2
305,318,307,305,2
304,315,307,304,2
304,310,307,304,2
303,304,306,304,2
303,298,306,305,2
304,295,306,305,2
305,294,305,307,2
305,296,304,308,2
306,301,304,309,2
306,306,304,309,2
308,310,305,309,2
309,312,308,309,2
311,315,311,311,2
311,320,311,312,2
311,322,310,313,2
309,322,310,312,2
308,320,312,310,2
306,318,314,309,2
306,318,316,308,2
304,317,317,307,2
303,317,316,306,2
302,319,315,307,2
302,319,313,307,2
303,315,312,308,2
303,309,312,310,2
304,307,313,312,2
305,309,313,312,2
305,315,313,312,2
306,321,313,312,2
307,323,313,312,2
309,321,310,311,2
310,315,307,311,2
310,307,303,310,2
308,300,300,310,2
306,295,298,309,2
304,292,298,308,2
303,293,299,308,2
303,297,301,307,2
303,302,302,305,2
304,306,303,304,2
304,308,304,303,2
304,308,305,302,2
304,308,307,303,2
305,307,308,305,2
306,307,308,308,2
307,306,308,309,2
308,306,307,310,2
309,304,306,310,2
309,302,306,310,2
310,298,307,309,2
310,294,308,307,2
310,291,308,307,2
310,290,309,307,2
310,293,310,308,2
310,296,312,309,2
310,298,311,310,2
309,301,311,310,2
308,304,309,311,2
308,307,308,311,2
309,310,307,310,2
309,313,306,309,2
308,318,305,308,2
307,323,304,307,2
306,325,304,306,2
304,321,305,306,2
303,314,307,306,2
303,305,307,307,2
304,298,305,309,2
304,293,303,310,2
305,292,301,311,2
306,297,300,311,2
306,305,299,312,2
305,315,298,313,2
303,324,298,313,2
300,332,297,312,2
298,336,298,312,2
298,335,299,311,2
299,329,301,310,2
300,322,305,311,2
302,315,308,311,2
304,309,311,312,2
307,304,315,313,2
309,298,318,313,2
310,292,320,313,2
307,287,320,311,2
304,283,315,308,2
302,279,310,306,2
303,278,306,305,2
305,280,304,303,2
306,285,303,303,2
308,290,302,304,2
308,298,301,305,2
307,308,301,306,2
306,318,301,307,2
305,326,301,309,2
304,332,301,310,2
304,336,303,312,2
304,339,304,313,2
305,341,304,314,2
305,342,304,313,2
304,341,303,311,2
304,336,303,309,2
304,329,303,308,2
305,320,304,308,2
305,313,304,308,2
305,306,304,309,2
306,300,305,308,2
306,296,305,306,2
307,295,305,305,2
308,299,305,305,2
309,306,305,304,2
308,313,304,304,2
307,317,303,305,2
306,319,302,305,2
306,318,302,306,2
305,315,302,306,2
304,311,302,307,2
303,308,302,307,2
303,305,300,308,2
302,303,298,308,2
302,301,296,309,2
302,298,296,309,2
302,297,295,308,2
302,296,296,308,2
303,294,297,307,2
303,292,299,307,2
304,293,302,309,2
305,295,303,309,2
305,300,302,310,2
305,306,301,310,2
305,314,300,309,2
304,321,300,309,2
305,328,300,309,2
305,336,301,309,2
306,342,301,309,2
305,344,302,309,2
305,343,302,309,2
305,338,302,310,2
304,330,302,310,2
305,319,303,310,2
305,307,304,309,2
305,299,304,307,2
304,294,304,306,2
304,296,305,305,2
304,301,306,305,2
304,306,306,305,2
304,310,306,305,2
303,312,306,304,2
303,309,307,305,2
304,304,307,305,2
305,297,307,305,2
306,289,307,305,2
306,282,305,305,2
306,276,303,305,2
305,273,301,305,2
305,274,300,305,2
304,279,300,304,2
304,286,299,304,2
303,295,299,302,2
303,302,298,301,2
303,308,298,300,2
303,313,299,299,2
302,317,300,299,2
301,319,301,300,2
300,319,302,302,2
298,317,304,305,2
297,313,306,308,2
297,311,307,311,2
298,311,309,312,2
300,314,310,312,2
302,316,310,311,2
303,316,310,309,2
304,313,308,307,2
306,306,308,306,2
308,297,308,305,2
310,288,309,305,2
313,281,310,305,2
314,276,312,305,2
314,277,312,305,2
312,286,312,305,2
311,299,312,305,2
309,311,311,305,2
307,320,309,305,2
307,326,308,306,2
307,329,306,307,2
308,330,303,307,2
307,329,300,307,2
306,328,297,307,2
306,327,296,307,2
306,327,297,308,2
307,326,297,309,2
309,325,298,311,2
309,323,300,312,2
309,320,302,313,2
309,317,302,313,2
308,312,302,312,2
307,306,303,311,2
307,300,303,311,2
307,294,303,311,2
308,288,301,310,2
307,284,300,311,2
307,283,300,310,2
306,285,300,310,2
305,289,300,309,2
304,295,302,309,2
303,301,303,308,2
303,307,304,308,2
304,314,304,308,2
305,318,304,308,2
306,320,304,307,2
306,320,303,307,2
307,320,304,306,2
307,321,304,305,2
308,321,304,305,2
309,319,304,306,2
310,315,305,307,2
311,308,306,307,2
310,300,306,307,2
308,292,304,307,2
306,286,303,307,2
305,280,304,306,2
305,274,306,305,2
305,271,309,304,2
306,272,311,304,2
306,276,312,303,2
305,284,312,302,2
303,294,310,302,2
302,305,308,302,2
301,315,306,303,2
299,322,305,304,2
299,328,303,305,2
300,330,303,306,2
301,329,303,306,2
303,327,304,304,2
303,323,306,302,2
305,318,309,300,2
306,313,312,300,2
307,309,314,301,2
308,306,316,304,2
308,304,316,306,2
308,301,315,307,2
307,300,314,308,2
305,301,313,308,2
303,303,313,307,2
302,308,312,306,2
302,317,312,306,2
301,325,311,306,2
301,326,309,307,2
300,321,307,306,2
300,313,305,306,2
301,303,304,305,2
303,293,303,303,2
305,285,302,301,2
308,280,302,298,2
308,279,303,296,2
308,284,303,294,2
308,293,304,294,2
307,302,304,295,2
307,309,305,297,2
308,314,307,299,2
309,318,309,301,2
309,322,310,303,2
309,324,309,304,2
308,325,308,305,2
307,326,306,306,2
306,327,304,307,2
306,329,304,309,2
306,330,305,311,2
307,326,308,312,2
307,316,311,313,2
306,301,313,314,2
305,286,315,314,2
304,273,315,315,2
304,266,315,315,2
305,263,315,316,2
306,264,315,316,2
306,267,315,317,2
306,271,314,317,2
305,278,313,317,2
306,288,312,316,2
307,303,311,315,2
307,317,309,313,2
308,328,307,312,2
308,334,307,312,2
307,335,306,313,2
305,333,306,314,2
301,329,306,314,2
299,325,306,316,2
297,319,306,317,2
297,313,305,318,2
298,306,304,318,2
300,303,305,317,2
302,302,307,318,2
303,303,309,317,2
305,304,312,315,2
305,306,313,313,2
305,309,313,311,2
304,310,311,309,2
304,311,310,308,2
304,310,309,308,2
305,308,308,308,2
306,303,308,307,2
306,298,309,307,2
308,293,310,307,2
309,292,312,307,2
310,292,312,306,2
311,294,313,306,2
312,298,311,305,2
312,304,310,304,2
311,308,309,304,2
310,307,309,304,2
308,305,310,304,2
308,303,311,304,2
307,301,311,304,2
306,299,311,303,2
306,297,311,303,2
305,297,311,303,2
305,299,311,303,2
305,303,312,303,2
305,308,312,303,2
305,311,312,304,2
304,311,312,304,2
304,308,311,304,2
303,307,311,303,2
303,308,311,302,2
304,312,311,301,2
305,316,311,300,2
306,320,311,299,2
306,325,309,299,2
306,327,306,300,2
304,329,303,301,2
304,328,301,303,2
304,326,302,305,2
305,322,304,307,2
307,318,307,309,2
308,314,309,310,2
309,308,311,310,2
310,299,313,310,2
311,290,315,310,2
311,280,318,310,2
312,271,319,310,2
312,264,320,310,2
311,259,319,309,2
310,259,317,308,2
309,264,315,309,2
308,269,313,309,2
308,273,311,309,2
309,276,310,310,2
311,279,311,311,2
314,284,310,310,2
316,293,309,310,2
318,303,307,310,2
319,311,306,309,2
318,315,307,308,2
316,315,306,308,2
312,313,305,308,2
308,310,303,307,2
305,307,303,307,2
304,306,303,305,2
302,307,303,304,2
301,308,303,302,2
302,310,303,301,2
303,311,303,301,2
305,312,303,301,2
305,315,305,302,2
305,319,306,303,2
303,320,308,304,2
301,322,309,305,2
300,322,310,305,2
298,321,312,305,2
298,315,313,305,2
299,306,313,305,2
302,296,312,305,2
306,287,311,306,2
310,279,312,308,2
313,274,313,310,2
315,273,313,311,2
316,274,313,311,2
314,280,311,310,2
312,291,308,309,2
310,304,306,308,2
309,315,304,307,2
307,321,302,306,2
305,324,302,306,2
305,323,303,305,2
304,321,304,305,2
305,319,306,304,2
305,317,308,303,2
305,318,308,303,2
306,322,309,304,2
306,328,309,306,2
306,331,308,307,2
306,332,308,308,2
305,331,307,308,2
304,330,306,308,2
304,326,305,306,2
304,318,306,305,2
304,306,307,303,2
305,297,308,303,2
305,292,309,302,2
304,292,309,302,2
304,295,309,301,2
304,299,310,302,2
305,304,311,303,2
307,309,313,304,2
309,313,313,305,2
310,315,314,307,2
311,316,315,308,2
312,316,316,309,2
312,312,316,310,2
312,305,316,309,2
312,297,314,308,2
312,289,311,307,2
312,281,309,306,2
313,273,307,306,2
313,268,306,306,2
312,267,305,306,2
311,270,304,305,2
310,276,302,305,2
309,285,301,306,2
307,297,299,306,2
306,309,297,306,2
305,320,296,306,2
304,328,295,307,2
303,334,296,307,2
301,336,298,306,2
300,335,301,306,2
299,332,304,307,2
299,328,305,306,2
300,323,306,305,2
300,321,305,304,2
299,317,304,303,2
299,313,302,302,2
298,310,301,301,2
298,308,301,302,2
298,306,302,304,2
299,306,303,307,2
300,306,305,309,2
302,306,306,312,2
304,307,307,313,2
305,308,308,314,2
306,308,309,314,2
307,307,310,314,2
308,305,311,314,2
308,302,313,313,2
308,298,312,311,2
307,294,311,310,2
307,292,310,310,2
308,291,309,309,2
308,293,309,309,2
308,295,309,309,2
308,298,310,308,2
308,299,311,308,2
308,302,312,307,2
309,306,313,307,2
309,310,313,308,2
309,315,312,308,2
308,316,310,309,2
307,314,308,309,2
306,313,306,309,2
305,316,304,309,2
303,319,301,308,2
301,318,298,309,2
301,315,297,309,2
302,312,300,310,2
303,309,302,311,2
304,307,304,311,2
304,307,305,312,2
304,309,306,311,2
303,315,306,311,2
302,321,306,312,2
302,328,307,314,2
301,334,308,316,2
302,339,310,318,2
303,341,312,319,2
304,342,313,320,2
305,337,312,318,2
305,327,310,316,2
306,314,306,313,2
306,298,303,310,2
306,283,300,308,2
307,272,299,307,2
308,267,299,307,2
310,265,299,308,2
311,267,299,309,2
311,273,298,310,2
310,283,298,311,2
308,291,298,312,2
307,296,299,314,2
306,300,301,316,2
306,303,303,317,2
305,305,306,318,2
304,305,309,318,2
304,302,311,318,2
304,296,312,317,2
304,289,312,316,2
304,282,312,315,2
305,275,313,313,2
306,272,313,313,2
306,275,312,312,2
306,282,311,311,2
305,291,309,310,2
306,298,309,309,2
307,303,310,308,2
309,305,312,307,2
311,307,314,308,2
312,309,316,308,2
312,313,316,309,2
310,316,314,310,2
309,319,311,311,2
309,322,307,313,2
309,324,304,315,2
309,325,303,316,2
309,326,304,316,2
308,327,304,315,2
306,327,304,314,2
303,326,303,313,2
300,324,301,310,2
300,322,300,308,2
301,320,299,306,2
303,318,298,304,2
305,318,297,304,2
306,317,298,304,2
307,316,300,305,2
308,313,303,307,2
308,310,307,309,2
309,305,310,311,2
309,299,313,312,2
310,293,315,313,2
310,292,317,313,2
312,295,317,314,2
313,299,316,314,2
314,302,314,313,2
315,303,311,312,2
316,303,308,309,2
316,302,306,306,2
314,300,305,303,2
311,296,304,300,2
307,291,304,299,2
303,287,303,298,2
301,284,304,299,2
300,281,304,299,2
301,280,304,298,2
302,283,304,298,2
304,293,304,297,2
306,307,303,296,2
307,321,302,296,2
308,330,302,296,2
307,335,301,295,2
305,334,302,296,2
302,333,302,297,2
300,329,305,299,2
298,322,308,301,2
299,315,312,302,2
300,309,314,302,2
303,305,316,303,2
304,304,316,303,2
305,304,315,303,2
305,305,314,304,2
306,305,313,305,2
306,304,311,307,2
306,302,309,308,2
305,298,308,308,2
304,294,308,308,2
304,288,309,309,2
303,283,311,309,2
304,277,313,309,2
305,272,314,309,2
306,273,314,309,2
307,281,315,309,2
307,296,313,310,2
306,312,310,310,2
305,327,308,310,2
305,336,307,309,2
305,342,308,308,2
306,344,310,308,2
307,343,311,308,2
307,338,311,308,2
307,331,310,307,2
306,323,308,307,2
307,315,308,307,2
308,310,309,308,2
311,308,311,310,2
313,308,312,310,2
313,312,312,310,2
312,315,310,309,2
309,318,309,309,2
307,320,307,309,2
306,320,306,309,2
304,319,304,309,2
303,318,304,308,2
304,317,304,308,2
305,315,304,308,2
306,314,304,309,2
306,314,304,311,2
305,313,304,311,2
305,309,304,311,2
305,305,305,311,2
305,303,306,310,2
305,303,308,309,2
306,301,310,309,2
306,296,310,309,2
307,289,311,309,2
307,283,310,309,2
307,280,308,310,2
307,279,306,310,2
307,280,306,310,2
307,282,305,309,2
308,286,305,308,2
308,292,305,307,2
307,298,306,306,2
306,303,306,306,2
305,308,305,306,2
305,310,305,306,2
305,309,305,306,2
305,306,304,305,2
306,301,303,305,2
306,295,301,305,2
306,291,300,305,2
306,288,299,305,2
306,288,300,306,2
306,291,301,306,2
305,293,304,306,2
306,296,305,305,2
305,297,306,304,2
305,297,307,304,2
306,294,307,304,2
306,290,307,304,2
307,287,308,303,2
307,289,308,303,2
307,294,308,303,2
306,300,309,302,2
305,306,307,302,2
305,310,305,301,2
305,313,303,300,2
304,314,303,299,2
303,315,303,300,2
303,316,304,301,2
302,316,304,301,2
302,316,305,302,2
302,315,306,303,2
302,314,306,304,2
302,313,307,305,2
302,312,307,305,2
302,312,308,306,2
303,315,309,307,2
304,321,311,307,2
305,328,313,308,2
306,331,314,310,2
307,332,314,312,2
308,330,313,314,2
309,327,312,315,2
310,324,311,315,2
311,321,310,314,2
310,319,310,312,2
308,315,311,311,2
305,310,312,310,2
303,304,314,310,2
301,299,315,311,2
299,295,315,312,2
298,294,314,312,2
298,295,313,310,2
297,298,312,308,2
297,305,310,306,2
298,314,309,305,2
299,320,307,304,2
298,321,304,303,2
298,316,301,302,2
298,309,299,301,2
299,302,297,300,2
300,298,297,300,2
301,295,299,301,2
300,295,301,301,2
298,296,303,303,2
298,298,304,305,2
300,300,305,308,2
302,301,307,311,2
304,300,307,313,2
304,298,307,314,2
304,296,306,313,2
304,294,307,313,2
305,291,308,313,2
306,287,311,314,2
306,281,313,316,2
307,277,313,318,2
307,276,313,319,2
308,277,311,319,2
307,282,309,317,2
307,291,307,315,2
306,302,306,314,2
306,311,305,313,2
305,316,306,312,2
305,316,306,312,2
304,312,305,311,2
304,306,305,312,2
304,302,305,312,2
304,302,305,312,2
304,304,306,312,2
303,307,306,312,2
302,310,307,312,2
302,311,308,312,2
303,310,308,312,2
304,307,308,311,2
304,306,307,310,2
303,305,306,309,2
303,306,306,309,2
302,308,305,309,2
302,310,304,309,2
303,314,303,308,2
303,319,302,309,2
304,325,302,309,2
306,328,302,310,2
307,326,304,311,2
308,321,306,311,2
309,315,308,310,2
309,309,309,308,2
309,305,308,307,2
307,304,307,305,2
305,302,306,304,2
304,298,307,304,2
302,294,308,304,2
302,288,309,304,2
302,283,310,306,2
302,279,310,307,2
303,280,309,307,2
304,287,307,307,2
304,296,305,305,2
304,304,304,305,2
305,310,303,305,2
306,312,303,305,2
306,309,303,305,2
307,304,303,304,2
307,301,302,303,2
307,302,302,303,2
307,305,303,303,2
306,311,304,303,2
306,317,304,303,2
304,322,303,303,2
303,326,301,302,2
302,325,299,302,2
301,322,298,301,2
301,317,298,302,2
301,312,298,303,2
301,309,300,305,2
301,307,302,306,2
302,309,304,307,2
302,312,306,309,2
302,316,307,311,2
303,316,308,313,2
302,313,308,315,2
303,308,309,315,2
304,301,309,315,2
305,296,310,313,2
306,293,311,311,2
308,295,312,310,2
310,301,313,310,2
310,309,312,309,2
310,315,310,309,2
309,319,307,308,2
307,322,305,307,2
306,322,303,307,2
304,320,303,307,2
304,314,303,307,2
304,303,303,306,2
306,290,303,305,2
308,277,304,305,2
311,267,306,304,2
314,263,308,304,2
318,269,309,304,2
320,285,309,304,2
320,301,309,303,2
318,313,308,303,2
314,319,307,304,2
308,319,306,305,2
304,316,304,307,2
300,312,303,309,2
298,311,303,310,2
297,311,304,310,2
298,313,306,311,2
300,316,307,311,2
301,318,306,310,2
302,320,305,309,2
301,322,303,307,2
299,326,302,306,2
297,330,301,306,2
295,334,301,306,2
295,333,300,308,2
297,328,298,308,2
298,323,296,307,2
299,321,294,305,2
300,318,293,304,2
300,314,294,302,2
299,308,296,301,2
298,302,299,301,2
299,300,301,303,2
301,300,304,306,2
304,305,307,307,2
306,314,310,309,2
308,321,313,311,2
308,325,314,311,2
308,324,314,312,2
307,319,313,311,2
307,308,310,311,2
307,292,308,310,2
307,275,307,307,2
307,261,306,305,2
307,249,306,303,2
308,239,307,304,2
309,235,308,305,2
311,238,309,306,2
312,250,309,308,2
312,269,308,310,2
310,293,307,311,2
308,314,306,310,2
306,327,305,310,2
306,331,306,309,2
306,329,306,308,2
307,320,305,308,2
308,306,303,308,2
309,291,302,308,2
310,283,300,308,2
309,284,299,308,2
309,287,298,307,2
308,286,298,307,2
307,277,300,306,2
306,269,302,305,2
306,262,305,305,2
307,257,307,305,2
308,253,309,307,2
308,254,310,309,2
309,263,311,311,2
309,278,311,313,2
309,288,312,315,2
310,291,314,316,2
311,289,314,317,2
311,285,314,316,2
310,278,312,313,2
307,275,309,310,2
304,280,305,308,2
302,294,302,307,2
300,311,300,306,2
299,327,299,306,2
298,340,298,307,2
298,348,297,308,2
299,348,297,309,2
300,342,298,309,2
302,338,299,309,2
304,339,299,309,2
306,347,300,310,2
307,356,300,311,2
307,365,301,312,2
306,369,301,311,2
305,368,301,309,2
303,360,301,307,2
301,350,301,306,2
301,339,301,306,2
302,327,302,306,2
304,312,304,305,2
306,295,305,305,2
309,277,306,305,2
312,263,307,303,2
312,253,307,302,2
311,252,306,300,2
310,257,305,300,2
308,266,304,300,2
308,271,303,301,2
307,275,302,303,2
308,279,302,306,2
308,283,303,308,2
308,291,304,310,2
307,303,305,311,2
307,316,305,312,2
308,324,306,313,2
308,321,307,313,2
310,307,308,312,2
312,290,309,310,2
314,274,310,308,2
316,262,311,307,2
318,257,312,308,2
319,264,311,309,2
319,281,307,311,2
317,296,303,311,2
314,305,299,310,2
313,307,297,310,2
312,305,295,310,2
313,303,295,310,2
313,304,297,310,2
312,308,298,311,2
310,314,300,311,2
308,320,301,312,2
305,327,301,312,2
303,331,300,311,2
301,335,300,311,2
300,339,300,311,2
298,343,302,310,2
297,348,304,310,2
297,352,305,309,2
297,355,304,308,2
298,356,300,308,2
299,356,297,308,2
300,353,293,307,2
301,349,291,307,2
301,343,291,308,2
302,334,293,309,2
303,323,297,310,2
304,313,302,311,2
305,305,306,312,2
308,300,310,312,2
309,298,312,312,2
309,300,313,310,2
307,303,313,310,2
303,304,311,310,2
299,303,309,310,2
296,299,307,310,2
295,293,306,310,2
296,288,304,311,2
298,285,303,310,2
299,286,304,310,2
301,292,305,311,2
304,302,306,313,2
305,312,308,313,2
307,319,309,314,2
307,322,311,314,2
307,322,312,313,2
306,319,314,312,2
306,314,314,311,2
306,310,315,312,2
307,305,315,312,2
307,299,316,313,2
307,293,316,314,2
306,290,315,315,2
306,291,313,316,2
306,295,312,317,2
306,299,312,316,2
306,303,311,314,2
306,306,310,313,2
305,308,309,311,2
305,307,309,310,2
306,305,309,309,2
308,301,310,309,2
309,295,310,309,2
310,290,309,308,2
310,286,308,308,2
310,284,307,308,2
308,285,305,308,2
306,288,304,308,2
304,294,304,309,2
304,303,304,311,2
303,312,304,312,2
304,318,305,313,2
304,319,305,313,2
304,317,305,314,2
304,317,307,314,2
303,318,310,314,2
303,322,313,314,2
304,327,318,314,2
305,332,321,314,2
305,337,321,313,2
304,339,320,313,2
303,341,317,313,2
303,342,315,313,2
304,341,314,314,2
305,339,313,315,2
306,336,314,316,2
307,330,313,317,2
307,321,312,316,2
307,308,310,316,2
307,293,309,315,2
307,280,309,314,2
308,270,309,312,2
309,264,311,311,2
310,266,312,310,2
310,279,312,310,2
309,297,311,311,2
308,315,309,311,2
306,327,308,311,2
305,327,306,310,2
305,320,304,308,2
304,309,302,307,2
304,297,300,306,2
304,285,299,305,2
304,274,300,305,2
305,270,303,306,2
305,273,305,306,2
305,283,308,308,2
306,291,310,309,2
307,297,311,311,2
307,299,311,313,2
308,298,310,315,2
307,297,310,316,2
306,297,309,318,2
305,298,308,319,2
305,300,306,320,2
305,303,305,320,2
305,306,304,320,2
304,309,304,319,2
305,310,305,318,2
307,308,308,317,2
309,303,310,316,2
311,299,311,314,2
311,297,312,313,2
311,298,312,312,2
309,303,311,311,2
308,310,309,310,2
305,320,308,310,2
303,330,306,310,2
301,338,305,311,2
301,341,304,312,2
301,339,303,314,2
301,332,302,316,2
302,321,302,317,2
303,308,301,317,2
305,295,301,317,2
306,282,299,316,2
307,270,297,315,2
306,265,295,313,2
305,265,294,312,2
304,271,293,311,2
303,281,295,310,2
302,295,297,309,2
301,309,300,308,2
301,322,303,308,2
301,329,307,307,2
302,334,310,307,2
303,335,312,307,2
304,335,313,308,2
305,334,312,308,2
304,328,310,308,2
303,320,306,307,2
302,312,304,307,2
301,306,302,307,2
301,299,300,306,2
301,292,299,306,2
302,282,299,307,2
304,271,300,309,2
307,259,301,313,2
309,253,302,316,2
311,259,303,320,2
312,275,302,321,2
311,295,300,321,2
307,311,297,320,2
304,321,295,316,2
303,327,296,313,2
304,331,298,311,2
308,332,302,310,2
311,330,307,311,2
313,328,311,313,2
312,327,314,315,2
310,327,316,317,2
307,326,316,318,2
305,326,314,319,2
303,325,312,319,2
303,323,311,318,2
303,317,309,318,2
303,308,308,317,2
305,298,307,316,2
306,288,307,315,2
308,281,306,313,2
308,278,305,313,2
307,282,303,312,2
306,293,301,313,2
305,306,300,313,2
303,318,298,312,2
299,325,296,310,2
295,328,295,308,2
293,327,294,306,2
295,325,294,305,2
299,323,295,303,2
303,322,296,302,2
306,322,297,301,2
307,322,298,301,2
307,320,299,301,2
307,316,301,302,2
307,311,304,305,2
308,306,306,308,2
309,302,307,311,2
309,301,307,313,2
309,300,308,313,2
309,299,308,312,2
309,295,308,312,2
310,290,308,310,2
309,283,308,309,2
308,278,306,309,2
307,276,305,309,2
307,280,303,309,2
307,289,303,311,2
307,302,304,312,2
307,314,305,313,2
306,323,306,314,2
306,328,307,314,2
305,332,308,313,2
304,335,308,312,2
304,337,308,311,2
303,336,308,309,2
303,331,308,308,2
302,322,308,307,2
302,314,307,307,2
302,308,307,306,2
302,307,306,305,2
303,311,306,304,2
302,320,305,303,2
302,329,305,304,2
302,334,306,305,2
303,332,307,308,2
304,323,309,310,2
305,308,310,311,2
306,294,310,313,2
307,283,310,313,2
308,280,308,313,2
307,285,307,314,2
306,296,307,315,2
305,304,308,314,2
303,307,309,313,2
302,309,309,312,2
301,313,310,313,2
301,320,309,313,2
301,328,307,312,2
301,336,305,312,2
301,338,303,311,2
301,335,301,310,2
300,330,299,310,2
300,326,299,311,2
299,321,300,311,2
299,317,301,311,2
299,314,302,310,2
299,310,303,310,2
299,306,303,309,2
298,303,303,309,2
297,298,303,310,2
297,294,303,311,2
297,290,304,312,2
298,285,306,313,2
300,281,309,315,2
303,279,312,316,2
306,278,313,317,2
309,281,315,316,2
310,286,314,313,2
311,294,312,310,2
310,304,308,307,2
308,315,305,304,2
306,327,302,302,2
303,335,298,302,2
300,339,296,301,2
298,338,294,302,2
297,335,295,304,2
297,330,296,306,2
299,322,298,308,2
300,315,299,309,2
302,308,300,311,2
303,301,301,312,2
305,294,302,313,2
305,289,303,313,2
307,286,305,314,2
308,288,307,314,2
309,292,308,314,2
310,297,308,313,2
312,304,308,311,2
314,310,307,310,2
316,314,308,309,2
317,315,308,308,2
316,313,309,307,2
314,313,309,306,2
310,312,307,305,2
308,311,305,304,2
306,312,304,304,2
306,315,302,303,2
306,319,301,303,2
306,325,300,303,2
306,334,298,303,2
305,342,297,305,2
304,345,297,307,2
303,339,299,310,2
302,327,303,313,2
300,314,307,314,2
299,303,311,315,2
299,299,313,314,2
299,300,315,313,2
298,306,315,312,2
297,315,313,311,2
296,325,311,309,2
296,333,307,308,2
297,338,305,306,2
298,341,303,305,2
300,338,302,304,2
301,331,302,303,2
302,324,301,302,2
303,319,302,302,2
304,314,302,302,2
305,309,302,302,2
306,305,303,302,2
306,300,303,303,2
307,297,304,304,2
308,295,304,304,2
309,295,305,304,2
309,296,305,303,2
308,299,305,303,2
308,301,304,303,2
307,302,303,303,2
306,303,302,303,2
305,303,302,302,2
305,302,302,301,2
305,298,303,299,2
305,291,304,298,2
306,283,305,297,2
307,273,306,298,2
308,266,307,299,2
309,263,308,300,2
308,265,307,300,2
308,271,307,300,2
308,278,307,299,2
309,282,307,299,2
310,282,308,299,2
310,278,309,300,2
311,275,310,300,2
312,276,309,300,2
309,282,306,300,2
306,293,303,300,2
302,307,301,301,2
300,322,299,303,2
299,335,298,304,2
299,345,298,305,2
299,352,298,305,2
301,353,300,305,2
303,350,302,305,2
305,344,305,304,2
307,337,308,305,2
308,331,311,305,2
308,328,311,305,2
308,325,311,305,2
308,320,310,304,2
307,314,308,304,2
307,309,307,304,2
307,305,307,305,2
308,303,308,306,2
308,303,309,308,2
308,304,308,308,2
308,303,307,308,2
308,302,307,308,2
308,301,307,308,2
308,303,306,308,2
307,304,305,309,2
307,304,304,308,2
306,303,303,307,2
305,304,301,307,2
305,305,300,306,2
306,306,299,305,2
305,305,299,305,2
306,304,300,305,2
307,304,303,305,2
308,304,304,304,2
309,304,306,304,2
310,304,307,303,2
309,300,307,302,2
309,290,307,301,2
309,276,307,302,2
310,260,308,304,2
312,244,310,306,2
314,233,312,308,2
315,231,313,309,2
315,241,313,310,2
315,259,312,310,2
314,278,312,309,2
314,293,312,307,2
314,302,311,305,2
314,304,312,305,2
316,303,314,305,2
317,301,314,306,2
318,305,313,308,2
317,315,310,309,2
314,328,306,310,2
309,339,302,311,2
303,345,300,312,2
300,346,298,312,2
298,345,298,312,2
298,341,298,313,2
299,335,299,313,2
301,330,299,314,2
304,325,301,313,2
306,322,303,312,2
308,321,306,311,2
308,322,309,310,2
307,323,310,310,2
305,325,310,309,2
302,324,309,307,2
299,322,307,306,2
297,317,304,305,2
297,310,301,305,2
297,304,298,305,2
299,297,297,306,2
300,291,297,306,2
301,283,299,308,2
301,275,301,308,2
300,265,303,309,2
300,254,304,309,2
300,241,304,306,2
302,231,304,304,2
304,227,304,301,2
308,232,305,300,2
312,243,306,300,2
315,258,307,301,2
315,277,307,301,2
314,292,307,302,2
313,299,306,304,2
313,302,306,305,2
313,301,306,307,2
313,296,305,308,2
313,292,304,309,2
314,288,303,309,2
314,288,303,309,2
315,290,304,309,2
314,300,306,308,2
313,316,306,308,2
311,335,307,309,2
308,355,306,310,2
307,369,303,311,2
305,375,301,312,2
304,372,299,313,2
304,366,299,313,2
305,358,298,314,2
306,350,298,314,2
307,342,298,314,2
308,332,300,314,2
309,320,302,314,2
310,305,304,314,2
310,289,305,313,2
308,274,305,313,2
307,262,303,312,2
307,256,301,312,2
308,259,298,311,2
308,272,297,309,2
307,290,295,307,2
307,308,294,306,2
307,321,296,305,2
307,328,298,304,2
307,330,300,303,2
308,328,302,303,2
308,321,304,303,2
309,311,306,304,2
309,301,308,304,2
309,292,308,304,2
310,285,308,305,2
311,281,309,306,2
311,281,308,306,2
310,282,308,306,2
309,288,307,306,2
309,295,306,306,2
309,301,306,307,2
310,307,306,307,2
313,312,306,307,2
315,312,306,308,2
318,307,306,307,2
320,303,305,307,2
320,300,304,306,2
318,300,302,306,2
313,304,301,304,2
308,311,301,304,2
304,319,301,304,2
301,328,301,306,2
299,334,302,308,2
298,337,304,309,2
298,337,305,310,2
299,335,306,308,2
302,331,308,306,2
304,326,308,304,2
305,320,307,304,2
307,313,305,306,2
309,306,303,309,2
310,300,303,311,2
311,297,304,313,2
310,299,305,314,2
309,304,306,314,2
309,311,307,313,2
308,319,305,312,2
308,326,303,312,2
307,329,302,311,2
307,328,301,311,2
307,322,301,311,2
307,311,302,311,2
308,297,304,311,2
307,283,306,312,2
305,272,308,313,2
304,268,310,314,2
303,271,312,314,2
303,280,312,314,2
302,290,311,314,2
302,298,310,313,2
303,301,309,314,2
304,299,308,313,2
306,294,308,314,2
308,290,309,313,2
310,289,310,313,2
311,292,312,311,2
312,298,313,310,2
312,305,312,308,2
311,312,309,306,2
310,316,305,304,2
309,320,301,303,2
309,322,300,301,2
309,320,300,300,2
309,314,300,299,2
310,310,302,300,2
312,308,304,301,2
312,306,307,302,2
312,304,309,304,2
310,302,310,304,2
308,305,310,304,2
306,310,310,304,2
304,314,309,304,2
303,314,308,305,2
302,308,307,307,2
304,299,306,310,2
306,289,305,313,2
308,283,304,315,2
309,283,303,317,2
310,288,302,318,2
309,294,302,318,2
307,301,301,316,2
307,307,301,315,2
307,313,302,312,2
308,319,304,310,2
309,322,306,309,2
311,324,308,309,2
312,327,308,310,2
314,330,308,311,2
315,332,308,312,2
314,333,307,313,2
314,331,306,313,2
312,327,306,313,2
311,321,305,312,2
312,314,306,312,2
313,309,307,312,2
314,306,308,312,2
313,305,308,311,2
313,306,308,311,2
313,308,308,310,2
312,312,307,308,2
310,315,307,305,2
309,315,307,304,2
309,315,307,303,2
309,316,307,303,2
310,317,308,303,2
309,319,308,303,2
308,319,307,303,2
307,319,307,303,2
306,318,306,303,2
306,317,307,304,2
307,316,307,305,2
308,314,307,305,2
308,312,306,306,2
308,308,306,307,2
308,305,305,308,2
307,302,304,309,2
307,299,303,310,2
306,297,303,310,2
307,294,304,310,2
308,291,304,311,2
309,290,305,310,2
310,294,305,309,2
310,302,304,308,2
310,309,303,306,2
310,313,302,305,2
309,315,303,304,2
309,313,303,303,2
308,306,304,303,2
308,297,306,303,2
309,287,308,304,2
309,281,309,304,2
309,278,308,306,2
309,280,306,307,2
310,286,303,308,2
310,296,301,309,2
309,310,299,310,2
307,325,298,310,2
304,338,297,310,2
302,346,298,309,2
300,348,298,308,2
300,346,301,307,2
302,342,305,307,2
306,338,310,308,2
310,334,313,308,2
315,329,316,310,2
318,324,318,309,2
319,320,318,309,2
317,317,319,308,2
313,313,318,307,2
310,308,317,306,2
307,301,315,305,2
305,294,314,305,2
304,287,314,305,2
304,279,315,304,2
304,273,315,303,2
305,272,314,303,2
305,278,314,304,2
306,289,313,307,2
306,303,311,309,2
306,318,309,309,2
306,329,308,310,2
304,334,307,309,2
303,332,306,309,2
301,327,305,309,2
300,321,305,308,2
299,317,306,307,2
299,314,306,305,2
300,314,307,304,2
301,316,308,303,2
303,319,309,304,2
305,320,310,305,2
307,315,310,306,2
309,307,310,307,2
311,294,309,307,2
311,280,306,306,2
308,263,304,305,2
305,248,304,303,2
304,236,305,303,2
304,232,306,303,2
305,233,307,303,2
305,240,308,304,2
305,255,308,303,2
304,278,308,302,2
304,307,307,302,2
303,334,305,302,2
302,351,305,302,2
301,360,304,303,2
301,362,304,304,2
303,361,306,306,2
305,359,308,307,2
306,356,309,307,2
308,352,309,308,2
308,346,309,309,2
308,340,308,308,2
307,335,307,307,2
306,331,306,306,2
306,327,306,306,2
306,324,306,306,2
306,321,306,307,2
306,319,306,308,2
306,316,306,309,2
306,311,305,309,2
305,305,304,309,2
304,300,305,308,2
302,299,307,308,2
301,299,310,308,2
300,302,313,308,2
299,304,315,308,2
299,305,316,306,2
300,305,317,305,2
301,305,317,304,2
303,306,317,303,2
305,307,318,303,2
307,310,318,302,2
308,313,317,302,2
311,314,316,300,2
312,312,316,299,2
313,308,315,298,2
312,304,313,297,2
310,301,311,297,2
308,301,308,298,2
306,304,306,301,2
304,310,304,303,2
303,315,304,305,2
301,319,304,305,2
301,321,304,306,2
301,324,305,307,2
301,328,305,307,2
302,330,305,307,2
304,331,305,308,2
306,328,305,308,2
307,323,305,309,2
309,321,305,309,2
311,320,304,310,2
311,320,303,310,2
310,319,303,310,2
309,319,303,310,2
308,319,304,309,2
306,322,304,309,2
304,325,302,308,2
302,323,301,308,2
301,317,301,308,2
300,308,300,307,2
299,298,299,304,2
298,293,297,301,2
298,292,297,299,2
299,296,298,298,2
301,304,302,299,2
303,313,307,301,2
305,317,311,304,2
308,313,313,305,2
311,302,314,307,2
314,287,314,308,2
317,273,314,310,2
318,263,315,311,2
317,258,315,312,2
314,259,315,314,2
311,265,315,315,2
308,273,314,317,2
306,282,312,319,2
305,292,312,320,2
305,302,312,320,2
305,309,312,320,2
306,313,312,320,2
305,316,311,320,2
304,321,310,319,2
303,329,310,318,2
302,337,311,318,2
302,345,311,318,2
302,350,311,318,2
302,351,311,317,2
301,350,311,316,2
301,343,310,315,2
302,335,310,314,2
303,326,310,314,2
304,313,311,314,2
305,298,311,314,2
305,284,311,315,2
306,276,312,315,2
306,273,313,315,2
308,275,314,315,2
308,280,315,315,2
307,287,316,314,2
305,294,316,312,2
303,301,314,310,2
302,308,310,309,2
301,314,306,309,2
302,317,304,309,2
303,320,304,311,2
304,320,304,312,2
304,319,305,313,2
302,314,304,313,2
301,308,304,314,2
301,304,305,314,2
302,302,306,313,2
303,302,306,313,2
305,305,306,312,2
307,310,306,312,2
308,315,305,312,2
309,317,305,312,2
309,311,305,311,2
310,300,307,310,2
311,289,309,310,2
311,284,311,310,2
311,285,312,310,2
311,291,313,310,2
310,301,312,310,2
308,310,311,310,2
305,316,308,310,2
303,317,306,310,2
302,317,303,309,2
301,316,301,308,2
302,314,300,308,2
304,310,299,307,2
307,305,300,307,2
309,302,301,306,2
310,301,302,306,2
312,304,303,305,2
311,309,303,305,2
310,316,303,305,2
309,321,302,306,2
308,324,302,307,2
307,325,302,309,2
306,324,303,312,2
306,322,303,315,2
305,320,305,316,2
306,318,306,316,2
306,317,307,316,2
307,315,308,316,2
308,312,308,315,2
309,308,309,315,2
310,306,310,316,2
310,305,310,316,2
310,304,309,315,2
310,301,308,314,2
311,297,306,313,2
311,293,306,312,2
310,290,304,311,2
310,287,304,311,2
310,287,304,309,2
310,291,304,308,2
310,298,305,308,2
310,305,306,308,2
309,307,306,308,2
308,305,307,309,2
307,300,307,312,2
307,295,308,315,2
308,291,308,317,2
309,292,309,319,2
309,298,309,318,2
309,305,308,316,2
309,310,307,315,2
309,310,306,313,2
310,302,306,313,2
311,290,306,312,2
311,275,306,312,2
312,261,308,312,2
313,251,309,312,2
314,249,310,311,2
314,255,312,310,2
314,266,314,309,2
314,279,315,308,2
314,291,315,306,2
312,304,312,305,2
309,320,307,304,2
304,333,304,304,2
300,343,302,305,2
296,349,302,307,2
295,353,303,308,2
294,356,305,310,2
294,358,307,311,2
295,355,308,310,2
296,347,308,309,2
298,337,306,307,2
300,329,305,306,2
302,322,303,305,2
304,318,303,305,2
304,316,302,305,2
302,317,302,306,2
299,320,302,306,2
297,323,304,307,2
297,326,306,309,2
297,327,307,311,2
298,326,308,312,2
299,324,307,312,2
300,320,307,312,2
301,316,307,312,2
302,313,306,312,2
303,311,306,313,2
305,309,306,312,2
306,308,306,313,2
306,306,305,312,2
305,302,305,311,2
305,299,305,311,2
305,295,305,310,2
306,291,305,310,2
307,288,304,309,2
307,286,303,308,2
307,283,302,305,2
306,280,301,302,2
305,276,300,299,2
304,273,299,297,2
304,270,298,295,2
304,266,298,295,2
305,263,298,295,2
305,263,299,296,2
305,268,299,298,2
303,275,299,299,2
301,283,297,299,2
298,292,296,301,2
296,303,296,303,2
296,314,297,305,2
295,322,300,307,2
296,327,303,309,2
297,329,307,312,2
300,327,310,313,2
302,321,311,312,2
306,314,313,310,2
311,305,314,309,2
314,297,315,307,2
315,289,315,306,2
316,284,315,306,2
315,284,315,306,2
313,289,314,307,2
311,299,311,309,2
309,311,309,311,2
306,322,308,312,2
305,329,308,312,2
305,333,308,313,2
305,332,309,314,2
306,329,311,315,2
307,322,312,315,2
308,313,312,315,2
310,305,311,315,2
311,300,309,315,2
312,299,308,314,2
312,301,306,314,2
311,304,304,314,2
310,307,303,314,2
309,308,303,314,2
308,310,304,314,2
308,313,306,314,2
308,319,307,315,2
308,324,308,317,2
308,324,309,317,2
307,321,309,317,2
307,317,309,315,2
306,313,309,312,2
305,308,310,311,2
306,300,311,310,2
306,290,313,309,2
307,280,314,308,2
308,272,314,308,2
309,270,312,309,2
309,274,310,309,2
309,283,307,310,2
307,295,305,309,2
306,307,304,308,2
305,316,303,307,2
305,319,302,306,2
304,318,302,305,2
304,314,301,306,2
304,312,301,307,2
304,312,300,308,2
304,315,300,310,2
303,319,300,311,2
302,321,301,312,2
301,322,301,312,2
301,321,301,313,2
301,318,302,313,2
302,315,303,313,2
303,311,304,312,2
303,306,304,312,2
304,300,304,310,2
304,293,304,310,2
305,286,305,310,2
305,279,305,310,2
308,273,306,311,2
310,271,307,312,2
312,271,307,313,2
312,276,306,312,2
311,285,305,312,2
309,297,303,311,2
306,309,301,311,2
303,320,300,310,2
300,332,301,311,2
296,344,304,311,2
293,352,307,312,2
290,353,310,314,2
290,349,311,314,2
290,344,312,314,2
291,340,312,313,2
292,335,312,313,2
294,332,311,312,2
295,329,310,311,2
297,327,310,310,2
299,326,309,310,2
301,322,308,309,2
303,316,307,310,2
304,307,306,310,2
304,297,305,309,2
304,287,305,309,2
304,280,306,308,2
304,278,308,307,2
303,282,309,306,2
303,291,311,305,2
302,303,311,305,2
301,313,310,304,2
301,321,309,304,2
301,326,309,304,2
300,328,309,303,2
300,325,310,304,2
299,322,310,305,2
299,318,309,306,2
300,315,310,307,2
301,313,309,308,2
303,311,309,308,2
306,306,308,309,2
308,300,309,310,2
310,293,309,310,2
311,287,311,309,2
310,284,312,309,2
309,286,313,309,2
305,290,311,309,2
300,294,308,309,2
297,300,303,309,2
297,307,300,310,2
298,313,301,310,2
301,316,304,309,2
304,314,307,308,2
305,310,310,308,2
307,303,313,308,2
308,294,314,309,2
309,285,313,311,2
309,275,312,311,2
310,267,312,311,2
311,262,312,310,2
312,259,311,310,2
312,259,309,308,2
312,261,308,308,2
311,268,307,307,2
310,278,306,306,2
309,289,306,304,2
307,299,305,303,2
305,308,306,304,2
305,316,307,305,2
305,319,309,306,2
305,317,311,308,2
305,311,311,310,2
305,302,311,312,2
304,293,311,313,2
304,289,310,313,2
303,291,310,312,2
303,297,309,311,2
302,308,308,310,2
301,320,306,310,2
300,330,305,310,2
300,337,303,311,2
300,341,301,311,2
300,341,300,311,2
302,338,299,310,2
303,333,299,309,2
305,327,301,309,2
306,320,304,309,2
307,315,307,310,2
308,310,310,310,2
307,307,312,311,2
306,305,312,311,2
305,305,311,310,2
305,306,310,310,2
305,308,309,310,2
306,310,308,309,2
306,312,306,308,2
307,315,305,308,2
307,319,303,307,2
308,322,301,306,2
308,321,299,304,2
307,316,297,302,2
307,311,296,300,2
307,306,295,298,2
308,303,295,297,2
311,303,296,297,2
313,304,297,296,2
315,306,299,297,2
316,308,301,298,2
315,308,302,299,2
311,308,302,300,2
307,309,301,300,2
303,310,300,300,2
300,311,300,301,2
297,311,301,300,2
296,310,302,299,2
295,307,304,299,2
296,304,306,299,2
297,301,309,299,2
300,295,311,300,2
302,289,312,302,2
303,283,312,303,2
304,280,311,305,2
305,281,309,309,2
306,285,309,312,2
307,289,308,315,2
307,295,307,316,2
308,298,306,315,2
308,299,304,312,2
309,295,302,310,2
309,288,302,307,2
310,280,301,305,2
310,273,301,304,2
309,271,301,303,2
307,275,300,302,2
305,286,300,302,2
302,301,300,301,2
299,315,301,300,2
297,325,302,300,2
296,330,304,300,2
296,331,305,300,2
296,329,305,299,2
296,328,305,299,2
298,326,304,300,2
300,325,304,302,2
303,323,304,303,2
304,322,305,305,2
306,319,307,306,2
307,316,309,308,2
307,315,311,310,2
308,315,312,312,2
309,314,313,313,2
311,309,313,313,2
313,301,312,313,2
314,291,311,312,2
313,282,309,310,2
312,275,308,308,2
312,270,308,306,2
312,270,307,304,2
311,275,308,304,2
312,283,308,304,2
311,293,307,305,2
310,302,305,305,2
309,307,303,305,2
309,309,301,304,2
309,308,299,304,2
309,307,298,303,2
309,308,298,304,2
309,311,301,304,2
308,316,304,305,2
308,321,307,305,2
307,324,308,305,2
306,325,308,304,2
305,326,306,304,2
305,325,304,303,2
305,323,304,303,2
305,322,304,303,2
305,319,303,304,2
304,317,301,304,2
304,313,299,305,2
305,309,298,305,2
307,304,299,306,2
307,298,301,306,2
308,289,303,306,2
309,281,305,307,2
310,276,306,307,2
310,273,306,308,2
310,273,306,308,2
309,278,307,308,2
309,287,308,309,2
308,301,309,309,2
307,316,309,309,2
305,327,308,308,2
304,332,306,306,2
303,334,306,305,2
303,334,306,303,2
304,333,308,302,2
304,331,309,302,2
304,328,310,301,2
303,325,309,300,2
303,321,307,298,2
302,317,304,297,2
302,313,302,297,2
303,308,301,298,2
303,303,300,298,2
303,300,300,299,2
303,298,300,299,2
303,299,300,298,2
303,303,300,297,2
302,307,301,297,2
303,311,303,298,2
303,313,307,299,2
304,314,310,299,2
305,313,311,299,2
305,311,311,298,2
305,306,311,297,2
305,302,309,297,2
304,296,308,297,2
303,289,309,299,2
303,282,310,302,2
303,274,312,304,2
304,267,313,304,2
305,261,313,304,2
305,258,309,303,2
304,257,306,302,2
304,260,303,301,2
303,266,301,300,2
301,276,300,300,2
300,288,300,300,2
300,299,299,299,2
299,306,299,298,2
298,311,300,298,2
298,317,299,298,2
299,324,299,300,2
299,331,300,302,2
300,336,301,304,2
300,342,301,306,2
300,347,301,307,2
300,351,301,309,2
300,352,301,310,2
301,351,303,310,2
301,346,304,310,2
300,339,305,310,2
301,331,305,310,2
301,324,306,309,2
301,318,306,309,2
301,312,306,308,2
301,307,307,308,2
302,303,308,307,2
302,300,308,307,2
303,298,309,306,2
303,295,309,306,2
304,291,309,307,2
306,286,309,307,2
308,281,309,308,2
309,279,309,309,2
310,279,308,309,2
310,285,306,309,2
309,295,303,309,2
306,306,301,308,2
304,315,300,307,2
302,321,300,307,2
301,326,301,305,2
300,329,303,305,2
300,329,304,304,2
301,326,305,305,2
302,323,305,306,2
303,322,305,308,2
304,320,306,309,2
306,318,307,310,2
308,314,308,310,2
308,309,309,310,2
309,305,309,311,2
310,301,310,312,2
311,298,310,313,2
311,296,310,313,2
311,294,309,311,2
310,292,307,310,2
308,293,305,309,2
307,298,304,308,2
306,305,304,306,2
306,311,303,305,2
306,316,303,303,2
306,320,302,303,2
307,323,302,302,2
309,326,301,301,2
312,326,301,300,2
314,320,303,300,2
317,308,303,299,2
320,296,304,299,2
322,289,304,298,2
323,287,305,297,2
321,288,305,297,2
317,292,304,296,2
311,298,303,296,2
306,303,303,295,2
301,306,302,295,2
298,305,302,296,2
295,300,303,295,2
294,293,303,295,2
296,287,302,293,2
299,284,302,293,2
301,286,302,293,2
304,293,304,295,2
305,301,305,297,2
306,308,305,299,2
306,313,304,302,2
306,317,303,304,2
306,320,301,306,2
307,322,300,308,2
308,322,299,309,2
310,318,300,309,2
311,312,300,308,2
312,308,301,307,2
313,305,300,306,2
314,301,298,304,2
313,298,295,301,2
312,298,292,300,2
309,302,290,298,2
307,307,290,297,2
305,312,293,297,2
304,317,297,297,2
304,320,301,298,2
304,321,303,299,2
304,320,303,301,2
303,318,301,302,2
304,317,300,303,2
304,318,300,304,2
305,318,301,306,2
305,318,303,310,2
306,318,307,313,2
307,318,311,314,2
308,317,313,315,2
310,313,315,316,2
311,308,316,316,2
311,303,316,316,2
311,297,316,316,2
311,289,316,314,2
311,283,315,312,2
310,278,314,310,2
308,278,313,309,2
308,281,312,308,2
308,284,311,307,2
309,290,309,307,2
309,297,309,307,2
310,302,309,307,2
310,303,309,306,2
311,302,309,307,2
312,300,309,307,2
312,298,308,307,2
311,297,307,307,2
310,298,306,307,2
308,302,305,307,2
307,306,304,307,2
305,311,303,307,2
305,314,303,307,2
305,316,303,307,2
306,319,304,307,2
308,321,306,308,2
310,322,307,309,2
312,321,309,310,2
313,321,309,309,2
313,321,309,308,2
312,319,309,308,2
311,313,307,307,2
309,307,305,306,2
309,302,303,306,2
309,299,303,307,2
309,296,303,307,2
309,296,303,307,2
308,303,303,307,2
308,315,301,308,2
307,328,299,307,2
306,334,296,305,2
305,334,295,305,2
304,331,294,304,2
304,327,293,303,2
304,322,293,302,2
304,318,292,301,2
304,315,292,299,2
304,311,292,298,2
304,307,293,297,2
305,304,293,297,2
306,303,294,297,2
306,304,294,296,2
307,305,296,295,2
307,307,297,295,2
308,308,298,296,2
310,310,298,297,2
311,312,299,298,2
311,314,299,298,2
311,315,299,298,2
311,316,300,299,2
311,316,302,301,2
312,317,304,304,2
313,316,305,308,2
313,314,303,311,2
313,312,302,313,2
313,309,299,312,2
312,306,297,311,2
312,303,296,308,2
313,299,295,307,2
313,296,296,306,2
314,291,297,304,2
315,285,299,302,2
316,278,300,301,2
315,272,301,299,2
314,269,302,300,2
312,269,304,300,2
310,270,306,302,2
308,274,307,304,2
308,281,309,305,2
307,291,310,306,2
306,299,310,305,2
305,305,311,306,2
305,309,311,306,2
305,311,312,306,2
304,311,311,306,2
303,310,309,305,2
302,310,308,305,2
302,313,307,305,2
302,318,307,306,2
303,324,306,307,2
305,329,304,308,2
306,333,302,309,2
308,335,300,309,2
309,336,298,309,2
310,337,298,309,2
311,336,299,309,2
311,334,301,308,2
311,331,302,308,2
310,329,303,307,2
307,327,303,307,2
305,323,303,307,2
304,319,302,307,2
303,314,301,307,2
303,310,300,307,2
303,307,300,307,2
304,302,300,306,2
306,294,301,305,2
307,285,302,305,2
309,276,304,304,2
309,269,305,304,2
311,267,306,304,2
312,271,308,305,2
312,283,308,306,2
311,299,307,306,2
309,316,306,306,2
307,332,304,305,2
305,344,302,305,2
303,347,302,304,2
302,346,302,303,2
303,342,303,304,2
304,335,306,304,2
306,324,308,305,2
308,306,309,305,2
309,284,309,305,2
311,263,307,305,2
311,250,303,304,2
311,247,300,303,2
310,252,297,302,2
308,262,295,301,2
306,278,294,299,2
305,298,294,299,2
303,314,295,299,2
303,323,297,299,2
303,327,297,301,2
304,330,298,303,2
305,333,297,305,2
305,334,296,307,2
306,332,296,308,2
307,329,297,308,2
307,326,299,309,2
307,323,300,309,2
308,320,301,307,2
309,316,301,305,2
310,311,300,301,2
311,305,299,298,2
311,299,299,297,2
309,293,300,297,2
307,289,301,298,2
305,287,302,299,2
304,288,302,300,2
303,291,302,302,2
303,295,302,304,2
305,298,302,305,2
306,304,301,306,2
307,311,301,307,2
309,317,300,307,2
309,320,298,306,2
309,320,296,304,2
309,314,295,302,2
309,306,295,300,2
309,298,296,300,2
309,293,298,301,2
307,293,299,303,2
305,294,299,304,2
303,295,299,305,2
302,296,301,306,2
302,297,305,308,2
302,297,309,308,2
303,295,312,309,2
305,293,314,310,2
305,295,313,312,2
305,300,310,313,2
302,306,307,312,2
300,314,305,312,2
299,322,304,310,2
297,332,304,309,2
296,341,304,309,2
296,347,305,310,2
295,350,306,311,2
295,348,305,311,2
297,342,304,311,2
299,333,304,310,2
301,324,303,308,2
302,316,302,307,2
303,311,301,305,2
302,308,301,304,2
303,306,302,302,2
304,304,304,302,2
306,302,306,302,2
309,300,307,304,2
311,301,308,305,2
314,300,309,306,2
317,299,309,306,2
317,297,309,307,2
315,295,309,308,2
312,294,308,309,2
308,294,308,310,2
304,295,308,310,2
301,292,308,308,2
299,285,306,306,2
298,276,305,303,2
299,269,305,302,2
301,265,305,301,2
303,265,305,301,2
305,271,305,302,2
306,282,304,303,2
306,297,304,305,2
306,312,304,307,2
306,326,305,308,2
306,334,307,309,2
304,337,308,309,2
302,336,308,308,2
302,334,307,307,2
302,331,304,306,2
302,328,301,306,2
304,325,299,306,2
304,320,298,306,2
304,315,297,305,2
303,312,297,305,2
302,312,298,304,2
301,315,301,303,2
301,317,305,303,2
302,317,308,303,2
302,313,309,304,2
302,304,308,303,2
302,294,306,303,2
302,283,304,301,2
302,273,303,300,2
303,268,301,299,2
304,267,301,298,2
305,270,302,297,2
307,276,304,299,2
309,282,305,300,2
310,286,307,299,2
310,290,307,299,2
309,296,307,297,2
307,304,307,296,2
305,315,308,296,2
303,327,309,296,2
302,336,309,297,2
301,341,309,298,2
301,343,309,299,2
303,344,310,300,2
305,343,311,301,2
307,341,312,301,2
308,338,313,301,2
309,334,313,301,2
309,327,312,302,2
309,319,312,301,2
308,310,311,300,2
307,303,310,300,2
306,297,309,299,2
306,293,307,299,2
306,290,307,298,2
306,288,306,298,2
307,285,307,297,2
307,278,308,297,2
308,270,310,296,2
309,261,312,297,2
310,253,315,298,2
310,249,318,300,2
311,249,319,303,2
311,257,320,306,2
311,271,319,309,2
310,288,317,311,2
309,304,313,312,2
308,317,310,312,2
308,326,308,312,2
309,329,308,312,2
309,322,308,310,2
309,310,308,308,2
309,296,308,306,2
309,281,308,303,2
309,266,309,300,2
309,260,309,299,2
308,260,308,300,2
308,266,307,301,2
307,277,304,305,2
306,293,303,308,2
304,309,301,310,2
302,323,300,312,2
301,336,300,313,2
301,343,301,313,2
302,346,303,313,2
303,344,304,312,2
304,338,304,311,2
305,330,304,309,2
307,322,305,309,2
306,314,305,308,2
303,307,305,307,2
301,304,304,306,2
299,307,305,304,2
298,313,305,305,2
299,319,307,305,2
299,324,309,307,2
300,328,311,309,2
301,331,312,312,2
301,332,311,314,2
302,333,309,316,2
303,333,306,316,2
304,328,304,315,2
304,322,303,314,2
305,314,303,312,2
306,307,303,310,2
307,300,303,308,2
308,295,303,306,2
310,292,302,306,2
311,290,300,306,2
312,287,299,306,2
312,285,298,305,2
312,283,298,304,2
313,282,301,303,2
314,282,305,302,2
315,283,310,302,2
316,287,316,302,2
317,291,321,303,2
318,296,324,305,2
320,300,326,307,2
322,302,326,308,2
322,302,324,309,2
321,300,321,309,2
319,297,319,310,2
316,294,316,310,2
312,291,314,309,2
309,289,313,307,2
306,290,313,307,2
303,296,313,307,2
299,307,312,307,2
297,318,311,306,2
295,327,309,306,2
295,331,307,307,2
296,333,306,306,2
297,331,304,306,2
299,326,302,305,2
300,319,300,304,2
301,313,300,303,2
300,307,302,302,2
299,303,304,303,2
298,300,308,304,2
299,298,312,305,2
300,296,316,308,2
302,292,318,310,2
304,288,320,311,2
306,285,321,312,2
307,283,320,311,2
308,282,319,309,2
308,284,317,306,2
308,290,314,303,2
308,302,313,301,2
308,314,313,300,2
308,323,313,300,2
309,330,314,302,2
310,335,314,306,2
310,338,315,310,2
311,340,316,314,2
312,344,316,317,2
313,345,317,319,2
314,340,318,320,2
314,333,317,319,2
313,326,315,318,2
312,321,313,317,2
311,318,312,315,2
309,316,309,313,2
308,312,307,312,2
308,306,305,312,2
307,300,304,311,2
306,296,303,311,2
306,295,302,311,2
306,297,302,310,2
305,303,302,309,2
304,311,304,307,2
303,320,305,306,2
303,326,306,305,2
303,329,307,303,2
303,327,306,302,2
303,323,307,302,2
303,317,307,302,2
304,311,309,303,2
305,304,312,304,2
306,297,315,305,2
308,292,317,306,2
310,286,317,307,2
311,284,317,308,2
311,285,316,309,2
310,290,314,310,2
308,297,312,311,2
306,304,310,311,2
304,313,307,311,2
302,322,305,310,2
302,328,304,309,2
302,329,303,307,2
302,323,303,307,2
304,314,305,306,2
306,303,306,305,2
307,292,308,304,2
308,286,310,304,2
308,286,310,303,2
309,292,310,304,2
308,303,308,304,2
307,316,306,305,2
306,327,303,306,2
305,333,300,306,2
305,334,300,307,2
305,331,300,307,2
306,324,302,309,2
307,316,303,311,2
309,308,304,314,2
309,302,305,316,2
310,302,303,317,2
310,307,302,318,2
311,315,301,318,2
312,321,299,317,2
312,321,299,316,2
312,318,297,314,2
310,314,298,312,2
309,310,300,309,2
307,308,302,306,2
306,308,304,305,2
305,309,305,303,2
304,310,306,303,2
304,311,307,303,2
304,312,307,301,2
305,310,307,300,2
305,304,307,298,2
306,296,306,296,2
306,290,306,295,2
307,287,306,295,2
307,285,307,295,2
308,285,308,297,2
308,286,308,300,2
308,286,308,303,2
308,285,308,305,2
308,281,308,306,2
308,276,307,306,2
308,271,306,307,2
308,270,304,306,2
309,274,302,306,2
310,285,300,306,2
311,302,298,307,2
313,319,296,308,2
313,331,296,310,2
312,337,298,312,2
310,338,302,314,2
306,340,307,316,2
303,340,311,316,2
299,341,312,316,2
296,341,312,314,2
294,340,311,313,2
294,337,311,313,2
295,331,310,312,2
297,323,309,311,2
299,313,309,310,2
302,301,309,310,2
305,286,310,309,2
308,276,312,309,2
309,274,314,309,2
309,278,315,309,2
308,286,314,308,2
307,296,313,308,2
306,306,310,308,2
305,313,308,308,2
305,316,306,308,2
305,318,306,309,2
306,318,306,310,2
307,321,307,311,2
308,325,307,311,2
308,331,308,311,2
307,335,309,310,2
306,335,309,309,2
304,331,310,309,2
303,323,311,309,2
304,314,312,309,2
304,305,313,309,2
304,299,313,309,2
304,294,312,308,2
304,289,311,307,2
304,287,310,305,2
304,286,309,303,2
304,288,308,302,2
304,291,308,300,2
303,293,309,299,2
304,294,311,300,2
305,289,312,302,2
305,284,312,303,2
304,281,310,305,2
304,282,308,306,2
303,286,307,307,2
303,292,305,308,2
303,299,304,309,2
303,304,304,309,2
303,310,303,308,2
303,312,304,306,2
304,313,303,304,2
304,314,302,302,2
304,316,302,300,2
305,318,302,298,2
306,317,302,297,2
306,314,303,297,2
307,309,304,297,2
308,304,306,298,2
308,299,308,300,2
308,295,309,303,2
308,294,310,305,2
308,295,309,306,2
308,295,308,306,2
307,297,307,304,2
307,299,305,302,2
306,302,303,301,2
305,305,302,299,2
304,305,301,298,2
303,303,302,298,2
301,303,303,298,2
299,306,303,299,2
298,310,303,299,2
298,314,304,300,2
299,316,305,299,2
299,317,305,299,2
300,315,305,297,2
300,310,304,296,2
301,302,304,294,2
301,291,305,293,2
301,282,306,294,2
302,274,308,296,2
302,271,309,299,2
302,275,310,300,2
302,284,310,301,2
303,296,310,302,2
305,309,310,303,2
308,320,309,303,2
310,328,308,303,2
311,333,307,302,2
310,334,305,300,2
308,329,304,298,2
305,320,303,297,2
304,311,303,299,2
304,305,304,301,2
305,300,306,304,2
306,299,308,307,2
307,300,309,308,2
308,303,309,310,2
308,309,308,312,2
308,313,307,315,2
308,317,307,316,2
308,320,308,317,2
307,321,309,318,2
306,320,310,318,2
303,320,311,318,2
302,319,311,317,2
300,318,313,316,2
301,317,315,315,2
301,318,318,315,2
302,320,319,315,2
302,322,319,315,2
304,324,318,316,2
306,325,318,317,2
307,324,316,316,2
307,322,314,316,2
308,317,312,315,2
308,309,310,314,2
308,298,307,312,2
308,288,306,310,2
309,282,305,309,2
310,282,305,308,2
311,287,304,308,2
310,296,305,307,2
310,305,307,307,2
309,311,310,307,2
309,315,315,307,2
311,315,319,308,2
312,312,320,309,2
312,306,320,309,2
310,302,319,309,2
309,298,317,310,2
308,297,316,310,2
309,298,315,310,2
309,301,314,310,2
309,305,313,310,2
308,308,312,310,2
306,309,310,309,2
305,309,309,308,2
305,308,308,307,2
305,306,308,307,2
306,306,309,308,2
307,309,310,309,2
307,314,310,309,2
306,317,310,308,2
304,314,309,306,2
302,307,308,305,2
301,297,307,305,2
300,292,307,306,2
301,291,306,307,2
301,297,306,308,2
302,308,306,308,2
301,321,304,308,2
301,330,303,307,2
302,333,303,306,2
303,331,302,305,2
305,326,302,304,2
306,318,301,304,2
307,311,302,303,2
306,305,303,305,2
306,302,305,306,2
306,299,308,308,2
305,296,310,309,2
303,296,310,309,2
302,299,309,308,2
301,305,307,307,2
301,310,305,306,2
300,315,304,305,2
300,320,304,305,2
299,323,304,306,2
299,325,306,306,2
300,323,308,307,2
301,319,310,308,2
302,314,310,310,2
304,310,310,312,2
305,306,310,313,2
305,304,310,313,2
305,304,308,312,2
305,307,306,312,2
305,311,305,312,2
306,317,304,312,2
306,324,302,312,2
306,330,301,312,2
306,334,300,312,2
305,338,300,311,2
302,340,300,310,2
300,342,302,308,2
299,343,303,308,2
300,342,305,307,2
301,335,305,307,2
302,323,305,306,2
303,306,304,304,2
303,289,304,302,2
303,275,303,299,2
302,265,302,297,2
302,261,301,295,2
302,262,302,295,2
302,268,303,295,2
302,279,305,298,2
303,293,308,299,2
304,306,311,301,2
304,316,312,301,2
303,322,313,303,2
302,321,311,305,2
301,317,309,308,2
301,315,307,311,2
300,316,306,313,2
300,316,305,314,2
299,315,304,315,2
298,310,303,315,2
296,302,301,314,2
297,293,300,314,2
298,285,300,313,2
301,279,301,311,2
303,278,302,309,2
306,280,302,305,2
306,284,302,302,2
306,291,301,301,2
306,300,301,301,2
306,309,301,302,2
305,316,302,303,2
305,321,305,305,2
305,323,309,305,2
305,324,311,306,2
305,323,311,306,2
305,322,310,307,2
305,322,308,309,2
306,322,307,310,2
306,321,305,310,2
307,319,305,310,2
307,316,304,309,2
307,314,303,308,2
307,311,303,305,2
307,305,303,304,2
308,298,304,302,2
308,292,304,301,2
308,290,304,300,2
309,292,304,302,2
308,296,304,303,2
308,301,303,304,2
308,305,303,306,2
309,307,303,307,2
310,306,302,307,2
310,304,302,307,2
311,303,302,306,2
311,305,304,306,2
313,308,305,306,2
314,310,306,306,2
315,310,306,306,2
313,306,306,304,2
310,301,304,302,2
305,294,303,301,2
302,288,300,300,2
300,283,298,299,2
300,281,297,297,2
302,280,297,297,2
305,278,300,297,2
308,280,303,297,2
311,288,306,298,2
313,298,310,299,2
313,304,312,299,2
313,305,313,300,2
311,301,314,300,2
310,294,314,300,2
309,287,314,299,2
308,281,313,297,2
309,279,313,296,2
311,280,312,295,2
312,285,312,295,2
312,290,312,296,2
310,295,311,298,2
306,301,308,300,2
301,308,303,303,2
297,316,298,305,2
296,325,295,306,2
296,334,292,307,2
295,339,292,307,2
295,342,294,307,2
296,342,296,308,2
297,341,298,309,2
299,340,299,310,2
300,340,300,312,2
302,340,299,313,2
302,340,298,314,2
302,341,297,315,2
302,340,298,315,2
303,338,301,316,2
303,334,304,316,2
304,327,307,316,2
304,317,309,315,2
306,307,311,315,2
308,297,312,314,2
309,288,313,313,2
309,282,314,310,2
309,277,313,309,2
310,274,313,308,2
311,275,313,308,2
312,279,314,308,2
312,285,314,309,2
311,295,313,311,2
310,304,312,314,2
308,312,311,316,2
307,316,310,317,2
305,316,310,317,2
305,312,308,316,2
305,306,306,312,2
305,298,306,310,2
306,290,307,308,2
307,284,308,306,2
306,283,310,306,2
306,288,311,305,2
306,295,310,304,2
305,304,309,303,2
304,317,307,302,2
304,330,305,302,2
303,340,304,303,2
302,346,303,304,2
301,348,302,305,2
301,345,301,307,2
302,337,302,309,2
303,328,304,310,2
304,320,305,311,2
304,315,307,310,2
304,311,308,309,2
303,310,308,308,2
302,309,309,306,2
303,307,311,305,2
304,303,313,304,2
304,297,313,304,2
305,290,311,303,2
306,282,309,303,2
306,277,307,302,2
306,274,306,302,2
307,275,305,302,2
307,278,306,302,2
307,285,308,302,2
307,291,309,301,2
306,294,309,301,2
306,296,308,300,2
305,300,306,300,2
304,304,303,301,2
304,309,301,303,2
304,315,301,304,2
304,322,302,305,2
303,328,303,306,2
303,331,304,306,2
303,330,304,305,2
303,323,304,305,2
304,313,304,304,2
306,300,304,303,2
308,288,305,301,2
310,278,306,300,2
310,271,306,299,2
311,267,305,299,2
310,265,304,300,2
309,263,303,301,2
309,262,303,303,2
308,267,304,304,2
306,279,307,305,2
304,299,309,306,2
302,320,310,307,2
301,337,310,307,2
301,345,311,306,2
302,347,311,306,2
305,344,311,306,2
308,340,312,306,2
312,338,313,307,2
315,338,313,308,2
318,339,313,308,2
318,341,312,308,2
316,343,312,308,2
313,344,312,309,2
308,344,312,311,2
304,341,312,312,2
301,335,310,312,2
299,323,308,310,2
299,310,307,308,2
301,299,306,306,2
304,294,305,305,2
307,295,305,305,2
309,302,305,307,2
310,314,305,309,2
309,325,305,311,2
307,332,305,312,2
305,332,305,313,2
303,328,305,312,2
302,320,305,311,2
301,311,305,310,2
302,306,305,311,2
303,304,306,311,2
303,304,305,311,2
304,304,305,309,2
306,304,305,307,2
308,306,305,306,2
310,306,305,304,2
312,304,305,303,2
312,300,304,301,2
308,295,301,300,2
303,290,298,299,2
298,285,295,300,2
295,282,293,302,2
295,281,292,305,2
296,283,292,308,2
298,289,291,310,2
300,300,291,312,2
302,311,291,312,2
303,319,292,312,2
304,326,294,311,2
306,329,298,310,2
307,328,302,309,2
306,324,306,308,2
305,318,309,306,2
305,310,310,305,2
305,302,309,304,2
305,296,306,304,2
306,294,304,303,2
305,296,302,303,2
304,299,301,303,2
303,303,300,303,2
302,306,301,303,2
301,308,302,303,2
301,308,302,302,2
301,305,302,301,2
302,302,302,301,2
302,300,302,300,2
302,300,302,300,2
302,301,303,299,2
302,304,304,299,2
303,309,306,299,2
303,313,308,300,2
303,314,308,300,2
304,311,309,301,2
304,304,308,301,2
303,294,307,302,2
303,287,306,303,2
303,283,306,304,2
304,283,307,307,2
305,286,308,309,2
304,291,309,311,2
305,296,310,312,2
305,299,312,313,2
306,301,314,314,2
307,307,315,316,2
308,315,315,317,2
308,325,315,316,2
308,334,314,315,2
308,340,313,313,2
308,342,312,311,2
308,343,312,309,2
309,342,310,308,2
309,341,309,306,2
