319,232,314,298,2
319,219,313,298,2
317,222,311,298,2
314,239,307,299,2
311,259,304,301,2
308,274,302,302,2
307,282,300,303,2
306,286,298,303,2
306,291,297,303,2
305,302,295,303,2
304,318,295,303,2
303,327,295,302,2
302,326,296,302,2
301,321,297,302,2
301,318,299,304,2
301,321,300,308,2
302,328,301,310,2
302,333,301,311,2
303,337,302,311,2
302,342,302,310,2
302,346,302,310,2
303,348,303,309,2
303,346,303,308,2
304,343,303,308,2
306,337,304,309,2
306,331,303,309,2
305,327,303,309,2
305,324,304,309,2
305,323,306,309,2
305,323,308,309,2
305,321,309,309,2
304,320,309,309,2
304,317,308,309,2
304,314,307,309,2
304,312,306,309,2
305,310,307,309,2
306,309,307,309,2
306,306,307,308,2
308,303,306,307,2
309,300,307,306,2
309,299,307,305,2
308,300,306,304,2
306,301,306,304,2
303,301,306,304,2
302,302,306,304,2
302,305,308,305,2
303,310,309,306,2
304,315,310,306,2
304,320,310,307,2
304,323,311,307,2
304,321,311,307,2
304,315,310,306,2
303,311,309,305,2
303,312,309,304,2
302,316,308,303,2
301,319,307,302,2
301,320,307,302,2
301,317,307,302,2
301,309,307,303,2
303,295,308,304,2
305,276,308,305,2
308,253,309,306,2
311,229,310,305,2
313,213,311,304,2
315,208,312,302,2
316,217,313,301,2
316,237,314,299,2
315,267,313,297,2
313,298,312,296,2
309,321,310,294,2
307,336,307,292,2
304,343,306,291,2
303,343,306,291,2
303,340,306,292,2
303,338,306,295,2
305,339,306,298,2
306,337,306,301,2
306,332,307,302,2
307,326,307,303,2
307,322,307,304,2
308,320,306,305,2
308,316,306,307,2
308,307,306,309,2
309,294,306,312,2
310,279,307,313,2
310,269,306,314,2
309,267,306,314,2
307,277,305,313,2
305,296,304,313,2
304,315,304,311,2
304,328,305,310,2
304,336,307,309,2
305,337,309,308,2
305,334,311,308,2
305,330,312,307,2
305,325,312,308,2
306,323,311,309,2
306,322,311,309,2
305,320,310,309,2
305,315,311,309,2
306,306,312,310,2
307,297,313,310,2
309,291,313,311,2
310,290,313,311,2
310,293,312,311,2
310,302,311,311,2
311,312,309,310,2
312,318,308,309,2
312,320,307,307,2
312,317,305,305,2
312,309,304,303,2
311,299,304,302,2
311,288,303,300,2
310,282,303,298,2
309,282,302,296,2
309,293,302,295,2
307,311,301,295,2
306,328,301,295,2
306,338,302,296,2
306,341,303,297,2
306,339,305,298,2
306,333,306,299,2
307,323,307,300,2
308,311,308,301,2
307,300,307,302,2
307,293,306,303,2
306,293,305,303,2
306,300,303,303,2
306,311,303,303,2
305,322,303,304,2
305,330,303,303,2
305,333,304,303,2
304,334,305,302,2
304,336,305,302,2
305,337,306,302,2
305,336,306,302,2
306,333,307,301,2
307,329,308,302,2
308,325,309,303,2
308,320,311,304,2
308,316,311,305,2
309,312,312,306,2
309,308,311,306,2
309,305,309,306,2
310,303,307,306,2
310,297,305,306,2
310,291,304,305,2
309,286,302,304,2
308,285,299,301,2
306,287,296,298,2
303,291,295,294,2
301,297,295,292,2
299,304,298,293,2
300,310,302,295,2
301,311,305,299,2
302,310,307,302,2
302,306,308,304,2
302,303,308,305,2
303,302,309,306,2
303,302,309,307,2
304,301,310,307,2
304,296,310,307,2
305,285,310,307,2
306,270,310,307,2
307,256,310,308,2
307,247,310,309,2
307,243,310,308,2
306,248,309,308,2
306,265,307,307,2
305,286,306,308,2
304,303,306,307,2
304,313,305,305,2
303,319,305,304,2
303,323,304,303,2
304,326,304,302,2
304,330,304,302,2
304,334,304,302,2
304,336,304,302,2
303,338,303,302,2
302,338,303,303,2
302,334,302,304,2
302,324,302,305,2
303,309,303,306,2
304,292,304,305,2
304,275,305,305,2
306,263,306,305,2
307,258,307,305,2
309,261,308,306,2
310,275,308,306,2
309,296,307,306,2
307,316,306,306,2
306,329,305,305,2
305,335,304,305,2
304,334,303,304,2
304,332,303,304,2
303,329,303,303,2
303,327,304,303,2
303,327,304,303,2
304,327,305,304,2
304,328,306,306,2
304,326,307,307,2
305,322,308,308,2
306,318,308,309,2
307,312,309,310,2
308,305,310,312,2
309,298,311,313,2
311,293,312,314,2
311,291,313,314,2
311,293,314,314,2
310,298,313,312,2
309,306,312,311,2
308,316,311,309,2
307,324,311,306,2
306,327,310,303,2
306,327,310,301,2
305,326,310,299,2
305,327,310,300,2
305,329,310,300,2
305,331,309,301,2
305,330,308,301,2
305,327,306,300,2
305,321,305,298,2
305,313,304,296,2
304,306,303,294,2
305,297,302,293,2
304,285,302,293,2
305,274,303,294,2
306,262,305,296,2
307,249,306,299,2
309,241,308,302,2
309,241,309,305,2
309,250,311,307,2
309,266,313,309,2
308,285,314,308,2
307,306,314,308,2
307,324,313,308,2
306,335,311,307,2
304,337,310,307,2
303,335,309,306,2
302,332,308,306,2
301,332,308,305,2
300,339,308,304,2
299,347,307,304,2
299,352,307,303,2
299,351,308,303,2
300,348,308,302,2
302,343,308,301,2
302,335,309,299,2
303,326,308,298,2
303,316,308,297,2
305,305,309,297,2
306,296,311,298,2
307,292,313,298,2
308,291,315,298,2
308,287,316,297,2
307,283,316,297,2
306,279,314,297,2
304,275,310,297,2
303,274,306,297,2
302,277,304,298,2
301,283,302,299,2
302,291,302,301,2
302,301,303,303,2
302,310,304,305,2
302,315,304,307,2
302,318,304,307,2
302,318,303,307,2
302,312,302,306,2
303,296,302,305,2
303,275,302,303,2
305,253,303,303,2
307,238,304,303,2
308,234,305,305,2
309,247,305,306,2
308,275,305,306,2
307,308,304,305,2
305,337,303,305,2
302,355,301,305,2
301,364,301,305,2
301,365,300,305,2
301,360,300,305,2
303,352,300,306,2
304,341,301,308,2
306,330,301,308,2
307,320,301,309,2
307,312,302,310,2
307,304,303,311,2
307,297,305,312,2
307,292,308,313,2
307,287,311,312,2
308,282,314,312,2
309,277,315,312,2
310,277,316,312,2
311,282,316,311,2
311,294,315,309,2
309,312,313,309,2
307,333,311,307,2
305,349,307,305,2
303,360,303,304,2
301,364,299,302,2
299,361,297,301,2
299,353,296,300,2
299,344,297,300,2
299,334,299,300,2
300,323,302,302,2
302,313,304,304,2
304,305,306,307,2
306,298,308,308,2
308,289,308,309,2
309,279,308,308,2
308,274,307,307,2
307,274,307,307,2
307,280,307,308,2
306,289,307,309,2
304,302,307,310,2
303,314,306,311,2
302,324,306,311,2
302,330,305,311,2
304,333,304,312,2
306,336,304,312,2
307,336,304,311,2
307,336,303,311,2
307,333,303,312,2
307,330,303,312,2
306,326,302,311,2
306,323,302,312,2
305,320,302,311,2
306,317,303,311,2
307,317,304,310,2
307,318,305,309,2
308,322,306,307,2
308,327,307,306,2
308,332,307,306,2
308,331,307,306,2
307,326,306,306,2
306,318,305,306,2
306,308,304,305,2
306,298,304,304,2
307,287,304,303,2
308,275,304,302,2
309,267,304,303,2
310,263,305,304,2
310,267,305,304,2
310,274,305,305,2
309,282,305,305,2
310,290,304,305,2
309,296,304,304,2
309,302,304,303,2
309,307,304,303,2
309,310,304,303,2
309,312,304,304,2
309,314,305,306,2
310,315,305,307,2
310,316,305,309,2
311,317,304,309,2
312,318,304,310,2
313,320,303,310,2
313,321,302,311,2
312,320,300,311,2
310,314,299,311,2
308,306,298,310,2
307,300,298,309,2
304,299,299,308,2
303,302,302,307,2
302,308,303,306,2
301,317,302,305,2
301,324,300,303,2
300,323,297,301,2
299,316,295,298,2
300,304,294,296,2
301,291,295,294,2
304,280,298,294,2
306,275,301,295,2
307,277,303,298,2
307,283,305,302,2
308,292,305,305,2
307,300,305,308,2
307,307,304,310,2
306,313,304,311,2
306,319,304,313,2
305,324,304,315,2
305,328,303,316,2
305,330,304,318,2
306,330,304,319,2
306,328,305,319,2
306,324,304,318,2
306,321,304,316,2
306,321,304,315,2
306,321,305,314,2
307,317,306,314,2
308,310,308,314,2
309,301,310,313,2
310,289,311,313,2
311,277,310,313,2
310,266,309,312,2
310,261,308,312,2
310,264,307,312,2
310,274,306,312,2
309,290,305,312,2
307,309,303,312,2
306,327,302,312,2
304,339,302,312,2
303,345,302,312,2
304,346,304,313,2
304,343,305,313,2
305,337,306,314,2
305,329,307,315,2
306,320,307,316,2
306,310,306,316,2
307,300,305,316,2
308,291,304,316,2
309,283,304,316,2
310,280,304,315,2
309,282,303,314,2
308,289,302,313,2
306,300,301,312,2
305,313,300,313,2
304,324,300,314,2
303,333,300,314,2
303,336,301,314,2
304,331,302,315,2
304,323,303,314,2
305,314,303,313,2
306,306,304,313,2
307,298,304,312,2
308,291,304,312,2
309,284,304,312,2
309,279,305,311,2
309,278,305,311,2
308,284,304,311,2
307,294,304,311,2
305,303,303,312,2
303,307,303,312,2
302,303,302,311,2
299,294,302,308,2
298,284,301,305,2
297,277,301,302,2
297,273,302,301,2
298,277,304,299,2
298,287,305,299,2
299,300,306,299,2
301,312,308,301,2
303,322,309,304,2
305,330,310,307,2
306,334,311,310,2
306,333,311,312,2
305,327,310,314,2
304,319,310,314,2
303,313,309,314,2
301,309,309,313,2
301,307,309,312,2
302,307,308,311,2
302,306,308,309,2
304,303,307,308,2
304,298,306,305,2
305,292,306,302,2
305,289,305,300,2
305,289,304,298,2
305,289,304,297,2
305,289,304,295,2
305,288,303,295,2
305,288,303,295,2
306,289,303,297,2
306,289,304,299,2
308,286,305,301,2
308,282,307,302,2
308,281,308,302,2
307,284,308,301,2
306,288,308,299,2
305,292,309,297,2
305,296,309,297,2
305,303,309,297,2
305,312,309,298,2
306,323,310,300,2
306,333,310,301,2
305,338,310,302,2
305,339,311,303,2
305,339,312,303,2
305,337,312,303,2
305,333,311,305,2
305,326,311,306,2
306,319,310,307,2
306,312,310,308,2
305,306,310,309,2
304,306,310,309,2
304,309,309,308,2
303,314,307,307,2
302,320,307,306,2
303,324,306,305,2
304,325,306,304,2
306,324,306,305,2
308,324,306,305,2
310,326,307,306,2
310,327,306,306,2
308,322,305,306,2
306,313,303,305,2
303,304,302,304,2
301,297,303,304,2
300,288,305,304,2
301,279,307,304,2
302,271,309,305,2
304,265,310,305,2
305,263,310,305,2
305,267,309,304,2
305,278,307,304,2
304,289,306,303,2
303,301,306,303,2
303,310,305,303,2
302,316,304,303,2
301,321,302,301,2
300,326,299,300,2
299,328,297,297,2
299,328,295,295,2
299,326,295,294,2
301,322,297,294,2
303,315,299,296,2
306,304,303,299,2
309,290,305,302,2
312,278,307,304,2
313,270,309,306,2
313,269,310,306,2
313,274,310,307,2
311,284,311,307,2
310,296,311,307,2
308,309,311,307,2
308,319,311,307,2
307,326,310,307,2
307,330,310,306,2
305,333,309,304,2
305,335,308,303,2
305,338,308,303,2
305,339,307,303,2
304,339,305,303,2
304,337,302,302,2
304,334,302,301,2
304,330,302,300,2
305,324,302,299,2
306,320,303,299,2
307,319,304,298,2
307,317,304,298,2
307,315,304,299,2
306,311,304,299,2
306,305,304,299,2
306,300,304,299,2
306,296,304,299,2
306,294,304,298,2
305,297,303,297,2
303,302,302,296,2
302,306,300,296,2
301,309,300,296,2
301,312,299,296,2
300,314,298,296,2
300,316,298,296,2
300,316,298,297,2
300,315,299,299,2
301,313,300,303,2
303,309,302,305,2
304,305,304,308,2
306,302,305,310,2
307,301,306,311,2
307,305,306,312,2
308,312,306,314,2
308,319,305,315,2
309,321,305,315,2
309,318,303,315,2
310,310,303,315,2
311,301,302,314,2
311,290,302,312,2
311,280,301,310,2
311,273,300,309,2
311,268,301,308,2
311,265,303,305,2
310,261,304,303,2
308,258,305,300,2
308,261,306,299,2
307,271,306,298,2
307,288,307,298,2
305,304,306,299,2
303,318,305,300,2
302,328,303,301,2
302,335,303,301,2
301,338,302,301,2
302,337,302,300,2
303,331,301,299,2
304,324,301,298,2
305,317,300,297,2
306,313,299,296,2
307,312,300,296,2
308,312,301,296,2
308,314,304,297,2
310,320,306,300,2
310,328,309,304,2
311,332,310,308,2
312,331,310,311,2
312,328,311,313,2
312,324,311,313,2
311,320,312,313,2
311,315,312,312,2
310,310,312,309,2
309,307,311,308,2
308,305,309,306,2
307,304,308,305,2
307,303,307,304,2
308,303,306,303,2
309,304,305,302,2
310,305,305,301,2
311,305,304,301,2
310,304,304,302,2
310,302,304,303,2
310,299,303,304,2
310,297,303,306,2
310,296,303,308,2
310,297,303,309,2
310,301,303,310,2
309,309,303,310,2
308,316,303,310,2
308,320,302,309,2
307,320,303,308,2
307,318,304,308,2
307,314,306,309,2
307,308,308,310,2
307,301,309,310,2
307,296,309,310,2
306,291,308,312,2
306,290,307,313,2
305,292,305,313,2
305,292,304,313,2
306,289,304,312,2
307,282,304,310,2
309,274,305,309,2
312,268,308,308,2
314,269,310,308,2
313,273,310,307,2
312,282,310,306,2
309,293,309,305,2
307,304,307,305,2
305,312,307,304,2
304,317,307,303,2
304,320,307,303,2
305,322,307,303,2
306,321,307,303,2
306,319,307,303,2
306,316,306,302,2
306,313,306,302,2
305,312,305,301,2
304,315,304,300,2
304,320,302,299,2
304,322,300,298,2
303,319,298,296,2
303,314,297,294,2
302,308,296,293,2
303,303,297,294,2
304,297,299,295,2
304,294,302,298,2
305,293,305,302,2
305,295,306,305,2
305,299,307,307,2
304,304,307,308,2
304,310,307,308,2
303,314,308,308,2
303,314,309,309,2
303,309,310,310,2
304,301,311,311,2
304,290,311,311,2
305,280,312,311,2
305,274,312,310,2
305,275,311,310,2
304,282,310,308,2
302,295,308,306,2
301,311,306,304,2
299,325,305,303,2
300,335,305,302,2
301,338,306,301,2
302,335,308,301,2
304,326,310,301,2
305,315,313,302,2
308,302,316,303,2
310,289,317,304,2
311,282,317,304,2
311,281,316,305,2
312,287,313,306,2
312,296,311,307,2
311,304,309,308,2
310,310,307,309,2
309,312,306,309,2
308,312,305,310,2
307,308,305,310,2
307,304,304,311,2
307,301,303,311,2
306,299,303,310,2
305,298,303,309,2
305,299,304,309,2
305,301,305,309,2
305,304,306,309,2
305,308,306,308,2
305,313,307,308,2
303,318,307,307,2
303,322,306,307,2
303,323,306,307,2
304,321,307,307,2
304,318,306,307,2
304,313,307,307,2
303,308,307,307,2
303,304,307,308,2
303,301,307,310,2
304,298,308,311,2
305,297,309,312,2
305,298,308,312,2
305,300,307,311,2
305,303,305,308,2
304,305,302,305,2
304,307,299,301,2
304,309,297,299,2
305,311,296,298,2
305,315,295,297,2
305,317,296,297,2
305,320,297,299,2
306,318,298,303,2
307,315,299,305,2
308,310,299,307,2
308,303,300,308,2
308,293,302,308,2
308,280,304,307,2
308,271,307,306,2
310,268,311,306,2
312,270,314,306,2
313,276,315,307,2
314,288,314,307,2
313,303,313,307,2
312,317,311,307,2
309,328,310,306,2
306,334,307,306,2
303,334,306,306,2
302,330,306,306,2
302,323,307,305,2
303,314,308,306,2
305,305,309,306,2
306,300,310,306,2
308,299,311,308,2
309,300,312,309,2
310,302,312,310,2
310,301,311,310,2
309,299,310,309,2
307,296,308,308,2
305,296,306,307,2
304,298,305,307,2
304,304,305,307,2
304,311,305,307,2
303,319,304,308,2
303,325,303,308,2
303,328,302,308,2
304,327,301,307,2
305,320,300,307,2
307,311,301,306,2
308,300,301,305,2
309,291,301,304,2
309,285,300,302,2
309,283,300,301,2
309,288,299,300,2
308,297,299,299,2
308,307,298,298,2
308,313,298,297,2
308,316,298,297,2
308,316,298,298,2
308,317,298,299,2
308,318,299,300,2
307,318,300,303,2
306,315,301,305,2
306,309,301,307,2
306,301,302,308,2
305,292,302,308,2
306,284,304,308,2
307,275,304,307,2
308,267,305,305,2
309,265,306,304,2
309,269,307,304,2
310,274,307,304,2
310,281,308,303,2
310,291,307,302,2
308,304,305,302,2
307,318,305,303,2
306,326,304,305,2
305,329,304,306,2
305,328,304,308,2
305,324,305,310,2
305,317,306,310,2
306,308,307,309,2
305,299,307,308,2
305,296,307,306,2
304,297,306,305,2
304,301,305,304,2
303,305,303,303,2
303,308,301,301,2
302,310,299,299,2
302,313,298,297,2
301,316,298,296,2
300,319,299,297,2
299,321,301,298,2
299,322,302,301,2
299,323,302,304,2
300,322,302,305,2
301,320,303,306,2
303,314,303,307,2
304,306,303,307,2
305,299,304,307,2
306,297,303,307,2
306,299,302,307,2
306,302,301,306,2
305,307,301,306,2
305,312,301,306,2
305,318,303,305,2
306,321,305,306,2
307,319,308,306,2
307,314,309,305,2
308,308,309,304,2
309,299,308,303,2
309,289,308,302,2
309,281,309,302,2
310,278,310,302,2
310,279,311,303,2
311,284,312,304,2
310,291,311,305,2
308,298,311,305,2
307,304,310,306,2
306,307,310,306,2
306,309,310,306,2
307,313,311,307,2
306,321,310,306,2
305,330,309,305,2
306,338,308,304,2
306,342,307,304,2
307,342,306,303,2
307,338,306,303,2
308,331,307,303,2
309,322,308,304,2
311,312,309,304,2
313,302,310,304,2
313,291,311,304,2
312,282,310,303,2
311,278,310,301,2
309,281,309,300,2
309,290,308,300,2
307,305,308,300,2
305,321,306,301,2
304,332,304,301,2
303,338,303,302,2
304,339,303,303,2
304,338,302,303,2
305,337,302,303,2
307,337,302,303,2
308,339,303,303,2
308,341,304,303,2
308,340,304,302,2
308,332,305,301,2
308,319,305,299,2
307,302,305,298,2
308,287,306,297,2
308,274,306,297,2
309,267,307,296,2
309,265,306,295,2
309,272,304,294,2
309,285,301,293,2
309,297,297,292,2
308,303,294,291,2
307,303,291,289,2
306,297,290,289,2
305,290,292,290,2
304,285,295,292,2
304,282,299,294,2
304,282,303,297,2
304,286,307,298,2
304,291,308,299,2
304,298,309,299,2
305,304,310,300,2
306,310,310,301,2
307,316,310,301,2
307,321,310,300,2
306,323,310,299,2
306,325,308,298,2
305,325,307,298,2
304,325,306,298,2
304,325,306,300,2
305,325,306,301,2
305,324,306,303,2
305,323,306,304,2
306,319,307,305,2
307,314,309,306,2
308,309,309,306,2
309,304,309,307,2
309,301,308,307,2
309,299,307,306,2
308,296,306,306,2
308,293,305,306,2
309,287,306,307,2
310,281,307,307,2
311,276,309,308,2
312,274,310,309,2
312,274,311,308,2
312,276,310,306,2
311,281,309,305,2
309,289,308,303,2
306,300,306,302,2
304,314,306,301,2
303,325,306,302,2
302,333,306,303,2
302,337,306,303,2
302,339,308,303,2
303,336,309,303,2
304,332,310,304,2
305,325,311,305,2
306,316,310,306,2
307,308,309,306,2
309,304,307,307,2
309,302,307,308,2
310,301,306,307,2
310,298,306,306,2
311,296,306,306,2
312,295,306,306,2
313,297,306,305,2
313,301,305,304,2
313,304,304,304,2
313,306,302,303,2
313,307,301,303,2
313,309,300,303,2
313,309,299,303,2
313,308,299,303,2
313,305,299,303,2
313,302,301,303,2
313,300,303,303,2
313,299,306,303,2
312,298,307,302,2
311,297,306,301,2
309,298,304,298,2
307,301,301,296,2
305,306,298,294,2
304,312,296,294,2
302,318,296,294,2
302,326,297,295,2
301,335,298,296,2
301,342,300,298,2
302,345,301,301,2
303,343,302,303,2
303,338,304,305,2
304,332,305,305,2
304,326,305,306,2
305,320,304,305,2
305,315,304,305,2
305,310,304,305,2
306,304,305,306,2
306,300,307,308,2
307,298,308,311,2
307,295,309,313,2
307,293,310,314,2
307,293,310,314,2
306,292,309,312,2
306,292,307,308,2
303,293,306,306,2
302,295,305,304,2
301,298,305,304,2
300,301,306,303,2
300,305,306,302,2
299,309,306,302,2
299,311,305,301,2
298,313,305,299,2
298,316,305,298,2
299,320,305,299,2
300,320,305,300,2
301,316,306,300,2
302,311,306,300,2
303,306,306,301,2
304,302,306,302,2
304,300,306,303,2
304,300,306,304,2
304,302,307,304,2
303,304,307,305,2
303,304,307,306,2
303,303,308,307,2
304,302,310,309,2
305,307,311,312,2
306,314,312,314,2
306,318,311,316,2
306,318,311,316,2
306,315,311,314,2
305,312,311,313,2
305,309,311,312,2
304,309,311,311,2
303,310,310,310,2
302,310,309,309,2
301,310,308,307,2
300,310,307,305,2
300,310,307,305,2
300,309,307,304,2
302,305,308,305,2
303,299,308,306,2
304,293,309,306,2
304,289,309,306,2
303,286,308,305,2
302,287,306,303,2
301,288,304,301,2
300,290,301,299,2
299,292,300,297,2
298,295,299,296,2
299,295,300,297,2
300,294,302,299,2
301,295,303,302,2
303,298,306,306,2
304,303,308,310,2
306,307,310,312,2
307,310,311,312,2
308,311,311,312,2
309,312,312,311,2
309,311,311,309,2
309,311,309,308,2
309,310,308,307,2
308,309,306,306,2
308,303,304,306,2
308,293,302,306,2
308,284,301,306,2
306,280,300,306,2
306,281,301,305,2
306,283,304,305,2
306,286,307,306,2
307,294,309,308,2
308,306,310,310,2
308,318,309,311,2
307,327,308,313,2
306,331,307,313,2
305,333,305,313,2
304,334,303,312,2
304,334,302,310,2
304,334,302,309,2
304,333,302,308,2
303,334,301,307,2
304,333,302,307,2
304,330,303,307,2
305,325,303,306,2
305,320,303,306,2
306,318,303,306,2
305,319,303,307,2
305,324,302,308,2
305,333,302,310,2
304,339,301,311,2
304,338,302,313,2
304,330,302,313,2
304,318,301,314,2
304,307,301,315,2
304,299,302,314,2
304,292,301,313,2
304,285,301,312,2
304,280,300,310,2
304,278,299,309,2
304,278,298,309,2
304,280,297,309,2
305,284,296,309,2
304,291,296,309,2
304,297,296,309,2
304,301,296,307,2
304,304,296,306,2
304,305,297,305,2
304,304,297,304,2
304,302,297,303,2
305,297,297,303,2
305,293,297,302,2
305,289,298,302,2
305,287,297,302,2
305,290,297,301,2
304,298,297,301,2
303,309,296,302,2
302,318,294,302,2
301,323,293,303,2
300,324,292,303,2
300,321,293,304,2
300,314,295,306,2
302,305,299,308,2
305,293,303,311,2
309,282,306,313,2
311,274,309,314,2
313,271,311,315,2
313,274,312,316,2
314,283,311,316,2
312,294,310,316,2
311,306,308,316,2
310,319,307,316,2
309,326,305,316,2
308,331,304,314,2
306,333,302,312,2
304,334,301,311,2
303,334,299,309,2
302,331,297,308,2
301,325,296,306,2
301,319,296,305,2
301,314,296,304,2
301,312,297,305,2
302,309,299,305,2
303,305,301,305,2
303,301,303,305,2
304,300,304,306,2
306,300,305,307,2
308,304,305,308,2
308,313,305,308,2
309,324,305,309,2
308,332,306,309,2
308,333,307,310,2
307,327,307,309,2
307,315,307,309,2
307,304,307,308,2
308,293,307,307,2
308,288,306,306,2
308,286,305,306,2
308,287,305,305,2
308,293,306,304,2
308,300,307,304,2
308,309,307,305,2
308,315,308,305,2
308,317,308,306,2
307,314,307,306,2
307,310,305,306,2
308,307,304,307,2
308,307,304,308,2
308,309,304,309,2
309,311,304,310,2
308,311,303,311,2
307,311,302,311,2
307,308,301,310,2
307,303,300,310,2
308,297,301,310,2
309,290,302,309,2
310,285,302,309,2
311,283,303,309,2
311,286,303,309,2
311,291,303,310,2
310,297,303,310,2
309,304,304,311,2
308,312,304,310,2
307,322,304,310,2
307,329,304,310,2
307,333,304,310,2
306,333,305,309,2
307,328,304,308,2
306,319,303,305,2
306,309,302,303,2
305,298,301,301,2
305,290,301,300,2
306,288,301,300,2
306,294,303,300,2
306,303,305,301,2
307,312,307,303,2
308,321,309,306,2
308,328,310,308,2
307,333,310,309,2
306,334,308,310,2
305,334,307,310,2
304,331,305,309,2
304,329,305,308,2
304,327,305,307,2
304,324,306,307,2
305,319,308,307,2
306,313,309,308,2
306,306,310,309,2
306,296,311,309,2
307,286,312,309,2
307,278,313,309,2
308,274,313,309,2
310,272,312,308,2
310,273,311,306,2
309,281,309,305,2
307,293,307,304,2
304,304,304,303,2
301,313,301,303,2
299,321,299,303,2
298,324,297,305,2
298,320,298,306,2
299,313,299,307,2
300,304,302,307,2
302,293,306,307,2
303,283,309,306,2
305,278,311,307,2
306,278,312,307,2
306,278,311,307,2
306,281,311,308,2
304,290,309,308,2
303,304,308,309,2
300,317,308,309,2
298,326,306,310,2
297,329,306,310,2
296,330,306,310,2
297,329,306,310,2
298,326,306,310,2
299,321,306,310,2
300,314,307,310,2
301,307,307,310,2
302,303,307,310,2
303,304,306,309,2
303,307,305,309,2
302,312,304,310,2
302,318,304,310,2
302,321,304,309,2
302,322,304,307,2
304,321,305,306,2
305,318,306,305,2
307,316,307,306,2
308,315,308,306,2
308,314,309,306,2
308,312,309,307,2
308,310,309,307,2
309,307,308,307,2
309,304,307,307,2
309,300,306,306,2
309,298,304,306,2
309,297,304,307,2
310,299,304,308,2
310,300,304,309,2
310,302,304,309,2
310,304,305,309,2
310,309,305,309,2
310,315,306,308,2
310,319,306,307,2
308,321,305,305,2
308,322,303,303,2
308,321,302,301,2
307,315,300,298,2
307,309,298,297,2
307,304,296,295,2
306,301,296,294,2
305,299,297,294,2
304,297,301,295,2
304,294,305,298,2
305,294,309,301,2
306,295,311,305,2
307,296,313,308,2
308,296,313,311,2
309,296,313,313,2
309,297,312,315,2
309,298,312,316,2
308,298,312,315,2
307,299,311,314,2
306,302,311,313,2
306,306,310,313,2
306,310,310,312,2
307,311,309,312,2
307,308,309,312,2
308,304,309,312,2
309,299,309,313,2
309,296,309,313,2
309,298,308,312,2
307,303,307,311,2
306,307,306,309,2
305,309,305,308,2
305,309,305,307,2
306,306,305,307,2
307,302,305,307,2
307,298,305,308,2
307,294,305,309,2
306,288,305,309,2
305,285,304,310,2
304,291,303,310,2
304,300,303,310,2
304,310,304,310,2
304,317,305,311,2
305,320,306,312,2
305,321,306,312,2
304,319,305,312,2
303,316,305,311,2
302,312,304,310,2
302,307,304,309,2
303,303,304,308,2
304,303,305,308,2
304,308,305,308,2
305,313,305,309,2
305,313,305,310,2
304,309,304,309,2
303,305,303,308,2
302,304,301,307,2
301,305,300,306,2
300,306,300,304,2
300,305,300,303,2
301,302,301,303,2
303,298,303,304,2
304,295,304,304,2
305,292,306,305,2
306,290,307,305,2
307,291,308,306,2
307,295,308,306,2
306,300,308,306,2
305,303,307,305,2
305,306,307,304,2
304,310,307,304,2
304,315,307,305,2
304,321,307,307,2
303,325,307,308,2
303,327,308,310,2
303,328,307,310,2
302,328,307,310,2
302,327,306,309,2
301,326,304,307,2
300,324,303,305,2
299,322,302,302,2
299,319,301,299,2
299,314,300,298,2
299,308,301,298,2
301,299,304,299,2
302,290,307,301,2
304,282,310,304,2
305,279,311,308,2
306,280,311,313,2
306,282,309,316,2
307,287,307,319,2
307,294,306,319,2
307,301,304,318,2
308,305,303,316,2
307,311,302,314,2
307,318,301,312,2
307,323,302,312,2
307,325,304,311,2
307,325,307,312,2
306,324,308,313,2
306,324,309,313,2
306,324,309,313,2
306,323,308,313,2
306,321,308,312,2
306,319,307,311,2
306,317,307,310,2
307,314,307,309,2
308,311,307,308,2
309,304,308,307,2
310,293,308,307,2
311,281,308,307,2
312,269,308,307,2
312,264,308,308,2
313,267,308,308,2
312,276,308,307,2
311,286,307,305,2
310,297,306,305,2
310,305,306,304,2
310,309,305,304,2
310,310,304,303,2
309,309,304,302,2
308,310,305,302,2
308,313,305,303,2
307,318,306,305,2
307,321,308,307,2
308,322,309,308,2
309,322,310,311,2
310,324,310,312,2
309,328,310,313,2
308,331,309,314,2
307,331,308,314,2
305,329,307,315,2
305,323,307,314,2
304,312,307,313,2
305,297,307,312,2
306,279,309,312,2
307,261,310,312,2
307,250,310,311,2
307,248,310,310,2
305,257,308,308,2
304,273,306,306,2
302,291,303,304,2
300,309,300,301,2
298,325,298,300,2
297,335,297,300,2
297,341,298,301,2
298,342,300,303,2
299,340,302,306,2
300,336,305,309,2
302,334,307,312,2
303,331,309,315,2
304,329,311,317,2
304,328,312,318,2
305,327,313,319,2
306,323,313,319,2
306,316,314,320,2
306,308,315,320,2
306,300,315,318,2
305,295,314,316,2
305,294,313,314,2
304,294,311,311,2
303,296,310,309,2
303,302,309,308,2
303,307,308,307,2
303,311,307,307,2
303,313,308,307,2
303,313,308,308,2
303,314,308,309,2
303,312,308,310,2
303,308,308,312,2
303,303,308,312,2
302,299,308,313,2
303,295,309,314,2
303,293,309,314,2
303,292,308,313,2
304,292,307,312,2
305,291,307,312,2
305,289,306,312,2
305,291,306,312,2
305,295,305,312,2
305,299,305,312,2
304,303,305,311,2
303,307,304,310,2
303,310,304,310,2
304,312,304,309,2
304,313,303,307,2
304,314,304,306,2
304,315,304,306,2
304,316,306,307,2
305,316,309,307,2
305,314,311,308,2
305,310,311,309,2
304,303,311,308,2
304,295,311,309,2
305,288,311,309,2
305,282,311,310,2
305,280,311,310,2
305,281,312,309,2
305,284,312,309,2
306,287,312,309,2
306,291,312,308,2
307,295,312,309,2
307,298,311,309,2
306,302,310,310,2
304,306,310,310,2
303,308,309,309,2
303,308,309,309,2
304,307,309,308,2
304,305,309,307,2
304,302,308,306,2
305,301,308,305,2
305,304,307,304,2
304,312,307,303,2
304,321,306,303,2
304,328,306,303,2
304,332,308,302,2
305,331,309,302,2
306,327,311,302,2
307,321,312,302,2
307,314,311,302,2
306,307,309,301,2
306,302,306,301,2
305,299,304,301,2
304,301,302,302,2
305,306,301,303,2
305,310,301,306,2
306,311,301,307,2
306,310,301,308,2
305,308,300,308,2
305,305,299,308,2
305,304,298,307,2
305,306,298,307,2
305,308,299,306,2
306,309,301,305,2
306,307,303,305,2
306,304,306,306,2
307,298,308,308,2
308,292,309,309,2
307,288,310,309,2
307,287,309,309,2
307,288,308,310,2
308,291,308,311,2
309,299,308,311,2
310,310,308,312,2
309,322,307,312,2
308,330,306,311,2
306,332,304,309,2
305,329,303,308,2
304,322,301,308,2
303,316,300,308,2
304,309,299,308,2
305,302,299,309,2
307,292,299,310,2
309,284,299,310,2
309,279,298,309,2
308,279,297,307,2
307,284,298,305,2
306,292,299,305,2
306,299,303,305,2
306,306,307,305,2
306,315,309,307,2
305,323,310,308,2
305,327,310,308,2
304,329,310,308,2
304,329,310,309,2
304,330,309,309,2
306,327,309,309,2
307,321,309,309,2
308,316,309,308,2
309,313,308,308,2
309,310,307,308,2
310,308,307,308,2
311,308,307,307,2
311,309,307,306,2
311,310,308,305,2
309,311,308,304,2
307,310,308,303,2
306,308,308,302,2
306,307,308,302,2
306,306,309,302,2
306,308,309,303,2
306,311,309,304,2
306,314,310,306,2
305,316,310,307,2
305,317,308,309,2
303,316,307,309,2
303,313,305,308,2
302,307,305,307,2
301,302,304,305,2
301,298,304,304,2
302,297,304,304,2
303,296,304,303,2
304,296,304,302,2
305,294,304,302,2
307,291,304,303,2
307,288,304,303,2
308,286,304,303,2
308,285,304,303,2
308,285,302,302,2
306,285,301,301,2
303,289,299,299,2
302,297,299,298,2
301,304,300,297,2
300,308,302,298,2
301,309,305,300,2
302,307,308,304,2
303,303,310,308,2
304,298,311,310,2
305,295,311,311,2
305,295,310,311,2
304,299,309,309,2
305,305,307,308,2
305,310,305,305,2
305,314,303,303,2
304,316,301,302,2
305,317,300,300,2
305,319,299,299,2
305,324,298,298,2
305,328,297,297,2
305,329,297,297,2
305,326,298,298,2
306,319,299,299,2
306,308,302,301,2
307,295,306,303,2
308,286,310,305,2
308,282,313,305,2
307,283,314,305,2
305,286,313,305,2
303,292,312,305,2
302,298,312,305,2
300,306,311,305,2
299,315,310,306,2
297,323,310,307,2
297,330,310,307,2
298,334,309,308,2
298,335,309,308,2
299,336,309,306,2
299,335,309,305,2
299,334,309,304,2
300,333,309,304,2
300,332,309,304,2
301,329,310,303,2
302,321,310,302,2
303,312,309,302,2
304,302,309,301,2
304,291,308,300,2
305,280,308,299,2
305,272,308,299,2
305,268,307,298,2
305,270,306,297,2
305,279,305,296,2
305,290,305,296,2
305,299,304,297,2
305,305,304,298,2
306,309,304,298,2
307,310,303,299,2
308,311,304,299,2
309,312,304,300,2
309,312,304,299,2
309,308,304,299,2
309,304,304,300,2
309,301,304,301,2
310,299,304,302,2
310,300,305,302,2
310,303,305,302,2
310,309,306,303,2
311,315,306,303,2
311,318,306,304,2
311,320,307,305,2
312,319,307,305,2
312,317,306,306,2
312,315,305,305,2
312,313,303,302,2
311,311,302,301,2
309,311,302,299,2
308,313,302,298,2
306,314,302,296,2
305,315,304,297,2
306,315,307,299,2
308,312,309,303,2
309,308,311,305,2
309,305,311,305,2
309,306,311,306,2
308,310,309,306,2
308,315,307,307,2
308,319,305,307,2
308,321,303,308,2
308,321,302,308,2
307,320,300,307,2
305,317,299,306,2
305,315,299,305,2
304,312,300,305,2
304,307,302,306,2
304,303,306,307,2
304,301,309,306,2
304,300,310,306,2
304,300,309,306,2
304,300,308,304,2
304,299,307,304,2
304,299,306,303,2
303,298,306,303,2
303,296,307,303,2
304,291,308,303,2
304,282,310,303,2
306,270,311,303,2
306,256,311,302,2
306,242,311,301,2
306,230,310,299,2
306,225,308,298,2
306,233,307,300,2
306,251,306,301,2
305,275,305,303,2
304,299,305,304,2
304,317,304,304,2
304,328,304,304,2
305,334,304,304,2
306,334,304,305,2
307,328,305,305,2
307,320,305,306,2
307,317,304,306,2
307,317,304,306,2
307,318,303,306,2
307,320,303,306,2
306,322,304,306,2
305,323,304,307,2
305,322,306,307,2
304,318,306,306,2
303,312,307,306,2
304,308,308,306,2
305,306,309,306,2
306,305,310,305,2
307,306,309,305,2
307,308,308,304,2
308,312,308,305,2
308,319,308,306,2
308,328,307,307,2
307,331,306,308,2
307,328,305,308,2
307,322,304,306,2
307,316,303,304,2
307,311,302,303,2
307,308,302,302,2
308,306,302,301,2
308,305,302,300,2
308,303,302,299,2
307,302,303,299,2
306,301,303,298,2
305,300,303,298,2
305,300,302,298,2
305,299,301,298,2
305,300,301,298,2
306,302,301,298,2
306,302,303,298,2
306,300,304,298,2
307,299,305,300,2
307,297,306,302,2
308,295,306,304,2
308,293,306,304,2
308,291,305,305,2
308,289,305,306,2
309,290,305,306,2
309,292,305,307,2
308,292,305,307,2
308,292,305,308,2
307,291,305,309,2
307,292,306,309,2
308,295,307,311,2
308,301,307,312,2
309,309,307,313,2
309,317,306,314,2
309,324,305,314,2
309,325,303,313,2
309,323,302,312,2
308,319,302,310,2
308,310,304,308,2
308,299,306,305,2
308,288,309,304,2
308,280,310,302,2
308,276,311,302,2
307,279,310,301,2
305,289,309,300,2
304,303,308,300,2
303,318,306,301,2
303,331,306,302,2
303,340,305,303,2
303,346,305,304,2
303,348,306,305,2
303,345,307,306,2
302,336,308,307,2
302,325,309,307,2
303,315,309,306,2
303,306,309,304,2
303,298,308,302,2
302,290,307,299,2
302,284,305,298,2
303,281,306,297,2
304,280,306,296,2
306,281,307,297,2
308,284,308,298,2
310,289,308,300,2
310,293,308,302,2
310,295,308,304,2
309,298,308,305,2
309,303,307,306,2
308,307,306,306,2
307,310,305,305,2
306,313,304,305,2
306,316,304,305,2
306,320,304,304,2
305,324,304,304,2
305,324,304,305,2
305,319,304,306,2
306,307,305,307,2
306,293,306,307,2
307,282,307,307,2
308,274,308,306,2
308,272,308,305,2
307,276,308,305,2
307,283,308,304,2
307,288,308,304,2
306,294,307,304,2
307,300,307,304,2
307,308,306,303,2
307,315,306,302,2
307,322,304,300,2
307,330,303,297,2
305,336,301,295,2
304,341,300,294,2
304,342,299,294,2
304,340,299,294,2
304,337,301,296,2
305,332,303,298,2
305,326,305,302,2
305,320,306,305,2
306,315,307,309,2
307,309,307,310,2
308,303,307,309,2
309,298,307,308,2
310,293,306,307,2
310,291,306,305,2
310,292,305,304,2
311,296,304,304,2
311,303,304,304,2
312,311,304,304,2
311,317,303,303,2
312,323,303,303,2
312,326,303,304,2
312,326,303,305,2
312,325,303,306,2
313,323,303,307,2
313,322,304,307,2
312,323,305,307,2
312,322,307,307,2
312,316,310,307,2
311,310,311,307,2
311,303,311,307,2
310,298,310,306,2
310,292,309,304,2
310,288,309,302,2
311,286,308,301,2
311,287,308,299,2
310,291,307,298,2
310,296,307,297,2
309,303,306,297,2
308,312,306,297,2
307,320,306,299,2
307,325,306,300,2
306,324,306,302,2
306,318,306,303,2
306,310,307,304,2
307,301,309,305,2
308,292,311,306,2
309,284,313,306,2
311,277,314,307,2
312,275,315,307,2
311,279,315,306,2
311,288,315,306,2
310,297,315,305,2
309,307,313,304,2
308,318,311,304,2
307,329,309,304,2
306,336,306,303,2
304,337,304,303,2
302,335,302,302,2
300,333,302,301,2
300,331,301,301,2
300,327,300,300,2
301,323,301,300,2
302,317,302,300,2
303,312,304,300,2
305,309,305,301,2
306,304,306,301,2
306,300,307,302,2
306,297,307,303,2
306,294,308,305,2
307,292,308,308,2
307,292,308,309,2
307,295,308,310,2
306,298,307,310,2
305,301,307,309,2
303,302,307,307,2
303,303,307,306,2
302,303,307,306,2
301,303,307,306,2
302,302,308,307,2
302,302,308,308,2
303,302,307,308,2
304,303,306,308,2
304,303,305,307,2
305,303,303,306,2
304,306,302,305,2
304,313,301,303,2
303,320,302,302,2
304,325,304,302,2
304,324,307,304,2
306,320,310,307,2
308,308,313,309,2
310,293,315,309,2
311,275,317,309,2
312,257,318,309,2
312,244,319,308,2
311,238,319,306,2
309,244,319,305,2
307,260,317,305,2
304,283,316,306,2
302,307,315,307,2
301,328,315,308,2
300,341,314,309,2
300,343,313,309,2
300,339,313,308,2
301,329,313,307,2
301,319,313,307,2
302,310,313,308,2
303,305,314,308,2
305,307,313,309,2
306,314,313,309,2
306,323,313,308,2
306,332,311,308,2
306,337,310,308,2
304,340,309,307,2
304,339,308,306,2
303,337,308,306,2
303,334,307,306,2
303,331,307,307,2
303,327,306,307,2
303,323,305,308,2
304,318,305,308,2
305,313,305,308,2
305,308,305,308,2
306,304,305,308,2
307,300,305,309,2
308,298,305,309,2
308,297,305,309,2
307,298,306,308,2
307,298,308,307,2
306,300,310,305,2
306,300,311,305,2
307,299,311,304,2
308,296,311,303,2
308,293,310,302,2
309,289,310,302,2
309,289,310,302,2
309,290,310,302,2
308,289,310,302,2
307,290,310,303,2
307,292,310,304,2
306,295,310,305,2
306,295,311,307,2
306,295,312,307,2
306,294,312,307,2
306,294,312,306,2
304,298,312,304,2
303,303,311,302,2
302,307,308,300,2
301,309,306,298,2
300,310,304,296,2
300,308,303,295,2
300,303,304,295,2
301,295,307,297,2
302,288,309,300,2
304,281,311,304,2
306,276,313,308,2
307,272,315,312,2
309,270,315,314,2
309,272,315,315,2
309,282,315,316,2
308,302,314,317,2
306,322,313,318,2
305,335,312,317,2
303,338,311,316,2
302,335,310,314,2
302,329,309,313,2
303,321,309,313,2
303,313,309,313,2
304,308,309,313,2
304,307,308,313,2
303,311,307,313,2
303,318,306,312,2
302,325,305,311,2
302,330,305,310,2
302,330,306,309,2
302,326,306,309,2
303,320,306,309,2
304,313,306,310,2
305,306,306,311,2
306,302,307,312,2
307,302,308,313,2
307,304,308,313,2
306,305,309,312,2
305,306,309,312,2
306,306,310,312,2
306,305,310,311,2
305,303,310,311,2
305,300,310,311,2
305,296,309,310,2
305,293,308,310,2
305,289,308,310,2
306,284,308,310,2
307,282,307,309,2
307,282,307,308,2
308,287,308,307,2
308,294,308,307,2
308,301,308,308,2
308,306,308,309,2
309,309,309,310,2
309,312,311,311,2
310,313,312,313,2
309,312,313,313,2
308,310,313,314,2
307,308,313,314,2
306,308,312,314,2
306,308,312,314,2
306,308,312,313,2
305,309,312,312,2
304,309,312,311,2
304,308,312,311,2
304,304,312,311,2
304,297,313,311,2
304,285,313,310,2
304,270,313,309,2
304,254,313,307,2
305,237,313,306,2
305,224,314,305,2
306,220,314,305,2
306,230,313,304,2
305,252,312,305,2
304,282,310,306,2
303,312,308,306,2
302,339,306,306,2
300,358,304,306,2
299,368,302,305,2
298,367,302,304,2
297,356,302,302,2
297,342,304,300,2
297,331,306,298,2
297,325,307,298,2
299,322,307,298,2
299,318,307,298,2
300,312,306,298,2
301,305,305,297,2
301,298,304,297,2
302,294,303,298,2
302,295,302,298,2
301,297,301,299,2
300,301,301,299,2
300,304,302,299,2
301,305,304,299,2
304,305,306,299,2
307,306,309,299,2
309,307,310,299,2
310,310,310,300,2
311,316,310,301,2
311,318,310,303,2
311,317,311,305,2
311,314,311,306,2
311,312,311,308,2
310,311,310,309,2
310,307,309,310,2
309,302,309,310,2
308,297,308,309,2
307,294,306,309,2
306,294,305,309,2
304,297,304,308,2
303,302,303,307,2
301,307,302,307,2
299,312,302,307,2
299,315,302,309,2
299,317,303,312,2
301,316,305,314,2
303,314,306,315,2
304,311,307,314,2
305,308,307,312,2
306,306,306,310,2
307,305,305,308,2
308,303,305,306,2
308,302,304,304,2
308,301,304,303,2
308,298,303,302,2
309,295,304,301,2
309,293,303,301,2
310,294,304,302,2
310,295,304,303,2
311,294,304,304,2
310,291,304,305,2
309,289,303,304,2
308,290,303,304,2
308,288,303,303,2
307,286,303,302,2
307,284,303,301,2
307,284,303,301,2
306,288,303,301,2
306,295,303,301,2
305,303,304,301,2
304,309,304,302,2
304,313,304,302,2
303,314,303,302,2
302,316,303,302,2
301,320,302,301,2
299,325,301,300,2
299,332,301,300,2
299,337,301,301,2
301,341,302,301,2
303,343,303,302,2
305,342,305,303,2
307,339,306,304,2
309,333,306,305,2
310,326,305,305,2
310,321,304,305,2
310,317,302,305,2
310,313,300,304,2
309,306,298,302,2
308,299,295,299,2
307,294,293,296,2
307,290,293,294,2
306,288,293,292,2
306,289,296,291,2
305,292,297,290,2
305,295,299,291,2
306,296,302,293,2
307,295,304,297,2
308,293,306,300,2
311,288,308,303,2
313,282,310,304,2
315,277,310,305,2
317,275,310,305,2
316,278,309,304,2
315,284,308,302,2
312,289,306,301,2
309,296,304,300,2
307,306,303,300,2
306,317,303,302,2
306,327,303,304,2
306,333,303,305,2
306,336,303,307,2
306,335,304,309,2
307,332,305,309,2
307,328,306,309,2
308,324,306,308,2
307,320,306,306,2
306,319,306,304,2
305,318,306,303,2
304,318,305,302,2
304,318,305,302,2
304,317,304,302,2
304,314,303,302,2
305,310,303,302,2
306,304,304,303,2
308,298,305,304,2
310,290,306,304,2
311,284,308,305,2
311,280,308,306,2
310,278,309,306,2
308,279,308,307,2
307,283,307,308,2
306,290,305,309,2
306,299,304,311,2
305,310,303,312,2
305,320,303,313,2
305,325,303,313,2
305,327,303,313,2
306,325,303,312,2
306,322,303,311,2
308,320,304,311,2
309,321,304,310,2
309,324,305,309,2
309,324,306,309,2
309,321,305,308,2
308,316,305,308,2
307,309,304,307,2
306,301,303,306,2
305,292,303,304,2
305,283,303,303,2
305,276,303,302,2
305,273,303,301,2
305,276,303,300,2
305,283,303,300,2
306,291,303,299,2
306,298,303,298,2
305,303,303,298,2
305,308,304,298,2
306,310,304,298,2
307,310,305,297,2
309,307,305,297,2
310,305,307,298,2
312,304,308,301,2
313,308,309,304,2
313,316,309,307,2
312,326,309,310,2
310,333,308,311,2
307,335,307,311,2
306,334,306,311,2
306,332,306,311,2
306,329,306,310,2
306,327,305,310,2
306,324,304,308,2
306,322,302,306,2
305,319,300,304,2
305,316,298,303,2
304,312,296,301,2
304,309,295,300,2
304,307,297,299,2
305,308,300,299,2
305,311,305,300,2
306,313,309,303,2
307,312,311,306,2
307,306,312,309,2
308,294,313,312,2
309,276,313,314,2
310,259,314,315,2
311,249,313,316,2
311,249,313,316,2
310,261,312,315,2
307,277,310,313,2
304,294,308,310,2
302,308,306,307,2
300,318,304,305,2
300,324,303,303,2
300,324,303,302,2
300,321,303,302,2
301,318,304,302,2
302,316,305,302,2
302,316,306,303,2
303,317,307,303,2
303,319,307,303,2
303,319,307,304,2
304,319,308,305,2
304,319,309,307,2
305,317,309,308,2
306,314,309,309,2
306,308,310,309,2
307,302,310,310,2
308,295,310,310,2
309,290,310,311,2
309,288,310,311,2
308,289,310,310,2
307,293,309,310,2
306,299,308,309,2
306,309,307,309,2
305,317,307,309,2
304,322,306,309,2
304,321,306,309,2
303,319,306,309,2
301,317,305,308,2
300,317,305,307,2
298,317,305,305,2
298,315,305,304,2
299,311,306,305,2
300,305,307,304,2
301,300,308,305,2
302,296,310,306,2
303,292,311,308,2
304,291,312,310,2
304,292,312,310,2
304,292,312,310,2
304,289,312,309,2
303,284,311,307,2
302,278,310,305,2
301,273,309,304,2
301,272,309,303,2
301,275,310,303,2
302,281,310,303,2
302,291,311,304,2
303,301,311,305,2
304,309,312,307,2
305,312,313,308,2
307,311,315,310,2
307,306,316,310,2
308,301,317,309,2
309,296,317,308,2
309,292,316,305,2
308,287,315,303,2
306,281,313,300,2
305,274,310,298,2
304,271,307,296,2
303,273,305,294,2
302,281,302,292,2
300,292,301,290,2
299,303,300,289,2
298,315,299,289,2
297,324,300,291,2
298,329,301,294,2
301,326,301,297,2
303,316,302,299,2
306,303,303,301,2
308,291,305,303,2
309,282,308,305,2
310,278,312,306,2
311,281,315,306,2
310,291,316,307,2
310,302,316,307,2
309,313,316,307,2
308,320,315,307,2
307,325,314,307,2
307,330,313,308,2
306,339,312,309,2
304,346,310,310,2
303,350,310,310,2
303,350,309,309,2
303,347,309,307,2
304,341,309,306,2
304,334,309,305,2
305,329,309,305,2
306,323,310,305,2
306,314,311,305,2
306,304,311,304,2
306,297,311,304,2
307,290,312,303,2
307,286,312,302,2
306,284,312,302,2
306,286,311,301,2
306,291,310,299,2
304,303,309,299,2
304,318,308,300,2
303,329,307,302,2
303,332,308,302,2
302,329,308,303,2
302,320,308,304,2
303,307,309,303,2
304,295,309,302,2
305,285,309,302,2
305,279,310,303,2
306,278,310,304,2
306,283,311,306,2
306,294,311,307,2
306,307,311,308,2
305,319,311,307,2
306,328,311,307,2
305,334,311,307,2
304,335,310,307,2
304,332,310,307,2
304,324,310,307,2
304,316,310,306,2
304,309,310,305,2
304,305,311,304,2
305,302,310,303,2
305,299,310,302,2
305,294,310,301,2
304,290,310,301,2
305,288,310,300,2
306,285,311,301,2
307,284,311,301,2
308,284,311,302,2
309,286,311,304,2
309,288,311,307,2
308,289,311,309,2
307,290,310,311,2
306,296,309,312,2
305,309,307,311,2
305,323,306,310,2
304,335,304,308,2
304,341,301,306,2
302,341,300,303,2
301,339,299,300,2
300,336,301,298,2
300,332,303,298,2
301,328,307,299,2
303,323,310,301,2
305,315,313,304,2
307,307,315,307,2
310,298,317,310,2
312,292,318,311,2
314,290,318,311,2
314,293,318,311,2
314,303,316,310,2
312,317,315,311,2
310,331,313,312,2
308,337,312,312,2
307,337,311,312,2
306,333,310,312,2
305,325,309,313,2
306,314,310,313,2
306,301,310,313,2
307,289,311,312,2
308,280,312,312,2
308,274,312,312,2
308,273,311,312,2
307,279,309,312,2
306,289,307,311,2
305,301,306,310,2
305,310,306,309,2
304,316,306,308,2
304,319,306,308,2
302,319,306,307,2
302,316,306,306,2
301,312,307,305,2
301,309,307,305,2
303,305,308,306,2
304,302,309,306,2
306,298,310,306,2
307,293,311,307,2
309,285,312,308,2
309,279,312,308,2
310,280,311,309,2
309,288,310,309,2
308,302,309,308,2
306,312,306,308,2
303,317,303,306,2
300,322,300,304,2
298,326,299,304,2
298,330,298,305,2
300,331,299,307,2
301,330,301,308,2
303,326,303,310,2
304,322,305,311,2
304,318,307,312,2
305,314,309,312,2
305,311,312,311,2
305,309,315,311,2
305,309,316,312,2
305,309,316,312,2
305,310,315,313,2
305,309,314,314,2
304,306,313,315,2
305,301,312,315,2
306,295,312,314,2
307,290,312,313,2
306,288,311,312,2
306,290,310,311,2
305,297,309,309,2
304,307,309,309,2
302,319,308,309,2
302,328,308,310,2
303,333,309,311,2
303,332,310,312,2
304,329,311,314,2
304,323,313,317,2
305,317,313,319,2
305,311,314,319,2
304,306,314,319,2
302,302,313,319,2
301,299,313,318,2
300,298,311,318,2
299,301,310,317,2
299,307,308,316,2
299,314,307,315,2
299,318,307,315,2
300,320,307,315,2
300,319,307,314,2
301,318,306,313,2
302,313,305,313,2
302,306,304,312,2
302,295,304,311,2
303,281,303,309,2
303,268,304,307,2
304,259,306,305,2
305,257,308,305,2
306,265,310,306,2
307,279,311,308,2
307,295,312,310,2
306,308,312,311,2
306,317,312,311,2
306,322,312,310,2
307,321,313,309,2
308,316,313,309,2
309,308,313,309,2
309,300,313,309,2
310,295,313,310,2
311,294,313,311,2
312,299,313,312,2
310,308,311,313,2
308,318,310,313,2
305,326,308,313,2
304,333,308,313,2
304,338,307,314,2
304,342,307,315,2
304,342,306,315,2
305,338,306,314,2
304,334,306,313,2
304,330,305,312,2
303,326,305,311,2
302,323,304,310,2
301,323,304,309,2
300,323,304,309,2
301,322,304,309,2
301,321,304,310,2
302,319,304,310,2
302,317,304,310,2
302,315,304,310,2
303,313,304,310,2
303,310,304,309,2
304,305,303,307,2
304,297,303,307,2
306,289,303,307,2
307,282,304,308,2
308,278,306,310,2
309,277,309,311,2
309,281,311,312,2
307,288,313,312,2
306,293,312,312,2
305,295,312,313,2
305,295,312,313,2
305,294,313,313,2
306,295,313,313,2
307,298,314,312,2
306,305,314,312,2
305,314,313,311,2
304,323,310,311,2
303,329,308,311,2
302,332,306,311,2
302,331,305,311,2
301,324,304,310,2
302,310,304,309,2
304,291,304,307,2
306,272,306,306,2
309,257,307,306,2
310,251,308,306,2
312,256,309,306,2
312,273,308,307,2
311,295,307,308,2
309,319,306,310,2
307,337,305,310,2
304,346,304,311,2
303,346,304,310,2
302,340,305,309,2
302,330,305,307,2
302,322,305,307,2
303,318,306,307,2
303,318,307,307,2
302,321,307,307,2
303,327,307,308,2
303,329,307,306,2
303,328,307,305,2
303,326,306,303,2
304,324,306,302,2
304,324,306,302,2
305,324,305,302,2
305,326,303,303,2
306,328,302,303,2
307,327,303,304,2
307,321,304,304,2
307,310,306,304,2
308,297,308,306,2
309,286,311,310,2
309,283,313,314,2
310,287,314,318,2
310,294,314,321,2
309,299,313,322,2
309,303,313,323,2
309,306,311,323,2
309,307,310,321,2
308,307,309,320,2
307,307,307,318,2
305,308,306,317,2
304,311,305,315,2
303,314,304,314,2
302,315,304,313,2
302,314,304,313,2
303,312,305,313,2
304,310,307,313,2
305,307,311,314,2
307,305,313,314,2
308,305,314,314,2
308,305,314,314,2
307,303,313,313,2
307,301,313,312,2
306,296,313,312,2
305,291,312,310,2
305,286,311,308,2
304,282,310,306,2
304,280,309,305,2
304,282,308,303,2
303,289,307,301,2
302,300,306,300,2
301,312,304,300,2
300,322,304,301,2
300,330,303,302,2
300,334,303,303,2
301,334,303,305,2
302,333,304,306,2
303,330,304,308,2
303,326,304,309,2
302,320,304,310,2
303,311,304,310,2
304,300,304,310,2
305,291,304,309,2
307,286,304,309,2
309,285,305,307,2
310,286,305,306,2
310,290,305,305,2
311,297,305,304,2
311,306,304,304,2
309,314,303,305,2
308,321,303,307,2
308,327,304,309,2
308,332,305,311,2
308,335,305,312,2
308,338,306,312,2
308,341,306,312,2
308,344,307,312,2
309,346,308,311,2
310,347,308,311,2
310,347,308,311,2
310,341,306,312,2
308,327,304,312,2
307,310,302,311,2
305,295,301,311,2
305,282,301,310,2
305,273,301,310,2
306,266,302,309,2
307,262,303,307,2
308,261,305,307,2
309,260,308,306,2
310,260,309,305,2
309,262,308,303,2
308,266,307,302,2
307,272,305,301,2
305,281,303,300,2
304,292,303,300,2
303,307,302,301,2
303,324,303,303,2
303,340,305,306,2
304,350,307,310,2
306,353,308,314,2
307,349,309,315,2
306,343,308,315,2
305,336,307,314,2
305,329,306,313,2
305,323,306,311,2
305,318,306,311,2
305,312,306,311,2
306,305,307,311,2
308,299,307,311,2
309,294,307,312,2
310,291,307,313,2
311,294,306,313,2
310,300,305,313,2
310,305,304,313,2
309,307,304,312,2
309,306,303,311,2
309,304,304,310,2
309,301,304,310,2
309,299,304,310,2
309,299,304,311,2
309,302,305,312,2
310,305,306,313,2
310,307,306,314,2
310,307,306,314,2
311,306,306,313,2
310,304,306,313,2
311,301,306,313,2
311,300,306,313,2
311,301,306,313,2
311,304,307,314,2
311,308,307,315,2
311,311,307,315,2
310,315,308,316,2
309,321,308,317,2
308,325,307,318,2
307,327,306,318,2
306,327,304,317,2
306,324,303,316,2
306,320,302,314,2
306,312,302,312,2
307,300,302,310,2
307,282,302,307,2
308,264,303,305,2
308,253,304,304,2
309,252,304,304,2
307,260,304,304,2
305,275,303,304,2
304,292,302,305,2
304,308,302,307,2
304,320,303,308,2
303,327,303,311,2
304,328,304,313,2
305,326,305,314,2
306,321,306,315,2
308,316,307,315,2
309,312,308,314,2
310,309,308,313,2
310,310,307,311,2
309,313,305,310,2
309,314,303,308,2
308,313,302,308,2
309,309,302,308,2
310,303,303,308,2
311,295,305,309,2
312,286,308,309,2
312,280,311,309,2
313,278,313,310,2
313,281,313,310,2
313,288,313,311,2
313,297,311,311,2
312,307,311,313,2
311,316,310,314,2
311,323,310,314,2
310,327,309,315,2
311,327,309,316,2
311,324,309,316,2
312,318,308,316,2
312,308,308,316,2
312,296,308,314,2
312,281,308,311,2
313,267,309,308,2
314,258,310,306,2
314,257,311,304,2
313,267,311,303,2
311,283,311,303,2
309,300,310,303,2
307,315,309,302,2
305,325,307,302,2
305,331,306,302,2
305,332,305,301,2
305,332,304,301,2
304,331,302,300,2
303,329,301,299,2
303,325,301,298,2
302,320,302,299,2
302,314,303,300,2
303,307,305,303,2
304,300,306,306,2
305,294,306,308,2
305,289,306,308,2
304,287,305,307,2
304,289,304,306,2
304,295,303,306,2
304,305,303,306,2
304,315,302,305,2
304,322,302,305,2
304,323,303,305,2
304,320,303,305,2
304,315,304,306,2
305,312,305,308,2
305,311,306,310,2
306,310,307,311,2
306,309,307,311,2
304,308,307,310,2
303,307,306,310,2
302,306,306,310,2
302,304,306,310,2
302,304,306,310,2
302,305,305,310,2
302,308,304,310,2
301,311,303,309,2
301,312,302,307,2
301,311,301,305,2
301,306,300,303,2
301,300,299,300,2
300,293,299,297,2
300,288,299,296,2
302,282,300,297,2
303,277,301,299,2
304,274,303,303,2
306,272,305,307,2
309,271,307,311,2
310,271,309,315,2
311,276,310,318,2
311,287,310,319,2
309,300,309,319,2
306,314,307,319,2
304,324,306,318,2
303,329,305,316,2
303,328,305,315,2
303,322,304,313,2
303,315,304,313,2
303,310,303,313,2
304,307,303,313,2
303,308,303,312,2
303,310,303,310,2
303,311,302,307,2
302,311,302,305,2
302,309,301,303,2
302,307,302,301,2
301,308,302,300,2
300,315,303,300,2
300,324,304,301,2
300,331,306,304,2
300,333,306,307,2
301,332,307,311,2
303,328,307,315,2
304,324,306,316,2
304,319,305,316,2
304,313,304,313,2
304,308,303,310,2
304,302,303,305,2
304,294,303,300,2
304,286,303,296,2
305,280,304,293,2
306,276,306,292,2
307,274,307,293,2
308,275,309,298,2
310,277,311,305,2
311,282,312,313,2
310,291,312,318,2
309,305,310,321,2
307,320,307,322,2
305,328,303,322,2
303,330,300,321,2
300,327,298,318,2
299,321,297,316,2
299,318,297,315,2
300,317,299,315,2
301,317,302,316,2
302,318,304,319,2
304,319,306,321,2
305,318,307,322,2
306,316,307,323,2
306,314,307,323,2
307,308,308,323,2
307,302,308,321,2
308,294,308,320,2
309,287,308,318,2
310,281,308,316,2
309,280,308,315,2
308,282,308,316,2
307,288,308,317,2
305,296,308,318,2
305,302,308,319,2
304,307,307,319,2
304,312,307,318,2
303,316,307,317,2
304,320,307,317,2
304,324,306,316,2
305,325,306,315,2
305,323,305,314,2
306,318,304,313,2
307,314,303,313,2
307,314,302,313,2
307,317,300,314,2
307,321,299,315,2
307,326,299,315,2
307,329,299,315,2
308,329,298,314,2
308,325,298,314,2
308,319,298,314,2
308,314,297,313,2
307,310,298,313,2
307,308,299,312,2
306,308,301,311,2
306,307,303,310,2
307,305,305,309,2
308,303,306,309,2
310,302,307,309,2
311,306,306,310,2
311,312,305,310,2
310,313,303,310,2
307,308,302,309,2
305,298,302,308,2
304,285,303,307,2
304,274,304,308,2
305,264,306,308,2
306,258,307,308,2
307,262,309,308,2
307,273,310,309,2
307,286,310,310,2
308,295,309,311,2
308,302,308,310,2
308,309,307,310,2
308,316,306,309,2
307,324,305,308,2
306,333,303,306,2
305,336,302,304,2
305,336,301,300,2
306,333,299,297,2
306,331,298,294,2
306,330,297,293,2
306,332,297,293,2
305,332,297,295,2
304,329,298,296,2
303,324,299,298,2
303,319,301,301,2
304,315,303,305,2
304,313,305,309,2
305,314,306,312,2
305,312,306,314,2
306,308,305,315,2
305,305,305,315,2
306,303,305,316,2
307,303,305,316,2
309,304,306,316,2
310,307,308,317,2
311,314,308,316,2
310,320,307,314,2
309,324,306,313,2
308,324,305,312,2
307,323,304,311,2
307,322,304,311,2
307,321,304,311,2
308,319,305,310,2
308,318,304,310,2
308,315,304,310,2
308,311,304,311,2
307,305,304,310,2
307,298,304,310,2
307,291,305,310,2
306,283,305,309,2
306,276,306,308,2
306,270,306,307,2
306,268,306,307,2
306,267,305,308,2
305,269,305,308,2
305,277,304,309,2
305,290,303,310,2
303,305,302,309,2
302,320,301,307,2
301,331,300,305,2
300,339,300,303,2
300,343,301,302,2
300,343,304,301,2
300,341,306,301,2
300,336,308,301,2
300,331,308,302,2
301,325,308,303,2
302,321,308,304,2
305,315,309,305,2
307,310,309,307,2
308,305,310,308,2
309,302,311,309,2
310,300,311,310,2
311,298,312,310,2
310,294,312,311,2
309,290,311,310,2
308,288,310,309,2
308,288,309,309,2
307,291,310,308,2
307,294,309,308,2
307,298,308,307,2
306,302,307,305,2
306,305,307,305,2
305,305,306,304,2
304,302,305,304,2
304,296,305,303,2
304,292,306,304,2
305,293,306,304,2
305,300,307,305,2
306,308,309,306,2
306,315,309,306,2
306,319,309,308,2
306,320,309,308,2
307,319,308,308,2
307,314,308,308,2
307,310,307,308,2
307,309,306,307,2
306,307,304,306,2
304,301,303,304,2
303,292,302,302,2
303,281,301,300,2
303,271,302,298,2
303,264,303,297,2
304,260,304,295,2
304,263,303,292,2
303,272,303,291,2
303,282,302,290,2
303,287,301,290,2
304,288,301,290,2
305,288,302,291,2
306,289,304,293,2
307,293,306,295,2
308,302,307,298,2
308,314,308,301,2
307,327,309,304,2
307,337,309,307,2
306,344,308,309,2
305,348,308,310,2
304,347,307,310,2
304,342,305,308,2
303,336,304,306,2
302,330,303,305,2
301,325,302,304,2
301,320,301,304,2
301,313,301,304,2
302,307,302,306,2
303,303,303,308,2
305,301,306,310,2
307,301,308,312,2
308,302,309,313,2
308,304,309,313,2
307,306,308,313,2
305,304,305,311,2
303,301,304,309,2
302,301,303,307,2
302,305,304,306,2
302,310,307,305,2
303,314,309,305,2
303,317,310,305,2
302,319,310,304,2
302,319,309,304,2
302,317,308,305,2
302,312,308,306,2
302,305,308,306,2
303,296,309,308,2
304,287,310,308,2
305,279,310,309,2
306,273,311,309,2
307,266,311,309,2
309,263,312,310,2
311,267,312,313,2
313,278,311,316,2
314,289,310,318,2
313,297,308,320,2
312,304,306,321,2
309,312,304,321,2
306,321,302,320,2
305,327,301,318,2
304,330,300,316,2
304,330,299,314,2
304,326,299,312,2
304,321,299,311,2
306,314,300,311,2
306,307,301,311,2
307,300,302,311,2
308,294,303,311,2
308,287,304,312,2
308,278,304,312,2
308,271,304,311,2
307,269,304,310,2
305,271,303,308,2
304,278,302,307,2
304,289,301,306,2
303,301,301,305,2
302,311,301,304,2
302,315,301,304,2
302,317,301,305,2
303,317,301,307,2
304,317,301,309,2
304,318,301,311,2
305,319,301,312,2
305,319,301,310,2
304,318,300,309,2
303,319,299,308,2
303,320,297,307,2
302,318,297,306,2
302,314,295,303,2
301,310,294,302,2
300,308,293,301,2
300,306,295,300,2
300,303,297,300,2
301,301,300,302,2
302,299,302,306,2
303,299,304,310,2
305,299,305,313,2
305,299,305,314,2
305,301,304,314,2
304,304,303,313,2
303,311,302,312,2
302,319,301,310,2
302,327,300,308,2
301,330,298,307,2
301,327,298,306,2
301,319,298,306,2
301,311,301,306,2
302,306,305,308,2
303,305,309,309,2
304,307,310,310,2
304,309,311,311,2
304,310,310,310,2
303,310,309,309,2
302,309,307,307,2
301,308,306,306,2
300,307,305,305,2
300,305,304,305,2
300,303,304,305,2
301,301,304,306,2
301,297,304,307,2
301,290,304,307,2
302,277,304,306,2
303,263,305,306,2
304,248,307,307,2
306,239,308,309,2
308,238,310,311,2
307,250,310,312,2
306,274,309,311,2
304,302,307,311,2
302,327,306,311,2
301,345,305,310,2
300,356,304,310,2
300,360,304,309,2
300,358,303,309,2
301,350,302,308,2
301,339,302,308,2
302,328,301,307,2
303,319,302,307,2
304,313,301,307,2
304,311,301,308,2
305,311,301,306,2
305,311,300,306,2
305,311,300,306,2
306,311,300,307,2
307,312,302,309,2
308,313,303,312,2
309,312,304,313,2
309,312,304,314,2
308,312,302,313,2
308,312,301,312,2
306,312,298,311,2
305,314,297,311,2
304,318,296,310,2
304,320,297,311,2
304,321,299,311,2
305,320,301,313,2
306,317,303,314,2
307,314,304,316,2
309,311,305,317,2
310,309,306,317,2
312,308,306,317,2
313,309,307,317,2
313,311,307,317,2
312,312,307,317,2
311,311,307,317,2
309,309,305,317,2
308,306,304,315,2
307,302,303,313,2
306,297,302,311,2
305,294,301,309,2
306,294,301,309,2
306,295,301,308,2
306,296,302,308,2
306,294,302,308,2
305,291,303,309,2
304,289,305,310,2
304,288,308,311,2
305,290,310,312,2
306,293,311,312,2
307,297,311,312,2
307,301,310,312,2
307,305,309,311,2
307,306,309,311,2
307,307,308,311,2
306,306,308,310,2
306,306,307,309,2
306,305,307,308,2
305,305,306,307,2
305,303,305,305,2
305,300,304,304,2
305,296,304,303,2
305,292,304,302,2
305,291,304,303,2
305,295,306,304,2
305,301,308,306,2
305,307,309,308,2
306,310,310,307,2
306,308,309,307,2
306,302,308,305,2
307,294,306,304,2
307,286,305,302,2
308,282,304,301,2
307,281,303,301,2
307,284,303,301,2
307,292,303,303,2
307,303,303,304,2
306,316,303,304,2
305,326,303,304,2
305,335,303,304,2
304,340,304,304,2
304,342,305,305,2
306,340,306,306,2
308,337,308,308,2
310,333,310,309,2
311,329,311,312,2
312,327,311,313,2
311,325,310,314,2
309,322,308,314,2
308,320,306,313,2
306,318,305,313,2
305,316,305,312,2
305,312,304,311,2
305,311,304,311,2
306,313,304,311,2
307,317,305,313,2
308,321,306,314,2
308,325,306,314,2
308,327,306,315,2
307,325,306,315,2
307,321,305,315,2
307,318,304,314,2
307,317,303,313,2
306,317,302,313,2
306,314,301,313,2
306,311,302,312,2
306,306,302,311,2
306,304,301,311,2
306,304,301,310,2
306,306,301,310,2
306,308,299,309,2
306,310,298,309,2
305,308,297,308,2
304,304,296,307,2
304,301,296,305,2
304,297,297,303,2
304,290,300,302,2
304,283,302,299,2
304,278,304,298,2
304,279,305,298,2
305,283,308,300,2
306,289,309,303,2
307,295,310,306,2
307,302,310,309,2
308,309,310,313,2
308,317,309,315,2
308,323,309,317,2
308,325,308,318,2
309,325,308,320,2
309,325,308,321,2
309,327,307,321,2
309,328,307,321,2
309,327,306,320,2
309,322,306,318,2
309,315,306,315,2
309,307,306,312,2
310,298,306,308,2
310,287,306,305,2
312,280,306,303,2
313,277,306,303,2
313,278,306,304,2
313,282,307,305,2
312,289,307,307,2
312,297,308,308,2
312,306,309,309,2
312,317,309,310,2
311,325,309,311,2
310,327,308,311,2
309,324,307,312,2
310,319,307,312,2
310,314,307,311,2
310,309,307,311,2
311,306,308,310,2
311,306,309,310,2
310,311,310,309,2
310,316,310,308,2
308,320,309,307,2
308,325,307,307,2
307,331,306,307,2
308,337,305,308,2
308,338,305,309,2
309,333,305,308,2
309,322,305,307,2
309,311,304,305,2
309,302,303,303,2
309,294,303,302,2
311,288,302,301,2
312,283,302,301,2
313,278,302,301,2
313,273,302,301,2
312,267,302,300,2
312,260,302,299,2
311,256,303,299,2
310,256,305,299,2
309,261,308,302,2
310,272,310,304,2
310,287,311,306,2
310,303,311,308,2
310,317,311,308,2
311,328,311,308,2
311,336,311,307,2
310,339,311,306,2
309,336,311,305,2
309,329,311,305,2
308,320,310,305,2
309,309,310,306,2
309,297,310,305,2
309,287,308,304,2
310,282,307,303,2
311,282,306,302,2
311,287,306,301,2
310,295,306,300,2
309,304,307,300,2
308,315,309,302,2
308,325,311,306,2
309,331,313,309,2
309,337,313,312,2
308,341,312,313,2
307,344,311,313,2
307,344,311,312,2
307,343,310,312,2
307,341,311,311,2
308,337,311,309,2
308,333,310,307,2
309,330,310,306,2
310,326,310,306,2
311,322,311,306,2
312,318,311,308,2
313,313,313,311,2
313,308,313,312,2
313,305,313,313,2
313,304,312,313,2
312,307,311,312,2
311,311,310,311,2
310,311,310,311,2
309,310,310,310,2
308,307,310,310,2
309,304,310,311,2
309,301,310,311,2
310,296,310,311,2
312,290,310,311,2
312,284,311,310,2
313,281,311,309,2
313,282,311,307,2
313,287,311,304,2
312,292,311,303,2
311,296,311,301,2
310,299,311,300,2
310,299,310,298,2
309,297,309,298,2
308,293,309,297,2
308,289,308,297,2
308,285,308,297,2
308,285,309,298,2
308,288,309,298,2
308,293,309,298,2
307,299,309,299,2
307,308,308,299,2
306,318,308,299,2
306,325,307,300,2
306,329,307,301,2
307,329,307,302,2
307,327,308,302,2
308,324,307,303,2
308,319,307,302,2
308,311,307,302,2
307,304,307,302,2
307,298,307,303,2
307,294,307,304,2
307,291,306,304,2
308,290,306,305,2
308,291,306,305,2
308,291,305,305,2
308,289,304,305,2
309,287,304,306,2
309,286,303,306,2
308,284,303,305,2
308,282,305,305,2
309,282,308,306,2
309,282,312,309,2
309,282,314,311,2
308,281,316,313,2
309,280,316,314,2
309,283,316,313,2
308,289,315,312,2
307,297,314,310,2
306,306,312,307,2
305,318,310,304,2
303,334,307,302,2
302,350,306,300,2
301,362,305,298,2
300,364,306,298,2
300,359,307,299,2
300,351,309,302,2
301,339,310,305,2
302,328,310,306,2
303,317,310,308,2
305,308,310,307,2
306,300,310,307,2
307,293,311,306,2
308,288,311,306,2
308,286,311,305,2
309,286,312,306,2
310,285,312,307,2
312,282,312,309,2
312,280,313,310,2
313,280,314,311,2
313,283,314,312,2
312,290,313,312,2
311,301,312,311,2
310,314,311,309,2
308,327,310,307,2
307,336,310,304,2
305,342,309,302,2
304,346,308,300,2
304,347,309,301,2
304,346,309,303,2
304,343,310,304,2
304,338,310,306,2
304,333,310,306,2
304,328,311,307,2
305,320,311,307,2
306,311,311,308,2
308,301,311,308,2
308,291,311,308,2
308,284,311,309,2
309,279,310,311,2
310,275,310,312,2
310,273,310,311,2
309,273,310,309,2
309,274,310,307,2
309,277,309,305,2
308,282,309,304,2
306,290,308,304,2
305,299,307,304,2
304,309,306,305,2
303,319,306,305,2
303,331,305,306,2
302,340,304,307,2
302,345,303,309,2
302,347,303,309,2
302,346,303,310,2
303,343,304,310,2
304,338,304,311,2
305,333,304,311,2
305,328,303,311,2
304,324,302,311,2
304,319,302,310,2
305,315,303,309,2
305,311,306,309,2
306,306,308,309,2
306,302,309,309,2
306,300,308,309,2
305,302,308,308,2
305,307,306,309,2
305,308,306,309,2
305,307,305,309,2
305,306,305,310,2
305,306,305,310,2
306,306,305,311,2
307,304,306,312,2
308,300,307,313,2
309,294,308,313,2
310,288,309,313,2
309,283,310,313,2
309,279,310,312,2
309,274,310,313,2
310,270,309,312,2
310,266,308,311,2
309,266,306,309,2
308,270,304,307,2
307,280,302,305,2
305,294,300,304,2
303,306,299,304,2
301,315,299,304,2
300,321,301,306,2
300,325,303,308,2
300,327,305,311,2
301,328,307,313,2
302,327,307,315,2
303,324,308,316,2
304,320,308,316,2
304,316,308,316,2
305,312,308,316,2
305,308,308,315,2
305,303,308,314,2
307,298,309,312,2
309,294,310,312,2
311,289,310,312,2
312,287,311,313,2
313,287,311,314,2
313,289,310,314,2
313,294,309,315,2
312,300,307,315,2
311,303,305,314,2
309,303,303,311,2
307,302,301,310,2
307,300,301,308,2
307,299,301,308,2
308,300,301,308,2
308,300,303,309,2
308,300,305,310,2
309,298,309,311,2
308,297,312,312,2
309,297,313,312,2
308,299,312,311,2
307,300,309,310,2
307,303,307,310,2
307,307,306,309,2
307,311,306,310,2
308,314,306,311,2
308,317,306,313,2
309,318,306,314,2
309,318,306,314,2
309,316,306,313,2
309,316,306,312,2
309,316,305,311,2
308,317,305,311,2
308,319,305,311,2
307,314,305,311,2
305,302,304,310,2
304,287,302,309,2
304,274,301,308,2
303,265,301,308,2
303,263,300,309,2
304,267,300,309,2
304,275,300,310,2
304,287,300,312,2
304,300,301,313,2
303,312,301,313,2
302,319,302,313,2
301,324,302,311,2
301,326,302,310,2
302,327,303,308,2
302,326,303,306,2
302,325,302,304,2
302,323,302,304,2
303,320,302,304,2
303,315,303,305,2
304,309,303,306,2
304,302,303,307,2
304,296,303,307,2
305,291,303,307,2
305,292,302,307,2
304,295,301,308,2
304,300,301,307,2
303,305,300,307,2
302,310,299,305,2
301,313,298,303,2
300,313,297,300,2
299,311,296,298,2
298,306,295,297,2
299,301,295,296,2
300,295,293,296,2
300,290,293,297,2
301,286,292,298,2
302,286,293,299,2
302,290,294,301,2
302,297,296,304,2
302,303,299,308,2
304,307,303,313,2
305,307,308,317,2
306,305,311,319,2
306,306,313,319,2
306,308,313,319,2
306,310,312,319,2
307,312,311,318,2
307,314,310,317,2
308,316,310,317,2
308,318,310,318,2
308,320,311,318,2
308,318,311,318,2
307,312,311,318,2
307,300,310,316,2
307,285,310,315,2
307,273,310,314,2
307,267,310,315,2
307,268,309,315,2
307,274,310,316,2
307,284,310,315,2
308,292,310,315,2
308,299,310,314,2
308,304,310,314,2
308,309,309,313,2
308,312,309,313,2
308,314,308,313,2
308,316,307,312,2
309,316,306,310,2
308,313,305,309,2
309,308,305,308,2
309,302,305,309,2
311,297,306,310,2
311,294,306,310,2
311,296,307,310,2
311,297,306,311,2
309,297,305,310,2
308,299,304,310,2
307,302,303,310,2
306,306,303,311,2
305,309,303,312,2
305,313,303,313,2
305,316,303,313,2
306,318,303,313,2
306,320,304,312,2
306,322,304,311,2
306,321,304,308,2
306,318,304,306,2
305,314,304,306,2
305,309,305,307,2
305,305,305,309,2
307,299,306,310,2
308,295,308,311,2
308,292,308,310,2
309,293,308,308,2
309,298,308,307,2
309,302,308,307,2
308,301,307,307,2
307,298,306,306,2
307,290,306,306,2
306,281,306,306,2
307,272,306,306,2
308,268,306,305,2
308,270,307,305,2
309,277,308,306,2
309,291,307,307,2
308,308,306,308,2
307,325,304,309,2
305,335,303,308,2
303,340,300,306,2
302,340,298,302,2
300,337,295,298,2
300,334,292,294,2
299,331,289,291,2
298,329,287,289,2
298,324,286,289,2
299,317,288,290,2
301,304,292,291,2
302,291,298,295,2
304,276,303,300,2
307,263,308,305,2
309,256,311,309,2
310,260,311,312,2
310,273,311,314,2
309,293,310,316,2
308,313,309,316,2
306,330,309,316,2
304,339,309,315,2
303,342,308,314,2
302,337,308,313,2
302,326,308,312,2
301,314,307,310,2
301,304,307,308,2
302,299,306,307,2
302,299,306,306,2
303,303,304,306,2
304,309,303,305,2
303,315,301,305,2
302,321,300,306,2
302,324,299,308,2
303,325,300,310,2
304,324,300,312,2
305,322,301,314,2
306,321,301,315,2
306,318,301,316,2
307,313,300,316,2
307,305,300,315,2
308,297,300,315,2
309,288,301,315,2
310,280,301,315,2
311,274,301,315,2
312,275,300,315,2
311,281,299,314,2
311,290,299,315,2
310,300,298,314,2
308,311,297,313,2
306,321,297,312,2
304,332,296,311,2
303,341,296,311,2
302,347,296,312,2
302,350,296,314,2
303,347,297,315,2
302,339,299,315,2
302,327,302,315,2
302,313,304,315,2
303,300,307,314,2
304,289,308,313,2
304,283,309,312,2
305,281,309,311,2
305,284,309,311,2
305,292,309,312,2
306,301,309,313,2
306,307,309,314,2
306,311,308,315,2
305,312,306,315,2
305,310,304,315,2
305,307,304,314,2
305,303,304,314,2
306,297,304,314,2
307,288,305,315,2
308,281,305,315,2
310,275,305,317,2
310,274,305,317,2
310,275,305,316,2
309,280,305,316,2
307,290,304,316,2
306,305,304,316,2
305,319,304,316,2
304,329,304,317,2
304,335,305,317,2
304,338,304,317,2
304,337,304,315,2
303,335,303,313,2
304,331,302,311,2
303,328,302,309,2
302,326,302,308,2
301,325,302,308,2
301,322,301,307,2
301,316,300,306,2
301,308,298,305,2
301,298,298,304,2
303,288,300,303,2
304,279,303,302,2
304,269,304,299,2
304,264,305,297,2
303,264,306,297,2
304,267,308,299,2
305,269,309,302,2
305,271,311,306,2
306,274,312,311,2
306,279,313,315,2
306,287,312,317,2
306,296,312,318,2
304,307,311,318,2
303,318,310,317,2
303,325,310,316,2
302,329,310,315,2
302,331,309,313,2
301,332,309,312,2
302,331,309,311,2
303,327,309,312,2
303,320,310,312,2
304,311,310,313,2
305,301,312,315,2
307,295,314,317,2
308,295,316,320,2
309,298,317,322,2
309,303,317,323,2
308,311,316,323,2
307,320,315,322,2
305,326,313,320,2
304,331,311,318,2
304,331,309,316,2
304,329,309,314,2
304,323,308,313,2
304,315,307,312,2
304,307,306,311,2
302,303,305,310,2
301,301,305,309,2
300,302,305,309,2
300,307,306,309,2
300,314,307,309,2
301,321,307,309,2
301,324,307,309,2
302,325,306,309,2
302,325,305,309,2
303,324,305,309,2
305,323,306,310,2
306,322,306,310,2
307,321,307,310,2
307,320,308,309,2
308,318,309,308,2
309,314,310,308,2
310,310,311,308,2
310,305,312,309,2
310,301,312,309,2
309,298,312,310,2
308,297,312,311,2
307,296,312,311,2
305,297,310,310,2
304,300,309,309,2
303,303,307,309,2
302,305,307,309,2
303,304,306,310,2
303,301,305,311,2
305,296,304,312,2
305,292,304,313,2
306,289,303,313,2
306,288,302,313,2
306,291,302,312,2
306,297,302,311,2
306,303,303,310,2
307,305,306,309,2
307,300,308,307,2
308,288,308,305,2
307,275,307,303,2
306,265,305,301,2
305,261,303,299,2
304,262,303,297,2
303,272,303,297,2
303,290,304,298,2
303,310,305,302,2
303,328,305,305,2
303,340,305,308,2
303,347,306,310,2
303,351,306,313,2
304,350,307,315,2
305,342,309,316,2
306,330,310,317,2
307,316,311,318,2
309,303,312,318,2
309,291,312,318,2
309,283,311,317,2
308,279,310,315,2
307,280,309,312,2
306,288,308,310,2
305,301,307,308,2
304,314,307,308,2
304,322,306,308,2
304,325,305,307,2
304,325,305,307,2
304,324,305,306,2
305,322,305,306,2
307,320,306,307,2
308,318,307,307,2
309,318,307,307,2
309,319,307,307,2
309,321,307,306,2
308,323,306,305,2
308,323,305,304,2
308,322,305,303,2
308,320,305,303,2
309,316,305,304,2
310,307,305,306,2
310,297,304,306,2
311,287,302,306,2
312,279,300,305,2
312,274,298,302,2
312,273,296,299,2
310,279,295,297,2
308,288,295,295,2
307,301,297,294,2
306,317,300,295,2
306,330,302,297,2
307,340,304,298,2
307,344,304,299,2
308,341,305,300,2
308,333,305,301,2
309,324,306,302,2
310,317,306,304,2
310,312,307,305,2
311,307,308,307,2
311,302,309,309,2
312,292,310,311,2
312,277,311,312,2
312,259,312,313,2
313,242,312,313,2
313,229,313,312,2
314,226,313,313,2
314,236,313,312,2
312,254,311,312,2
309,276,309,311,2
306,298,307,310,2
303,318,305,311,2
302,333,304,311,2
300,340,303,310,2
299,345,303,311,2
299,346,303,311,2
300,346,304,311,2
301,344,304,311,2
303,343,305,310,2
303,343,305,310,2
303,343,304,309,2
304,341,303,308,2
304,337,302,306,2
304,331,300,304,2
303,322,298,302,2
302,314,298,300,2
301,307,297,299,2
300,303,299,299,2
301,302,300,301,2
301,303,303,304,2
302,306,306,308,2
302,308,308,312,2
302,309,310,314,2
303,310,311,315,2
303,312,311,315,2
302,315,311,315,2
302,317,310,313,2
301,318,309,311,2
300,318,308,309,2
300,318,307,307,2
300,317,307,307,2
301,316,307,308,2
301,315,306,308,2
302,313,307,309,2
302,313,307,308,2
302,314,306,308,2
301,317,306,307,2
301,320,305,305,2
300,321,304,304,2
300,318,303,303,2
299,310,303,303,2
299,301,302,302,2
299,295,302,303,2
300,293,302,303,2
300,295,303,305,2
301,299,304,305,2
302,305,305,306,2
303,310,305,307,2
303,311,304,307,2
302,307,303,306,2
302,297,302,305,2
302,285,301,303,2
302,273,301,300,2
302,265,301,299,2
302,262,302,300,2
303,268,302,302,2
304,278,302,304,2
303,289,302,307,2
301,303,301,308,2
299,318,301,309,2
297,328,302,309,2
296,334,304,309,2
297,335,306,309,2
297,333,307,308,2
298,328,308,308,2
300,321,308,308,2
300,313,308,307,2
301,303,308,306,2
301,294,307,306,2
302,282,307,305,2
302,271,306,304,2
303,266,306,304,2
303,265,305,304,2
304,270,306,305,2
304,281,306,304,2
303,296,306,303,2
302,312,306,304,2
302,322,306,305,2
303,325,307,306,2
303,322,307,307,2
304,314,307,308,2
305,304,308,308,2
306,296,308,307,2
307,294,309,307,2
308,298,310,306,2
308,301,310,307,2
308,302,310,308,2
308,304,310,309,2
308,308,311,311,2
307,317,310,312,2
305,327,309,311,2
303,333,307,309,2
302,336,306,307,2
301,336,305,305,2
301,337,305,304,2
301,337,304,303,2
301,337,303,302,2
301,336,301,302,2
301,332,301,302,2
302,328,301,302,2
304,324,303,303,2
306,321,306,305,2
308,319,308,309,2
310,316,310,311,2
311,313,310,311,2
310,313,309,311,2
310,314,309,311,2
310,318,309,311,2
310,321,308,310,2
311,322,307,309,2
310,319,307,307,2
308,316,306,306,2
306,312,305,305,2
304,309,304,305,2
304,304,304,305,2
304,297,305,305,2
304,287,305,306,2
305,274,305,305,2
306,261,306,305,2
308,253,306,305,2
309,250,307,306,2
309,254,307,307,2
310,264,306,309,2
309,279,305,309,2
308,294,303,310,2
307,306,302,309,2
305,315,301,308,2
304,324,301,308,2
303,332,302,307,2
303,338,305,306,2
304,343,307,306,2
304,343,308,306,2
304,338,309,306,2
303,331,309,306,2
304,321,309,307,2
304,313,308,308,2
305,307,308,309,2
306,305,308,309,2
306,309,307,308,2
306,313,307,307,2
306,318,306,306,2
306,321,306,304,2
306,321,306,303,2
307,319,308,301,2
308,314,309,299,2
308,306,310,299,2
308,296,309,298,2
307,288,308,297,2
306,286,307,296,2
306,287,305,297,2
306,291,304,299,2
306,297,303,301,2
306,302,302,303,2
305,304,301,305,2
304,304,301,305,2
304,302,302,306,2
303,301,304,306,2
303,302,306,306,2
303,306,308,306,2
303,311,309,306,2
302,316,309,307,2
303,319,309,307,2
305,318,309,308,2
306,313,309,308,2
307,305,309,309,2
307,298,309,309,2
307,294,309,308,2
306,291,307,305,2
304,292,305,302,2
302,296,303,299,2
300,303,301,297,2
298,313,299,296,2
297,321,297,296,2
296,322,296,296,2
295,317,297,297,2
294,308,299,297,2
294,301,301,300,2
296,295,304,305,2
298,289,306,310,2
300,281,309,313,2
303,271,310,315,2
305,263,311,315,2
306,260,312,315,2
307,261,311,313,2
307,265,310,312,2
306,272,310,311,2
306,283,310,309,2
306,295,310,309,2
306,305,310,308,2
305,313,310,307,2
305,318,311,307,2
304,320,311,307,2
305,323,311,308,2
304,328,310,308,2
303,334,310,309,2
302,338,310,308,2
301,341,308,307,2
301,341,308,307,2
301,340,307,307,2
301,338,306,307,2
302,335,305,307,2
302,328,304,306,2
302,319,303,304,2
302,309,302,301,2
303,299,301,298,2
305,291,300,298,2
307,285,300,297,2
308,283,300,298,2
309,285,301,300,2
308,289,302,301,2
307,292,303,301,2
305,295,305,301,2
304,297,305,300,2
304,298,306,302,2
304,298,306,303,2
306,298,306,305,2
306,299,306,306,2
307,303,305,307,2
306,309,306,309,2
306,313,307,310,2
307,315,309,312,2
307,316,311,313,2
308,317,312,313,2
309,316,313,313,2
309,314,314,312,2
309,310,314,312,2
309,305,313,311,2
309,300,312,311,2
310,297,311,310,2
309,297,310,309,2
308,299,309,308,2
306,303,307,306,2
304,306,306,305,2
303,310,306,303,2
302,313,305,303,2
302,313,305,302,2
303,311,305,302,2
303,309,306,301,2
304,307,306,301,2
304,305,307,301,2
305,305,307,303,2
306,305,308,303,2
307,305,308,304,2
307,302,308,304,2
307,298,308,305,2
307,292,308,306,2
308,288,308,306,2
308,287,309,305,2
309,290,310,303,2
310,293,310,302,2
310,292,310,301,2
310,286,309,300,2
310,278,307,298,2
308,272,304,297,2
306,271,302,297,2
304,276,301,298,2
303,286,301,299,2
302,300,302,301,2
302,314,304,303,2
302,327,305,307,2
302,336,307,310,2
302,340,308,312,2
302,340,308,314,2
302,335,308,315,2
304,329,309,316,2
305,323,309,316,2
306,318,310,314,2
306,314,309,311,2
306,313,308,308,2
307,313,307,305,2
307,316,306,303,2
308,318,305,302,2
307,318,305,302,2
307,316,304,302,2
306,311,304,303,2
305,306,303,304,2
305,301,304,305,2
305,298,304,307,2
306,298,305,309,2
307,299,306,310,2
308,299,307,310,2
308,301,309,311,2
309,303,309,312,2
309,308,310,313,2
309,313,311,314,2
310,317,311,314,2
310,318,310,313,2
309,318,310,313,2
309,317,309,312,2
309,314,309,312,2
310,309,308,310,2
310,304,308,308,2
310,300,307,307,2
310,296,306,307,2
310,292,305,306,2
308,291,304,305,2
307,293,302,305,2
306,297,301,304,2
305,300,300,304,2
305,301,299,304,2
304,298,298,304,2
305,292,299,304,2
305,286,301,304,2
306,281,305,304,2
307,282,309,305,2
308,288,312,307,2
309,297,314,309,2
309,306,314,310,2
310,312,314,311,2
309,315,314,311,2
308,317,313,311,2
307,318,313,311,2
307,318,314,311,2
308,313,315,309,2
309,306,315,307,2
309,297,315,305,2
308,289,313,302,2
308,284,313,301,2
308,287,312,301,2
308,296,311,301,2
308,308,310,302,2
307,315,309,303,2
305,319,308,304,2
305,321,307,304,2
305,322,307,305,2
305,323,308,305,2
306,323,308,305,2
306,324,307,304,2
305,326,306,303,2
304,327,304,300,2
303,325,302,297,2
301,324,301,295,2
300,326,299,293,2
300,328,298,293,2
300,328,298,292,2
301,325,300,293,2
303,320,302,296,2
304,315,304,300,2
305,311,305,305,2
306,309,306,308,2
306,308,307,310,2
306,307,307,312,2
306,308,307,312,2
306,310,308,311,2
305,312,308,311,2
305,312,309,311,2
304,307,310,312,2
304,302,310,313,2
303,296,311,313,2
302,293,311,314,2
303,291,311,314,2
303,291,311,314,2
303,291,311,312,2
302,291,311,310,2
302,290,310,307,2
301,290,310,305,2
301,290,308,303,2
302,292,308,302,2
303,294,307,303,2
304,293,308,306,2
306,292,309,309,2
308,290,310,311,2
309,291,311,312,2
311,295,311,313,2
311,299,311,311,2
310,301,309,310,2
309,302,308,310,2
309,304,307,310,2
310,304,307,310,2
310,301,306,310,2
311,296,307,311,2
311,292,307,312,2
311,291,308,313,2
309,294,308,314,2
307,298,308,314,2
305,307,307,313,2
303,318,306,312,2
302,326,305,310,2
302,328,304,308,2
303,324,304,309,2
304,314,304,310,2
307,301,306,312,2
309,286,307,312,2
311,273,307,313,2
311,264,308,313,2
311,260,308,313,2
309,262,307,311,2
306,269,305,308,2
304,283,305,306,2
302,302,306,304,2
301,320,307,304,2
300,335,309,304,2
301,344,309,305,2
301,349,309,306,2
301,350,309,306,2
302,349,309,307,2
303,347,308,309,2
305,342,309,310,2
306,336,309,310,2
307,328,309,311,2
307,321,310,311,2
307,314,311,312,2
308,307,312,312,2
309,298,312,313,2
310,284,313,313,2
312,264,314,311,2
313,242,315,310,2
315,226,315,309,2
317,218,316,307,2
318,218,315,305,2
317,229,313,302,2
313,252,309,299,2
310,284,306,298,2
306,316,303,299,2
305,339,303,300,2
305,354,303,302,2
305,362,305,306,2
305,364,308,310,2
305,361,309,314,2
306,355,308,318,2
305,348,308,320,2
305,341,307,320,2
304,334,307,321,2
304,328,307,320,2
304,324,307,320,2
304,320,307,319,2
304,318,307,318,2
304,316,307,318,2
305,314,308,318,2
306,308,308,318,2
307,300,309,317,2
307,289,309,315,2
307,275,309,313,2
308,261,308,309,2
308,253,307,306,2
307,249,307,304,2
307,250,306,303,2
307,254,305,304,2
307,260,304,304,2
307,268,303,304,2
307,278,304,305,2
307,288,305,305,2
306,298,307,306,2
305,310,307,305,2
304,324,307,304,2
304,337,307,304,2
303,346,307,304,2
303,351,307,305,2
304,352,306,306,2
304,351,305,307,2
304,347,304,307,2
304,339,303,306,2
304,327,303,305,2
305,312,303,304,2
306,295,305,303,2
308,275,308,302,2
311,257,312,301,2
313,246,316,300,2
315,244,318,300,2
315,253,318,299,2
314,272,318,299,2
312,293,316,301,2
310,309,315,303,2
308,319,313,304,2
306,326,311,306,2
304,330,309,307,2
303,330,308,307,2
302,330,307,306,2
301,332,306,305,2
300,336,305,304,2
300,339,303,302,2
299,339,302,300,2
299,337,302,299,2
299,335,302,298,2
300,332,302,299,2
301,329,302,301,2
302,328,303,303,2
303,325,304,306,2
303,322,306,307,2
304,317,306,309,2
304,312,307,311,2
304,305,308,312,2
305,296,309,312,2
306,288,310,312,2
307,284,312,313,2
309,282,312,314,2
309,281,313,314,2
309,285,313,314,2
309,290,313,314,2
310,294,314,314,2
310,295,315,314,2
310,296,315,314,2
310,296,315,314,2
311,297,314,314,2
310,300,313,313,2
310,301,311,312,2
308,301,308,309,2
307,303,306,306,2
305,306,305,304,2
303,311,303,302,2
301,316,304,301,2
302,318,306,301,2
302,317,308,303,2
304,312,310,306,2
305,303,311,308,2
305,295,310,309,2
305,289,311,309,2
306,285,311,309,2
305,282,311,310,2
305,284,310,311,2
304,287,310,312,2
303,291,309,312,2
302,294,308,312,2
302,297,307,312,2
302,300,306,311,2
301,304,305,310,2
301,311,305,310,2
301,319,304,310,2
301,326,304,310,2
301,331,303,309,2
301,331,303,309,2
300,329,304,308,2
298,327,306,307,2
296,326,308,306,2
296,325,309,305,2
296,323,311,306,2
297,319,312,307,2
299,312,313,307,2
301,304,314,309,2
303,297,314,310,2
305,290,314,310,2
306,285,313,309,2
307,283,312,308,2
308,285,312,307,2
308,290,311,307,2
308,298,310,307,2
307,306,309,306,2
306,313,308,305,2
305,318,307,304,2
305,320,306,303,2
304,320,306,303,2
304,320,307,304,2
304,321,308,305,2
305,323,308,307,2
305,324,309,308,2
305,326,309,309,2
306,326,309,310,2
305,325,310,311,2
306,320,310,312,2
308,311,311,313,2
311,298,312,313,2
313,280,313,312,2
315,259,314,312,2
316,243,314,311,2
316,237,314,311,2
315,242,312,311,2
312,258,309,310,2
309,283,306,310,2
306,310,304,310,2
303,332,303,310,2
302,347,302,310,2
301,357,302,310,2
300,361,301,309,2
300,358,301,308,2
300,349,302,307,2
300,337,302,306,2
302,326,303,307,2
303,317,304,307,2
304,314,305,307,2
303,318,305,306,2
302,326,303,306,2
301,334,301,305,2
301,337,299,303,2
301,336,298,301,2
301,331,298,300,2
301,326,297,299,2
302,321,297,299,2
303,317,298,298,2
303,314,299,299,2
304,311,301,301,2
305,309,302,302,2
305,303,303,303,2
305,296,304,302,2
304,292,303,301,2
303,292,302,299,2
302,296,302,299,2
302,301,304,299,2
301,304,305,300,2
301,306,306,302,2
301,308,308,304,2
301,311,309,307,2
302,315,309,309,2
303,319,309,312,2
303,323,310,313,2
304,326,309,314,2
305,327,309,315,2
305,326,308,315,2
305,324,307,314,2
305,322,307,315,2
306,317,306,316,2
307,310,306,316,2
309,301,306,316,2
310,291,307,315,2
311,284,308,312,2
311,281,311,310,2
312,282,313,308,2
311,283,315,306,2
310,283,315,304,2
309,284,313,304,2
308,288,312,305,2
307,294,310,307,2
306,302,310,308,2
305,310,309,310,2
303,316,308,310,2
301,318,307,309,2
300,318,306,309,2
301,317,305,308,2
302,316,305,308,2
303,317,306,308,2
304,320,307,308,2
304,322,307,310,2
306,323,308,310,2
306,322,309,310,2
306,321,310,309,2
307,320,310,308,2
307,321,310,306,2
306,325,310,303,2
304,325,309,301,2
302,322,308,298,2
300,318,306,297,2
298,314,305,296,2
298,313,305,296,2
298,314,305,297,2
299,317,306,298,2
300,319,307,300,2
301,320,308,301,2
302,317,309,303,2
303,310,310,304,2
304,302,310,304,2
304,295,309,304,2
304,290,309,303,2
305,287,309,302,2
305,287,309,302,2
306,290,308,303,2
307,296,307,304,2
307,300,307,304,2
307,302,306,304,2
307,302,305,303,2
306,300,304,302,2
306,298,303,301,2
306,298,302,300,2
306,299,302,299,2
307,301,302,298,2
308,302,303,297,2
307,303,302,295,2
306,304,302,294,2
306,304,303,295,2
304,304,303,296,2
304,303,304,298,2
305,301,305,301,2
306,299,307,303,2
306,298,308,306,2
306,298,308,308,2
306,298,307,310,2
304,298,306,309,2
302,298,304,307,2
300,298,302,304,2
299,296,300,300,2
298,293,300,296,2
299,289,302,294,2
300,284,304,294,2
302,280,307,295,2
303,280,310,300,2
305,285,311,305,2
306,292,310,308,2
306,301,309,310,2
306,310,307,310,2
306,319,306,311,2
306,327,305,310,2
306,330,304,311,2
307,330,305,311,2
307,327,306,312,2
307,324,309,314,2
307,323,312,315,2
307,322,314,315,2
307,321,314,314,2
307,320,313,312,2
307,320,312,311,2
306,317,311,308,2
306,312,310,306,2
306,308,309,304,2
307,306,310,304,2
308,305,310,304,2
308,307,310,303,2
307,310,309,303,2
307,314,308,303,2
305,316,308,302,2
304,318,307,302,2
303,317,307,302,2
302,316,307,302,2
302,315,307,301,2
302,317,307,300,2
303,318,306,299,2
304,319,306,299,2
305,318,306,298,2
306,316,307,297,2
306,313,306,297,2
305,310,306,297,2
305,307,305,297,2
304,305,305,297,2
304,303,305,296,2
303,302,305,295,2
304,300,306,295,2
304,297,307,294,2
305,290,308,294,2
307,283,311,295,2
308,281,313,297,2
309,285,314,299,2
310,291,313,302,2
311,296,313,305,2
310,294,313,306,2
308,288,312,306,2
306,279,311,305,2
306,270,311,305,2
306,265,311,304,2
306,265,311,303,2
307,271,310,302,2
306,283,310,302,2
306,299,310,302,2
305,314,309,303,2
303,327,307,303,2
302,337,306,303,2
302,343,305,303,2
301,348,303,302,2
301,349,301,302,2
301,348,299,301,2
300,344,298,300,2
300,339,297,300,2
300,331,297,300,2
301,321,299,300,2
302,312,301,302,2
305,305,304,304,2
308,302,306,306,2
309,302,307,306,2
310,303,308,307,2
310,304,308,306,2
309,305,308,305,2
308,304,308,304,2
307,303,307,304,2
305,302,306,304,2
305,302,304,304,2
305,305,303,306,2
306,311,302,307,2
307,319,302,309,2
308,324,301,309,2
308,322,300,307,2
307,318,299,304,2
307,314,299,301,2
307,308,301,299,2
308,303,304,299,2
309,298,308,302,2
310,293,311,305,2
310,290,313,310,2
310,291,313,313,2
308,295,313,314,2
308,299,312,313,2
307,300,311,312,2
306,301,309,310,2
306,301,309,309,2
305,301,308,308,2
305,302,308,308,2
306,301,307,308,2
307,298,306,308,2
307,294,305,307,2
307,290,304,305,2
307,288,303,304,2
307,287,303,303,2
308,288,303,304,2
309,290,305,306,2
310,295,306,308,2
311,303,308,310,2
312,312,308,312,2
312,319,308,312,2
311,322,307,312,2
310,320,307,310,2
311,313,307,309,2
311,305,308,309,2
311,300,307,308,2
311,299,307,308,2
310,301,305,307,2
308,307,304,306,2
306,316,303,306,2
305,325,302,307,2
305,330,302,307,2
304,332,301,307,2
304,332,301,307,2
304,329,301,307,2
305,324,302,307,2
305,320,303,308,2
305,316,305,309,2
306,312,307,312,2
308,309,309,314,2
308,306,311,315,2
309,302,312,315,2
309,298,312,314,2
309,293,312,311,2
309,290,311,309,2
308,290,309,307,2
308,292,309,306,2
308,297,309,306,2
308,303,309,306,2
307,309,309,306,2
306,313,310,306,2
305,314,309,307,2
304,313,309,307,2
303,312,309,308,2
304,313,309,310,2
305,316,309,312,2
306,318,308,314,2
306,318,308,315,2
306,318,308,315,2
306,316,308,315,2
307,313,309,314,2
306,309,311,311,2
306,305,311,308,2
305,303,310,304,2
304,302,307,301,2
304,300,304,299,2
304,299,302,298,2
305,299,302,298,2
306,299,303,298,2
306,298,304,299,2
307,298,307,300,2
307,298,309,303,2
308,297,310,306,2
310,294,311,309,2
311,290,312,311,2
312,284,313,311,2
312,276,313,312,2
312,269,313,311,2
311,266,313,311,2
310,268,313,310,2
310,271,313,310,2
309,274,312,310,2
308,279,312,310,2
308,286,312,310,2
307,293,312,309,2
305,301,310,309,2
304,307,309,307,2
303,313,308,305,2
302,318,307,301,2
301,322,306,298,2
301,326,306,295,2
302,331,305,292,2
302,335,305,292,2
302,337,305,292,2
303,336,304,293,2
303,331,304,295,2
303,322,305,298,2
304,313,306,302,2
306,305,307,305,2
307,298,309,308,2
309,294,310,309,2
310,293,311,311,2
310,297,310,311,2
309,303,308,310,2
308,308,307,309,2
308,310,306,309,2
308,310,306,310,2
308,310,305,310,2
307,311,305,310,2
307,312,305,311,2
307,314,304,311,2
305,315,303,312,2
305,315,302,312,2
304,313,301,312,2
304,311,300,312,2
305,310,300,312,2
306,308,300,312,2
306,306,301,311,2
305,306,303,310,2
305,307,306,310,2
305,309,309,311,2
305,311,312,311,2
305,313,314,311,2
306,315,315,311,2
306,314,314,311,2
305,310,313,310,2
304,308,312,309,2
303,309,310,309,2
301,312,309,309,2
301,318,309,309,2
300,325,308,309,2
300,331,308,308,2
300,334,306,307,2
300,333,305,306,2
300,328,304,306,2
300,318,303,306,2
301,303,303,307,2
302,287,303,308,2
302,271,303,307,2
303,261,303,306,2
303,259,303,306,2
303,268,304,307,2
303,286,305,309,2
302,305,306,312,2
301,319,307,315,2
301,327,307,317,2
302,328,308,318,2
301,326,307,317,2
300,322,307,316,2
300,318,305,313,2
299,313,304,309,2
298,309,304,307,2
298,306,304,305,2
298,305,306,304,2
299,304,307,305,2
300,302,307,306,2
301,299,307,307,2
302,294,307,308,2
303,290,307,309,2
304,289,308,310,2
304,293,308,312,2
305,300,309,312,2
304,309,309,311,2
303,318,309,310,2
302,323,308,309,2
301,324,308,307,2
302,320,308,306,2
302,316,309,306,2
303,312,308,307,2
304,308,308,308,2
304,305,307,309,2
304,303,305,310,2
305,302,304,312,2
305,303,304,313,2
305,305,303,314,2
305,308,302,314,2
304,310,302,313,2
304,309,301,311,2
303,306,302,309,2
303,302,303,306,2
303,300,304,304,2
304,297,305,304,2
305,295,306,304,2
305,293,305,303,2
304,292,304,304,2
304,293,303,304,2
303,296,301,304,2
303,302,300,304,2
302,308,299,304,2
302,314,299,304,2
302,315,298,304,2
302,313,298,303,2
302,309,297,302,2
303,304,297,302,2
303,301,298,302,2
304,297,298,304,2
304,293,299,304,2
304,289,301,306,2
305,286,304,307,2
306,282,307,308,2
308,280,311,309,2
310,281,313,310,2
311,285,313,310,2
311,290,313,309,2
310,296,312,308,2
309,301,310,307,2
307,303,308,305,2
306,302,306,303,2
305,302,303,302,2
305,306,302,301,2
304,311,301,301,2
303,315,300,300,2
303,314,298,298,2
302,308,297,297,2
302,300,297,296,2
303,292,299,295,2
305,288,301,295,2
306,291,303,296,2
307,302,305,299,2
307,312,306,302,2
307,316,306,304,2
307,311,306,306,2
307,301,306,308,2
307,290,306,310,2
308,280,306,312,2
308,279,306,312,2
308,287,304,312,2
306,301,303,312,2
304,315,301,311,2
302,324,301,311,2
301,328,301,311,2
300,329,301,310,2
300,330,302,310,2
301,335,302,309,2
301,340,302,309,2
302,344,303,308,2
303,343,303,307,2
303,338,304,307,2
303,331,304,306,2
301,323,302,304,2
300,316,299,303,2
299,314,296,303,2
298,313,294,303,2
297,313,293,303,2
296,310,294,304,2
297,303,297,304,2
298,294,300,304,2
301,284,302,304,2
303,277,303,303,2
304,276,304,302,2
305,280,304,302,2
304,287,304,301,2
303,289,304,300,2
303,288,305,301,2
304,282,306,302,2
306,275,308,304,2
308,271,310,306,2
309,271,310,309,2
310,276,309,310,2
308,288,308,311,2
307,304,306,311,2
305,320,307,311,2
305,334,309,311,2
305,341,311,311,2
304,343,313,310,2
302,340,312,308,2
300,335,310,307,2
300,329,308,307,2
300,322,306,307,2
301,313,306,308,2
302,304,306,309,2
304,296,307,311,2
305,291,308,311,2
304,292,307,311,2
303,293,305,310,2
302,293,304,309,2
303,289,303,307,2
304,282,302,306,2
306,270,303,305,2
307,255,303,303,2
309,238,304,302,2
311,219,304,302,2
314,205,305,302,2
315,204,305,302,2
315,218,305,304,2
315,246,305,304,2
314,283,304,305,2
312,323,304,306,2
310,356,303,305,2
308,378,302,304,2
306,390,301,304,2
305,391,300,303,2
304,385,299,304,2
303,376,298,305,2
302,365,298,306,2
302,355,297,307,2
301,349,297,309,2
301,344,297,311,2
300,340,298,311,2
299,335,299,310,2
299,331,301,308,2
299,326,302,306,2
300,321,304,305,2
302,316,306,305,2
304,313,309,308,2
306,310,311,313,2
308,306,313,315,2
307,304,312,316,2
307,304,312,316,2
306,302,310,315,2
305,299,309,314,2
305,297,309,313,2
306,293,309,313,2
307,289,309,313,2
308,283,310,312,2
309,278,311,312,2
309,276,312,313,2
309,279,312,313,2
308,285,312,313,2
307,294,312,312,2
306,304,311,312,2
305,315,310,311,2
304,324,309,310,2
303,330,308,309,2
303,331,307,308,2
303,326,307,307,2
304,316,309,307,2
306,304,311,307,2
307,288,313,308,2
309,271,314,308,2
309,260,314,308,2
309,257,312,309,2
308,264,310,310,2
307,279,308,311,2
305,299,306,311,2
303,318,304,311,2
301,332,303,310,2
299,342,302,309,2
298,347,301,308,2
298,349,301,306,2
297,348,301,305,2
298,346,302,304,2
299,343,302,304,2
299,337,303,304,2
300,329,303,304,2
301,321,303,304,2
302,313,304,304,2
303,306,305,305,2
305,302,307,307,2
306,299,308,309,2
307,300,309,310,2
308,301,310,310,2
309,299,311,311,2
310,294,311,311,2
310,290,311,312,2
309,289,310,312,2
308,291,310,313,2
307,296,308,314,2
306,301,307,315,2
305,306,307,316,2
305,312,307,316,2
304,319,307,316,2
302,325,306,316,2
302,330,305,316,2
301,334,304,316,2
302,335,303,315,2
302,336,302,313,2
302,334,301,310,2
302,330,299,306,2
302,326,298,303,2
303,321,298,300,2
304,316,298,299,2
305,311,298,299,2
306,306,299,299,2
307,303,301,299,2
308,302,303,300,2
308,305,306,300,2
308,308,309,300,2
308,310,310,301,2
308,309,310,302,2
308,303,310,304,2
308,293,309,305,2
308,277,310,305,2
310,257,310,306,2
312,237,312,309,2
315,224,314,313,2
317,224,315,316,2
317,238,315,317,2
315,266,313,317,2
312,303,310,315,2
307,335,305,311,2
302,353,301,307,2
298,360,298,304,2
296,357,297,302,2
295,350,297,301,2
295,340,300,301,2
297,330,303,304,2
299,323,306,307,2
302,318,309,311,2
304,312,311,313,2
307,304,312,314,2
308,298,313,314,2
307,297,312,314,2
306,300,311,314,2
305,306,310,315,2
304,310,310,316,2
304,313,309,316,2
304,315,308,318,2
304,316,308,318,2
304,317,307,318,2
304,318,306,317,2
305,317,306,315,2
306,314,307,313,2
308,312,308,312,2
310,311,310,311,2
311,315,312,311,2
312,322,312,312,2
312,332,310,313,2
312,339,308,314,2
310,338,306,315,2
309,329,304,316,2
308,318,302,316,2
307,306,302,316,2
307,294,302,315,2
307,282,303,315,2
307,274,304,316,2
307,269,305,316,2
307,268,305,315,2
307,271,304,314,2
307,278,304,313,2
308,286,305,313,2
309,294,306,314,2
310,302,307,316,2
312,310,308,317,2
312,315,308,318,2
311,317,308,318,2
310,314,307,318,2
308,308,306,317,2
307,299,305,315,2
307,292,305,313,2
307,289,304,312,2
307,292,304,311,2
307,298,304,311,2
306,304,304,311,2
305,309,303,311,2
304,313,303,310,2
304,317,303,309,2
304,320,302,309,2
306,321,302,309,2
307,320,302,309,2
307,320,301,308,2
306,322,302,307,2
306,324,303,306,2
305,326,306,305,2
305,328,309,304,2
306,332,311,304,2
308,334,314,306,2
310,334,316,308,2
312,332,317,309,2
312,327,316,310,2
312,320,313,311,2
311,311,309,311,2
311,303,306,310,2
311,295,304,310,2
309,289,304,308,2
309,288,306,307,2
309,293,308,308,2
310,302,310,310,2
312,311,311,310,2
312,318,312,310,2
311,321,312,310,2
310,317,311,311,2
310,309,309,311,2
310,298,308,311,2
310,286,306,311,2
311,275,307,311,2
313,268,307,312,2
313,266,307,314,2
313,267,307,315,2
313,270,308,316,2
313,279,307,317,2
312,294,306,317,2
310,312,304,317,2
307,330,302,316,2
305,346,301,316,2
304,355,300,314,2
303,359,300,313,2
303,358,300,311,2
304,353,300,310,2
305,346,301,310,2
306,335,302,309,2
307,322,303,308,2
308,307,304,309,2
309,293,306,310,2
311,281,307,310,2
312,270,308,310,2
313,262,308,310,2
313,261,307,311,2
313,268,306,311,2
313,282,304,313,2
311,298,301,314,2
309,316,298,315,2
307,330,296,316,2
306,336,296,316,2
305,335,296,315,2
305,326,298,313,2
305,314,301,312,2
306,303,304,310,2
306,293,306,308,2
306,284,307,308,2
307,276,307,307,2
308,273,308,307,2
309,278,309,308,2
309,290,310,308,2
309,305,310,309,2
307,324,309,308,2
304,344,307,309,2
302,361,305,310,2
301,369,304,311,2
301,366,304,311,2
301,355,303,311,2
301,344,302,310,2
301,336,302,310,2
301,332,302,308,2
301,329,302,307,2
301,327,302,306,2
301,326,302,305,2
300,324,303,305,2
300,321,304,305,2
299,318,305,305,2
299,314,305,306,2
299,309,306,307,2
299,303,306,307,2
298,296,305,308,2
299,289,305,309,2
299,285,305,310,2
300,283,306,310,2
301,284,305,310,2
301,289,304,308,2
301,296,302,305,2
301,301,301,303,2
302,304,301,300,2
303,305,301,298,2
303,309,301,298,2
303,314,302,300,2
303,320,303,304,2
303,325,304,307,2
304,326,305,311,2
305,324,306,313,2
307,322,307,314,2
307,321,307,314,2
308,319,307,314,2
308,317,305,313,2
308,314,304,312,2
308,309,304,310,2
309,304,304,309,2
309,302,304,308,2
310,305,304,308,2
309,311,304,308,2
309,318,303,308,2
308,324,302,309,2
308,327,301,309,2
308,327,301,309,2
309,325,302,310,2
310,322,303,311,2
312,320,305,313,2
313,319,308,314,2
316,317,311,315,2
317,313,314,314,2
317,310,315,312,2
317,307,315,311,2
315,303,313,310,2
314,300,310,309,2
312,296,307,308,2
310,294,304,307,2
308,291,303,306,2
307,288,302,305,2
306,287,302,304,2
305,288,302,303,2
305,290,303,303,2
305,291,304,303,2
306,291,305,303,2
306,294,305,303,2
306,298,304,304,2
307,302,304,305,2
307,307,304,307,2
307,309,304,309,2
308,308,304,311,2
307,303,305,312,2
307,295,305,312,2
307,286,304,311,2
307,278,304,310,2
307,271,303,309,2
307,268,304,308,2
308,268,305,309,2
309,273,306,310,2
309,280,307,310,2
309,288,307,310,2
308,298,305,309,2
305,311,303,308,2
303,325,301,309,2
302,336,301,311,2
301,343,301,312,2
301,344,301,312,2
302,342,301,312,2
302,339,301,312,2
303,337,302,311,2
304,336,302,311,2
304,336,302,311,2
305,335,302,310,2
306,331,302,310,2
308,324,303,310,2
309,313,303,309,2
309,303,303,309,2
308,295,303,309,2
307,294,303,308,2
306,298,302,307,2
305,302,301,307,2
305,307,300,307,2
305,311,300,307,2
306,314,301,308,2
307,315,301,309,2
308,314,302,309,2
309,310,302,310,2
310,304,303,311,2
312,296,302,311,2
312,286,302,311,2
312,279,302,310,2
313,274,303,309,2
313,275,302,307,2
312,281,302,304,2
311,290,301,302,2
310,296,300,299,2
309,297,300,298,2
308,296,300,297,2
308,295,300,297,2
308,300,301,297,2
307,309,302,298,2
307,318,303,300,2
307,321,302,303,2
307,320,302,306,2
307,317,302,308,2
308,313,302,309,2
309,309,303,308,2
309,305,304,307,2
310,304,305,306,2
311,308,305,305,2
310,316,304,304,2
310,327,302,304,2
309,336,302,304,2
309,343,303,304,2
308,345,305,305,2
307,344,307,305,2
306,340,307,305,2
306,335,307,306,2
306,330,306,306,2
307,324,305,307,2
308,319,304,307,2
308,315,304,307,2
309,313,305,308,2
310,312,306,309,2
312,311,308,311,2
313,310,310,314,2
314,307,311,317,2
314,300,311,319,2
313,290,311,320,2
313,281,310,320,2
313,274,310,320,2
314,272,310,319,2
313,277,310,316,2
311,291,309,313,2
309,308,308,311,2
307,322,307,310,2
306,330,307,310,2
305,332,306,310,2
305,330,305,310,2
304,327,305,310,2
304,324,305,309,2
304,321,305,309,2
304,321,304,308,2
304,323,304,308,2
304,325,303,308,2
304,326,303,309,2
304,326,303,310,2
305,325,304,310,2
305,322,305,310,2
305,318,305,309,2
305,313,305,308,2
305,307,304,307,2
306,300,304,307,2
306,294,304,308,2
306,290,304,308,2
306,287,304,307,2
305,285,305,306,2
305,286,305,304,2
304,289,305,303,2
304,293,305,302,2
304,295,305,302,2
304,294,304,302,2
303,292,302,302,2
302,290,300,301,2
300,291,297,301,2
299,294,294,300,2
298,300,292,299,2
297,305,291,299,2
298,309,291,300,2
300,311,293,301,2
303,310,296,302,2
306,307,299,305,2
308,303,301,308,2
310,301,302,311,2
311,300,302,312,2
311,301,302,312,2
310,304,300,311,2
309,311,299,309,2
308,319,297,307,2
307,324,296,307,2
306,324,297,306,2
307,320,299,306,2
307,313,303,306,2
309,304,306,307,2
310,299,309,307,2
312,296,310,307,2
313,299,310,306,2
313,306,309,305,2
312,313,307,303,2
311,320,306,302,2
310,325,305,301,2
309,328,304,301,2
307,327,302,301,2
306,323,302,302,2
305,315,302,302,2
305,304,303,303,2
305,292,304,303,2
306,280,305,303,2
307,272,306,304,2
307,267,305,303,2
306,270,304,303,2
304,283,302,303,2
303,299,301,304,2
303,313,301,304,2
303,323,302,304,2
304,329,303,303,2
306,332,304,303,2
308,331,305,302,2
310,323,307,301,2
312,312,308,301,2
313,296,309,301,2
313,281,308,303,2
313,271,305,304,2
312,269,303,304,2
311,275,302,304,2
310,286,302,303,2
310,298,304,304,2
310,306,305,305,2
309,310,307,305,2
309,311,308,307,2
308,310,308,309,2
307,311,307,311,2
306,313,306,314,2
306,315,305,316,2
305,318,304,317,2
304,320,302,317,2
304,322,300,316,2
302,327,298,315,2
301,332,296,314,2
300,337,296,314,2
300,339,298,313,2
300,341,301,314,2
301,339,304,314,2
302,334,304,314,2
303,328,305,314,2
304,322,305,314,2
304,316,305,313,2
305,310,305,312,2
304,306,304,311,2
303,306,304,311,2
304,308,303,312,2
304,309,303,312,2
304,312,303,312,2
304,313,303,312,2
305,313,303,311,2
305,311,303,310,2
304,308,303,308,2
304,304,302,307,2
304,299,303,305,2
304,295,302,304,2
304,292,303,303,2
305,291,304,302,2
305,292,306,302,2
306,294,308,302,2
306,298,311,303,2
305,304,312,305,2
305,309,312,308,2
305,312,312,309,2
304,314,310,311,2
304,313,308,312,2
304,311,306,313,2
305,306,305,314,2
306,301,305,315,2
307,294,304,316,2
307,289,304,316,2
308,286,304,316,2
308,287,304,315,2
308,289,304,313,2
308,289,305,312,2
308,286,306,311,2
309,281,308,310,2
310,276,309,309,2
310,270,310,309,2
311,266,310,309,2
311,262,310,308,2
312,257,311,308,2
312,251,311,308,2
313,247,310,307,2
312,245,308,306,2
311,251,306,306,2
309,265,304,305,2
307,288,302,305,2
304,315,300,305,2
301,340,298,306,2
299,359,297,306,2
298,372,297,306,2
297,377,296,306,2
297,378,296,305,2
297,376,295,303,2
297,372,295,302,2
299,363,298,301,2
301,352,302,300,2
303,339,305,300,2
304,328,308,301,2
304,320,309,303,2
305,314,309,303,2
304,307,307,304,2
304,300,305,304,2
305,292,304,305,2
306,285,303,306,2
307,281,303,308,2
307,279,304,310,2
308,281,304,311,2
307,286,304,311,2
306,289,303,309,2
305,294,302,309,2
304,304,302,310,2
304,314,302,310,2
304,322,302,310,2
304,322,302,310,2
304,317,302,309,2
304,307,302,308,2
304,294,302,308,2
305,282,302,307,2
305,273,303,306,2
306,271,303,306,2
305,280,304,307,2
305,294,305,308,2
304,307,306,310,2
304,316,306,311,2
304,319,306,312,2
305,319,307,313,2
306,319,308,314,2
307,320,309,315,2
307,321,310,316,2
307,322,310,317,2
306,322,309,317,2
305,319,307,316,2
303,315,305,315,2
302,313,304,314,2
302,313,304,314,2
302,315,304,313,2
301,317,304,312,2
301,319,304,311,2
300,319,304,309,2
300,317,303,307,2
300,314,303,305,2
300,312,303,304,2
301,312,303,305,2
303,312,305,307,2
305,313,308,309,2
306,314,310,311,2
307,315,311,313,2
306,315,311,313,2
306,315,309,312,2
305,315,306,309,2
304,314,304,306,2
304,310,302,303,2
303,303,300,300,2
303,296,300,297,2
303,290,301,296,2
303,285,302,297,2
303,280,304,300,2
302,277,305,304,2
302,278,306,308,2
302,283,307,311,2
302,288,307,314,2
303,290,309,316,2
303,292,310,317,2
303,293,310,317,2
303,295,309,316,2
302,298,307,316,2
302,301,306,315,2
302,299,305,315,2
303,291,305,315,2
304,278,307,314,2
305,263,310,314,2
307,248,314,313,2
308,239,317,312,2
309,239,318,311,2
308,252,317,310,2
306,275,315,309,2
304,301,314,309,2
303,323,312,309,2
303,337,311,309,2
302,346,310,310,2
302,350,309,310,2
303,351,308,310,2
303,352,307,310,2
303,353,307,310,2
303,353,306,310,2
303,348,306,310,2
303,341,306,309,2
302,334,306,309,2
302,326,305,308,2
302,318,305,308,2
303,309,306,307,2
304,300,306,307,2
305,293,306,307,2
306,288,306,307,2
307,286,307,306,2
307,286,307,306,2
308,287,308,306,2
308,289,309,307,2
309,291,310,307,2
309,292,310,307,2
309,291,310,308,2
310,285,311,309,2
311,277,312,311,2
311,270,313,312,2
312,264,314,314,2
312,263,316,315,2
312,272,317,316,2
313,289,319,317,2
313,306,320,318,2
312,316,320,319,2
311,320,319,319,2
311,319,317,318,2
311,318,316,318,2
311,318,314,318,2
312,317,313,317,2
311,317,312,315,2
310,320,310,313,2
308,323,309,311,2
308,325,308,310,2
308,325,309,309,2
308,321,309,309,2
308,315,309,310,2
309,309,309,311,2
310,300,309,311,2
310,291,309,311,2
310,286,309,311,2
310,289,309,310,2
311,295,310,310,2
310,299,310,310,2
310,302,309,309,2
309,304,307,308,2
309,308,304,307,2
307,311,301,306,2
306,313,298,305,2
304,317,295,304,2
302,320,294,303,2
302,321,296,302,2
302,319,301,301,2
303,314,306,300,2
304,309,311,302,2
304,303,313,304,2
305,298,315,308,2
305,295,316,310,2
306,294,315,313,2
306,298,314,314,2
307,304,313,315,2
307,310,313,316,2
307,315,312,316,2
306,320,310,315,2
306,324,308,315,2
306,326,307,315,2
306,326,305,315,2
305,324,305,314,2
305,322,304,314,2
305,320,304,313,2
304,317,305,313,2
304,313,307,313,2
305,310,308,313,2
305,307,311,313,2
305,303,311,312,2
304,299,311,312,2
304,296,309,312,2
304,293,307,313,2
305,287,306,314,2
305,278,306,314,2
307,268,306,314,2
308,262,307,313,2
308,262,308,311,2
308,267,308,310,2
309,276,309,310,2
308,286,309,310,2
307,295,308,310,2
305,304,306,309,2
305,313,305,309,2
304,320,304,308,2
304,325,304,307,2
304,329,304,307,2
304,333,305,308,2
304,335,305,309,2
303,338,305,310,2
302,338,305,311,2
302,336,305,312,2
302,329,306,312,2
303,314,306,312,2
303,291,307,311,2
304,267,308,310,2
306,250,308,309,2
308,241,308,308,2
309,248,307,306,2
307,268,306,305,2
305,298,304,305,2
303,325,303,305,2
300,341,302,306,2
299,346,303,307,2
299,343,304,309,2
300,337,305,310,2
301,331,306,308,2
302,325,306,307,2
302,321,305,305,2
303,319,304,303,2
303,318,304,302,2
303,319,303,300,2
303,321,304,300,2
304,324,305,300,2
305,327,305,301,2
306,330,306,303,2
307,331,307,306,2
308,326,307,308,2
308,316,307,308,2
307,303,306,307,2
305,290,304,306,2
303,280,301,305,2
301,276,300,303,2
300,278,299,303,2
299,283,300,302,2
300,290,300,303,2
301,294,301,305,2
302,298,302,308,2
303,301,302,311,2
304,306,304,313,2
304,311,305,315,2
305,316,308,317,2
305,321,310,317,2
304,326,312,317,2
303,329,312,317,2
303,328,312,317,2
303,321,312,318,2
304,312,311,318,2
305,301,311,317,2
306,292,310,315,2
305,288,309,312,2
304,287,308,310,2
304,289,307,307,2
303,292,307,306,2
303,295,308,307,2
303,295,308,309,2
303,292,309,311,2
303,288,309,311,2
303,283,309,311,2
303,281,309,309,2
303,279,309,308,2
304,281,309,306,2
304,285,308,305,2
303,292,308,305,2
303,300,306,305,2
302,306,305,306,2
302,308,305,306,2
302,309,305,307,2
302,310,305,307,2
303,311,306,308,2
303,313,307,308,2
303,314,306,308,2
304,317,307,307,2
305,319,307,307,2
305,318,307,307,2
306,317,307,307,2
306,315,307,309,2
306,313,308,310,2
306,309,308,311,2
306,304,309,311,2
306,297,310,310,2
306,290,310,309,2
306,289,310,307,2
305,292,311,307,2
305,295,311,306,2
306,298,312,306,2
305,302,312,306,2
304,306,312,306,2
303,309,311,305,2
303,312,311,305,2
303,317,310,306,2
303,321,310,306,2
303,324,309,306,2
303,326,308,307,2
302,328,307,307,2
302,328,306,307,2
301,328,306,308,2
301,327,305,308,2
301,326,305,309,2
301,326,306,310,2
302,325,307,310,2
303,325,308,312,2
305,326,308,312,2
306,325,309,313,2
307,320,309,312,2
308,311,309,312,2
308,298,310,312,2
309,286,311,313,2
310,276,312,313,2
310,268,313,313,2
311,264,313,312,2
311,264,313,311,2
310,269,313,309,2
310,278,313,307,2
309,287,311,306,2
308,293,310,305,2
307,296,308,303,2
305,297,306,301,2
304,298,304,299,2
304,300,302,297,2
303,305,299,297,2
302,313,297,297,2
301,320,295,297,2
300,326,293,298,2
300,328,293,298,2
301,326,295,299,2
303,322,297,300,2
306,316,299,303,2
309,306,300,304,2
311,295,301,306,2
312,288,301,307,2
312,286,301,307,2
311,287,300,307,2
310,292,302,308,2
309,297,303,309,2
308,301,306,310,2
307,303,308,311,2
306,301,309,313,2
306,301,310,314,2
307,301,310,315,2
307,303,310,315,2
307,307,309,316,2
307,314,308,316,2
306,321,307,315,2
305,326,306,314,2
305,327,305,314,2
304,324,304,314,2
304,319,303,314,2
304,313,304,315,2
305,307,304,316,2
307,303,304,317,2
308,300,304,317,2
309,299,304,317,2
310,298,303,315,2
310,295,303,313,2
311,293,302,312,2
311,291,303,311,2
312,291,304,311,2
312,293,305,312,2
312,297,306,313,2
311,302,307,314,2
310,307,308,315,2
309,313,309,316,2
308,317,309,316,2
308,321,308,315,2
307,326,307,314,2
308,330,307,313,2
308,333,306,313,2
308,334,306,313,2
308,330,306,312,2
309,320,306,312,2
309,305,306,312,2
310,288,306,312,2
311,271,306,311,2
313,257,306,311,2
314,251,307,311,2
315,254,308,310,2
313,264,307,309,2
311,275,306,309,2
309,286,304,308,2
306,300,303,309,2
305,314,303,310,2
304,325,302,310,2
304,332,303,309,2
306,334,303,308,2
307,332,304,308,2
308,327,304,308,2
308,320,302,307,2
308,314,300,307,2
308,308,299,306,2
307,305,297,306,2
306,305,296,305,2
304,308,295,304,2
302,312,297,303,2
301,316,299,303,2
301,319,302,303,2
303,320,302,302,2
304,317,301,301,2
304,312,299,300,2
305,305,297,300,2
306,300,297,300,2
306,297,299,300,2
307,295,301,301,2
308,294,304,304,2
309,295,307,309,2
311,294,309,313,2
311,292,312,316,2
311,291,313,317,2
310,293,312,317,2
309,296,312,317,2
308,301,312,315,2
307,306,311,314,2
306,311,310,313,2
306,315,309,311,2
306,319,308,311,2
305,322,307,310,2
304,325,307,309,2
303,324,306,308,2
303,321,306,307,2
303,318,306,306,2
302,313,306,305,2
302,306,306,304,2
302,297,306,303,2
302,289,306,302,2
302,285,305,302,2
302,283,304,301,2
303,282,304,301,2
304,281,304,300,2
304,283,304,300,2
305,289,305,300,2
305,297,306,301,2
304,304,307,303,2
304,306,307,305,2
304,303,308,307,2
304,299,308,308,2
303,298,308,309,2
304,299,307,310,2
304,303,307,311,2
305,307,307,311,2
305,311,306,312,2
305,315,306,312,2
305,317,306,312,2
305,316,305,312,2
305,314,305,312,2
306,310,305,312,2
307,306,306,311,2
307,301,305,311,2
306,295,305,309,2
307,290,304,308,2
307,288,304,307,2
307,290,304,307,2
307,293,305,307,2
308,300,305,308,2
308,308,304,308,2
308,315,304,309,2
308,321,303,310,2
308,325,302,310,2
308,327,301,310,2
308,325,301,310,2
308,319,302,308,2
308,313,302,307,2
308,308,302,307,2
308,303,301,305,2
306,300,299,303,2
305,300,297,303,2
304,300,295,304,2
303,305,295,305,2
303,312,297,307,2
302,320,301,308,2
302,325,305,309,2
303,328,308,310,2
304,330,309,311,2
305,330,309,311,2
306,327,309,310,2
307,321,309,308,2
308,314,308,306,2
308,307,307,304,2
307,301,306,301,2
305,298,304,299,2
303,295,303,298,2
303,291,302,298,2
303,285,301,298,2
304,278,301,299,2
304,269,299,298,2
304,260,297,298,2
304,252,297,298,2
304,252,297,299,2
305,260,298,301,2
306,273,300,302,2
307,288,302,304,2
308,302,304,306,2
309,315,305,309,2
311,326,306,311,2
311,336,306,312,2
311,340,305,312,2
310,336,303,311,2
308,326,302,310,2
307,313,301,309,2
305,302,300,308,2
304,295,299,308,2
303,292,298,308,2
303,293,298,308,2
303,298,298,308,2
304,304,299,308,2
305,312,300,309,2
306,318,301,310,2
308,320,303,312,2
310,318,304,313,2
311,311,306,313,2
312,302,306,312,2
313,295,306,310,2
312,293,307,309,2
312,295,307,310,2
311,301,307,310,2
309,309,306,309,2
308,316,307,309,2
308,320,308,308,2
308,321,309,307,2
309,319,309,306,2
309,317,309,304,2
308,318,308,303,2
307,323,307,303,2
306,328,306,303,2
306,330,305,302,2
306,328,305,302,2
306,324,304,302,2
306,315,303,302,2
307,303,300,301,2
308,290,297,299,2
308,278,296,297,2
308,269,294,296,2
307,266,295,297,2
308,271,297,298,2
307,281,300,299,2
307,291,303,301,2
307,300,306,303,2
307,306,308,304,2
307,313,309,306,2
307,320,309,307,2
307,326,310,309,2
307,330,309,309,2
307,332,309,309,2
307,331,308,308,2
307,328,308,308,2
306,324,307,306,2
305,320,307,306,2
306,318,307,304,2
306,319,306,304,2
305,320,306,304,2
305,321,306,304,2
306,320,306,305,2
306,319,306,305,2
306,317,305,304,2
306,315,304,303,2
305,308,303,303,2
304,298,302,302,2
304,285,303,302,2
306,275,305,304,2
308,269,308,307,2
309,271,310,308,2
309,281,311,310,2
309,294,312,310,2
309,303,312,310,2
308,305,311,309,2
309,302,311,309,2
309,300,310,309,2
309,304,310,309,2
309,314,309,309,2
308,330,309,310,2
308,342,309,311,2
307,346,309,312,2
305,343,309,312,2
304,337,308,313,2
304,329,309,314,2
305,320,309,314,2
305,309,309,314,2
305,298,309,313,2
304,289,308,311,2
304,283,307,309,2
304,280,307,307,2
304,280,307,305,2
304,282,308,304,2
305,286,310,304,2
306,292,311,305,2
307,303,312,308,2
308,316,312,309,2
309,325,311,310,2
308,328,310,311,2
308,328,307,312,2
307,325,306,312,2
306,322,305,312,2
305,318,304,313,2
305,313,304,313,2
305,306,305,314,2
306,298,306,314,2
307,293,306,313,2
308,293,306,312,2
308,297,305,312,2
307,304,305,311,2
305,313,305,310,2
304,320,306,308,2
302,322,308,306,2
301,321,310,304,2
300,317,310,303,2
301,310,310,304,2
302,303,309,305,2
304,297,309,306,2
306,289,309,307,2
308,280,310,307,2
309,271,310,306,2
311,266,311,306,2
312,268,311,305,2
312,277,311,305,2
311,292,310,305,2
310,311,308,304,2
307,330,306,302,2
305,345,305,300,2
304,357,304,300,2
303,363,303,300,2
302,361,302,302,2
302,354,303,304,2
302,347,304,306,2
302,339,305,307,2
303,331,306,308,2
304,323,307,309,2
304,317,308,310,2
306,312,308,311,2
307,307,309,311,2
308,302,308,310,2
309,297,308,309,2
309,292,307,306,2
309,289,306,304,2
310,286,306,302,2
310,283,304,300,2
310,279,303,298,2
310,272,301,296,2
310,265,301,294,2
311,258,304,293,2
312,253,306,294,2
313,253,309,297,2
314,261,311,300,2
313,278,312,303,2
312,300,310,304,2
311,320,308,305,2
310,335,306,305,2
309,342,304,305,2
308,344,303,305,2
306,341,301,306,2
306,338,301,306,2
306,334,301,306,2
307,331,302,307,2
309,327,303,308,2
310,324,305,309,2
312,321,307,310,2
313,315,307,311,2
313,307,306,310,2
312,297,304,310,2
313,288,302,308,2
313,282,301,308,2
313,280,301,308,2
314,283,301,308,2
313,288,301,309,2
313,293,301,309,2
311,297,302,309,2
309,299,304,309,2
307,300,306,308,2
306,304,309,307,2
306,310,309,307,2
306,316,308,307,2
306,322,308,307,2
306,327,307,306,2
306,330,306,305,2
307,328,305,305,2
308,322,306,304,2
309,315,307,303,2
310,305,308,303,2
311,296,308,302,2
310,288,309,301,2
309,286,308,300,2
306,287,307,299,2
304,291,307,300,2
304,296,306,302,2
303,304,306,304,2
304,311,305,306,2
305,316,305,309,2
306,318,306,312,2
306,318,306,312,2
305,316,305,312,2
304,315,305,311,2
304,313,306,310,2
303,311,306,308,2
304,308,306,306,2
303,306,306,304,2
304,305,307,304,2
304,305,307,303,2
305,303,307,303,2
305,299,307,304,2
305,295,307,305,2
305,293,306,306,2
305,293,306,307,2
305,292,305,307,2
305,290,304,304,2
305,289,302,301,2
304,289,301,297,2
304,289,299,295,2
304,285,299,293,2
305,281,299,292,2
306,279,301,294,2
307,281,304,298,2
308,287,307,303,2
309,300,309,308,2
310,317,311,312,2
310,334,311,314,2
310,346,311,314,2
309,354,311,313,2
308,357,311,311,2
306,358,310,310,2
304,356,309,310,2
304,352,307,310,2
304,348,306,310,2
303,345,306,310,2
304,340,305,310,2
304,329,304,310,2
304,315,303,308,2
305,300,303,307,2
305,288,303,306,2
307,279,304,305,2
309,274,304,304,2
309,272,304,304,2
309,274,304,304,2
307,278,303,304,2
305,282,302,304,2
305,286,302,304,2
304,292,304,304,2
304,302,306,305,2
303,313,307,306,2
302,321,308,306,2
301,324,308,306,2
301,322,308,304,2
302,319,308,303,2
302,316,309,302,2
302,315,310,302,2
302,316,311,302,2
303,317,312,303,2
303,318,312,305,2
303,318,312,307,2
303,317,312,309,2
302,315,311,310,2
302,315,311,310,2
301,316,309,309,2
300,319,308,308,2
300,322,306,307,2
299,323,305,306,2
299,323,303,304,2
300,321,301,303,2
301,319,301,303,2
303,314,302,303,2
304,303,302,303,2
306,288,303,302,2
307,272,304,302,2
309,259,304,302,2
311,251,306,303,2
312,251,306,304,2
311,259,307,305,2
310,269,307,306,2
309,281,306,307,2
307,292,306,308,2
305,299,306,308,2
304,302,305,308,2
302,304,306,307,2
302,306,306,307,2
302,307,306,307,2
302,307,306,306,2
302,308,307,306,2
301,310,307,306,2
301,314,306,305,2
300,320,305,303,2
299,329,304,302,2
299,337,303,301,2
298,343,302,300,2
298,346,302,299,2
298,346,301,298,2
298,345,299,298,2
299,341,298,299,2
300,337,297,301,2
302,329,297,304,2
303,317,296,305,2
304,302,295,305,2
305,287,294,305,2
306,274,295,304,2
306,268,296,303,2
307,269,299,302,2
309,276,305,303,2
310,287,309,305,2
312,296,313,308,2
312,304,314,311,2
312,311,314,312,2
311,317,313,314,2
311,323,311,314,2
309,329,309,313,2
308,333,308,313,2
307,338,307,313,2
307,340,307,313,2
307,338,307,313,2
308,332,307,313,2
308,326,308,312,2
307,323,308,311,2
307,322,308,310,2
307,320,309,309,2
308,317,309,308,2
308,313,309,307,2
308,307,309,306,2
308,298,309,306,2
308,288,308,306,2
307,281,308,306,2
307,280,306,306,2
306,284,305,305,2
305,290,304,305,2
305,296,303,305,2
305,302,303,305,2
305,307,302,305,2
305,311,302,304,2
305,314,302,303,2
304,316,302,303,2
304,317,303,303,2
304,318,304,304,2
304,318,305,306,2
305,316,306,306,2
305,312,307,307,2
305,305,308,306,2
306,298,308,306,2
307,291,308,305,2
307,284,309,305,2
308,278,310,305,2
308,272,310,304,2
307,270,309,302,2
306,273,308,301,2
305,280,307,300,2
304,289,305,299,2
303,298,303,299,2
303,307,302,300,2
303,312,302,301,2
303,315,302,302,2
303,316,302,303,2
303,318,302,304,2
304,319,303,305,2
304,318,303,305,2
305,318,304,305,2
305,315,305,304,2
306,313,307,304,2
306,312,307,303,2
306,312,308,303,2
306,311,306,302,2
305,307,304,302,2
304,297,301,302,2
303,281,299,301,2
303,266,298,301,2
303,258,298,302,2
304,259,300,303,2
304,271,301,304,2
304,291,301,306,2
303,312,301,308,2
302,330,300,309,2
302,340,298,308,2
301,343,297,306,2
300,342,297,304,2
299,338,298,303,2
298,333,301,302,2
298,328,304,302,2
298,323,307,302,2
300,319,309,303,2
301,315,309,304,2
303,312,309,304,2
305,310,308,305,2
306,311,308,306,2
307,315,308,307,2
307,319,308,308,2
306,322,309,309,2
306,319,309,309,2
306,311,309,310,2
307,299,310,309,2
308,288,310,309,2
308,279,311,308,2
308,275,312,308,2
308,274,312,308,2
308,279,312,309,2
307,291,312,309,2
306,305,312,310,2
305,318,312,311,2
304,329,311,311,2
303,336,311,310,2
302,341,311,309,2
301,345,310,308,2
301,348,310,308,2
301,349,310,307,2
301,348,310,305,2
300,347,309,304,2
300,345,308,304,2
301,340,308,304,2
301,330,308,304,2
301,317,308,303,2
302,304,307,303,2
303,295,308,303,2
304,289,308,305,2
305,287,308,306,2
306,288,309,307,2
306,293,309,307,2
305,299,309,307,2
306,305,309,306,2
305,309,308,306,2
303,311,308,305,2
303,311,307,305,2
302,309,308,304,2
302,302,309,304,2
302,289,309,303,2
303,274,310,302,2
305,259,311,301,2
306,250,311,299,2
306,249,312,299,2
306,258,312,300,2
306,275,313,301,2
306,291,313,302,2
305,303,312,302,2
304,308,310,301,2
303,310,307,301,2
302,309,304,300,2
302,311,302,300,2
302,316,300,299,2
303,322,298,298,2
303,327,297,297,2
303,328,296,296,2
301,322,295,295,2
300,313,295,295,2
299,304,297,296,2
299,296,299,298,2
300,289,303,301,2
301,287,308,304,2
303,292,312,306,2
304,304,314,308,2
305,315,314,310,2
306,321,314,311,2
306,323,313,312,2
307,323,313,313,2
308,322,313,314,2
308,322,312,314,2
307,322,312,314,2
307,321,311,313,2
306,321,309,312,2
306,321,307,311,2
306,320,306,310,2
306,317,306,309,2
306,310,305,308,2
307,299,305,307,2
308,285,305,306,2
310,273,305,305,2
311,267,306,304,2
311,267,307,302,2
311,275,307,301,2
311,291,308,300,2
310,310,308,301,2
310,324,309,302,2
309,332,310,303,2
309,332,312,305,2
309,325,313,306,2
309,316,313,307,2
308,310,313,308,2
308,309,313,309,2
307,311,313,310,2
307,315,314,310,2
307,320,313,309,2
306,324,312,308,2
305,328,312,307,2
304,329,311,306,2
304,328,310,305,2
304,326,310,305,2
305,324,309,305,2
305,323,309,306,2
306,322,309,307,2
307,321,309,309,2
307,320,309,311,2
307,317,310,311,2
307,314,309,311,2
307,309,310,311,2
307,304,310,311,2
307,297,311,312,2
307,290,311,312,2
308,285,312,312,2
308,282,311,312,2
309,284,311,312,2
310,287,312,312,2
310,287,311,311,2
310,281,312,311,2
311,269,313,311,2
313,254,314,310,2
314,242,315,310,2
316,238,316,311,2
317,244,316,311,2
316,261,315,310,2
314,285,314,309,2
311,307,312,307,2
308,320,311,306,2
306,328,311,305,2
305,334,310,305,2
304,338,309,305,2
304,341,309,304,2
303,343,309,304,2
303,343,309,305,2
304,344,309,305,2
304,346,310,305,2
304,349,310,306,2
304,350,310,306,2
304,348,309,307,2
304,343,308,307,2
304,337,307,305,2
304,331,305,303,2
304,325,303,301,2
303,320,302,299,2
303,317,301,298,2
303,313,302,299,2
304,311,306,300,2
305,309,310,303,2
307,308,316,307,2
309,308,320,310,2
309,307,321,312,2
310,307,322,313,2
310,306,322,314,2
310,305,321,313,2
311,304,321,312,2
311,302,319,311,2
311,301,318,310,2
312,298,317,309,2
313,294,317,309,2
314,286,316,308,2
315,275,315,308,2
315,263,315,307,2
316,251,315,308,2
317,244,315,307,2
316,242,314,307,2
314,245,314,307,2
312,253,313,306,2
311,263,313,306,2
310,274,313,305,2
309,283,313,305,2
308,293,312,305,2
307,306,311,305,2
306,320,310,304,2
305,330,308,304,2
305,335,308,304,2
305,336,308,305,2
305,335,308,305,2
304,334,308,306,2
302,331,309,307,2
302,328,310,307,2
303,324,310,307,2
303,319,311,306,2
304,315,311,304,2
304,311,312,303,2
304,308,312,302,2
305,306,312,302,2
306,306,312,303,2
306,306,313,304,2
308,306,313,306,2
309,307,314,307,2
309,308,315,309,2
309,308,315,310,2
308,307,314,311,2
308,306,314,312,2
307,305,314,313,2
307,304,313,313,2
307,303,313,314,2
306,302,312,313,2
305,299,312,312,2
304,298,311,310,2
304,295,311,308,2
304,293,311,305,2
304,290,312,303,2
304,289,312,302,2
304,288,312,302,2
304,288,313,302,2
305,288,313,303,2
306,288,313,305,2
307,287,314,307,2
308,284,314,308,2
309,279,316,310,2
311,275,317,312,2
312,273,318,314,2
312,271,319,314,2
310,269,318,314,2
308,272,316,312,2
305,280,313,310,2
302,293,311,309,2
299,308,310,307,2
297,321,308,305,2
297,331,308,305,2
297,336,309,305,2
299,337,310,305,2
300,336,310,305,2
302,334,310,305,2
304,332,309,304,2
305,329,308,303,2
305,325,307,301,2
306,320,307,300,2
307,316,307,301,2
307,315,308,303,2
308,316,308,305,2
308,317,306,308,2
308,318,305,308,2
308,317,304,309,2
308,311,305,308,2
309,303,306,308,2
310,295,310,308,2
310,292,312,308,2
310,294,313,308,2
309,299,312,307,2
307,305,311,307,2
305,309,310,305,2
305,311,309,305,2
305,311,309,305,2
306,310,309,305,2
306,307,308,304,2
307,303,307,302,2
306,300,307,300,2
306,296,307,299,2
307,293,307,299,2
308,292,307,300,2
309,295,308,302,2
310,301,308,303,2
310,309,308,304,2
309,316,306,304,2
308,321,305,305,2
307,324,304,305,2
307,324,304,306,2
308,321,304,306,2
309,317,305,306,2
309,315,306,306,2
309,316,306,306,2
309,320,306,305,2
309,324,306,305,2
310,328,306,304,2
310,331,305,303,2
309,333,304,302,2
309,335,304,301,2
310,335,304,300,2
311,334,305,300,2
312,331,304,298,2
312,327,304,298,2
312,322,304,297,2
312,317,304,297,2
312,312,304,299,2
313,306,305,302,2
313,299,305,304,2
313,292,305,305,2
314,287,305,306,2
315,287,306,305,2
315,288,306,303,2
314,292,306,301,2
315,297,306,300,2
315,302,307,300,2
316,302,309,300,2
316,298,310,300,2
317,290,312,301,2
316,282,312,301,2
315,276,310,302,2
315,273,308,303,2
314,273,307,303,2
314,274,306,304,2
314,277,305,305,2
313,283,305,306,2
313,294,305,307,2
312,306,305,307,2
311,317,304,308,2
310,327,304,308,2
309,337,303,308,2
308,345,302,307,2
307,349,301,305,2
306,350,301,303,2
305,349,302,301,2
306,345,304,300,2
307,340,306,299,2
307,334,307,299,2
308,326,307,300,2
308,317,308,301,2
309,307,310,301,2
310,299,313,303,2
311,295,314,305,2
311,295,315,307,2
311,299,315,309,2
309,307,315,311,2
308,319,314,312,2
307,328,314,313,2
306,330,312,313,2
306,326,311,313,2
305,318,310,311,2
304,311,310,311,2
305,303,310,311,2
305,299,311,311,2
306,298,311,311,2
308,298,312,311,2
309,299,313,309,2
310,301,313,309,2
311,302,313,309,2
310,301,313,309,2
310,299,312,309,2
309,297,311,310,2
309,295,310,310,2
307,295,308,309,2
306,300,307,308,2
305,309,306,307,2
305,320,306,308,2
304,330,306,308,2
304,336,307,308,2
304,336,307,308,2
304,332,307,308,2
304,325,308,308,2
305,316,308,307,2
306,306,308,306,2
307,296,308,305,2
308,288,308,305,2
309,285,308,303,2
309,285,308,302,2
309,287,307,302,2
308,289,307,301,2
307,289,307,301,2
307,286,308,301,2
307,284,309,301,2
308,286,310,303,2
307,296,310,304,2
307,311,310,307,2
305,327,309,309,2
303,337,308,309,2
303,342,307,309,2
303,342,307,310,2
303,340,307,310,2
305,337,308,311,2
306,333,309,311,2
306,328,311,311,2
307,323,311,311,2
307,317,312,312,2
307,313,312,313,2
307,311,312,313,2
306,311,311,313,2
305,312,311,313,2
303,313,310,311,2
302,312,309,311,2
302,310,308,310,2
302,305,307,310,2
303,302,307,309,2
303,299,307,308,2
303,299,306,307,2
302,300,306,305,2
302,304,306,304,2
303,308,306,303,2
304,313,307,302,2
306,318,307,303,2
307,318,307,304,2
307,315,307,305,2
306,311,306,307,2
305,308,306,308,2
305,305,306,309,2
305,301,307,310,2
305,298,307,310,2
305,296,307,310,2
305,296,306,308,2
305,298,304,307,2
305,302,302,305,2
305,305,300,303,2
304,308,299,301,2
304,309,299,300,2
304,305,300,299,2
304,298,300,300,2
304,289,301,302,2
305,281,302,304,2
305,272,302,306,2
305,262,303,307,2
304,256,304,308,2
305,257,305,308,2
305,267,307,308,2
305,281,308,308,2
304,294,309,308,2
303,305,308,307,2
303,315,306,307,2
302,326,304,307,2
302,335,304,308,2
302,341,303,308,2
302,343,303,307,2
302,341,304,306,2
303,336,304,306,2
305,329,305,305,2
306,322,305,306,2
307,314,306,308,2
309,307,306,308,2
310,303,307,309,2
311,300,308,309,2
311,296,309,309,2
311,296,309,308,2
311,298,308,308,2
310,301,308,307,2
309,303,308,308,2
309,305,308,308,2
310,306,307,309,2
310,310,307,309,2
310,315,307,308,2
310,321,306,307,2
309,326,305,306,2
307,329,304,304,2
306,328,303,303,2
305,326,302,303,2
304,323,301,303,2
305,322,300,303,2
305,320,300,304,2
307,318,301,305,2
308,315,302,306,2
308,313,303,306,2
308,312,303,305,2
307,309,303,305,2
307,306,304,304,2
307,304,304,304,2
307,305,305,304,2
307,307,305,304,2
307,310,305,304,2
306,315,306,304,2
305,319,305,303,2
304,322,304,304,2
304,325,304,304,2
305,328,305,305,2
305,330,305,306,2
305,329,305,306,2
304,324,305,306,2
302,317,305,306,2
301,306,305,304,2
300,295,305,302,2
301,288,306,301,2
302,286,307,301,2
303,284,309,303,2
304,284,309,304,2
304,284,309,306,2
305,285,309,307,2
306,288,308,308,2
306,290,308,310,2
306,292,308,310,2
305,292,307,310,2
304,291,305,308,2
303,289,303,305,2
302,287,301,302,2
302,286,300,300,2
303,286,300,299,2
304,286,301,299,2
306,284,304,298,2
307,283,307,299,2
307,284,309,300,2
307,287,309,302,2
