315,307,310,313,0
316,317,310,316,0
315,323,309,317,0
313,322,306,316,0
310,316,302,313,0
307,310,297,310,0
305,303,293,306,0
303,295,290,304,0
302,287,289,303,0
302,278,291,302,0
302,271,294,302,0
304,266,297,304,0
305,263,301,306,0
307,260,304,306,0
308,259,308,308,0
309,262,312,309,0
310,267,315,311,0
312,275,316,311,0
314,286,317,312,0
316,302,317,313,0
318,322,316,316,0
319,338,316,318,0
319,346,315,318,0
317,353,314,319,0
316,357,313,320,0
315,356,312,321,0
316,356,313,322,0
317,360,314,322,0
317,362,313,323,0
316,353,312,322,0
315,338,310,321,0
313,321,308,318,0
310,304,305,315,0
307,287,303,313,0
305,270,301,311,0
304,257,301,310,0
303,251,300,308,0
302,250,300,306,0
302,251,299,303,0
302,252,300,301,0
303,256,302,301,0
305,261,306,302,0
307,269,308,304,0
308,279,309,305,0
308,288,310,307,0
308,297,311,308,0
307,304,311,310,0
305,309,310,310,0
303,313,309,311,0
302,316,308,310,0
302,316,307,310,0
302,312,307,309,0
303,307,307,308,0
305,301,307,309,0
306,297,305,309,0
306,297,304,310,0
307,300,303,309,0
307,303,302,309,0
307,304,303,308,0
308,305,304,308,0
308,306,307,309,0
309,312,310,311,0
309,320,312,315,0
309,329,314,317,0
307,334,314,317,0
304,333,314,316,0
302,325,312,315,0
302,309,310,313,0
303,290,311,312,0
304,273,313,311,0
307,263,315,312,0
310,262,317,313,0
313,275,318,315,0
315,302,318,317,0
316,336,317,318,0
316,366,316,319,0
315,381,313,317,0
312,382,310,315,0
310,372,308,313,0
309,353,307,312,0
308,328,306,310,0
306,306,306,310,0
305,290,304,308,0
304,281,302,305,0
302,279,299,302,0
300,284,297,298,0
298,289,297,296,0
298,292,299,296,0
299,293,303,299,0
301,293,307,302,0
303,292,310,305,0
306,292,314,306,0
309,294,317,308,0
311,297,318,310,0
311,301,319,311,0
312,310,319,312,0
311,322,318,313,0
310,331,317,313,0
309,334,315,312,0
307,333,313,311,0
307,326,311,311,0
307,316,310,311,0
307,303,309,312,0
306,291,308,312,0
305,284,306,312,0
304,282,305,312,0
303,281,305,313,0
302,278,306,313,0
301,275,308,314,0
302,273,309,314,0
302,276,309,313,0
303,284,308,313,0
303,297,307,313,0
303,311,306,312,0
302,322,306,311,0
301,327,307,310,0
300,327,307,309,0
300,326,307,308,0
301,324,307,308,0
302,324,308,308,0
304,322,308,308,0
305,317,308,308,0
307,313,308,308,0
309,314,308,309,0
311,319,309,311,0
312,319,310,312,0
312,316,311,312,0
312,313,310,312,0
311,310,310,312,0
308,302,308,311,0
306,286,307,309,0
305,266,307,308,0
305,248,307,308,0
307,233,307,309,0
308,223,307,309,0
309,219,308,310,0
309,222,308,310,0
309,233,308,310,0
308,249,306,310,0
308,266,304,311,0
307,283,302,311,0
305,299,300,310,0
303,310,299,309,0
301,317,299,309,0
301,322,299,308,0
301,328,298,307,0
301,337,298,307,0
302,351,298,308,0
304,365,299,310,0
307,377,301,311,0
310,383,303,313,0
313,384,307,313,0
314,379,311,312,0
314,371,313,311,0
313,361,314,311,0
311,349,312,309,0
307,330,312,307,0
304,310,311,304,0
302,293,310,302,0
301,286,308,301,0
301,292,306,299,0
302,310,306,299,0
304,333,306,298,0
306,352,304,297,0
307,356,302,296,0
306,339,297,294,0
304,310,293,294,0
304,282,292,296,0
304,261,293,300,0
305,249,297,305,0
305,246,302,309,0
306,250,305,313,0
306,257,306,314,0
305,263,306,314,0
305,268,305,313,0
305,270,306,311,0
306,268,307,309,0
307,263,308,307,0
308,258,309,306,0
309,258,311,306,0
309,262,312,308,0
310,271,313,309,0
309,282,313,310,0
309,293,313,312,0
309,301,314,313,0
308,307,314,315,0
307,313,314,316,0
306,318,314,316,0
306,322,313,315,0
305,328,313,314,0
306,335,313,313,0
306,342,313,313,0
307,345,313,312,0
307,342,311,312,0
308,332,310,312,0
309,317,310,312,0
310,304,311,313,0
312,297,313,315,0
315,296,315,317,0
317,298,316,317,0
316,296,316,315,0
313,292,314,312,0
310,288,313,310,0
306,284,310,307,0
302,276,307,304,0
299,269,303,302,0
298,265,300,300,0
297,267,299,300,0
297,273,300,301,0
298,282,302,302,0
299,291,307,304,0
300,300,311,306,0
301,308,314,307,0
300,314,316,308,0
300,316,317,308,0
302,315,318,308,0
304,314,319,308,0
306,313,318,307,0
307,312,316,307,0
309,309,315,307,0
310,303,313,306,0
310,298,312,306,0
310,297,312,307,0
310,298,312,307,0
311,297,311,307,0
311,298,311,306,0
311,303,311,306,0
311,312,312,307,0
311,319,313,308,0
311,326,313,308,0
311,332,313,308,0
311,336,313,308,0
310,337,313,307,0
310,338,312,306,0
308,343,311,303,0
307,353,310,301,0
307,367,310,300,0
310,379,311,303,0
311,379,312,307,0
312,359,312,311,0
312,328,312,313,0
310,298,311,313,0
306,274,308,311,0
303,259,305,308,0
299,248,303,305,0
297,241,301,304,0
297,239,301,303,0
297,243,302,304,0
299,250,303,305,0
299,257,303,305,0
299,264,301,304,0
300,271,299,303,0
301,277,300,304,0
303,284,302,306,0
305,293,304,308,0
307,303,307,310,0
307,311,309,312,0
306,316,310,312,0
305,318,310,311,0
305,318,310,310,0
304,317,311,310,0
303,316,313,309,0
303,312,315,308,0
304,307,316,307,0
305,302,316,306,0
306,298,313,304,0
305,297,310,302,0
305,302,306,299,0
304,309,305,298,0
304,319,307,300,0
305,328,309,303,0
306,333,310,307,0
308,336,312,310,0
310,339,313,312,0
311,338,312,313,0
311,335,311,312,0
310,330,310,310,0
309,322,310,308,0
308,314,310,308,0
308,307,310,309,0
306,303,311,310,0
306,308,311,312,0
305,321,311,313,0
304,338,311,313,0
303,352,310,312,0
303,357,307,311,0
304,346,304,309,0
303,320,301,306,0
303,289,299,304,0
303,265,298,303,0
304,254,299,304,0
306,256,302,304,0
307,267,306,305,0
306,284,310,305,0
304,299,313,304,0
302,307,313,303,0
301,308,312,303,0
302,306,311,303,0
304,303,309,304,0
305,298,307,304,0
307,293,305,305,0
309,289,305,305,0
310,288,306,305,0
309,292,305,303,0
308,298,303,302,0
307,307,299,299,0
305,314,297,297,0
303,318,296,295,0
302,319,298,294,0
302,318,301,293,0
302,314,305,293,0
302,311,309,293,0
301,307,310,294,0
302,303,311,295,0
303,300,313,296,0
305,300,315,298,0
306,301,316,301,0
306,303,317,304,0
306,308,317,306,0
306,315,317,308,0
306,327,316,310,0
306,345,315,311,0
307,368,314,313,0
310,390,314,315,0
312,404,313,316,0
313,397,310,316,0
312,368,308,314,0
309,328,305,312,0
307,292,303,310,0
305,267,302,308,0
304,254,301,307,0
303,251,302,305,0
302,257,303,304,0
302,273,306,304,0
301,293,310,305,0
302,310,315,306,0
303,317,319,307,0
304,316,321,308,0
304,307,320,310,0
305,297,318,311,0
306,292,315,314,0
307,291,313,316,0
308,294,311,317,0
308,294,309,317,0
307,288,308,315,0
305,272,305,312,0
303,254,304,308,0
302,241,303,306,0
303,236,304,305,0
305,244,304,305,0
305,262,304,306,0
303,285,303,306,0
301,304,302,307,0
299,317,302,307,0
297,321,302,307,0
297,321,301,307,0
298,318,301,307,0
300,317,300,307,0
302,317,299,306,0
303,318,298,304,0
304,318,297,303,0
305,313,296,301,0
304,308,294,300,0
303,308,293,297,0
302,316,292,296,0
301,329,292,298,0
300,340,293,301,0
299,343,295,303,0
298,338,296,303,0
297,335,297,303,0
297,339,298,303,0
297,348,299,303,0
298,357,302,304,0
300,361,305,307,0
302,356,307,310,0
303,342,309,312,0
304,325,310,313,0
304,308,308,314,0
305,295,306,313,0
306,288,304,313,0
307,287,302,314,0
308,290,300,315,0
308,294,300,316,0
308,296,302,316,0
308,297,303,314,0
307,297,304,312,0
307,299,306,310,0
307,304,307,310,0
307,309,306,309,0
307,312,302,309,0
305,313,296,306,0
302,309,288,302,0
299,302,284,298,0
298,294,283,295,0
298,289,286,294,0
301,288,293,295,0
304,287,300,299,0
308,286,306,304,0
312,285,311,308,0
316,285,313,311,0
317,288,315,313,0
317,294,313,313,0
314,299,311,312,0
310,299,307,309,0
306,293,304,306,0
303,285,300,303,0
300,277,298,301,0
299,270,298,299,0
299,266,298,298,0
299,266,299,299,0
299,270,300,299,0
299,277,300,300,0
299,287,300,301,0
299,296,300,302,0
299,303,301,303,0
302,307,302,306,0
306,309,303,309,0
310,308,304,312,0
313,307,305,315,0
315,306,305,317,0
316,305,306,318,0
317,306,307,318,0
316,310,306,316,0
314,311,304,313,0
312,307,302,311,0
310,302,300,308,0
308,300,299,308,0
307,300,299,308,0
305,300,299,308,0
304,302,300,308,0
305,306,300,308,0
306,313,300,307,0
307,321,298,307,0
308,330,298,306,0
308,336,298,305,0
308,340,298,305,0
307,344,297,305,0
306,349,296,306,0
306,352,296,306,0
305,352,296,307,0
306,349,297,307,0
306,338,299,307,0
307,320,302,307,0
307,301,308,307,0
308,286,311,309,0
308,277,313,310,0
308,272,312,310,0
309,270,310,309,0
310,273,308,307,0
310,279,307,306,0
312,288,307,305,0
314,297,308,307,0
316,301,309,308,0
317,298,309,309,0
318,288,309,309,0
318,280,309,310,0
318,285,308,310,0
316,299,308,308,0
312,315,307,305,0
308,329,304,303,0
306,342,302,302,0
305,354,301,302,0
306,361,303,305,0
308,353,305,308,0
307,333,307,310,0
304,312,307,312,0
301,296,308,312,0
299,287,308,311,0
300,285,308,311,0
302,287,309,311,0
305,296,310,312,0
309,309,312,313,0
310,322,312,313,0
309,329,310,311,0
305,329,308,309,0
302,323,306,307,0
300,312,305,305,0
300,299,305,304,0
300,287,304,304,0
302,277,304,303,0
304,269,303,303,0
306,264,301,302,0
307,259,298,300,0
307,258,295,298,0
306,264,294,297,0
306,272,293,297,0
305,281,294,297,0
306,290,297,300,0
307,299,300,303,0
308,309,303,306,0
308,319,305,308,0
309,331,307,309,0
309,344,309,310,0
310,353,311,313,0
311,355,315,315,0
311,346,317,316,0
311,328,318,316,0
311,313,316,316,0
310,302,314,316,0
310,295,311,315,0
309,290,308,313,0
310,287,306,312,0
310,288,305,312,0
313,294,305,314,0
315,303,307,316,0
318,312,308,318,0
318,319,308,319,0
317,326,307,317,0
314,333,305,315,0
310,340,303,313,0
307,346,301,309,0
304,348,298,305,0
300,348,295,302,0
297,344,293,300,0
295,338,292,299,0
295,332,292,299,0
296,326,292,299,0
298,320,293,298,0
299,314,292,297,0
301,308,292,295,0
303,304,293,295,0
304,300,296,295,0
304,292,298,297,0
306,284,299,298,0
306,277,299,298,0
306,275,301,299,0
306,276,304,300,0
306,278,307,302,0
306,280,311,306,0
306,283,313,309,0
308,284,315,313,0
309,285,316,316,0
311,287,316,319,0
312,293,316,320,0
312,303,315,320,0
312,313,314,320,0
312,318,313,319,0
313,317,312,318,0
313,312,312,316,0
313,304,312,315,0
314,299,310,313,0
314,297,309,311,0
314,298,306,309,0
312,301,303,307,0
310,305,300,305,0
308,307,300,304,0
306,310,301,304,0
305,311,302,306,0
305,311,304,306,0
305,315,304,307,0
305,324,304,308,0
306,332,303,309,0
307,334,302,310,0
308,328,300,310,0
308,313,298,308,0
308,296,296,305,0
307,284,296,304,0
307,280,297,302,0
308,284,299,303,0
310,292,302,305,0
312,305,304,308,0
314,317,305,309,0
313,322,305,307,0
311,323,305,307,0
310,325,306,308,0
310,327,308,310,0
310,325,310,312,0
310,324,311,313,0
311,328,312,314,0
312,335,313,315,0
310,335,313,314,0
307,322,310,311,0
304,303,306,308,0
301,290,304,305,0
300,290,303,303,0
300,298,303,303,0
301,310,303,303,0
302,321,303,304,0
302,326,304,305,0
304,328,305,306,0
306,330,306,307,0
308,333,307,308,0
310,335,307,309,0
310,335,306,310,0
309,332,305,310,0
308,330,303,309,0
305,329,302,308,0
303,327,301,308,0
302,321,301,308,0
301,309,302,308,0
301,299,302,308,0
302,295,303,309,0
302,299,303,310,0
302,311,304,311,0
302,323,305,310,0
300,328,307,308,0
299,325,309,307,0
298,313,309,306,0
297,297,308,306,0
298,281,307,306,0
299,269,307,306,0
299,262,306,306,0
300,261,305,305,0
300,265,303,304,0
301,273,301,302,0
301,281,299,301,0
302,286,298,301,0
303,287,297,300,0
302,284,296,299,0
302,284,296,298,0
302,286,296,299,0
303,289,296,300,0
304,293,295,302,0
306,300,295,304,0
309,313,297,306,0
312,328,299,308,0
314,340,301,309,0
314,344,304,309,0
311,341,305,309,0
307,334,307,309,0
303,328,310,309,0
302,326,313,309,0
300,326,314,309,0
299,327,313,308,0
300,326,312,307,0
302,322,311,306,0
304,317,310,306,0
305,314,308,305,0
306,314,307,304,0
307,314,306,302,0
308,310,304,301,0
308,301,303,300,0
309,290,303,301,0
310,281,302,302,0
310,274,302,304,0
309,269,300,303,0
307,265,298,301,0
305,265,295,299,0
304,269,295,298,0
303,273,295,298,0
303,274,297,299,0
303,276,300,302,0
303,282,302,305,0
304,290,305,307,0
304,302,306,309,0
304,315,308,311,0
305,327,309,312,0
306,337,309,313,0
307,347,308,313,0
308,354,308,313,0
309,358,309,313,0
310,358,312,312,0
310,353,316,311,0
311,346,319,311,0
312,338,320,312,0
311,327,320,312,0
310,313,318,312,0
307,297,315,312,0
305,286,311,312,0
305,281,309,311,0
307,282,307,311,0
308,286,306,311,0
310,293,305,312,0
313,304,306,313,0
315,317,308,313,0
314,322,309,311,0
310,318,309,309,0
307,310,308,307,0
303,304,308,305,0
302,305,309,304,0
301,308,310,304,0
300,307,309,304,0
300,302,308,305,0
299,294,307,305,0
299,288,306,305,0
299,286,306,305,0
300,287,306,305,0
302,290,307,306,0
304,294,308,307,0
306,295,309,308,0
307,293,309,308,0
307,291,308,308,0
307,289,305,307,0
306,288,302,306,0
304,288,301,304,0
304,289,301,301,0
304,291,303,299,0
305,295,305,300,0
305,300,306,302,0
306,307,306,304,0
307,315,306,307,0
309,325,306,310,0
311,336,307,313,0
311,341,309,315,0
312,338,310,316,0
311,332,310,315,0
311,328,310,313,0
311,327,308,312,0
313,329,308,312,0
314,328,307,311,0
314,326,306,311,0
313,318,304,310,0
311,307,302,310,0
309,295,300,309,0
308,287,299,308,0
307,281,299,307,0
306,278,298,307,0
306,276,300,306,0
306,277,303,306,0
307,282,305,307,0
310,294,306,308,0
311,307,305,308,0
311,319,302,307,0
310,327,301,306,0
309,329,300,303,0
307,322,300,300,0
305,308,299,296,0
302,296,298,293,0
301,289,298,293,0
301,286,299,293,0
301,288,303,295,0
303,293,306,297,0
305,301,309,300,0
307,311,310,302,0
308,321,310,305,0
309,327,309,308,0
309,327,310,311,0
310,320,312,313,0
310,310,313,314,0
310,298,314,314,0
309,287,314,313,0
309,281,314,313,0
309,281,313,313,0
309,286,312,312,0
309,294,310,312,0
309,304,308,312,0
308,314,306,312,0
308,320,305,311,0
308,319,304,310,0
309,313,304,309,0
309,308,303,309,0
309,311,302,309,0
310,320,300,309,0
310,327,299,308,0
309,332,298,307,0
308,336,297,305,0
306,335,297,304,0
305,329,297,303,0
304,322,298,302,0
304,320,300,303,0
304,319,303,303,0
305,317,305,303,0
307,312,307,303,0
308,305,309,303,0
309,297,310,304,0
310,291,310,306,0
310,287,310,307,0
308,285,309,306,0
307,283,309,305,0
307,282,308,305,0
308,282,307,305,0
308,285,306,305,0
308,291,305,305,0
309,301,305,305,0
309,311,304,305,0
309,321,304,305,0
309,326,304,304,0
308,322,302,304,0
308,309,301,304,0
307,296,300,304,0
308,289,301,303,0
310,288,303,304,0
312,292,304,304,0
313,296,304,304,0
312,299,303,303,0
310,299,301,303,0
309,297,300,303,0
307,293,300,303,0
306,291,301,303,0
306,290,303,305,0
306,291,305,305,0
306,293,305,304,0
305,293,304,303,0
304,291,304,301,0
303,290,303,300,0
303,289,303,299,0
304,288,303,298,0
304,288,302,297,0
304,292,302,296,0
304,297,301,297,0
305,302,303,298,0
307,307,304,300,0
308,312,307,303,0
311,320,309,305,0
314,329,311,307,0
317,340,313,309,0
319,351,313,310,0
320,356,312,309,0
319,350,309,306,0
315,337,303,303,0
310,321,299,299,0
305,305,296,294,0
301,294,294,291,0
298,288,292,288,0
297,284,292,286,0
297,283,294,284,0
298,282,296,283,0
299,281,297,284,0
301,281,299,287,0
303,282,303,291,0
305,284,307,294,0
308,287,309,297,0
311,292,311,298,0
312,300,311,299,0
312,308,311,301,0
311,310,311,302,0
310,310,311,303,0
309,308,311,304,0
308,307,311,304,0
308,305,311,303,0
307,303,310,302,0
306,302,309,302,0
305,302,309,303,0
304,301,308,303,0
305,298,309,304,0
305,295,310,304,0
305,294,311,304,0
305,294,310,303,0
304,296,309,304,0
304,300,308,305,0
304,305,309,306,0
305,310,310,307,0
306,316,312,308,0
307,323,314,310,0
309,328,315,312,0
310,330,315,313,0
311,330,315,314,0
312,333,315,314,0
312,338,315,313,0
311,343,314,313,0
312,349,315,313,0
313,357,316,315,0
317,368,318,317,0
320,382,319,318,0
321,388,317,317,0
319,378,314,313,0
314,354,310,309,0
309,320,307,305,0
305,286,306,303,0
304,258,307,303,0
303,238,308,303,0
303,223,308,302,0
303,215,308,302,0
303,211,308,301,0
302,214,307,299,0
300,223,306,298,0
299,237,305,298,0
298,252,304,298,0
298,268,303,299,0
299,283,302,299,0
300,298,302,299,0
301,310,301,301,0
302,319,300,302,0
303,323,300,304,0
303,325,299,305,0
303,326,299,306,0
304,325,300,307,0
306,323,302,307,0
307,321,304,307,0
309,319,306,307,0
310,317,308,306,0
310,313,308,306,0
311,308,308,306,0
312,306,308,306,0
314,306,307,306,0
315,309,307,306,0
314,310,306,305,0
312,308,304,304,0
309,303,301,305,0
307,299,300,305,0
307,296,301,306,0
308,297,303,307,0
309,302,305,309,0
310,307,306,310,0
310,310,306,310,0
309,312,306,309,0
307,317,304,309,0
306,326,304,309,0
306,334,304,309,0
306,337,305,309,0
306,336,305,308,0
306,334,303,307,0
305,330,301,305,0
304,324,297,303,0
302,314,294,301,0
302,306,293,300,0
301,300,294,300,0
301,297,296,301,0
301,296,298,303,0
301,297,298,305,0
301,299,297,306,0
301,300,294,306,0
301,302,292,306,0
301,303,291,305,0
301,304,291,304,0
301,303,293,305,0
303,299,297,308,0
305,293,302,310,0
307,285,308,311,0
309,281,312,313,0
312,282,316,315,0
314,287,319,316,0
314,294,319,316,0
312,307,318,314,0
310,322,315,313,0
307,333,314,311,0
305,335,312,309,0
303,328,310,306,0
302,316,308,305,0
302,304,308,304,0
303,295,308,303,0
304,291,310,305,0
306,292,311,306,0
308,296,311,308,0
310,299,311,309,0
312,297,310,309,0
313,293,309,308,0
313,289,308,306,0
313,290,307,305,0
315,295,307,306,0
317,303,306,307,0
317,311,304,308,0
315,314,303,308,0
311,311,302,307,0
308,307,302,308,0
305,307,304,309,0
305,312,309,311,0
306,321,312,312,0
308,329,314,312,0
309,337,315,311,0
310,349,316,311,0
312,362,315,312,0
313,369,314,312,0
312,368,312,312,0
311,359,311,310,0
308,344,309,309,0
306,324,308,307,0
305,297,307,306,0
304,272,308,306,0
306,260,308,308,0
308,261,309,309,0
309,271,309,312,0
309,285,308,313,0
309,298,306,313,0
307,309,305,312,0
305,317,302,311,0
304,320,300,309,0
303,321,299,307,0
302,320,297,306,0
302,320,297,305,0
301,316,295,303,0
299,308,293,301,0
297,298,293,301,0
297,290,296,301,0
299,286,301,304,0
302,284,307,307,0
304,282,312,310,0
306,280,315,311,0
307,278,317,312,0
307,279,317,312,0
307,283,315,312,0
307,291,314,313,0
308,300,313,314,0
309,307,313,314,0
309,308,313,313,0
308,299,311,312,0
307,288,309,310,0
305,283,307,308,0
303,285,305,306,0
302,291,304,305,0
301,299,304,305,0
302,305,304,306,0
303,308,304,306,0
304,309,305,306,0
304,312,306,307,0
305,317,305,308,0
305,323,304,310,0
305,330,304,311,0
306,333,304,312,0
305,332,305,312,0
305,330,305,311,0
304,325,305,310,0
304,321,304,309,0
306,318,303,310,0
308,317,303,312,0
311,322,304,314,0
313,332,305,316,0
314,342,306,316,0
312,346,305,315,0
308,339,303,311,0
303,327,301,306,0
298,317,299,301,0
295,312,297,298,0
293,306,296,296,0
293,296,295,295,0
293,283,296,293,0
295,274,297,293,0
296,272,299,292,0
298,274,299,293,0
298,278,299,293,0
297,285,298,295,0
295,294,298,297,0
293,303,299,300,0
293,310,301,303,0
294,314,303,306,0
296,311,305,307,0
297,306,307,307,0
297,302,308,307,0
298,300,308,306,0
298,299,308,305,0
299,299,307,304,0
300,299,306,304,0
303,301,306,304,0
306,306,306,306,0
307,312,306,308,0
308,317,305,309,0
307,316,304,310,0
306,312,302,309,0
304,304,301,308,0
303,297,302,306,0
302,290,305,306,0
303,285,310,306,0
304,283,316,307,0
305,286,318,309,0
306,295,319,310,0
306,311,317,311,0
305,328,314,312,0
303,341,312,312,0
302,347,310,311,0
302,345,309,311,0
302,338,308,311,0
304,332,308,312,0
307,332,309,314,0
310,336,311,316,0
313,340,312,318,0
314,342,312,318,0
314,339,311,316,0
313,326,309,312,0
313,309,307,309,0
312,293,304,307,0
310,281,301,305,0
307,274,298,303,0
304,272,298,302,0
303,275,299,302,0
303,285,301,302,0
302,293,302,302,0
301,296,302,302,0
302,299,304,303,0
304,303,304,303,0
305,308,304,303,0
305,311,303,302,0
305,310,302,302,0
305,307,302,301,0
304,302,303,301,0
304,298,303,302,0
304,297,303,304,0
305,301,302,307,0
306,308,302,309,0
307,319,300,312,0
308,331,301,315,0
310,342,302,318,0
311,348,304,320,0
311,347,303,320,0
308,336,302,316,0
305,322,300,311,0
302,307,299,306,0
302,294,300,303,0
304,285,301,301,0
306,279,303,300,0
308,277,305,300,0
311,281,306,301,0
314,291,308,302,0
317,308,309,303,0
315,326,307,302,0
311,336,304,300,0
307,336,301,299,0
303,331,300,298,0
300,325,300,298,0
299,320,300,299,0
299,317,300,299,0
300,315,300,300,0
301,314,299,299,0
303,315,298,299,0
304,319,297,298,0
304,324,296,297,0
304,329,297,296,0
304,335,297,295,0
305,334,298,295,0
306,326,300,297,0
306,317,302,299,0
306,313,305,301,0
307,316,309,303,0
306,322,312,305,0
306,327,313,306,0
306,328,313,307,0
306,325,312,308,0
304,319,310,309,0
302,314,309,311,0
300,308,308,311,0
299,302,308,312,0
299,295,309,312,0
301,292,311,312,0
302,290,313,312,0
303,288,315,311,0
304,285,315,310,0
305,283,315,309,0
305,282,314,308,0
304,283,312,307,0
304,286,311,307,0
305,290,310,307,0
306,297,311,308,0
308,305,311,311,0
311,313,313,312,0
312,318,313,313,0
312,320,312,314,0
311,322,311,314,0
310,325,310,314,0
310,330,309,313,0
311,333,309,313,0
311,333,309,312,0
311,329,309,311,0
310,317,309,309,0
308,300,309,307,0
307,284,310,306,0
307,276,310,305,0
306,275,311,305,0
306,279,311,305,0
305,287,313,306,0
303,297,315,307,0
301,307,316,307,0
301,314,316,307,0
301,319,316,307,0
302,321,314,307,0
304,321,313,307,0
306,320,312,307,0
307,319,311,307,0
308,317,311,307,0
308,312,311,306,0
308,307,312,306,0
308,303,313,305,0
308,299,312,305,0
308,296,312,305,0
308,293,312,304,0
307,293,312,303,0
307,295,311,301,0
307,300,310,299,0
308,307,310,298,0
309,316,310,299,0
309,323,309,300,0
308,328,308,301,0
307,330,307,302,0
306,331,305,302,0
305,335,304,302,0
304,340,303,302,0
305,344,304,303,0
307,348,305,304,0
309,349,305,306,0
310,345,305,307,0
309,340,304,307,0
308,334,302,306,0
307,326,300,304,0
306,317,298,302,0
306,305,297,300,0
305,293,296,298,0
305,282,297,298,0
306,275,301,301,0
308,274,306,306,0
310,275,312,310,0
312,280,316,313,0
313,285,319,315,0
313,292,319,316,0
312,301,318,316,0
310,310,317,316,0
308,315,315,315,0
306,320,312,314,0
305,326,310,314,0
303,331,307,312,0
302,333,306,311,0
300,328,305,310,0
299,316,305,308,0
300,303,306,306,0
301,293,306,306,0
302,287,307,305,0
303,285,307,304,0
303,284,307,304,0
303,285,305,303,0
303,288,303,303,0
303,291,302,304,0
304,294,301,305,0
305,301,301,306,0
306,311,302,307,0
306,318,302,306,0
304,319,302,305,0
303,318,303,304,0
301,314,305,304,0
301,308,307,305,0
300,299,308,306,0
300,293,310,309,0
301,290,311,311,0
303,290,311,313,0
305,291,311,313,0
307,294,310,313,0
308,298,309,312,0
309,300,307,310,0
309,300,306,308,0
310,299,305,307,0
310,299,304,307,0
310,296,303,307,0
311,290,301,307,0
313,279,301,308,0
315,264,301,308,0
317,252,305,310,0
320,254,311,311,0
323,271,317,313,0
323,298,320,314,0
321,327,320,314,0
317,351,318,313,0
311,359,314,308,0
305,352,309,304,0
300,339,305,302,0
298,325,303,302,0
298,313,302,301,0
299,305,302,301,0
299,302,303,302,0
300,300,303,303,0
299,298,303,303,0
298,296,302,303,0
298,295,302,303,0
299,295,302,302,0
301,297,302,302,0
303,300,302,302,0
305,303,303,302,0
307,305,304,303,0
308,306,304,304,0
308,306,305,306,0
309,305,305,307,0
309,304,305,308,0
309,304,305,310,0
308,304,305,311,0
307,304,304,311,0
305,305,304,310,0
305,305,304,309,0
306,305,306,308,0
306,306,306,306,0
307,307,306,306,0
308,308,305,305,0
308,308,305,306,0
308,307,305,305,0
309,303,306,305,0
308,295,306,304,0
308,287,306,303,0
308,283,306,303,0
307,283,306,304,0
307,285,306,305,0
307,287,306,307,0
307,292,307,308,0
307,298,308,310,0
307,306,309,311,0
307,313,309,309,0
307,319,309,307,0
308,326,308,305,0
308,333,306,303,0
307,335,304,302,0
307,333,303,302,0
308,329,302,302,0
309,324,301,303,0
311,320,301,304,0
313,317,303,305,0
313,314,303,305,0
311,308,304,304,0
307,300,304,301,0
304,296,304,300,0
303,299,304,300,0
304,308,305,302,0
306,320,307,304,0
308,329,308,306,0
309,327,308,308,0
309,318,309,309,0
308,306,310,311,0
309,299,310,313,0
310,297,311,313,0
310,296,311,313,0
310,292,312,312,0
309,288,310,310,0
308,285,309,307,0
308,283,308,305,0
308,282,308,304,0
309,282,308,304,0
309,283,308,305,0
310,288,307,306,0
311,295,307,308,0
309,300,305,308,0
307,307,304,308,0
305,316,304,309,0
304,328,304,309,0
305,340,304,309,0
305,348,304,308,0
304,348,303,307,0
304,341,303,305,0
304,334,303,305,0
304,331,304,304,0
304,332,305,304,0
305,335,306,305,0
305,335,306,305,0
305,329,306,306,0
304,315,304,306,0
303,301,303,305,0
303,291,301,303,0
302,285,299,302,0
302,281,298,301,0
301,278,297,301,0
302,275,296,302,0
303,271,296,304,0
305,269,296,306,0
306,267,296,307,0
307,267,297,307,0
308,265,300,306,0
309,266,303,305,0
308,272,304,304,0
308,283,304,304,0
308,297,305,305,0
308,311,306,306,0
308,326,308,309,0
307,339,310,311,0
306,347,312,313,0
305,346,313,312,0
303,340,311,310,0
302,329,309,308,0
301,317,308,307,0
302,309,306,306,0
302,305,306,307,0
304,306,306,308,0
305,314,306,309,0
306,328,305,309,0
308,342,304,310,0
308,353,304,310,0
308,358,304,310,0
307,350,305,310,0
306,333,307,308,0
305,312,309,308,0
304,293,310,307,0
304,281,311,307,0
304,277,310,306,0
303,277,308,305,0
302,280,307,305,0
302,284,306,305,0
302,288,304,305,0
302,293,303,305,0
303,298,303,305,0
304,303,303,306,0
305,307,303,306,0
306,313,303,306,0
307,320,303,307,0
307,327,305,308,0
307,332,306,308,0
306,330,305,309,0
304,320,305,308,0
302,306,305,308,0
301,291,306,308,0
301,278,307,308,0
301,270,309,309,0
303,270,310,309,0
304,276,311,309,0
306,287,311,309,0
308,301,311,310,0
308,317,310,311,0
308,324,310,312,0
307,320,309,312,0
305,311,307,310,0
303,303,306,309,0
302,301,304,306,0
300,305,301,304,0
299,311,298,302,0
298,315,295,300,0
297,316,293,299,0
297,314,293,298,0
298,311,294,299,0
298,310,297,302,0
300,311,299,305,0
302,312,300,307,0
303,312,301,310,0
304,308,302,311,0
305,299,302,311,0
306,288,301,309,0
306,277,300,308,0
308,267,301,308,0
310,262,303,310,0
311,261,306,312,0
312,263,308,313,0
312,265,308,313,0
309,267,306,311,0
306,273,304,308,0
303,284,300,305,0
301,296,296,303,0
299,307,293,300,0
298,316,292,299,0
297,323,293,299,0
297,329,297,300,0
298,334,301,302,0
299,336,305,305,0
301,335,308,310,0
303,334,309,313,0
304,332,308,316,0
304,333,307,318,0
305,335,305,317,0
305,334,304,316,0
305,331,302,314,0
306,327,301,313,0
306,325,299,311,0
304,323,298,310,0
302,319,298,309,0
301,317,300,307,0
300,320,303,307,0
302,326,307,306,0
304,331,308,306,0
306,331,308,306,0
307,324,307,305,0
307,308,305,304,0
308,290,304,304,0
308,276,304,304,0
309,270,303,305,0
310,270,302,306,0
310,276,299,305,0
309,285,297,304,0
305,293,295,303,0
302,297,295,303,0
300,301,299,304,0
300,305,303,308,0
302,309,306,312,0
304,311,308,315,0
306,310,309,316,0
308,310,308,317,0
310,312,308,318,0
310,317,307,318,0
308,327,307,317,0
307,340,306,315,0
305,350,305,313,0
303,355,305,311,0
302,352,305,310,0
301,338,306,309,0
301,321,306,309,0
302,306,307,309,0
304,297,307,309,0
304,295,306,309,0
303,299,304,310,0
302,305,302,310,0
300,308,300,309,0
299,306,298,308,0
298,302,298,307,0
299,297,299,306,0
300,290,302,305,0
302,284,303,305,0
302,282,303,306,0
302,284,302,307,0
302,287,301,308,0
303,289,302,310,0
304,292,302,311,0
307,296,302,312,0
308,304,302,313,0
310,314,302,314,0
312,325,303,315,0
313,336,305,317,0
313,342,307,318,0
312,341,311,320,0
312,339,315,321,0
310,334,317,323,0
309,326,317,322,0
308,317,316,321,0
308,311,315,319,0
308,308,314,315,0
307,304,312,310,0
307,298,310,307,0
306,289,310,304,0
307,278,310,303,0
308,266,311,303,0
307,256,311,302,0
306,250,310,301,0
304,249,309,299,0
303,253,307,298,0
301,259,306,298,0
301,267,305,300,0
302,278,305,301,0
303,291,305,302,0
303,307,305,302,0
302,325,304,302,0
301,341,304,303,0
301,352,304,305,0
302,354,304,308,0
304,347,305,310,0
305,333,305,311,0
306,319,304,312,0
306,308,305,313,0
306,300,305,313,0
304,296,306,313,0
303,294,308,312,0
303,295,309,311,0
304,296,310,311,0
306,296,312,312,0
309,298,312,312,0
312,303,314,313,0
314,311,315,315,0
314,319,314,317,0
313,325,312,318,0
311,329,310,319,0
308,331,307,318,0
305,331,305,317,0
302,327,304,316,0
300,322,303,314,0
300,318,303,313,0
300,318,303,310,0
300,318,303,308,0
300,317,303,307,0
300,314,302,307,0
300,312,301,307,0
299,312,300,307,0
299,313,300,307,0
300,316,301,306,0
302,317,303,306,0
304,319,304,306,0
305,324,303,305,0
307,330,302,305,0
308,333,299,307,0
309,328,297,309,0
309,314,295,311,0
308,294,296,312,0
307,274,301,313,0
308,258,308,314,0
309,248,312,313,0
309,246,313,311,0
309,251,311,309,0
309,261,308,307,0
309,274,305,306,0
310,288,304,305,0
311,300,303,304,0
311,307,302,303,0
311,313,300,302,0
310,320,298,302,0
310,329,296,303,0
309,338,297,304,0
309,346,299,307,0
309,350,303,312,0
309,344,309,317,0
309,328,313,320,0
309,309,315,322,0
310,296,315,324,0
313,292,314,326,0
314,292,315,325,0
313,290,314,322,0
310,283,312,318,0
306,274,311,314,0
303,266,310,310,0
301,261,310,306,0
300,260,309,304,0
299,263,309,302,0
299,271,308,303,0
299,281,308,304,0
299,293,307,305,0
299,305,306,306,0
301,317,305,309,0
302,328,304,310,0
302,337,304,311,0
302,346,302,311,0
301,352,300,310,0
299,353,300,308,0
298,352,301,308,0
297,350,303,309,0
297,346,305,310,0
298,337,307,311,0
299,326,307,312,0
301,315,307,312,0
302,304,306,313,0
303,296,305,313,0
304,288,305,313,0
304,281,305,313,0
305,275,304,313,0
304,275,304,313,0
304,280,303,312,0
303,289,304,311,0
303,300,304,311,0
304,312,305,312,0
306,323,306,313,0
307,327,307,313,0
309,324,307,312,0
311,318,308,313,0
313,314,309,313,0
315,315,309,313,0
316,322,308,314,0
315,334,306,314,0
314,344,304,314,0
311,351,303,315,0
309,355,303,315,0
307,355,303,314,0
305,350,303,312,0
303,344,303,311,0
302,337,304,309,0
301,326,303,307,0
300,312,302,306,0
300,301,300,305,0
300,294,299,304,0
301,290,296,303,0
300,287,294,302,0
300,287,293,301,0
299,287,293,303,0
300,288,295,305,0
300,287,298,308,0
300,286,301,310,0
300,286,304,312,0
300,288,308,313,0
301,290,312,314,0
302,294,313,314,0
302,297,314,313,0
301,300,314,313,0
300,301,314,313,0
300,299,312,313,0
300,294,311,313,0
300,289,309,312,0
301,286,308,311,0
303,288,307,310,0
305,294,307,310,0
305,302,306,310,0
305,307,306,310,0
304,310,306,310,0
303,311,305,311,0
303,311,305,311,0
303,312,305,312,0
303,313,306,313,0
302,314,307,312,0
301,314,308,312,0
300,313,309,311,0
299,310,309,311,0
298,306,308,310,0
299,302,308,310,0
301,301,307,309,0
303,302,305,309,0
305,302,304,309,0
307,303,303,308,0
308,304,302,307,0
309,305,303,306,0
310,306,304,306,0
310,308,306,306,0
310,308,308,306,0
309,302,309,307,0
307,293,309,308,0
305,285,307,308,0
301,283,304,309,0
298,289,302,309,0
297,301,301,310,0
296,316,301,311,0
296,327,301,312,0
297,331,302,311,0
298,329,302,311,0
299,323,304,311,0
300,318,306,311,0
303,316,307,311,0
305,319,308,310,0
306,327,309,310,0
306,335,307,310,0
305,336,305,309,0
303,336,304,308,0
302,336,302,307,0
301,338,301,307,0
303,340,300,308,0
305,345,300,310,0
308,349,302,312,0
311,347,303,313,0
311,336,302,312,0
310,317,300,308,0
306,298,299,304,0
304,284,300,301,0
302,279,302,299,0
302,279,304,299,0
301,282,306,300,0
301,284,308,302,0
300,285,310,304,0
299,286,311,306,0
299,289,312,307,0
300,294,311,308,0
303,298,310,308,0
305,303,309,308,0
306,308,308,308,0
305,311,308,306,0
305,312,308,306,0
306,309,308,305,0
306,304,308,305,0
307,301,307,305,0
307,305,306,304,0
306,312,305,305,0
305,317,305,306,0
304,318,306,308,0
302,313,308,310,0
302,309,309,310,0
302,308,310,311,0
302,308,310,311,0
303,309,310,313,0
303,308,310,314,0
303,302,310,315,0
302,292,310,314,0
301,282,309,313,0
301,278,308,311,0
301,282,307,310,0
302,290,307,309,0
303,298,307,308,0
304,305,306,308,0
304,307,306,308,0
304,305,306,308,0
304,303,306,309,0
305,302,306,310,0
305,302,305,310,0
306,306,304,311,0
305,310,303,312,0
304,314,302,312,0
303,315,301,312,0
301,313,301,311,0
300,310,304,309,0
300,305,308,306,0
301,302,311,304,0
303,300,314,303,0
306,301,316,304,0
308,305,317,306,0
311,312,316,307,0
312,315,316,308,0
311,315,314,308,0
309,314,312,307,0
307,317,311,307,0
305,322,310,306,0
304,327,309,306,0
303,326,307,305,0
300,320,305,304,0
298,309,304,304,0
297,298,304,304,0
296,290,304,304,0
297,285,305,304,0
298,285,306,305,0
299,287,307,306,0
300,288,306,306,0
300,287,306,306,0
300,285,305,305,0
300,283,305,304,0
300,282,305,303,0
301,284,306,302,0
302,290,308,302,0
304,297,309,303,0
308,305,310,304,0
312,317,310,306,0
317,332,310,309,0
321,353,310,312,0
322,373,312,314,0
319,383,314,312,0
313,378,316,308,0
306,365,318,305,0
300,351,319,304,0
297,336,319,304,0
296,318,318,304,0
296,300,317,304,0
297,286,316,304,0
299,281,316,304,0
302,284,316,305,0
304,293,315,306,0
306,302,315,307,0
307,306,315,308,0
308,303,315,308,0
307,297,314,308,0
304,292,313,307,0
303,290,312,306,0
301,291,311,306,0
299,293,309,306,0
299,292,307,307,0
299,288,308,308,0
301,285,310,309,0
303,287,313,311,0
306,292,315,312,0
307,299,316,312,0
309,305,315,313,0
310,312,314,313,0
309,316,312,312,0
305,313,309,309,0
301,304,305,307,0
297,294,304,306,0
296,288,304,306,0
296,287,306,306,0
297,289,308,306,0
298,294,310,307,0
299,300,312,308,0
300,305,312,307,0
300,309,309,306,0
299,310,306,304,0
297,308,302,301,0
295,302,299,299,0
294,294,298,296,0
293,284,298,295,0
295,278,300,295,0
297,277,302,296,0
301,281,305,300,0
304,291,309,304,0
306,306,310,307,0
307,321,309,309,0
306,334,308,310,0
305,344,308,311,0
303,352,308,311,0
302,358,309,311,0
301,362,310,310,0
301,358,311,310,0
301,343,311,309,0
301,322,311,308,0
302,306,310,307,0
302,300,310,305,0
302,301,309,302,0
301,305,307,298,0
299,309,306,295,0
299,309,304,293,0
298,302,304,291,0
299,293,305,291,0
299,285,306,291,0
300,276,307,291,0
301,270,307,293,0
302,268,308,295,0
303,271,309,299,0
306,277,310,303,0
309,288,311,308,0
311,305,311,311,0
309,324,310,313,0
307,340,309,313,0
304,351,307,312,0
301,351,306,311,0
298,345,305,309,0
297,336,304,308,0
297,327,304,306,0
297,320,305,305,0
299,316,305,304,0
301,312,304,303,0
302,311,302,303,0
302,311,301,303,0
303,315,302,302,0
303,326,304,302,0
304,340,306,303,0
304,355,309,306,0
305,370,312,309,0
307,378,314,311,0
309,370,315,311,0
308,349,314,309,0
306,326,311,306,0
305,307,309,304,0
304,293,307,304,0
305,284,307,303,0
305,279,308,304,0
305,276,309,303,0
305,278,309,302,0
305,289,310,301,0
304,312,310,300,0
302,343,308,299,0
301,371,306,297,0
299,384,304,297,0
297,377,303,296,0
297,354,303,296,0
297,324,302,296,0
298,297,299,295,0
298,279,297,296,0
300,268,295,296,0
302,263,296,297,0
305,258,301,300,0
309,256,308,305,0
313,256,313,309,0
315,259,316,311,0
316,264,318,311,0
315,269,317,310,0
313,275,315,309,0
310,280,312,308,0
307,283,311,307,0
304,286,312,307,0
304,289,315,309,0
304,294,318,311,0
306,303,320,313,0
308,313,318,314,0
308,317,315,314,0
308,316,312,314,0
308,311,307,314,0
308,307,304,314,0
307,306,302,313,0
306,312,302,312,0
306,327,304,311,0
306,343,307,311,0
306,354,310,312,0
306,354,311,312,0
306,342,311,312,0
305,324,312,310,0
304,307,313,307,0
303,294,314,306,0
304,287,315,306,0
304,281,315,306,0
305,279,314,307,0
307,280,314,309,0
309,282,314,311,0
310,285,314,313,0
310,288,313,313,0
310,293,311,314,0
310,299,310,314,0
311,306,309,314,0
312,312,309,313,0
312,316,309,312,0
311,320,308,311,0
310,326,308,310,0
308,334,307,309,0
307,346,307,309,0
307,357,307,309,0
307,362,306,309,0
307,357,305,309,0
306,342,304,308,0
305,321,304,308,0
305,300,303,308,0
304,286,305,309,0
304,280,308,309,0
304,283,311,310,0
305,297,314,310,0
306,316,315,310,0
307,336,314,310,0
308,350,312,310,0
310,354,310,312,0
311,347,310,313,0
312,327,311,313,0
312,303,310,312,0
311,284,310,312,0
310,273,311,311,0
309,267,310,311,0
308,267,310,311,0
307,269,310,313,0
307,271,310,314,0
308,272,310,315,0
309,274,309,314,0
309,278,309,313,0
310,286,308,311,0
310,293,308,309,0
309,297,307,307,0
307,297,307,306,0
307,293,309,306,0
306,287,311,305,0
306,281,311,305,0
304,279,312,304,0
304,281,311,304,0
304,287,310,305,0
305,295,310,306,0
306,305,310,307,0
307,314,310,308,0
308,319,308,309,0
308,320,307,309,0
308,319,305,308,0
309,318,304,307,0
311,322,303,306,0
312,331,303,304,0
311,340,304,302,0
310,349,306,301,0
310,357,308,301,0
309,356,309,300,0
310,345,308,300,0
310,327,308,300,0
311,308,308,301,0
311,290,308,302,0
310,273,309,302,0
309,261,311,302,0
307,257,312,302,0
305,266,313,304,0
304,283,312,306,0
304,304,312,309,0
305,322,311,312,0
305,335,311,314,0
307,343,311,316,0
309,346,311,318,0
311,341,312,318,0
313,330,312,318,0
313,320,311,318,0
314,312,311,319,0
314,307,313,318,0
314,302,314,318,0
313,296,314,316,0
313,289,313,314,0
312,282,311,313,0
312,279,308,313,0
312,278,307,313,0
313,279,306,313,0
313,283,305,314,0
312,287,304,313,0
310,293,304,312,0
308,298,305,312,0
307,302,307,312,0
306,305,310,311,0
306,307,311,311,0
306,309,312,311,0
306,309,312,311,0
307,309,310,311,0
307,309,310,311,0
308,311,310,311,0
309,314,310,312,0
309,317,310,313,0
310,322,310,313,0
310,328,310,313,0
310,330,310,314,0
310,329,308,314,0
310,324,308,315,0
311,318,308,315,0
313,311,308,315,0
314,309,308,316,0
316,318,307,316,0
317,337,306,317,0
318,354,306,317,0
319,363,305,317,0
320,358,305,317,0
319,342,306,315,0
317,324,307,314,0
314,313,308,312,0
312,311,311,312,0
309,315,314,311,0
306,320,316,309,0
304,327,317,309,0
303,329,317,307,0
302,324,315,306,0
302,311,312,305,0
302,294,308,304,0
303,279,304,304,0
303,267,302,305,0
305,259,300,306,0
307,255,298,306,0
307,252,296,305,0
309,252,297,305,0
310,254,299,304,0
312,262,302,305,0
313,276,305,307,0
313,295,307,308,0
311,312,308,307,0
309,324,309,306,0
307,332,310,306,0
306,334,310,305,0
305,332,310,304,0
303,323,309,303,0
302,311,308,301,0
300,299,306,300,0
299,291,305,300,0
299,288,304,300,0
298,289,305,301,0
299,289,306,301,0
300,289,308,301,0
301,291,309,303,0
303,295,310,304,0
304,299,309,306,0
304,304,308,307,0
304,308,306,308,0
304,313,305,309,0
304,318,306,310,0
304,322,306,309,0
304,323,307,308,0
303,322,307,306,0
303,320,307,306,0
303,318,307,306,0
304,317,307,306,0
304,316,308,306,0
304,315,307,306,0
304,314,307,306,0
304,313,306,305,0
304,311,305,304,0
304,310,305,302,0
303,310,307,301,0
304,311,310,301,0
305,316,314,302,0
307,329,316,303,0
309,349,317,304,0
310,369,317,304,0
310,385,316,304,0
310,393,315,304,0
308,384,314,304,0
307,364,314,305,0
306,338,314,307,0
306,315,314,310,0
307,298,314,312,0
308,288,313,312,0
308,281,310,312,0
308,274,307,310,0
307,267,305,308,0
306,261,302,306,0
306,260,302,304,0
306,261,301,303,0
306,264,301,302,0
305,268,301,301,0
304,271,300,301,0
302,274,300,301,0
301,278,302,302,0
301,281,304,304,0
301,284,307,306,0
303,287,310,308,0
303,291,313,309,0
304,296,314,311,0
304,303,315,313,0
306,310,316,315,0
307,317,315,316,0
307,322,313,315,0
307,324,310,313,0
306,326,309,310,0
306,327,307,308,0
306,326,307,306,0
306,326,305,304,0
307,326,303,303,0
307,327,299,302,0
306,326,295,301,0
306,323,294,301,0
305,316,295,300,0
306,306,298,299,0
307,297,303,299,0
309,289,309,302,0
311,285,314,306,0
314,284,316,309,0
314,284,315,310,0
313,285,312,309,0
309,287,308,308,0
305,292,303,306,0
301,293,299,303,0
298,293,296,300,0
297,293,294,299,0
297,294,293,298,0
297,296,294,298,0
298,300,295,300,0
299,303,298,303,0
301,308,300,306,0
303,317,302,310,0
306,328,304,313,0
309,337,305,316,0
311,343,304,316,0
311,345,303,316,0
311,351,303,315,0
311,364,304,315,0
312,380,304,315,0
313,389,304,315,0
313,381,304,313,0
312,360,304,312,0
312,335,304,313,0
312,315,304,313,0
313,299,305,314,0
312,289,305,314,0
310,284,305,313,0
307,283,304,311,0
305,285,303,310,0
303,285,302,309,0
302,285,302,308,0
302,283,302,309,0
302,276,302,309,0
302,267,302,308,0
302,260,300,306,0
303,259,299,305,0
303,264,299,305,0
304,269,301,306,0
304,273,302,306,0
304,276,303,308,0
304,280,303,309,0
304,285,302,310,0
306,290,300,310,0
307,295,299,310,0
309,297,298,308,0
310,297,298,307,0
312,295,299,307,0
312,292,301,308,0
313,289,304,309,0
312,288,308,309,0
311,289,311,310,0
310,293,313,310,0
307,302,313,309,0
305,314,312,309,0
304,325,312,309,0
304,330,311,310,0
305,332,311,311,0
307,336,311,312,0
309,343,311,313,0
312,348,310,313,0
314,349,310,313,0
315,344,308,311,0
314,330,306,309,0
311,316,303,307,0
308,304,300,305,0
306,296,297,302,0
303,291,296,298,0
300,288,297,295,0
299,288,302,293,0
299,292,307,294,0
300,302,312,296,0
302,315,314,299,0
305,327,314,302,0
307,332,313,304,0
307,329,309,305,0
308,320,307,305,0
308,307,306,305,0
308,294,307,304,0
309,283,309,303,0
308,277,310,303,0
308,272,311,302,0
307,271,312,301,0
306,275,311,300,0
304,283,309,300,0
303,294,307,301,0
303,305,304,302,0
303,319,303,303,0
304,330,301,304,0
305,341,301,305,0
306,350,302,305,0
306,354,301,305,0
305,345,300,304,0
304,328,300,303,0
303,314,301,304,0
304,305,302,307,0
305,299,305,309,0
307,295,307,311,0
308,296,308,311,0
309,303,307,311,0
310,313,307,310,0
310,321,307,310,0
311,324,307,309,0
311,322,308,310,0
310,318,309,310,0
310,310,310,311,0
311,301,310,311,0
312,294,310,312,0
313,290,309,311,0
315,292,309,310,0
315,296,309,309,0
314,291,309,307,0
313,279,309,305,0
312,267,309,304,0
312,260,308,304,0
312,260,308,304,0
311,268,306,305,0
309,282,305,305,0
308,296,304,305,0
308,309,304,305,0
307,317,305,306,0
307,316,305,307,0
307,306,307,307,0
306,294,309,307,0
307,284,312,307,0
308,276,315,307,0
310,272,317,307,0
311,269,318,305,0
311,269,316,304,0
311,274,313,305,0
311,284,311,306,0
310,295,308,306,0
309,304,305,306,0
308,309,303,305,0
308,311,302,304,0
308,315,302,303,0
309,320,303,303,0
310,328,306,305,0
311,338,309,306,0
312,346,312,307,0
312,350,314,306,0
312,351,314,305,0
311,348,314,306,0
312,347,314,307,0
311,349,313,309,0
311,352,312,309,0
310,352,311,308,0
310,348,310,305,0
310,341,309,304,0
310,328,307,304,0
310,313,306,304,0
310,297,304,305,0
309,281,302,305,0
307,269,300,304,0
306,262,300,303,0
304,262,301,303,0
303,267,302,303,0
302,274,304,303,0
302,281,305,304,0
304,287,306,305,0
306,294,306,307,0
307,301,306,308,0
308,307,305,308,0
307,312,304,308,0
306,317,304,308,0
305,320,304,308,0
305,319,304,308,0
304,314,303,308,0
305,305,303,308,0
306,297,302,308,0
307,295,302,308,0
309,303,303,308,0
312,316,304,308,0
313,330,306,307,0
315,341,307,306,0
315,341,307,305,0
313,323,307,303,0
311,296,305,302,0
309,272,305,302,0
309,259,304,302,0
309,257,304,303,0
310,264,304,303,0
310,280,304,305,0
311,300,304,306,0
313,321,304,308,0
314,339,303,310,0
315,352,302,310,0
314,356,299,308,0
314,350,297,305,0
313,340,296,304,0
313,331,297,302,0
313,324,300,302,0
312,319,304,302,0
311,312,307,304,0
311,302,308,305,0
311,290,308,308,0
312,279,307,309,0
313,273,306,310,0
314,272,304,310,0
315,277,302,309,0
315,285,299,308,0
313,291,296,307,0
311,293,294,304,0
309,287,292,300,0
308,279,292,297,0
307,276,294,296,0
307,278,298,299,0
308,283,302,302,0
308,287,305,304,0
308,289,307,306,0
309,291,310,308,0
310,293,314,310,0
312,294,317,311,0
313,292,318,309,0
313,293,316,308,0
312,304,315,310,0
311,322,313,311,0
310,339,312,313,0
311,352,311,312,0
312,356,310,312,0
313,345,310,311,0
315,322,309,310,0
312,298,307,308,0
308,282,305,307,0
305,275,305,308,0
306,278,305,310,0
308,283,306,312,0
310,289,307,312,0
311,298,308,313,0
311,310,308,313,0
309,323,307,313,0
307,333,306,314,0
306,337,306,317,0
307,333,306,320,0
307,323,306,322,0
307,311,305,322,0
307,300,304,320,0
306,293,304,320,0
307,292,306,322,0
307,290,307,322,0
307,286,307,321,0
306,284,306,320,0
305,284,305,318,0
304,286,304,315,0
303,288,303,313,0
302,294,303,310,0
302,302,304,308,0
302,310,305,308,0
304,314,305,308,0
305,309,306,309,0
306,297,306,311,0
307,284,307,313,0
308,277,307,314,0
307,276,307,315,0
306,281,306,315,0
306,290,305,315,0
307,301,304,315,0
308,310,304,314,0
309,315,303,312,0
308,314,302,308,0
307,312,300,304,0
306,311,296,301,0
305,312,293,298,0
304,314,290,296,0
302,317,289,295,0
302,318,289,295,0
303,320,292,296,0
302,323,295,296,0
302,327,298,297,0
302,329,300,297,0
301,326,301,297,0
300,318,303,297,0
300,311,306,297,0
300,305,309,299,0
302,301,312,301,0
304,298,315,303,0
306,295,315,306,0
309,294,314,308,0
310,296,311,310,0
312,299,309,312,0
313,306,308,313,0
314,317,309,316,0
316,329,311,318,0
319,341,314,319,0
320,349,315,318,0
319,347,314,315,0
316,334,312,311,0
312,315,308,305,0
307,295,303,300,0
303,282,298,296,0
301,277,296,296,0
301,282,294,297,0
301,291,294,299,0
303,300,295,301,0
306,307,298,304,0
308,310,302,307,0
311,314,305,310,0
313,321,308,313,0
315,325,310,315,0
316,323,311,317,0
314,312,311,316,0
312,297,311,315,0
309,283,312,314,0
308,272,314,314,0
308,265,316,314,0
307,260,317,314,0
305,260,317,313,0
305,262,316,312,0
306,266,314,310,0
306,271,313,308,0
307,277,311,307,0
306,283,310,307,0
306,287,308,307,0
305,287,307,307,0
304,288,307,305,0
304,291,307,304,0
305,298,307,304,0
306,306,308,305,0
307,315,308,306,0
308,321,309,307,0
308,324,309,308,0
308,325,308,308,0
308,322,306,308,0
308,316,304,307,0
308,307,302,306,0
309,298,302,304,0
308,290,300,303,0
308,286,299,303,0
307,285,298,303,0
307,287,300,304,0
306,291,304,305,0
307,298,310,306,0
308,311,316,307,0
307,325,321,309,0
306,338,323,311,0
305,342,323,312,0
304,339,323,313,0
303,335,321,312,0
303,331,319,310,0
301,326,315,308,0
300,319,310,306,0
299,312,306,305,0
298,307,304,303,0
298,305,303,303,0
299,305,303,304,0
299,306,303,304,0
299,306,302,304,0
298,307,302,304,0
297,306,304,306,0
297,304,308,307,0
298,301,311,309,0
300,302,314,310,0
304,313,318,312,0
309,335,321,314,0
314,362,324,315,0
318,387,324,316,0
319,399,324,315,0
317,391,321,313,0
313,370,318,311,0
308,341,314,309,0
304,311,313,307,0
302,288,313,307,0
301,277,314,307,0
303,276,314,309,0
304,281,313,312,0
305,287,313,314,0
305,289,312,316,0
305,284,311,317,0
304,278,308,318,0
304,274,307,318,0
304,272,307,317,0
305,271,308,316,0
306,273,309,315,0
306,279,309,315,0
307,286,309,314,0
306,290,308,313,0
304,291,306,311,0
303,292,304,311,0
302,290,303,311,0
302,288,303,311,0
303,288,304,310,0
304,296,304,309,0
305,310,305,308,0
305,325,306,308,0
305,336,308,307,0
306,339,308,305,0
305,337,309,304,0
305,332,308,304,0
304,326,307,304,0
304,321,306,303,0
303,315,306,303,0
302,308,306,304,0
302,302,306,305,0
302,299,306,306,0
303,298,305,308,0
304,298,304,309,0
305,302,303,309,0
306,314,303,309,0
307,330,304,311,0
310,344,304,313,0
313,352,305,315,0
315,349,304,317,0
316,334,302,316,0
314,314,299,314,0
312,295,297,311,0
310,285,296,307,0
307,282,299,305,0
305,283,303,304,0
304,283,308,302,0
302,278,312,301,0
302,272,314,301,0
302,269,316,301,0
303,276,316,303,0
305,288,313,306,0
307,302,310,308,0
308,312,306,310,0
306,316,303,312,0
305,314,302,311,0
304,309,303,311,0
304,306,304,310,0
305,306,305,310,0
305,309,306,312,0
306,314,307,313,0
305,320,306,313,0
304,325,304,313,0
302,326,301,311,0
300,325,299,307,0
299,324,296,304,0
298,327,295,302,0
298,332,294,300,0
299,339,295,299,0
301,344,297,299,0
303,345,300,302,0
304,339,302,305,0
304,332,303,307,0
304,325,303,309,0
305,318,304,310,0
305,314,306,312,0
305,312,308,313,0
305,316,310,314,0
306,326,311,316,0
307,339,312,319,0
307,347,312,320,0
307,343,311,320,0
306,332,310,319,0
305,320,308,318,0
305,312,306,317,0
306,310,305,315,0
306,310,304,314,0
305,310,306,314,0
306,310,307,313,0
306,313,308,314,0
307,321,308,315,0
308,334,309,316,0
308,348,309,317,0
307,365,308,317,0
307,383,306,315,0
305,391,303,313,0
303,385,300,309,0
301,369,299,307,0
300,347,299,306,0
299,321,300,304,0
299,296,299,302,0
300,277,299,301,0
303,268,299,302,0
304,268,300,303,0
306,275,301,304,0
307,283,303,305,0
308,287,305,306,0
308,288,307,307,0
308,287,309,309,0
308,283,311,311,0
309,274,313,313,0
311,264,314,314,0
312,257,313,314,0
312,255,312,313,0
313,255,311,313,0
313,257,311,314,0
313,261,312,316,0
313,265,312,318,0
313,269,312,320,0
314,273,312,321,0
313,280,311,322,0
314,292,309,324,0
314,304,307,324,0
312,312,304,324,0
309,314,301,322,0
307,317,298,319,0
305,325,295,317,0
304,336,294,314,0
303,348,294,312,0
301,359,296,309,0
300,366,300,307,0
299,366,303,306,0
299,360,305,304,0
300,355,305,301,0
299,350,303,299,0
299,343,302,300,0
300,333,302,301,0
301,317,302,301,0
302,299,302,300,0
303,284,302,300,0
304,274,302,300,0
304,272,303,300,0
304,274,306,301,0
304,276,309,302,0
304,274,311,302,0
305,268,312,304,0
305,262,312,305,0
305,259,310,307,0
306,260,308,307,0
306,265,307,308,0
306,274,306,309,0
307,281,307,310,0
309,289,308,311,0
310,298,309,312,0
312,307,309,312,0
312,315,309,313,0
312,318,308,312,0
311,310,307,312,0
310,291,305,311,0
309,272,304,311,0
310,265,304,312,0
312,268,305,313,0
313,281,306,314,0
313,298,306,314,0
311,311,305,312,0
309,316,303,311,0
307,315,302,310,0
305,311,301,311,0
304,304,302,312,0
304,297,303,313,0
305,292,303,313,0
307,293,302,313,0
308,304,301,313,0
308,320,299,313,0
307,334,297,312,0
305,344,296,311,0
304,352,295,311,0
302,351,296,310,0
302,343,297,309,0
302,333,298,307,0
303,325,299,305,0
304,319,297,302,0
304,313,294,299,0
303,307,291,297,0
303,305,289,295,0
303,304,290,294,0
303,304,294,294,0
303,304,298,295,0
303,304,301,296,0
303,303,301,297,0
302,301,299,298,0
302,301,298,300,0
304,305,297,303,0
306,311,298,307,0
309,316,301,311,0
311,318,305,315,0
314,316,308,317,0
316,307,311,318,0
316,298,314,318,0
317,297,316,317,0
315,304,317,315,0
313,312,318,314,0
309,318,317,313,0
307,320,316,312,0
305,313,314,311,0
304,303,311,310,0
303,297,308,310,0
303,294,304,309,0
303,293,302,308,0
302,293,300,306,0
303,293,299,304,0
303,294,299,302,0
304,294,299,300,0
304,295,299,299,0
304,297,300,300,0
305,300,303,301,0
306,304,305,303,0
307,307,307,305,0
307,311,308,307,0
308,316,309,308,0
307,321,309,309,0
307,322,310,309,0
305,320,310,308,0
304,310,309,306,0
302,295,308,304,0
301,280,307,302,0
301,270,307,301,0
301,267,306,300,0
302,268,304,298,0
301,271,303,297,0
301,277,302,297,0
301,285,302,297,0
301,295,304,298,0
302,305,306,300,0
303,316,308,302,0
304,326,309,304,0
306,331,308,306,0
305,333,307,308,0
305,329,307,309,0
305,320,307,309,0
305,310,306,307,0
302,303,302,303,0
299,303,298,298,0
297,311,294,294,0
297,324,292,291,0
297,340,292,291,0
299,357,295,293,0
301,368,300,297,0
304,369,305,300,0
305,358,308,304,0
307,342,309,306,0
308,325,309,308,0
309,312,308,310,0
309,304,307,310,0
309,298,306,310,0
307,294,305,310,0
306,290,305,310,0
306,287,306,310,0
306,286,308,310,0
307,284,312,311,0
308,279,314,309,0
307,273,314,307,0
306,269,312,305,0
305,267,309,303,0
303,268,305,302,0
301,272,304,302,0
300,278,305,304,0
300,284,309,305,0
300,289,313,307,0
301,291,315,308,0
303,292,316,309,0
305,293,316,310,0
306,297,313,310,0
307,307,310,311,0
308,322,309,311,0
310,337,309,311,0
313,348,310,311,0
316,354,311,312,0
318,350,310,311,0
317,336,309,310,0
315,315,309,307,0
312,295,309,305,0
310,281,310,304,0
308,275,310,302,0
307,273,309,300,0
305,280,307,296,0
303,291,305,294,0
302,304,305,294,0
303,317,305,295,0
304,326,306,296,0
305,330,306,297,0
305,332,305,298,0
306,332,303,298,0
306,331,300,298,0
305,327,300,298,0
305,321,300,298,0
304,315,301,299,0
305,310,302,300,0
306,307,303,302,0
307,302,305,304,0
309,294,307,305,0
309,283,307,305,0
309,274,307,304,0
308,274,306,304,0
308,281,307,306,0
309,290,307,307,0
310,298,308,308,0
312,303,309,309,0
312,306,308,309,0
311,305,307,309,0
310,301,306,309,0
308,296,306,308,0
304,293,306,308,0
302,293,307,310,0
300,296,308,312,0
300,299,308,314,0
301,302,308,314,0
303,304,307,313,0
305,306,306,313,0
308,311,306,313,0
311,317,307,313,0
312,320,308,313,0
313,320,309,312,0
313,314,310,310,0
312,304,310,307,0
310,295,309,304,0
308,290,309,302,0
306,288,310,300,0
305,289,310,299,0
304,291,309,297,0
304,293,308,296,0
303,294,303,295,0
302,297,296,293,0
300,299,290,292,0
300,303,286,292,0
301,305,286,292,0
302,306,289,293,0
303,304,294,297,0
304,299,301,300,0
305,293,305,303,0
305,293,307,304,0
306,297,308,304,0
306,307,308,305,0
307,319,310,306,0
307,329,312,308,0
307,330,314,310,0
307,324,315,311,0
306,316,315,311,0
306,311,314,311,0
306,309,313,310,0
308,311,311,310,0
310,315,310,311,0
311,323,310,313,0
312,333,311,314,0
312,342,313,315,0
311,348,314,314,0
308,352,314,314,0
306,350,313,314,0
304,341,313,314,0
304,331,313,313,0
303,320,312,313,0
302,311,311,312,0
301,301,309,310,0
301,292,308,308,0
302,282,307,307,0
302,274,306,304,0
302,267,305,302,0
303,262,304,300,0
303,262,304,300,0
303,266,304,302,0
302,274,305,304,0
303,281,306,306,0
304,289,308,309,0
305,296,310,312,0
307,303,312,314,0
309,314,314,315,0
310,328,314,316,0
311,344,314,316,0
311,359,314,315,0
310,368,313,313,0
310,373,311,311,0
310,373,309,310,0
310,362,307,308,0
309,340,306,307,0
307,316,306,306,0
305,295,306,304,0
304,278,306,302,0
303,268,306,301,0
303,265,306,300,0
303,266,304,299,0
302,269,303,300,0
302,272,303,301,0
303,277,304,304,0
304,282,307,307,0
305,287,309,310,0
306,291,310,311,0
306,295,310,312,0
306,298,308,311,0
307,302,306,312,0
308,306,304,311,0
307,307,303,311,0
307,306,303,310,0
306,304,305,310,0
305,301,308,311,0
305,297,310,310,0
305,295,310,310,0
305,297,308,309,0
305,303,307,308,0
305,315,306,308,0
304,330,307,308,0
305,343,310,308,0
305,346,311,309,0
305,339,311,309,0
305,323,310,309,0
305,307,310,310,0
306,296,311,311,0
306,294,313,312,0
308,301,316,313,0
309,314,319,314,0
310,331,320,316,0
310,345,318,317,0
309,344,314,316,0
308,331,311,314,0
306,314,308,312,0
306,300,307,311,0
305,288,306,310,0
304,280,304,310,0
303,275,304,309,0
303,275,305,309,0
303,276,306,309,0
303,279,308,311,0
304,283,309,312,0
304,285,309,312,0
305,285,309,310,0
305,285,308,309,0
306,285,306,307,0
306,286,306,306,0
305,288,305,305,0
305,291,305,304,0
305,295,306,304,0
307,303,307,306,0
309,318,309,309,0
310,334,309,313,0
313,351,309,316,0
314,357,309,317,0
313,347,307,315,0
310,322,305,311,0
308,296,304,309,0
307,273,303,307,0
307,260,303,307,0
307,255,304,307,0
308,255,307,308,0
307,255,309,308,0
307,260,309,308,0
306,269,308,308,0
305,282,304,309,0
304,297,301,309,0
303,312,300,309,0
303,324,300,311,0
305,334,302,314,0
307,343,304,319,0
309,350,307,322,0
311,355,309,324,0
312,355,310,323,0
311,349,309,320,0
311,337,307,316,0
310,325,306,313,0
309,317,304,311,0
308,314,302,309,0
309,317,300,308,0
309,324,300,308,0
309,331,301,309,0
309,338,303,309,0
309,348,307,310,0
311,358,311,312,0
312,365,314,314,0
313,356,316,313,0
311,326,315,311,0
308,291,314,308,0
307,264,313,306,0
306,249,311,305,0
304,244,308,303,0
303,244,305,302,0
302,248,304,301,0
302,254,304,302,0
302,260,304,303,0
302,268,303,304,0
303,276,302,305,0
304,287,299,305,0
306,303,298,305,0
306,321,298,305,0
307,339,300,304,0
306,345,303,304,0
304,338,306,304,0
303,322,308,303,0
301,305,309,303,0
300,291,309,303,0
299,280,308,302,0
299,273,307,302,0
299,270,306,302,0
299,270,304,301,0
299,271,303,301,0
299,274,301,302,0
299,278,302,303,0
298,281,303,306,0
298,283,305,309,0
299,283,307,312,0
300,284,308,314,0
302,290,309,315,0
304,300,309,315,0
306,313,309,314,0
307,326,308,314,0
308,337,307,314,0
308,343,306,314,0
307,346,305,313,0
305,349,303,310,0
303,352,302,306,0
301,351,301,304,0
301,345,302,304,0
302,333,303,306,0
304,320,306,310,0
307,314,309,314,0
310,318,311,318,0
312,327,311,319,0
311,329,310,318,0
310,324,309,315,0
308,315,308,312,0
307,308,308,310,0
306,303,306,309,0
306,296,304,307,0
305,290,301,304,0
304,283,298,301,0
303,275,295,299,0
302,269,292,298,0
302,267,291,300,0
303,271,290,302,0
304,280,292,304,0
305,294,297,307,0
307,309,302,308,0
307,320,306,308,0
307,321,309,307,0
306,311,309,306,0
305,294,308,305,0
305,279,306,305,0
306,270,306,306,0
307,269,307,306,0
307,273,308,305,0
307,278,310,305,0
306,285,311,306,0
305,292,311,307,0
305,298,310,307,0
305,304,309,307,0
304,307,307,305,0
304,305,306,304,0
304,301,306,304,0
304,297,306,305,0
304,294,306,307,0
305,294,307,310,0
306,299,308,313,0
308,308,310,314,0
308,320,311,314,0
308,331,311,311,0
307,335,310,309,0
305,335,310,307,0
303,334,310,305,0
303,337,312,304,0
305,346,314,304,0
308,357,315,304,0
310,366,314,305,0
311,367,312,306,0
311,358,310,306,0
310,340,307,305,0
308,323,305,303,0
307,310,303,303,0
306,303,301,303,0
306,295,299,303,0
305,284,299,303,0
305,275,300,304,0
305,268,301,305,0
305,265,304,306,0
305,264,307,308,0
306,263,311,308,0
306,262,313,307,0
305,264,314,305,0
305,270,314,304,0
305,277,312,302,0
304,286,310,301,0
303,295,309,301,0
302,302,309,303,0
301,307,309,305,0
301,312,309,307,0
301,319,309,309,0
303,328,310,310,0
305,340,312,310,0
308,347,313,310,0
310,343,314,308,0
310,329,313,306,0
309,313,311,305,0
307,301,309,303,0
304,291,306,302,0
301,286,303,300,0
299,283,301,298,0
297,284,300,297,0
296,289,299,297,0
295,297,298,298,0
294,302,299,299,0
295,304,300,300,0
296,303,301,302,0
297,298,301,302,0
298,292,300,301,0
299,288,299,301,0
301,286,299,301,0
301,287,300,301,0
301,289,303,301,0
301,292,306,303,0
300,295,310,304,0
300,298,313,306,0
299,300,315,306,0
299,300,315,306,0
299,298,314,306,0
299,293,312,306,0
299,289,311,307,0
299,288,310,307,0
300,289,309,306,0
300,293,307,306,0
300,301,305,306,0
300,312,303,307,0
301,325,302,308,0
302,337,303,308,0
302,346,304,308,0
302,349,304,307,0
300,348,303,305,0
298,345,300,303,0
296,338,299,301,0
296,331,298,299,0
297,324,299,299,0
297,318,302,300,0
298,315,304,302,0
298,318,307,304,0
298,324,308,305,0
299,330,309,305,0
299,333,309,305,0
300,328,308,305,0
300,315,307,305,0
300,301,306,305,0
299,289,305,306,0
299,281,305,306,0
300,278,304,307,0
301,276,302,307,0
301,277,302,307,0
302,280,303,307,0
303,285,305,307,0
305,288,307,308,0
306,290,308,308,0
307,295,309,309,0
308,301,309,310,0
308,309,310,310,0
308,319,308,311,0
306,330,308,310,0
304,337,307,311,0
303,340,309,311,0
303,338,310,311,0
303,333,312,312,0
304,328,313,312,0
304,325,313,314,0
306,323,313,314,0
306,322,311,314,0
306,322,310,314,0
305,318,308,313,0
303,311,306,312,0
302,303,305,311,0
303,295,304,310,0
305,289,304,310,0
308,287,305,310,0
311,289,306,311,0
313,297,307,312,0
314,307,307,313,0
313,317,306,313,0
310,326,304,312,0
308,333,302,311,0
306,334,301,310,0
306,329,302,310,0
307,325,302,311,0
308,318,303,313,0
308,307,302,314,0
307,296,300,314,0
306,286,300,315,0
305,279,300,315,0
306,273,302,316,0
307,271,303,317,0
308,272,304,317,0
307,278,304,316,0
305,286,305,315,0
302,294,306,313,0
299,300,307,311,0
297,304,308,309,0
296,306,308,307,0
296,306,307,305,0
298,304,306,304,0
300,304,306,303,0
301,306,307,303,0
304,314,307,303,0
307,323,309,303,0
310,331,309,303,0
312,333,309,303,0
312,329,308,303,0
310,318,306,301,0
307,306,305,300,0
305,297,304,298,0
303,290,305,298,0
304,286,308,298,0
304,286,311,299,0
306,291,314,302,0
308,298,315,304,0
308,304,316,305,0
308,312,315,305,0
307,323,313,305,0
306,337,312,305,0
305,346,310,305,0
303,347,309,304,0
302,342,308,303,0
300,335,308,302,0
299,325,307,302,0
298,314,307,303,0
298,305,307,304,0
298,300,306,305,0
297,297,305,306,0
298,294,304,305,0
300,290,304,304,0
303,291,305,303,0
306,300,306,303,0
309,314,306,302,0
310,328,305,301,0
308,335,305,298,0
304,333,304,295,0
300,326,302,293,0
298,319,302,292,0
297,313,302,293,0
296,304,301,295,0
296,293,301,296,0
296,282,301,297,0
297,273,301,298,0
298,265,302,299,0
299,260,302,299,0
302,256,302,299,0
305,255,301,299,0
309,259,301,299,0
313,268,303,301,0
316,285,305,304,0
317,307,308,307,0
316,330,311,311,0
316,349,313,314,0
315,360,313,316,0
314,357,311,318,0
312,340,309,317,0
309,315,307,315,0
307,290,307,312,0
304,270,307,310,0
303,255,307,308,0
302,250,307,308,0
302,256,307,309,0
302,273,307,310,0
301,290,307,311,0
299,302,307,310,0
298,310,308,307,0
298,315,310,304,0
298,320,312,303,0
299,326,312,302,0
299,332,312,301,0
299,337,310,301,0
300,341,309,301,0
302,341,308,303,0
303,338,309,306,0
305,330,310,307,0
306,319,310,308,0
307,308,311,308,0
308,299,311,308,0
308,291,311,308,0
308,284,310,307,0
307,282,308,304,0
305,282,308,300,0
304,284,307,297,0
304,286,306,296,0
305,289,305,295,0
306,292,304,295,0
306,296,301,295,0
306,302,298,297,0
306,310,297,299,0
307,316,297,302,0
308,317,299,304,0
308,310,301,305,0
308,298,303,306,0
310,286,305,306,0
313,279,307,306,0
315,278,307,308,0
316,285,307,309,0
317,302,307,311,0
317,321,306,313,0
316,339,306,314,0
316,360,305,315,0
316,381,304,315,0
315,398,303,315,0
314,405,302,314,0
312,395,302,312,0
308,362,302,310,0
304,320,302,309,0
303,285,303,308,0
303,260,304,309,0
305,247,305,309,0
306,243,305,309,0
306,246,304,310,0
307,253,304,311,0
307,261,303,311,0
306,272,303,313,0
306,282,302,315,0
305,288,301,317,0
304,291,301,318,0
305,293,301,319,0
306,298,301,319,0
306,305,300,318,0
306,311,299,316,0
307,314,297,313,0
306,312,296,310,0
306,307,296,309,0
305,301,297,308,0
305,295,299,308,0
305,289,300,309,0
307,283,300,310,0
310,280,301,311,0
312,281,301,314,0
315,285,301,316,0
317,292,299,319,0
316,300,298,320,0
315,308,301,322,0
313,316,306,323,0
312,321,311,324,0
311,322,315,324,0
309,320,317,323,0
308,316,316,321,0
309,314,315,318,0
311,314,313,316,0
313,317,312,315,0
314,322,310,314,0
314,328,309,315,0
314,331,307,314,0
311,329,305,312,0
308,323,303,309,0
307,318,300,307,0
308,319,298,306,0
309,326,298,306,0
311,334,299,307,0
312,336,301,307,0
311,326,303,307,0
310,313,304,306,0
309,305,305,306,0
308,308,305,306,0
309,317,305,308,0
310,325,305,312,0
311,324,306,316,0
312,314,305,319,0
312,306,306,321,0
312,306,306,321,0
311,309,305,318,0
309,314,305,314,0
307,312,305,310,0
305,302,304,305,0
303,289,303,301,0
302,279,301,299,0
302,277,301,298,0
303,280,300,298,0
305,286,300,299,0
307,296,302,300,0
310,312,304,303,0
313,329,307,306,0
315,340,308,309,0
314,341,306,310,0
311,331,304,309,0
308,313,302,307,0
306,291,301,306,0
305,269,302,305,0
305,253,304,305,0
305,244,306,307,0
306,241,307,308,0
305,242,308,308,0
304,246,308,306,0
302,252,308,305,0
301,262,308,305,0
301,277,308,307,0
303,298,310,311,0
305,323,311,315,0
306,349,312,321,0
307,369,311,326,0
308,376,308,329,0
308,369,306,328,0
307,359,305,327,0
306,354,304,325,0
306,360,305,323,0
307,375,309,323,0
311,394,315,327,0
316,411,320,333,0
321,425,325,339,0
326,428,329,343,0
327,410,328,340,0
321,373,323,331,0
312,329,316,318,0
303,292,309,307,0
298,268,304,299,0
294,256,300,294,0
292,251,299,292,0
292,251,299,292,0
293,251,301,292,0
293,251,301,293,0
293,253,298,294,0
293,256,296,296,0
293,263,295,298,0
294,273,295,301,0
295,283,297,304,0
298,292,300,306,0
300,299,303,308,0
302,304,305,309,0
301,303,305,307,0
301,298,304,303,0
300,292,303,300,0
300,291,302,298,0
301,295,302,298,0
303,305,302,299,0
305,320,301,301,0
308,339,302,303,0
311,355,302,306,0
314,366,304,309,0
316,374,308,311,0
315,372,312,311,0
310,353,314,308,0
304,328,316,305,0
300,304,317,305,0
298,286,316,304,0
296,274,315,303,0
296,269,313,303,0
296,267,310,303,0
297,266,308,303,0
298,266,306,303,0
299,267,304,301,0
300,270,301,299,0
301,273,298,297,0
303,279,296,294,0
305,288,296,294,0
307,297,298,295,0
309,306,301,298,0
312,314,305,303,0
314,321,308,306,0
314,325,308,308,0
312,324,305,307,0
309,318,302,305,0
305,309,300,304,0
303,301,298,303,0
302,295,298,303,0
303,294,299,305,0
303,296,300,307,0
304,303,300,309,0
304,315,301,312,0
304,330,302,314,0
304,348,302,315,0
305,366,303,315,0
305,377,303,315,0
305,375,302,313,0
305,360,302,312,0
305,339,303,310,0
305,320,304,309,0
305,304,305,306,0
305,289,305,301,0
303,276,304,297,0
303,267,304,294,0
302,263,303,291,0
301,262,301,290,0
299,262,299,288,0
297,265,296,288,0
296,268,295,288,0
295,271,295,288,0
295,272,294,287,0
295,273,294,287,0
296,277,294,288,0
297,285,294,289,0
299,296,295,290,0
299,307,296,292,0
300,315,296,292,0
300,320,296,291,0
301,323,297,292,0
302,325,299,293,0
303,328,301,295,0
306,332,303,298,0
308,337,304,301,0
310,342,305,303,0
311,347,304,304,0
312,354,302,305,0
311,359,301,306,0
312,358,301,309,0
313,352,304,312,0
315,344,307,316,0
318,334,310,319,0
319,322,312,320,0
318,312,312,319,0
316,311,310,318,0
312,320,306,316,0
309,336,302,313,0
306,355,299,310,0
304,367,297,307,0
304,366,296,304,0
304,347,295,301,0
303,320,293,299,0
302,297,292,298,0
302,283,294,297,0
303,280,297,297,0
304,285,302,299,0
305,294,305,302,0
306,298,308,305,0
307,295,310,307,0
308,290,311,309,0
308,287,311,311,0
309,285,311,312,0
309,283,311,312,0
308,281,310,312,0
308,280,311,311,0
307,282,310,310,0
306,285,310,308,0
305,286,308,307,0
304,286,307,306,0
303,288,306,306,0
304,293,305,306,0
305,300,304,306,0
306,308,303,307,0
308,314,303,308,0
309,316,303,309,0
309,312,302,309,0
309,300,301,308,0
308,288,299,305,0
307,277,298,303,0
305,270,297,300,0
302,268,297,297,0
301,272,298,297,0
300,282,300,298,0
301,295,303,302,0
301,308,305,306,0
302,319,306,311,0
303,325,306,314,0
303,325,306,315,0
303,320,304,314,0
303,310,302,311,0
303,301,299,306,0
304,297,297,302,0
304,300,297,299,0
305,307,299,298,0
306,317,304,299,0
308,325,308,301,0
309,330,311,303,0
310,332,312,305,0
310,333,312,306,0
309,330,311,306,0
307,328,310,306,0
305,329,308,306,0
303,328,305,306,0
302,324,303,305,0
302,314,302,303,0
303,305,301,302,0
305,302,300,303,0
306,306,299,304,0
308,313,299,304,0
310,319,300,303,0
311,325,301,302,0
311,325,302,301,0
311,320,302,300,0
310,314,301,301,0
309,309,302,303,0
308,308,303,306,0
308,306,303,308,0
309,301,303,308,0
308,288,303,307,0
308,273,302,306,0
307,261,301,305,0
308,255,300,304,0
307,255,298,303,0
307,261,297,302,0
306,273,296,301,0
306,292,295,300,0
304,317,295,300,0
303,346,297,300,0
304,371,301,302,0
305,387,306,304,0
306,387,312,307,0
308,373,316,309,0
310,351,318,310,0
312,329,318,311,0
315,313,316,312,0
316,305,312,313,0
315,302,309,314,0
315,304,307,315,0
314,305,306,315,0
313,307,306,314,0
313,311,307,313,0
312,316,308,311,0
311,322,308,310,0
308,324,307,308,0
307,320,304,308,0
305,314,303,308,0
305,307,302,308,0
305,301,301,308,0
305,293,300,308,0
305,282,300,308,0
306,271,301,307,0
307,266,302,306,0
308,272,304,305,0
309,288,305,306,0
309,308,305,307,0
309,323,305,308,0
308,330,305,309,0
308,332,306,310,0
310,334,307,312,0
311,337,309,312,0
311,337,309,312,0
308,330,307,311,0
306,318,305,310,0
304,306,302,307,0
303,298,301,303,0
304,298,300,297,0
305,303,300,290,0
304,306,299,285,0
301,305,297,282,0
299,303,296,280,0
298,298,296,278,0
298,293,298,277,0
299,288,300,275,0
300,283,301,274,0
301,281,302,274,0
301,284,304,275,0
301,295,305,278,0
302,313,307,282,0
304,336,309,288,0
307,359,311,296,0
309,379,313,304,0
310,390,313,310,0
310,387,313,315,0
309,375,313,318,0
308,356,313,319,0
307,335,312,319,0
306,309,312,318,0
305,280,310,315,0
304,255,308,311,0
304,238,307,308,0
304,233,305,305,0
304,236,304,304,0
303,244,305,303,0
302,256,305,304,0
302,268,306,306,0
301,276,307,308,0
302,281,307,310,0
302,284,306,311,0
303,286,305,312,0
303,289,304,313,0
303,291,304,314,0
303,290,305,315,0
304,289,306,317,0
304,289,307,319,0
305,292,310,321,0
306,299,312,323,0
306,313,313,325,0
306,327,314,326,0
305,340,313,327,0
304,348,313,326,0
304,348,312,325,0
305,339,312,324,0
306,325,311,322,0
306,306,310,321,0
307,288,309,318,0
307,272,308,316,0
308,262,306,315,0
309,255,305,313,0
310,253,305,313,0
310,255,305,313,0
309,264,305,313,0
309,279,305,314,0
309,295,307,314,0
309,311,309,314,0
310,325,312,315,0
311,338,313,316,0
310,347,314,316,0
307,348,314,315,0
305,340,312,314,0
304,326,309,311,0
303,311,307,309,0
302,299,306,308,0
302,292,306,308,0
302,291,307,308,0
302,299,307,307,0
302,314,307,307,0
302,332,307,307,0
302,346,305,306,0
302,348,304,306,0
302,340,304,306,0
302,326,303,306,0
302,313,302,305,0
304,307,300,305,0
305,304,298,305,0
305,300,295,303,0
305,296,292,302,0
305,291,289,303,0
304,289,289,303,0
303,292,292,303,0
303,299,298,304,0
304,308,305,306,0
306,315,310,307,0
307,312,312,308,0
307,299,311,307,0
306,284,309,308,0
306,274,308,309,0
305,270,308,311,0
306,271,309,312,0
306,272,310,314,0
307,270,312,314,0
308,267,316,315,0
312,268,318,316,0
314,271,319,318,0
315,272,317,319,0
314,271,313,320,0
313,270,309,320,0
313,268,306,318,0
311,266,306,314,0
310,266,305,309,0
307,268,304,304,0
306,272,302,300,0
305,279,302,296,0
304,288,302,294,0
304,296,302,292,0
303,302,301,290,0
302,305,301,288,0
301,306,301,286,0
300,307,302,286,0
300,311,302,288,0
302,316,303,292,0
304,322,306,298,0
308,330,308,304,0
311,337,309,309,0
312,342,310,313,0
313,345,309,315,0
312,344,307,317,0
311,341,306,318,0
311,335,306,319,0
311,326,308,318,0
310,316,310,316,0
310,307,312,314,0
309,303,312,312,0
308,305,311,311,0
307,311,311,310,0
305,317,310,310,0
304,317,310,310,0
302,308,309,311,0
301,296,309,311,0
300,283,309,311,0
301,272,310,310,0
302,264,311,308,0
303,259,311,307,0
306,257,311,306,0
308,259,312,306,0
310,266,311,305,0
312,279,310,304,0
313,295,310,304,0
314,311,311,304,0
314,326,313,305,0
315,336,314,304,0
314,338,314,303,0
312,331,312,300,0
307,317,309,296,0
302,301,304,292,0
297,290,301,289,0
294,286,300,288,0
293,289,302,288,0
293,299,304,288,0
294,311,307,288,0
294,318,310,288,0
296,320,313,289,0
298,319,316,291,0
301,316,318,294,0
304,314,318,299,0
309,322,318,304,0
313,342,317,308,0
316,366,315,310,0
316,383,310,309,0
313,390,302,306,0
309,386,295,303,0
304,370,289,300,0
299,344,288,298,0
296,314,290,298,0
295,287,295,299,0
295,267,301,303,0
297,253,306,307,0
300,245,309,311,0
302,242,310,313,0
303,242,309,315,0
304,246,308,316,0
304,254,307,315,0
304,264,306,314,0
303,278,305,313,0
302,296,304,312,0
302,317,304,311,0
303,340,304,310,0
305,363,305,309,0
308,377,306,307,0
308,375,305,305,0
307,355,304,302,0
304,328,302,300,0
302,304,301,299,0
301,285,300,298,0
301,273,300,299,0
302,266,301,300,0
303,264,303,303,0
305,265,305,305,0
306,268,307,308,0
306,270,307,309,0
305,271,307,310,0
304,274,307,309,0
302,277,306,309,0
302,281,305,307,0
302,287,304,305,0
302,291,303,302,0
302,293,302,298,0
302,293,301,294,0
303,296,301,291,0
305,303,303,288,0
307,315,303,288,0
309,329,304,288,0
310,340,305,288,0
310,341,304,288,0
308,332,304,286,0
306,320,302,285,0
305,309,300,286,0
306,299,300,287,0
306,290,299,290,0
307,282,299,293,0
308,274,300,295,0
309,267,301,298,0
310,265,302,299,0
310,266,303,301,0
309,270,303,302,0
308,273,302,302,0
307,277,302,302,0
307,283,302,303,0
308,292,303,306,0
309,300,305,310,0
310,308,309,313,0
312,315,312,316,0
313,321,315,317,0
314,329,316,316,0
312,335,313,314,0
309,341,309,312,0
305,346,304,311,0
302,347,300,311,0
299,342,298,311,0
297,334,298,310,0
297,326,299,310,0
299,324,301,310,0
302,333,304,310,0
306,352,307,311,0
310,378,309,314,0
312,399,310,316,0
313,407,310,318,0
312,404,310,319,0
309,390,309,318,0
305,364,308,315,0
302,333,308,311,0
301,307,309,308,0
302,291,312,307,0
303,286,314,307,0
304,286,318,310,0
307,287,321,312,0
311,293,323,314,0
313,299,322,313,0
314,303,318,312,0
312,304,313,311,0
310,306,309,310,0
308,309,309,310,0
306,309,309,310,0
304,302,309,310,0
302,283,309,311,0
301,261,310,311,0
302,242,311,310,0
302,230,312,309,0
304,225,314,308,0
305,226,316,308,0
306,233,317,308,0
306,244,315,307,0
306,256,313,307,0
305,270,311,306,0
305,284,310,305,0
304,297,309,305,0
304,311,309,306,0
304,323,309,308,0
304,330,310,311,0
305,332,310,313,0
305,331,310,316,0
306,328,310,316,0
306,320,309,315,0
304,308,308,311,0
303,295,307,306,0
302,284,307,302,0
302,278,307,299,0
303,277,306,297,0
304,279,307,296,0
305,281,307,296,0
306,284,308,298,0
306,291,307,301,0
304,301,307,305,0
304,309,306,308,0
304,317,306,312,0
304,325,307,313,0
306,336,308,314,0
307,347,309,315,0
309,355,309,314,0
310,357,307,312,0
309,354,305,310,0
308,351,302,309,0
307,349,300,308,0
305,347,299,308,0
305,345,299,308,0
304,346,301,308,0
304,347,303,309,0
303,343,303,310,0
301,332,304,310,0
300,320,304,310,0
300,309,305,311,0
302,301,306,311,0
305,295,307,311,0
307,291,307,312,0
309,286,308,313,0
311,278,307,313,0
310,273,306,312,0
309,273,305,311,0
308,281,305,310,0
308,289,305,311,0
309,293,304,311,0
310,291,303,312,0
311,289,303,313,0
311,291,304,313,0
311,295,304,312,0
310,302,305,312,0
307,308,305,312,0
305,310,306,312,0
305,308,307,314,0
306,303,309,315,0
307,299,311,316,0
309,298,311,317,0
310,301,311,317,0
311,306,311,316,0
311,311,309,314,0
310,314,306,312,0
309,315,304,311,0
309,315,303,311,0
309,317,303,312,0
311,322,303,313,0
313,329,303,314,0
314,337,301,314,0
314,344,298,314,0
313,344,295,312,0
312,339,295,310,0
310,328,299,308,0
309,313,307,308,0
307,298,315,308,0
306,285,322,309,0
304,276,325,310,0
304,272,323,311,0
303,271,320,312,0
303,271,315,312,0
303,272,312,312,0
303,274,309,311,0
303,278,307,309,0
303,281,305,308,0
303,279,305,307,0
306,273,307,307,0
308,264,309,308,0
311,253,310,307,0
313,241,310,306,0
314,229,310,304,0
314,223,310,303,0
313,228,309,302,0
310,248,305,302,0
307,278,302,303,0
305,313,299,304,0
304,345,297,305,0
304,375,295,308,0
305,400,294,310,0
305,415,292,311,0
304,421,291,312,0
303,422,291,313,0
302,413,290,314,0
300,395,291,314,0
300,377,290,314,0
300,361,288,314,0
300,348,287,314,0
301,336,288,312,0
302,320,290,309,0
302,299,292,307,0
302,281,292,305,0
302,271,294,305,0
302,267,296,305,0
302,267,298,306,0
302,269,299,307,0
302,275,300,308,0
302,286,301,309,0
304,299,303,310,0
305,314,306,310,0
306,328,308,310,0
307,339,309,310,0
306,340,310,309,0
305,333,310,308,0
303,328,310,308,0
302,328,311,309,0
304,334,312,311,0
308,338,312,313,0
312,337,312,314,0
314,325,311,313,0
314,310,310,312,0
313,300,311,310,0
311,298,312,308,0
309,303,313,307,0
308,307,313,306,0
307,305,314,306,0
305,297,315,306,0
304,286,317,306,0
303,277,319,307,0
303,271,320,307,0
304,269,319,306,0
303,269,316,305,0
302,268,312,305,0
301,267,308,305,0
301,265,307,306,0
300,265,308,307,0
301,268,313,308,0
302,276,319,310,0
303,289,325,312,0
305,304,329,314,0
307,317,331,316,0
310,323,330,317,0
312,322,327,316,0
314,320,324,316,0
315,321,320,315,0
312,319,316,313,0
308,312,312,311,0
304,304,309,309,0
302,298,306,306,0
300,296,302,304,0
300,302,298,302,0
300,319,296,302,0
302,341,294,300,0
303,361,294,299,0
304,376,297,298,0
304,376,301,298,0
305,354,305,298,0
304,322,308,299,0
305,292,310,300,0
305,269,311,302,0
306,254,312,305,0
306,247,312,308,0
307,244,313,311,0
307,245,313,313,0
308,252,314,316,0
309,268,313,317,0
310,289,313,318,0
310,313,313,317,0
309,338,312,315,0
308,360,311,313,0
308,374,311,311,0
307,373,311,309,0
306,357,310,308,0
305,337,308,308,0
304,319,305,308,0
304,308,303,308,0
304,305,302,309,0
304,307,303,310,0
304,314,305,310,0
304,321,309,310,0
304,322,312,308,0
303,317,314,307,0
303,308,314,306,0
303,299,312,304,0
303,294,308,303,0
304,292,304,303,0
306,294,302,303,0
307,296,301,304,0
307,296,301,303,0
306,295,301,302,0
306,293,301,301,0
306,292,301,299,0
307,293,301,298,0
307,294,302,298,0
308,291,304,297,0
309,284,306,297,0
311,279,308,298,0
313,279,309,300,0
314,287,309,302,0
315,297,309,305,0
314,309,309,308,0
314,319,308,310,0
311,322,308,310,0
307,318,306,309,0
303,315,306,308,0
300,316,305,307,0
297,317,305,306,0
295,317,307,305,0
295,316,310,305,0
295,317,311,304,0
295,319,312,304,0
296,320,312,304,0
298,323,311,304,0
300,329,309,305,0
303,340,308,305,0
305,352,307,306,0
307,360,308,306,0
307,358,308,306,0
306,347,308,305,0
305,334,307,305,0
304,324,307,304,0
305,318,305,305,0
305,313,305,304,0
305,306,304,302,0
305,300,304,301,0
305,297,305,301,0
305,299,308,303,0
306,305,311,307,0
306,312,313,310,0
306,319,314,310,0
306,327,315,311,0
307,334,316,311,0
308,335,315,309,0
308,327,313,306,0
307,313,311,303,0
306,297,309,301,0
306,285,306,300,0
305,278,304,299,0
305,276,303,299,0
305,283,302,301,0
307,299,302,302,0
309,324,305,304,0
311,345,307,305,0
312,355,310,304,0
309,347,311,302,0
305,323,311,299,0
301,295,309,297,0
298,272,308,297,0
298,261,307,297,0
298,260,307,298,0
299,267,308,299,0
300,277,309,300,0
302,288,309,301,0
303,297,310,303,0
304,306,310,305,0
306,316,310,308,0
307,334,311,311,0
308,357,310,314,0
308,374,309,316,0
308,381,307,317,0
309,380,307,317,0
311,373,307,317,0
314,361,306,316,0
317,349,305,315,0
318,336,302,312,0
316,323,299,308,0
311,306,296,304,0
306,289,293,299,0
302,275,293,297,0
300,265,295,295,0
300,258,298,294,0
301,257,300,296,0
303,262,302,298,0
305,270,302,301,0
306,280,301,303,0
306,289,299,304,0
305,294,299,305,0
304,294,298,305,0
303,294,300,306,0
303,294,303,306,0
303,296,306,306,0
304,302,308,307,0
306,313,311,308,0
308,329,313,309,0
309,344,313,310,0
310,354,314,310,0
310,360,314,310,0
308,354,314,309,0
306,332,314,308,0
304,304,314,308,0
302,281,314,309,0
299,270,313,308,0
298,269,313,308,0
298,273,313,308,0
300,280,311,308,0
301,285,308,308,0
302,289,306,308,0
303,291,305,307,0
303,293,305,307,0
303,294,304,305,0
302,296,302,303,0
302,298,300,301,0
302,304,298,301,0
303,313,298,302,0
305,324,300,304,0
308,334,303,307,0
311,338,304,310,0
312,333,305,312,0
313,319,304,312,0
313,303,305,312,0
314,291,304,312,0
314,284,303,310,0
312,283,301,308,0
308,284,301,307,0
304,286,301,305,0
301,287,304,305,0
299,289,307,305,0
299,290,308,307,0
299,292,309,309,0
300,293,309,311,0
301,293,308,313,0
303,292,308,313,0
306,292,308,313,0
308,292,308,313,0
311,294,308,313,0
313,299,307,313,0
314,311,307,312,0
315,326,307,311,0
314,336,306,310,0
313,342,306,310,0
313,346,306,310,0
314,345,306,309,0
312,339,306,308,0
310,332,306,308,0
308,324,306,309,0
308,312,307,311,0
308,298,307,311,0
308,288,306,310,0
307,285,304,308,0
306,287,303,306,0
306,291,303,304,0
304,296,303,303,0
304,299,304,303,0
303,300,304,304,0
303,301,304,304,0
304,306,303,306,0
304,319,302,307,0
304,335,301,308,0
303,349,303,309,0
304,358,308,311,0
306,359,314,313,0
307,349,318,315,0
308,331,320,317,0
308,310,319,318,0
308,290,316,318,0
307,271,313,317,0
306,256,310,314,0
304,249,306,312,0
303,252,305,310,0
304,259,304,309,0
304,263,305,308,0
304,264,305,305,0
303,265,304,303,0
303,266,303,300,0
302,268,302,300,0
302,272,301,300,0
303,277,301,302,0
303,285,300,303,0
304,295,299,305,0
304,304,299,306,0
304,316,298,307,0
305,327,299,308,0
305,336,300,310,0
305,345,303,311,0
307,350,305,312,0
308,347,306,313,0
309,340,308,314,0
310,336,308,315,0
311,333,309,317,0
311,329,307,317,0
311,318,306,316,0
310,302,305,314,0
309,286,304,312,0
307,277,303,311,0
306,275,304,311,0
305,278,305,311,0
303,283,307,310,0
302,288,307,308,0
299,291,305,306,0
298,291,303,303,0
297,288,301,301,0
297,285,300,299,0
297,283,302,298,0
299,285,302,298,0
301,292,301,299,0
303,300,299,301,0
305,308,298,302,0
307,311,299,301,0
307,305,300,299,0
308,297,300,297,0
309,295,301,297,0
310,310,302,297,0
311,336,303,299,0
310,362,305,301,0
308,383,307,302,0
307,393,309,305,0
306,386,311,308,0
306,368,311,311,0
305,346,311,314,0
303,322,310,316,0
302,300,309,315,0
300,282,307,314,0
299,270,306,312,0
299,266,304,310,0
300,265,301,309,0
301,265,300,309,0
302,265,300,308,0
302,264,301,308,0
302,263,303,308,0
303,263,306,308,0
304,267,307,308,0
305,273,307,309,0
306,279,305,309,0
306,281,303,308,0
306,282,303,307,0
305,283,304,308,0
304,286,309,308,0
304,288,312,308,0
303,290,313,308,0
301,287,313,307,0
300,282,311,307,0
299,279,309,307,0
300,281,308,307,0
302,289,308,308,0
304,300,309,308,0
306,315,310,308,0
306,330,310,308,0
305,337,309,306,0
304,334,308,304,0
303,327,307,303,0
303,320,305,302,0
303,316,304,302,0
303,313,303,302,0
302,310,301,303,0
302,307,301,304,0
302,304,303,305,0
302,302,304,306,0
303,302,306,306,0
305,303,307,306,0
306,303,308,306,0
308,304,309,305,0
309,303,309,304,0
310,299,309,304,0
312,295,308,305,0
313,289,306,306,0
313,282,305,306,0
313,277,304,306,0
311,276,305,305,0
309,279,307,304,0
309,285,308,304,0
308,292,310,303,0
308,297,311,302,0
307,302,312,301,0
306,304,311,302,0
306,308,311,302,0
306,314,311,303,0
305,320,311,304,0
305,324,311,304,0
306,327,311,306,0
306,327,311,307,0
307,323,311,308,0
308,321,311,310,0
309,324,312,311,0
311,336,313,312,0
312,354,313,313,0
314,375,313,315,0
316,391,314,316,0
317,394,314,316,0
316,374,313,316,0
314,340,312,315,0
312,307,310,313,0
310,282,307,312,0
309,267,304,311,0
311,261,304,311,0
314,261,305,310,0
317,271,308,309,0
321,293,312,311,0
326,324,315,313,0
328,351,317,313,0
323,364,315,311,0
315,362,311,308,0
306,352,307,304,0
300,342,303,302,0
295,334,300,301,0
292,324,298,299,0
290,311,298,299,0
290,298,298,299,0
290,286,298,298,0
291,275,299,298,0
292,268,299,297,0
293,263,299,297,0
295,261,299,297,0
296,261,300,299,0
298,263,301,300,0
300,266,302,302,0
301,269,303,304,0
302,274,303,305,0
303,280,302,306,0
304,284,302,306,0
304,287,301,305,0
304,289,302,304,0
304,291,302,304,0
304,292,304,304,0
304,294,306,303,0
304,296,308,304,0
305,299,308,305,0
306,301,307,306,0
306,303,304,307,0
306,305,302,307,0
305,309,302,308,0
304,313,303,309,0
302,315,304,309,0
301,315,304,310,0
300,314,303,310,0
299,314,301,309,0
299,312,299,308,0
299,309,297,306,0
299,304,297,303,0
299,298,300,301,0
300,289,304,299,0
302,281,308,300,0
304,273,312,303,0
305,270,314,306,0
306,269,315,307,0
308,271,314,307,0
311,276,314,308,0
314,285,313,308,0
316,294,311,309,0
315,303,308,309,0
313,308,306,310,0
309,312,305,310,0
307,316,304,310,0
305,322,303,311,0
305,331,301,311,0
306,342,300,311,0
308,353,298,311,0
310,366,297,311,0
313,372,296,311,0
316,368,295,310,0
318,364,296,310,0
317,367,298,311,0
315,372,299,312,0
311,370,299,311,0
305,359,299,310,0
298,339,300,308,0
291,313,303,307,0
288,289,307,308,0
288,270,311,309,0
289,257,313,310,0
292,252,314,310,0
294,251,313,310,0
297,255,311,310,0
301,259,308,310,0
306,265,305,309,0
311,271,302,308,0
317,278,300,308,0
324,286,299,307,0
330,294,299,308,0
332,301,300,308,0
327,306,301,309,0
318,310,302,310,0
310,311,302,311,0
304,311,303,311,0
302,310,305,311,0
301,310,306,312,0
301,309,306,312,0
301,307,306,312,0
302,307,306,312,0
303,311,307,312,0
304,317,307,311,0
304,325,307,309,0
305,338,307,308,0
307,355,307,307,0
308,363,306,307,0
307,352,305,306,0
305,327,305,305,0
303,300,305,304,0
303,280,305,304,0
303,272,306,303,0
303,273,307,303,0
302,281,308,303,0
301,292,308,304,0
302,298,309,306,0
302,300,309,308,0
301,299,309,310,0
299,298,310,312,0
298,300,311,314,0
299,305,313,315,0
301,315,314,316,0
303,325,313,317,0
305,332,313,316,0
307,333,312,314,0
309,328,312,313,0
311,320,312,313,0
311,315,312,313,0
311,313,312,313,0
311,312,311,314,0
310,307,310,313,0
309,295,309,312,0
308,278,307,310,0
307,262,305,308,0
307,253,304,306,0
306,253,304,304,0
305,258,304,303,0
303,269,304,302,0
301,284,304,301,0
299,302,305,302,0
299,320,307,303,0
301,339,310,305,0
304,355,313,309,0
306,362,316,312,0
309,357,317,314,0
309,344,318,315,0
309,328,317,315,0
307,315,316,315,0
306,304,315,315,0
306,294,314,314,0
307,284,314,314,0
308,277,314,313,0
309,272,314,314,0
310,269,314,315,0
311,269,313,316,0
311,271,311,317,0
311,275,308,317,0
311,281,306,316,0
310,289,305,315,0
309,299,305,314,0
308,309,306,313,0
306,317,308,312,0
306,319,310,310,0
306,314,312,310,0
306,304,314,310,0
306,290,314,309,0
307,279,313,309,0
307,270,312,309,0
306,265,310,307,0
306,264,309,306,0
306,268,308,304,0
306,278,308,303,0
306,292,308,302,0
306,306,307,301,0
305,319,307,301,0
304,329,307,301,0
303,336,308,303,0
304,346,311,305,0
306,362,314,308,0
309,389,316,313,0
313,423,318,317,0
317,453,320,321,0
318,464,320,322,0
315,445,317,320,0
310,401,314,316,0
304,352,311,312,0
302,314,310,310,0
302,292,309,309,0
303,285,309,309,0
304,286,309,309,0
304,284,307,309,0
302,275,305,309,0
300,263,304,308,0
299,250,304,307,0
298,241,304,306,0
299,239,303,306,0
299,246,303,306,0
301,261,304,307,0
302,276,306,307,0
303,287,308,308,0
304,293,309,310,0
305,296,311,311,0
306,293,312,311,0
307,285,312,310,0
307,275,312,309,0
305,268,310,308,0
304,266,308,307,0
304,267,306,307,0
302,271,303,307,0
302,274,302,306,0
301,277,302,306,0
302,281,302,305,0
302,287,303,304,0
302,292,303,304,0
302,296,303,304,0
301,301,305,304,0
301,305,306,305,0
300,309,306,305,0
299,310,307,306,0
299,307,308,306,0
300,301,309,307,0
301,295,309,307,0
304,294,310,309,0
307,298,311,311,0
309,309,311,312,0
309,324,310,311,0
306,340,309,309,0
303,354,307,307,0
301,361,306,305,0
299,359,305,304,0
297,345,303,303,0
297,326,303,302,0
297,311,302,303,0
298,302,301,303,0
300,297,301,304,0
302,297,301,304,0
304,299,301,303,0
304,305,300,301,0
303,313,299,299,0
302,319,299,298,0
303,323,300,299,0
304,320,302,300,0
305,310,302,302,0
306,299,303,304,0
306,292,304,305,0
305,289,303,305,0
304,288,300,304,0
303,290,296,303,0
303,293,292,301,0
303,294,290,300,0
303,293,289,298,0
304,291,291,299,0
305,291,294,302,0
305,297,300,305,0
305,307,307,309,0
305,319,314,312,0
305,330,318,315,0
305,335,320,316,0
305,335,320,315,0
304,332,318,315,0
304,327,317,315,0
303,324,315,315,0
302,323,315,315,0
301,321,314,316,0
301,319,314,318,0
302,316,314,318,0
302,317,314,319,0
303,319,313,319,0
304,322,313,320,0
305,326,312,319,0
306,331,312,318,0
307,334,310,317,0
308,332,308,314,0
307,320,305,310,0
305,302,302,307,0
305,287,300,306,0
305,278,298,306,0
306,276,296,306,0
305,278,295,307,0
304,282,295,307,0
303,286,298,308,0
302,287,303,309,0
303,285,308,309,0
303,280,312,309,0
305,275,314,308,0
305,272,314,308,0
306,275,312,308,0
307,288,311,308,0
307,310,310,310,0
307,336,309,312,0
307,362,308,312,0
307,384,307,313,0
307,395,306,314,0
308,390,306,315,0
308,373,305,316,0
306,354,305,317,0
305,339,305,318,0
302,327,305,318,0
300,320,305,317,0
299,318,305,317,0
299,317,305,315,0
299,317,304,312,0
299,315,304,309,0
298,307,302,305,0
297,294,301,301,0
296,279,299,299,0
296,270,299,298,0
297,267,299,299,0
298,267,300,298,0
299,267,301,298,0
300,270,302,298,0
302,270,304,298,0
302,267,305,298,0
302,264,306,298,0
302,265,305,299,0
301,271,305,300,0
300,280,305,302,0
299,290,305,303,0
298,297,304,303,0
298,302,303,304,0
297,306,302,304,0
297,306,302,305,0
297,305,302,305,0
298,302,303,306,0
298,299,303,306,0
299,296,303,304,0
300,294,303,302,0
301,295,303,300,0
303,299,304,298,0
304,303,303,297,0
305,308,304,296,0
305,314,304,297,0
306,317,304,297,0
307,316,304,297,0
308,313,305,297,0
309,309,305,296,0
308,304,304,296,0
307,299,304,298,0
306,295,304,301,0
306,291,304,304,0
306,290,304,307,0
307,291,303,309,0
308,295,303,311,0
307,300,304,311,0
308,305,309,312,0
308,310,313,312,0
309,317,317,314,0
310,325,319,316,0
311,329,319,316,0
311,328,317,315,0
309,326,315,313,0
309,325,313,312,0
308,324,311,312,0
309,322,310,312,0
309,320,310,312,0
310,319,309,312,0
309,320,310,313,0
309,327,311,313,0
310,340,313,314,0
310,351,314,314,0
310,355,315,313,0
309,350,314,313,0
307,337,312,313,0
305,319,310,311,0
304,303,308,310,0
304,292,306,309,0
303,289,304,308,0
302,289,302,308,0
302,289,301,308,0
303,289,302,308,0
303,288,302,308,0
304,288,304,308,0
304,290,304,307,0
305,295,304,307,0
305,303,303,308,0
306,311,303,308,0
306,318,304,308,0
306,323,304,309,0
306,324,305,310,0
305,319,307,311,0
305,311,311,312,0
305,307,315,313,0
305,310,316,315,0
304,319,315,314,0
304,330,313,312,0
304,344,309,310,0
304,356,305,308,0
303,364,301,307,0
302,366,299,305,0
301,363,298,304,0
301,353,299,305,0
301,338,301,306,0
302,321,303,308,0
302,304,305,310,0
303,289,307,310,0
304,279,308,311,0
306,276,311,312,0
307,279,312,313,0
308,287,314,314,0
308,298,313,313,0
306,308,312,311,0
304,310,310,307,0
301,301,307,305,0
299,289,302,303,0
297,280,299,303,0
297,277,297,304,0
297,277,298,304,0
298,280,300,304,0
298,281,301,304,0
298,283,303,302,0
297,284,305,301,0
298,287,306,301,0
298,290,306,302,0
298,294,306,303,0
299,297,306,304,0
300,298,307,307,0
301,297,308,309,0
303,297,310,312,0
306,300,311,314,0
309,306,313,316,0
312,314,313,317,0
314,324,313,318,0
315,334,312,316,0
314,336,310,313,0
313,328,308,310,0
311,312,306,307,0
308,295,304,304,0
307,285,303,303,0
306,288,304,302,0
307,300,305,302,0
307,312,306,302,0
308,318,307,302,0
308,314,308,302,0
308,303,309,303,0
307,290,308,303,0
306,280,307,304,0
306,276,305,304,0
305,277,302,304,0
305,282,300,303,0
306,287,298,303,0
307,295,297,304,0
308,304,296,305,0
309,316,295,307,0
310,331,296,309,0
312,345,299,309,0
312,355,301,308,0
311,356,302,307,0
309,347,302,305,0
308,330,303,303,0
307,313,304,301,0
306,300,305,299,0
306,291,305,298,0
306,288,305,297,0
307,287,305,298,0
306,287,305,298,0
306,288,304,299,0
306,290,303,299,0
307,292,302,299,0
307,296,300,300,0
307,301,299,301,0
308,307,298,304,0
309,314,299,307,0
309,321,301,311,0
308,326,303,313,0
308,330,306,315,0
308,332,309,317,0
308,333,310,317,0
308,331,310,316,0
308,328,309,315,0
308,326,307,314,0
308,325,305,312,0
308,321,302,309,0
308,313,299,305,0
306,302,297,301,0
305,291,296,299,0
304,284,297,297,0
303,279,299,297,0
303,277,301,299,0
304,277,302,302,0
305,277,304,303,0
306,279,305,304,0
307,281,305,304,0
308,283,305,304,0
308,286,305,304,0
308,290,305,305,0
307,293,304,305,0
307,297,304,306,0
307,299,304,306,0
307,301,306,306,0
307,301,308,306,0
308,300,309,305,0
308,298,309,305,0
308,298,308,305,0
309,299,307,306,0
310,302,307,306,0
312,310,309,308,0
313,323,313,309,0
314,338,316,311,0
315,350,318,312,0
315,356,318,313,0
314,352,316,314,0
312,343,314,315,0
310,335,311,314,0
308,329,310,313,0
308,322,310,312,0
307,311,309,310,0
306,297,309,308,0
306,284,309,307,0
306,274,308,305,0
306,269,307,305,0
307,268,305,304,0
308,268,302,302,0
308,270,298,301,0
308,271,295,300,0
308,272,294,300,0
307,273,294,300,0
307,275,297,301,0
306,278,303,302,0
304,281,310,303,0
304,285,315,304,0
304,289,317,303,0
306,292,317,303,0
308,295,316,301,0
309,299,314,300,0
311,305,311,299,0
312,314,309,297,0
312,320,307,296,0
312,320,307,295,0
311,312,309,295,0
310,298,311,297,0
308,283,312,299,0
306,271,313,302,0
303,269,314,305,0
301,277,314,308,0
299,292,314,311,0
298,307,314,314,0
299,320,315,316,0
300,330,317,317,0
302,338,318,316,0
303,344,318,315,0
304,346,318,313,0
306,345,317,309,0
305,342,315,305,0
303,338,312,301,0
301,333,309,297,0
300,326,308,294,0
300,317,309,293,0
301,308,310,294,0
302,301,309,296,0
303,297,309,298,0
304,298,310,299,0
306,303,312,301,0
308,313,312,302,0
309,325,313,304,0
309,335,314,305,0
310,335,314,307,0
310,330,314,308,0
310,328,313,309,0
309,330,311,308,0
306,336,309,307,0
304,341,308,306,0
301,343,309,305,0
300,339,312,303,0
299,333,313,302,0
297,327,312,301,0
297,323,309,300,0
297,317,306,300,0
297,311,303,301,0
298,305,303,302,0
299,301,304,302,0
300,298,305,302,0
300,296,306,303,0
301,296,305,303,0
302,297,305,303,0
302,299,305,303,0
302,301,306,302,0
303,303,307,301,0
304,305,308,300,0
304,304,309,300,0
304,304,308,300,0
305,306,308,301,0
305,310,307,304,0
307,314,306,307,0
308,318,306,309,0
308,318,305,312,0
308,313,303,313,0
306,308,302,314,0
305,306,302,314,0
304,306,303,313,0
302,310,305,312,0
300,316,308,311,0
300,320,310,310,0
300,323,312,309,0
301,320,312,309,0
302,314,311,308,0
304,308,310,308,0
306,304,311,308,0
307,299,310,308,0
307,294,309,308,0
308,288,307,307,0
308,284,305,306,0
308,282,303,304,0
308,280,301,304,0
309,280,301,304,0
310,283,302,305,0
311,291,304,305,0
313,299,306,306,0
314,307,308,307,0
314,312,309,306,0
314,313,308,306,0
312,316,304,305,0
310,324,301,304,0
308,341,300,304,0
307,361,301,305,0
305,374,302,305,0
303,375,302,304,0
302,361,302,303,0
300,337,301,301,0
298,312,300,299,0
297,294,299,299,0
298,285,299,300,0
300,283,299,302,0
301,282,300,304,0
302,281,302,306,0
304,278,303,308,0
305,277,304,309,0
305,281,304,310,0
305,290,304,310,0
306,302,305,311,0
306,313,306,312,0
307,321,306,312,0
308,325,306,313,0
310,326,307,314,0
311,322,307,315,0
312,318,308,316,0
312,313,309,317,0
310,308,310,318,0
309,303,312,318,0
308,300,313,317,0
308,299,313,316,0
308,301,311,314,0
308,306,310,313,0
308,312,308,312,0
309,316,307,311,0
310,316,306,311,0
310,312,304,310,0
309,303,301,308,0
308,295,299,306,0
307,293,298,304,0
306,299,300,305,0
307,310,303,306,0
309,326,308,308,0
309,344,310,308,0
309,360,310,309,0
309,371,309,309,0
310,372,309,309,0
309,358,308,309,0
308,335,307,308,0
307,312,308,309,0
308,298,309,309,0
310,293,309,310,0
311,295,308,311,0
312,298,306,312,0
312,301,306,313,0
312,302,306,313,0
310,300,307,311,0
309,302,308,308,0
308,309,307,306,0
307,320,304,303,0
307,327,300,300,0
305,326,293,296,0
302,315,288,294,0
298,301,286,293,0
296,289,287,293,0
296,281,290,294,0
297,279,296,296,0
298,282,300,298,0
299,287,304,301,0
301,294,306,303,0
303,299,309,305,0
304,300,312,306,0
306,296,313,307,0
307,294,315,308,0
309,295,316,310,0
310,300,317,311,0
312,309,317,312,0
313,319,318,312,0
313,328,318,313,0
313,332,316,313,0
311,330,315,311,0
309,323,314,310,0
308,319,314,309,0
308,317,313,308,0
309,316,312,307,0
309,317,311,307,0
309,320,311,308,0
309,319,311,307,0
308,315,310,306,0
307,310,309,305,0
307,306,308,306,0
307,306,307,307,0
307,306,305,308,0
307,305,305,308,0
308,302,305,307,0
308,298,306,306,0
309,296,307,307,0
310,297,309,307,0
311,298,310,307,0
311,303,311,307,0
311,313,311,308,0
311,329,311,309,0
311,350,311,311,0
311,370,310,312,0
311,382,309,312,0
310,381,307,309,0
308,367,306,307,0
307,344,306,305,0
307,318,307,304,0
307,290,310,303,0
307,264,313,303,0
307,245,315,302,0
307,238,316,302,0
307,243,315,304,0
307,257,313,305,0
307,275,311,306,0
308,291,309,306,0
308,304,308,306,0
310,311,306,305,0
310,313,304,303,0
309,311,304,302,0
307,303,305,301,0
305,294,308,299,0
303,288,310,298,0
302,285,311,298,0
302,286,310,297,0
303,291,308,297,0
303,299,307,297,0
304,312,306,298,0
304,323,305,300,0
304,326,305,302,0
305,320,305,303,0
305,311,305,303,0
306,303,304,302,0
306,298,301,300,0
306,296,298,299,0
306,293,298,297,0
306,288,299,297,0
307,285,302,299,0
308,286,303,302,0
308,289,304,305,0
309,292,305,307,0
310,295,305,309,0
311,303,306,311,0
313,320,305,313,0
314,345,305,314,0
316,374,306,315,0
316,395,307,315,0
315,394,309,313,0
312,371,311,310,0
308,341,312,308,0
305,319,312,307,0
303,311,312,306,0
303,309,312,305,0
302,306,312,305,0
302,303,312,305,0
304,298,312,307,0
305,294,312,310,0
307,298,312,313,0
309,314,311,315,0
311,339,310,315,0
313,368,309,315,0
313,394,308,315,0
312,405,307,314,0
309,391,306,312,0
306,355,305,310,0
304,313,305,307,0
303,275,306,304,0
302,252,306,302,0
302,240,307,301,0
303,235,308,300,0
304,236,308,300,0
306,239,308,301,0
309,245,308,302,0
311,252,308,304,0
312,263,307,306,0
313,272,306,307,0
312,279,304,307,0
311,282,302,308,0
310,281,301,308,0
310,277,300,308,0
310,272,301,307,0
311,267,302,307,0
313,266,304,307,0
315,274,305,308,0
316,287,305,308,0
316,301,305,309,0
315,311,305,310,0
315,315,305,311,0
316,310,304,312,0
315,305,303,313,0
314,304,302,313,0
313,307,301,313,0
311,315,301,312,0
309,322,302,312,0
307,329,303,312,0
306,335,304,313,0
306,342,306,314,0
307,351,309,315,0
309,364,310,315,0
309,377,310,314,0
310,383,310,311,0
310,380,308,309,0
309,365,306,307,0
308,339,305,304,0
307,309,305,303,0
307,283,306,303,0
306,265,306,303,0
305,254,306,303,0
305,248,305,303,0
304,247,304,303,0
304,249,301,302,0
303,255,298,301,0
302,262,295,299,0
301,271,295,298,0
301,285,295,299,0
302,301,297,301,0
304,316,301,304,0
305,328,305,307,0
306,338,308,309,0
307,342,309,310,0
308,335,309,310,0
308,322,310,309,0
309,313,309,310,0
309,307,307,310,0
308,301,304,310,0
306,294,302,308,0
304,289,302,307,0
303,289,301,305,0
302,293,300,305,0
303,300,299,305,0
303,306,300,306,0
304,309,301,307,0
305,310,303,309,0
306,310,305,313,0
308,310,308,316,0
310,311,310,319,0
311,314,310,320,0
313,316,310,319,0
314,322,309,319,0
316,328,309,318,0
316,330,308,315,0
316,326,306,312,0
314,319,304,308,0
311,313,302,305,0
309,308,301,304,0
307,304,301,304,0
305,298,301,304,0
304,296,302,303,0
305,306,302,303,0
306,332,301,304,0
308,364,301,305,0
310,389,301,307,0
311,394,300,309,0
311,376,301,311,0
312,337,301,313,0
312,293,303,314,0
311,260,306,314,0
310,240,310,313,0
309,234,313,309,0
308,235,314,306,0
306,240,313,302,0
305,247,309,299,0
304,256,305,298,0
303,268,301,298,0
303,280,299,299,0
303,292,299,301,0
304,305,299,303,0
306,318,300,305,0
306,328,301,306,0
305,331,302,307,0
303,326,303,307,0
302,316,304,307,0
301,309,305,309,0
302,309,306,311,0
304,313,307,312,0
305,315,308,311,0
305,312,310,310,0
306,308,312,309,0
307,306,313,309,0
308,308,313,309,0
309,316,311,310,0
308,323,308,310,0
307,322,303,308,0
304,310,299,306,0
303,297,298,303,0
303,288,300,303,0
304,283,302,304,0
305,280,304,306,0
307,278,304,308,0
307,277,303,309,0
308,279,302,310,0
308,283,302,310,0
307,288,304,310,0
307,294,307,310,0
305,299,309,310,0
305,303,310,311,0
304,307,310,311,0
303,314,309,312,0
302,322,307,314,0
302,331,305,317,0
302,340,304,319,0
302,345,305,320,0
303,345,307,320,0
304,341,307,319,0
304,332,308,318,0
305,324,308,318,0
304,320,308,315,0
304,321,308,314,0
304,324,308,312,0
304,325,308,311,0
304,323,308,311,0
304,318,307,311,0
304,316,307,311,0
305,316,307,311,0
305,315,306,311,0
305,313,304,309,0
305,307,303,308,0
305,302,302,306,0
304,302,300,304,0
305,307,299,303,0
307,312,299,301,0
308,312,299,301,0
309,306,299,301,0
309,303,301,301,0
309,306,306,301,0
308,308,311,302,0
307,306,315,302,0
307,302,317,304,0
306,297,317,305,0
307,289,315,306,0
307,281,312,308,0
308,273,310,308,0
310,267,307,308,0
311,263,304,307,0
312,259,303,305,0
312,253,302,304,0
311,243,302,302,0
311,237,303,301,0
311,240,305,300,0
311,255,306,300,0
311,277,306,300,0
310,302,305,301,0
308,324,304,302,0
306,337,304,304,0
304,341,304,305,0
303,337,306,307,0
302,332,308,307,0
303,329,310,306,0
304,330,310,305,0
307,335,310,303,0
310,335,309,301,0
309,324,307,299,0
307,307,305,299,0
304,293,305,299,0
300,285,304,298,0
297,282,303,298,0
295,283,303,297,0
295,286,302,296,0
296,290,301,296,0
298,294,300,296,0
300,296,299,298,0
302,297,298,299,0
303,298,298,301,0
304,300,298,303,0
305,301,298,304,0
305,302,297,304,0
304,302,297,305,0
304,305,297,306,0
305,310,298,307,0
306,316,299,308,0
306,324,301,310,0
306,331,303,312,0
305,335,307,313,0
304,334,311,314,0
303,336,314,315,0
304,343,316,315,0
304,350,315,314,0
304,356,314,314,0
304,361,312,313,0
305,362,311,313,0
305,358,309,314,0
305,349,308,316,0
305,336,307,316,0
305,321,306,315,0
304,305,305,313,0
303,289,304,310,0
303,276,303,308,0
304,269,303,306,0
306,267,303,306,0
308,267,304,307,0
311,268,304,309,0
312,269,305,311,0
313,273,304,313,0
314,283,303,315,0
315,298,302,316,0
314,311,302,317,0
313,312,302,316,0
310,301,303,315,0
308,286,305,313,0
307,275,309,312,0
305,273,312,310,0
303,277,315,309,0
303,282,316,308,0
302,287,316,307,0
302,294,314,305,0
302,302,311,303,0
301,308,307,301,0
301,310,305,300,0
301,306,304,301,0
302,299,305,303,0
303,295,306,306,0
304,295,307,309,0
305,296,309,312,0
305,301,310,313,0
305,309,310,314,0
305,317,310,313,0
305,321,309,313,0
305,320,308,312,0
305,317,307,311,0
305,311,307,311,0
305,303,307,310,0
306,296,307,311,0
307,292,307,310,0
310,293,306,311,0
312,300,306,311,0
313,312,306,312,0
313,322,305,311,0
311,332,304,310,0
310,343,303,310,0
308,351,302,309,0
308,354,301,309,0
307,353,301,309,0
306,347,302,311,0
307,337,302,312,0
306,324,302,311,0
306,316,302,310,0
307,314,301,308,0
309,315,299,307,0
309,311,297,306,0
310,299,297,304,0
310,279,299,304,0
310,257,301,303,0
310,239,302,302,0
310,231,303,301,0
311,236,303,302,0
310,253,302,303,0
308,276,300,303,0
305,298,299,302,0
303,312,300,302,0
302,319,303,302,0
303,321,307,304,0
304,319,309,305,0
304,314,310,308,0
305,308,309,310,0
306,301,307,312,0
307,295,305,312,0
308,291,303,312,0
309,289,301,311,0
309,289,298,309,0
309,290,295,305,0
308,292,291,302,0
305,294,288,298,0
303,296,286,294,0
300,297,288,292,0
299,299,294,293,0
300,305,302,297,0
301,316,310,301,0
303,326,315,305,0
305,334,318,308,0
306,334,318,310,0
307,325,319,311,0
307,311,318,312,0
307,297,317,313,0
308,286,316,314,0
309,282,315,316,0
310,282,314,317,0
312,285,314,317,0
312,290,315,317,0
312,292,315,316,0
311,292,316,314,0
310,289,315,312,0
309,286,315,309,0
309,283,314,305,0
310,284,313,302,0
310,291,312,301,0
310,302,312,301,0
308,310,311,301,0
306,315,310,300,0
304,315,308,299,0
302,308,307,298,0
301,299,305,296,0
299,294,304,295,0
299,293,303,295,0
298,294,304,297,0
299,296,305,301,0
300,303,305,305,0
302,313,306,309,0
304,326,307,313,0
308,339,308,317,0
311,350,308,319,0
314,349,309,320,0
316,338,309,319,0
317,319,311,318,0
317,297,314,317,0
315,281,315,315,0
314,277,316,314,0
312,285,315,313,0
311,297,312,311,0
309,306,308,310,0
306,310,307,308,0
304,308,307,307,0
302,300,308,306,0
301,293,309,306,0
301,290,312,307,0
301,294,313,308,0
302,299,315,310,0
303,303,315,311,0
304,305,314,312,0
306,304,313,312,0
307,303,313,313,0
308,304,314,313,0
308,307,315,313,0
308,309,315,312,0
309,312,316,312,0
310,315,317,311,0
310,318,318,310,0
309,318,317,308,0
308,311,315,306,0
306,297,311,302,0
303,283,307,300,0
301,275,304,298,0
301,274,302,298,0
301,278,302,300,0
301,282,303,301,0
301,285,303,302,0
301,290,304,303,0
302,296,306,305,0
303,302,308,305,0
303,305,308,306,0
303,301,307,305,0
302,291,306,303,0
301,285,306,302,0
302,283,306,302,0
303,287,307,303,0
304,293,309,305,0
306,304,310,307,0
307,315,311,309,0
307,327,314,310,0
306,336,317,310,0
305,339,319,311,0
304,335,320,311,0
305,326,319,311,0
306,316,317,312,0
307,305,315,312,0
308,294,314,313,0
308,286,314,314,0
308,281,315,314,0
308,282,317,315,0
306,288,319,314,0
305,299,319,312,0
304,317,320,311,0
305,339,320,310,0
307,358,320,310,0
308,368,319,310,0
308,365,318,310,0
307,351,317,309,0
305,333,316,310,0
304,317,316,312,0
304,306,316,315,0
305,298,317,317,0
307,292,317,319,0
309,289,316,320,0
310,287,315,319,0
310,283,312,315,0
309,280,309,309,0
308,279,306,304,0
306,281,302,299,0
305,285,298,294,0
304,289,295,290,0
302,291,293,285,0
301,289,292,282,0
298,286,294,280,0
297,284,298,280,0
296,284,303,282,0
297,285,309,286,0
300,289,314,292,0
302,298,318,299,0
304,306,319,304,0
305,313,319,308,0
306,317,319,309,0
306,321,319,310,0
306,323,318,311,0
306,324,317,311,0
306,324,314,310,0
305,325,313,310,0
304,325,312,309,0
304,323,312,309,0
304,323,311,309,0
303,323,312,310,0
303,325,311,312,0
304,329,311,313,0
306,332,312,314,0
308,327,313,314,0
308,307,314,313,0
307,280,313,311,0
306,258,312,310,0
306,249,312,309,0
307,256,313,311,0
308,279,314,313,0
309,312,314,316,0
308,345,313,318,0
308,368,311,319,0
308,382,309,320,0
308,386,305,319,0
306,380,302,317,0
303,367,301,315,0
300,351,302,313,0
299,330,305,313,0
299,306,307,312,0
298,285,309,311,0
298,270,308,309,0
297,263,306,308,0
298,260,304,307,0
298,259,303,304,0
299,260,304,303,0
299,265,305,301,0
299,273,306,300,0
298,281,307,299,0
298,284,307,298,0
297,284,307,298,0
298,282,307,299,0
299,286,308,300,0
302,298,309,303,0
304,315,310,306,0
306,329,310,309,0
306,337,310,311,0
305,339,310,312,0
305,335,310,312,0
305,326,309,311,0
306,318,309,310,0
307,313,307,310,0
308,311,306,310,0
309,311,306,310,0
310,312,306,310,0
311,314,306,310,0
310,317,307,310,0
309,319,307,309,0
308,320,307,308,0
307,320,306,307,0
308,321,306,306,0
309,323,307,304,0
311,325,307,303,0
314,325,307,303,0
317,326,307,303,0
317,327,307,303,0
315,330,307,303,0
312,335,309,302,0
309,339,311,300,0
306,343,313,298,0
306,353,314,298,0
307,366,315,298,0
309,371,315,300,0
311,358,314,302,0
311,333,313,305,0
310,307,313,308,0
310,285,313,310,0
310,268,314,311,0
309,256,315,311,0
309,249,315,311,0
309,247,316,310,0
310,249,315,310,0
310,251,315,311,0
310,251,314,312,0
310,251,312,312,0
309,251,310,312,0
308,250,308,311,0
308,252,306,309,0
309,258,304,308,0
308,269,303,305,0
307,282,302,303,0
306,294,302,301,0
306,303,301,300,0
305,309,300,299,0
306,312,299,299,0
307,313,299,299,0
308,315,301,301,0
310,320,304,302,0
311,327,309,305,0
313,329,312,306,0
313,320,313,306,0
312,307,312,306,0
312,296,310,306,0
312,289,308,306,0
311,288,308,307,0
312,295,309,307,0
312,307,310,308,0
311,321,311,308,0
310,335,309,308,0
310,351,309,307,0
309,366,308,307,0
309,371,308,307,0
308,363,307,306,0
307,344,306,305,0
305,322,305,303,0
305,305,304,302,0
305,294,304,301,0
304,290,303,301,0
303,289,303,301,0
301,291,304,301,0
300,297,304,301,0
301,310,305,301,0
303,327,306,302,0
304,342,308,304,0
306,350,310,305,0
307,346,310,305,0
306,336,310,306,0
306,326,309,307,0
307,320,308,306,0
308,314,305,306,0
307,309,302,306,0
306,305,299,306,0
306,302,297,306,0
306,297,297,306,0
307,285,299,307,0
307,272,300,308,0
309,263,301,308,0
310,262,302,309,0
312,266,305,309,0
312,273,309,309,0
311,280,314,309,0
309,287,318,309,0
308,294,321,309,0
307,301,322,309,0
306,306,320,309,0
305,310,316,309,0
303,309,312,307,0
302,306,308,305,0
300,302,305,304,0
299,301,304,305,0
299,301,304,306,0
300,305,305,308,0
301,312,307,309,0
302,318,309,310,0
303,319,310,310,0
303,314,310,309,0
304,305,309,308,0
305,295,306,307,0
305,286,303,305,0
306,279,300,303,0
306,275,297,302,0
306,276,296,301,0
307,283,297,302,0
308,291,298,304,0
310,300,298,308,0
311,310,298,309,0
310,321,298,309,0
309,330,299,309,0
308,337,301,308,0
307,340,304,307,0
306,339,307,306,0
307,334,307,304,0
307,333,308,304,0
309,338,310,303,0
309,342,311,302,0
308,339,311,303,0
307,331,311,304,0
306,318,310,305,0
305,303,311,306,0
304,292,311,309,0
303,287,313,312,0
302,286,313,314,0
301,289,313,316,0
301,296,313,318,0
301,309,311,319,0
301,323,310,319,0
301,337,308,318,0
302,345,306,316,0
302,343,305,314,0
303,332,304,312,0
303,319,304,311,0
304,310,304,310,0
305,306,304,310,0
306,306,303,309,0
306,309,303,308,0
307,311,302,307,0
307,310,302,305,0
307,306,301,304,0
307,299,301,303,0
306,290,303,303,0
305,282,307,303,0
305,279,312,304,0
304,279,316,304,0
303,278,317,303,0
301,273,315,301,0
300,270,313,300,0
300,274,311,299,0
300,284,310,298,0
299,296,309,296,0
299,306,307,294,0
299,313,305,293,0
299,317,303,293,0
299,319,302,293,0
301,319,301,293,0
302,319,300,294,0
303,315,299,294,0
303,306,298,296,0
303,296,297,297,0
302,290,297,300,0
303,289,299,303,0
304,290,301,305,0
305,295,302,308,0
306,302,303,311,0
307,310,304,313,0
308,318,304,315,0
308,326,303,315,0
307,337,302,315,0
307,352,301,314,0
306,365,302,314,0
306,371,304,312,0
306,364,306,310,0
305,340,308,309,0
305,311,307,308,0
305,287,306,307,0
305,273,304,308,0
304,269,302,307,0
304,270,301,308,0
305,275,301,308,0
306,284,300,308,0
307,294,299,309,0
308,305,299,310,0
310,318,300,311,0
311,328,300,311,0
311,328,300,311,0
312,318,299,311,0
311,302,297,312,0
310,285,296,312,0
308,269,297,311,0
308,257,300,310,0
309,255,303,308,0
309,263,306,308,0
308,278,307,307,0
305,292,307,306,0
302,300,304,304,0
299,301,300,303,0
297,299,296,303,0
296,297,292,303,0
298,298,290,304,0
300,302,290,305,0
303,306,293,307,0
306,310,297,310,0
308,312,300,313,0
310,314,302,313,0
311,318,304,313,0
312,326,306,312,0
312,337,307,311,0
311,346,307,310,0
310,344,307,308,0
308,333,306,306,0
308,318,304,306,0
309,307,301,307,0
311,304,300,308,0
313,309,299,310,0
314,318,299,311,0
313,320,300,311,0
310,317,303,311,0
307,313,305,310,0
305,311,307,310,0
306,310,307,310,0
306,307,307,310,0
306,299,305,309,0
305,289,303,310,0
305,282,302,310,0
305,279,301,309,0
306,281,299,308,0
307,283,297,307,0
308,284,296,306,0
309,283,296,305,0
310,287,297,304,0
311,298,299,305,0
313,316,301,305,0
314,333,302,306,0
314,344,303,306,0
312,342,302,303,0
308,331,301,300,0
305,321,300,299,0
303,315,300,299,0
303,310,300,299,0
302,303,300,299,0
303,294,299,298,0
302,286,299,298,0
302,282,298,297,0
302,281,297,298,0
302,283,296,299,0
301,287,296,301,0
301,291,295,302,0
301,296,294,303,0
301,300,293,302,0
301,303,292,302,0
302,306,291,301,0
303,311,292,302,0
304,316,296,304,0
305,319,300,306,0
306,316,304,308,0
307,310,306,308,0
309,307,308,309,0
312,311,309,310,0
314,321,309,311,0
316,330,308,311,0
316,331,305,310,0
314,327,301,309,0
312,320,298,308,0
311,312,296,307,0
309,307,295,307,0
308,305,297,307,0
307,306,299,307,0
308,310,302,309,0
308,313,305,311,0
308,312,306,312,0
307,308,307,313,0
306,305,306,313,0
305,303,304,311,0
302,299,300,308,0
300,295,295,306,0
298,290,292,305,0
297,286,290,304,0
297,280,290,305,0
299,278,293,306,0
302,281,297,309,0
304,289,301,311,0
305,297,305,312,0
306,308,307,313,0
307,321,309,313,0
308,332,309,314,0
309,339,307,314,0
311,340,305,315,0
312,333,304,315,0
312,321,302,314,0
310,305,300,312,0
308,290,298,309,0
306,276,298,306,0
305,265,300,304,0
304,259,302,303,0
305,258,304,304,0
307,262,305,305,0
309,269,305,306,0
311,277,305,307,0
311,287,304,308,0
311,300,305,309,0
312,314,306,311,0
313,327,306,312,0
313,338,307,313,0
314,347,307,313,0
314,349,307,312,0
313,341,305,310,0
311,329,304,307,0
310,321,302,306,0
310,323,301,306,0
310,330,301,307,0
311,341,302,308,0
312,351,302,308,0
312,355,301,307,0
311,348,300,307,0
310,336,300,306,0
310,324,300,306,0
311,318,300,306,0
311,316,299,306,0
310,317,299,306,0
308,316,300,306,0
305,312,302,305,0
303,306,305,305,0
302,304,307,305,0
303,305,309,307,0
304,309,310,310,0
307,310,311,313,0
309,304,310,316,0
310,294,309,318,0
310,285,308,318,0
311,279,305,316,0
311,277,304,315,0
312,277,303,313,0
312,278,302,311,0
311,278,303,309,0
311,281,304,307,0
309,285,304,306,0
307,290,304,304,0
305,296,302,303,0
304,303,301,302,0
303,308,300,302,0
302,306,300,302,0
302,301,301,302,0
302,297,302,303,0
303,297,302,303,0
303,303,302,303,0
304,308,302,302,0
304,310,301,301,0
303,308,300,301,0
303,308,300,302,0
304,308,300,303,0
304,308,299,304,0
305,307,298,303,0
305,304,296,302,0
306,299,294,301,0
307,292,291,298,0
307,287,288,297,0
309,284,287,297,0
311,285,288,298,0
313,291,290,300,0
315,302,294,303,0
316,315,300,306,0
316,330,305,309,0
316,344,310,311,0
315,355,312,312,0
313,357,313,312,0
311,351,312,311,0
309,347,310,309,0
309,347,308,308,0
308,343,306,307,0
307,331,304,306,0
306,314,303,305,0
306,300,302,306,0
305,294,301,308,0
305,294,302,309,0
304,296,304,311,0
303,299,307,311,0
303,303,309,311,0
303,307,311,310,0
304,313,312,310,0
305,320,311,310,0
306,326,309,310,0
306,328,308,309,0
306,326,307,309,0
305,324,308,308,0
305,326,308,308,0
306,331,309,308,0
306,333,309,307,0
306,329,307,306,0
304,316,306,304,0
303,295,303,301,0
301,277,302,299,0
300,268,301,299,0
300,270,301,298,0
298,277,302,299,0
297,282,303,300,0
295,286,303,301,0
294,289,304,301,0
294,293,304,302,0
295,299,305,302,0
297,306,305,304,0
300,313,306,306,0
302,320,306,308,0
305,328,307,310,0
308,336,307,313,0
309,344,306,316,0
311,351,306,318,0
311,351,307,319,0
310,343,308,319,0
309,330,310,317,0
309,315,313,316,0
310,301,316,314,0
311,288,317,312,0
312,281,318,309,0
312,281,317,307,0
312,287,315,305,0
311,301,312,304,0
311,319,311,304,0
312,338,311,305,0
313,355,311,307,0
313,365,311,308,0
312,363,310,307,0
311,353,308,307,0
309,339,307,305,0
307,318,306,304,0
305,295,306,302,0
303,277,306,301,0
302,269,307,300,0
303,272,308,301,0
303,284,310,302,0
305,299,311,303,0
306,311,312,304,0
308,313,311,306,0
308,308,310,306,0
308,298,308,306,0
307,288,306,306,0
307,280,305,307,0
306,278,305,307,0
306,279,304,307,0
305,285,304,306,0
305,290,304,306,0
304,295,305,305,0
305,303,306,305,0
306,315,308,304,0
307,329,308,304,0
308,343,306,304,0
308,349,304,303,0
307,347,301,303,0
307,340,300,304,0
308,331,301,306,0
310,323,304,309,0
312,320,309,313,0
314,320,313,316,0
314,316,314,317,0
313,306,314,318,0
312,291,313,318,0
312,278,312,317,0
311,273,311,315,0
310,275,307,315,0
308,285,302,314,0
306,296,299,315,0
305,307,298,316,0
304,316,299,316,0
302,322,301,315,0
300,327,304,315,0
300,332,308,315,0
301,334,312,315,0
301,328,314,315,0
302,319,315,315,0
302,314,315,315,0
304,315,314,316,0
305,321,315,316,0
307,323,314,315,0
308,317,314,314,0
308,305,314,313,0
308,290,313,313,0
308,276,311,310,0
307,265,309,307,0
306,262,307,305,0
306,264,305,304,0
306,269,304,303,0
306,277,303,303,0
306,286,302,305,0
305,293,300,306,0
305,299,298,306,0
305,304,297,305,0
305,308,298,304,0
304,310,302,304,0
305,310,306,306,0
306,305,309,309,0
306,301,312,312,0
307,302,314,314,0
308,307,313,314,0
309,313,312,313,0
310,321,310,313,0
310,324,309,311,0
309,314,308,310,0
308,299,307,309,0
306,288,305,309,0
305,288,303,309,0
305,296,302,310,0
304,305,300,310,0
303,311,299,311,0
302,310,299,312,0
302,306,302,313,0
303,304,306,315,0
305,307,312,317,0
307,316,316,319,0
309,329,317,320,0
308,342,316,320,0
306,348,314,320,0
304,343,311,319,0
303,333,310,319,0
302,325,308,318,0
301,318,308,317,0
301,313,307,315,0
301,310,306,314,0
302,306,305,313,0
302,302,304,312,0
303,299,301,310,0
305,298,298,309,0
307,301,296,308,0
309,305,297,309,0
310,313,299,311,0
311,326,300,314,0
311,340,301,316,0
310,349,302,316,0
308,350,304,315,0
307,340,306,313,0
306,317,309,311,0
306,289,310,309,0
306,266,310,308,0
307,250,308,307,0
305,241,304,306,0
303,238,301,306,0
302,242,300,305,0
300,255,301,305,0
300,275,301,306,0
300,297,302,308,0
301,316,303,309,0
302,326,304,311,0
303,330,304,313,0
304,333,304,314,0
304,337,304,316,0
305,342,304,317,0
304,343,302,317,0
304,339,301,317,0
303,335,301,315,0
304,330,301,314,0
305,325,301,313,0
306,319,302,312,0
306,307,304,311,0
306,293,306,311,0
307,283,308,311,0
310,278,310,313,0
314,279,312,313,0
317,282,313,315,0
321,288,313,315,0
322,291,312,315,0
319,290,309,313,0
315,289,306,311,0
309,289,304,309,0
304,287,300,306,0
300,287,297,303,0
297,290,296,301,0
296,298,298,301,0
295,308,302,302,0
296,318,305,304,0
296,322,308,307,0
297,320,309,310,0
297,317,310,311,0
298,314,310,312,0
298,314,312,313,0
298,316,313,314,0
300,317,315,315,0
301,316,315,316,0
302,315,314,315,0
303,317,312,314,0
304,326,311,313,0
305,339,309,312,0
307,351,308,311,0
308,356,306,310,0
307,349,305,309,0
306,329,303,308,0
304,301,303,307,0
303,274,304,307,0
302,252,306,307,0
302,242,309,307,0
303,247,311,307,0
303,264,312,306,0
302,284,310,305,0
300,300,308,305,0
299,309,304,304,0
297,309,301,304,0
295,305,299,303,0
294,299,298,301,0
295,295,298,300,0
297,294,301,300,0
299,294,305,301,0
302,291,308,302,0
305,288,311,303,0
306,287,312,302,0
307,291,312,302,0
307,300,310,301,0
306,308,308,300,0
306,310,306,299,0
306,306,304,299,0
307,302,304,301,0
309,304,305,304,0
310,312,305,306,0
312,323,306,308,0
314,333,305,310,0
315,335,304,311,0
314,328,302,311,0
313,313,301,310,0
310,298,300,309,0
307,289,301,308,0
303,288,304,307,0
301,290,306,307,0
300,292,309,307,0
300,294,311,307,0
301,295,312,307,0
303,296,311,308,0
304,298,311,309,0
304,302,311,310,0
305,307,311,311,0
305,314,310,311,0
305,318,307,311,0
305,320,306,312,0
305,320,305,312,0
305,317,304,311,0
304,314,305,311,0
303,315,305,310,0
304,324,305,309,0
304,337,305,308,0
305,350,303,307,0
305,354,300,305,0
304,342,298,303,0
302,317,297,301,0
301,292,300,301,0
300,274,303,302,0
301,265,306,304,0
302,262,306,304,0
304,269,306,305,0
305,283,305,305,0
306,299,304,305,0
306,312,303,304,0
306,314,302,304,0
306,304,302,304,0
305,289,303,306,0
305,275,304,307,0
305,266,305,308,0
304,263,306,309,0
304,265,307,310,0
303,272,308,310,0
302,281,310,311,0
301,290,310,311,0
300,300,309,311,0
299,308,308,311,0
301,313,307,311,0
302,315,307,311,0
303,309,306,312,0
303,303,306,313,0
305,301,306,315,0
307,306,306,317,0
308,315,306,318,0
307,324,305,319,0
306,331,304,319,0
305,334,304,320,0
304,329,305,319,0
304,319,305,319,0
305,310,305,318,0
305,305,305,317,0
304,303,304,316,0
303,304,302,313,0
302,308,300,310,0
301,317,298,307,0
301,329,297,306,0
301,343,299,305,0
302,352,301,306,0
303,348,305,308,0
304,333,308,310,0
305,314,311,313,0
306,302,313,315,0
308,295,314,316,0
309,294,315,316,0
309,295,313,315,0
307,297,311,311,0
306,300,308,307,0
306,305,305,304,0
306,310,303,301,0
306,315,302,300,0
305,319,302,298,0
305,321,302,298,0
304,321,303,299,0
303,322,305,302,0
303,323,308,307,0
305,323,312,311,0
307,323,316,314,0
309,325,318,315,0
310,321,319,316,0
309,314,318,316,0
309,308,317,316,0
308,305,316,315,0
307,302,314,313,0
304,296,312,311,0
301,289,311,308,0
299,285,311,306,0
298,283,312,306,0
297,281,312,306,0
296,277,311,306,0
296,273,310,306,0
297,270,309,306,0
299,270,308,305,0
301,271,306,304,0
303,276,305,304,0
304,283,304,305,0
305,290,302,305,0
307,295,300,306,0
308,298,298,307,0
308,302,296,308,0
307,307,295,308,0
305,310,295,306,0
303,308,297,305,0
302,301,299,303,0
302,291,301,303,0
303,284,303,302,0
304,279,305,302,0
305,279,307,303,0
306,286,310,303,0
306,301,314,303,0
305,320,317,303,0
305,338,319,303,0
305,347,319,302,0
304,343,317,301,0
304,329,314,300,0
305,314,311,300,0
305,304,310,301,0
307,300,309,302,0
308,298,310,303,0
310,299,310,305,0
311,299,310,307,0
312,298,310,308,0
311,297,309,309,0
309,296,308,309,0
306,296,307,308,0
305,295,307,308,0
305,297,308,308,0
305,302,309,308,0
307,312,309,308,0
308,323,308,308,0
309,328,307,307,0
309,324,306,306,0
309,316,306,305,0
310,314,305,304,0
311,318,304,305,0
313,328,304,307,0
314,331,304,308,0
314,317,303,308,0
310,292,303,307,0
306,272,303,307,0
303,265,303,309,0
301,267,304,311,0
300,271,305,314,0
300,272,305,315,0
300,274,305,314,0
300,278,306,313,0
301,285,308,312,0
302,292,310,311,0
304,298,311,310,0
306,300,312,308,0
308,298,311,307,0
309,295,308,305,0
309,291,304,304,0
310,292,301,303,0
309,294,299,303,0
309,298,298,302,0
307,301,298,302,0
306,303,300,301,0
305,305,303,302,0
305,308,306,303,0
306,310,309,305,0
308,310,311,306,0
309,310,310,307,0
309,307,310,307,0
309,304,310,307,0
309,302,309,308,0
310,303,309,309,0
310,308,310,310,0
310,317,309,310,0
310,327,308,310,0
310,335,307,309,0
310,338,306,307,0
309,337,305,306,0
307,331,304,306,0
306,322,304,306,0
305,313,303,306,0
305,305,302,307,0
306,299,301,306,0
307,300,299,305,0
308,308,298,304,0
310,322,298,303,0
311,344,298,304,0
313,365,300,304,0
314,374,301,304,0
313,364,302,303,0
311,340,304,301,0
309,313,306,300,0
307,289,309,301,0
308,272,311,302,0
308,262,313,304,0
309,260,314,305,0
309,270,315,307,0
310,291,314,309,0
311,316,313,310,0
311,343,311,312,0
311,359,309,312,0
309,356,307,311,0
305,341,305,309,0
302,323,305,308,0
300,308,305,307,0
300,298,306,307,0
300,288,306,307,0
300,278,306,306,0
301,266,306,304,0
302,256,305,301,0
303,251,303,298,0
304,250,301,295,0
306,255,301,294,0
308,265,302,294,0
310,277,305,295,0
312,290,307,297,0
314,301,308,300,0
316,310,308,303,0
315,315,307,304,0
315,317,306,305,0
313,318,306,306,0
311,323,307,307,0
309,332,309,308,0
308,342,312,309,0
308,348,314,310,0
308,344,314,310,0
307,331,314,310,0
306,314,313,309,0
304,296,313,308,0
303,283,313,307,0
302,277,313,307,0
302,280,313,308,0
303,288,313,309,0
303,299,311,309,0
303,313,310,309,0
304,327,307,308,0
304,338,305,308,0
304,342,304,307,0
305,338,304,308,0
306,330,305,309,0
307,324,306,312,0
308,327,307,315,0
309,336,309,317,0
311,344,311,319,0
313,344,313,320,0
313,333,313,318,0
311,316,312,316,0
309,301,312,313,0
307,293,311,309,0
304,286,309,306,0
303,276,307,302,0
302,269,305,300,0
302,267,303,299,0
303,269,301,299,0
303,271,298,300,0
303,273,295,300,0
304,274,292,301,0
304,274,290,301,0
304,277,289,301,0
303,281,291,302,0
303,285,296,303,0
302,289,302,305,0
301,293,306,307,0
301,294,309,309,0
303,294,311,310,0
305,293,311,310,0
307,292,310,309,0
310,291,310,309,0
313,295,309,312,0
315,306,309,314,0
317,325,309,316,0
317,347,308,317,0
315,363,306,316,0
312,364,303,314,0
307,351,300,311,0
303,333,299,310,0
301,316,300,309,0
300,305,301,308,0
300,299,303,308,0
301,295,305,308,0
302,293,305,308,0
303,293,305,307,0
304,291,305,307,0
304,291,305,306,0
305,291,305,306,0
305,293,305,305,0
305,298,304,305,0
305,303,304,306,0
306,309,303,307,0
307,319,302,308,0
308,332,301,308,0
309,348,299,308,0
312,364,300,309,0
314,375,302,310,0
315,376,305,310,0
315,367,308,311,0
314,350,310,311,0
313,330,313,312,0
311,309,315,311,0
310,289,316,310,0
310,271,315,309,0
310,259,314,309,0
310,255,312,310,0
309,258,310,311,0
309,265,308,312,0
309,275,307,313,0
309,286,306,314,0
310,295,307,314,0
311,302,307,314,0
312,305,305,313,0
311,304,303,312,0
311,300,303,310,0
311,296,304,309,0
310,293,305,308,0
308,292,305,307,0
307,292,303,306,0
306,292,301,304,0
305,292,298,303,0
304,292,294,301,0
302,292,291,300,0
300,292,289,300,0
299,292,290,300,0
299,293,294,300,0
300,296,299,303,0
302,302,304,306,0
304,310,308,310,0
306,317,310,312,0
308,321,312,314,0
310,318,313,314,0
312,310,314,313,0
314,304,315,313,0
314,303,316,312,0
314,310,314,312,0
314,324,313,312,0
314,333,310,310,0
312,333,308,308,0
310,328,306,307,0
309,320,303,306,0
308,310,303,307,0
307,300,304,308,0
306,293,308,309,0
304,290,312,310,0
302,293,316,310,0
301,302,318,311,0
301,315,317,311,0
302,327,315,311,0
303,336,312,310,0
304,337,308,310,0
305,331,305,308,0
305,325,302,308,0
306,319,301,309,0
306,310,301,311,0
307,306,304,312,0
307,313,306,313,0
307,323,308,314,0
306,327,309,313,0
305,325,309,313,0
303,319,308,312,0
302,308,305,313,0
300,297,303,313,0
300,289,301,314,0
300,285,299,313,0
299,286,299,312,0
300,291,299,312,0
301,297,300,313,0
302,299,301,311,0
302,298,303,310,0
301,298,305,308,0
301,298,309,308,0
302,299,314,307,0
304,302,317,308,0
305,307,317,309,0
305,312,314,309,0
304,317,310,310,0
304,318,306,309,0
304,311,304,309,0
306,303,304,309,0
307,294,304,310,0
309,288,303,310,0
309,285,302,309,0
307,284,300,308,0
305,283,299,306,0
304,286,300,305,0
304,289,301,305,0
304,293,302,304,0
303,298,303,303,0
302,304,304,303,0
301,311,304,303,0
301,315,305,303,0
301,314,306,303,0
302,307,307,303,0
302,299,309,304,0
304,294,310,307,0
305,292,311,309,0
307,291,311,311,0
309,291,311,312,0
311,296,309,312,0
313,309,308,312,0
315,323,306,312,0
315,329,303,311,0
314,321,299,310,0
313,301,298,310,0
312,281,299,310,0
310,270,301,311,0
310,273,303,312,0
310,285,305,312,0
309,297,307,312,0
309,307,311,313,0
309,314,314,312,0
308,313,315,309,0
306,305,315,307,0
305,295,313,305,0
303,286,310,304,0
302,280,309,302,0
302,275,307,300,0
300,275,306,297,0
299,279,306,296,0
299,287,307,297,0
300,296,309,298,0
302,306,310,300,0
304,314,311,302,0
305,319,312,303,0
307,324,313,305,0
309,330,315,308,0
310,337,316,312,0
312,342,317,314,0
314,346,318,316,0
315,349,318,318,0
315,346,317,319,0
314,335,315,319,0
312,324,313,318,0
309,318,310,317,0
306,319,307,316,0
305,328,305,315,0
305,340,303,314,0
305,347,303,313,0
305,349,303,313,0
304,343,304,312,0
303,329,305,312,0
302,314,305,312,0
