307,319,305,318,1
307,319,301,318,1
306,318,297,317,1
304,316,294,315,1
304,312,293,313,1
304,310,295,313,1
305,310,298,316,1
305,310,303,318,1
306,308,306,317,1
306,306,308,315,1
306,303,308,311,1
305,301,308,307,1
302,299,308,303,1
300,298,308,301,1
300,300,308,302,1
301,303,309,307,1
303,307,310,313,1
305,311,311,319,1
307,312,311,323,1
308,312,310,323,1
309,310,308,322,1
309,309,306,319,1
309,308,305,316,1
309,307,304,313,1
311,307,302,312,1
311,307,302,311,1
311,307,301,310,1
309,308,300,310,1
307,308,299,309,1
305,308,298,308,1
305,308,298,307,1
305,308,299,307,1
306,308,300,308,1
308,308,302,308,1
309,308,302,309,1
311,309,303,310,1
312,309,304,312,1
313,308,305,314,1
315,308,305,317,1
317,309,305,321,1
318,311,305,325,1
319,313,304,328,1
320,314,304,329,1
318,313,303,330,1
315,311,304,329,1
312,308,305,328,1
310,305,306,325,1
309,302,307,322,1
307,300,307,318,1
305,299,306,314,1
304,300,305,310,1
304,302,304,306,1
304,304,303,304,1
304,306,302,302,1
304,308,302,302,1
305,310,302,303,1
307,312,302,305,1
309,313,303,307,1
310,313,305,307,1
310,313,306,306,1
310,312,306,304,1
309,310,306,302,1
309,309,306,299,1
309,309,305,297,1
310,309,304,294,1
310,309,302,293,1
309,310,300,293,1
309,310,299,296,1
308,311,300,302,1
307,312,302,308,1
305,311,303,312,1
303,310,303,313,1
301,310,304,314,1
301,309,306,314,1
302,309,308,314,1
303,310,310,315,1
305,311,310,317,1
306,312,310,318,1
306,311,309,317,1
305,308,308,314,1
305,306,306,311,1
304,303,304,308,1
304,301,302,304,1
303,300,301,302,1
303,299,300,299,1
303,300,300,298,1
304,301,301,297,1
305,303,302,299,1
307,306,304,302,1
309,308,305,306,1
310,309,306,308,1
309,309,305,307,1
309,308,303,304,1
308,307,300,301,1
307,304,298,298,1
307,303,299,296,1
307,302,301,298,1
308,303,305,301,1
309,305,307,306,1
310,306,309,309,1
310,307,309,312,1
309,305,308,313,1
309,303,305,314,1
307,301,302,315,1
305,301,299,317,1
303,302,297,319,1
301,305,297,320,1
300,307,299,321,1
301,309,302,321,1
302,310,305,319,1
304,311,308,316,1
306,312,311,315,1
309,313,313,314,1
310,314,313,314,1
309,315,313,315,1
309,315,313,315,1
308,315,312,315,1
307,314,312,315,1
306,312,310,315,1
303,311,309,315,1
301,309,307,314,1
300,307,306,312,1
299,307,305,310,1
298,306,305,307,1
298,306,304,304,1
299,304,305,303,1
300,304,305,302,1
302,303,305,302,1
302,302,305,301,1
301,302,303,301,1
300,303,303,301,1
299,305,302,302,1
299,306,303,304,1
300,309,305,308,1
302,310,308,312,1
305,311,310,314,1
307,310,311,314,1
309,308,311,313,1
310,307,309,311,1
311,307,308,309,1
312,308,307,308,1
312,308,307,307,1
311,307,307,307,1
310,306,307,307,1
309,304,308,306,1
307,303,307,306,1
306,302,307,305,1
306,303,307,304,1
305,304,306,303,1
304,305,306,303,1
303,307,306,303,1
303,308,306,303,1
304,310,306,304,1
303,310,306,303,1
303,311,306,303,1
303,310,308,303,1
303,307,308,303,1
304,304,307,303,1
305,302,306,303,1
307,300,305,304,1
308,299,303,303,1
310,299,302,303,1
311,300,300,302,1
312,302,298,303,1
313,306,300,305,1
314,310,302,307,1
313,313,305,308,1
313,314,308,307,1
313,314,311,305,1
314,314,313,302,1
316,314,314,301,1
319,315,314,301,1
322,315,313,301,1
325,314,312,301,1
326,314,311,302,1
326,314,310,303,1
323,314,309,303,1
318,313,308,302,1
312,313,307,303,1
309,313,308,303,1
307,314,310,304,1
306,314,311,306,1
305,313,311,308,1
302,313,310,310,1
299,312,308,310,1
297,311,306,309,1
298,311,304,308,1
301,312,302,307,1
306,312,300,306,1
310,312,298,306,1
315,311,296,306,1
319,312,296,308,1
324,315,299,311,1
326,317,302,313,1
323,318,305,315,1
318,316,306,316,1
312,314,307,315,1
306,311,306,314,1
302,308,305,313,1
300,306,302,311,1
300,304,299,309,1
302,304,298,307,1
305,305,296,305,1
310,307,296,304,1
315,310,298,303,1
321,311,301,303,1
325,313,305,303,1
326,315,310,305,1
326,317,315,308,1
325,318,318,310,1
324,317,319,311,1
320,314,318,311,1
316,308,316,311,1
311,304,315,312,1
306,301,314,314,1
301,300,313,315,1
299,298,312,315,1
297,297,312,315,1
296,298,311,317,1
300,302,312,320,1
310,307,314,322,1
323,313,315,323,1
336,319,315,324,1
348,322,315,324,1
356,324,315,323,1
362,324,315,321,1
363,322,316,318,1
357,318,315,313,1
344,311,313,309,1
332,306,309,305,1
323,303,308,302,1
316,302,306,299,1
309,302,304,297,1
303,300,303,297,1
299,300,303,299,1
297,301,304,303,1
294,302,303,305,1
288,299,302,306,1
283,297,301,306,1
280,297,301,308,1
280,299,301,310,1
280,302,301,311,1
281,305,301,311,1
283,308,301,312,1
284,309,301,313,1
284,310,301,313,1
285,310,300,314,1
286,309,300,316,1
288,309,299,316,1
289,309,299,316,1
291,311,297,313,1
293,311,296,309,1
295,311,295,304,1
298,308,294,301,1
301,306,295,299,1
306,307,297,302,1
310,311,301,306,1
313,314,305,311,1
315,315,308,313,1
314,315,311,312,1
313,314,312,310,1
311,314,314,309,1
311,315,315,309,1
309,315,315,311,1
307,314,312,312,1
303,311,309,313,1
299,307,306,312,1
295,304,303,311,1
293,301,302,309,1
291,299,303,306,1
292,298,304,302,1
295,297,306,299,1
299,298,308,297,1
303,300,310,296,1
306,302,311,298,1
309,303,312,300,1
309,303,313,303,1
306,304,313,307,1
304,305,313,312,1
302,307,313,316,1
301,308,313,319,1
298,309,314,320,1
297,309,313,321,1
296,311,313,320,1
296,313,313,318,1
298,314,313,314,1
301,314,313,310,1
307,313,313,306,1
312,311,313,301,1
314,307,311,297,1
314,305,310,296,1
314,306,310,298,1
316,309,311,302,1
318,312,313,307,1
319,314,314,313,1
320,316,315,319,1
324,320,316,324,1
329,323,317,330,1
333,326,317,332,1
333,327,317,333,1
330,326,318,332,1
323,324,317,330,1
310,318,315,327,1
296,311,313,323,1
285,306,310,318,1
278,302,308,313,1
275,300,306,309,1
276,299,305,307,1
277,299,304,306,1
281,301,304,307,1
285,303,305,309,1
288,305,305,311,1
290,306,305,311,1
293,307,306,312,1
297,308,308,311,1
300,309,311,309,1
303,311,315,307,1
304,312,316,306,1
303,313,318,306,1
301,312,318,308,1
299,310,318,311,1
298,308,318,314,1
297,305,316,314,1
296,303,314,311,1
294,301,313,308,1
294,300,312,305,1
295,301,311,304,1
296,303,311,304,1
296,304,311,304,1
295,305,309,305,1
296,306,308,305,1
296,307,307,306,1
297,307,305,306,1
297,308,305,306,1
297,309,305,304,1
297,309,305,303,1
298,312,306,302,1
300,314,308,306,1
302,318,310,312,1
304,320,309,317,1
305,320,308,321,1
305,316,305,321,1
305,312,303,319,1
304,308,302,316,1
304,305,303,313,1
303,304,303,310,1
301,303,303,307,1
297,302,304,306,1
293,303,304,305,1
290,304,305,307,1
290,307,305,308,1
291,309,306,309,1
293,312,306,309,1
295,313,306,308,1
297,313,307,306,1
298,312,309,306,1
299,311,311,305,1
299,308,313,305,1
299,307,315,306,1
299,306,315,309,1
300,305,314,310,1
299,305,313,310,1
297,305,312,309,1
294,306,310,308,1
293,306,307,306,1
292,306,305,304,1
293,306,302,301,1
295,305,300,298,1
297,305,299,294,1
298,304,299,291,1
300,305,301,291,1
301,307,304,295,1
302,309,308,299,1
303,311,310,305,1
303,312,312,309,1
303,312,313,312,1
304,313,312,314,1
305,314,311,314,1
307,313,310,314,1
308,312,309,314,1
309,312,309,316,1
310,313,311,317,1
310,312,313,318,1
309,312,314,318,1
306,311,315,316,1
305,308,315,313,1
303,305,315,308,1
303,303,315,303,1
303,301,314,300,1
303,300,314,297,1
302,299,313,295,1
302,297,313,293,1
302,297,312,293,1
304,298,311,294,1
307,300,310,295,1
309,302,310,296,1
312,304,310,297,1
313,306,311,297,1
312,309,311,298,1
309,309,311,298,1
305,308,309,297,1
300,306,306,295,1
298,305,304,294,1
296,303,302,295,1
296,304,302,298,1
297,305,305,303,1
300,307,310,308,1
305,309,315,312,1
310,312,318,315,1
312,314,320,316,1
313,314,320,316,1
312,314,318,315,1
310,313,317,313,1
308,311,315,312,1
305,309,314,312,1
303,308,313,314,1
302,308,313,315,1
302,308,313,316,1
303,308,312,317,1
304,308,312,317,1
304,308,312,317,1
306,308,312,317,1
308,308,313,317,1
310,308,313,316,1
312,308,313,313,1
312,307,312,310,1
310,306,311,306,1
306,304,309,301,1
302,302,307,296,1
298,301,305,292,1
295,301,302,291,1
293,301,301,293,1
291,301,300,297,1
291,300,301,302,1
291,298,304,306,1
291,297,307,308,1
293,296,309,310,1
297,295,312,311,1
301,297,314,311,1
306,300,315,312,1
310,303,315,313,1
313,306,316,314,1
313,308,315,315,1
310,308,314,314,1
305,307,312,313,1
301,307,311,312,1
298,306,310,310,1
297,307,310,309,1
296,307,310,307,1
294,306,310,306,1
293,306,310,303,1
293,305,311,301,1
293,304,310,299,1
293,302,310,297,1
293,300,309,295,1
294,299,309,296,1
294,300,309,298,1
295,302,309,301,1
295,303,310,304,1
295,303,309,308,1
295,303,309,310,1
295,303,308,310,1
297,305,308,310,1
300,306,308,309,1
303,308,309,307,1
306,310,310,306,1
309,311,311,304,1
312,312,311,302,1
313,313,310,301,1
313,313,310,300,1
313,313,310,302,1
312,313,312,306,1
310,312,313,310,1
307,311,314,313,1
304,308,314,315,1
302,306,313,315,1
301,304,313,315,1
302,304,312,314,1
303,303,312,313,1
304,303,312,311,1
305,303,313,310,1
306,303,313,309,1
306,304,313,309,1
306,306,313,310,1
306,306,313,312,1
304,306,313,313,1
302,307,313,313,1
301,306,313,312,1
300,305,313,311,1
299,304,311,309,1
299,305,309,308,1
300,305,307,308,1
301,307,305,307,1
303,308,304,305,1
303,310,305,303,1
303,312,306,302,1
302,312,309,303,1
300,312,311,304,1
298,310,312,306,1
295,309,311,307,1
294,307,310,308,1
294,306,308,307,1
295,305,307,303,1
296,303,305,298,1
297,301,303,293,1
297,300,303,291,1
297,299,304,291,1
298,299,307,292,1
300,300,309,296,1
303,303,312,301,1
305,306,314,306,1
307,309,315,311,1
307,310,315,315,1
308,311,313,316,1
308,310,313,316,1
308,310,312,315,1
308,312,311,315,1
308,314,310,316,1
310,315,310,318,1
311,316,310,319,1
312,317,311,319,1
314,318,313,319,1
316,320,315,320,1
318,320,316,319,1
318,319,317,318,1
316,318,317,316,1
313,316,317,316,1
310,315,317,316,1
309,314,315,315,1
308,313,314,313,1
308,311,312,310,1
306,309,311,307,1
304,307,310,302,1
302,304,308,297,1
300,302,306,293,1
299,301,304,292,1
300,301,304,294,1
301,303,304,298,1
304,306,305,304,1
306,308,306,309,1
306,309,306,312,1
306,310,306,313,1
305,309,306,314,1
305,308,307,313,1
306,306,307,313,1
306,305,306,312,1
305,303,305,310,1
303,301,302,308,1
301,299,300,307,1
300,299,301,306,1
300,300,303,305,1
302,302,307,306,1
305,304,311,308,1
307,304,314,311,1
308,305,316,315,1
308,304,317,318,1
308,303,317,319,1
308,303,317,320,1
308,304,317,319,1
308,304,317,316,1
308,304,316,311,1
309,304,315,308,1
309,303,314,305,1
310,303,312,303,1
311,302,311,302,1
312,303,310,302,1
312,304,309,303,1
312,305,308,303,1
312,305,309,305,1
311,307,309,305,1
310,306,309,306,1
308,305,309,304,1
306,304,308,303,1
305,304,307,303,1
304,306,307,305,1
305,308,308,308,1
307,311,310,312,1
311,313,311,315,1
314,312,312,314,1
315,311,311,312,1
317,310,310,311,1
318,310,310,309,1
319,311,311,307,1
320,311,312,307,1
319,311,312,308,1
317,313,314,310,1
316,315,315,312,1
314,316,315,313,1
312,315,313,313,1
309,312,312,313,1
306,310,312,313,1
302,307,312,312,1
299,304,311,311,1
297,302,310,308,1
296,301,310,305,1
296,300,310,303,1
296,301,310,301,1
295,304,311,302,1
297,307,312,304,1
298,309,312,306,1
300,310,311,308,1
302,310,309,310,1
304,309,309,311,1
308,310,309,311,1
310,311,309,310,1
311,311,309,309,1
312,310,309,308,1
312,309,308,307,1
311,307,308,306,1
310,305,309,305,1
310,303,309,305,1
310,301,311,306,1
310,300,312,306,1
309,300,312,307,1
307,300,312,307,1
307,301,312,307,1
308,302,311,308,1
310,303,310,307,1
310,303,309,306,1
309,302,307,304,1
307,302,306,303,1
304,303,305,303,1
303,304,305,304,1
304,305,305,305,1
306,305,306,306,1
309,306,307,307,1
312,308,309,310,1
316,310,310,311,1
318,311,310,311,1
317,312,310,311,1
316,311,310,310,1
316,311,311,309,1
315,309,312,308,1
312,306,312,307,1
308,303,312,306,1
306,299,313,304,1
304,298,314,303,1
304,298,315,301,1
304,298,315,297,1
304,298,314,293,1
304,300,314,290,1
304,302,313,287,1
305,303,311,286,1
306,302,310,286,1
305,300,309,288,1
305,299,308,292,1
304,298,307,298,1
304,299,306,302,1
304,300,306,306,1
305,302,305,308,1
305,303,304,311,1
305,303,303,312,1
304,303,302,312,1
305,303,302,312,1
307,304,302,313,1
309,305,303,315,1
312,306,304,317,1
314,307,305,319,1
315,309,307,320,1
316,310,308,320,1
317,311,309,319,1
316,312,310,319,1
314,312,311,319,1
312,312,312,318,1
311,312,313,317,1
311,311,314,316,1
310,311,314,315,1
310,310,312,314,1
309,308,310,313,1
309,307,308,313,1
309,305,306,313,1
307,303,305,312,1
304,300,303,310,1
302,297,302,307,1
302,296,302,305,1
303,297,301,304,1
305,298,302,304,1
308,301,302,304,1
311,303,303,304,1
313,304,302,304,1
314,304,300,302,1
312,303,298,300,1
307,302,297,299,1
303,300,296,298,1
298,298,298,298,1
296,296,302,298,1
297,295,308,299,1
300,295,314,300,1
303,296,317,302,1
305,297,319,305,1
307,299,321,309,1
306,300,321,312,1
305,302,321,313,1
304,302,320,313,1
303,301,318,312,1
301,301,316,310,1
300,301,315,307,1
300,302,314,305,1
302,302,314,304,1
305,303,315,304,1
308,304,315,304,1
309,303,315,304,1
310,303,314,305,1
310,303,312,305,1
308,302,309,304,1
305,298,306,302,1
303,296,304,299,1
303,295,304,297,1
303,296,306,295,1
304,296,307,292,1
305,296,310,291,1
307,298,312,292,1
309,301,314,294,1
311,301,315,296,1
312,300,315,296,1
311,298,315,297,1
309,296,314,299,1
307,296,314,301,1
306,296,313,304,1
305,297,312,306,1
304,299,312,308,1
304,302,311,310,1
305,303,311,311,1
305,304,311,313,1
304,305,310,314,1
303,305,308,314,1
302,306,305,313,1
300,305,302,310,1
298,304,298,304,1
297,303,297,299,1
297,303,298,297,1
298,304,300,298,1
301,305,305,301,1
304,305,310,306,1
308,306,315,310,1
312,308,318,314,1
315,308,319,316,1
318,308,318,317,1
319,308,318,316,1
320,309,317,314,1
320,309,316,312,1
319,308,315,310,1
317,308,314,311,1
314,308,313,311,1
313,309,312,311,1
312,309,310,310,1
311,309,309,308,1
311,310,308,306,1
311,310,306,304,1
310,309,304,302,1
308,307,301,302,1
305,306,300,302,1
301,305,299,303,1
298,304,299,303,1
296,304,299,303,1
295,304,299,304,1
294,304,298,303,1
294,304,298,302,1
294,304,297,299,1
295,303,297,295,1
296,302,296,291,1
298,298,295,288,1
300,295,296,288,1
303,294,299,292,1
306,296,303,298,1
308,301,307,305,1
309,305,310,311,1
310,310,312,315,1
310,313,313,317,1
311,315,314,319,1
311,316,315,320,1
311,317,315,320,1
310,317,316,319,1
310,316,316,319,1
309,313,315,317,1
309,311,315,316,1
308,309,313,316,1
309,308,312,315,1
309,308,310,314,1
310,309,308,313,1
309,309,305,311,1
308,308,303,310,1
307,308,302,307,1
306,307,303,304,1
306,306,304,302,1
306,306,306,302,1
306,306,308,303,1
307,306,309,303,1
309,306,310,302,1
312,307,310,300,1
316,307,310,298,1
321,307,310,296,1
324,307,309,294,1
324,306,308,291,1
323,307,308,291,1
321,309,308,294,1
316,311,308,297,1
311,312,306,298,1
306,312,304,300,1
302,313,302,303,1
302,315,302,306,1
302,316,303,308,1
303,317,304,309,1
303,317,307,310,1
303,317,310,310,1
304,318,312,311,1
304,318,314,314,1
305,318,315,317,1
306,317,316,320,1
308,315,316,321,1
309,313,316,321,1
309,312,315,321,1
309,311,314,319,1
308,311,312,317,1
307,310,311,314,1
305,309,310,310,1
305,308,308,305,1
306,306,308,300,1
308,304,309,297,1
310,302,310,295,1
312,300,310,294,1
313,299,310,295,1
312,300,309,295,1
310,299,307,293,1
307,298,304,290,1
305,297,300,286,1
303,295,297,284,1
301,297,296,286,1
301,302,298,294,1
302,310,301,304,1
304,315,305,314,1
304,318,308,319,1
304,318,310,322,1
303,317,311,323,1
302,315,311,323,1
302,314,310,322,1
302,313,309,321,1
303,312,307,320,1
304,312,306,318,1
306,311,306,316,1
308,311,307,314,1
310,311,308,311,1
313,312,311,310,1
315,312,312,309,1
316,313,313,308,1
317,314,313,306,1
317,314,313,306,1
316,312,312,305,1
313,309,311,304,1
309,305,308,302,1
305,301,306,299,1
302,299,303,296,1
301,299,300,293,1
300,299,298,290,1
302,302,295,287,1
305,306,294,285,1
309,311,293,286,1
310,315,293,288,1
309,317,295,291,1
308,316,298,294,1
306,314,303,297,1
305,311,308,300,1
304,309,311,303,1
303,307,314,307,1
304,306,316,311,1
305,306,317,314,1
306,308,318,317,1
307,310,318,319,1
307,310,318,318,1
307,308,317,316,1
306,307,316,314,1
306,306,314,313,1
307,305,314,312,1
308,306,313,311,1
309,305,311,309,1
309,304,310,306,1
309,301,308,302,1
310,300,307,297,1
310,298,304,292,1
311,299,302,290,1
313,301,300,291,1
315,304,299,296,1
316,306,300,303,1
316,308,301,311,1
316,310,302,318,1
315,311,302,323,1
312,311,302,327,1
309,311,302,328,1
308,311,302,327,1
308,311,303,323,1
310,311,305,318,1
311,311,307,313,1
312,310,307,307,1
311,309,308,302,1
308,308,307,299,1
307,308,307,297,1
307,310,307,298,1
307,311,306,299,1
308,311,305,299,1
309,310,305,300,1
309,310,305,301,1
310,310,305,302,1
310,311,306,303,1
309,310,305,303,1
307,309,304,302,1
306,309,304,301,1
306,309,303,301,1
307,309,303,300,1
306,307,302,300,1
304,306,302,301,1
304,306,303,303,1
305,308,306,307,1
307,310,308,310,1
310,312,310,313,1
313,313,311,313,1
315,312,311,312,1
317,312,310,311,1
318,312,309,309,1
318,310,308,307,1
315,308,307,304,1
310,306,306,301,1
306,304,304,299,1
302,302,303,297,1
299,300,302,296,1
299,300,302,297,1
301,303,302,300,1
303,305,302,303,1
304,305,302,304,1
304,304,302,304,1
304,303,302,304,1
305,302,302,304,1
305,302,302,305,1
305,302,302,305,1
305,301,302,305,1
304,300,301,304,1
304,301,299,305,1
303,302,298,304,1
302,304,298,303,1
302,305,297,301,1
303,305,297,299,1
304,304,297,297,1
305,303,297,295,1
305,303,298,294,1
305,303,300,296,1
307,305,302,298,1
309,307,304,301,1
311,309,305,304,1
310,309,305,307,1
309,309,304,309,1
306,308,303,310,1
304,307,303,310,1
304,306,303,312,1
306,307,304,314,1
309,306,305,316,1
310,306,305,317,1
310,306,306,317,1
307,305,307,317,1
305,305,307,316,1
302,304,308,314,1
301,304,309,313,1
302,305,310,312,1
303,306,311,312,1
303,306,311,311,1
305,307,310,310,1
307,308,309,309,1
309,308,308,307,1
310,306,306,305,1
309,304,305,304,1
309,302,305,304,1
309,302,306,306,1
308,303,308,307,1
305,304,308,309,1
303,304,307,310,1
301,304,306,310,1
301,305,305,310,1
302,308,303,310,1
304,313,303,313,1
306,317,303,314,1
307,320,302,314,1
306,321,301,313,1
305,322,303,312,1
305,323,307,313,1
304,323,310,314,1
303,321,311,317,1
302,317,311,319,1
302,312,310,320,1
303,307,310,320,1
304,302,309,319,1
303,298,309,318,1
304,294,309,320,1
303,292,308,321,1
302,290,307,320,1
301,289,307,318,1
301,288,306,315,1
302,290,307,313,1
303,293,308,311,1
304,295,308,309,1
304,297,308,308,1
304,300,308,308,1
305,303,307,309,1
306,304,306,310,1
307,306,306,313,1
308,308,306,315,1
308,309,307,316,1
307,308,308,315,1
307,307,309,312,1
307,306,310,308,1
308,305,311,304,1
308,304,311,302,1
308,303,310,300,1
307,303,309,300,1
306,302,307,300,1
304,301,305,301,1
302,299,302,302,1
300,299,301,304,1
300,301,301,304,1
301,303,303,304,1
302,305,306,302,1
305,306,308,301,1
308,306,310,301,1
311,307,310,302,1
314,307,310,304,1
316,307,310,306,1
319,308,310,307,1
321,308,308,307,1
321,309,306,307,1
319,310,306,309,1
318,312,307,310,1
318,313,307,311,1
317,312,308,310,1
314,312,310,309,1
311,311,312,309,1
309,309,314,309,1
307,306,316,309,1
305,305,317,309,1
303,304,317,309,1
302,302,317,308,1
302,302,315,309,1
301,302,314,310,1
300,303,313,312,1
299,303,311,313,1
297,303,310,315,1
297,304,310,317,1
298,305,311,318,1
301,307,312,318,1
304,308,312,315,1
307,307,312,310,1
309,306,310,305,1
309,305,308,302,1
308,304,307,300,1
308,304,306,300,1
308,305,306,301,1
308,306,307,303,1
310,307,309,306,1
311,310,311,310,1
313,312,312,313,1
314,313,312,315,1
313,314,312,318,1
313,315,310,320,1
312,316,307,321,1
310,317,305,320,1
308,315,303,319,1
306,314,304,317,1
305,313,306,316,1
305,312,309,315,1
306,312,311,314,1
306,312,312,313,1
307,311,311,312,1
307,310,311,312,1
307,310,311,312,1
308,311,311,313,1
308,311,311,315,1
308,311,312,316,1
306,310,312,317,1
305,310,312,317,1
305,309,311,315,1
306,308,309,313,1
307,307,305,311,1
308,304,302,307,1
309,302,298,305,1
310,301,297,303,1
311,301,297,301,1
312,302,298,299,1
313,304,301,299,1
313,307,307,301,1
313,309,312,303,1
311,310,316,304,1
309,311,317,306,1
308,310,317,308,1
308,309,316,310,1
308,308,316,312,1
308,307,316,313,1
309,307,316,313,1
308,307,317,313,1
308,307,318,313,1
307,306,317,312,1
305,304,316,310,1
303,301,314,307,1
301,300,313,306,1
299,299,312,305,1
298,299,310,304,1
298,299,309,304,1
299,300,308,305,1
301,301,307,307,1
303,302,307,308,1
304,304,305,309,1
305,303,304,309,1
305,303,302,310,1
305,304,301,311,1
306,306,302,311,1
308,310,304,312,1
310,313,308,313,1
312,314,311,313,1
312,315,314,313,1
313,313,315,311,1
311,310,315,307,1
309,307,313,303,1
307,304,312,298,1
307,301,310,292,1
306,299,308,288,1
307,298,306,288,1
308,299,304,293,1
307,300,302,301,1
305,302,301,308,1
304,305,302,314,1
302,309,305,318,1
302,314,308,320,1
303,319,310,320,1
305,323,312,319,1
307,325,314,316,1
308,326,315,312,1
306,325,314,310,1
305,322,313,309,1
304,319,313,309,1
304,315,313,309,1
304,311,312,307,1
305,307,311,304,1
305,303,308,301,1
307,299,307,298,1
309,297,306,296,1
310,295,305,294,1
310,295,306,294,1
310,295,307,296,1
310,297,309,299,1
310,299,311,304,1
310,299,312,308,1
311,297,313,311,1
312,297,313,314,1
312,297,313,316,1
311,296,312,315,1
307,296,308,314,1
303,297,306,313,1
300,298,305,312,1
297,299,305,311,1
297,300,306,310,1
297,300,308,308,1
299,300,310,306,1
300,301,311,304,1
301,302,312,302,1
302,302,312,299,1
302,302,311,296,1
301,302,310,294,1
300,302,308,292,1
298,301,306,291,1
296,302,303,291,1
294,303,302,293,1
293,304,301,296,1
293,306,300,299,1
293,307,301,302,1
295,308,303,304,1
297,310,306,306,1
302,312,310,309,1
306,314,314,312,1
310,316,319,315,1
312,317,322,316,1
313,317,324,316,1
313,316,324,314,1
312,314,323,313,1
312,312,322,311,1
312,311,321,310,1
314,310,320,309,1
317,309,319,308,1
319,310,319,308,1
320,311,318,307,1
320,313,317,305,1
318,313,315,304,1
314,314,313,303,1
309,314,311,303,1
305,314,310,304,1
303,310,309,305,1
302,306,307,306,1
301,302,305,306,1
302,299,304,305,1
303,296,305,303,1
304,294,308,299,1
306,294,309,297,1
307,296,310,296,1
307,297,309,295,1
307,298,309,293,1
306,299,310,292,1
304,300,311,292,1
302,301,314,295,1
302,304,317,299,1
302,306,319,303,1
303,307,319,306,1
305,307,319,308,1
307,307,319,311,1
308,309,320,315,1
309,312,320,319,1
311,313,320,321,1
311,314,319,323,1
310,313,318,323,1
310,313,317,322,1
308,311,316,321,1
307,310,315,319,1
305,309,315,316,1
304,308,314,314,1
304,308,314,312,1
303,308,314,309,1
303,306,312,308,1
303,304,309,306,1
303,302,306,305,1
304,302,304,306,1
306,302,304,307,1
307,302,304,307,1
305,302,306,307,1
303,305,308,307,1
300,310,312,309,1
298,315,317,310,1
297,319,320,311,1
297,322,322,312,1
296,324,322,312,1
297,325,321,313,1
298,326,320,313,1
299,324,318,314,1
299,320,317,315,1
300,315,316,317,1
301,312,318,319,1
303,310,318,320,1
304,305,319,319,1
304,300,319,317,1
303,296,319,313,1
303,294,319,310,1
302,293,318,307,1
301,294,317,303,1
301,294,315,300,1
300,295,312,297,1
300,296,309,295,1
299,297,307,293,1
299,298,305,292,1
298,298,305,291,1
298,299,306,290,1
299,299,309,290,1
300,299,311,292,1
301,299,311,295,1
302,299,310,297,1
304,299,309,298,1
306,300,306,298,1
309,301,304,297,1
310,302,302,296,1
312,303,302,297,1
312,305,305,298,1
311,307,310,301,1
309,310,316,305,1
308,313,320,310,1
306,316,324,315,1
306,319,326,319,1
306,320,328,321,1
307,320,329,321,1
308,319,328,321,1
308,317,327,320,1
308,313,325,318,1
307,308,323,315,1
305,304,319,310,1
303,301,316,306,1
302,299,313,304,1
301,300,311,304,1
301,301,309,303,1
301,302,309,303,1
302,305,310,304,1
304,307,311,305,1
304,307,313,307,1
304,307,314,309,1
303,306,315,309,1
302,306,316,308,1
301,306,315,305,1
300,305,314,303,1
299,304,313,301,1
298,302,312,300,1
297,299,310,301,1
298,299,310,303,1
301,299,310,305,1
304,299,311,305,1
307,300,311,303,1
309,301,311,300,1
311,301,311,297,1
312,303,311,295,1
313,306,311,294,1
313,309,309,293,1
310,309,306,293,1
306,309,302,294,1
303,308,300,296,1
302,308,298,298,1
300,308,297,301,1
298,308,297,303,1
297,307,299,304,1
297,307,302,304,1
298,308,304,305,1
299,308,307,304,1
300,307,308,303,1
300,305,308,301,1
300,303,307,298,1
300,302,306,297,1
301,302,306,296,1
301,303,307,297,1
302,305,309,298,1
304,306,312,299,1
306,308,316,301,1
308,311,319,304,1
310,313,321,307,1
310,314,321,308,1
310,314,320,308,1
310,314,318,307,1
309,314,316,305,1
309,314,315,304,1
308,313,312,302,1
307,311,310,301,1
306,310,307,301,1
307,309,306,303,1
308,310,305,306,1
310,309,304,308,1
311,309,303,308,1
312,310,303,308,1
314,310,304,307,1
316,310,305,305,1
315,310,308,303,1
315,310,310,303,1
315,311,313,303,1
316,312,315,304,1
316,312,315,303,1
315,314,315,302,1
313,315,314,302,1
309,318,314,302,1
305,320,313,303,1
301,323,313,305,1
299,326,313,308,1
298,329,314,312,1
300,329,315,315,1
303,326,315,315,1
304,321,315,314,1
305,315,315,311,1
305,310,315,307,1
304,305,314,302,1
303,301,314,298,1
300,296,314,296,1
298,291,314,296,1
298,290,314,301,1
299,291,315,308,1
301,295,316,316,1
303,298,315,321,1
304,299,314,323,1
306,299,312,322,1
308,300,309,320,1
310,301,307,317,1
311,302,306,315,1
312,304,307,313,1
312,306,309,311,1
310,307,309,309,1
307,307,307,306,1
301,306,304,301,1
296,303,300,296,1
292,300,297,292,1
291,299,294,291,1
291,299,294,293,1
293,300,298,296,1
296,302,303,300,1
300,303,309,303,1
303,304,313,305,1
304,304,316,307,1
304,305,317,310,1
304,306,318,312,1
303,307,317,311,1
303,308,315,309,1
302,308,313,306,1
303,308,312,303,1
302,309,312,299,1
302,310,312,297,1
301,310,314,298,1
301,310,314,301,1
302,309,315,304,1
302,308,314,305,1
303,307,313,307,1
304,307,313,309,1
305,309,313,310,1
306,311,313,310,1
306,313,314,310,1
306,315,314,309,1
307,315,314,307,1
307,314,314,306,1
308,312,313,306,1
309,311,313,305,1
309,310,313,304,1
308,310,312,302,1
307,311,313,302,1
305,312,313,303,1
303,312,313,305,1
301,312,312,308,1
302,311,311,312,1
303,310,311,314,1
303,309,310,316,1
303,310,310,317,1
304,311,308,316,1
303,312,306,314,1
302,312,304,312,1
300,311,303,311,1
298,310,303,309,1
296,308,303,310,1
295,305,304,310,1
295,305,306,312,1
296,306,307,313,1
299,307,308,313,1
303,309,310,312,1
306,312,313,311,1
308,313,314,311,1
309,313,314,309,1
310,312,313,306,1
308,310,311,302,1
306,308,308,298,1
304,307,305,296,1
301,306,301,294,1
299,306,298,295,1
298,307,296,297,1
298,309,295,300,1
300,311,299,303,1
301,311,305,305,1
302,311,310,307,1
303,311,311,310,1
303,310,312,312,1
304,309,311,313,1
303,308,311,314,1
303,308,311,314,1
304,308,313,315,1
304,309,315,316,1
304,310,317,318,1
304,311,317,319,1
304,312,316,319,1
304,312,314,318,1
304,312,312,315,1
304,311,311,313,1
304,311,311,313,1
305,312,312,314,1
306,313,313,315,1
308,313,313,315,1
308,313,313,315,1
307,312,312,315,1
305,310,311,316,1
303,308,309,316,1
302,306,308,316,1
302,305,309,317,1
303,306,310,318,1
304,307,310,318,1
304,308,312,318,1
305,309,313,317,1
306,310,313,316,1
308,311,313,314,1
310,311,312,312,1
311,311,311,311,1
310,309,310,309,1
309,308,308,308,1
308,306,307,307,1
307,306,306,307,1
307,305,305,306,1
308,304,304,305,1
309,304,303,305,1
309,305,303,305,1
308,306,303,305,1
307,306,303,306,1
304,305,303,306,1
302,304,304,305,1
301,303,303,303,1
300,301,303,299,1
299,300,304,298,1
300,301,305,298,1
301,302,307,298,1
302,303,307,300,1
303,304,306,301,1
304,305,306,302,1
306,306,305,302,1
306,307,305,303,1
305,307,305,303,1
304,306,304,304,1
302,305,302,305,1
300,303,300,306,1
297,302,297,307,1
295,301,296,307,1
294,303,295,307,1
293,306,296,306,1
294,309,296,305,1
294,313,295,303,1
294,315,294,302,1
295,318,294,300,1
296,320,295,301,1
299,321,298,303,1
301,321,301,306,1
302,320,303,308,1
303,319,304,310,1
305,316,305,311,1
306,313,307,313,1
307,309,310,313,1
307,305,313,313,1
308,301,315,312,1
309,299,317,312,1
310,299,318,311,1
310,300,317,310,1
309,301,316,309,1
308,302,314,309,1
308,302,311,309,1
308,301,308,309,1
306,301,304,309,1
305,301,303,309,1
305,301,303,309,1
305,302,304,309,1
306,304,306,310,1
307,306,307,311,1
306,308,309,311,1
305,309,310,312,1
304,310,310,313,1
304,311,310,314,1
304,311,310,315,1
303,311,310,317,1
302,311,309,318,1
300,309,308,318,1
299,306,308,316,1
298,304,307,313,1
299,304,307,311,1
300,306,307,310,1
301,306,306,308,1
301,306,304,306,1
299,306,300,303,1
298,305,296,300,1
298,304,294,298,1
300,304,295,301,1
306,306,298,306,1
311,309,302,310,1
316,312,306,313,1
321,313,311,314,1
325,315,314,313,1
327,315,317,312,1
326,314,318,311,1
321,312,318,310,1
314,311,318,310,1
307,311,316,310,1
302,312,314,309,1
301,314,312,306,1
301,314,309,303,1
301,314,306,299,1
300,313,303,296,1
299,312,301,293,1
299,310,300,293,1
299,307,301,293,1
301,303,304,294,1
303,301,306,297,1
305,299,308,302,1
306,299,309,305,1
307,298,309,308,1
308,298,308,309,1
307,297,306,309,1
306,296,304,306,1
305,295,301,303,1
304,294,299,300,1
304,293,297,297,1
303,293,297,295,1
304,293,298,294,1
305,295,302,294,1
309,297,304,296,1
312,299,306,298,1
314,302,307,300,1
314,304,307,301,1
313,305,305,299,1
310,305,305,299,1
308,305,306,298,1
308,306,308,297,1
307,306,308,297,1
307,305,308,298,1
306,303,307,300,1
305,303,305,303,1
305,304,304,305,1
305,306,302,306,1
305,307,300,305,1
306,308,298,306,1
307,308,298,307,1
307,308,300,307,1
308,307,302,307,1
308,308,305,306,1
308,308,307,305,1
308,309,309,304,1
308,310,310,305,1
307,310,310,306,1
307,309,310,307,1
309,310,312,309,1
311,312,313,311,1
312,313,315,312,1
312,314,316,313,1
312,315,317,314,1
311,315,316,314,1
311,314,315,315,1
311,313,314,315,1
310,312,312,314,1
310,310,311,312,1
311,309,309,311,1
311,309,308,309,1
311,309,307,307,1
311,309,306,305,1
311,308,306,302,1
310,306,305,299,1
308,304,306,297,1
307,303,306,296,1
306,302,306,295,1
307,302,305,294,1
307,301,304,293,1
307,300,303,293,1
306,300,302,294,1
306,301,303,296,1
306,301,305,298,1
306,303,307,299,1
307,303,309,301,1
308,304,310,304,1
309,305,310,308,1
311,307,310,312,1
312,309,310,316,1
312,310,309,319,1
312,310,309,320,1
311,309,308,320,1
311,308,308,317,1
310,306,307,315,1
309,306,307,312,1
307,307,307,310,1
305,311,307,311,1
304,316,308,312,1
304,320,307,312,1
305,324,305,312,1
306,325,303,310,1
307,326,301,308,1
308,327,301,305,1
308,327,300,304,1
310,326,300,304,1
312,324,302,305,1
315,322,303,306,1
316,320,303,306,1
316,318,303,305,1
316,315,302,304,1
313,310,300,302,1
311,303,299,300,1
307,297,298,298,1
305,293,298,298,1
304,290,300,297,1
303,289,300,297,1
302,288,302,297,1
300,289,302,298,1
299,291,301,300,1
299,294,300,302,1
299,297,298,304,1
300,300,297,306,1
303,302,298,307,1
306,303,302,307,1
308,303,305,307,1
309,303,308,306,1
310,302,308,304,1
309,301,307,301,1
308,301,306,299,1
308,302,305,298,1
308,304,305,297,1
308,306,305,298,1
308,307,306,298,1
307,307,305,298,1
307,306,305,297,1
307,307,304,298,1
307,308,303,301,1
307,309,302,302,1
307,310,301,304,1
307,310,302,305,1
308,312,303,305,1
310,313,305,306,1
313,313,307,309,1
316,313,309,312,1
318,313,310,314,1
319,313,310,313,1
318,313,310,309,1
314,310,310,304,1
309,307,309,298,1
305,304,310,295,1
303,304,311,296,1
302,304,312,300,1
303,304,313,304,1
304,305,311,307,1
305,303,309,309,1
305,302,306,308,1
305,300,305,306,1
306,300,305,303,1
307,300,306,301,1
308,301,308,299,1
310,302,311,299,1
311,304,312,300,1
312,307,312,302,1
312,310,313,303,1
312,312,314,305,1
310,314,314,308,1
308,316,313,311,1
307,318,313,314,1
307,318,313,315,1
307,318,312,315,1
307,317,311,314,1
309,316,309,311,1
310,314,309,309,1
312,313,308,306,1
313,313,308,304,1
314,312,308,302,1
315,311,308,300,1
316,310,308,299,1
316,308,307,298,1
314,304,306,297,1
312,300,305,298,1
309,300,305,300,1
309,302,305,302,1
308,306,305,304,1
306,309,304,303,1
303,313,303,303,1
301,316,302,302,1
299,319,302,302,1
300,323,302,301,1
302,325,303,301,1
303,325,305,302,1
306,324,306,303,1
308,321,308,307,1
310,319,309,309,1
310,315,310,311,1
309,312,309,310,1
307,308,308,309,1
305,304,306,307,1
303,301,305,307,1
303,298,306,307,1
303,295,308,306,1
302,291,308,304,1
302,288,307,302,1
301,287,306,300,1
302,288,305,299,1
303,291,304,300,1
304,294,304,301,1
306,297,305,301,1
308,300,307,300,1
310,302,310,299,1
311,304,313,299,1
314,306,315,302,1
317,308,316,305,1
319,309,316,307,1
320,310,313,308,1
319,309,310,307,1
314,308,308,304,1
308,306,306,301,1
303,305,307,299,1
299,305,309,298,1
299,306,312,299,1
302,309,315,301,1
305,310,316,302,1
309,310,317,301,1
311,308,315,300,1
312,307,314,298,1
312,306,312,297,1
311,305,310,297,1
309,305,307,298,1
307,305,305,299,1
305,305,303,299,1
304,305,302,300,1
305,305,303,300,1
306,304,305,302,1
308,305,308,304,1
309,306,311,307,1
311,308,314,309,1
312,309,315,310,1
311,310,315,310,1
310,310,314,309,1
308,309,312,307,1
306,309,311,305,1
304,308,309,304,1
303,309,308,305,1
303,311,308,308,1
304,314,309,310,1
305,316,309,312,1
305,316,308,312,1
304,317,306,312,1
304,317,305,312,1
304,316,304,311,1
305,314,304,310,1
305,313,305,309,1
306,312,307,308,1
308,312,311,308,1
309,312,313,307,1
309,312,315,306,1
308,312,315,305,1
307,311,314,304,1
305,309,313,302,1
304,307,311,300,1
304,305,308,297,1
304,303,305,295,1
303,301,305,294,1
303,301,305,294,1
303,303,307,295,1
303,306,308,297,1
304,311,309,300,1
305,315,310,302,1
307,319,309,303,1
307,321,308,304,1
307,321,307,306,1
306,319,306,307,1
306,316,306,308,1
305,311,306,310,1
305,306,306,311,1
305,303,306,314,1
306,301,307,313,1
307,301,307,312,1
309,301,308,311,1
311,301,308,310,1
311,301,307,309,1
312,300,308,309,1
310,300,310,309,1
307,300,312,309,1
303,301,312,308,1
300,302,310,305,1
298,302,309,302,1
297,303,310,299,1
297,305,311,298,1
299,306,312,299,1
301,306,313,300,1
303,307,315,302,1
306,308,317,304,1
309,310,318,306,1
311,312,319,307,1
313,313,318,308,1
313,313,317,308,1
311,312,315,307,1
309,311,314,307,1
307,309,312,307,1
305,307,311,307,1
303,305,309,307,1
303,304,309,306,1
303,303,309,306,1
304,302,309,305,1
303,301,309,304,1
301,300,309,302,1
298,299,308,300,1
296,299,307,300,1
296,301,307,302,1
297,303,307,304,1
298,305,308,306,1
298,305,308,307,1
299,303,307,306,1
299,300,307,304,1
299,297,306,301,1
298,293,305,299,1
298,291,304,297,1
297,292,304,296,1
297,295,304,295,1
297,299,304,297,1
298,303,305,299,1
299,307,305,303,1
301,311,306,307,1
304,312,308,310,1
305,311,308,310,1
305,308,309,309,1
304,306,308,309,1
303,305,308,308,1
302,304,307,307,1
301,305,306,305,1
301,305,303,303,1
300,304,299,300,1
300,303,294,298,1
299,301,290,297,1
299,299,287,296,1
300,299,288,296,1
301,300,292,296,1
302,302,298,297,1
303,304,303,298,1
304,304,308,302,1
303,303,311,305,1
303,302,313,308,1
302,302,313,309,1
302,301,312,308,1
302,301,311,307,1
303,301,310,306,1
304,302,310,306,1
306,302,311,308,1
308,302,311,310,1
309,303,311,311,1
310,306,311,312,1
312,311,310,312,1
314,316,311,312,1
316,320,310,312,1
315,322,309,310,1
312,323,309,309,1
309,323,308,308,1
306,320,307,306,1
304,316,307,304,1
301,311,306,302,1
299,307,306,300,1
297,304,306,300,1
296,302,307,301,1
296,300,308,303,1
296,299,309,305,1
296,297,310,306,1
297,294,310,305,1
297,292,308,303,1
297,290,306,301,1
297,289,305,299,1
297,290,304,297,1
297,292,304,295,1
298,296,304,295,1
300,299,304,297,1
302,302,305,300,1
304,303,307,304,1
305,304,311,308,1
305,305,312,311,1
303,305,312,312,1
301,304,312,311,1
298,303,311,311,1
296,303,309,310,1
295,303,309,309,1
296,304,310,310,1
298,305,311,311,1
299,307,312,312,1
299,309,312,313,1
300,309,310,313,1
301,308,308,312,1
302,306,306,309,1
302,304,302,306,1
302,304,299,302,1
302,305,298,301,1
302,307,298,301,1
303,310,300,302,1
303,312,302,304,1
303,313,304,307,1
304,314,306,310,1
306,314,307,313,1
308,315,309,316,1
310,314,309,317,1
312,312,310,317,1
314,310,311,316,1
315,309,312,315,1
315,308,313,313,1
315,308,312,311,1
312,307,311,308,1
308,306,309,305,1
304,306,307,304,1
300,307,307,304,1
297,307,307,306,1
296,306,306,308,1
295,306,305,309,1
296,305,305,310,1
296,303,304,310,1
295,302,303,310,1
295,302,303,311,1
296,303,303,312,1
298,304,304,313,1
299,305,304,312,1
299,306,303,310,1
299,307,303,308,1
298,308,302,308,1
299,309,302,308,1
301,310,302,310,1
302,311,304,313,1
305,312,305,316,1
307,312,306,318,1
308,310,306,316,1
309,308,306,313,1
310,305,306,310,1
312,304,307,308,1
313,304,308,306,1
312,306,309,305,1
311,308,309,304,1
308,310,309,304,1
307,310,309,303,1
304,310,308,302,1
302,309,308,302,1
302,309,307,303,1
302,310,307,306,1
302,310,305,309,1
302,310,302,311,1
301,308,300,312,1
299,306,298,312,1
299,305,298,311,1
299,305,300,311,1
300,306,302,310,1
302,307,304,310,1
303,309,304,308,1
304,312,303,307,1
303,315,303,305,1
303,318,303,304,1
302,320,304,302,1
300,322,305,300,1
300,323,306,299,1
301,325,309,298,1
303,327,311,300,1
307,326,313,304,1
311,325,315,308,1
312,322,314,312,1
312,320,313,315,1
311,317,311,316,1
310,314,311,316,1
309,309,309,315,1
309,305,308,313,1
308,301,307,310,1
308,297,306,307,1
306,294,305,303,1
304,291,304,302,1
302,290,304,302,1
302,290,305,304,1
304,292,307,307,1
306,295,308,311,1
308,298,308,313,1
310,299,307,313,1
310,300,305,313,1
309,301,304,313,1
308,302,304,314,1
308,303,305,315,1
309,305,306,316,1
311,307,308,316,1
313,308,310,316,1
313,310,311,315,1
313,310,311,314,1
313,310,311,311,1
311,309,311,307,1
308,307,310,303,1
305,306,309,297,1
304,305,308,293,1
303,305,310,292,1
306,307,312,294,1
308,309,313,298,1
309,312,314,303,1
310,312,313,308,1
309,311,310,311,1
306,308,307,313,1
302,304,305,314,1
299,300,303,313,1
296,297,301,310,1
294,296,300,309,1
295,299,301,308,1
296,302,303,307,1
296,306,304,306,1
297,309,305,305,1
299,311,308,304,1
300,311,310,303,1
301,312,313,302,1
302,312,316,302,1
303,313,318,304,1
305,315,319,308,1
307,317,319,311,1
308,317,317,313,1
309,317,313,313,1
309,315,309,313,1
309,315,306,312,1
309,315,305,311,1
309,315,304,309,1
310,315,304,309,1
310,315,305,309,1
310,314,305,311,1
310,314,305,313,1
309,312,306,314,1
308,311,307,314,1
306,309,307,314,1
305,307,307,314,1
304,306,307,313,1
303,305,306,313,1
304,306,307,312,1
309,307,309,313,1
314,309,313,314,1
317,312,315,314,1
319,313,316,314,1
319,313,316,313,1
317,310,315,311,1
313,308,313,309,1
310,306,312,308,1
307,304,310,308,1
306,304,309,308,1
305,304,308,307,1
306,305,307,307,1
306,305,304,308,1
307,306,303,308,1
308,307,302,309,1
309,309,302,310,1
311,310,302,311,1
311,311,304,310,1
312,312,306,309,1
312,311,306,306,1
312,311,305,303,1
312,309,304,301,1
310,308,303,299,1
308,305,301,297,1
306,304,302,295,1
305,303,303,295,1
306,303,304,297,1
308,304,306,299,1
308,305,307,300,1
309,306,308,301,1
309,308,309,300,1
308,308,309,299,1
304,307,308,297,1
300,306,306,296,1
297,304,305,297,1
297,304,305,301,1
300,308,305,308,1
304,313,307,314,1
306,316,309,319,1
307,317,309,322,1
307,316,310,323,1
308,314,310,324,1
308,312,310,324,1
309,309,310,323,1
309,306,309,320,1
308,301,306,317,1
305,297,302,313,1
304,293,298,308,1
301,289,295,304,1
299,286,294,302,1
297,285,294,301,1
297,285,296,301,1
297,285,299,301,1
299,287,302,301,1
301,289,304,302,1
302,293,305,301,1
303,297,305,301,1
303,300,305,302,1
304,302,305,304,1
303,302,306,306,1
303,301,305,306,1
303,300,305,307,1
306,300,305,310,1
309,302,307,315,1
311,305,308,319,1
312,308,308,322,1
313,310,309,323,1
313,311,310,322,1
312,312,311,321,1
312,311,312,319,1
312,310,313,317,1
312,309,313,315,1
311,308,312,312,1
310,307,311,311,1
308,305,309,309,1
306,304,308,307,1
304,303,306,305,1
303,302,305,303,1
303,303,304,300,1
304,304,304,298,1
306,306,303,296,1
309,307,301,295,1
312,309,298,294,1
314,310,294,295,1
316,312,292,297,1
318,313,290,301,1
318,314,290,304,1
316,313,290,305,1
311,310,291,305,1
306,307,292,303,1
302,304,294,301,1
301,304,299,302,1
302,307,304,305,1
303,309,308,309,1
304,311,310,312,1
303,311,312,314,1
302,310,312,314,1
302,309,312,315,1
303,307,311,315,1
303,305,310,316,1
305,306,309,317,1
306,306,309,319,1
308,307,309,320,1
309,307,309,321,1
308,308,307,322,1
308,308,307,323,1
307,308,306,322,1
307,309,306,323,1
309,310,305,324,1
310,311,304,324,1
310,311,303,324,1
309,309,303,324,1
308,307,302,323,1
306,304,299,320,1
305,302,296,318,1
304,299,294,315,1
302,297,292,311,1
301,296,291,306,1
300,296,292,302,1
301,298,294,302,1
302,300,298,302,1
304,301,301,303,1
304,302,304,304,1
305,303,307,306,1
306,303,308,309,1
306,303,309,311,1
306,304,309,313,1
306,305,308,314,1
305,305,307,314,1
304,307,305,314,1
304,309,303,313,1
303,311,301,310,1
303,313,298,307,1
302,315,294,304,1
301,317,291,302,1
302,320,290,302,1
304,323,291,303,1
306,322,294,304,1
306,319,298,305,1
303,313,302,305,1
301,306,305,306,1
301,302,307,306,1
300,296,306,305,1
300,291,305,304,1
301,285,303,303,1
301,281,302,303,1
301,280,301,303,1
302,282,302,303,1
303,286,304,306,1
305,291,306,310,1
307,294,308,313,1
309,298,310,316,1
311,300,311,319,1
312,302,311,321,1
311,304,309,322,1
310,304,308,322,1
310,304,306,321,1
310,304,304,319,1
309,304,303,316,1
308,303,302,314,1
307,302,303,311,1
307,302,305,307,1
308,302,307,305,1
311,304,308,305,1
315,305,310,307,1
318,305,311,310,1
319,305,312,314,1
318,305,313,317,1
315,305,314,319,1
311,304,313,319,1
307,303,313,318,1
303,303,312,315,1
300,302,311,313,1
297,301,311,311,1
296,302,310,309,1
296,303,309,308,1
296,303,306,306,1
294,301,303,303,1
294,299,299,299,1
293,297,297,296,1
293,298,297,296,1
294,300,298,296,1
296,302,300,299,1
298,304,305,303,1
301,307,310,307,1
304,308,314,312,1
307,309,316,315,1
309,308,316,315,1
308,307,314,312,1
307,306,313,308,1
306,305,310,304,1
305,305,307,301,1
304,304,304,299,1
303,305,301,299,1
303,307,300,301,1
302,309,300,303,1
302,310,300,305,1
301,311,301,305,1
302,311,302,304,1
304,312,304,305,1
307,315,307,307,1
310,318,311,309,1
311,320,313,309,1
311,320,314,309,1
311,318,314,308,1
310,317,314,308,1
309,314,313,308,1
307,311,312,307,1
304,308,310,306,1
303,307,309,306,1
303,308,308,306,1
302,309,306,305,1
303,311,303,305,1
303,313,302,306,1
304,316,301,308,1
304,318,301,311,1
305,319,301,312,1
306,319,302,313,1
307,319,302,313,1
308,319,302,312,1
308,320,303,312,1
309,322,305,311,1
310,323,307,311,1
311,322,308,311,1
311,318,309,311,1
310,314,310,311,1
309,311,310,311,1
309,307,310,310,1
309,303,310,307,1
310,298,310,305,1
311,293,310,304,1
311,290,311,306,1
311,290,312,308,1
311,292,312,310,1
309,293,312,311,1
305,295,310,311,1
301,298,308,311,1
298,300,306,310,1
297,302,304,310,1
297,303,303,308,1
297,304,302,307,1
297,305,303,305,1
297,305,304,303,1
297,304,305,302,1
297,304,305,302,1
297,303,306,302,1
298,303,304,303,1
299,302,302,302,1
301,301,299,302,1
302,302,295,301,1
303,303,294,300,1
303,303,294,298,1
304,303,297,297,1
305,303,301,297,1
306,304,305,297,1
308,306,308,297,1
309,307,310,297,1
310,307,311,297,1
309,306,311,297,1
308,306,311,298,1
307,306,312,300,1
308,306,312,302,1
308,306,312,304,1
307,307,313,307,1
307,308,314,311,1
306,309,315,313,1
304,308,315,315,1
301,309,314,315,1
301,309,313,315,1
302,310,313,314,1
303,311,314,312,1
303,311,314,309,1
304,310,312,306,1
304,308,311,302,1
304,307,308,299,1
304,305,306,295,1
304,304,303,293,1
304,304,301,293,1
305,306,300,294,1
306,306,300,296,1
308,307,301,297,1
308,307,303,300,1
307,307,305,303,1
305,306,308,306,1
302,305,310,309,1
300,304,310,311,1
300,303,311,313,1
302,304,312,316,1
303,306,311,318,1
303,307,310,319,1
303,307,309,318,1
304,307,309,317,1
305,308,308,315,1
305,308,308,311,1
305,308,307,305,1
306,307,308,299,1
305,304,308,293,1
304,301,309,290,1
303,299,310,290,1
302,299,311,292,1
303,299,312,294,1
303,300,312,296,1
303,302,312,298,1
303,303,310,299,1
303,303,309,300,1
303,302,308,301,1
302,300,307,302,1
302,297,306,302,1
301,294,307,302,1
301,294,308,304,1
302,296,309,306,1
304,298,308,307,1
305,300,307,308,1
307,303,308,308,1
308,304,308,309,1
310,305,309,310,1
313,307,312,312,1
317,308,315,312,1
318,309,317,310,1
318,309,317,308,1
316,310,316,306,1
314,311,315,305,1
312,312,313,303,1
309,313,311,302,1
307,315,309,303,1
306,317,306,305,1
306,319,305,306,1
306,319,303,307,1
306,317,302,307,1
304,313,301,306,1
301,307,301,304,1
298,302,301,304,1
295,297,302,306,1
293,296,302,307,1
293,295,302,309,1
293,295,305,311,1
296,295,309,312,1
297,296,312,311,1
298,297,313,310,1
300,297,314,310,1
304,298,313,310,1
306,299,312,310,1
306,300,311,310,1
306,300,309,310,1
305,299,308,309,1
303,297,307,307,1
301,295,307,304,1
298,294,306,302,1
296,293,304,299,1
294,293,303,297,1
293,293,301,296,1
292,295,300,299,1
292,296,301,303,1
294,297,303,308,1
296,298,305,313,1
298,299,306,316,1
299,300,307,319,1
300,301,307,321,1
301,303,306,322,1
301,304,304,321,1
300,305,302,319,1
299,306,301,316,1
299,307,301,313,1
299,308,302,311,1
301,308,305,311,1
303,309,307,313,1
305,310,309,316,1
306,310,310,318,1
306,310,311,317,1
306,309,311,314,1
305,307,310,309,1
304,306,309,303,1
303,304,308,298,1
303,302,306,295,1
303,299,304,294,1
303,298,302,295,1
303,300,302,300,1
304,303,303,306,1
306,305,306,312,1
307,308,308,315,1
308,311,310,319,1
309,313,311,321,1
308,313,311,322,1
308,314,310,322,1
308,314,308,320,1
309,314,306,318,1
311,315,305,315,1
314,317,305,315,1
316,320,307,315,1
318,323,309,315,1
319,324,310,314,1
317,324,310,313,1
313,320,308,312,1
309,315,306,311,1
306,309,304,310,1
305,303,304,309,1
305,297,304,308,1
305,293,305,307,1
306,291,306,305,1
307,291,307,304,1
308,291,307,302,1
309,292,307,301,1
308,294,307,302,1
307,297,308,305,1
307,301,309,307,1
306,302,309,308,1
305,303,308,307,1
304,303,306,307,1
303,303,304,308,1
302,303,301,308,1
301,304,299,308,1
300,304,297,306,1
298,304,293,304,1
295,303,290,302,1
293,302,287,301,1
291,301,286,302,1
290,300,287,302,1
291,299,289,303,1
292,300,293,305,1
296,302,296,310,1
299,306,299,315,1
303,310,300,318,1
305,314,299,319,1
307,318,298,319,1
309,321,298,318,1
311,322,301,318,1
311,323,303,318,1
311,321,306,318,1
311,319,309,318,1
312,314,312,317,1
313,310,314,317,1
313,306,315,316,1
313,304,315,315,1
313,302,315,313,1
311,301,316,311,1
311,300,315,309,1
310,299,315,308,1
310,298,315,307,1
309,298,315,306,1
309,298,314,304,1
308,298,313,303,1
307,300,311,302,1
306,301,309,301,1
305,304,308,300,1
305,306,306,301,1
305,309,306,302,1
306,312,305,304,1
307,313,304,306,1
307,312,303,306,1
307,311,303,308,1
310,310,304,310,1
312,309,306,312,1
313,308,307,314,1
312,307,308,314,1
308,305,309,314,1
305,303,308,312,1
304,303,309,311,1
304,304,309,310,1
304,305,310,309,1
304,306,311,308,1
305,306,311,307,1
307,306,312,307,1
309,307,313,309,1
310,308,314,312,1
311,309,313,315,1
311,310,313,317,1
311,310,311,318,1
310,309,308,316,1
309,309,306,313,1
309,309,305,312,1
309,310,305,311,1
309,311,305,311,1
310,312,306,312,1
309,312,306,312,1
309,311,304,313,1
310,310,302,312,1
310,308,299,310,1
309,306,298,307,1
307,303,296,304,1
305,299,295,301,1
303,296,295,300,1
301,295,296,302,1
300,296,294,304,1
299,297,292,305,1
298,298,291,306,1
298,300,291,308,1
299,303,292,311,1
299,305,294,315,1
299,308,297,319,1
301,309,303,322,1
302,310,308,323,1
304,310,311,322,1
305,310,313,321,1
306,310,314,320,1
306,310,314,318,1
307,310,314,315,1
307,309,314,314,1
307,308,313,313,1
307,307,312,313,1
306,307,311,313,1
307,307,310,314,1
307,308,310,315,1
307,309,310,315,1
307,311,309,315,1
307,312,308,313,1
307,312,307,312,1
306,313,305,310,1
306,314,303,310,1
305,315,302,309,1
305,315,302,308,1
306,313,302,305,1
307,311,302,302,1
309,309,302,298,1
309,306,302,294,1
309,303,302,290,1
310,302,303,289,1
311,300,303,290,1
310,299,304,293,1
308,298,304,295,1
304,295,304,297,1
301,293,302,299,1
298,292,300,301,1
295,291,299,303,1
295,291,299,304,1
296,292,300,305,1
297,295,302,305,1
301,300,305,306,1
302,305,307,307,1
304,308,308,307,1
305,309,307,306,1
306,310,306,304,1
306,310,305,304,1
306,311,306,305,1
306,313,307,307,1
307,317,309,310,1
308,321,310,312,1
309,324,311,314,1
310,326,312,316,1
311,329,312,318,1
311,329,312,318,1
310,328,311,317,1
309,324,309,317,1
309,320,308,316,1
309,315,307,316,1
310,311,308,317,1
311,309,308,317,1
311,306,308,318,1
311,303,307,317,1
311,298,306,313,1
309,295,302,309,1
308,292,300,306,1
307,291,298,305,1
308,293,296,305,1
307,295,296,305,1
306,298,296,305,1
305,300,297,305,1
305,302,299,305,1
307,304,300,304,1
307,305,300,303,1
307,306,300,301,1
307,306,299,299,1
308,305,297,297,1
309,304,297,295,1
309,304,298,295,1
309,306,300,297,1
309,307,302,299,1
307,307,304,301,1
304,305,305,302,1
302,304,306,302,1
300,302,307,302,1
300,301,307,302,1
301,300,308,302,1
303,299,310,302,1
304,298,309,302,1
305,298,307,302,1
307,297,306,302,1
309,297,305,303,1
311,299,305,305,1
313,303,306,307,1
314,305,306,310,1
315,306,306,311,1
314,307,304,312,1
313,308,303,312,1
311,308,302,311,1
309,308,303,311,1
307,308,307,312,1
307,308,309,313,1
307,308,310,312,1
308,307,310,310,1
307,306,308,306,1
306,304,305,302,1
305,302,302,297,1
304,301,299,292,1
303,300,298,288,1
302,299,298,285,1
301,298,300,283,1
301,297,302,283,1
302,297,304,287,1
303,299,305,293,1
305,302,306,298,1
306,304,306,302,1
307,305,305,305,1
308,307,305,309,1
309,309,305,313,1
309,311,304,317,1
307,313,302,319,1
306,313,298,320,1
304,313,296,320,1
304,313,295,319,1
303,311,295,316,1
303,309,297,313,1
302,307,300,311,1
301,307,304,310,1
301,307,306,309,1
302,306,308,309,1
302,306,309,309,1
302,307,309,309,1
302,307,309,309,1
303,308,309,310,1
305,309,310,310,1
307,310,311,310,1
309,311,311,311,1
310,312,311,311,1
311,313,311,311,1
313,313,310,311,1
315,314,309,310,1
317,313,308,308,1
319,313,307,306,1
320,314,306,305,1
320,313,305,303,1
318,312,304,302,1
315,311,304,302,1
313,310,304,302,1
313,311,304,302,1
314,311,303,303,1
313,310,302,303,1
310,309,300,302,1
308,308,298,300,1
307,306,296,297,1
306,305,295,294,1
306,304,294,291,1
305,305,293,290,1
306,310,293,293,1
307,316,294,296,1
308,321,294,298,1
308,323,295,300,1
308,325,296,301,1
308,326,298,302,1
309,326,302,303,1
310,327,306,306,1
311,328,309,310,1
312,326,310,314,1
312,323,310,316,1
311,319,308,318,1
310,315,305,318,1
309,311,301,316,1
309,306,298,312,1
310,300,296,309,1
311,297,297,306,1
312,294,301,305,1
313,293,304,304,1
313,293,307,305,1
312,293,308,305,1
309,292,307,304,1
307,292,307,304,1
305,292,307,304,1
305,292,307,304,1
305,291,306,302,1
304,290,305,298,1
305,290,303,295,1
305,293,303,293,1
306,294,301,290,1
306,295,300,288,1
306,296,299,285,1
306,297,299,285,1
307,299,299,288,1
307,301,300,295,1
306,305,302,302,1
307,307,303,308,1
308,308,304,313,1
308,307,304,315,1
307,304,304,317,1
305,302,304,315,1
303,299,303,313,1
301,297,302,310,1
300,294,302,309,1
299,293,303,308,1
300,294,304,310,1
300,295,305,311,1
301,296,306,312,1
302,297,306,311,1
304,298,306,311,1
307,301,305,310,1
310,304,304,310,1
313,308,304,311,1
316,311,305,314,1
317,313,307,317,1
316,315,308,319,1
313,315,309,322,1
309,315,309,323,1
306,314,309,323,1
303,313,308,322,1
302,312,307,320,1
303,311,306,319,1
303,312,305,317,1
303,312,302,315,1
302,312,298,313,1
301,311,295,309,1
300,310,294,306,1
300,310,295,305,1
301,310,298,306,1
304,311,303,310,1
306,311,306,314,1
309,311,308,316,1
310,310,308,317,1
309,309,308,316,1
308,307,308,316,1
308,307,310,316,1
308,307,311,316,1
309,308,313,316,1
310,308,313,316,1
310,307,312,315,1
309,306,311,314,1
307,306,310,314,1
305,307,311,314,1
304,307,310,313,1
305,306,310,312,1
305,306,309,310,1
306,306,308,310,1
306,307,308,309,1
307,308,307,309,1
307,310,307,308,1
308,310,305,308,1
307,310,302,307,1
307,308,299,307,1
307,306,297,305,1
307,303,296,302,1
306,301,296,300,1
305,300,296,300,1
304,300,299,301,1
305,301,305,303,1
306,303,309,306,1
308,306,311,309,1
309,307,311,312,1
309,308,311,313,1
309,307,310,313,1
309,305,309,312,1
307,305,309,311,1
305,304,308,311,1
304,305,308,312,1
303,305,309,313,1
302,304,309,312,1
303,303,310,312,1
306,304,311,311,1
308,305,312,311,1
311,307,312,309,1
313,307,310,308,1
314,307,310,307,1
314,306,309,307,1
313,305,309,307,1
312,303,309,306,1
311,301,308,306,1
309,300,307,306,1
307,300,306,307,1
307,302,306,309,1
307,304,306,311,1
308,308,307,314,1
308,311,307,317,1
308,315,307,319,1
308,317,308,320,1
307,319,308,321,1
306,320,307,320,1
305,321,304,318,1
303,321,300,317,1
301,320,296,315,1
300,320,293,314,1
299,322,292,314,1
298,323,292,314,1
297,324,293,313,1
297,322,295,312,1
297,319,297,310,1
300,315,301,309,1
303,312,304,309,1
306,309,308,310,1
308,307,310,312,1
310,304,310,313,1
311,301,310,313,1
311,297,309,314,1
311,295,309,314,1
312,294,309,314,1
313,294,309,315,1
315,296,310,315,1
316,299,310,316,1
318,301,310,317,1
319,302,310,316,1
320,303,308,314,1
319,303,306,313,1
317,304,305,312,1
315,303,304,311,1
312,303,303,310,1
309,301,300,309,1
306,299,297,308,1
303,296,293,307,1
302,295,291,307,1
303,296,291,308,1
304,297,294,310,1
305,299,297,311,1
307,300,300,312,1
308,301,303,311,1
310,301,304,309,1
311,300,304,307,1
311,300,304,304,1
311,301,306,302,1
311,300,308,299,1
310,299,309,295,1
309,300,310,294,1
308,301,310,296,1
308,303,311,301,1
308,304,312,306,1
309,304,312,311,1
310,303,311,314,1
310,303,311,315,1
310,303,310,316,1
309,302,309,315,1
307,302,307,314,1
305,302,306,311,1
303,302,304,308,1
301,303,302,306,1
299,304,300,305,1
298,304,299,304,1
298,303,299,302,1
299,303,299,301,1
301,303,301,300,1
303,305,303,303,1
305,309,305,306,1
306,311,305,309,1
306,312,305,310,1
305,311,305,310,1
305,309,305,310,1
305,307,305,310,1
307,305,305,311,1
308,303,306,311,1
309,301,306,310,1
309,300,305,309,1
307,299,305,307,1
306,299,305,305,1
305,299,304,304,1
304,300,303,303,1
303,299,301,302,1
302,300,300,302,1
301,302,299,302,1
300,304,298,303,1
300,305,298,303,1
299,305,299,304,1
299,305,299,305,1
299,305,300,307,1
300,306,301,310,1
301,307,303,313,1
304,307,304,316,1
306,307,306,317,1
308,307,306,318,1
309,307,305,317,1
308,307,305,316,1
307,306,304,315,1
306,306,302,314,1
306,306,301,313,1
305,305,299,313,1
304,306,298,314,1
304,306,297,313,1
303,307,297,312,1
302,307,297,311,1
301,308,297,309,1
300,307,297,307,1
300,305,297,304,1
302,304,297,302,1
304,304,297,299,1
307,303,298,296,1
309,304,299,294,1
310,305,301,293,1
311,308,304,293,1
310,310,307,296,1
309,312,310,299,1
308,314,311,302,1
307,314,312,304,1
307,311,312,305,1
307,307,311,306,1
307,304,312,308,1
308,303,313,311,1
308,302,314,314,1
309,302,316,316,1
308,302,316,317,1
306,301,315,316,1
304,300,314,315,1
303,300,314,314,1
304,301,313,313,1
305,301,313,312,1
307,300,312,309,1
307,299,312,304,1
306,297,310,299,1
304,295,308,294,1
303,292,307,289,1
303,291,306,288,1
304,292,306,289,1
304,296,305,293,1
304,301,304,299,1
303,305,300,302,1
303,307,297,303,1
304,307,293,302,1
305,307,292,301,1
306,307,294,299,1
305,308,298,299,1
304,308,301,302,1
302,307,305,305,1
300,307,306,308,1
299,306,307,310,1
299,307,309,312,1
301,308,311,313,1
302,309,313,313,1
302,310,314,312,1
301,310,314,311,1
301,310,314,311,1
301,310,314,311,1
301,310,313,312,1
302,309,312,312,1
302,308,311,310,1
302,307,309,308,1
301,306,307,306,1
301,306,306,305,1
301,306,304,305,1
301,307,303,306,1
302,309,302,309,1
304,312,303,311,1
305,315,303,313,1
308,318,304,314,1
310,319,304,314,1
312,319,305,312,1
312,319,304,309,1
311,319,302,305,1
309,319,296,300,1
307,318,291,295,1
304,317,286,291,1
301,314,285,287,1
299,310,286,287,1
299,308,292,290,1
301,307,299,297,1
304,306,307,304,1
307,304,313,309,1
310,301,316,313,1
313,298,318,315,1
315,295,317,316,1
315,292,316,315,1
314,290,313,314,1
311,290,312,312,1
309,291,311,310,1
307,293,310,308,1
306,296,309,306,1
305,298,309,304,1
305,299,307,301,1
305,300,305,300,1
304,300,304,300,1
304,301,304,301,1
305,301,304,303,1
306,301,303,305,1
306,302,303,307,1
307,304,304,309,1
309,306,305,310,1
310,308,305,310,1
310,310,305,310,1
309,310,304,310,1
307,309,304,308,1
306,307,303,306,1
305,303,303,303,1
304,300,303,298,1
302,297,303,293,1
300,295,303,290,1
298,294,302,288,1
297,294,301,289,1
298,295,300,292,1
298,297,300,294,1
299,300,299,295,1
300,302,297,295,1
301,303,296,295,1
302,304,297,297,1
305,308,300,299,1
309,311,303,301,1
311,313,307,304,1
312,315,308,306,1
310,316,307,309,1
308,317,305,310,1
305,316,304,310,1
303,315,303,308,1
302,312,304,305,1
300,308,306,302,1
299,307,308,299,1
299,307,311,297,1
300,307,311,295,1
301,306,310,293,1
302,304,307,291,1
302,303,303,291,1
303,302,301,292,1
304,303,301,295,1
305,303,301,297,1
304,302,302,299,1
303,302,305,301,1
303,304,308,303,1
304,306,310,306,1
307,308,313,308,1
309,309,313,309,1
311,310,312,309,1
311,310,310,309,1
311,308,308,307,1
310,306,306,306,1
310,305,304,306,1
312,304,303,307,1
314,303,302,308,1
317,303,302,309,1
317,302,303,308,1
316,299,302,304,1
314,297,303,300,1
313,296,304,298,1
314,298,307,298,1
315,299,309,301,1
316,301,310,304,1
316,302,311,307,1
317,303,311,310,1
317,305,311,312,1
318,309,311,314,1
315,312,311,314,1
310,313,309,314,1
305,315,307,314,1
303,317,307,314,1
302,318,306,314,1
303,319,306,313,1
304,319,305,311,1
304,318,305,308,1
304,317,305,305,1
303,314,305,302,1
302,311,305,300,1
301,309,304,299,1
302,308,304,300,1
302,308,305,302,1
304,309,306,303,1
305,310,307,306,1
306,310,308,309,1
306,310,307,311,1
306,309,306,311,1
306,306,305,311,1
306,303,303,311,1
306,301,301,311,1
307,299,300,311,1
309,298,299,311,1
311,297,299,310,1
311,296,300,309,1
312,295,302,306,1
312,295,303,304,1
312,295,304,302,1
311,295,305,302,1
310,297,307,302,1
310,300,309,302,1
311,303,312,301,1
311,305,314,302,1
311,307,316,303,1
312,308,316,305,1
312,309,316,308,1
313,309,314,310,1
313,309,313,311,1
312,309,312,310,1
310,308,310,309,1
309,307,308,307,1
310,305,305,305,1
310,304,303,302,1
310,302,300,300,1
309,301,298,299,1
309,300,297,298,1
308,299,296,298,1
305,299,296,299,1
304,300,298,300,1
303,301,301,300,1
303,302,304,299,1
304,303,305,298,1
306,304,306,298,1
308,307,306,299,1
311,311,307,302,1
313,314,308,306,1
314,316,309,311,1
313,317,311,314,1
313,318,311,316,1
313,318,310,317,1
312,318,309,316,1
313,318,308,315,1
313,317,307,313,1
312,314,306,309,1
310,311,305,303,1
307,306,304,299,1
304,301,304,295,1
300,297,303,293,1
298,295,302,295,1
298,295,302,299,1
299,298,304,306,1
302,302,306,312,1
306,306,308,315,1
308,310,310,316,1
308,313,310,314,1
307,315,310,311,1
306,317,309,307,1
305,316,307,304,1
304,316,306,301,1
305,318,306,302,1
307,320,308,305,1
310,320,309,308,1
311,320,312,310,1
310,319,313,311,1
308,320,314,310,1
307,321,313,308,1
305,322,311,306,1
305,323,311,306,1
306,326,311,309,1
308,328,311,313,1
310,330,312,317,1
311,328,311,320,1
309,323,310,321,1
307,315,309,321,1
305,308,307,320,1
303,302,305,318,1
302,298,304,316,1
302,297,303,315,1
303,297,302,313,1
306,298,303,312,1
308,300,304,310,1
310,301,306,309,1
311,302,308,307,1
312,304,309,306,1
312,305,309,305,1
311,306,308,305,1
309,306,307,305,1
308,307,306,306,1
307,309,306,308,1
305,310,306,308,1
302,311,307,309,1
300,311,308,309,1
298,311,308,309,1
298,310,308,307,1
297,310,308,306,1
297,312,309,306,1
297,314,309,308,1
299,315,310,309,1
301,315,311,310,1
302,314,310,310,1
302,312,308,309,1
301,310,306,308,1
300,309,303,306,1
298,307,301,304,1
298,306,300,304,1
299,307,299,306,1
302,309,300,308,1
304,309,300,309,1
305,308,299,309,1
305,304,295,308,1
305,301,292,308,1
306,299,291,307,1
306,298,293,305,1
308,299,298,304,1
309,303,303,308,1
311,309,308,313,1
311,312,312,317,1
309,312,315,317,1
308,311,316,316,1
307,310,318,314,1
307,309,320,311,1
307,308,321,309,1
307,307,320,308,1
307,306,320,307,1
307,304,318,307,1
308,302,316,305,1
307,300,314,303,1
306,300,312,302,1
305,302,311,304,1
306,308,312,307,1
306,315,313,311,1
306,322,314,314,1
307,326,314,316,1
307,328,313,317,1
308,328,311,315,1
309,327,309,312,1
309,324,309,309,1
310,320,309,308,1
310,316,311,308,1
310,311,312,307,1
310,308,313,307,1
310,305,313,307,1
310,303,314,308,1
311,301,315,308,1
312,298,315,308,1
312,295,316,307,1
311,291,316,306,1
310,289,315,304,1
308,288,315,303,1
308,289,315,304,1
308,293,316,307,1
308,299,318,312,1
308,304,319,316,1
307,309,319,319,1
305,310,317,321,1
304,310,316,322,1
304,310,315,323,1
306,310,315,324,1
310,309,316,324,1
313,309,317,324,1
314,308,316,322,1
312,307,315,319,1
309,305,313,316,1
306,304,311,314,1
304,304,309,313,1
302,304,307,313,1
302,305,305,314,1
303,305,304,315,1
303,304,301,315,1
302,301,297,312,1
302,298,295,308,1
302,297,294,304,1
303,296,295,299,1
304,298,298,296,1
305,300,301,296,1
308,302,304,295,1
309,304,307,296,1
310,306,310,299,1
311,309,313,303,1
313,313,315,306,1
314,315,316,309,1
314,316,317,312,1
314,316,317,314,1
315,317,316,317,1
316,318,314,318,1
316,318,313,318,1
316,318,312,317,1
315,316,312,315,1
314,315,312,313,1
312,313,311,311,1
309,311,310,308,1
308,309,309,306,1
306,307,308,304,1
304,307,308,303,1
303,307,309,304,1
302,307,308,304,1
300,307,307,305,1
298,307,306,306,1
297,309,307,309,1
298,309,308,312,1
299,309,309,313,1
299,307,309,314,1
298,306,309,314,1
298,304,309,314,1
297,303,309,313,1
296,302,308,310,1
296,302,307,305,1
297,302,305,300,1
300,304,305,298,1
302,308,306,299,1
305,310,306,300,1
306,312,305,303,1
307,314,305,305,1
307,316,304,309,1
307,317,304,311,1
309,316,303,312,1
308,315,302,313,1
307,313,301,313,1
306,312,301,314,1
305,312,301,315,1
305,312,302,316,1
305,312,302,318,1
304,312,302,318,1
303,312,301,317,1
301,312,300,317,1
299,312,299,317,1
299,311,298,316,1
300,310,299,315,1
302,309,301,314,1
304,308,304,313,1
307,307,307,314,1
309,305,310,314,1
310,304,313,315,1
311,304,314,315,1
312,303,315,315,1
314,303,316,315,1
314,302,315,314,1
314,301,314,312,1
313,300,312,309,1
313,299,310,306,1
313,298,308,305,1
312,298,305,305,1
312,299,304,305,1
311,300,302,304,1
310,301,300,303,1
308,303,299,303,1
307,305,298,302,1
307,308,298,302,1
307,309,299,303,1
307,309,301,303,1
310,310,302,303,1
313,311,304,303,1
317,312,305,303,1
317,313,305,303,1
315,312,304,303,1
312,309,302,304,1
308,307,300,304,1
305,305,300,307,1
305,307,302,311,1
308,312,306,316,1
313,318,308,318,1
316,323,308,317,1
318,328,308,315,1
319,330,307,313,1
320,331,305,310,1
317,328,303,306,1
313,323,301,302,1
308,316,298,297,1
304,309,296,292,1
302,303,295,288,1
302,299,295,288,1
302,297,296,292,1
302,297,296,298,1
302,297,297,304,1
302,298,299,308,1
302,298,300,311,1
302,297,302,313,1
302,296,303,314,1
302,297,304,314,1
304,299,304,314,1
305,301,305,315,1
308,302,306,316,1
310,303,307,317,1
310,304,306,318,1
311,303,305,319,1
310,302,303,318,1
309,301,300,317,1
309,301,297,317,1
310,301,296,316,1
312,302,296,315,1
313,303,297,313,1
313,303,299,311,1
313,304,300,309,1
313,304,302,308,1
312,303,302,307,1
311,300,302,306,1
308,299,301,304,1
306,300,301,303,1
307,304,302,304,1
307,308,302,303,1
308,309,301,301,1
309,308,301,297,1
309,305,301,293,1
309,301,301,291,1
309,298,300,289,1
308,295,299,290,1
307,294,300,292,1
308,294,300,297,1
307,295,301,301,1
307,297,300,304,1
306,300,301,308,1
306,303,303,312,1
307,306,306,313,1
308,307,308,314,1
309,307,310,313,1
309,307,310,312,1
310,307,310,312,1
311,307,311,312,1
312,308,311,312,1
312,309,310,312,1
312,310,310,312,1
312,310,310,313,1
313,311,310,313,1
312,310,310,312,1
310,309,308,311,1
308,307,306,311,1
305,305,305,310,1
304,304,304,308,1
305,305,303,307,1
305,306,302,306,1
306,307,301,304,1
306,307,300,302,1
305,306,300,298,1
304,304,299,296,1
302,304,299,297,1
300,305,300,300,1
300,307,300,304,1
299,307,298,307,1
299,307,296,308,1
298,306,294,310,1
297,306,293,311,1
297,306,294,312,1
298,307,297,314,1
299,308,300,315,1
301,309,302,316,1
303,310,304,317,1
305,312,305,318,1
306,315,306,319,1
306,319,308,318,1
306,322,309,316,1
306,323,309,314,1
305,323,308,313,1
304,323,308,311,1
304,322,306,309,1
303,320,304,307,1
304,318,302,305,1
305,315,302,302,1
306,312,302,301,1
306,308,303,301,1
305,305,304,302,1
304,302,306,304,1
304,298,306,306,1
304,294,307,307,1
305,290,305,306,1
304,286,304,303,1
303,285,301,300,1
302,284,299,298,1
301,284,296,297,1
302,285,293,297,1
304,287,293,299,1
305,290,294,302,1
306,293,295,304,1
307,296,298,306,1
307,298,302,309,1
308,302,305,312,1
308,306,307,314,1
307,309,306,315,1
305,309,304,315,1
301,308,301,314,1
298,306,299,314,1
296,305,297,315,1
296,303,296,318,1
297,302,297,319,1
298,301,299,320,1
301,301,302,319,1
303,301,304,317,1
304,301,306,314,1
304,301,306,312,1
303,300,307,311,1
303,301,307,312,1
304,302,306,312,1
304,302,304,313,1
304,301,303,313,1
304,300,302,314,1
303,300,301,315,1
303,299,300,316,1
302,299,301,316,1
302,299,301,313,1
300,297,301,309,1
298,296,301,306,1
296,297,300,305,1
295,299,300,305,1
294,302,298,305,1
294,305,296,303,1
295,305,294,301,1
296,305,292,299,1
297,304,292,299,1
299,305,293,301,1
301,307,296,304,1
303,307,299,307,1
304,306,301,308,1
306,304,304,308,1
309,302,307,307,1
312,302,309,307,1
315,304,311,308,1
318,305,312,309,1
319,306,312,310,1
319,306,311,310,1
317,305,309,309,1
312,303,306,308,1
308,302,303,308,1
304,300,301,307,1
302,299,300,306,1
301,299,301,304,1
301,300,303,303,1
301,300,305,302,1
301,299,308,303,1
302,300,309,305,1
302,300,309,308,1
304,301,308,310,1
305,300,306,309,1
306,299,303,309,1
307,299,301,308,1
307,300,300,308,1
306,300,302,308,1
305,302,304,309,1
304,303,306,310,1
304,304,307,309,1
303,306,309,310,1
303,308,310,311,1
304,309,311,312,1
303,310,310,312,1
302,309,308,310,1
300,308,305,308,1
299,306,303,306,1
299,305,301,306,1
299,302,301,306,1
300,300,303,308,1
303,298,305,310,1
304,298,308,311,1
305,299,310,311,1
305,301,312,310,1
305,305,314,310,1
304,309,315,311,1
303,312,316,313,1
301,315,317,314,1
300,316,316,316,1
299,315,316,317,1
300,314,315,316,1
300,311,314,315,1
302,308,311,312,1
302,305,307,310,1
302,304,303,308,1
301,303,302,307,1
300,304,300,307,1
300,303,301,306,1
299,302,302,304,1
299,301,303,302,1
300,300,304,301,1
301,299,305,300,1
302,301,306,301,1
305,304,307,303,1
307,307,307,306,1
308,309,308,307,1
309,310,308,308,1
310,308,308,309,1
309,307,308,309,1
308,304,307,309,1
308,302,307,308,1
307,300,306,309,1
306,300,306,310,1
306,301,307,311,1
307,303,308,311,1
309,304,307,310,1
311,304,306,309,1
314,305,304,308,1
316,306,304,308,1
317,307,304,308,1
317,306,305,308,1
314,306,306,308,1
310,304,308,309,1
307,303,309,310,1
304,300,309,310,1
300,298,309,310,1
296,297,309,310,1
295,297,310,310,1
295,298,310,308,1
296,298,308,304,1
299,299,304,300,1
300,300,301,297,1
301,302,299,295,1
301,303,299,296,1
302,302,300,296,1
302,302,302,299,1
302,303,305,305,1
304,306,307,312,1
306,310,308,317,1
307,313,308,320,1
307,314,306,321,1
306,314,304,321,1
307,313,303,320,1
306,312,303,319,1
307,311,302,317,1
307,310,302,316,1
307,309,301,316,1
307,309,301,316,1
307,308,301,315,1
304,307,301,313,1
302,307,301,312,1
300,306,302,311,1
298,306,303,310,1
297,306,304,310,1
297,306,306,311,1
298,306,307,310,1
299,304,308,308,1
300,302,308,305,1
300,301,308,304,1
301,300,307,303,1
302,299,307,302,1
302,298,307,302,1
302,296,306,300,1
302,294,304,298,1
301,293,302,296,1
301,293,302,294,1
303,295,304,292,1
305,299,306,293,1
307,303,309,296,1
308,307,309,299,1
308,309,309,301,1
307,313,308,304,1
308,317,308,307,1
309,321,308,310,1
311,324,310,313,1
313,326,310,315,1
313,327,311,316,1
313,326,311,315,1
313,326,311,314,1
312,325,312,313,1
311,324,312,313,1
309,321,310,312,1
308,317,308,312,1
306,314,306,311,1
305,310,303,310,1
305,308,302,310,1
305,306,301,310,1
307,303,300,309,1
309,299,299,307,1
311,297,298,305,1
312,294,298,303,1
311,293,298,300,1
309,293,300,299,1
308,294,302,300,1
308,296,306,303,1
309,300,308,306,1
310,303,309,309,1
311,305,309,310,1
311,308,309,311,1
310,310,308,309,1
309,311,307,307,1
307,312,305,304,1
304,311,303,301,1
302,309,301,300,1
300,307,298,299,1
299,306,296,300,1
300,307,295,303,1
302,309,297,307,1
303,310,300,310,1
303,310,303,312,1
303,311,306,313,1
303,311,308,314,1
302,310,311,316,1
301,309,314,316,1
300,310,317,317,1
300,312,320,318,1
302,313,322,318,1
303,315,323,316,1
303,317,322,315,1
304,318,321,314,1
305,319,320,313,1
305,319,318,313,1
306,319,317,313,1
307,318,317,313,1
307,318,316,313,1
308,317,314,313,1
308,317,313,314,1
308,316,311,315,1
307,315,310,316,1
307,314,309,316,1
305,313,307,316,1
303,311,306,316,1
301,308,306,314,1
300,307,305,314,1
300,307,306,313,1
301,308,306,311,1
302,310,306,307,1
303,311,306,304,1
305,313,307,302,1
306,313,308,301,1
307,313,308,300,1
306,313,308,300,1
305,312,308,301,1
306,312,309,304,1
306,313,310,306,1
307,313,310,308,1
308,313,309,309,1
309,312,309,310,1
309,310,308,310,1
309,308,306,310,1
310,306,305,310,1
310,304,302,308,1
310,304,299,306,1
310,304,297,305,1
309,305,295,305,1
308,306,292,305,1
307,307,290,304,1
305,307,289,304,1
303,306,290,302,1
302,306,294,301,1
303,306,298,302,1
304,307,302,305,1
307,309,305,309,1
309,312,307,313,1
311,314,308,316,1
313,314,308,318,1
315,315,309,319,1
317,315,311,320,1
316,314,312,320,1
314,313,312,319,1
310,310,311,317,1
307,309,310,316,1
304,308,309,314,1
303,308,307,311,1
301,307,304,307,1
301,307,301,302,1
301,306,299,297,1
302,305,297,293,1
302,304,296,289,1
303,303,295,287,1
303,303,294,285,1
303,301,292,284,1
301,300,292,283,1
300,300,292,284,1
299,302,294,288,1
300,306,297,293,1
301,308,299,298,1
303,313,300,304,1
305,318,304,311,1
308,325,309,318,1
312,330,313,325,1
316,333,317,330,1
317,331,320,332,1
317,327,322,333,1
317,322,322,331,1
316,317,322,328,1
315,313,322,324,1
313,310,321,320,1
311,307,319,316,1
308,304,316,313,1
306,301,314,310,1
306,298,312,309,1
305,297,310,308,1
304,296,309,309,1
303,296,309,310,1
302,296,308,311,1
302,297,308,311,1
302,297,308,310,1
303,298,308,310,1
303,299,308,308,1
305,301,307,308,1
306,302,307,307,1
308,303,306,307,1
308,302,305,308,1
309,302,305,308,1
310,302,304,308,1
309,302,302,307,1
307,302,299,305,1
306,304,294,303,1
305,305,290,302,1
304,305,286,300,1
304,305,285,299,1
305,306,287,298,1
307,306,292,299,1
308,307,298,301,1
308,308,304,305,1
308,308,308,309,1
307,309,311,312,1
306,309,312,315,1
306,311,312,318,1
306,312,311,320,1
307,314,310,321,1
308,315,308,319,1
308,315,307,318,1
308,316,306,316,1
309,315,305,315,1
308,314,305,314,1
307,312,305,314,1
307,311,307,313,1
307,310,309,313,1
309,309,310,313,1
310,308,310,310,1
312,307,310,308,1
315,308,310,305,1
317,310,309,304,1
318,312,308,303,1
318,312,307,302,1
315,312,305,300,1
312,311,304,299,1
307,310,302,297,1
302,308,300,296,1
298,305,298,295,1
296,304,296,294,1
295,303,294,294,1
295,304,293,295,1
297,305,293,297,1
300,308,295,299,1
302,310,296,299,1
304,313,298,300,1
305,315,299,301,1
306,316,299,302,1
306,314,297,301,1
304,311,295,300,1
302,309,294,300,1
302,309,298,304,1
304,310,303,310,1
305,311,307,315,1
308,312,311,319,1
311,313,313,321,1
311,312,313,320,1
309,310,313,318,1
307,309,313,317,1
305,308,310,314,1
304,306,307,312,1
303,304,304,310,1
304,304,303,309,1
305,306,303,309,1
306,309,304,309,1
307,311,305,309,1
308,312,307,309,1
309,313,307,308,1
309,313,307,307,1
310,312,307,307,1
310,311,306,308,1
310,310,305,309,1
310,309,305,310,1
311,308,306,310,1
312,308,306,310,1
312,307,306,308,1
312,306,305,305,1
310,304,303,303,1
309,303,300,301,1
308,303,299,300,1
309,303,298,301,1
309,305,300,303,1
310,307,302,306,1
310,310,304,308,1
310,311,304,309,1
309,312,304,310,1
309,312,304,311,1
309,311,304,311,1
309,310,303,311,1
308,311,302,311,1
306,312,300,309,1
305,314,298,306,1
306,317,297,303,1
307,319,296,301,1
308,320,296,300,1
309,321,297,300,1
310,322,298,302,1
311,322,300,306,1
311,319,301,310,1
311,315,303,313,1
309,310,303,314,1
306,306,302,313,1
303,302,299,309,1
299,297,294,303,1
297,293,291,297,1
296,290,289,292,1
297,289,288,290,1
300,290,290,291,1
304,292,294,295,1
308,295,299,301,1
311,298,303,307,1
312,300,306,312,1
312,300,307,316,1
311,299,307,319,1
312,298,307,320,1
313,298,308,321,1
314,299,309,321,1
314,298,308,319,1
314,298,307,316,1
312,297,304,314,1
309,297,301,315,1
306,299,300,316,1
304,301,298,317,1
303,302,296,317,1
302,302,294,315,1
301,303,293,314,1
302,304,293,311,1
302,305,294,307,1
301,305,296,304,1
301,306,298,301,1
301,307,300,302,1
302,305,300,304,1
304,303,301,308,1
305,302,302,314,1
306,302,303,319,1
307,302,304,322,1
307,302,306,322,1
307,302,306,319,1
307,302,306,317,1
306,303,306,316,1
307,304,307,316,1
308,305,308,315,1
309,307,309,314,1
309,309,310,313,1
309,310,310,312,1
308,310,310,311,1
306,308,309,309,1
304,306,308,307,1
303,304,308,307,1
303,302,308,307,1
304,302,309,309,1
304,302,309,310,1
305,304,309,311,1
305,305,308,311,1
305,307,307,311,1
306,308,305,310,1
306,309,304,309,1
306,310,304,309,1
306,309,303,309,1
306,307,302,308,1
305,304,301,307,1
305,302,301,306,1
304,301,302,307,1
302,300,303,308,1
300,300,304,309,1
298,301,305,310,1
297,302,307,311,1
298,303,308,311,1
299,304,307,310,1
300,304,307,309,1
302,303,306,306,1
304,302,305,304,1
306,300,304,302,1
308,300,304,303,1
311,302,304,306,1
312,305,302,308,1
312,306,299,307,1
309,306,297,306,1
306,306,295,304,1
305,307,296,302,1
304,309,299,303,1
304,313,304,306,1
303,316,309,310,1
302,320,314,315,1
301,323,317,319,1
301,326,318,322,1
301,326,318,324,1
301,324,318,323,1
301,321,317,320,1
302,316,315,316,1
302,311,313,312,1
302,307,311,308,1
302,304,310,304,1
302,299,308,303,1
301,295,307,303,1
301,292,306,305,1
301,292,305,307,1
301,293,305,309,1
301,294,306,310,1
302,296,307,310,1
303,299,307,309,1
303,301,306,307,1
304,302,304,304,1
304,303,303,301,1
305,303,303,299,1
305,304,305,299,1
305,305,307,299,1
305,306,307,300,1
304,306,306,300,1
303,306,306,300,1
302,307,305,299,1
303,308,305,299,1
304,307,304,299,1
307,307,302,299,1
309,307,301,301,1
312,306,300,302,1
314,306,299,304,1
315,307,300,306,1
316,307,302,306,1
314,307,304,304,1
311,308,305,302,1
307,309,306,300,1
304,311,305,299,1
302,311,304,298,1
300,312,302,298,1
298,311,300,298,1
298,309,299,298,1
300,306,299,297,1
300,303,298,296,1
299,300,298,294,1
298,298,299,294,1
298,298,301,294,1
297,298,302,294,1
297,299,303,295,1
296,301,304,297,1
296,303,304,299,1
296,304,303,300,1
296,305,301,300,1
298,305,299,299,1
299,306,300,299,1
300,307,300,302,1
302,309,302,304,1
303,310,303,307,1
304,309,303,308,1
303,309,302,307,1
303,309,301,306,1
302,310,300,307,1
303,311,299,307,1
304,312,300,308,1
305,313,302,309,1
306,314,304,311,1
306,314,306,312,1
303,313,305,312,1
300,311,304,311,1
299,308,304,310,1
300,307,304,310,1
304,307,305,311,1
308,307,306,310,1
311,307,307,309,1
312,306,307,309,1
310,306,307,310,1
308,306,307,311,1
305,307,308,310,1
302,307,307,309,1
300,308,307,307,1
300,307,306,304,1
299,307,305,301,1
299,307,304,298,1
299,307,304,296,1
300,307,304,295,1
301,308,304,296,1
301,309,303,298,1
301,310,301,300,1
300,310,299,301,1
300,310,295,303,1
300,310,293,303,1
300,309,291,303,1
301,308,293,302,1
303,309,297,302,1
303,311,302,302,1
304,315,306,302,1
304,319,309,302,1
304,322,310,301,1
302,324,310,301,1
300,327,310,303,1
299,330,310,306,1
299,332,310,309,1
300,329,311,310,1
300,324,311,311,1
300,317,311,310,1
300,310,310,310,1
300,304,309,308,1
300,300,306,307,1
299,295,303,305,1
299,291,301,302,1
298,288,299,300,1
298,286,300,298,1
298,284,301,297,1
298,284,304,298,1
299,285,308,301,1
299,286,310,303,1
298,287,312,304,1
297,290,312,304,1
295,294,310,304,1
293,298,308,304,1
293,302,306,303,1
293,306,305,303,1
294,308,303,303,1
294,309,303,302,1
295,310,303,301,1
296,311,304,302,1
297,313,306,303,1
298,314,306,304,1
297,312,304,304,1
297,310,303,305,1
297,306,301,305,1
297,303,301,304,1
296,300,300,303,1
296,299,300,302,1
296,299,300,301,1
298,302,301,301,1
302,305,303,302,1
305,309,307,303,1
309,312,311,305,1
311,315,314,307,1
312,316,316,309,1
310,316,316,312,1
307,314,315,313,1
304,311,314,316,1
304,310,314,318,1
305,310,314,322,1
307,311,314,324,1
308,311,313,325,1
308,311,312,324,1
309,310,311,321,1
308,309,311,318,1
308,308,310,315,1
306,307,310,312,1
305,306,309,310,1
304,306,307,309,1
303,305,305,307,1
302,304,302,306,1
300,303,301,306,1
299,304,301,307,1
299,305,301,307,1
300,306,300,308,1
302,307,300,307,1
303,307,298,306,1
303,307,296,305,1
303,308,296,304,1
304,308,296,304,1
304,308,299,304,1
306,309,301,306,1
308,311,304,309,1
311,311,306,312,1
312,310,308,314,1
313,308,311,316,1
312,306,314,317,1
311,304,315,317,1
308,302,315,316,1
306,302,314,314,1
305,304,314,312,1
304,306,314,311,1
304,307,313,309,1
303,306,310,306,1
303,304,306,302,1
301,302,303,299,1
300,301,301,297,1
300,300,300,295,1
300,300,301,294,1
299,300,303,294,1
299,300,304,295,1
299,300,305,298,1
299,302,306,302,1
300,304,306,307,1
301,305,305,310,1
303,306,306,313,1
304,308,307,314,1
305,309,309,314,1
306,310,311,314,1
306,311,313,314,1
307,311,314,313,1
307,311,314,312,1
306,310,313,309,1
306,310,311,305,1
305,307,308,302,1
304,305,306,299,1
304,304,305,299,1
304,305,305,301,1
304,306,305,303,1
304,308,305,303,1
304,309,303,302,1
304,311,302,300,1
305,311,301,299,1
305,310,301,298,1
306,309,301,299,1
308,309,303,301,1
309,312,304,306,1
310,315,305,312,1
312,318,306,316,1
313,319,306,319,1
313,318,306,320,1
310,313,305,318,1
307,308,305,316,1
305,304,307,314,1
306,304,309,314,1
307,305,313,314,1
308,307,315,314,1
309,310,318,314,1
310,312,318,312,1
310,313,318,310,1
308,313,315,308,1
308,312,311,305,1
308,310,307,302,1
308,306,304,299,1
310,304,302,299,1
312,304,301,302,1
315,305,301,306,1
317,308,302,309,1
316,309,304,312,1
314,311,307,314,1
313,312,311,314,1
310,313,314,314,1
306,315,315,312,1
302,318,315,310,1
300,320,315,308,1
300,322,315,308,1
301,323,314,308,1
304,324,313,308,1
306,323,312,308,1
307,321,309,308,1
307,316,306,307,1
307,311,304,306,1
306,305,301,306,1
305,301,301,305,1
304,299,301,304,1
303,297,301,303,1
303,296,299,302,1
302,295,298,300,1
302,296,297,299,1
303,298,298,298,1
305,301,301,298,1
308,303,304,299,1
310,306,308,301,1
312,310,311,305,1
314,313,314,310,1
314,315,316,314,1
313,316,316,317,1
312,316,315,318,1
311,313,312,318,1
310,308,308,316,1
309,304,305,313,1
308,300,305,311,1
308,297,305,308,1
308,294,307,306,1
308,292,308,305,1
306,292,309,302,1
305,292,308,300,1
303,294,308,299,1
302,296,308,301,1
301,300,308,303,1
301,302,308,304,1
301,302,309,305,1
301,302,308,304,1
302,301,309,304,1
303,302,310,306,1
305,303,312,308,1
306,303,313,310,1
307,304,313,314,1
307,305,313,319,1
307,306,313,321,1
307,306,313,322,1
306,305,313,320,1
304,303,313,315,1
302,302,314,309,1
300,300,314,302,1
300,300,315,299,1
302,302,316,299,1
305,304,318,301,1
308,306,320,304,1
312,307,319,304,1
315,309,317,304,1
316,310,315,305,1
314,311,313,307,1
313,310,313,308,1
312,309,315,308,1
312,307,317,308,1
312,305,318,306,1
312,303,317,303,1
309,300,315,300,1
307,299,312,298,1
305,298,309,296,1
302,297,307,294,1
299,295,306,292,1
297,294,307,292,1
295,294,308,296,1
296,296,310,302,1
297,299,313,309,1
300,302,315,314,1
302,303,317,317,1
304,302,317,316,1
306,300,317,313,1
307,299,317,310,1
307,298,316,308,1
307,298,315,306,1
307,298,315,305,1
307,299,314,305,1
307,301,313,307,1
308,304,313,310,1
309,305,314,312,1
309,307,314,312,1
307,308,314,312,1
307,310,313,311,1
306,310,312,310,1
305,309,309,309,1
302,308,305,309,1
299,307,301,308,1
296,306,297,308,1
294,306,294,308,1
295,306,294,307,1
298,307,297,306,1
302,307,299,304,1
307,307,303,303,1
310,308,305,303,1
311,310,308,303,1
312,312,310,305,1
312,314,312,307,1
311,315,313,308,1
309,316,315,309,1
307,317,315,309,1
308,318,316,310,1
308,315,315,311,1
309,312,314,309,1
309,308,313,308,1
308,304,312,307,1
306,301,312,306,1
305,299,312,305,1
303,297,311,304,1
301,294,310,302,1
299,292,310,301,1
298,290,309,300,1
299,288,307,298,1
299,288,306,298,1
300,287,305,297,1
300,287,305,298,1
301,287,304,297,1
302,288,304,295,1
304,288,304,293,1
305,290,304,290,1
306,291,303,288,1
306,292,303,287,1
306,293,302,286,1
306,294,302,289,1
307,298,303,295,1
308,302,302,302,1
308,304,301,307,1
306,304,300,308,1
303,304,298,308,1
301,304,299,306,1
299,303,300,302,1
298,301,301,299,1
297,298,302,295,1
296,296,303,294,1
296,295,304,295,1
298,295,305,297,1
298,297,306,299,1
300,300,304,301,1
301,303,300,301,1
300,304,296,298,1
299,304,292,297,1
298,304,291,296,1
299,304,292,297,1
302,305,294,299,1
306,306,298,300,1
309,307,301,302,1
313,309,304,305,1
314,311,308,309,1
314,313,311,313,1
311,315,314,315,1
308,315,315,315,1
305,314,315,313,1
303,313,314,310,1
304,312,314,308,1
305,311,313,308,1
308,310,313,308,1
310,308,312,306,1
311,307,310,304,1
311,306,308,302,1
310,304,307,301,1
309,304,306,301,1
308,306,304,303,1
307,307,304,303,1
306,308,304,303,1
305,308,305,303,1
305,308,306,303,1
306,307,308,305,1
308,308,310,307,1
310,308,311,308,1
311,308,311,307,1
309,309,311,306,1
305,309,311,306,1
302,310,311,306,1
300,308,310,305,1
299,306,309,304,1
298,303,308,303,1
297,301,307,303,1
298,300,306,303,1
300,301,306,305,1
301,302,306,307,1
303,303,306,309,1
304,304,305,310,1
304,304,305,312,1
304,304,305,312,1
304,302,307,313,1
305,301,308,312,1
305,299,309,311,1
305,298,309,309,1
306,298,309,308,1
305,297,308,307,1
302,297,306,305,1
300,297,304,304,1
299,298,303,304,1
300,298,302,304,1
302,298,301,304,1
304,298,300,306,1
306,299,300,307,1
308,300,301,309,1
309,303,303,311,1
309,307,305,312,1
308,311,305,312,1
307,314,305,311,1
306,317,306,311,1
305,319,307,313,1
305,321,307,315,1
305,323,307,317,1
305,322,306,317,1
304,319,304,315,1
305,315,301,312,1
306,310,300,308,1
308,305,299,305,1
311,302,299,305,1
313,298,298,306,1
313,294,299,307,1
312,290,299,308,1
308,287,300,307,1
305,285,300,304,1
303,285,301,301,1
301,287,301,298,1
301,289,300,297,1
301,291,300,298,1
302,294,301,300,1
304,298,304,304,1
307,301,307,308,1
309,303,309,310,1
310,304,310,310,1
310,304,311,309,1
310,304,311,308,1
310,305,312,309,1
311,306,313,310,1
312,306,313,311,1
312,307,312,311,1
313,308,311,309,1
313,308,309,307,1
313,309,308,303,1
311,308,308,300,1
309,308,308,298,1
307,307,308,300,1
306,307,309,303,1
306,307,310,308,1
307,307,310,313,1
309,306,309,316,1
311,305,308,317,1
312,305,307,317,1
312,305,306,317,1
312,307,305,317,1
312,307,305,317,1
313,308,306,318,1
313,308,308,319,1
313,308,309,319,1
312,308,308,318,1
310,308,307,316,1
309,310,306,315,1
309,312,306,313,1
310,314,306,310,1
311,314,306,308,1
311,312,305,303,1
310,310,303,298,1
309,309,302,296,1
307,310,301,295,1
306,310,300,298,1
304,311,299,301,1
303,311,298,305,1
301,311,297,309,1
301,311,297,311,1
302,310,296,312,1
304,309,296,311,1
305,308,296,311,1
307,307,299,310,1
310,307,302,309,1
314,306,304,307,1
317,305,306,306,1
320,306,307,305,1
323,308,308,308,1
325,311,309,312,1
324,312,309,315,1
321,312,307,316,1
316,311,305,315,1
312,311,303,313,1
309,312,301,311,1
307,312,302,310,1
307,311,302,310,1
306,310,302,311,1
306,308,303,311,1
307,307,305,311,1
309,306,307,308,1
309,304,307,305,1
307,302,306,302,1
304,300,305,300,1
302,301,303,300,1
302,303,302,302,1
303,305,303,303,1
305,307,304,303,1
307,309,305,303,1
308,310,305,302,1
310,310,305,302,1
310,310,303,301,1
310,308,302,300,1
309,308,299,298,1
308,307,296,296,1
307,307,294,293,1
306,307,295,291,1
306,307,297,291,1
308,309,300,292,1
310,313,304,296,1
313,317,307,300,1
313,321,309,304,1
314,324,310,307,1
314,327,311,309,1
314,328,312,311,1
314,328,313,311,1
313,324,312,311,1
312,319,311,310,1
310,312,311,310,1
309,307,311,309,1
309,303,311,309,1
310,301,312,309,1
311,298,311,310,1
311,296,310,311,1
311,295,309,311,1
310,296,309,312,1
311,295,308,312,1
311,294,307,311,1
311,294,306,310,1
311,294,306,311,1
312,297,306,313,1
311,298,306,314,1
310,300,305,314,1
309,300,305,314,1
309,302,306,314,1
310,303,307,315,1
311,304,309,315,1
312,307,311,315,1
315,309,313,315,1
318,312,313,313,1
321,314,312,312,1
323,315,311,310,1
323,316,309,310,1
321,316,307,311,1
317,316,306,312,1
313,314,305,312,1
308,312,305,311,1
305,310,306,310,1
303,307,306,307,1
301,305,306,304,1
300,303,306,302,1
299,301,305,301,1
300,300,305,300,1
302,302,305,300,1
304,305,306,302,1
307,308,307,304,1
308,310,306,304,1
308,312,304,305,1
307,312,301,305,1
306,312,299,306,1
304,312,297,305,1
302,310,295,302,1
300,308,293,299,1
299,305,293,295,1
299,304,293,293,1
299,305,295,292,1
300,306,298,295,1
303,308,302,298,1
306,309,305,303,1
309,312,308,308,1
311,314,309,311,1
313,314,309,310,1
314,313,308,307,1
313,311,307,304,1
313,311,306,301,1
312,310,304,300,1
311,309,303,300,1
311,308,301,301,1
310,309,300,304,1
309,311,300,305,1
308,312,301,305,1
307,312,303,303,1
306,312,305,301,1
305,311,306,300,1
305,311,307,300,1
305,312,307,300,1
305,314,307,301,1
306,314,308,302,1
309,315,309,303,1
312,315,310,305,1
313,315,310,306,1
315,315,310,307,1
314,313,309,308,1
312,312,307,308,1
309,311,306,310,1
306,311,306,310,1
303,312,307,312,1
302,313,310,313,1
302,314,312,314,1
303,314,313,315,1
303,313,312,314,1
304,311,310,312,1
304,309,310,309,1
305,308,308,307,1
305,306,307,305,1
304,305,306,303,1
303,303,307,304,1
303,303,308,305,1
303,302,310,307,1
303,302,312,308,1
303,303,314,309,1
305,305,315,309,1
307,307,316,309,1
309,308,316,307,1
308,307,314,306,1
308,305,313,306,1
307,304,311,307,1
307,303,309,309,1
308,303,308,311,1
308,304,306,311,1
307,304,304,310,1
306,305,303,309,1
305,306,302,307,1
304,307,302,305,1
303,308,304,305,1
303,308,306,305,1
302,309,307,308,1
301,310,309,312,1
300,311,309,315,1
300,310,308,317,1
301,309,306,316,1
304,307,303,313,1
306,307,301,310,1
309,307,301,305,1
312,308,303,301,1
314,310,306,299,1
313,313,309,298,1
310,315,311,299,1
307,318,313,301,1
305,321,315,303,1
304,323,316,305,1
305,323,317,305,1
306,321,316,306,1
306,316,316,306,1
306,311,316,307,1
305,306,314,308,1
304,302,313,310,1
303,299,312,312,1
303,298,311,315,1
303,297,311,319,1
303,296,311,321,1
302,295,311,321,1
302,294,311,321,1
301,293,309,319,1
302,293,306,318,1
303,293,304,317,1
305,293,301,315,1
307,292,298,312,1
309,292,296,308,1
310,291,296,303,1
311,292,298,300,1
312,296,300,300,1
313,301,302,302,1
313,305,304,304,1
313,308,306,306,1
312,310,308,307,1
311,311,310,309,1
309,310,312,310,1
308,309,313,312,1
306,308,314,313,1
306,307,314,316,1
305,306,314,319,1
303,305,314,322,1
301,304,314,323,1
298,304,312,323,1
296,303,311,322,1
295,302,310,320,1
296,302,310,318,1
297,301,310,315,1
298,301,310,313,1
300,302,309,312,1
302,302,308,310,1
303,302,308,309,1
304,303,307,308,1
305,303,306,305,1
304,302,306,302,1
303,302,306,298,1
302,303,306,298,1
301,305,308,299,1
302,308,309,302,1
302,308,311,305,1
303,307,312,308,1
303,306,312,310,1
302,305,311,311,1
300,303,310,309,1
298,302,308,307,1
298,301,306,306,1
298,301,305,304,1
298,300,302,301,1
297,297,299,299,1
297,295,298,298,1
298,294,297,299,1
299,293,298,300,1
300,291,299,301,1
302,291,303,303,1
303,292,308,305,1
304,293,313,308,1
303,295,316,311,1
303,298,318,313,1
303,301,319,314,1
304,303,318,315,1
306,305,317,314,1
308,307,316,314,1
309,309,315,314,1
309,310,312,314,1
308,310,310,314,1
306,311,307,315,1
304,311,307,316,1
303,311,306,315,1
302,310,305,314,1
303,310,306,312,1
305,310,306,311,1
307,310,306,309,1
309,310,305,308,1
310,308,303,307,1
310,307,302,306,1
311,307,303,307,1
311,306,304,307,1
310,305,306,308,1
309,304,308,309,1
308,303,310,311,1
307,304,312,313,1
308,305,313,315,1
307,305,314,316,1
307,304,313,317,1
308,304,312,318,1
308,303,311,319,1
309,302,309,319,1
310,301,308,319,1
311,302,307,318,1
313,303,307,317,1
315,305,306,314,1
315,307,305,312,1
315,309,304,309,1
316,310,304,308,1
315,312,303,307,1
312,312,303,307,1
309,312,302,306,1
305,310,301,305,1
301,308,300,305,1
299,305,300,306,1
299,303,301,307,1
301,301,303,309,1
303,301,305,311,1
304,303,307,312,1
306,306,309,312,1
307,311,310,311,1
307,314,311,311,1
306,316,310,308,1
307,316,309,305,1
307,315,309,303,1
307,316,308,304,1
308,315,307,306,1
309,312,306,306,1
309,309,308,307,1
311,307,312,310,1
313,306,314,313,1
313,305,316,315,1
313,306,317,316,1
314,306,316,315,1
315,306,315,313,1
314,305,312,310,1
312,304,309,305,1
310,303,307,300,1
308,301,305,296,1
306,298,303,293,1
305,297,303,291,1
304,296,302,291,1
304,294,301,292,1
303,293,300,295,1
304,295,300,300,1
305,297,303,305,1
307,299,307,308,1
309,302,312,311,1
313,305,317,313,1
315,308,322,314,1
315,312,323,315,1
313,314,323,315,1
311,317,323,316,1
309,321,321,317,1
307,324,318,318,1
305,326,315,319,1
304,326,312,318,1
303,326,312,316,1
303,325,312,313,1
303,323,313,310,1
303,319,314,306,1
303,315,315,306,1
304,312,316,308,1
304,309,316,310,1
305,309,316,312,1
305,308,316,314,1
305,307,315,315,1
305,305,314,315,1
306,302,314,314,1
306,299,312,313,1
305,296,311,312,1
305,295,309,313,1
305,294,307,314,1
306,295,305,315,1
307,298,304,317,1
309,302,304,319,1
311,307,305,322,1
314,310,308,324,1
315,311,309,324,1
315,309,310,323,1
316,306,310,322,1
315,303,311,319,1
316,302,312,317,1
315,302,313,317,1
314,302,314,316,1
311,301,314,314,1
307,299,312,312,1
302,298,310,311,1
299,299,308,312,1
296,300,307,313,1
294,301,306,313,1
296,303,307,314,1
298,307,309,314,1
301,311,309,315,1
302,315,309,315,1
302,317,309,313,1
302,318,308,311,1
303,319,308,309,1
305,320,307,309,1
306,319,306,310,1
307,317,304,311,1
306,313,301,310,1
305,310,297,309,1
303,308,294,309,1
302,305,292,308,1
301,304,294,306,1
300,303,298,303,1
301,304,303,302,1
303,307,308,304,1
307,310,312,307,1
311,313,314,311,1
315,315,314,314,1
319,315,313,315,1
322,314,313,315,1
323,312,312,312,1
322,310,311,308,1
321,307,311,304,1
319,306,312,301,1
317,304,312,300,1
313,305,312,302,1
310,307,312,305,1
308,308,312,307,1
305,308,311,310,1
303,309,311,312,1
303,310,311,314,1
303,310,310,314,1
303,311,309,312,1
303,313,309,311,1
302,314,308,309,1
302,315,308,308,1
302,314,307,307,1
303,314,307,307,1
304,315,305,308,1
305,315,303,308,1
306,313,300,308,1
307,311,297,307,1
306,308,294,305,1
305,305,293,302,1
305,304,292,299,1
304,303,293,296,1
304,304,294,295,1
304,306,296,297,1
305,309,298,301,1
306,312,299,306,1
307,314,300,312,1
308,314,302,316,1
309,314,304,319,1
311,313,305,320,1
311,312,306,321,1
312,311,306,320,1
312,309,305,319,1
311,308,304,318,1
310,309,304,319,1
310,311,304,319,1
310,314,305,319,1
310,315,306,318,1
309,315,305,315,1
308,313,304,311,1
306,309,302,306,1
304,306,300,302,1
303,304,298,300,1
303,303,298,299,1
305,303,297,298,1
306,304,297,298,1
308,305,298,300,1
310,308,300,301,1
310,310,301,301,1
310,311,302,300,1
309,310,301,299,1
308,310,300,301,1
308,312,300,304,1
308,313,300,307,1
308,312,300,309,1
308,311,300,311,1
308,311,301,313,1
307,311,301,315,1
305,311,301,316,1
303,314,301,318,1
302,316,301,318,1
302,319,302,317,1
303,321,302,316,1
305,322,302,314,1
306,324,301,311,1
305,323,299,308,1
305,322,297,305,1
304,318,296,302,1
303,312,295,299,1
302,305,294,296,1
302,300,296,294,1
303,296,298,293,1
305,293,300,293,1
308,290,301,294,1
310,288,301,297,1
310,288,302,300,1
309,289,301,303,1
309,291,301,306,1
308,292,303,309,1
307,293,304,310,1
307,293,305,312,1
308,293,306,314,1
310,294,307,316,1
311,296,307,317,1
313,297,306,315,1
313,297,304,312,1
313,297,303,310,1
312,297,302,308,1
310,297,303,308,1
309,299,305,309,1
309,302,308,311,1
310,305,309,313,1
310,306,310,313,1
309,305,309,312,1
308,303,308,311,1
306,302,306,310,1
303,300,304,309,1
300,298,302,306,1
298,297,299,302,1
296,296,296,300,1
295,295,292,298,1
294,295,290,296,1
294,295,288,293,1
295,295,287,288,1
295,294,287,282,1
296,295,288,277,1
298,297,290,275,1
299,301,293,278,1
300,304,297,285,1
302,308,300,295,1
303,313,304,305,1
304,317,306,315,1
305,319,308,321,1
306,319,310,326,1
307,319,311,328,1
307,319,311,328,1
307,319,310,328,1
307,318,309,326,1
306,316,308,324,1
307,315,308,322,1
308,315,307,319,1
307,314,305,318,1
307,314,304,316,1
306,314,303,314,1
304,313,302,312,1
301,311,302,310,1
299,309,302,308,1
297,308,301,307,1
296,307,301,305,1
296,305,300,302,1
297,304,300,300,1
298,302,301,298,1
299,301,301,296,1
300,301,302,297,1
301,303,304,299,1
303,306,305,302,1
304,311,307,305,1
305,316,307,307,1
306,320,306,307,1
306,321,304,306,1
304,321,302,306,1
303,320,301,306,1
303,318,301,307,1
303,315,302,308,1
304,312,303,308,1
305,310,305,309,1
306,308,307,310,1
306,307,308,310,1
305,305,307,310,1
305,303,305,309,1
305,302,304,308,1
306,304,304,308,1
308,306,305,307,1
309,308,307,306,1
309,308,308,306,1
309,309,310,307,1
309,310,311,309,1
309,310,314,311,1
308,310,316,313,1
308,308,316,313,1
309,308,316,311,1
311,307,314,308,1
314,306,311,304,1
317,307,309,300,1
320,307,307,297,1
321,307,305,294,1
322,306,304,291,1
319,305,303,288,1
313,304,303,287,1
306,304,303,287,1
300,304,303,289,1
297,304,304,291,1
295,304,306,295,1
294,304,307,299,1
294,305,308,303,1
295,308,308,306,1
297,312,307,310,1
299,316,307,313,1
300,319,307,313,1
301,320,307,313,1
303,321,308,312,1
304,321,309,310,1
304,319,309,309,1
304,315,308,306,1
304,310,307,304,1
303,305,305,300,1
302,299,305,298,1
301,296,305,299,1
300,295,307,301,1
302,295,309,304,1
303,294,312,308,1
304,294,313,309,1
304,295,313,311,1
304,295,312,311,1
303,295,312,311,1
302,296,313,314,1
304,299,314,317,1
305,302,315,320,1
306,303,315,321,1
307,304,314,320,1
307,305,314,319,1
307,305,313,317,1
308,305,312,315,1
308,304,312,312,1
309,304,311,309,1
309,304,310,306,1
309,305,310,304,1
309,305,310,304,1
309,306,310,305,1
308,307,310,305,1
308,308,309,307,1
306,308,309,308,1
304,306,308,307,1
302,304,307,305,1
301,301,306,302,1
299,298,305,300,1
298,298,304,299,1
298,300,304,301,1
297,302,303,303,1
296,302,303,305,1
296,303,303,307,1
298,303,303,308,1
299,302,304,308,1
302,301,304,307,1
304,300,305,307,1
306,301,308,308,1
308,302,311,309,1
311,303,313,309,1
312,303,314,309,1
312,303,315,308,1
311,304,316,308,1
309,305,315,308,1
308,306,314,308,1
308,307,312,308,1
310,306,310,307,1
311,305,307,306,1
311,304,304,304,1
309,303,303,303,1
307,304,302,303,1
306,307,304,305,1
307,308,306,307,1
309,308,308,309,1
311,306,309,310,1
313,303,309,309,1
315,301,309,307,1
317,300,309,304,1
317,299,309,301,1
314,299,309,300,1
309,299,309,300,1
304,300,310,300,1
300,301,310,300,1
297,304,310,302,1
297,308,310,305,1
298,311,312,308,1
299,314,312,312,1
300,316,313,315,1
301,318,313,317,1
302,319,312,317,1
302,320,311,316,1
302,322,309,314,1
301,322,308,312,1
301,323,307,310,1
300,323,306,308,1
301,323,306,307,1
301,322,307,306,1
302,320,309,306,1
303,318,311,307,1
305,316,313,308,1
308,313,314,310,1
311,311,315,312,1
313,310,315,312,1
314,308,314,312,1
315,304,313,310,1
314,301,311,306,1
312,298,308,302,1
309,294,306,298,1
305,292,305,296,1
303,292,306,297,1
302,296,308,301,1
303,300,311,307,1
304,302,313,311,1
304,303,313,314,1
305,303,313,316,1
306,303,311,317,1
306,303,310,316,1
306,302,309,314,1
305,302,308,313,1
306,305,308,313,1
306,308,308,314,1
307,310,308,314,1
308,312,308,313,1
309,313,309,313,1
312,313,311,312,1
312,314,313,311,1
312,315,313,309,1
312,316,311,306,1
313,314,309,304,1
313,311,308,303,1
314,310,307,304,1
316,308,307,307,1
316,307,306,309,1
317,307,305,311,1
316,307,304,311,1
316,308,303,311,1
315,308,302,311,1
314,307,301,310,1
312,303,299,309,1
309,299,297,308,1
307,295,295,308,1
304,291,296,306,1
303,289,298,305,1
301,287,299,302,1
301,287,300,300,1
300,287,301,298,1
299,288,301,299,1
299,290,302,300,1
300,293,303,304,1
303,297,306,310,1
307,300,310,315,1
310,302,313,319,1
313,303,314,321,1
315,303,314,322,1
315,304,313,321,1
314,305,312,320,1
312,306,310,317,1
311,307,309,315,1
309,307,308,313,1
306,307,307,310,1
304,307,307,309,1
303,307,308,309,1
304,308,309,310,1
305,309,310,312,1
306,309,310,314,1
306,308,309,314,1
306,307,309,314,1
306,306,308,311,1
307,305,307,308,1
310,305,306,305,1
312,307,305,304,1
313,309,304,302,1
312,310,303,302,1
311,311,302,300,1
308,311,301,299,1
304,310,300,297,1
302,310,299,296,1
300,311,298,298,1
302,313,298,300,1
305,315,298,304,1
307,316,297,307,1
307,315,296,308,1
306,313,295,307,1
305,309,294,304,1
303,304,294,300,1
301,299,295,297,1
298,296,296,294,1
296,295,298,295,1
297,295,300,299,1
298,298,302,304,1
301,300,304,310,1
303,302,304,315,1
305,304,304,319,1
306,305,303,320,1
307,305,302,320,1
307,306,301,319,1
306,305,301,317,1
305,305,301,315,1
305,305,302,312,1
306,305,302,310,1
307,305,304,310,1
308,304,304,311,1
308,304,306,311,1
308,304,307,313,1
308,304,308,314,1
309,304,308,313,1
309,302,307,310,1
308,302,305,306,1
307,302,304,303,1
306,303,302,301,1
304,304,301,301,1
303,305,300,302,1
302,308,301,304,1
301,309,302,306,1
301,309,303,307,1
300,307,302,307,1
300,305,301,306,1
301,303,301,305,1
301,302,301,304,1
302,302,302,304,1
302,303,302,306,1
303,303,304,309,1
304,304,304,310,1
305,304,303,311,1
306,304,302,311,1
307,304,301,310,1
307,303,300,308,1
306,303,298,305,1
305,303,297,302,1
304,303,297,300,1
304,303,296,299,1
303,303,296,298,1
303,303,297,298,1
304,303,297,298,1
306,303,298,300,1
307,304,299,301,1
308,305,300,303,1
308,306,300,305,1
308,308,300,307,1
309,309,299,306,1
309,308,299,305,1
311,308,299,303,1
311,307,298,301,1
310,304,297,298,1
308,301,296,297,1
307,298,294,295,1
305,295,293,293,1
304,295,293,292,1
304,299,295,293,1
305,307,298,295,1
308,315,302,299,1
311,320,305,304,1
314,323,307,308,1
315,324,307,310,1
313,323,306,312,1
308,321,306,314,1
305,319,305,316,1
304,317,306,316,1
304,315,306,315,1
304,313,306,315,1
305,312,307,314,1
306,309,307,313,1
308,305,307,312,1
310,300,307,313,1
311,297,306,315,1
312,294,305,318,1
312,293,305,321,1
312,293,304,321,1
311,292,303,319,1
310,292,302,315,1
307,293,302,311,1
305,294,302,308,1
304,296,302,306,1
303,297,302,304,1
304,298,303,303,1
304,298,305,302,1
304,299,306,303,1
304,300,307,304,1
306,301,307,305,1
307,302,307,307,1
308,303,307,308,1
310,304,307,309,1
312,305,308,310,1
312,306,307,310,1
311,305,306,309,1
310,304,305,306,1
308,302,303,303,1
306,301,301,301,1
305,299,301,301,1
304,299,302,302,1
303,298,302,304,1
304,299,304,305,1
305,300,305,307,1
306,302,307,308,1
308,303,307,309,1
309,303,307,310,1
309,303,306,309,1
309,303,304,306,1
309,304,303,303,1
308,304,301,300,1
306,304,301,298,1
305,304,302,298,1
305,306,304,299,1
305,308,305,301,1
305,310,307,302,1
304,310,308,302,1
304,309,308,302,1
304,309,307,302,1
304,308,305,302,1
304,307,303,302,1
304,306,300,302,1
304,304,297,301,1
304,303,295,300,1
303,303,295,299,1
303,303,296,297,1
303,303,300,296,1
303,304,304,296,1
304,304,308,297,1
305,304,310,297,1
305,304,312,296,1
306,304,313,295,1
307,303,312,295,1
307,303,311,294,1
308,302,309,294,1
307,301,306,294,1
307,300,303,295,1
306,299,302,296,1
305,298,301,296,1
305,298,301,296,1
304,298,300,295,1
304,299,301,297,1
303,301,302,300,1
304,305,305,303,1
306,308,308,306,1
308,310,313,310,1
311,312,316,313,1
314,311,318,315,1
316,311,318,315,1
318,310,316,315,1
319,308,314,313,1
319,307,312,311,1
318,307,310,308,1
317,308,309,306,1
315,311,309,305,1
313,313,309,304,1
310,313,309,303,1
306,310,309,303,1
304,307,310,304,1
304,307,311,307,1
304,309,312,309,1
304,311,312,311,1
303,311,311,310,1
302,311,309,310,1
302,311,309,311,1
304,311,309,312,1
306,310,310,311,1
306,307,308,310,1
305,305,306,309,1
304,304,304,308,1
303,303,302,308,1
303,303,301,308,1
303,302,300,308,1
304,302,300,309,1
305,302,300,312,1
305,302,301,313,1
304,303,301,314,1
304,305,302,313,1
305,306,301,312,1
306,307,301,311,1
306,308,301,309,1
306,308,301,306,1
306,307,300,304,1
307,307,301,303,1
307,307,301,303,1
307,308,302,303,1
307,308,303,303,1
306,307,302,302,1
304,305,301,301,1
302,305,301,300,1
301,305,300,299,1
301,307,298,299,1
302,309,297,299,1
302,309,295,299,1
302,308,294,300,1
301,307,294,300,1
302,307,294,303,1
302,308,295,305,1
303,308,296,308,1
302,308,297,310,1
302,308,299,312,1
304,308,302,313,1
307,309,307,312,1
309,309,311,312,1
311,309,315,312,1
313,310,318,312,1
314,313,321,313,1
314,315,321,312,1
313,316,320,312,1
312,315,317,309,1
310,313,314,305,1
307,312,311,301,1
305,310,307,298,1
304,309,306,298,1
305,310,305,299,1
305,311,306,301,1
305,313,307,302,1
304,315,309,305,1
304,317,310,309,1
305,318,312,313,1
306,320,313,317,1
309,322,313,320,1
311,323,312,321,1
312,322,311,320,1
313,320,310,320,1
312,318,311,320,1
311,316,312,319,1
310,313,312,317,1
307,308,311,314,1
305,302,310,310,1
303,297,310,308,1
303,293,311,308,1
304,292,312,310,1
307,294,314,313,1
310,296,315,315,1
312,298,315,317,1
312,299,314,317,1
312,300,313,316,1
310,301,312,315,1
310,302,309,313,1
309,302,307,312,1
308,303,306,312,1
307,304,305,313,1
307,304,304,314,1
308,303,303,315,1
307,301,302,315,1
307,301,300,314,1
306,301,299,314,1
305,303,298,314,1
305,303,298,314,1
304,304,297,314,1
304,303,296,313,1
305,302,295,311,1
306,302,294,307,1
307,301,294,303,1
307,300,294,298,1
307,298,295,295,1
307,297,298,293,1
308,297,301,295,1
310,298,304,300,1
313,300,307,307,1
314,302,309,313,1
313,303,310,318,1
311,304,309,319,1
310,304,307,319,1
308,304,306,316,1
308,305,304,314,1
307,307,304,312,1
308,309,304,312,1
308,311,305,311,1
309,312,306,311,1
310,313,306,311,1
310,312,306,311,1
310,311,305,312,1
309,310,305,312,1
309,310,303,311,1
307,309,301,310,1
305,307,299,309,1
303,306,298,307,1
302,304,298,306,1
301,301,300,305,1
300,299,302,304,1
299,298,303,304,1
298,296,304,304,1
298,296,304,305,1
297,296,303,306,1
297,297,301,307,1
296,299,299,306,1
296,299,296,304,1
294,298,293,299,1
293,296,290,296,1
294,295,290,293,1
295,295,292,292,1
298,296,296,292,1
300,298,300,294,1
302,300,305,298,1
305,304,309,304,1
307,307,313,309,1
308,309,316,312,1
307,310,317,313,1
306,309,316,315,1
307,309,315,317,1
308,309,315,319,1
309,309,315,320,1
310,308,314,319,1
311,308,314,317,1
311,307,313,315,1
310,307,311,312,1
309,306,309,309,1
307,306,309,307,1
305,306,307,306,1
304,306,306,305,1
304,306,305,305,1
304,306,304,305,1
304,305,302,304,1
302,302,299,303,1
300,300,297,301,1
300,300,295,301,1
301,300,294,301,1
303,302,295,302,1
305,304,298,304,1
308,305,303,308,1
310,307,307,310,1
312,308,310,311,1
313,308,310,309,1
312,308,310,308,1
311,307,309,306,1
311,305,309,304,1
311,304,309,302,1
310,304,310,302,1
309,304,310,302,1
308,304,311,303,1
308,304,311,304,1
307,303,310,305,1
307,303,310,307,1
307,303,310,308,1
306,304,309,307,1
307,304,309,306,1
309,305,308,305,1
312,305,308,304,1
313,305,307,303,1
314,305,307,302,1
315,304,306,302,1
315,304,307,301,1
314,305,307,302,1
312,306,306,304,1
311,306,306,307,1
307,305,304,308,1
303,304,302,309,1
300,305,299,310,1
299,307,297,310,1
300,309,297,308,1
301,311,297,306,1
303,314,299,304,1
306,318,301,301,1
310,320,303,298,1
311,321,304,295,1
311,317,303,291,1
309,312,303,289,1
307,306,303,291,1
306,304,304,296,1
306,304,305,304,1
306,304,306,310,1
304,303,305,313,1
303,299,304,314,1
302,296,302,312,1
301,293,300,310,1
301,291,297,307,1
300,290,295,305,1
299,290,292,301,1
298,291,290,299,1
297,293,288,297,1
297,295,289,295,1
297,298,292,295,1
298,302,297,296,1
300,304,302,299,1
301,305,304,303,1
301,304,305,305,1
300,302,304,306,1
299,299,303,308,1
299,297,302,310,1
299,296,302,310,1
299,295,302,310,1
299,296,302,311,1
301,298,303,313,1
302,301,302,314,1
303,304,302,315,1
304,307,302,316,1
306,310,303,317,1
308,313,305,318,1
309,315,307,317,1
310,316,308,316,1
311,316,310,314,1
311,314,310,313,1
310,312,309,312,1
309,309,308,310,1
310,307,307,308,1
310,306,306,306,1
311,305,306,304,1
310,304,307,303,1
309,303,308,303,1
309,304,309,304,1
307,305,311,305,1
307,308,311,307,1
307,311,312,307,1
308,312,312,307,1
309,313,313,307,1
310,315,313,307,1
310,315,313,309,1
308,315,312,309,1
307,313,312,309,1
305,311,311,308,1
304,310,310,306,1
303,308,310,304,1
303,307,309,303,1
304,307,309,303,1
306,308,310,305,1
308,309,310,306,1
308,308,310,305,1
308,306,309,305,1
307,305,308,305,1
307,305,308,305,1
308,305,308,305,1
309,306,308,303,1
310,307,308,300,1
310,307,307,297,1
309,309,305,296,1
309,310,304,297,1
309,312,302,299,1
308,313,300,299,1
306,311,297,299,1
304,309,296,299,1
303,308,295,299,1
304,308,297,299,1
306,309,299,298,1
309,311,302,300,1
312,314,305,304,1
315,316,308,308,1
317,317,310,310,1
317,317,311,311,1
314,316,311,311,1
310,315,310,310,1
305,313,308,310,1
301,312,306,310,1
298,311,304,309,1
297,310,302,309,1
297,309,299,307,1
298,307,298,305,1
299,306,299,304,1
299,305,302,305,1
299,305,305,308,1
299,307,308,312,1
300,308,311,316,1
301,310,312,319,1
302,312,312,321,1
304,314,312,322,1
306,315,312,322,1
307,315,310,321,1
308,316,307,319,1
308,315,305,316,1
307,314,305,313,1
307,312,305,310,1
306,309,305,307,1
305,307,305,304,1
304,304,304,302,1
304,301,305,299,1
304,299,307,298,1
305,299,311,298,1
306,300,313,299,1
308,304,315,302,1
309,308,316,305,1
310,311,317,308,1
309,314,317,309,1
309,317,316,309,1
307,320,316,310,1
306,322,315,309,1
305,322,313,310,1
304,321,312,310,1
303,320,311,310,1
303,319,311,312,1
305,317,311,312,1
305,314,311,311,1
304,311,310,310,1
304,308,309,309,1
303,305,308,308,1
303,301,306,304,1
301,296,305,299,1
300,291,305,295,1
300,288,305,290,1
299,286,306,288,1
300,286,307,288,1
301,288,309,293,1
302,292,310,299,1
304,296,310,305,1
305,302,310,311,1
306,306,309,314,1
306,307,307,315,1
304,307,303,315,1
304,307,300,315,1
304,307,298,313,1
303,306,296,310,1
303,305,297,307,1
303,304,298,304,1
302,304,301,303,1
303,304,304,302,1
304,305,307,302,1
305,308,309,303,1
305,310,310,305,1
305,312,311,307,1
306,313,312,308,1
307,313,312,309,1
309,312,311,309,1
310,310,309,308,1
310,310,306,308,1
310,309,301,308,1
310,308,297,307,1
311,307,294,306,1
311,307,293,305,1
311,306,294,304,1
309,305,296,304,1
308,304,299,305,1
306,304,302,306,1
306,304,303,308,1
306,303,305,309,1
306,301,305,309,1
306,299,305,309,1
306,299,305,308,1
307,300,305,309,1
309,302,305,311,1
311,303,305,313,1
313,305,305,314,1
314,306,305,314,1
315,306,306,311,1
313,305,306,309,1
310,302,306,306,1
306,299,306,305,1
304,298,308,307,1
303,298,309,310,1
304,298,309,313,1
304,297,309,314,1
306,298,308,313,1
307,299,308,313,1
307,301,307,313,1
308,304,306,315,1
309,307,306,316,1
310,310,306,317,1
311,311,305,316,1
311,311,304,314,1
311,310,303,311,1
310,309,302,307,1
309,307,302,302,1
308,306,301,297,1
306,305,300,292,1
303,304,299,289,1
300,304,300,290,1
299,306,302,293,1
299,307,303,297,1
298,307,303,301,1
298,308,304,306,1
300,310,306,311,1
303,312,308,315,1
306,313,309,318,1
307,314,309,320,1
309,313,309,320,1
309,311,308,319,1
309,307,306,315,1
307,305,304,311,1
306,303,303,308,1
305,302,303,304,1
304,301,303,302,1
304,301,303,301,1
303,303,303,302,1
302,305,303,304,1
302,307,304,305,1
302,307,304,305,1
302,306,304,304,1
302,306,303,304,1
302,305,302,304,1
303,305,301,305,1
305,305,300,306,1
306,305,300,307,1
307,306,300,310,1
308,309,302,311,1
311,310,304,311,1
313,312,305,310,1
313,313,305,308,1
311,312,306,306,1
310,312,305,304,1
308,311,303,302,1
308,310,302,300,1
308,309,300,298,1
308,309,298,297,1
309,310,297,296,1
308,311,298,296,1
308,314,299,299,1
309,317,301,303,1
310,320,303,307,1
312,322,305,311,1
313,323,306,314,1
313,323,306,315,1
312,321,305,316,1
312,318,304,317,1
312,315,304,318,1
315,314,305,320,1
317,314,308,322,1
319,313,311,323,1
321,312,314,324,1
321,308,314,322,1
320,303,314,319,1
315,297,311,314,1
308,291,308,309,1
301,287,305,304,1
297,285,303,301,1
295,284,300,297,1
295,284,299,294,1
296,286,298,292,1
297,288,298,291,1
299,291,300,291,1
301,294,305,293,1
303,297,310,298,1
306,301,314,304,1
309,304,316,309,1
310,305,316,311,1
309,304,315,312,1
306,303,312,312,1
304,303,309,312,1
303,303,307,311,1
304,303,306,309,1
306,304,305,307,1
308,304,304,304,1
309,304,306,303,1
310,305,306,303,1
309,306,308,305,1
307,307,308,307,1
305,308,309,310,1
304,309,310,311,1
304,312,311,313,1
305,314,311,313,1
305,315,310,311,1
305,315,308,309,1
305,314,307,307,1
304,311,306,304,1
302,308,305,301,1
300,305,304,299,1
299,304,304,298,1
300,304,304,298,1
300,305,303,297,1
299,306,300,296,1
298,306,297,295,1
296,306,294,294,1
296,307,291,295,1
298,307,292,298,1
300,307,294,303,1
303,306,298,309,1
304,307,304,314,1
306,306,308,317,1
308,307,311,318,1
310,306,313,318,1
310,307,313,317,1
309,308,312,316,1
307,310,312,316,1
305,313,312,317,1
304,314,311,318,1
305,315,311,318,1
305,315,310,317,1
305,315,308,315,1
305,314,306,312,1
304,314,303,310,1
303,313,301,306,1
301,313,300,302,1
299,312,298,299,1
299,313,298,297,1
300,313,299,295,1
300,313,301,294,1
300,312,303,294,1
300,310,305,294,1
300,308,306,295,1
300,307,305,298,1
300,308,303,301,1
301,309,301,304,1
302,310,299,308,1
302,311,298,310,1
302,312,298,312,1
301,313,299,313,1
301,312,302,312,1
302,311,304,311,1
303,310,306,311,1
304,312,308,311,1
304,314,309,312,1
304,316,309,313,1
305,317,309,313,1
305,317,309,315,1
306,318,310,316,1
306,319,311,317,1
307,319,311,318,1
307,317,311,318,1
307,315,311,317,1
309,313,310,314,1
311,310,307,311,1
313,308,305,307,1
315,305,303,302,1
316,304,301,297,1
316,303,300,294,1
315,304,301,295,1
314,306,303,298,1
312,308,304,302,1
310,308,304,305,1
307,307,304,307,1
304,306,304,310,1
303,306,304,312,1
303,307,304,314,1
303,309,305,315,1
304,312,305,316,1
304,316,306,317,1
304,319,305,318,1
303,320,303,318,1
301,321,302,319,1
300,321,302,318,1
299,320,302,318,1
299,318,303,318,1
299,315,305,318,1
298,311,306,315,1
298,306,306,313,1
300,301,305,310,1
302,297,304,306,1
304,293,302,304,1
307,292,301,302,1
309,291,301,302,1
311,291,301,303,1
311,292,302,303,1
309,292,303,304,1
309,292,304,304,1
308,293,305,305,1
309,295,305,305,1
309,296,304,304,1
307,297,304,302,1
305,298,303,300,1
303,299,303,299,1
303,302,304,299,1
303,304,305,300,1
304,306,305,302,1
305,305,303,303,1
304,303,301,304,1
303,300,299,306,1
302,299,296,307,1
301,298,294,308,1
300,297,292,308,1
300,297,292,307,1
300,297,294,304,1
301,298,296,300,1
302,299,299,297,1
304,301,301,295,1
305,303,303,293,1
307,304,305,294,1
310,306,308,296,1
312,310,311,302,1
315,313,314,309,1
315,316,315,314,1
314,316,316,315,1
311,314,316,313,1
308,311,316,308,1
306,307,315,303,1
305,305,314,299,1
306,303,314,297,1
308,302,315,298,1
310,302,315,301,1
313,303,315,305,1
316,306,316,307,1
318,308,317,307,1
319,308,316,306,1
318,308,316,306,1
317,308,315,307,1
315,307,314,308,1
312,307,312,309,1
310,307,311,310,1
309,308,310,310,1
311,307,309,310,1
312,308,309,309,1
312,308,310,310,1
312,307,309,312,1
311,306,308,313,1
309,304,308,314,1
307,302,307,314,1
305,302,306,315,1
304,302,307,314,1
304,302,308,312,1
304,302,309,309,1
304,301,310,305,1
305,301,311,302,1
307,301,312,301,1
309,303,314,302,1
312,304,316,304,1
312,306,316,306,1
312,307,316,307,1
310,308,315,308,1
309,310,315,309,1
309,312,315,310,1
309,312,314,310,1
308,311,313,309,1
306,309,310,307,1
306,308,308,306,1
305,306,306,306,1
305,305,305,307,1
306,304,305,307,1
306,303,305,307,1
307,301,306,307,1
307,300,306,307,1
307,300,306,307,1
307,300,306,304,1
306,300,305,299,1
306,299,304,295,1
306,301,303,292,1
305,303,303,293,1
305,305,304,294,1
304,306,305,295,1
304,305,307,296,1
304,304,310,297,1
306,303,313,298,1
308,303,314,300,1
308,305,314,302,1
309,308,313,306,1
310,311,311,308,1
310,313,310,310,1
309,312,309,310,1
308,311,309,310,1
307,311,310,311,1
308,310,311,312,1
308,309,312,312,1
307,308,313,311,1
306,308,313,311,1
305,310,312,310,1
303,313,311,309,1
302,318,310,307,1
302,322,309,305,1
303,327,309,306,1
306,331,311,308,1
309,332,312,310,1
309,330,311,310,1
309,325,310,309,1
307,318,308,306,1
305,312,306,302,1
303,306,303,300,1
302,302,300,300,1
303,300,299,300,1
304,298,299,301,1
305,295,301,302,1
306,294,303,303,1
308,295,306,306,1
310,295,309,308,1
311,295,310,308,1
311,295,309,308,1
311,294,308,307,1
311,294,307,304,1
312,295,307,301,1
314,296,307,297,1
314,298,306,294,1
313,299,305,292,1
312,301,303,291,1
311,302,302,290,1
311,302,301,292,1
312,301,302,296,1
314,301,304,301,1
316,302,306,306,1
317,303,308,310,1
314,304,308,311,1
310,304,309,311,1
306,304,310,310,1
303,303,310,309,1
302,303,310,306,1
302,302,310,303,1
302,302,310,300,1
302,302,309,300,1
302,304,309,301,1
303,305,309,304,1
305,306,308,305,1
306,305,308,307,1
307,304,308,308,1
307,304,307,309,1
307,304,306,311,1
307,304,306,314,1
306,305,304,316,1
305,306,303,317,1
304,306,301,317,1
304,306,299,317,1
306,306,297,315,1
307,305,296,313,1
308,305,295,311,1
308,305,294,309,1
307,306,295,309,1
306,308,297,310,1
307,311,301,311,1
309,313,304,310,1
310,314,307,308,1
311,316,309,305,1
311,317,311,303,1
311,317,312,302,1
311,317,312,303,1
311,316,313,306,1
311,313,313,309,1
310,309,313,311,1
310,306,312,313,1
309,304,311,313,1
308,303,309,312,1
307,301,307,311,1
307,302,305,310,1
306,303,304,310,1
307,305,303,308,1
307,306,302,306,1
307,306,302,305,1
306,304,300,304,1
305,301,299,302,1
303,298,297,298,1
302,296,296,296,1
301,295,296,295,1
300,294,295,293,1
298,294,294,293,1
297,297,294,295,1
296,301,296,301,1
297,308,300,307,1
298,313,303,313,1
300,317,306,317,1
302,318,307,318,1
305,319,307,317,1
307,320,305,313,1
309,319,303,307,1
308,318,301,302,1
307,316,301,298,1
306,314,302,297,1
307,312,305,297,1
307,311,308,299,1
308,309,310,302,1
308,308,312,304,1
308,306,311,306,1
307,304,310,308,1
305,301,307,308,1
303,297,303,307,1
303,295,301,306,1
304,294,300,308,1
307,295,301,310,1
310,298,304,312,1
311,300,306,313,1
310,301,307,314,1
309,302,309,314,1
310,303,311,313,1
312,303,313,311,1
313,301,313,310,1
312,299,312,308,1
308,296,310,307,1
304,293,307,305,1
302,291,304,303,1
300,289,300,301,1
299,288,297,300,1
299,288,297,299,1
300,289,298,300,1
302,292,300,301,1
303,295,301,301,1
305,299,301,301,1
307,302,300,300,1
307,305,299,299,1
306,306,299,301,1
304,306,300,302,1
302,305,301,303,1
299,302,303,303,1
297,300,305,303,1
298,299,308,303,1
301,299,312,304,1
304,299,316,305,1
307,300,317,306,1
308,301,317,305,1
307,301,315,303,1
305,302,312,303,1
303,305,309,305,1
302,307,308,307,1
302,307,307,307,1
302,307,307,306,1
303,304,308,304,1
304,302,308,302,1
305,301,309,299,1
306,301,309,297,1
306,301,310,296,1
307,303,311,297,1
309,306,311,301,1
310,310,312,305,1
310,313,311,308,1
310,315,311,310,1
310,315,311,312,1
309,316,313,313,1
309,316,314,315,1
309,316,314,316,1
308,315,315,316,1
307,313,314,316,1
306,312,314,316,1
304,310,313,317,1
303,309,311,317,1
303,307,309,317,1
304,306,307,316,1
306,305,305,312,1
306,303,303,308,1
307,302,301,302,1
307,301,299,297,1
308,302,298,291,1
310,303,299,287,1
312,306,301,284,1
313,310,302,284,1
314,312,303,287,1
314,315,304,291,1
311,316,306,296,1
305,316,306,300,1
298,313,305,304,1
294,311,305,308,1
292,310,305,312,1
294,311,307,316,1
296,311,307,317,1
298,310,307,316,1
299,308,308,315,1
301,305,309,314,1
302,302,310,312,1
303,300,311,311,1
303,298,311,311,1
303,296,311,310,1
301,295,311,308,1
300,293,311,306,1
299,292,311,303,1
300,291,309,299,1
300,290,307,295,1
299,292,305,293,1
299,293,303,292,1
298,295,302,292,1
296,297,300,294,1
295,300,300,297,1
295,303,300,302,1
296,305,300,306,1
296,307,300,308,1
297,308,302,310,1
298,308,305,312,1
300,307,307,312,1
301,306,310,312,1
303,306,314,311,1
303,307,320,310,1
304,310,323,309,1
305,313,324,308,1
306,314,324,307,1
305,316,322,307,1
304,317,320,310,1
302,318,318,314,1
300,319,317,317,1
300,319,317,318,1
300,319,317,319,1
301,317,317,320,1
302,316,316,320,1
304,315,316,320,1
307,314,315,319,1
308,313,315,317,1
309,313,314,314,1
309,313,312,311,1
309,312,311,307,1
309,312,311,303,1
309,311,310,301,1
308,310,309,299,1
307,310,309,298,1
306,309,308,296,1
305,308,307,294,1
304,307,305,292,1
303,306,303,291,1
301,305,302,291,1
300,306,302,294,1
300,309,304,300,1
301,312,306,307,1
302,313,307,312,1
301,313,306,315,1
301,312,304,314,1
300,311,302,312,1
300,310,301,310,1
301,308,301,309,1
303,306,302,308,1
304,304,303,306,1
305,302,303,305,1
305,301,302,303,1
306,302,301,301,1
307,303,300,299,1
308,306,299,296,1
308,308,301,294,1
309,310,304,294,1
310,313,307,297,1
310,316,311,302,1
308,317,313,306,1
306,318,314,310,1
303,317,315,313,1
302,315,315,314,1
301,314,315,314,1
302,312,313,315,1
303,310,312,314,1
304,308,310,313,1
305,306,308,312,1
306,303,306,311,1
306,300,304,309,1
306,298,304,309,1
305,296,305,309,1
304,296,305,309,1
302,295,306,308,1
302,296,307,307,1
302,297,307,303,1
301,297,308,299,1
301,297,308,294,1
303,296,308,289,1
304,294,307,286,1
303,293,305,285,1
303,294,304,288,1
303,297,303,293,1
303,299,304,298,1
303,301,308,303,1
304,304,311,308,1
305,306,313,312,1
306,308,314,315,1
308,309,314,317,1
309,310,312,318,1
311,311,309,318,1
311,311,306,316,1
310,311,302,313,1
310,311,299,310,1
309,312,297,306,1
308,311,297,303,1
308,312,301,302,1
309,313,305,305,1
310,316,309,308,1
311,318,311,311,1
311,319,313,312,1
311,318,313,312,1
310,317,313,310,1
311,314,313,309,1
312,311,313,308,1
312,308,312,307,1
311,308,311,309,1
312,309,311,312,1
313,311,311,314,1
314,311,311,316,1
313,312,311,318,1
312,311,311,319,1
309,309,311,319,1
307,307,309,319,1
304,306,308,318,1
304,305,307,317,1
305,305,306,315,1
307,306,306,314,1
309,307,305,313,1
311,307,305,312,1
312,308,305,312,1
313,309,307,312,1
313,310,308,312,1
312,310,309,311,1
309,308,309,309,1
306,305,307,305,1
302,302,304,301,1
298,299,301,297,1
296,297,297,293,1
295,296,296,290,1
296,296,297,289,1
298,297,298,290,1
298,299,300,293,1
299,301,302,298,1
300,303,305,303,1
302,305,307,306,1
304,306,308,308,1
305,307,309,307,1
306,307,309,305,1
306,310,309,303,1
307,312,309,303,1
307,313,308,304,1
307,314,307,305,1
306,315,305,307,1
306,316,304,308,1
305,316,303,308,1
304,316,302,308,1
304,315,303,309,1
304,314,304,312,1
305,315,305,314,1
306,317,305,315,1
307,321,305,315,1
308,325,304,315,1
308,328,303,314,1
307,330,303,313,1
306,328,303,312,1
305,325,304,311,1
304,320,306,311,1
303,313,307,311,1
302,306,307,311,1
302,302,307,311,1
302,300,306,310,1
302,298,306,309,1
303,297,306,309,1
304,298,307,309,1
305,299,308,308,1
305,299,308,307,1
304,299,309,305,1
304,299,309,303,1
304,299,309,301,1
305,298,308,300,1
306,297,308,300,1
308,299,309,302,1
311,303,309,306,1
312,306,308,309,1
312,308,305,309,1
312,310,304,310,1
311,310,305,311,1
311,311,308,312,1
309,311,310,314,1
307,309,312,313,1
305,306,313,312,1
303,304,313,310,1
302,303,312,307,1
302,303,310,305,1
302,303,307,302,1
302,303,305,300,1
303,304,305,299,1
304,305,305,299,1
304,306,306,301,1
304,307,306,305,1
304,307,306,309,1
304,308,306,312,1
306,308,307,314,1
307,308,309,316,1
308,308,311,317,1
309,308,312,317,1
311,308,313,316,1
310,307,314,315,1
309,306,314,313,1
308,306,313,311,1
307,307,313,308,1
307,308,312,306,1
306,308,312,305,1
305,308,311,305,1
303,308,310,305,1
303,310,309,305,1
303,312,309,306,1
305,316,311,309,1
308,321,312,312,1
312,324,313,314,1
315,325,313,314,1
316,323,313,314,1
315,319,312,313,1
313,313,309,311,1
308,305,306,309,1
303,297,304,306,1
300,290,302,304,1
298,286,301,304,1
297,285,302,304,1
299,288,303,306,1
302,292,304,308,1
304,296,305,310,1
305,299,305,311,1
304,301,303,311,1
304,304,302,311,1
304,306,302,311,1
305,307,302,310,1
306,308,302,310,1
307,307,303,310,1
307,307,305,312,1
308,307,307,314,1
308,306,308,316,1
309,306,309,316,1
310,307,309,316,1
309,308,307,315,1
307,308,305,315,1
306,308,303,314,1
305,308,302,313,1
306,308,302,311,1
305,306,303,308,1
303,304,303,307,1
302,304,305,308,1
300,305,307,311,1
300,306,308,315,1
300,308,309,317,1
301,311,308,318,1
301,313,308,317,1
302,315,308,315,1
301,314,308,312,1
301,313,307,308,1
301,310,307,305,1
301,306,306,302,1
302,304,305,301,1
302,302,302,301,1
302,302,298,302,1
302,302,295,305,1
301,301,294,307,1
301,300,294,308,1
301,299,297,307,1
302,299,301,309,1
303,300,304,311,1
304,300,306,313,1
303,299,307,313,1
303,300,305,313,1
303,300,304,312,1
303,301,301,310,1
303,301,299,309,1
303,302,300,309,1
304,302,303,309,1
306,302,307,310,1
308,302,311,311,1
308,303,313,313,1
309,304,315,316,1
310,306,316,318,1
312,307,315,318,1
313,308,315,317,1
314,310,315,317,1
315,312,315,318,1
315,313,315,318,1
314,313,315,317,1
311,312,313,314,1
309,311,312,311,1
307,310,310,309,1
306,309,309,306,1
307,307,307,305,1
309,306,306,305,1
311,306,304,306,1
313,308,303,305,1
313,311,302,303,1
313,312,301,300,1
312,314,302,298,1
310,316,303,299,1
308,318,305,301,1
308,318,307,303,1
307,315,307,304,1
306,310,307,305,1
305,306,309,305,1
305,302,310,306,1
303,299,312,306,1
301,297,312,306,1
299,296,312,307,1
298,296,312,308,1
298,296,311,308,1
299,297,310,307,1
300,298,308,306,1
302,299,306,305,1
303,300,305,304,1
303,302,305,303,1
304,302,307,304,1
304,302,309,305,1
305,303,310,307,1
306,304,310,308,1
307,306,308,309,1
307,306,305,310,1
307,306,301,310,1
306,305,297,309,1
305,303,295,307,1
303,298,295,305,1
301,296,298,302,1
299,294,301,300,1
297,294,303,298,1
296,294,304,297,1
296,294,305,295,1
297,294,305,294,1
299,294,305,295,1
302,295,305,298,1
303,297,305,302,1
305,300,307,306,1
306,304,309,311,1
307,307,311,316,1
308,309,311,320,1
308,311,311,323,1
308,311,310,324,1
307,311,308,323,1
305,311,307,323,1
305,311,307,322,1
305,311,306,322,1
304,311,307,322,1
304,311,307,322,1
304,311,307,320,1
304,311,306,316,1
304,311,305,313,1
304,313,305,310,1
305,313,304,308,1
306,314,305,306,1
306,314,306,305,1
305,316,308,308,1
305,318,309,310,1
305,318,308,313,1
306,316,307,312,1
306,312,305,310,1
306,309,302,309,1
305,306,300,308,1
305,304,300,308,1
306,303,300,307,1
307,302,302,305,1
309,302,302,303,1
311,303,302,303,1
312,305,302,303,1
312,307,302,305,1
312,309,303,307,1
313,310,305,309,1
314,312,307,313,1
313,313,308,317,1
312,314,310,321,1
311,316,311,322,1
310,317,312,322,1
310,318,312,321,1
308,318,312,318,1
307,318,311,316,1
305,319,309,312,1
305,319,307,309,1
305,318,305,307,1
305,316,302,306,1
305,314,300,306,1
306,311,299,306,1
308,307,298,307,1
309,305,297,307,1
310,303,298,307,1
310,300,301,308,1
311,298,304,309,1
311,296,307,309,1
312,295,309,308,1
311,294,310,308,1
310,295,311,308,1
309,297,311,309,1
308,299,311,310,1
306,300,311,310,1
305,300,310,309,1
303,300,308,308,1
302,299,305,307,1
302,299,302,306,1
302,300,300,304,1
301,300,297,301,1
301,299,296,299,1
302,299,296,297,1
302,299,298,296,1
301,299,299,297,1
300,300,300,300,1
300,302,301,305,1
300,304,301,308,1
299,304,302,311,1
301,305,302,312,1
