307,313,304,302,2
306,308,300,303,2
306,304,297,304,2
306,301,296,307,2
308,298,297,309,2
310,297,299,310,2
312,297,301,310,2
312,296,302,309,2
311,293,301,307,2
309,286,300,306,2
307,277,297,304,2
305,270,295,302,2
304,267,294,302,2
304,269,294,303,2
304,275,297,305,2
304,289,300,308,2
304,309,302,312,2
304,327,304,317,2
304,339,306,321,2
304,343,308,324,2
304,341,309,322,2
304,332,307,315,2
303,319,304,308,2
302,306,302,303,2
303,294,303,300,2
306,287,307,300,2
309,286,313,301,2
311,289,319,301,2
312,294,321,302,2
309,300,319,302,2
306,306,315,303,2
304,312,312,305,2
304,317,312,308,2
305,318,313,310,2
306,318,315,310,2
306,318,316,309,2
304,318,312,308,2
301,317,305,308,2
300,316,299,310,2
300,313,296,313,2
301,310,295,317,2
303,309,296,318,2
306,306,299,316,2
308,297,302,311,2
309,284,304,306,2
309,278,304,303,2
308,280,304,302,2
307,286,302,302,2
306,293,301,301,2
304,298,298,299,2
304,299,296,299,2
305,295,296,300,2
306,285,297,303,2
308,271,297,304,2
310,258,298,304,2
312,249,299,304,2
313,248,300,304,2
313,257,302,306,2
312,274,303,307,2
310,291,304,306,2
308,302,304,307,2
308,305,305,309,2
309,302,307,314,2
311,297,309,318,2
312,291,310,320,2
312,291,310,319,2
311,300,309,316,2
308,311,307,313,2
307,319,307,309,2
307,324,309,306,2
309,327,313,304,2
313,329,320,301,2
315,328,326,298,2
316,322,330,296,2
314,314,328,296,2
311,306,321,297,2
307,301,311,300,2
304,297,304,302,2
302,295,299,304,2
300,294,297,306,2
297,295,295,307,2
295,300,295,308,2
293,306,296,309,2
292,308,299,310,2
292,306,301,310,2
293,306,303,310,2
294,308,304,310,2
294,312,305,312,2
295,318,306,313,2
297,325,306,314,2
298,330,308,315,2
301,331,308,317,2
302,328,309,318,2
303,322,308,319,2
304,315,307,320,2
306,311,307,318,2
308,309,307,315,2
310,309,306,312,2
310,313,305,308,2
309,320,303,307,2
307,325,301,306,2
306,323,300,306,2
305,313,300,306,2
305,299,300,307,2
305,284,302,307,2
305,272,304,309,2
305,267,305,312,2
306,272,307,316,2
306,283,308,319,2
305,294,308,318,2
303,300,306,314,2
302,303,304,308,2
302,305,302,304,2
302,303,301,300,2
303,296,300,298,2
303,288,301,297,2
304,282,303,298,2
305,281,306,302,2
307,285,308,305,2
307,290,310,305,2
306,291,311,304,2
304,288,310,301,2
302,285,310,300,2
300,288,308,299,2
299,294,308,299,2
298,299,307,298,2
298,300,307,298,2
300,298,307,298,2
303,294,309,298,2
306,290,310,297,2
308,287,311,298,2
308,289,311,300,2
307,297,310,301,2
306,309,309,304,2
305,320,307,308,2
304,328,307,312,2
304,331,307,314,2
304,328,307,316,2
304,320,307,316,2
303,309,306,313,2
303,296,305,309,2
304,283,307,305,2
306,273,309,301,2
307,269,311,297,2
307,273,312,295,2
306,284,313,293,2
305,299,313,293,2
305,312,313,293,2
306,319,314,293,2
307,320,314,293,2
307,314,314,293,2
309,304,313,294,2
311,294,313,296,2
314,286,313,298,2
316,280,314,301,2
317,280,315,303,2
316,283,317,304,2
312,290,317,303,2
307,296,316,302,2
304,301,314,302,2
303,305,313,303,2
303,308,310,304,2
304,308,307,307,2
305,309,306,309,2
306,309,305,312,2
308,310,307,314,2
311,312,309,317,2
313,314,311,319,2
315,314,312,319,2
316,312,313,316,2
314,307,312,310,2
313,303,311,304,2
310,303,308,300,2
309,309,307,298,2
308,316,306,298,2
307,320,305,298,2
305,323,304,299,2
303,326,304,300,2
302,327,304,301,2
302,328,304,301,2
302,326,304,302,2
304,323,304,302,2
306,318,306,302,2
309,311,307,301,2
310,302,307,301,2
310,294,305,303,2
310,287,304,304,2
309,282,302,307,2
308,283,300,310,2
307,286,300,312,2
307,292,303,311,2
307,297,306,309,2
307,302,310,305,2
306,304,312,303,2
305,306,312,303,2
305,308,309,304,2
305,311,307,305,2
307,314,306,307,2
309,313,306,310,2
310,309,307,313,2
311,303,308,316,2
313,296,309,317,2
313,288,312,317,2
313,282,315,315,2
313,279,316,312,2
311,282,315,310,2
307,285,310,307,2
303,282,304,304,2
301,274,298,302,2
299,267,295,302,2
299,264,295,302,2
301,266,296,303,2
302,273,299,304,2
303,290,301,307,2
303,310,303,309,2
302,329,304,310,2
302,340,304,309,2
303,341,304,307,2
306,334,303,304,2
308,322,302,301,2
311,313,302,299,2
312,310,301,300,2
313,311,301,302,2
313,315,301,304,2
311,321,300,307,2
309,328,300,309,2
307,335,299,310,2
305,338,299,310,2
304,337,300,311,2
304,333,302,313,2
303,323,302,314,2
303,310,302,316,2
303,297,302,315,2
303,284,301,312,2
304,273,301,309,2
304,266,303,307,2
305,261,305,307,2
306,259,306,308,2
307,262,305,308,2
309,269,304,308,2
310,279,302,309,2
309,293,301,309,2
308,308,299,308,2
308,321,299,306,2
309,330,301,305,2
310,335,304,304,2
311,334,306,303,2
311,331,308,302,2
309,329,307,301,2
308,328,306,302,2
307,329,305,304,2
305,331,303,306,2
304,332,301,306,2
304,331,300,306,2
304,328,299,305,2
304,321,299,302,2
302,315,301,300,2
301,310,303,299,2
301,309,307,300,2
303,311,309,301,2
304,313,309,301,2
304,311,308,302,2
304,304,307,302,2
304,293,304,303,2
304,280,303,303,2
304,265,302,303,2
305,251,302,302,2
305,245,301,301,2
305,248,301,300,2
305,256,303,299,2
305,268,306,299,2
305,278,310,299,2
307,288,314,300,2
309,295,319,301,2
310,300,321,302,2
310,300,321,302,2
308,299,317,303,2
306,301,312,306,2
305,307,307,310,2
304,315,304,313,2
305,320,303,314,2
305,323,302,313,2
305,324,302,311,2
306,322,302,310,2
308,314,302,308,2
310,304,304,307,2
311,295,306,306,2
311,290,308,304,2
311,292,309,304,2
310,302,309,304,2
309,312,306,303,2
306,321,303,303,2
304,325,299,303,2
303,327,297,304,2
303,327,297,307,2
303,323,298,310,2
303,315,299,313,2
303,306,301,313,2
303,296,302,311,2
302,286,302,307,2
303,274,302,304,2
304,263,302,302,2
305,258,301,302,2
306,263,300,303,2
306,277,298,305,2
305,296,296,307,2
304,316,295,309,2
304,332,296,310,2
306,343,299,309,2
308,348,301,308,2
307,345,302,305,2
304,335,302,302,2
300,323,299,298,2
295,310,297,295,2
293,299,297,294,2
293,292,299,296,2
295,289,300,299,2
297,289,302,303,2
299,290,303,306,2
302,292,304,308,2
304,295,305,310,2
307,295,306,313,2
310,295,307,317,2
314,297,308,320,2
316,303,310,320,2
318,307,311,319,2
318,305,311,316,2
318,300,311,315,2
317,296,311,313,2
316,294,310,312,2
315,298,308,311,2
313,303,305,307,2
309,309,304,302,2
306,313,303,299,2
303,317,302,297,2
303,320,303,298,2
303,324,306,299,2
305,327,308,302,2
306,329,309,304,2
306,329,309,307,2
306,326,307,309,2
305,320,304,311,2
305,311,302,313,2
306,304,300,315,2
308,302,299,317,2
308,302,299,318,2
308,301,297,317,2
306,299,296,315,2
303,296,293,312,2
301,293,291,308,2
299,290,290,305,2
299,287,290,304,2
301,287,293,303,2
304,289,297,304,2
306,291,301,304,2
306,292,303,304,2
305,295,303,304,2
304,298,302,304,2
304,299,302,305,2
304,298,302,305,2
305,296,301,305,2
306,294,302,305,2
307,292,303,306,2
309,294,305,309,2
310,299,306,312,2
311,307,306,314,2
310,311,304,314,2
308,312,301,312,2
307,309,299,311,2
307,305,297,309,2
308,302,296,307,2
306,303,295,305,2
304,305,293,302,2
301,304,291,299,2
298,299,290,298,2
296,292,290,300,2
296,283,293,302,2
298,276,296,305,2
302,273,301,308,2
306,275,304,312,2
309,282,306,314,2
310,290,307,316,2
309,301,307,316,2
308,314,307,317,2
306,327,308,318,2
304,338,307,321,2
302,346,308,325,2
301,350,307,326,2
300,347,307,324,2
299,339,306,319,2
299,328,305,314,2
300,317,305,310,2
302,309,306,308,2
304,305,307,307,2
305,304,308,307,2
306,301,309,307,2
306,297,309,308,2
306,294,308,309,2
304,292,308,310,2
304,294,307,312,2
302,299,307,313,2
301,306,305,314,2
300,312,303,313,2
301,318,301,311,2
303,322,302,308,2
306,326,304,307,2
308,329,308,308,2
309,330,310,310,2
310,329,311,310,2
310,325,310,308,2
309,320,310,306,2
311,316,311,304,2
314,310,313,303,2
317,304,316,303,2
318,295,318,305,2
317,287,316,307,2
314,281,313,310,2
309,280,309,311,2
306,283,305,312,2
302,288,303,311,2
300,292,300,309,2
298,296,298,309,2
296,300,297,308,2
295,304,296,309,2
295,307,296,310,2
295,310,298,311,2
297,312,300,312,2
299,313,302,312,2
300,313,304,312,2
301,310,305,312,2
303,304,305,311,2
304,296,304,309,2
305,286,304,309,2
307,274,304,308,2
308,265,304,308,2
308,256,304,308,2
309,253,304,308,2
310,257,304,310,2
310,265,304,312,2
310,274,304,313,2
309,283,304,314,2
309,293,303,314,2
308,301,303,314,2
308,308,303,313,2
307,315,303,312,2
308,323,304,312,2
308,331,304,313,2
308,339,305,316,2
307,345,307,323,2
308,350,308,330,2
308,351,309,335,2
308,346,309,335,2
309,335,309,332,2
309,319,310,326,2
309,302,310,320,2
309,285,311,315,2
309,272,311,312,2
308,268,311,311,2
307,272,309,311,2
306,279,306,310,2
304,284,303,308,2
303,287,301,307,2
301,289,302,306,2
301,289,303,305,2
301,289,305,305,2
302,288,307,304,2
302,290,307,304,2
300,297,304,303,2
297,307,300,302,2
295,318,296,301,2
293,330,293,300,2
293,339,292,300,2
294,345,293,300,2
294,349,294,300,2
295,350,296,301,2
297,351,299,303,2
298,348,302,306,2
300,343,304,307,2
302,334,305,307,2
303,321,306,306,2
304,310,306,305,2
305,303,307,304,2
306,301,308,304,2
306,300,309,305,2
306,300,310,306,2
306,299,310,307,2
306,298,310,308,2
306,296,308,308,2
306,293,306,308,2
305,290,304,309,2
304,289,304,311,2
304,289,305,312,2
305,288,305,311,2
305,285,306,309,2
304,280,307,305,2
305,273,309,304,2
308,267,313,305,2
311,261,318,307,2
313,258,320,307,2
313,264,318,307,2
312,279,312,309,2
312,300,304,309,2
312,325,297,308,2
311,350,291,308,2
309,369,290,306,2
308,376,291,303,2
306,371,294,302,2
304,359,297,300,2
302,345,298,299,2
300,333,297,299,2
300,325,297,300,2
300,322,297,301,2
301,319,298,303,2
303,316,301,305,2
305,313,304,306,2
307,309,307,306,2
309,306,308,307,2
310,306,309,310,2
311,306,310,313,2
311,304,309,316,2
310,302,308,318,2
308,302,306,320,2
307,302,303,322,2
307,303,302,323,2
308,304,303,324,2
308,306,305,324,2
309,307,308,323,2
309,309,310,321,2
307,310,308,317,2
305,312,304,312,2
303,312,300,309,2
302,310,297,307,2
302,305,296,306,2
302,298,296,306,2
302,288,297,306,2
303,278,300,306,2
304,270,304,307,2
306,266,307,309,2
307,266,309,310,2
308,269,310,310,2
307,275,310,309,2
307,283,311,308,2
307,291,312,306,2
308,298,313,305,2
308,301,315,303,2
308,298,315,302,2
307,292,313,300,2
306,288,311,300,2
305,287,307,301,2
305,286,305,303,2
305,288,303,304,2
304,293,301,306,2
303,298,299,308,2
303,303,299,309,2
303,308,300,310,2
303,315,302,310,2
304,322,303,309,2
305,327,305,309,2
306,330,306,308,2
305,333,307,308,2
305,337,306,308,2
304,342,305,309,2
303,343,304,309,2
303,340,303,307,2
303,333,304,305,2
303,325,304,304,2
303,316,303,303,2
303,308,300,303,2
303,301,297,302,2
304,296,294,302,2
305,296,292,303,2
305,298,291,303,2
306,300,291,303,2
305,305,291,302,2
304,314,291,302,2
303,322,292,302,2
302,324,294,301,2
302,322,297,300,2
304,317,301,299,2
305,311,307,298,2
307,305,311,299,2
308,300,314,299,2
308,297,316,300,2
307,296,318,301,2
308,297,319,301,2
308,298,320,301,2
308,297,322,302,2
308,293,323,302,2
307,288,323,303,2
306,283,321,304,2
306,281,319,308,2
307,284,316,312,2
310,290,314,316,2
311,299,313,317,2
310,308,311,316,2
308,316,309,313,2
305,319,306,311,2
303,318,304,310,2
303,312,304,309,2
305,300,305,307,2
307,286,308,304,2
309,274,310,300,2
309,267,311,297,2
308,265,309,295,2
307,268,306,295,2
307,277,304,296,2
307,288,303,298,2
308,301,304,301,2
306,312,305,302,2
305,322,305,303,2
304,332,304,304,2
303,340,302,304,2
303,344,300,304,2
305,344,299,305,2
307,339,299,306,2
310,332,300,307,2
311,324,302,309,2
313,316,304,311,2
314,308,307,312,2
314,304,308,312,2
313,303,308,310,2
312,304,308,307,2
311,304,307,304,2
310,304,306,303,2
310,304,305,300,2
309,301,305,297,2
309,298,305,296,2
308,296,305,296,2
308,294,305,297,2
308,294,304,298,2
309,294,305,299,2
309,296,306,299,2
308,298,306,299,2
306,299,305,299,2
305,300,303,300,2
305,301,303,301,2
304,303,303,301,2
304,304,304,302,2
305,304,306,303,2
306,301,307,304,2
307,297,308,303,2
308,295,309,302,2
309,295,309,302,2
310,297,309,302,2
310,300,308,302,2
310,305,307,304,2
310,314,306,305,2
310,325,304,306,2
310,331,302,305,2
310,328,301,304,2
310,319,300,302,2
310,307,300,301,2
311,297,301,301,2
312,290,303,301,2
313,287,305,303,2
312,288,306,305,2
311,295,306,307,2
310,305,305,308,2
309,315,305,309,2
309,324,306,310,2
307,331,307,309,2
305,334,307,308,2
304,335,306,307,2
304,333,306,306,2
305,329,306,304,2
305,323,306,302,2
306,314,306,299,2
307,303,307,298,2
308,289,306,298,2
308,274,305,299,2
308,259,303,301,2
308,248,301,305,2
308,246,301,308,2
308,256,300,311,2
308,274,300,312,2
308,295,301,313,2
308,316,302,312,2
308,332,303,312,2
307,341,305,310,2
306,344,305,308,2
304,341,304,307,2
303,337,302,306,2
303,331,299,308,2
304,327,297,310,2
305,324,297,312,2
305,323,298,313,2
306,322,299,311,2
306,320,300,308,2
306,314,301,306,2
306,301,301,305,2
306,287,301,303,2
306,274,301,302,2
306,263,302,300,2
306,256,301,298,2
305,255,301,297,2
303,262,300,297,2
301,275,298,298,2
299,290,297,300,2
297,305,297,304,2
295,321,298,308,2
295,334,300,311,2
296,343,303,313,2
299,348,305,313,2
302,349,307,310,2
305,345,308,306,2
308,335,308,304,2
310,318,307,303,2
313,298,307,305,2
315,278,307,307,2
317,264,308,307,2
317,259,309,307,2
316,268,309,305,2
313,287,308,304,2
309,311,307,304,2
306,332,306,304,2
304,346,306,306,2
303,353,305,307,2
302,354,304,308,2
302,352,303,308,2
302,346,302,309,2
303,339,302,309,2
303,329,302,308,2
304,319,302,306,2
303,308,301,305,2
303,300,301,304,2
302,296,300,304,2
303,297,301,304,2
303,304,303,307,2
305,313,305,311,2
307,320,307,316,2
310,324,309,320,2
312,326,313,321,2
314,326,317,319,2
315,322,322,314,2
315,314,326,310,2
312,305,326,306,2
308,297,320,304,2
304,290,312,303,2
301,282,304,302,2
300,271,299,300,2
300,257,297,299,2
299,242,297,297,2
299,230,298,296,2
300,224,300,294,2
301,227,302,293,2
302,241,304,293,2
304,261,306,294,2
305,286,307,294,2
305,310,308,293,2
302,328,307,294,2
301,336,305,294,2
299,336,303,296,2
298,330,303,297,2
299,321,304,299,2
300,311,306,301,2
302,304,308,304,2
304,303,311,306,2
305,305,313,308,2
305,309,313,308,2
305,314,313,310,2
305,320,311,313,2
305,323,310,315,2
305,325,309,316,2
304,325,308,315,2
304,327,308,313,2
307,327,309,311,2
309,325,311,308,2
308,319,310,306,2
307,312,308,305,2
305,305,305,305,2
304,302,303,307,2
303,302,302,309,2
303,305,302,311,2
304,310,303,314,2
305,318,303,314,2
305,324,302,314,2
305,325,301,313,2
305,320,301,313,2
306,315,301,311,2
307,310,302,308,2
308,306,302,306,2
309,305,304,305,2
309,307,305,305,2
308,310,307,307,2
308,315,309,308,2
307,318,311,308,2
307,319,310,308,2
306,318,309,308,2
306,314,307,308,2
306,308,305,306,2
307,299,304,303,2
309,287,306,301,2
311,274,308,301,2
313,262,311,302,2
313,252,313,304,2
313,249,314,306,2
311,256,313,309,2
309,273,309,311,2
306,295,306,312,2
303,317,304,310,2
302,333,303,308,2
303,341,305,306,2
307,342,308,304,2
309,338,311,303,2
310,329,313,302,2
309,317,312,301,2
307,308,310,303,2
306,303,309,305,2
305,302,307,308,2
306,305,307,310,2
307,310,308,312,2
310,317,310,314,2
311,320,311,317,2
311,318,310,320,2
311,314,307,322,2
310,311,304,323,2
309,308,300,320,2
308,308,295,315,2
307,310,293,310,2
307,313,291,308,2
307,313,292,307,2
306,309,295,306,2
306,301,299,307,2
306,291,302,307,2
307,279,303,307,2
307,265,304,307,2
307,254,302,307,2
307,250,300,307,2
306,250,299,308,2
306,256,299,308,2
305,267,299,307,2
302,282,297,306,2
300,301,298,306,2
299,316,299,307,2
299,325,302,309,2
300,329,304,310,2
303,330,306,312,2
305,329,308,314,2
307,328,310,317,2
310,326,311,320,2
312,326,312,321,2
313,325,312,321,2
313,326,312,317,2
313,326,311,313,2
312,325,311,309,2
312,322,309,305,2
311,316,307,302,2
309,308,305,300,2
309,299,304,299,2
310,289,304,301,2
311,281,305,303,2
312,276,307,306,2
313,273,309,307,2
313,275,310,308,2
311,279,308,306,2
309,290,306,305,2
309,305,305,305,2
308,323,304,305,2
306,338,301,305,2
303,347,299,305,2
300,349,296,305,2
299,348,295,304,2
298,344,295,304,2
298,338,296,305,2
298,331,296,306,2
298,323,296,305,2
298,315,295,304,2
299,306,295,303,2
302,296,296,303,2
304,287,298,305,2
305,281,299,308,2
307,279,300,311,2
308,282,302,313,2
309,288,306,314,2
310,293,309,314,2
311,298,311,314,2
311,301,313,314,2
312,303,314,315,2
311,305,314,315,2
310,307,314,314,2
309,309,311,313,2
307,311,308,311,2
305,314,305,310,2
303,319,303,309,2
302,325,303,310,2
302,330,304,311,2
301,333,304,313,2
302,335,306,314,2
303,335,307,315,2
303,332,308,316,2
303,326,307,316,2
303,318,305,315,2
303,310,304,312,2
302,301,303,309,2
300,294,303,306,2
299,284,304,305,2
298,275,304,305,2
297,265,304,305,2
296,256,304,306,2
297,248,303,306,2
298,243,302,306,2
300,242,301,305,2
302,245,301,305,2
304,250,302,306,2
305,261,304,309,2
306,280,305,312,2
306,302,307,313,2
306,320,307,312,2
305,331,307,310,2
305,335,306,309,2
305,334,306,309,2
305,330,305,309,2
305,326,305,309,2
305,321,305,309,2
306,313,306,309,2
306,305,307,308,2
306,301,308,308,2
305,302,307,307,2
303,304,307,306,2
301,309,306,306,2
299,315,306,306,2
297,322,305,306,2
298,326,305,305,2
299,328,305,305,2
302,327,305,305,2
303,326,305,304,2
303,325,304,305,2
303,326,304,305,2
302,325,304,305,2
301,323,304,305,2
301,319,306,306,2
302,316,310,306,2
305,314,314,307,2
309,313,317,307,2
312,310,319,306,2
314,305,321,305,2
314,301,320,307,2
314,294,319,308,2
313,286,317,309,2
313,278,315,308,2
312,273,313,307,2
312,275,310,306,2
311,281,308,306,2
310,288,308,307,2
309,295,308,310,2
309,301,310,311,2
309,305,310,311,2
309,309,310,309,2
308,312,310,306,2
307,314,310,303,2
305,314,311,301,2
304,313,311,301,2
303,312,311,302,2
303,314,310,306,2
304,317,309,311,2
305,319,307,315,2
306,319,306,317,2
307,317,304,316,2
308,313,302,312,2
308,308,301,308,2
308,302,301,304,2
309,295,302,301,2
309,285,303,299,2
309,276,305,298,2
310,269,307,298,2
313,263,310,298,2
315,260,313,297,2
315,260,315,297,2
314,265,315,296,2
312,277,314,296,2
310,296,312,297,2
307,313,310,299,2
304,323,308,301,2
302,323,306,303,2
302,318,305,306,2
302,313,305,310,2
304,311,307,314,2
307,314,309,319,2
309,318,310,322,2
310,321,312,322,2
310,321,313,321,2
310,318,313,318,2
310,311,312,314,2
309,301,310,308,2
308,292,308,303,2
307,287,307,298,2
306,290,306,295,2
305,297,306,293,2
305,303,307,293,2
306,306,309,295,2
307,306,311,297,2
309,303,312,299,2
309,299,312,301,2
309,299,312,302,2
308,302,313,304,2
308,308,314,307,2
308,317,315,310,2
307,323,316,312,2
307,327,315,313,2
307,329,314,313,2
307,329,312,313,2
307,328,311,312,2
307,326,311,311,2
306,321,312,311,2
307,315,314,311,2
308,306,316,312,2
309,296,317,312,2
309,285,316,311,2
309,277,314,310,2
308,273,312,310,2
307,274,310,312,2
306,281,308,312,2
304,292,306,312,2
303,304,305,310,2
303,316,304,309,2
303,323,305,307,2
304,325,307,306,2
305,322,309,305,2
305,317,311,305,2
305,311,312,307,2
304,308,312,309,2
305,310,311,313,2
305,316,309,316,2
305,324,307,318,2
305,330,305,318,2
304,330,303,317,2
304,325,301,313,2
305,317,300,308,2
305,307,300,305,2
304,296,300,304,2
303,283,299,303,2
300,272,299,302,2
298,270,299,301,2
296,276,300,300,2
295,287,301,301,2
295,298,302,303,2
295,306,302,304,2
296,309,304,305,2
298,311,305,307,2
301,314,306,308,2
303,317,308,309,2
304,320,310,309,2
306,324,311,310,2
307,329,312,310,2
308,335,311,311,2
307,338,310,311,2
306,339,308,310,2
305,338,307,309,2
305,336,306,307,2
304,333,305,304,2
303,330,305,301,2
303,327,305,299,2
303,324,306,299,2
303,320,306,299,2
303,316,306,299,2
303,309,306,300,2
304,303,305,299,2
304,296,304,298,2
304,289,303,296,2
305,285,302,295,2
305,284,302,295,2
304,284,301,295,2
304,287,301,296,2
303,291,301,297,2
302,295,301,298,2
301,298,301,299,2
302,301,301,300,2
302,306,300,301,2
303,311,300,300,2
304,314,300,299,2
304,311,300,299,2
305,304,301,299,2
305,296,304,301,2
306,288,307,306,2
307,283,311,313,2
308,282,313,320,2
308,288,311,327,2
308,296,308,330,2
308,303,305,328,2
306,306,303,323,2
305,308,300,317,2
303,307,299,312,2
302,306,298,308,2
301,307,297,305,2
301,311,296,304,2
302,313,296,302,2
303,311,295,300,2
304,306,296,299,2
306,303,298,301,2
308,305,301,303,2
308,311,303,304,2
308,319,306,304,2
308,325,308,301,2
307,327,310,299,2
307,325,309,297,2
308,320,309,296,2
308,315,309,297,2
308,313,308,299,2
307,313,306,302,2
306,315,306,305,2
306,318,305,307,2
306,320,305,308,2
305,321,305,309,2
305,320,304,309,2
304,318,304,308,2
304,318,303,309,2
303,318,302,309,2
303,319,302,309,2
303,318,301,308,2
304,317,301,306,2
305,315,302,304,2
306,313,302,302,2
306,309,302,301,2
306,303,303,301,2
305,297,304,301,2
304,289,305,302,2
304,282,305,303,2
304,275,305,304,2
304,268,304,305,2
304,263,303,306,2
303,260,302,306,2
303,261,302,306,2
304,266,303,306,2
304,275,304,307,2
304,287,306,308,2
304,301,306,310,2
304,312,306,310,2
304,320,307,309,2
304,325,307,308,2
303,329,307,307,2
301,334,306,307,2
300,339,304,308,2
300,343,301,308,2
299,343,300,307,2
299,341,298,305,2
299,336,298,304,2
300,331,298,304,2
302,324,300,304,2
303,318,304,303,2
303,311,307,302,2
303,305,310,301,2
302,301,312,300,2
301,297,312,300,2
300,294,310,299,2
300,291,310,300,2
301,289,310,301,2
303,286,311,302,2
306,282,313,303,2
308,279,313,304,2
309,277,311,305,2
309,278,309,306,2
309,281,306,307,2
309,285,306,308,2
310,290,307,309,2
312,297,310,311,2
312,307,312,313,2
312,318,313,313,2
309,328,312,313,2
307,331,310,314,2
305,328,308,315,2
304,320,305,314,2
302,313,303,313,2
301,311,301,310,2
299,315,300,308,2
298,324,300,306,2
298,332,300,305,2
299,335,299,304,2
300,334,299,305,2
303,328,300,306,2
305,318,300,306,2
305,307,300,306,2
305,297,299,305,2
305,290,299,304,2
306,288,299,304,2
306,289,299,305,2
306,293,300,306,2
306,297,301,307,2
306,300,302,308,2
306,302,304,311,2
308,303,305,315,2
310,306,305,317,2
311,308,305,319,2
312,309,306,319,2
313,309,305,318,2
312,307,304,315,2
310,305,302,311,2
307,304,300,307,2
306,301,300,303,2
304,301,300,301,2
304,302,300,300,2
303,307,301,301,2
301,315,302,303,2
300,324,302,305,2
299,330,301,307,2
298,331,301,309,2
299,326,302,309,2
301,319,302,309,2
304,311,302,309,2
308,304,303,310,2
310,300,304,309,2
313,300,304,308,2
314,304,306,308,2
316,311,307,308,2
316,316,307,308,2
315,319,307,308,2
313,321,307,308,2
313,322,307,307,2
312,322,308,306,2
313,321,309,304,2
313,319,310,303,2
312,316,310,302,2
311,313,309,302,2
310,312,309,302,2
309,311,308,303,2
309,310,309,304,2
309,309,309,304,2
310,309,310,304,2
310,308,309,303,2
310,305,308,301,2
309,301,306,299,2
308,296,304,297,2
308,290,304,297,2
308,287,305,297,2
308,284,307,297,2
308,282,307,298,2
307,278,307,300,2
307,271,306,302,2
306,260,305,304,2
306,251,305,306,2
305,247,305,309,2
305,248,305,312,2
305,258,305,315,2
304,274,306,317,2
304,293,306,318,2
304,313,307,318,2
305,328,307,318,2
307,338,307,317,2
308,344,308,316,2
309,346,306,315,2
308,345,304,313,2
306,339,302,311,2
304,331,300,308,2
303,325,299,306,2
302,321,299,306,2
302,318,300,306,2
302,317,301,308,2
303,319,301,310,2
304,323,302,311,2
306,325,302,309,2
307,321,302,307,2
308,312,302,305,2
310,301,303,303,2
311,292,304,302,2
312,290,305,303,2
312,294,305,306,2
311,301,304,307,2
310,309,302,310,2
309,318,301,311,2
309,322,301,310,2
309,318,302,310,2
309,303,303,308,2
309,281,305,306,2
309,257,307,305,2
311,235,308,304,2
313,218,309,304,2
314,211,309,303,2
314,219,309,303,2
312,242,308,303,2
310,273,307,303,2
308,304,306,303,2
307,331,306,303,2
305,352,305,303,2
304,366,305,303,2
303,372,304,303,2
303,371,304,303,2
302,364,305,303,2
302,354,305,303,2
302,343,305,304,2
303,333,304,305,2
305,323,303,306,2
307,314,304,308,2
310,306,305,311,2
312,302,306,314,2
313,300,308,316,2
314,300,309,315,2
314,299,309,313,2
313,298,309,310,2
312,298,309,307,2
312,300,310,306,2
312,306,311,306,2
313,314,313,308,2
314,322,314,308,2
313,325,312,307,2
311,324,307,306,2
310,318,302,306,2
309,311,296,306,2
307,304,291,306,2
305,299,288,305,2
303,299,286,306,2
302,304,286,306,2
301,313,286,308,2
302,322,288,311,2
303,329,291,312,2
304,332,295,313,2
306,333,300,312,2
308,332,304,312,2
308,331,307,311,2
306,329,308,311,2
305,327,307,309,2
304,322,306,307,2
304,316,307,304,2
303,309,308,303,2
303,304,310,304,2
303,299,311,305,2
305,294,312,307,2
306,288,314,307,2
308,283,314,305,2
310,282,315,302,2
313,284,316,298,2
315,289,318,294,2
315,293,318,293,2
315,294,318,293,2
315,293,320,292,2
314,286,321,290,2
313,277,319,288,2
310,269,313,286,2
308,265,305,284,2
307,268,297,284,2
307,275,293,285,2
305,281,293,287,2
303,283,295,290,2
301,282,297,295,2
301,280,300,300,2
303,276,303,304,2
306,272,307,307,2
308,271,309,309,2
309,272,310,311,2
308,281,310,313,2
306,296,308,315,2
305,314,308,316,2
304,327,307,317,2
304,329,307,314,2
304,325,309,311,2
305,317,311,308,2
306,312,312,305,2
306,308,312,302,2
305,307,309,300,2
304,309,306,298,2
303,311,303,298,2
303,315,300,299,2
303,321,298,301,2
305,326,298,302,2
306,331,298,304,2
307,333,300,308,2
309,333,304,310,2
311,332,309,313,2
313,331,312,315,2
314,329,313,316,2
312,327,312,316,2
310,326,308,315,2
307,324,305,314,2
305,323,305,315,2
303,322,306,315,2
303,320,307,317,2
303,318,308,318,2
304,312,309,319,2
305,305,311,321,2
306,297,313,321,2
308,290,315,319,2
309,285,318,317,2
310,282,318,315,2
310,283,319,314,2
312,288,319,314,2
314,294,321,315,2
316,302,323,318,2
317,307,325,322,2
316,312,324,325,2
313,316,322,325,2
310,318,317,321,2
307,320,312,315,2
305,321,309,308,2
304,320,306,304,2
303,319,305,301,2
302,316,303,300,2
302,312,302,300,2
302,304,301,301,2
302,296,300,302,2
301,292,300,303,2
302,293,299,304,2
301,297,297,304,2
302,301,296,305,2
303,305,295,306,2
303,307,295,307,2
304,308,297,308,2
304,306,299,308,2
304,300,303,308,2
304,292,306,308,2
305,283,309,308,2
305,273,309,308,2
305,265,309,309,2
306,259,308,309,2
306,260,308,310,2
308,267,307,312,2
309,276,308,313,2
311,286,309,311,2
311,296,310,309,2
311,304,309,307,2
310,312,309,308,2
310,319,308,309,2
309,322,305,310,2
309,322,303,309,2
310,319,301,307,2
311,315,301,304,2
312,314,301,302,2
311,316,301,302,2
309,321,302,303,2
308,328,302,306,2
307,335,303,311,2
306,339,304,314,2
306,339,305,316,2
307,335,305,315,2
308,325,305,312,2
309,311,305,309,2
309,296,304,309,2
310,283,304,310,2
311,273,304,313,2
312,271,305,317,2
313,278,306,321,2
313,291,308,323,2
313,306,309,322,2
310,317,309,318,2
307,320,306,313,2
302,321,303,308,2
298,322,298,305,2
296,322,295,303,2
294,322,294,302,2
294,320,294,302,2
294,319,295,302,2
294,318,297,303,2
295,318,299,303,2
296,319,302,304,2
296,316,304,305,2
296,310,303,305,2
297,302,301,305,2
297,293,301,305,2
299,286,301,304,2
301,283,301,304,2
302,282,301,304,2
303,283,302,305,2
305,285,305,306,2
307,288,308,308,2
308,292,312,309,2
310,297,314,309,2
309,299,314,308,2
308,300,311,306,2
306,300,307,305,2
306,301,303,305,2
305,303,300,306,2
305,304,298,307,2
304,304,297,307,2
302,303,296,307,2
301,302,298,308,2
302,299,300,310,2
303,296,303,311,2
303,291,305,310,2
304,284,306,308,2
304,279,306,307,2
305,277,306,304,2
306,282,306,303,2
305,291,304,301,2
305,301,302,299,2
306,312,301,299,2
307,323,301,300,2
309,330,302,300,2
308,332,302,300,2
306,330,299,299,2
303,328,296,300,2
301,327,294,302,2
300,326,294,303,2
300,326,294,303,2
301,324,296,304,2
302,321,298,306,2
304,317,301,309,2
304,315,302,312,2
304,314,301,315,2
304,315,300,316,2
305,317,299,315,2
305,318,298,314,2
306,319,299,313,2
306,322,301,314,2
308,325,304,316,2
308,324,307,318,2
307,321,307,320,2
306,315,308,319,2
305,309,307,317,2
304,303,307,314,2
304,297,307,311,2
303,290,307,310,2
304,282,305,309,2
304,273,303,309,2
304,263,302,309,2
304,255,300,309,2
305,253,299,308,2
305,261,299,308,2
305,276,300,307,2
305,295,301,307,2
305,313,302,307,2
306,324,305,309,2
308,325,310,311,2
310,315,314,312,2
310,303,315,312,2
309,291,314,311,2
307,286,310,311,2
305,288,306,311,2
304,296,303,314,2
303,305,301,317,2
302,312,301,318,2
301,316,301,318,2
301,319,300,317,2
300,320,300,314,2
300,321,300,310,2
300,321,300,308,2
302,320,301,307,2
303,316,302,306,2
305,310,305,306,2
306,303,309,305,2
307,297,311,304,2
307,294,313,302,2
306,295,312,300,2
305,299,309,301,2
305,308,306,302,2
304,317,303,303,2
305,325,302,305,2
306,331,302,306,2
307,332,302,308,2
307,330,302,308,2
307,325,301,308,2
307,320,300,307,2
308,315,298,307,2
308,312,298,306,2
308,314,298,306,2
307,321,300,307,2
307,327,301,309,2
306,330,303,310,2
305,329,303,311,2
305,326,303,311,2
305,326,302,311,2
305,326,302,311,2
305,326,301,311,2
306,323,301,311,2
307,318,301,312,2
308,309,302,313,2
309,298,302,315,2
311,286,304,318,2
312,276,304,320,2
314,273,305,321,2
315,275,305,319,2
313,283,303,314,2
311,295,301,309,2
310,308,301,305,2
309,319,301,304,2
308,323,302,304,2
308,316,302,304,2
307,297,301,304,2
307,270,302,304,2
308,246,303,304,2
308,231,303,304,2
308,230,303,303,2
306,241,301,302,2
304,262,300,302,2
303,287,298,304,2
302,310,297,305,2
301,326,294,305,2
300,335,292,305,2
300,337,289,304,2
300,335,287,302,2
301,329,283,299,2
301,322,279,297,2
301,316,276,295,2
301,313,276,294,2
301,314,276,294,2
302,318,275,295,2
303,320,275,297,2
304,321,276,298,2
305,320,277,299,2
306,319,279,301,2
307,318,281,302,2
308,317,288,301,2
308,315,297,300,2
308,312,309,302,2
309,309,321,309,2
310,307,329,317,2
312,307,333,323,2
313,307,335,326,2
314,309,335,325,2
313,311,333,323,2
312,314,330,321,2
310,314,326,319,2
308,310,321,317,2
307,306,317,314,2
308,301,315,312,2
309,296,317,311,2
312,291,319,312,2
312,289,319,313,2
312,291,317,313,2
310,297,314,314,2
308,305,311,313,2
306,313,309,312,2
304,317,308,311,2
304,317,308,310,2
304,312,308,310,2
304,303,309,309,2
305,295,309,310,2
305,290,309,311,2
305,287,309,312,2
306,287,311,313,2
309,289,314,314,2
314,298,320,315,2
319,308,325,316,2
321,316,328,315,2
318,321,326,314,2
313,324,321,313,2
309,324,316,313,2
306,323,311,313,2
305,321,309,314,2
305,319,309,315,2
306,320,309,316,2
306,321,311,313,2
306,322,311,309,2
306,321,311,304,2
306,319,309,301,2
306,316,308,298,2
308,314,310,298,2
310,314,313,300,2
313,313,319,303,2
315,310,324,305,2
314,304,327,306,2
311,299,327,308,2
309,293,326,309,2
307,285,322,311,2
306,278,318,311,2
306,277,313,310,2
305,282,310,309,2
304,292,307,309,2
303,304,305,309,2
301,316,303,309,2
300,323,303,309,2
299,322,302,308,2
299,316,303,307,2
300,307,303,305,2
301,297,304,304,2
302,286,305,303,2
304,277,307,303,2
304,272,307,302,2
304,277,307,302,2
303,288,307,301,2
303,301,307,302,2
302,313,306,303,2
301,324,305,305,2
301,332,306,308,2
301,337,307,309,2
302,338,307,310,2
302,336,307,311,2
303,333,308,311,2
303,328,307,310,2
304,324,307,309,2
304,321,308,308,2
304,319,308,307,2
303,318,308,305,2
302,319,307,304,2
302,319,307,305,2
302,319,307,307,2
303,319,308,310,2
304,317,309,313,2
306,314,310,317,2
308,311,312,322,2
309,309,314,326,2
309,305,315,329,2
309,301,315,327,2
308,299,314,321,2
308,300,314,314,2
309,301,314,307,2
308,302,315,301,2
309,302,315,297,2
309,303,315,294,2
310,303,314,292,2
310,301,311,291,2
310,296,308,291,2
310,290,306,292,2
311,283,305,293,2
310,277,304,293,2
309,272,304,294,2
308,269,305,294,2
307,272,305,294,2
306,282,305,295,2
305,296,305,296,2
305,305,304,298,2
304,305,304,301,2
303,301,304,304,2
303,297,305,308,2
305,295,306,311,2
307,298,307,312,2
308,306,309,312,2
308,316,309,311,2
307,323,309,308,2
306,326,308,307,2
306,327,307,306,2
307,327,307,306,2
308,323,306,306,2
309,317,306,307,2
309,311,305,307,2
309,310,306,307,2
309,315,308,307,2
308,321,309,306,2
307,326,310,305,2
305,326,310,304,2
304,325,310,304,2
304,322,311,303,2
306,317,312,302,2
307,312,314,301,2
307,308,315,299,2
307,306,314,298,2
306,307,313,299,2
305,310,312,302,2
304,315,312,307,2
304,320,312,313,2
304,324,313,318,2
304,326,313,320,2
304,327,314,322,2
304,326,314,323,2
306,324,314,323,2
308,319,315,321,2
310,313,314,319,2
310,304,312,317,2
309,297,308,314,2
308,291,305,312,2
307,290,305,311,2
308,288,307,310,2
308,283,310,309,2
309,275,312,309,2
310,268,313,308,2
311,263,311,307,2
312,263,307,307,2
312,267,303,307,2
311,274,299,307,2
310,281,297,307,2
308,286,298,307,2
307,293,300,308,2
305,301,303,309,2
303,313,306,309,2
302,326,309,309,2
301,338,311,310,2
302,346,313,310,2
303,350,315,312,2
304,352,317,314,2
304,352,317,318,2
304,350,316,320,2
304,347,314,322,2
304,340,313,321,2
305,329,313,320,2
306,316,313,319,2
309,304,314,317,2
310,294,314,314,2
311,285,314,311,2
311,280,313,309,2
309,277,312,309,2
306,279,310,309,2
302,285,308,309,2
299,293,307,309,2
297,301,307,309,2
297,310,309,308,2
297,319,310,307,2
298,326,312,307,2
298,330,313,309,2
298,330,313,312,2
299,327,312,314,2
300,321,312,315,2
300,311,313,313,2
301,296,313,310,2
302,281,314,306,2
304,272,314,303,2
307,271,315,302,2
310,277,315,304,2
311,291,315,306,2
310,310,314,308,2
308,328,312,309,2
306,341,310,310,2
305,348,308,312,2
304,347,308,312,2
303,339,308,310,2
303,327,307,308,2
302,313,306,306,2
302,301,306,305,2
302,294,308,306,2
303,292,309,309,2
303,294,311,311,2
303,298,310,313,2
302,298,308,312,2
302,294,306,312,2
303,286,305,311,2
305,276,307,310,2
309,268,310,309,2
311,263,314,307,2
312,264,317,305,2
310,273,318,304,2
307,290,317,303,2
303,310,313,302,2
301,329,310,303,2
299,346,307,304,2
299,358,307,306,2
299,360,308,310,2
300,353,308,312,2
300,337,309,314,2
301,319,310,313,2
302,302,311,312,2
304,292,313,312,2
305,289,313,312,2
306,292,314,312,2
306,296,313,313,2
306,299,311,314,2
305,298,308,314,2
305,294,306,313,2
305,290,304,312,2
305,286,303,311,2
305,286,303,309,2
305,288,303,307,2
304,292,303,306,2
302,296,304,305,2
302,301,305,306,2
303,303,307,307,2
305,303,308,307,2
306,301,309,307,2
308,300,309,307,2
308,299,308,307,2
308,300,307,308,2
307,305,307,309,2
306,314,307,310,2
304,322,308,311,2
304,325,308,311,2
303,323,308,311,2
304,314,309,311,2
305,303,310,310,2
307,289,311,309,2
308,278,312,308,2
309,274,312,309,2
310,278,312,311,2
309,289,312,313,2
308,301,312,315,2
307,312,312,315,2
306,319,313,313,2
305,323,312,309,2
304,326,312,306,2
303,328,311,305,2
303,330,310,305,2
301,331,308,305,2
300,332,307,305,2
300,333,307,305,2
300,332,307,307,2
302,331,307,309,2
302,330,308,310,2
304,329,310,311,2
304,329,313,309,2
306,328,316,306,2
307,328,319,304,2
307,328,321,303,2
307,328,321,304,2
306,327,318,306,2
305,323,316,307,2
304,313,313,309,2
303,300,310,310,2
303,287,309,311,2
302,276,308,311,2
302,269,307,311,2
301,265,305,310,2
301,263,303,309,2
302,261,302,309,2
303,260,301,308,2
304,260,302,306,2
306,263,302,305,2
306,269,303,303,2
306,273,303,303,2
305,275,303,302,2
304,274,302,302,2
304,276,301,302,2
303,280,299,303,2
302,287,298,303,2
301,296,297,304,2
301,307,297,304,2
301,320,297,305,2
300,330,298,306,2
301,338,300,307,2
301,344,302,309,2
302,347,303,310,2
304,348,305,311,2
306,348,306,313,2
309,346,308,315,2
312,343,309,318,2
313,339,310,320,2
314,335,310,319,2
314,329,310,315,2
312,321,308,309,2
310,312,306,303,2
308,303,304,299,2
307,297,302,297,2
306,294,301,297,2
305,292,300,297,2
304,292,298,298,2
304,292,297,299,2
304,290,297,299,2
304,286,297,299,2
305,282,298,299,2
305,278,299,299,2
306,276,301,300,2
306,277,303,301,2
305,279,304,302,2
305,284,304,304,2
305,287,303,305,2
305,291,302,307,2
306,296,302,309,2
306,304,302,311,2
305,311,303,313,2
306,318,304,314,2
306,323,305,316,2
306,327,306,317,2
307,329,307,318,2
308,331,307,320,2
309,331,308,323,2
309,328,309,325,2
311,322,310,326,2
312,316,311,325,2
313,311,312,322,2
313,306,312,318,2
311,300,313,315,2
309,294,314,314,2
308,292,316,315,2
308,296,318,316,2
309,301,321,315,2
309,304,322,313,2
308,306,320,311,2
306,308,318,309,2
305,311,316,307,2
305,313,315,306,2
305,313,314,305,2
306,311,314,306,2
306,306,313,306,2
306,298,312,306,2
306,288,311,306,2
304,280,310,305,2
302,273,309,304,2
301,271,307,303,2
301,274,306,304,2
302,283,305,304,2
302,297,304,305,2
303,314,303,307,2
303,330,304,309,2
304,340,304,310,2
304,344,304,311,2
305,342,304,311,2
305,336,303,309,2
305,328,303,307,2
305,320,303,305,2
307,315,305,304,2
309,314,307,305,2
310,314,309,305,2
310,316,309,306,2
309,320,308,306,2
307,323,307,305,2
305,326,306,302,2
303,328,304,299,2
301,330,303,297,2
301,330,302,297,2
300,328,301,297,2
300,326,302,298,2
300,324,303,300,2
301,322,304,302,2
301,320,304,302,2
301,320,304,303,2
301,322,305,303,2
302,322,305,304,2
303,318,305,305,2
304,312,304,307,2
305,305,304,308,2
306,297,303,309,2
307,286,304,310,2
309,274,304,310,2
310,261,305,310,2
311,251,306,309,2
312,249,306,308,2
313,254,307,307,2
313,265,307,305,2
313,282,306,304,2
311,302,305,305,2
310,322,304,307,2
309,337,304,310,2
308,344,304,311,2
306,342,304,312,2
305,332,304,313,2
305,321,304,314,2
305,314,304,315,2
305,312,305,316,2
307,313,305,316,2
308,314,306,316,2
308,317,307,315,2
308,320,307,313,2
308,323,308,312,2
308,323,311,311,2
308,320,313,311,2
308,317,314,311,2
307,314,314,311,2
306,313,313,310,2
305,312,310,309,2
305,311,307,308,2
304,312,303,308,2
303,313,301,307,2
303,313,299,306,2
303,312,300,307,2
304,309,302,309,2
305,306,305,310,2
306,302,307,312,2
307,299,308,313,2
308,296,307,315,2
308,295,306,316,2
308,296,304,316,2
307,299,302,316,2
305,304,301,315,2
305,309,301,314,2
304,312,302,313,2
304,312,303,312,2
305,311,305,310,2
305,307,306,309,2
304,302,306,307,2
304,296,307,305,2
303,291,309,305,2
304,288,310,305,2
305,287,311,305,2
305,290,311,306,2
305,294,310,308,2
305,300,308,309,2
305,308,306,311,2
305,318,305,312,2
305,326,304,313,2
306,329,303,312,2
307,329,304,311,2
309,323,305,310,2
310,313,307,309,2
311,299,308,308,2
311,283,310,307,2
311,268,311,305,2
310,257,311,303,2
310,252,311,302,2
310,255,309,302,2
311,264,308,301,2
313,277,308,301,2
314,291,309,301,2
313,303,310,301,2
311,313,310,301,2
309,322,309,304,2
307,329,308,306,2
306,332,308,309,2
305,332,308,312,2
304,328,307,314,2
304,322,307,314,2
305,314,307,313,2
306,308,308,310,2
308,308,308,308,2
309,315,309,307,2
310,325,310,307,2
308,336,310,305,2
306,341,308,302,2
304,342,305,299,2
302,338,302,297,2
301,334,300,295,2
300,330,298,294,2
299,326,296,294,2
300,322,295,295,2
300,317,296,296,2
302,311,298,297,2
305,304,302,299,2
307,297,306,300,2
310,291,309,302,2
312,287,313,304,2
313,286,315,305,2
314,290,315,306,2
312,296,314,307,2
310,304,311,307,2
308,312,309,307,2
307,319,307,308,2
306,324,306,310,2
306,326,306,314,2
306,324,307,317,2
306,319,307,318,2
306,313,307,318,2
306,312,307,318,2
306,313,304,318,2
306,315,301,315,2
305,314,296,313,2
305,312,293,311,2
305,309,290,311,2
305,307,290,310,2
306,304,290,309,2
306,302,292,308,2
306,299,295,307,2
306,297,298,307,2
305,295,301,308,2
306,294,305,309,2
307,294,308,311,2
309,295,311,313,2
310,297,312,314,2
311,298,311,314,2
311,300,310,313,2
312,302,308,313,2
312,303,307,312,2
312,302,306,311,2
311,299,304,310,2
310,295,304,309,2
309,293,306,309,2
309,291,308,310,2
309,290,310,310,2
309,287,311,309,2
309,285,311,308,2
308,285,312,308,2
307,290,311,307,2
307,299,311,307,2
307,306,311,307,2
309,309,312,307,2
310,309,313,307,2
311,308,314,307,2
310,308,312,308,2
309,307,310,309,2
309,304,309,311,2
308,300,308,314,2
309,296,308,318,2
310,295,308,321,2
310,294,308,322,2
311,294,308,321,2
310,296,308,319,2
310,302,309,319,2
310,309,309,318,2
309,316,309,316,2
308,321,309,313,2
307,324,308,309,2
307,326,307,306,2
307,326,307,303,2
307,324,307,301,2
307,320,307,300,2
307,315,307,299,2
306,308,306,299,2
305,301,306,298,2
305,294,306,297,2
306,287,307,298,2
308,280,308,298,2
308,274,309,299,2
308,271,308,300,2
308,273,306,303,2
307,280,304,305,2
307,289,303,308,2
308,299,303,309,2
307,307,304,309,2
307,315,305,309,2
307,321,307,309,2
308,323,310,310,2
310,321,312,309,2
311,316,315,309,2
313,309,316,310,2
313,304,316,312,2
313,301,314,313,2
312,302,312,315,2
312,305,310,316,2
312,309,309,315,2
311,313,308,312,2
310,315,307,308,2
309,316,307,306,2
308,314,306,305,2
308,307,305,303,2
308,297,306,303,2
308,286,306,303,2
308,279,306,304,2
308,277,306,305,2
307,280,306,304,2
306,287,304,304,2
306,297,303,303,2
305,308,304,302,2
305,316,305,301,2
305,319,307,301,2
304,320,309,302,2
304,318,309,304,2
304,314,308,306,2
305,309,307,309,2
306,304,306,312,2
307,301,306,313,2
308,302,305,314,2
309,306,305,313,2
309,312,305,311,2
309,318,304,310,2
309,322,304,310,2
309,326,303,310,2
308,329,303,309,2
308,329,302,307,2
308,326,301,306,2
308,320,299,305,2
308,313,296,304,2
308,307,294,304,2
308,304,293,304,2
309,300,292,305,2
308,294,294,304,2
308,288,297,304,2
308,285,302,305,2
309,282,308,306,2
310,282,311,308,2
312,284,314,310,2
314,284,316,311,2
316,283,319,312,2
317,283,321,313,2
316,286,320,313,2
313,291,319,313,2
311,297,316,312,2
310,304,313,312,2
309,310,311,312,2
308,312,308,311,2
307,310,306,311,2
307,305,305,311,2
307,300,305,312,2
307,297,304,312,2
307,294,304,313,2
308,294,305,311,2
308,297,305,311,2
308,303,306,310,2
308,312,307,309,2
308,324,310,309,2
308,333,312,308,2
308,339,314,307,2
308,340,314,307,2
308,339,313,307,2
309,337,311,307,2
310,334,310,308,2
310,331,311,309,2
311,329,312,311,2
312,327,313,313,2
313,327,312,313,2
311,326,308,312,2
310,325,303,311,2
308,324,300,310,2
307,325,298,310,2
306,326,298,311,2
307,328,299,312,2
308,330,301,313,2
309,332,303,314,2
309,329,307,316,2
309,322,308,317,2
308,313,308,317,2
307,303,308,317,2
305,293,307,315,2
304,283,306,313,2
303,275,306,311,2
303,268,307,308,2
302,264,307,306,2
302,264,307,303,2
301,268,306,301,2
299,275,304,300,2
298,286,303,301,2
297,297,303,303,2
298,309,303,305,2
298,318,303,307,2
299,325,304,308,2
299,329,304,309,2
300,330,305,309,2
302,327,305,309,2
303,324,306,309,2
305,319,308,309,2
307,313,309,309,2
308,305,310,309,2
309,297,311,310,2
309,287,313,311,2
309,276,314,313,2
309,265,313,314,2
309,257,312,314,2
309,255,311,315,2
309,257,310,315,2
310,266,310,316,2
310,281,311,317,2
310,298,311,317,2
308,311,310,316,2
306,319,307,315,2
305,322,304,314,2
304,322,302,314,2
304,318,299,312,2
304,312,298,310,2
304,310,299,308,2
305,311,300,306,2
307,314,301,304,2
308,317,302,304,2
310,322,304,305,2
311,326,306,308,2
312,327,307,309,2
313,325,308,308,2
312,321,308,307,2
312,320,309,305,2
310,319,309,304,2
309,320,310,304,2
307,320,310,305,2
306,320,311,306,2
304,320,310,308,2
304,317,309,309,2
304,313,307,310,2
304,308,305,311,2
304,302,302,312,2
304,298,301,313,2
305,296,301,312,2
304,297,302,310,2
303,301,303,309,2
301,306,302,309,2
300,313,302,309,2
299,319,301,310,2
299,324,301,310,2
299,327,301,310,2
300,328,302,309,2
300,328,302,307,2
300,324,302,306,2
300,318,302,304,2
300,311,302,303,2
300,305,302,303,2
300,299,302,303,2
300,294,302,303,2
300,290,304,303,2
301,287,305,304,2
303,287,307,305,2
304,290,309,307,2
306,295,309,308,2
307,301,310,309,2
308,306,310,309,2
308,310,310,310,2
308,313,310,311,2
308,316,310,312,2
308,316,312,313,2
309,313,314,313,2
309,307,316,315,2
310,299,318,316,2
311,293,319,316,2
312,289,318,316,2
313,288,317,315,2
312,289,314,312,2
310,293,311,310,2
308,300,307,308,2
307,306,304,309,2
306,311,303,311,2
305,315,302,313,2
306,317,302,315,2
305,316,302,315,2
305,310,301,313,2
305,303,300,310,2
305,297,298,305,2
306,295,298,302,2
308,299,299,300,2
310,308,301,300,2
313,320,303,302,2
315,331,306,305,2
317,337,308,308,2
318,338,310,309,2
318,334,312,308,2
317,327,312,305,2
315,319,312,302,2
311,312,311,300,2
307,308,310,299,2
304,308,308,299,2
301,312,308,300,2
300,316,307,300,2
300,319,306,300,2
301,319,306,299,2
303,318,306,299,2
306,317,307,299,2
309,314,308,299,2
312,311,308,299,2
315,307,309,301,2
318,306,310,303,2
321,309,312,306,2
323,312,314,308,2
324,313,314,310,2
323,311,313,310,2
322,310,312,310,2
319,312,311,309,2
317,314,310,308,2
315,314,310,307,2
312,312,310,307,2
308,309,310,309,2
304,304,309,311,2
300,299,307,311,2
297,295,306,311,2
295,294,305,309,2
295,293,304,307,2
295,294,305,305,2
296,298,305,304,2
296,304,304,303,2
296,308,304,303,2
297,312,304,304,2
297,313,303,305,2
297,313,303,305,2
298,311,304,306,2
298,306,305,305,2
299,301,306,305,2
300,296,307,304,2
300,291,306,302,2
301,287,304,303,2
301,284,302,305,2
300,282,300,308,2
300,282,299,310,2
301,284,298,311,2
301,290,297,309,2
302,297,296,307,2
303,305,296,306,2
304,313,297,306,2
304,321,298,306,2
304,328,300,308,2
304,332,301,308,2
304,332,301,307,2
305,329,302,307,2
306,323,303,306,2
307,317,305,305,2
307,309,307,303,2
306,301,308,300,2
305,296,309,296,2
306,297,309,293,2
306,304,309,292,2
307,312,308,291,2
307,318,306,292,2
306,321,303,293,2
304,323,301,294,2
303,322,299,294,2
302,319,297,294,2
301,314,295,293,2
301,307,294,292,2
301,301,294,291,2
301,295,294,291,2
303,292,294,292,2
305,294,296,294,2
308,299,299,298,2
310,305,304,303,2
312,309,308,307,2
313,310,310,311,2
312,308,310,311,2
310,304,308,310,2
309,303,306,310,2
309,306,306,309,2
309,312,305,307,2
308,318,304,305,2
307,324,303,303,2
307,329,302,302,2
306,326,301,301,2
305,315,301,301,2
305,301,301,301,2
305,289,301,302,2
306,281,303,303,2
307,280,304,304,2
308,285,304,305,2
309,293,304,305,2
309,301,302,304,2
308,304,301,302,2
307,302,300,301,2
307,296,300,301,2
308,289,301,304,2
310,285,304,307,2
313,284,306,309,2
315,285,309,310,2
317,287,312,309,2
317,291,312,306,2
315,300,310,303,2
312,312,305,302,2
307,324,300,300,2
304,333,296,300,2
301,339,294,300,2
300,340,294,301,2
301,336,296,302,2
303,331,300,302,2
305,326,304,303,2
307,322,307,303,2
309,317,309,306,2
310,313,311,308,2
311,309,312,310,2
312,303,312,310,2
311,297,312,308,2
310,289,311,307,2
309,283,310,306,2
308,280,309,306,2
307,281,309,308,2
305,285,309,309,2
303,289,308,309,2
301,291,307,305,2
299,290,306,302,2
299,288,305,300,2
299,289,305,298,2
300,291,305,298,2
301,296,305,299,2
302,302,305,300,2
302,307,305,301,2
303,312,305,303,2
304,314,307,306,2
305,311,308,308,2
307,301,310,311,2
309,288,312,311,2
310,275,313,311,2
310,268,313,308,2
309,269,311,306,2
309,279,309,305,2
307,293,307,303,2
305,305,305,300,2
304,310,303,298,2
304,310,303,297,2
304,304,303,298,2
305,298,303,299,2
305,295,303,300,2
305,300,302,300,2
304,310,301,299,2
302,320,299,298,2
301,327,298,298,2
300,334,297,300,2
300,341,297,302,2
300,346,298,304,2
301,351,299,306,2
301,354,301,308,2
302,354,303,308,2
304,352,304,309,2
304,350,305,308,2
305,348,306,307,2
304,347,306,306,2
303,344,306,304,2
303,340,306,303,2
302,334,305,302,2
302,327,304,301,2
302,320,303,300,2
302,314,304,300,2
302,309,304,301,2
302,304,305,302,2
302,301,305,304,2
301,302,305,306,2
300,305,305,306,2
299,307,304,306,2
299,305,305,306,2
300,304,306,307,2
300,303,306,307,2
301,301,306,307,2
303,300,307,307,2
304,301,307,307,2
304,302,307,307,2
304,304,307,308,2
304,305,309,308,2
304,304,310,308,2
304,300,311,308,2
305,296,311,308,2
306,292,312,308,2
307,290,312,307,2
309,292,312,308,2
309,297,312,308,2
308,305,311,309,2
308,311,310,309,2
307,313,309,309,2
308,309,308,308,2
308,302,308,307,2
308,291,308,304,2
308,278,307,302,2
307,268,306,301,2
308,265,306,301,2
308,267,307,302,2
308,275,308,303,2
306,289,308,304,2
305,305,309,304,2
305,319,310,305,2
306,324,312,306,2
308,320,316,306,2
310,309,319,306,2
313,296,322,305,2
317,285,324,306,2
319,280,324,307,2
320,280,324,308,2
318,286,319,309,2
314,298,313,309,2
309,309,307,309,2
305,316,303,308,2
301,319,302,307,2
299,317,302,306,2
298,313,303,304,2
299,308,303,302,2
302,306,303,301,2
306,306,303,301,2
311,306,304,302,2
316,305,306,303,2
320,301,308,305,2
323,297,309,306,2
325,296,310,308,2
326,300,311,309,2
324,307,311,311,2
320,314,311,311,2
314,321,310,310,2
308,327,309,308,2
304,330,309,308,2
302,328,308,309,2
301,320,308,310,2
300,308,308,311,2
299,298,306,311,2
299,292,305,310,2
301,292,302,308,2
302,295,300,307,2
305,301,299,308,2
308,307,298,310,2
313,311,299,314,2
319,314,300,316,2
326,317,302,318,2
333,317,303,318,2
339,313,305,318,2
342,310,306,318,2
343,308,308,319,2
341,307,309,319,2
337,311,310,318,2
331,319,311,315,2
323,330,311,312,2
314,338,312,309,2
305,342,312,306,2
297,339,312,303,2
289,331,310,301,2
284,321,306,301,2
282,314,301,303,2
285,313,299,306,2
290,317,298,309,2
296,321,297,310,2
302,327,297,310,2
307,332,298,310,2
313,334,300,309,2
320,328,303,309,2
325,316,305,308,2
329,302,307,307,2
331,291,308,307,2
330,285,308,306,2
326,288,308,307,2
322,296,309,308,2
316,306,310,308,2
309,313,311,307,2
300,316,310,307,2
292,318,309,306,2
285,319,306,305,2
279,319,304,304,2
276,317,302,304,2
274,310,301,304,2
275,299,301,303,2
276,286,301,303,2
279,275,303,304,2
282,266,304,305,2
284,265,306,307,2
286,271,307,308,2
287,283,308,310,2
288,295,309,312,2
289,304,311,313,2
290,310,310,314,2
290,313,310,315,2
290,314,308,314,2
289,317,308,314,2
290,320,308,314,2
291,320,309,315,2
293,318,309,318,2
296,314,309,320,2
298,309,308,321,2
298,304,307,320,2
298,301,306,316,2
297,304,304,312,2
295,312,303,308,2
293,322,302,305,2
293,331,302,303,2
293,336,304,301,2
293,336,306,301,2
294,332,308,302,2
295,327,310,304,2
296,323,312,305,2
296,320,312,307,2
298,319,312,309,2
300,317,312,311,2
302,314,311,312,2
302,310,310,313,2
301,305,310,313,2
301,301,309,313,2
300,300,307,313,2
300,301,305,314,2
301,299,304,315,2
301,295,304,315,2
302,289,305,314,2
302,285,308,313,2
303,282,310,313,2
303,278,310,311,2
303,273,309,310,2
302,273,307,307,2
301,279,305,306,2
301,289,305,306,2
299,298,305,306,2
298,304,305,306,2
297,306,305,306,2
298,305,305,307,2
299,301,306,309,2
301,295,308,311,2
302,293,309,313,2
303,294,309,314,2
304,297,310,315,2
304,302,310,314,2
305,309,311,313,2
305,316,313,311,2
305,321,313,309,2
304,323,312,307,2
303,321,310,305,2
302,316,308,304,2
301,311,307,304,2
302,309,307,304,2
302,312,308,306,2
303,315,310,306,2
302,320,310,306,2
302,325,309,305,2
302,329,307,305,2
302,331,306,305,2
303,333,306,307,2
304,334,306,309,2
305,333,307,312,2
305,330,308,314,2
306,327,308,316,2
307,325,309,317,2
308,323,309,317,2
308,321,309,316,2
309,318,308,315,2
309,314,307,312,2
308,309,306,309,2
307,303,305,307,2
307,295,305,305,2
307,286,304,304,2
307,278,304,304,2
308,271,302,302,2
307,267,301,300,2
307,267,299,298,2
307,270,298,295,2
307,279,297,294,2
306,291,297,294,2
305,304,297,295,2
304,314,299,297,2
304,319,301,299,2
305,321,305,302,2
306,320,308,305,2
307,319,310,307,2
309,316,311,309,2
310,312,312,309,2
311,304,313,309,2
313,293,315,308,2
315,278,315,307,2
316,264,314,305,2
316,251,312,304,2
315,243,310,302,2
314,244,308,301,2
312,253,307,300,2
310,265,305,301,2
308,275,306,301,2
307,283,306,303,2
305,287,307,304,2
304,292,308,306,2
304,300,310,307,2
304,312,312,309,2
304,322,314,309,2
304,324,315,309,2
305,320,317,310,2
307,311,317,310,2
307,297,317,309,2
307,283,317,307,2
306,280,316,304,2
306,289,315,303,2
305,308,315,302,2
303,328,315,301,2
302,342,314,300,2
302,347,313,300,2
302,343,314,300,2
304,335,315,301,2
307,326,316,303,2
309,319,316,303,2
311,314,315,304,2
313,309,311,304,2
314,304,307,304,2
314,297,304,303,2
314,290,303,303,2
313,285,303,303,2
313,285,303,302,2
311,289,304,303,2
309,297,305,304,2
307,299,307,306,2
306,294,307,307,2
303,279,308,308,2
303,259,307,307,2
303,240,307,306,2
304,228,307,306,2
306,230,306,307,2
307,248,306,308,2
306,273,305,309,2
305,303,305,310,2
303,328,305,310,2
301,344,306,310,2
299,354,308,309,2
299,358,310,308,2
299,358,312,306,2
300,354,311,306,2
301,349,310,305,2
301,344,309,305,2
301,339,308,304,2
301,334,308,304,2
300,329,308,304,2
301,323,307,304,2
301,315,307,303,2
301,309,307,302,2
301,305,308,302,2
301,301,309,301,2
302,297,309,300,2
302,295,309,301,2
302,295,309,303,2
302,295,309,306,2
303,293,308,309,2
304,290,307,311,2
304,284,306,312,2
305,277,305,310,2
306,275,305,307,2
306,278,304,306,2
306,287,303,307,2
305,299,304,308,2
305,311,306,309,2
306,323,309,310,2
307,332,312,311,2
308,337,315,311,2
309,337,318,312,2
310,335,319,313,2
311,331,319,314,2
310,328,317,314,2
307,326,313,314,2
305,325,308,311,2
303,323,305,308,2
302,320,303,306,2
302,316,303,306,2
303,311,304,308,2
304,305,305,310,2
305,296,305,310,2
306,283,305,311,2
307,264,305,311,2
309,244,305,310,2
310,226,304,309,2
312,217,304,308,2
312,222,303,307,2
311,242,302,306,2
310,274,300,306,2
307,308,297,306,2
304,338,294,304,2
302,358,292,303,2
300,367,292,302,2
299,369,294,302,2
300,364,297,302,2
302,357,300,302,2
303,345,303,302,2
304,331,304,301,2
306,318,305,301,2
307,309,306,302,2
308,304,306,304,2
309,303,306,305,2
310,306,305,307,2
311,311,304,307,2
312,314,304,308,2
312,314,304,307,2
314,310,304,307,2
315,304,304,306,2
316,297,304,305,2
315,292,304,303,2
313,289,303,302,2
311,288,301,301,2
309,288,300,301,2
308,288,300,302,2
307,289,301,303,2
306,289,302,303,2
306,287,302,302,2
305,286,302,301,2
304,287,302,300,2
302,292,301,300,2
300,298,299,300,2
299,302,298,302,2
299,299,297,303,2
302,288,298,306,2
306,273,299,307,2
310,254,302,306,2
314,238,305,306,2
318,234,307,306,2
320,246,307,307,2
320,269,306,309,2
320,300,304,311,2
319,330,302,313,2
318,351,301,314,2
315,360,300,312,2
312,359,298,309,2
308,353,298,307,2
306,344,297,305,2
306,337,298,305,2
308,333,300,305,2
310,331,302,305,2
311,330,304,305,2
310,328,305,305,2
308,325,305,306,2
307,321,303,307,2
308,314,301,308,2
310,305,298,308,2
312,297,296,307,2
314,292,295,305,2
315,290,297,304,2
316,293,300,303,2
315,300,305,304,2
314,309,310,306,2
312,320,312,308,2
311,330,311,311,2
310,336,310,315,2
310,339,309,318,2
309,337,308,320,2
308,332,307,322,2
307,326,306,322,2
305,321,305,321,2
304,316,304,318,2
303,313,302,313,2
304,310,300,308,2
305,306,300,304,2
307,300,300,302,2
308,295,300,301,2
310,289,300,301,2
310,284,298,300,2
309,280,297,299,2
309,279,296,298,2
309,280,296,299,2
309,283,297,300,2
309,289,297,301,2
309,300,298,302,2
308,312,300,302,2
307,323,303,304,2
307,330,307,308,2
307,333,312,312,2
307,335,316,316,2
308,334,318,318,2
307,330,317,318,2
307,324,315,315,2
306,317,313,313,2
306,309,311,309,2
306,300,310,305,2
306,293,309,302,2
307,289,308,300,2
307,286,307,299,2
307,280,306,298,2
307,274,306,298,2
307,266,306,299,2
307,260,306,299,2
307,257,308,300,2
307,263,309,301,2
308,274,311,302,2
309,289,313,303,2
310,304,313,305,2
310,320,313,305,2
309,332,312,305,2
307,338,312,304,2
307,336,313,305,2
307,330,313,305,2
308,324,313,305,2
309,322,313,305,2
311,324,313,304,2
313,326,313,303,2
313,328,314,301,2
313,327,315,299,2
312,322,317,299,2
311,312,318,299,2
310,300,318,299,2
309,289,317,299,2
308,283,314,297,2
306,284,312,296,2
305,293,308,295,2
304,306,305,296,2
303,318,302,296,2
301,326,301,297,2
300,331,301,298,2
299,331,301,299,2
298,328,301,300,2
298,325,300,301,2
299,324,300,301,2
300,323,299,302,2
301,322,300,304,2
304,320,302,307,2
306,315,306,309,2
309,308,310,309,2
311,304,312,310,2
312,302,314,311,2
312,305,315,312,2
311,313,315,313,2
310,326,314,313,2
310,341,312,312,2
309,350,310,311,2
307,352,306,309,2
304,347,303,307,2
300,339,300,305,2
298,331,298,306,2
298,325,298,308,2
299,320,299,310,2
301,315,299,312,2
303,309,300,312,2
304,301,300,309,2
304,291,302,307,2
305,279,304,306,2
307,267,307,306,2
310,257,310,306,2
313,250,312,307,2
315,244,313,308,2
318,243,313,308,2
320,248,313,309,2
321,258,312,308,2
321,270,310,308,2
320,284,308,307,2
319,299,307,308,2
317,315,306,309,2
313,331,305,309,2
309,344,305,309,2
305,353,305,308,2
302,355,306,307,2
299,353,309,307,2
298,350,313,308,2
299,345,318,309,2
300,340,320,311,2
301,334,322,312,2
302,328,321,312,2
303,321,320,312,2
304,314,318,312,2
304,305,316,312,2
304,293,314,312,2
304,277,313,311,2
305,259,312,309,2
305,242,311,307,2
305,230,311,305,2
304,226,311,304,2
304,234,310,303,2
304,254,309,302,2
305,285,307,301,2
305,318,306,300,2
305,344,306,300,2
307,360,306,300,2
309,367,309,301,2
313,370,312,303,2
316,368,314,305,2
319,363,315,308,2
321,355,314,311,2
321,346,314,314,2
321,335,313,316,2
320,325,313,318,2
319,314,312,318,2
318,304,312,319,2
317,295,311,319,2
317,287,310,319,2
316,285,308,319,2
315,287,307,317,2
314,294,306,315,2
313,304,304,314,2
312,315,305,313,2
311,326,305,312,2
309,334,306,310,2
308,336,307,308,2
308,331,308,307,2
308,321,310,307,2
308,309,313,307,2
309,299,315,308,2
310,290,316,310,2
310,279,316,311,2
310,272,314,312,2
309,272,312,312,2
310,277,309,311,2
309,284,306,309,2
308,293,303,306,2
306,304,300,304,2
304,315,298,302,2
303,325,298,302,2
303,332,299,301,2
303,336,302,302,2
303,341,305,303,2
304,343,308,305,2
305,343,311,307,2
307,340,313,310,2
309,333,314,311,2
310,324,316,311,2
311,312,316,312,2
312,299,317,312,2
313,287,318,312,2
314,277,320,311,2
314,271,321,311,2
313,271,321,312,2
312,277,320,314,2
309,289,315,314,2
307,303,308,312,2
306,318,303,309,2
305,329,299,305,2
305,336,298,303,2
306,339,298,302,2
306,340,299,301,2
305,340,300,302,2
304,339,300,304,2
304,338,301,307,2
304,336,302,309,2
304,330,303,309,2
304,322,304,308,2
305,314,305,307,2
305,308,305,306,2
306,304,305,306,2
307,301,306,307,2
308,298,306,309,2
309,292,307,310,2
309,285,307,309,2
309,276,309,308,2
309,267,310,308,2
310,263,311,307,2
310,263,311,305,2
311,271,309,304,2
310,283,307,302,2
308,294,304,301,2
305,304,303,300,2
304,314,303,301,2
303,322,307,303,2
305,328,313,306,2
307,327,317,308,2
309,318,319,308,2
310,300,319,308,2
312,279,319,308,2
315,258,319,308,2
318,243,320,308,2
319,237,320,307,2
318,245,318,306,2
316,263,313,305,2
313,286,308,304,2
310,309,304,304,2
307,328,302,305,2
306,344,303,307,2
306,357,304,309,2
305,365,306,310,2
302,368,305,309,2
299,367,303,308,2
295,361,299,307,2
291,353,296,308,2
289,344,294,309,2
288,333,293,310,2
288,322,294,312,2
290,311,296,314,2
292,300,299,313,2
294,290,300,312,2
295,284,299,310,2
295,280,296,306,2
294,278,293,303,2
294,280,292,299,2
294,284,294,297,2
296,292,298,295,2
298,300,302,295,2
300,306,305,294,2
301,308,305,294,2
300,311,301,296,2
300,314,297,299,2
300,317,295,303,2
302,318,297,307,2
304,321,305,310,2
307,325,315,312,2
312,329,325,314,2
317,332,331,315,2
318,333,332,316,2
319,331,327,316,2
318,328,320,316,2
319,323,314,317,2
319,319,311,319,2
318,315,311,320,2
316,311,312,321,2
313,309,312,320,2
309,306,312,317,2
305,301,311,312,2
303,296,311,308,2
302,293,310,307,2
303,292,311,306,2
304,294,312,306,2
306,300,311,306,2
307,308,310,307,2
307,316,308,308,2
306,322,306,308,2
306,325,304,309,2
306,325,303,309,2
305,320,303,309,2
304,313,303,307,2
303,303,302,305,2
304,292,302,304,2
304,281,302,303,2
305,271,302,302,2
307,261,302,301,2
308,254,302,301,2
309,252,302,300,2
308,260,300,300,2
308,277,299,301,2
306,300,297,302,2
305,321,297,304,2
304,335,298,307,2
304,341,300,310,2
304,341,304,312,2
304,338,306,313,2
304,334,308,311,2
304,328,308,310,2
303,319,308,308,2
304,309,307,308,2
304,301,306,307,2
305,295,307,306,2
305,291,308,304,2
306,290,309,304,2
307,290,310,304,2
307,294,312,304,2
306,302,314,306,2
305,312,315,307,2
303,321,315,308,2
303,327,314,307,2
303,329,313,307,2
304,328,310,307,2
306,327,309,308,2
309,324,309,310,2
311,322,310,313,2
313,318,312,316,2
314,314,314,319,2
313,307,315,320,2
312,302,316,319,2
311,300,317,319,2
310,305,319,317,2
311,314,322,315,2
310,322,322,312,2
307,326,320,306,2
301,328,314,302,2
297,328,308,299,2
295,327,304,299,2
294,321,300,299,2
294,315,299,300,2
295,311,298,299,2
296,310,298,298,2
297,313,298,298,2
300,315,300,298,2
302,315,302,300,2
303,313,305,302,2
304,308,306,304,2
304,304,306,306,2
303,299,305,308,2
303,295,303,309,2
301,289,300,310,2
300,282,298,311,2
299,277,295,311,2
299,274,294,312,2
300,273,293,311,2
301,273,294,309,2
302,272,295,307,2
303,269,298,306,2
304,264,301,305,2
305,261,303,305,2
305,266,304,307,2
304,279,304,310,2
304,295,305,313,2
305,310,306,316,2
306,320,308,319,2
308,326,310,322,2
310,326,310,324,2
310,321,308,324,2
309,313,306,321,2
309,302,304,317,2
309,292,304,313,2
310,286,307,311,2
312,282,310,308,2
314,280,313,306,2
315,280,314,305,2
313,286,313,303,2
311,299,309,303,2
307,318,306,304,2
302,333,303,305,2
299,340,301,306,2
297,341,300,307,2
296,338,298,307,2
294,335,296,308,2
293,330,295,309,2
292,326,295,309,2
293,324,296,310,2
294,325,296,310,2
296,327,297,310,2
297,328,298,310,2
299,327,299,310,2
300,327,300,311,2
302,327,301,311,2
303,327,302,312,2
304,327,303,313,2
305,327,305,314,2
306,323,307,315,2
309,318,308,317,2
311,311,308,317,2
311,305,307,316,2
310,303,303,313,2
309,307,300,312,2
310,313,298,311,2
309,314,297,311,2
308,310,297,312,2
307,302,297,314,2
307,291,296,316,2
307,277,297,315,2
307,264,299,313,2
308,255,304,310,2
309,251,310,309,2
309,253,314,308,2
309,261,316,307,2
307,272,313,307,2
306,281,310,306,2
305,285,306,304,2
304,285,303,300,2
303,284,301,299,2
303,280,300,299,2
303,274,300,299,2
304,267,301,298,2
305,265,300,298,2
306,272,300,300,2
306,285,298,302,2
306,301,296,304,2
305,315,295,306,2
304,325,295,308,2
303,331,295,310,2
302,333,295,312,2
302,333,296,313,2
303,330,297,314,2
303,326,298,315,2
304,321,298,314,2
304,314,299,313,2
305,308,300,311,2
306,304,302,309,2
309,303,306,308,2
311,306,311,308,2
313,314,317,309,2
314,323,320,309,2
311,330,318,310,2
307,336,313,311,2
304,339,308,312,2
303,337,303,312,2
302,332,300,312,2
302,323,298,312,2
302,316,298,311,2
303,312,300,313,2
305,311,301,315,2
306,311,302,317,2
307,309,303,318,2
308,303,303,319,2
309,294,304,319,2
309,284,305,318,2
309,276,304,318,2
308,270,304,316,2
308,270,304,315,2
307,277,304,314,2
306,291,302,313,2
304,307,301,312,2
303,321,299,312,2
302,331,298,312,2
302,335,297,312,2
302,334,297,311,2
303,328,297,310,2
304,320,297,310,2
306,312,300,309,2
309,306,304,309,2
311,301,308,309,2
314,299,311,308,2
316,298,313,309,2
317,297,314,310,2
317,299,316,312,2
316,304,316,314,2
313,310,316,315,2
309,315,313,314,2
304,317,310,312,2
301,318,308,311,2
300,317,308,311,2
301,318,308,311,2
303,319,308,310,2
304,320,308,310,2
306,320,308,308,2
308,318,309,307,2
309,315,311,306,2
310,312,312,306,2
310,309,312,306,2
307,306,311,306,2
303,304,308,306,2
299,304,304,307,2
295,301,302,306,2
295,296,301,306,2
296,289,301,305,2
298,284,302,304,2
300,279,302,303,2
302,274,303,302,2
303,272,303,302,2
304,275,302,302,2
304,285,302,302,2
305,299,302,305,2
306,315,301,307,2
307,330,301,309,2
306,339,300,308,2
306,341,300,306,2
305,337,300,305,2
305,327,301,305,2
304,315,302,305,2
304,303,303,306,2
304,295,304,307,2
304,293,305,308,2
304,297,306,309,2
304,308,307,308,2
306,319,308,306,2
307,326,310,304,2
310,328,312,303,2
310,324,313,301,2
310,317,311,300,2
309,311,309,301,2
309,307,306,303,2
308,303,302,304,2
307,297,298,304,2
305,292,295,305,2
304,290,294,306,2
304,295,295,306,2
303,306,296,306,2
303,317,298,305,2
303,323,299,306,2
303,325,301,305,2
303,323,302,306,2
303,318,303,306,2
304,313,305,306,2
305,310,307,304,2
305,306,308,302,2
304,301,308,300,2
303,297,308,298,2
302,293,307,298,2
301,288,306,297,2
300,284,304,296,2
299,280,302,292,2
298,279,300,289,2
297,278,300,286,2
297,278,302,285,2
299,282,305,287,2
302,290,310,292,2
306,299,314,297,2
308,304,318,302,2
310,307,320,306,2
311,309,322,310,2
312,309,321,313,2
311,311,320,315,2
310,314,317,315,2
308,319,315,314,2
306,325,312,310,2
305,330,310,307,2
304,332,308,303,2
304,329,306,301,2
303,325,304,301,2
302,321,303,301,2
302,322,303,303,2
304,327,303,305,2
305,337,305,308,2
307,348,306,312,2
309,353,307,314,2
310,349,309,315,2
311,340,312,313,2
312,332,315,311,2
312,327,317,309,2
312,322,319,306,2
311,315,318,306,2
309,308,315,306,2
308,299,311,307,2
307,289,308,309,2
306,277,306,310,2
305,266,305,311,2
305,261,304,312,2
305,261,303,311,2
307,267,302,311,2
308,274,302,310,2
309,281,302,309,2
309,288,302,307,2
308,293,302,306,2
307,294,302,304,2
305,292,303,303,2
303,288,304,301,2
301,286,304,301,2
299,286,304,302,2
298,288,304,303,2
298,292,305,304,2
299,297,306,305,2
300,304,307,306,2
301,311,308,307,2
302,315,309,308,2
302,315,309,309,2
303,313,309,310,2
304,312,310,311,2
306,312,310,310,2
307,313,310,308,2
307,315,308,305,2
306,317,306,304,2
305,315,304,305,2
305,311,302,306,2
304,303,301,307,2
304,294,300,307,2
304,287,300,306,2
305,284,302,306,2
307,285,304,306,2
308,288,308,306,2
308,289,312,306,2
308,291,314,306,2
307,295,313,307,2
306,300,310,306,2
304,305,307,305,2
303,308,304,304,2
303,307,301,303,2
303,302,300,302,2
304,294,299,301,2
305,287,300,302,2
306,283,300,303,2
307,284,301,305,2
307,288,301,306,2
306,291,301,306,2
305,291,302,306,2
304,286,303,305,2
301,282,305,303,2
301,285,308,303,2
300,296,309,303,2
300,311,309,304,2
299,328,307,304,2
299,339,306,304,2
300,346,307,305,2
302,349,309,306,2
305,349,312,307,2
305,346,313,307,2
305,341,312,309,2
304,336,310,311,2
304,332,308,312,2
305,328,307,314,2
306,325,307,314,2
307,321,307,314,2
308,318,306,312,2
308,314,306,310,2
309,311,307,307,2
311,306,310,306,2
312,300,313,305,2
312,292,314,305,2
311,285,313,305,2
310,282,309,306,2
308,283,304,308,2
306,287,299,309,2
304,292,296,312,2
303,296,296,314,2
302,301,297,314,2
301,305,300,312,2
300,310,303,310,2
301,315,304,308,2
302,321,304,306,2
304,325,304,305,2
305,328,305,304,2
307,330,307,304,2
309,332,309,303,2
310,333,311,302,2
310,332,311,302,2
310,328,311,302,2
311,321,309,303,2
310,313,307,304,2
310,302,305,304,2
308,292,304,304,2
307,285,304,305,2
307,282,305,305,2
306,281,304,305,2
305,286,300,306,2
304,296,294,307,2
304,307,288,309,2
303,316,284,311,2
304,318,282,312,2
305,316,285,312,2
305,311,291,311,2
306,301,298,308,2
308,288,304,307,2
308,275,308,304,2
308,263,308,301,2
306,256,305,300,2
305,257,302,300,2
303,267,300,300,2
301,284,299,301,2
299,302,299,303,2
299,316,300,305,2
299,325,300,307,2
299,330,300,308,2
299,331,300,307,2
300,326,301,305,2
301,315,303,304,2
302,300,306,304,2
305,287,310,307,2
307,276,313,310,2
309,268,315,313,2
310,269,316,315,2
309,280,315,314,2
307,297,313,311,2
306,314,310,308,2
305,329,308,307,2
304,340,307,306,2
304,347,306,305,2
303,351,306,305,2
301,353,306,305,2
299,352,305,305,2
297,345,304,305,2
296,336,304,305,2
295,325,303,305,2
296,317,303,303,2
296,313,304,303,2
297,314,305,303,2
297,317,306,305,2
298,321,306,305,2
297,322,306,305,2
295,322,304,306,2
294,321,303,306,2
294,318,302,307,2
294,313,302,307,2
295,309,303,306,2
297,305,304,305,2
299,303,305,304,2
301,301,306,301,2
303,299,305,299,2
304,295,303,297,2
305,287,302,296,2
306,276,301,297,2
307,262,303,299,2
308,248,306,301,2
308,239,307,302,2
306,240,305,303,2
304,252,301,303,2
301,273,298,304,2
298,295,295,305,2
297,314,293,306,2
298,328,292,308,2
299,335,293,309,2
301,339,294,309,2
302,341,297,310,2
303,339,301,310,2
304,334,305,310,2
304,329,308,311,2
303,327,310,311,2
303,326,314,311,2
304,325,319,313,2
304,322,324,314,2
304,317,325,315,2
302,310,322,315,2
301,303,318,315,2
300,297,314,315,2
299,289,311,313,2
299,282,309,311,2
299,278,308,309,2
299,275,308,307,2
299,273,308,306,2
298,275,307,305,2
298,285,306,305,2
297,302,303,305,2
296,322,301,306,2
297,338,299,308,2
298,346,298,309,2
299,345,299,311,2
300,338,301,312,2
300,331,304,313,2
301,325,307,313,2
301,321,311,312,2
300,321,314,312,2
299,324,316,313,2
298,328,317,314,2
298,331,317,315,2
298,331,316,314,2
299,328,316,312,2
300,324,315,310,2
302,320,313,309,2
303,317,312,309,2
303,311,310,309,2
303,303,309,309,2
304,294,309,309,2
304,285,309,309,2
304,278,311,307,2
305,275,312,305,2
306,281,312,303,2
305,292,311,302,2
303,305,310,301,2
301,316,308,301,2
298,326,307,300,2
297,332,307,300,2
297,335,306,302,2
299,333,306,304,2
301,328,305,305,2
303,322,303,307,2
305,319,301,308,2
306,317,299,308,2
304,313,297,307,2
303,307,296,306,2
302,297,298,307,2
301,286,300,308,2
300,277,303,309,2
300,267,306,309,2
301,260,310,309,2
302,259,314,309,2
303,261,318,308,2
304,265,321,308,2
304,269,321,307,2
304,275,320,306,2
304,283,319,306,2
303,292,317,307,2
302,298,316,308,2
300,298,316,309,2
298,300,316,309,2
296,307,316,310,2
295,319,317,311,2
294,330,317,311,2
294,337,318,309,2
294,338,319,308,2
294,334,318,307,2
294,328,316,306,2
294,321,313,305,2
295,313,310,305,2
297,306,308,305,2
300,301,308,306,2
302,300,309,307,2
302,303,309,308,2
302,308,308,309,2
301,315,307,309,2
300,324,306,308,2
299,332,306,307,2
299,339,305,307,2
299,340,305,308,2
300,338,305,310,2
302,334,305,312,2
303,329,304,312,2
304,325,305,312,2
305,322,306,310,2
305,321,307,308,2
306,322,308,306,2
306,322,307,305,2
307,319,307,303,2
308,313,307,303,2
309,305,309,302,2
309,297,312,303,2
307,290,313,302,2
304,285,310,303,2
301,285,305,304,2
301,285,302,307,2
303,284,303,308,2
304,284,304,308,2
303,286,305,308,2
302,291,306,307,2
302,297,307,306,2
302,304,309,305,2
301,311,310,305,2
301,318,311,306,2
301,322,310,308,2
302,323,310,311,2
303,325,309,313,2
304,327,310,314,2
305,326,310,314,2
305,324,311,313,2
307,321,313,313,2
309,319,317,313,2
311,316,319,312,2
310,312,318,311,2
307,305,314,310,2
304,294,308,309,2
302,281,303,310,2
301,269,298,311,2
301,259,296,311,2
301,256,294,312,2
301,262,295,312,2
300,276,297,311,2
299,295,300,309,2
299,313,303,309,2
298,326,305,310,2
298,334,306,310,2
298,336,306,310,2
300,335,309,309,2
303,329,313,307,2
305,323,317,304,2
306,318,320,303,2
305,314,318,303,2
304,311,312,305,2
303,310,305,307,2
302,311,300,308,2
302,311,299,309,2
302,310,299,311,2
302,310,300,313,2
303,309,301,315,2
304,308,304,317,2
305,305,308,317,2
306,302,310,314,2
307,302,313,312,2
309,302,314,310,2
309,301,316,308,2
310,302,316,308,2
312,308,317,308,2
313,319,316,309,2
313,329,314,311,2
312,331,311,313,2
312,327,309,313,2
312,318,308,312,2
312,307,308,310,2
313,300,308,310,2
312,296,310,309,2
311,293,311,307,2
309,295,310,306,2
307,304,308,307,2
305,318,306,308,2
304,329,303,309,2
303,331,301,310,2
303,324,301,312,2
303,315,301,314,2
304,306,304,315,2
306,297,306,315,2
306,289,309,314,2
306,287,310,311,2
305,292,311,308,2
305,300,313,307,2
304,303,314,306,2
304,301,315,305,2
304,298,317,305,2
304,296,318,306,2
306,294,317,306,2
308,293,315,307,2
311,297,312,307,2
313,304,310,309,2
314,313,307,311,2
314,321,305,313,2
313,329,303,314,2
313,335,302,314,2
313,336,301,313,2
313,334,300,312,2
313,329,300,312,2
314,323,300,313,2
313,317,302,314,2
313,313,306,315,2
313,310,311,316,2
312,310,315,315,2
311,313,316,314,2
310,317,315,312,2
309,320,312,312,2
310,323,309,311,2
311,323,310,311,2
312,320,313,312,2
313,315,317,312,2
315,308,322,312,2
316,300,325,310,2
316,291,325,309,2
316,285,322,309,2
316,281,318,310,2
314,281,311,310,2
312,289,306,310,2
309,303,301,310,2
308,318,299,309,2
308,329,299,308,2
308,332,301,306,2
309,331,305,305,2
311,328,308,306,2
312,323,310,307,2
313,315,310,310,2
313,310,309,312,2
312,309,308,314,2
311,311,308,314,2
311,316,309,314,2
311,320,310,315,2
310,325,312,316,2
310,328,313,316,2
308,326,312,316,2
305,319,308,314,2
305,311,305,313,2
305,304,303,311,2
306,299,304,311,2
308,299,305,311,2
309,301,306,310,2
309,305,305,308,2
309,305,303,306,2
310,302,302,304,2
311,299,304,304,2
312,294,306,303,2
314,290,309,304,2
316,286,310,305,2
316,286,308,307,2
315,291,305,310,2
314,300,305,312,2
312,310,306,316,2
310,318,311,319,2
309,323,317,322,2
310,323,324,324,2
312,317,329,325,2
314,306,331,323,2
315,295,330,318,2
317,283,327,314,2
317,274,325,311,2
318,271,322,308,2
318,276,320,306,2
318,285,318,306,2
316,297,316,305,2
312,308,313,304,2
309,320,311,304,2
307,330,309,305,2
305,338,309,305,2
304,342,310,304,2
305,340,311,304,2
306,337,311,304,2
307,332,310,304,2
308,327,308,303,2
307,323,306,304,2
307,320,304,304,2
306,318,302,304,2
304,317,299,305,2
303,316,296,305,2
303,316,294,305,2
305,318,294,307,2
308,319,295,309,2
310,315,298,311,2
311,308,301,311,2
311,298,304,310,2
311,287,304,309,2
311,278,302,307,2
311,273,299,305,2
311,272,294,304,2
310,274,291,302,2
309,278,290,301,2
306,285,292,299,2
305,293,296,298,2
305,301,302,299,2
307,310,306,301,2
308,324,310,305,2
310,343,313,308,2
310,362,318,312,2
311,378,322,315,2
313,388,327,317,2
314,392,329,318,2
314,388,327,318,2
314,373,322,316,2
312,353,316,314,2
310,335,310,312,2
309,324,307,311,2
309,319,305,310,2
309,319,305,310,2
309,317,304,311,2
308,309,303,311,2
307,301,301,311,2
306,297,300,312,2
306,299,301,313,2
306,304,304,312,2
306,309,308,311,2
305,315,312,310,2
305,321,313,309,2
304,327,313,310,2
304,331,313,311,2
304,330,314,313,2
305,325,314,315,2
307,318,315,315,2
311,310,318,315,2
315,299,319,313,2
318,283,317,310,2
319,265,312,307,2
319,249,308,303,2
317,241,305,301,2
316,244,301,299,2
313,257,295,299,2
309,279,288,298,2
306,302,282,298,2
302,322,279,299,2
300,338,280,300,2
299,343,284,301,2
300,340,290,301,2
303,329,298,303,2
306,313,305,304,2
309,296,310,306,2
311,283,314,308,2
313,278,316,311,2
313,282,316,312,2
313,292,315,311,2
311,304,314,309,2
309,313,312,307,2
307,321,312,307,2
305,328,312,307,2
304,335,312,307,2
303,338,311,306,2
302,335,308,305,2
302,329,305,303,2
301,323,301,302,2
301,316,297,303,2
302,307,294,305,2
304,291,293,307,2
308,271,295,309,2
311,248,299,309,2
313,227,302,308,2
312,214,304,306,2
311,216,304,305,2
311,234,304,306,2
311,263,304,306,2
311,296,304,306,2
311,323,304,304,2
311,341,305,301,2
312,351,305,299,2
312,355,304,298,2
312,354,302,299,2
311,350,299,300,2
310,343,297,302,2
309,336,298,305,2
308,332,301,308,2
307,330,306,310,2
307,328,311,311,2
307,327,314,312,2
307,326,315,313,2
308,325,317,313,2
308,324,317,312,2
307,323,315,310,2
307,322,312,308,2
307,321,309,308,2
308,319,307,308,2
309,316,308,309,2
310,311,309,309,2
312,306,311,308,2
312,303,312,306,2
310,303,311,305,2
309,308,310,304,2
309,315,309,304,2
310,323,308,306,2
311,328,307,308,2
312,330,308,309,2
313,328,309,310,2
314,321,309,310,2
314,312,308,308,2
314,305,308,307,2
313,297,306,305,2
311,291,302,304,2
310,287,299,302,2
308,285,296,300,2
307,284,294,298,2
306,284,295,298,2
308,283,297,300,2
310,283,303,302,2
312,284,310,304,2
313,289,314,304,2
312,297,316,305,2
310,307,313,306,2
309,317,307,307,2
309,324,302,307,2
308,328,298,307,2
307,328,297,306,2
307,325,297,305,2
308,319,298,305,2
309,311,300,306,2
309,302,304,307,2
308,294,307,310,2
308,287,311,313,2
308,280,313,315,2
309,276,313,316,2
309,275,312,315,2
308,274,311,312,2
308,276,311,311,2
308,286,311,310,2
309,297,312,310,2
309,307,311,309,2
310,314,311,309,2
309,319,309,308,2
309,322,308,308,2
308,324,306,308,2
308,326,305,309,2
307,329,304,311,2
307,332,303,313,2
307,336,302,313,2
307,338,302,312,2
307,338,301,310,2
307,337,302,307,2
308,335,303,305,2
308,332,305,305,2
309,326,308,305,2
311,317,312,304,2
313,306,316,303,2
314,296,319,302,2
313,293,321,300,2
311,294,318,300,2
309,298,314,301,2
308,302,310,303,2
307,301,305,303,2
305,297,299,304,2
304,292,294,303,2
303,289,291,302,2
302,287,291,303,2
303,285,293,304,2
304,282,296,306,2
305,278,301,307,2
306,273,306,308,2
308,272,311,309,2
310,273,316,311,2
312,279,319,312,2
312,288,319,313,2
313,299,316,313,2
312,307,313,314,2
313,311,310,313,2
314,311,309,313,2
316,308,310,312,2
316,304,313,310,2
316,301,315,308,2
314,299,317,306,2
312,298,316,305,2
309,298,313,304,2
306,301,309,305,2
305,305,305,306,2
304,308,304,307,2
302,312,302,308,2
302,316,299,310,2
301,319,297,313,2
301,321,296,316,2
301,322,296,317,2
300,323,296,315,2
299,324,297,313,2
300,323,300,311,2
300,320,305,310,2
302,314,309,312,2
304,307,312,314,2
307,299,313,316,2
309,293,313,317,2
311,290,312,316,2
311,292,310,314,2
310,297,308,310,2
309,302,307,305,2
308,306,306,303,2
309,309,306,303,2
309,309,305,303,2
308,304,304,302,2
308,300,302,302,2
308,299,301,303,2
308,301,299,305,2
309,306,299,307,2
308,316,301,309,2
308,328,303,310,2
308,338,307,310,2
308,344,310,310,2
308,341,312,310,2
307,331,314,311,2
307,316,315,312,2
307,304,316,314,2
307,292,316,314,2
307,281,317,312,2
306,271,316,308,2
304,267,315,304,2
304,265,313,300,2
303,261,310,298,2
303,255,308,297,2
302,250,305,298,2
303,249,303,299,2
303,255,301,299,2
303,268,299,299,2
304,288,298,300,2
305,310,296,302,2
307,330,295,305,2
309,344,296,309,2
311,352,297,313,2
312,356,298,316,2
311,352,298,318,2
307,340,298,319,2
304,322,297,319,2
302,302,298,318,2
301,283,300,318,2
302,268,303,317,2
302,261,305,316,2
303,260,308,314,2
304,266,309,311,2
304,278,309,309,2
305,291,308,308,2
306,302,307,308,2
306,310,306,306,2
306,316,305,306,2
307,324,306,308,2
309,331,306,309,2
311,333,307,309,2
310,330,305,308,2
306,323,302,305,2
302,315,298,303,2
299,308,299,302,2
298,302,302,304,2
299,300,306,305,2
299,301,309,307,2
300,305,311,309,2
300,308,310,311,2
300,311,309,314,2
300,316,308,318,2
301,320,308,321,2
303,321,308,323,2
303,320,307,322,2
303,316,307,320,2
303,312,307,317,2
304,309,308,315,2
305,309,308,313,2
306,309,307,311,2
308,313,306,311,2
310,318,305,311,2
310,322,303,311,2
310,325,300,310,2
308,324,295,309,2
305,318,292,307,2
303,306,294,306,2
302,294,300,306,2
302,285,309,307,2
304,277,316,308,2
305,269,320,309,2
306,262,320,310,2
306,258,318,309,2
305,262,317,310,2
305,273,316,310,2
305,289,315,310,2
304,304,314,311,2
303,316,312,311,2
302,324,309,311,2
301,326,307,310,2
301,324,305,309,2
300,320,304,309,2
301,311,304,310,2
301,301,303,309,2
302,289,303,307,2
303,281,303,306,2
303,277,304,306,2
303,278,303,305,2
302,284,302,305,2
301,292,301,307,2
301,299,301,309,2
301,304,302,311,2
301,306,302,311,2
301,306,302,311,2
302,304,300,310,2
301,302,299,310,2
302,301,298,311,2
304,296,299,312,2
307,293,301,313,2
309,291,304,314,2
310,290,306,315,2
310,289,308,317,2
309,288,308,319,2
307,290,306,321,2
305,295,305,323,2
305,298,304,323,2
305,297,302,320,2
304,292,300,316,2
304,285,298,313,2
304,278,298,310,2
304,273,299,308,2
305,274,301,306,2
306,276,304,306,2
306,276,306,307,2
306,277,307,309,2
305,280,309,311,2
305,287,311,312,2
304,296,312,312,2
303,308,313,311,2
303,322,313,312,2
303,334,314,312,2
304,344,314,313,2
304,350,313,313,2
302,348,312,313,2
301,336,311,313,2
300,317,310,313,2
300,296,310,312,2
300,280,310,312,2
301,269,310,312,2
302,265,310,311,2
303,268,309,310,2
302,277,308,309,2
301,291,307,307,2
300,307,306,305,2
299,322,306,304,2
299,333,307,303,2
299,338,310,303,2
301,336,315,304,2
303,331,321,306,2
305,323,324,306,2
307,317,325,305,2
309,313,323,305,2
311,310,319,304,2
312,307,313,303,2
312,304,306,303,2
310,303,298,303,2
307,304,292,305,2
306,309,291,307,2
305,319,294,311,2
305,329,298,315,2
304,333,300,316,2
302,332,302,314,2
299,327,302,311,2
297,320,302,308,2
296,312,303,307,2
296,303,304,307,2
297,295,305,307,2
299,291,306,309,2
301,291,307,311,2
303,295,308,313,2
306,302,308,316,2
307,309,309,316,2
308,316,307,315,2
307,322,306,313,2
306,328,304,311,2
305,336,302,310,2
304,345,302,308,2
302,347,303,307,2
300,340,304,306,2
299,326,305,306,2
299,311,306,306,2
299,301,306,308,2
300,295,304,311,2
301,293,304,316,2
302,295,303,321,2
303,299,302,325,2
304,299,300,325,2
303,294,299,320,2
301,284,298,314,2
299,276,297,308,2
299,270,298,304,2
300,265,300,303,2
301,261,303,303,2
302,258,306,304,2
302,260,308,305,2
301,265,308,307,2
300,272,307,311,2
299,278,306,315,2
299,281,307,318,2
299,282,308,319,2
300,282,310,318,2
301,283,311,315,2
301,288,310,313,2
300,297,308,311,2
298,309,306,310,2
297,319,305,308,2
296,327,305,307,2
296,332,305,305,2
297,334,306,304,2
297,333,305,304,2
297,330,303,304,2
298,325,300,304,2
300,320,298,306,2
301,315,296,307,2
303,311,295,310,2
305,309,296,312,2
307,306,297,314,2
310,303,299,313,2
311,300,301,311,2
313,298,302,308,2
313,298,304,305,2
312,302,303,303,2
311,311,302,302,2
309,321,301,303,2
307,325,301,305,2
305,323,302,308,2
304,318,305,310,2
304,312,308,311,2
305,305,312,311,2
306,299,313,311,2
306,293,314,310,2
306,291,314,312,2
306,290,314,313,2
306,290,313,314,2
306,292,311,312,2
305,297,307,310,2
305,308,302,307,2
304,319,297,306,2
303,325,294,305,2
302,326,291,306,2
301,323,291,306,2
301,313,292,306,2
302,299,295,305,2
303,285,298,304,2
306,270,300,303,2
309,258,301,301,2
312,251,301,300,2
314,249,300,299,2
315,254,297,297,2
314,264,293,297,2
313,278,289,296,2
310,292,289,297,2
307,304,292,298,2
304,314,298,300,2
303,322,306,303,2
302,325,312,304,2
301,322,317,306,2
302,316,321,307,2
303,309,322,308,2
303,302,323,308,2
303,299,321,308,2
303,298,320,308,2
303,303,318,309,2
304,309,317,309,2
306,314,315,308,2
308,316,312,306,2
309,313,310,304,2
310,305,309,302,2
310,292,309,300,2
310,280,310,299,2
310,279,311,298,2
310,287,312,300,2
310,302,313,302,2
309,317,311,305,2
307,329,310,306,2
305,336,307,306,2
302,341,304,305,2
300,343,302,304,2
298,341,301,302,2
296,337,301,302,2
295,334,302,301,2
295,329,304,301,2
295,322,306,301,2
295,316,307,301,2
296,314,308,301,2
297,313,308,301,2
298,315,309,302,2
298,318,308,302,2
298,319,307,303,2
297,317,305,305,2
297,310,304,307,2
298,303,304,309,2
298,299,305,310,2
299,298,306,310,2
301,299,307,308,2
303,301,309,306,2
305,302,309,304,2
306,301,309,302,2
307,299,309,300,2
308,294,309,300,2
309,287,311,301,2
310,279,313,302,2
311,272,313,304,2
312,267,312,305,2
312,270,310,305,2
310,282,307,303,2
309,301,305,303,2
307,320,303,304,2
307,332,302,305,2
308,336,302,306,2
310,337,302,308,2
314,337,305,309,2
318,335,310,309,2
321,331,314,308,2
322,327,316,305,2
320,321,315,302,2
317,317,311,300,2
312,311,306,298,2
308,306,301,297,2
305,300,299,297,2
304,291,299,297,2
304,278,300,297,2
305,263,300,296,2
307,251,299,295,2
308,246,299,295,2
308,250,299,295,2
307,262,300,295,2
306,279,301,296,2
304,292,302,297,2
303,302,304,299,2
303,312,305,300,2
304,321,305,301,2
304,328,306,301,2
306,333,307,303,2
308,334,307,304,2
308,332,306,306,2
307,325,305,306,2
306,319,304,307,2
305,317,304,307,2
305,316,305,306,2
304,314,306,305,2
303,311,306,305,2
302,309,305,306,2
302,309,304,307,2
303,310,304,309,2
305,311,305,309,2
306,308,307,308,2
306,303,309,306,2
305,296,311,304,2
303,289,310,304,2
302,287,307,303,2
301,288,305,302,2
301,291,303,301,2
300,298,303,300,2
300,307,302,300,2
300,315,301,301,2
301,321,301,302,2
301,323,301,303,2
302,319,301,304,2
303,309,301,305,2
304,293,301,305,2
304,279,301,305,2
303,271,303,306,2
302,272,307,308,2
301,280,313,309,2
301,295,316,311,2
301,311,316,312,2
301,326,315,313,2
301,338,312,312,2
301,347,310,312,2
302,353,309,311,2
303,356,308,311,2
304,356,307,310,2
305,353,307,310,2
305,346,307,311,2
306,333,307,313,2
306,312,307,314,2
306,288,308,313,2
306,265,309,311,2
306,248,310,307,2
306,237,311,304,2
306,235,311,303,2
305,241,310,303,2
305,252,309,305,2
304,264,308,306,2
305,277,309,307,2
308,291,311,308,2
310,304,315,309,2
311,313,317,310,2
308,317,315,310,2
304,320,310,310,2
302,323,304,312,2
301,325,299,313,2
300,326,296,313,2
299,326,297,312,2
299,325,300,310,2
299,327,304,309,2
301,330,307,311,2
303,332,308,312,2
304,333,308,313,2
305,334,306,312,2
304,335,304,309,2
303,334,302,305,2
302,334,300,301,2
302,334,299,298,2
303,332,298,296,2
304,327,299,295,2
305,316,299,295,2
306,303,302,297,2
305,292,306,299,2
306,288,311,301,2
305,289,314,302,2
303,295,314,302,2
302,301,312,302,2
301,304,307,302,2
301,304,303,303,2
301,303,299,304,2
302,301,298,306,2
303,298,297,307,2
304,293,299,308,2
305,291,302,308,2
305,292,305,308,2
304,295,307,307,2
302,296,308,306,2
302,297,309,305,2
302,294,309,305,2
305,290,309,304,2
308,288,308,303,2
310,291,308,304,2
312,302,307,304,2
311,312,306,304,2
311,317,304,305,2
311,316,303,305,2
310,311,302,307,2
308,303,301,309,2
306,296,301,311,2
305,292,302,311,2
304,292,302,308,2
304,294,302,303,2
305,297,301,298,2
307,302,302,295,2
309,310,302,293,2
309,318,301,293,2
308,321,299,293,2
306,319,298,293,2
303,314,298,295,2
301,311,299,295,2
300,310,301,296,2
300,312,304,296,2
300,314,307,297,2
300,318,308,298,2
299,324,309,300,2
299,332,310,303,2
300,339,311,305,2
300,341,312,306,2
299,334,311,305,2
299,322,310,304,2
299,310,309,304,2
300,302,309,304,2
301,300,308,305,2
302,304,308,305,2
303,313,307,306,2
304,323,307,307,2
307,333,307,308,2
310,341,307,311,2
313,343,308,313,2
316,338,310,315,2
318,328,310,316,2
318,315,309,316,2
316,301,308,315,2
314,288,307,312,2
311,275,308,309,2
309,267,310,307,2
309,262,312,305,2
309,260,311,304,2
308,261,309,302,2
307,267,306,301,2
306,279,303,302,2
305,292,301,302,2
304,301,302,303,2
304,305,304,304,2
305,305,308,305,2
306,301,311,305,2
307,295,313,306,2
307,290,312,305,2
308,289,311,305,2
308,292,309,306,2
309,299,308,306,2
309,307,308,307,2
309,314,307,309,2
309,319,308,311,2
310,321,308,313,2
312,318,309,313,2
313,311,309,311,2
313,300,307,309,2
313,288,304,307,2
312,279,302,306,2
311,273,301,306,2
310,273,302,306,2
309,281,304,307,2
309,294,307,308,2
309,308,309,308,2
308,318,309,308,2
306,324,308,307,2
304,330,304,306,2
303,337,302,306,2
302,343,300,307,2
301,345,299,309,2
301,345,298,309,2
302,340,299,311,2
303,329,301,311,2
305,317,302,311,2
306,306,304,310,2
308,297,304,308,2
310,293,304,305,2
310,295,303,302,2
310,302,303,301,2
309,310,304,300,2
308,312,306,300,2
307,307,306,301,2
306,298,305,301,2
305,286,305,300,2
305,272,305,301,2
306,259,305,302,2
306,250,305,304,2
305,246,304,306,2
303,249,304,307,2
302,258,303,307,2
301,274,303,308,2
301,293,302,308,2
301,313,301,308,2
301,332,299,307,2
301,347,298,306,2
301,358,297,305,2
301,363,296,304,2
303,362,296,303,2
306,355,297,302,2
309,346,297,303,2
312,335,297,305,2
312,325,296,308,2
313,318,295,311,2
313,314,296,312,2
312,310,297,312,2
311,306,299,312,2
309,305,302,312,2
307,307,306,314,2
305,311,311,316,2
304,313,315,317,2
304,314,317,318,2
304,313,317,319,2
304,310,315,319,2
304,306,313,318,2
304,302,310,317,2
304,299,307,315,2
306,298,306,314,2
307,298,305,313,2
308,297,304,312,2
308,295,303,311,2
307,293,302,309,2
305,292,301,308,2
303,292,300,307,2
302,293,299,306,2
301,297,298,307,2
301,302,299,309,2
302,307,300,310,2
303,310,302,309,2
304,313,304,307,2
307,316,306,305,2
310,323,310,304,2
314,328,313,306,2
316,324,315,308,2
316,310,317,311,2
316,294,318,311,2
314,283,318,312,2
312,283,317,313,2
310,291,315,315,2
308,302,311,318,2
306,311,307,319,2
304,315,303,318,2
301,317,300,314,2
299,316,298,311,2
298,315,297,307,2
298,312,296,305,2
298,308,297,305,2
300,304,299,305,2
301,301,301,307,2
304,301,303,309,2
307,302,304,311,2
309,305,304,313,2
309,308,304,314,2
309,310,304,314,2
309,311,305,312,2
310,311,305,311,2
312,310,305,308,2
313,308,305,306,2
314,307,307,304,2
313,305,311,302,2
312,303,314,301,2
310,300,316,300,2
308,296,317,300,2
307,293,316,302,2
308,292,316,305,2
310,293,316,307,2
312,296,316,307,2
312,298,315,306,2
309,298,312,304,2
306,297,307,302,2
305,297,301,302,2
303,298,296,302,2
303,301,291,303,2
303,306,288,304,2
303,311,287,305,2
303,314,290,305,2
304,317,297,305,2
305,316,305,304,2
306,311,313,304,2
308,302,318,303,2
309,292,319,304,2
310,283,319,305,2
311,278,316,307,2
310,277,312,307,2
309,279,310,306,2
307,285,309,305,2
305,295,310,303,2
304,305,313,303,2
304,310,316,304,2
305,310,318,305,2
305,308,318,307,2
305,305,317,308,2
305,307,314,309,2
303,314,312,310,2
302,322,310,311,2
301,328,308,311,2
301,334,307,309,2
302,339,307,307,2
303,347,308,306,2
304,352,309,306,2
305,352,309,305,2
305,346,309,305,2
305,338,308,305,2
304,330,307,305,2
304,325,305,306,2
304,322,304,306,2
305,320,303,306,2
306,317,302,305,2
306,310,301,305,2
305,304,302,305,2
305,298,303,305,2
306,293,303,305,2
306,290,304,304,2
307,290,305,305,2
308,292,307,308,2
311,294,310,311,2
312,296,313,314,2
313,297,316,314,2
312,297,317,311,2
310,295,318,307,2
308,294,318,305,2
308,293,317,306,2
307,294,317,306,2
306,294,316,306,2
305,295,313,304,2
304,297,308,302,2
304,301,304,300,2
306,306,302,300,2
308,309,302,301,2
309,308,305,303,2
309,303,308,305,2
310,297,312,309,2
311,290,313,312,2
311,285,314,314,2
312,283,313,316,2
312,286,312,316,2
312,292,311,315,2
312,301,309,312,2
312,311,307,307,2
311,319,304,302,2
310,324,300,297,2
308,325,296,294,2
307,326,294,293,2
306,326,293,292,2
306,324,295,293,2
306,321,299,295,2
307,318,304,298,2
309,318,308,302,2
310,318,311,304,2
311,313,313,306,2
310,305,313,307,2
309,299,313,307,2
308,300,312,308,2
306,304,309,310,2
306,308,306,313,2
305,310,303,314,2
303,311,300,315,2
303,311,299,315,2
302,311,299,313,2
302,308,300,311,2
302,304,299,307,2
302,300,298,305,2
303,297,298,303,2
303,294,300,302,2
303,292,303,301,2
303,291,305,301,2
304,292,306,302,2
304,294,308,302,2
304,296,308,303,2
304,296,309,304,2
304,296,309,305,2
304,297,309,305,2
304,299,308,306,2
304,303,308,307,2
306,309,307,308,2
307,313,307,309,2
310,315,306,309,2
311,315,305,309,2
312,317,304,308,2
313,317,303,308,2
313,315,302,308,2
312,309,302,307,2
312,299,304,306,2
311,287,306,305,2
311,277,309,306,2
310,274,312,309,2
308,276,314,312,2
306,280,314,313,2
305,284,314,314,2
304,288,313,314,2
304,293,313,314,2
304,298,312,315,2
304,301,312,315,2
303,304,311,315,2
302,310,310,315,2
303,317,309,315,2
303,323,309,314,2
303,330,309,314,2
304,335,308,313,2
304,336,309,311,2
305,332,307,308,2
305,323,304,305,2
306,312,301,302,2
307,302,300,300,2
309,296,301,299,2
310,295,303,301,2
312,301,305,303,2
314,313,307,306,2
314,326,307,308,2
314,332,305,309,2
313,330,303,308,2
311,323,300,306,2
309,317,297,302,2
308,312,296,299,2
307,310,295,297,2
306,309,293,295,2
305,308,292,293,2
304,306,292,294,2
304,306,293,294,2
303,306,295,296,2
304,304,298,298,2
304,301,299,299,2
304,295,298,300,2
303,289,297,300,2
303,285,296,299,2
303,281,298,299,2
304,278,301,299,2
305,279,306,299,2
306,284,309,301,2
308,291,312,302,2
309,296,314,304,2
309,299,315,304,2
310,302,315,305,2
310,305,313,305,2
311,309,309,306,2
311,311,305,306,2
310,311,302,307,2
310,312,301,309,2
311,313,300,309,2
311,313,298,309,2
311,313,295,307,2
311,312,294,306,2
312,311,293,306,2
312,312,292,305,2
312,315,292,305,2
311,321,293,304,2
311,325,294,303,2
311,327,293,302,2
311,325,292,301,2
311,320,290,299,2
310,313,289,297,2
309,306,289,294,2
310,297,290,293,2
311,293,291,291,2
312,294,293,290,2
311,298,296,290,2
308,301,299,291,2
307,303,301,293,2
308,306,304,296,2
310,308,307,298,2
311,309,308,300,2
312,309,306,301,2
313,312,302,302,2
313,314,299,302,2
312,312,298,302,2
312,306,303,301,2
311,297,310,302,2
312,287,317,303,2
314,278,320,304,2
315,274,319,304,2
314,279,312,303,2
312,293,304,303,2
309,311,300,304,2
307,326,302,305,2
305,336,307,306,2
305,338,311,307,2
305,334,314,309,2
304,327,315,310,2
305,321,316,312,2
305,319,315,313,2
305,320,314,315,2
305,320,313,317,2
305,318,312,317,2
305,315,311,316,2
304,307,311,312,2
304,295,312,307,2
303,282,314,303,2
303,270,315,300,2
301,261,312,298,2
300,257,308,298,2
300,258,303,299,2
300,267,300,301,2
300,278,297,302,2
300,290,297,303,2
300,296,297,304,2
299,298,298,303,2
298,299,299,303,2
297,301,300,303,2
298,304,301,305,2
299,310,303,306,2
301,318,305,305,2
304,327,306,303,2
306,337,306,301,2
307,343,305,299,2
308,345,305,297,2
308,344,304,297,2
308,339,303,297,2
308,333,302,298,2
307,326,301,299,2
306,320,300,299,2
305,318,300,299,2
304,317,301,298,2
302,317,301,297,2
300,317,302,296,2
299,316,302,296,2
299,315,302,298,2
299,312,303,302,2
299,304,302,306,2
299,295,301,309,2
298,285,300,310,2
297,278,300,310,2
297,274,301,309,2
297,270,302,306,2
298,267,303,304,2
299,266,304,302,2
302,270,306,301,2
304,277,307,300,2
307,285,307,299,2
307,297,307,300,2
308,313,306,302,2
307,329,306,304,2
307,337,306,305,2
307,338,306,307,2
306,333,305,308,2
305,327,303,306,2
303,320,300,304,2
302,312,297,302,2
302,306,295,301,2
301,302,293,301,2
300,300,293,302,2
299,299,295,302,2
298,301,298,304,2
298,304,301,305,2
298,306,304,306,2
298,307,306,307,2
299,306,307,308,2
300,304,308,309,2
301,301,311,311,2
303,297,313,315,2
305,294,314,318,2
306,292,315,320,2
308,292,315,321,2
308,293,314,321,2
308,296,313,321,2
308,300,312,320,2
307,308,311,319,2
305,317,310,319,2
303,328,310,318,2
302,337,310,318,2
302,342,311,316,2
303,342,312,315,2
303,336,314,312,2
302,326,315,308,2
300,315,313,304,2
299,303,310,302,2
301,294,307,301,2
303,286,304,301,2
307,279,301,302,2
309,274,299,302,2
310,272,298,302,2
309,273,299,301,2
308,279,303,301,2
305,289,307,302,2
304,302,311,303,2
304,312,313,304,2
304,315,313,305,2
303,312,312,304,2
303,304,311,304,2
303,296,310,304,2
303,287,311,305,2
305,278,312,307,2
305,270,312,307,2
305,269,311,306,2
305,276,311,305,2
306,290,311,305,2
306,305,312,303,2
305,317,313,302,2
304,325,314,301,2
302,331,313,301,2
300,335,311,301,2
299,337,309,302,2
300,340,307,304,2
301,343,306,306,2
301,343,306,307,2
302,341,305,308,2
303,338,305,308,2
303,336,305,309,2
303,335,305,309,2
303,335,306,309,2
304,336,306,309,2
304,337,306,309,2
305,333,306,309,2
304,322,305,310,2
303,305,303,311,2
302,289,302,313,2
301,280,300,315,2
299,275,299,315,2
298,272,300,315,2
297,270,300,314,2
296,272,301,311,2
297,275,301,309,2
297,280,300,308,2
298,289,301,309,2
298,300,301,310,2
297,311,302,311,2
297,320,303,312,2
297,326,305,311,2
299,331,307,310,2
301,332,308,310,2
302,331,309,311,2
304,330,309,313,2
305,328,309,316,2
307,325,309,318,2
308,322,309,318,2
308,318,307,316,2
307,313,304,314,2
306,309,300,312,2
303,305,296,311,2
301,304,295,311,2
300,306,295,310,2
300,309,296,310,2
301,312,298,309,2
303,314,301,310,2
304,313,304,310,2
306,310,305,311,2
306,307,306,311,2
306,304,305,312,2
306,302,305,311,2
306,299,305,310,2
306,297,305,310,2
306,295,304,309,2
305,294,304,309,2
307,298,306,311,2
308,303,307,312,2
311,306,308,312,2
312,307,307,310,2
312,308,306,308,2
311,309,306,307,2
310,308,307,307,2
309,306,309,307,2
307,304,310,309,2
307,304,311,309,2
306,306,310,310,2
304,311,309,310,2
303,314,307,310,2
301,316,306,310,2
301,319,305,310,2
301,322,305,310,2
301,324,304,309,2
302,323,305,309,2
302,319,305,310,2
303,311,305,310,2
302,302,304,310,2
301,295,304,310,2
300,292,303,310,2
299,294,303,310,2
300,297,305,310,2
301,301,308,309,2
303,304,311,310,2
306,308,314,309,2
307,311,317,310,2
308,313,316,310,2
308,313,313,311,2
308,309,310,312,2
308,302,306,312,2
306,293,304,311,2
303,284,303,309,2
301,274,303,307,2
299,267,304,306,2
298,262,306,306,2
298,265,306,305,2
297,275,305,305,2
296,292,303,304,2
295,309,302,305,2
294,321,301,305,2
294,329,301,306,2
294,332,301,307,2
294,333,302,307,2
295,333,304,308,2
296,332,305,308,2
296,329,306,309,2
296,323,306,309,2
297,315,305,310,2
297,306,304,310,2
298,298,303,309,2
298,291,303,308,2
299,287,303,307,2
299,287,303,306,2
300,290,303,306,2
300,297,304,307,2
301,302,304,307,2
301,304,303,308,2
302,302,303,309,2
302,295,302,309,2
303,288,301,309,2
304,282,300,307,2
304,279,300,305,2
305,284,301,304,2
304,296,302,305,2
303,312,303,306,2
302,325,303,308,2
301,333,304,310,2
301,338,305,313,2
302,339,308,315,2
303,338,312,316,2
304,335,315,318,2
304,327,315,318,2
301,318,313,315,2
299,312,309,311,2
297,309,307,308,2
296,310,305,305,2
296,311,304,304,2
296,313,304,303,2
297,315,305,304,2
298,317,305,304,2
298,317,306,305,2
299,314,306,304,2
299,309,306,304,2
300,303,307,304,2
300,297,308,304,2
301,290,310,305,2
302,283,312,305,2
304,277,315,307,2
306,274,317,308,2
308,271,316,307,2
307,269,313,304,2
306,269,309,300,2
304,271,306,299,2
302,280,303,300,2
300,293,301,303,2
298,307,301,306,2
297,319,302,306,2
296,328,303,304,2
295,333,304,302,2
295,335,305,301,2
296,333,305,301,2
297,327,305,302,2
298,321,305,302,2
300,315,304,302,2
301,311,304,301,2
302,310,304,300,2
303,308,305,299,2
303,304,304,298,2
302,299,304,298,2
302,297,303,298,2
302,297,302,299,2
301,300,301,299,2
302,305,301,300,2
302,312,302,302,2
304,319,304,304,2
306,327,307,306,2
308,333,310,306,2
309,334,313,305,2
308,330,313,303,2
307,322,311,302,2
307,311,307,302,2
307,298,304,301,2
307,285,301,301,2
308,274,298,301,2
308,268,297,301,2
308,265,296,301,2
309,264,296,301,2
309,262,297,301,2
307,264,298,301,2
305,269,298,301,2
304,278,299,302,2
302,291,301,303,2
301,307,303,304,2
301,319,306,304,2
300,325,308,304,2
301,327,308,304,2
301,326,308,305,2
302,324,307,308,2
304,325,306,311,2
306,327,306,313,2
309,328,305,314,2
311,327,303,315,2
311,325,301,315,2
312,322,300,315,2
313,320,299,316,2
314,315,300,317,2
314,312,302,317,2
314,314,306,317,2
313,320,310,316,2
311,323,312,316,2
308,318,312,314,2
307,312,310,313,2
305,307,309,312,2
305,308,307,310,2
304,311,306,309,2
305,315,306,307,2
305,319,306,306,2
306,320,306,306,2
306,320,305,305,2
306,318,304,306,2
306,315,302,306,2
305,313,300,305,2
303,313,299,304,2
303,310,299,305,2
303,305,299,306,2
303,302,301,307,2
304,302,304,309,2
305,304,306,310,2
305,306,308,310,2
306,307,309,308,2
306,306,310,306,2
307,303,310,305,2
308,300,308,303,2
308,298,306,302,2
308,298,302,301,2
307,299,300,300,2
306,301,298,300,2
305,302,298,300,2
303,304,300,300,2
303,305,301,301,2
304,304,303,302,2
305,298,307,304,2
306,291,309,305,2
307,282,310,307,2
307,270,311,308,2
307,260,310,309,2
306,254,309,311,2
307,252,309,314,2
308,253,310,316,2
310,258,313,317,2
311,267,315,316,2
312,278,316,316,2
312,287,316,314,2
311,294,315,313,2
311,303,313,311,2
310,313,311,310,2
308,319,308,308,2
307,320,306,307,2
305,322,304,306,2
303,324,304,306,2
301,330,304,306,2
301,336,306,307,2
303,338,307,307,2
304,334,308,307,2
305,326,308,308,2
307,317,308,308,2
309,308,309,309,2
311,302,310,310,2
312,298,312,311,2
313,294,314,311,2
312,292,313,312,2
310,294,311,312,2
308,298,310,312,2
308,304,308,313,2
308,309,307,313,2
309,314,307,313,2
310,320,309,314,2
311,327,311,314,2
312,334,313,313,2
311,337,314,311,2
309,333,312,309,2
307,325,309,308,2
307,315,307,305,2
308,304,307,303,2
310,293,307,301,2
313,283,308,301,2
315,272,309,301,2
317,263,311,302,2
318,257,311,303,2
318,256,312,304,2
318,262,313,305,2
318,273,313,307,2
317,290,313,307,2
315,307,312,308,2
312,318,310,309,2
309,320,308,310,2
306,314,306,310,2
302,306,304,309,2
300,301,303,309,2
298,300,303,310,2
298,304,305,312,2
297,309,307,312,2
297,316,309,313,2
297,322,310,312,2
298,325,309,310,2
299,324,308,306,2
299,322,306,304,2
299,320,304,303,2
301,320,304,304,2
302,319,304,306,2
304,317,305,308,2
306,315,305,310,2
307,313,305,311,2
307,312,304,309,2
306,311,302,307,2
305,311,301,304,2
305,312,300,302,2
305,313,299,301,2
305,312,298,301,2
306,305,297,300,2
307,292,299,301,2
309,279,302,302,2
310,267,306,303,2
311,261,308,304,2
311,261,308,305,2
311,270,308,307,2
311,289,307,307,2
310,310,306,308,2
309,327,305,307,2
308,336,303,307,2
306,337,301,306,2
305,334,300,306,2
304,331,300,306,2
304,328,301,305,2
304,325,301,305,2
304,324,302,304,2
305,322,302,303,2
305,321,302,304,2
306,318,302,305,2
306,313,303,306,2
306,307,304,307,2
307,301,305,309,2
307,297,306,309,2
308,295,306,310,2
309,295,306,309,2
308,294,306,308,2
307,294,306,307,2
307,294,307,307,2
308,293,307,308,2
309,292,309,308,2
312,290,311,310,2
313,287,314,312,2
314,283,316,314,2
314,282,317,315,2
313,284,315,316,2
312,289,313,315,2
312,295,310,314,2
312,299,308,314,2
311,303,306,313,2
311,311,305,313,2
311,320,305,312,2
311,325,304,312,2
311,323,304,311,2
310,316,304,311,2
310,305,304,310,2
310,297,304,310,2
310,293,304,310,2
310,293,303,311,2
308,295,302,312,2
306,299,301,313,2
303,303,301,314,2
302,306,301,314,2
300,308,302,313,2
299,310,302,311,2
299,312,302,309,2
299,314,302,307,2
299,315,302,307,2
300,313,302,306,2
300,312,302,305,2
299,311,302,303,2
299,312,302,302,2
300,313,301,301,2
301,312,301,301,2
302,309,301,302,2
304,306,302,304,2
306,303,303,306,2
309,300,304,309,2
311,291,305,309,2
312,277,305,308,2
312,264,304,305,2
312,258,304,304,2
312,260,304,303,2
312,268,304,303,2
313,281,303,304,2
313,294,302,305,2
312,305,301,306,2
311,312,299,307,2
310,318,298,308,2
309,324,298,309,2
309,330,299,310,2
310,334,301,312,2
311,337,303,312,2
311,337,306,312,2
311,334,309,312,2
310,329,310,310,2
309,323,309,309,2
308,317,308,307,2
307,310,306,305,2
307,303,305,302,2
306,295,304,299,2
306,287,304,297,2
307,281,305,297,2
308,276,306,299,2
309,275,308,301,2
310,278,309,305,2
310,286,309,307,2
309,295,307,308,2
309,306,305,309,2
308,317,302,310,2
308,328,301,309,2
307,340,301,307,2
306,350,302,307,2
305,356,304,306,2
305,356,305,306,2
305,350,305,305,2
306,341,305,305,2
307,334,306,306,2
307,329,307,308,2
308,325,307,308,2
309,321,308,309,2
310,318,309,309,2
312,317,310,309,2
313,319,310,309,2
314,321,309,309,2
313,322,306,309,2
312,322,303,309,2
312,322,302,309,2
311,322,303,309,2
310,323,306,310,2
310,321,309,309,2
309,313,309,308,2
308,300,310,308,2
308,289,312,307,2
311,282,315,306,2
314,278,317,306,2
317,278,318,306,2
319,280,318,305,2
321,282,318,305,2
321,286,317,304,2
320,289,315,304,2
318,294,313,304,2
315,298,309,304,2
312,301,306,304,2
310,301,304,304,2
306,299,302,302,2
304,297,301,301,2
302,295,301,300,2
301,292,302,301,2
302,292,304,302,2
301,292,306,302,2
300,292,307,302,2
299,291,307,302,2
299,293,307,303,2
300,295,308,304,2
302,294,309,306,2
305,289,310,307,2
307,283,310,309,2
308,280,309,308,2
309,283,307,307,2
309,294,306,305,2
309,307,306,304,2
308,320,306,303,2
306,329,305,302,2
305,335,305,301,2
304,336,305,301,2
303,333,306,303,2
304,329,309,307,2
305,327,312,312,2
307,326,314,315,2
309,329,316,317,2
311,329,317,317,2
312,324,318,315,2
313,314,319,313,2
313,303,320,311,2
312,296,319,310,2
310,295,317,310,2
308,298,314,310,2
305,304,309,310,2
304,312,305,310,2
304,321,302,310,2
306,328,300,309,2
307,333,299,306,2
307,338,297,302,2
306,344,297,299,2
305,347,297,297,2
305,347,297,297,2
304,345,298,298,2
304,342,299,300,2
303,334,302,303,2
303,319,307,306,2
304,298,312,309,2
305,278,316,313,2
307,264,318,315,2
309,259,319,316,2
311,261,318,317,2
312,268,316,317,2
313,278,316,317,2
313,289,316,318,2
314,299,316,317,2
314,304,316,316,2
314,306,316,314,2
312,309,316,312,2
309,312,315,311,2
306,315,315,310,2
304,317,316,309,2
303,317,317,307,2
303,317,319,307,2
304,316,318,307,2
306,314,317,307,2
306,314,314,308,2
306,316,310,308,2
305,318,306,307,2
304,319,303,306,2
304,318,302,306,2
305,316,301,305,2
307,315,302,305,2
309,318,304,305,2
311,321,306,306,2
311,321,307,306,2
310,319,308,306,2
309,316,307,306,2
309,313,306,306,2
308,310,305,306,2
305,307,303,306,2
302,304,300,305,2
299,301,299,304,2
297,297,299,304,2
296,293,301,304,2
296,290,302,303,2
297,287,303,302,2
297,285,302,301,2
297,285,301,300,2
299,289,299,300,2
300,297,298,300,2
303,307,298,300,2
305,315,297,301,2
305,318,296,302,2
304,316,295,304,2
304,311,295,306,2
303,304,298,309,2
303,297,301,311,2
303,292,303,311,2
303,289,305,310,2
302,289,306,308,2
302,288,308,308,2
302,286,310,308,2
303,283,312,308,2
304,281,314,310,2
305,282,314,311,2
306,286,313,312,2
306,294,313,312,2
305,304,311,312,2
303,312,309,312,2
301,317,307,311,2
300,320,306,310,2
299,322,306,309,2
300,322,307,307,2
301,323,307,306,2
302,322,307,305,2
302,322,306,304,2
302,320,304,303,2
302,319,301,302,2
303,317,298,302,2
304,317,296,302,2
305,318,296,302,2
306,319,295,302,2
306,319,295,302,2
306,319,296,302,2
305,318,298,303,2
305,315,301,304,2
304,311,306,306,2
304,307,310,310,2
304,305,313,313,2
304,307,313,314,2
303,311,312,315,2
303,314,311,315,2
302,314,310,314,2
302,311,309,314,2
302,306,309,314,2
302,300,310,314,2
302,295,310,313,2
302,290,311,314,2
302,288,311,314,2
303,290,311,313,2
303,294,311,313,2
303,299,310,313,2
304,305,310,312,2
305,313,309,311,2
306,322,307,309,2
307,328,306,307,2
308,331,305,306,2
310,329,305,306,2
311,324,305,307,2
312,319,305,308,2
312,316,305,309,2
311,314,305,310,2
310,310,304,310,2
309,304,304,311,2
308,299,303,312,2
307,296,303,313,2
307,295,303,313,2
307,296,303,312,2
308,297,303,312,2
308,299,303,310,2
309,302,304,309,2
309,304,304,309,2
309,306,305,308,2
308,307,305,307,2
308,306,305,306,2
307,304,305,305,2
306,302,304,305,2
306,300,304,305,2
305,298,305,305,2
306,297,305,307,2
306,296,307,309,2
308,297,307,311,2
309,297,308,311,2
311,291,308,310,2
312,281,308,309,2
313,268,308,307,2
313,256,308,307,2
313,250,308,307,2
313,252,307,308,2
313,265,306,309,2
310,282,304,310,2
308,299,302,310,2
306,313,300,309,2
305,322,299,308,2
304,328,299,306,2
303,333,298,305,2
302,339,298,303,2
302,345,298,303,2
302,349,299,304,2
301,350,300,307,2
298,347,301,309,2
297,341,303,311,2
296,331,304,311,2
297,323,305,310,2
297,315,306,309,2
298,309,306,309,2
298,304,304,308,2
299,300,303,307,2
300,297,302,306,2
302,296,302,306,2
304,297,302,306,2
306,299,303,306,2
307,302,304,305,2
309,305,306,305,2
309,307,308,305,2
309,306,311,305,2
309,303,313,306,2
308,302,315,306,2
309,304,316,307,2
309,310,316,308,2
309,314,317,309,2
308,318,318,310,2
308,319,317,312,2
307,318,315,313,2
306,317,311,314,2
305,316,306,316,2
304,315,301,317,2
303,313,297,316,2
302,313,293,313,2
300,315,291,310,2
299,319,291,308,2
299,324,292,307,2
299,325,293,305,2
299,323,295,303,2
300,318,300,302,2
302,311,306,301,2
306,304,313,301,2
309,297,318,302,2
310,290,321,303,2
310,283,321,306,2
309,277,319,309,2
307,274,317,312,2
306,275,314,315,2
305,281,313,317,2
304,291,313,319,2
302,305,313,319,2
301,319,312,320,2
301,328,312,320,2
301,330,312,320,2
301,329,311,319,2
300,327,309,317,2
299,319,307,315,2
298,306,305,314,2
298,292,304,312,2
298,284,302,310,2
299,285,300,309,2
301,293,298,309,2
302,304,296,309,2
303,312,296,309,2
304,316,297,308,2
305,315,300,307,2
307,310,304,307,2
309,303,308,307,2
310,297,310,307,2
309,291,309,307,2
308,290,307,308,2
306,293,306,307,2
304,299,304,307,2
303,307,304,308,2
304,315,304,309,2
304,321,305,309,2
305,325,305,309,2
306,327,304,308,2
307,328,304,309,2
307,329,305,311,2
307,326,306,313,2
307,320,308,315,2
307,315,311,316,2
307,312,312,316,2
307,313,310,316,2
306,315,308,315,2
305,315,306,312,2
303,313,304,310,2
301,312,304,307,2
302,310,306,305,2
305,311,309,305,2
308,312,313,306,2
309,313,315,307,2
308,315,315,307,2
306,318,313,307,2
304,322,310,308,2
302,324,307,311,2
301,324,305,313,2
301,323,305,313,2
302,321,305,312,2
302,319,306,310,2
303,317,306,307,2
303,315,306,305,2
303,313,306,304,2
304,312,306,305,2
305,312,306,306,2
307,314,307,308,2
309,317,306,309,2
309,322,305,309,2
310,325,304,308,2
309,326,303,307,2
309,323,303,305,2
308,318,304,304,2
308,311,306,303,2
309,305,308,302,2
310,300,310,301,2
310,296,311,301,2
310,292,312,301,2
310,288,312,301,2
309,286,313,302,2
308,285,314,303,2
307,283,315,303,2
307,279,317,302,2
307,275,318,302,2
307,272,318,302,2
308,271,315,303,2
308,270,312,304,2
309,273,308,305,2
308,278,304,304,2
307,281,301,303,2
305,283,299,303,2
304,284,297,302,2
303,290,297,302,2
303,299,296,302,2
304,310,297,303,2
305,319,296,304,2
307,325,297,306,2
308,327,299,307,2
308,329,302,308,2
308,329,306,308,2
308,328,310,307,2
308,327,313,306,2
307,325,315,305,2
306,324,314,305,2
305,323,312,306,2
304,323,311,307,2
304,320,309,308,2
304,316,308,308,2
304,314,306,307,2
304,315,306,306,2
305,318,304,304,2
306,323,303,303,2
307,328,302,302,2
307,332,302,301,2
306,331,302,300,2
303,327,303,300,2
300,323,303,301,2
300,318,304,301,2
300,313,305,302,2
300,309,306,304,2
300,308,305,307,2
300,307,305,309,2
299,302,304,308,2
299,296,303,306,2
299,292,304,304,2
300,292,305,304,2
302,294,306,306,2
305,299,307,308,2
307,305,306,308,2
309,313,305,306,2
309,318,302,304,2
310,319,301,301,2
309,319,299,299,2
309,316,298,298,2
309,311,297,297,2
308,303,297,298,2
308,298,297,300,2
307,294,298,303,2
308,293,299,305,2
308,292,302,307,2
308,289,306,308,2
309,284,310,307,2
309,278,313,306,2
310,274,315,304,2
311,274,316,302,2
311,277,315,300,2
311,284,315,298,2
310,294,313,298,2
309,308,311,298,2
309,324,308,300,2
309,339,306,302,2
309,348,304,304,2
307,347,302,306,2
304,337,301,307,2
302,326,301,308,2
301,319,301,308,2
300,314,301,307,2
301,311,301,305,2
301,307,302,304,2
302,304,304,303,2
303,302,306,303,2
303,302,307,303,2
302,304,308,303,2
302,304,308,302,2
303,302,309,302,2
303,300,308,301,2
304,301,307,302,2
305,304,305,304,2
306,311,304,305,2
306,318,304,307,2
306,324,304,307,2
306,326,304,306,2
305,325,305,304,2
305,321,305,303,2
304,317,307,303,2
304,310,307,303,2
303,302,306,302,2
303,300,304,303,2
303,304,303,304,2
303,312,302,306,2
303,317,303,307,2
303,319,304,307,2
303,320,305,307,2
304,320,305,306,2
305,323,305,306,2
306,326,305,306,2
307,330,305,306,2
308,334,304,305,2
309,339,303,304,2
311,343,304,304,2
314,342,305,305,2
316,334,306,305,2
316,320,306,304,2
314,305,304,302,2
312,293,301,301,2
310,286,299,301,2
309,281,298,302,2
308,279,297,304,2
306,279,298,304,2
305,281,299,305,2
305,282,302,304,2
304,283,306,303,2
304,283,308,302,2
305,283,308,303,2
307,282,307,304,2
309,282,306,306,2
311,281,304,309,2
313,283,302,311,2
315,288,300,312,2
316,298,301,312,2
316,309,304,312,2
316,317,309,311,2
316,323,314,310,2
315,325,318,309,2
313,323,318,307,2
310,317,317,305,2
307,312,314,303,2
305,313,312,303,2
304,321,310,303,2
303,334,308,305,2
302,346,308,306,2
301,353,309,308,2
302,352,310,310,2
302,339,312,312,2
303,319,313,313,2
304,300,314,313,2
305,287,315,314,2
307,279,315,314,2
307,278,315,312,2
307,282,315,311,2
308,290,314,310,2
308,297,315,310,2
309,302,315,309,2
309,304,315,307,2
308,306,315,306,2
307,307,315,306,2
307,306,315,305,2
307,304,316,305,2
306,302,315,305,2
305,304,315,305,2
305,306,313,306,2
305,308,312,307,2
306,308,312,309,2
307,306,312,310,2
307,302,312,310,2
307,297,312,311,2
306,292,312,310,2
306,290,311,310,2
305,292,309,310,2
305,296,307,308,2
304,302,306,306,2
304,307,305,304,2
304,309,305,303,2
304,310,305,302,2
304,309,304,302,2
303,308,302,302,2
303,308,301,303,2
304,308,300,303,2
304,308,300,304,2
305,308,302,305,2
306,306,304,305,2
307,305,306,306,2
306,305,309,306,2
306,308,310,307,2
306,311,311,308,2
306,313,311,308,2
306,314,311,307,2
306,314,312,307,2
306,313,312,306,2
307,311,312,305,2
307,305,312,304,2
306,297,313,303,2
307,288,312,302,2
308,282,312,301,2
310,278,312,302,2
312,280,313,304,2
314,287,313,306,2
314,293,312,308,2
314,297,312,310,2
314,300,312,313,2
314,299,311,314,2
312,295,311,314,2
309,294,309,313,2
307,297,308,311,2
306,301,308,310,2
306,302,308,310,2
306,302,308,310,2
307,305,309,311,2
308,312,310,313,2
309,319,311,312,2
310,324,311,311,2
311,328,310,309,2
310,328,309,308,2
309,328,308,307,2
309,327,307,306,2
310,325,307,306,2
312,320,307,305,2
313,313,308,303,2
311,307,308,302,2
309,304,306,301,2
305,304,303,301,2
303,305,299,302,2
302,306,296,304,2
301,305,294,305,2
301,301,295,306,2
303,294,298,308,2
305,287,303,310,2
308,282,308,312,2
311,279,312,315,2
312,278,314,317,2
311,277,314,317,2
310,277,314,315,2
309,277,312,312,2
308,278,311,307,2
307,280,311,304,2
307,284,311,303,2
306,293,309,302,2
306,303,308,303,2
305,313,306,305,2
304,320,305,306,2
304,325,304,306,2
303,329,304,306,2
301,332,304,305,2
300,333,303,304,2
299,333,301,303,2
298,332,300,303,2
298,329,299,304,2
299,324,301,304,2
302,319,303,305,2
304,316,306,305,2
306,314,309,304,2
307,309,310,303,2
307,304,309,302,2
305,301,307,300,2
304,300,305,299,2
302,302,305,299,2
301,303,305,299,2
301,305,305,301,2
300,310,304,303,2
300,317,303,305,2
300,324,302,306,2
300,330,303,307,2
301,334,304,309,2
302,336,305,310,2
302,334,306,311,2
301,329,307,309,2
299,322,306,307,2
298,317,306,307,2
298,315,306,308,2
299,313,306,309,2
300,310,306,310,2
301,305,306,310,2
303,296,306,311,2
305,287,307,312,2
308,279,308,314,2
310,274,309,314,2
312,269,310,314,2
312,265,309,310,2
310,265,308,307,2
307,270,306,307,2
305,282,304,308,2
303,294,301,309,2
302,306,298,311,2
302,313,296,310,2
302,317,296,309,2
303,318,297,307,2
305,317,301,306,2
308,316,305,306,2
310,314,308,307,2
311,313,309,307,2
311,312,310,307,2
311,312,311,308,2
310,313,311,308,2
310,315,312,308,2
309,317,314,308,2
309,317,315,308,2
308,315,316,309,2
307,313,316,310,2
306,311,314,310,2
306,310,310,310,2
307,308,306,310,2
308,304,302,310,2
308,298,299,310,2
309,292,297,310,2
312,287,297,310,2
315,283,299,311,2
320,283,303,311,2
323,288,305,310,2
324,296,304,308,2
321,304,301,305,2
316,310,298,304,2
311,316,297,303,2
307,322,297,304,2
306,326,299,305,2
307,328,303,305,2
308,328,308,305,2
308,327,313,303,2
309,326,316,302,2
309,324,318,303,2
310,322,319,305,2
310,320,320,309,2
309,316,319,314,2
306,310,315,318,2
303,304,308,320,2
299,298,300,319,2
297,290,294,315,2
298,282,290,311,2
300,280,290,309,2
303,285,292,308,2
306,296,294,308,2
309,308,297,308,2
310,320,300,307,2
312,329,302,306,2
312,333,303,306,2
311,334,303,306,2
311,332,302,307,2
312,329,301,309,2
314,324,301,312,2
318,318,300,313,2
323,310,300,312,2
328,303,301,311,2
333,297,302,311,2
337,293,303,311,2
339,290,304,310,2
336,288,306,308,2
329,287,306,305,2
319,288,307,302,2
308,293,308,300,2
301,299,310,298,2
298,306,311,297,2
296,312,311,296,2
296,318,311,295,2
297,320,312,296,2
299,320,315,297,2
302,317,319,299,2
304,311,321,301,2
304,304,321,304,2
303,297,319,306,2
302,292,313,308,2
300,289,308,310,2
300,290,303,311,2
301,293,302,311,2
302,294,301,310,2
302,293,300,309,2
301,291,301,308,2
301,291,302,307,2
302,291,303,307,2
302,286,304,307,2
302,275,304,307,2
301,261,304,308,2
299,249,303,309,2
298,242,301,309,2
297,242,300,308,2
297,251,299,306,2
297,270,298,305,2
296,296,297,305,2
296,321,297,306,2
297,340,298,306,2
298,352,298,307,2
299,357,299,307,2
299,359,300,308,2
300,358,302,309,2
301,357,305,310,2
302,355,309,312,2
302,352,312,313,2
303,344,313,314,2
303,331,313,313,2
304,316,311,312,2
306,301,310,311,2
308,287,309,311,2
310,277,309,311,2
310,276,308,312,2
308,285,307,313,2
305,299,305,314,2
302,313,304,316,2
299,323,303,317,2
298,328,302,318,2
296,329,301,317,2
296,327,300,313,2
296,325,299,308,2
298,324,299,305,2
300,324,300,303,2
303,323,302,304,2
305,320,305,305,2
306,317,307,307,2
307,314,308,309,2
308,312,309,309,2
308,309,309,308,2
308,308,309,306,2
308,306,310,305,2
308,304,310,304,2
308,301,310,303,2
308,295,310,302,2
307,290,309,301,2
306,283,308,302,2
307,280,307,303,2
307,281,306,306,2
308,284,305,308,2
307,287,304,309,2
307,291,303,308,2
305,295,302,307,2
304,298,301,307,2
304,301,302,306,2
305,304,303,306,2
307,304,305,306,2
309,302,307,306,2
310,296,308,305,2
311,287,309,305,2
311,279,308,305,2
312,278,307,306,2
313,288,307,307,2
313,309,307,308,2
313,332,308,309,2
313,350,308,310,2
312,361,307,310,2
311,366,307,310,2
309,362,307,308,2
307,352,306,306,2
306,340,305,305,2
305,330,303,304,2
304,323,301,304,2
302,316,299,304,2
300,311,297,303,2
299,307,295,303,2
298,298,295,303,2
298,287,297,302,2
297,276,299,302,2
296,268,302,302,2
297,264,305,303,2
300,264,307,305,2
303,270,309,306,2
305,280,311,307,2
306,291,312,307,2
306,299,312,307,2
306,304,310,307,2
305,303,309,307,2
306,297,307,307,2
306,287,307,307,2
308,279,306,307,2
309,277,306,306,2
309,277,306,306,2
308,280,308,307,2
308,287,310,308,2
307,296,312,310,2
307,303,313,313,2
306,311,312,315,2
306,317,310,317,2
307,320,309,318,2
309,320,310,319,2
311,321,311,319,2
311,323,311,318,2
310,323,309,315,2
309,320,306,312,2
308,314,303,309,2
305,307,301,305,2
303,299,299,302,2
302,294,298,300,2
302,290,299,300,2
303,289,300,303,2
305,289,302,306,2
306,290,303,310,2
307,293,305,311,2
308,299,305,311,2
308,307,306,311,2
308,317,306,311,2
307,325,305,311,2
305,326,304,310,2
303,321,303,310,2
303,312,302,309,2
303,303,301,307,2
304,295,300,306,2
304,288,300,305,2
303,287,299,304,2
302,290,299,304,2
302,295,299,305,2
301,299,298,306,2
302,300,298,306,2
303,299,298,306,2
302,297,297,306,2
301,296,296,305,2
300,295,294,304,2
299,295,293,302,2
299,294,293,301,2
299,291,295,300,2
301,289,297,301,2
302,290,301,304,2
304,293,304,307,2
305,298,308,311,2
305,304,309,313,2
305,313,308,315,2
304,324,306,316,2
304,333,304,318,2
304,336,304,317,2
304,333,303,317,2
305,329,303,315,2
305,322,303,314,2
305,314,303,312,2
305,305,304,309,2
306,299,305,307,2
306,298,305,306,2
307,304,305,306,2
307,315,305,307,2
308,324,305,309,2
308,331,305,312,2
310,335,305,314,2
311,334,306,314,2
312,330,308,313,2
314,321,311,312,2
316,311,315,311,2
318,300,320,311,2
319,293,324,311,2
318,287,325,311,2
315,283,321,309,2
311,282,314,308,2
306,286,307,308,2
303,293,301,308,2
300,298,297,308,2
298,302,295,306,2
296,301,295,305,2
296,298,296,304,2
296,292,297,304,2
297,286,299,304,2
298,281,300,303,2
299,280,300,304,2
300,281,301,304,2
301,282,303,305,2
303,286,305,306,2
304,292,307,308,2
305,304,308,310,2
306,318,309,311,2
307,331,310,311,2
307,342,308,310,2
305,346,305,308,2
303,344,301,306,2
302,337,297,305,2
300,329,295,304,2
300,320,293,304,2
301,311,293,303,2
302,302,294,304,2
303,298,297,304,2
303,300,302,305,2
301,305,306,306,2
299,314,309,307,2
298,324,312,308,2
298,332,314,308,2
300,334,316,309,2
302,332,316,309,2
303,326,316,308,2
303,319,314,306,2
303,313,312,303,2
301,308,309,301,2
300,304,306,300,2
299,300,304,299,2
298,296,303,300,2
298,294,303,301,2
299,295,304,305,2
301,298,305,309,2
303,301,306,313,2
305,302,308,316,2
308,300,310,319,2
310,294,312,319,2
312,287,314,318,2
314,279,314,317,2
314,270,316,316,2
315,259,316,315,2
315,252,316,315,2
316,247,316,317,2
315,246,315,317,2
313,250,314,316,2
309,263,313,315,2
307,284,312,313,2
305,310,311,312,2
305,334,310,312,2
304,352,310,312,2
303,361,311,312,2
302,362,312,312,2
300,356,313,311,2
299,348,314,310,2
299,340,314,309,2
299,334,315,307,2
299,328,316,305,2
298,322,317,303,2
298,318,316,301,2
298,317,315,301,2
299,316,313,301,2
299,310,311,302,2
299,299,307,305,2
298,290,304,307,2
297,286,303,310,2
296,288,302,312,2
294,293,301,313,2
293,300,301,313,2
293,306,301,312,2
295,310,302,312,2
297,309,303,312,2
299,304,304,313,2
301,295,304,313,2
303,285,305,313,2
304,279,305,313,2
304,278,305,312,2
304,282,305,310,2
303,290,307,308,2
303,302,308,307,2
303,315,310,307,2
303,326,310,307,2
304,333,310,309,2
305,338,309,311,2
306,340,310,312,2
308,342,310,312,2
309,343,310,311,2
308,343,310,310,2
307,339,309,309,2
306,334,307,308,2
304,328,306,306,2
303,324,305,305,2
302,318,306,303,2
301,312,307,302,2
301,307,308,301,2
303,303,310,301,2
305,299,312,302,2
307,296,313,305,2
308,294,313,307,2
308,296,313,309,2
306,301,311,311,2
305,306,308,312,2
304,311,307,313,2
303,313,306,313,2
303,313,306,312,2
304,312,306,311,2
305,311,307,310,2
306,313,307,309,2
306,316,308,309,2
307,318,309,310,2
308,318,310,312,2
309,316,313,314,2
312,314,316,318,2
312,312,317,318,2
311,311,316,317,2
309,309,313,313,2
306,303,310,308,2
304,296,307,303,2
303,290,304,299,2
302,286,303,298,2
302,285,302,299,2
302,288,301,300,2
302,296,301,301,2
302,307,301,302,2
303,316,302,302,2
304,320,304,302,2
306,317,306,302,2
308,313,306,301,2
308,308,306,300,2
307,303,303,298,2
306,296,299,296,2
305,288,297,296,2
304,278,297,296,2
304,267,298,297,2
304,259,299,297,2
305,256,300,297,2
305,258,301,297,2
304,267,301,296,2
304,282,301,295,2
303,299,301,294,2
302,314,301,292,2
302,322,302,292,2
303,324,303,292,2
304,318,305,295,2
305,307,306,297,2
306,295,307,300,2
308,285,306,302,2
309,280,305,304,2
311,280,303,307,2
311,283,301,308,2
309,289,299,309,2
307,297,299,309,2
306,305,300,309,2
304,313,301,308,2
303,317,302,306,2
302,317,304,304,2
302,313,306,303,2
304,306,310,301,2
305,299,312,300,2
304,296,311,299,2
303,298,308,299,2
302,303,304,299,2
302,309,302,301,2
302,316,300,302,2
300,321,299,302,2
299,324,299,300,2
299,324,300,299,2
299,322,300,298,2
299,319,301,297,2
299,315,301,297,2
299,310,301,297,2
300,307,300,296,2
300,307,299,294,2
301,310,299,293,2
301,314,299,292,2
302,318,299,291,2
301,319,300,290,2
301,318,300,290,2
302,316,301,292,2
303,312,302,295,2
304,309,303,297,2
305,306,304,301,2
305,306,306,305,2
305,305,308,310,2
305,301,309,313,2
305,294,309,314,2
306,286,308,313,2
307,278,307,312,2
308,274,306,310,2
308,273,305,309,2
306,278,304,309,2
303,287,303,309,2
300,296,302,306,2
298,306,299,302,2
296,314,297,296,2
295,318,295,292,2
295,320,294,289,2
295,322,294,289,2
297,324,296,292,2
298,324,300,295,2
300,324,302,299,2
301,324,302,303,2
302,325,300,306,2
303,326,298,309,2
304,327,297,312,2
305,329,298,314,2
307,333,301,315,2
308,338,304,315,2
309,340,308,315,2
310,335,311,316,2
310,327,311,317,2
310,317,310,318,2
309,308,308,317,2
308,302,306,316,2
307,300,304,317,2
307,299,304,318,2
307,302,304,319,2
307,307,305,320,2
308,310,306,319,2
308,312,307,316,2
309,311,307,314,2
309,309,306,313,2
309,306,306,312,2
310,301,306,312,2
311,295,306,312,2
312,289,307,311,2
312,282,308,310,2
313,278,309,309,2
313,275,309,309,2
313,276,310,308,2
313,280,310,307,2
311,286,309,307,2
309,290,307,307,2
307,294,305,308,2
304,298,302,310,2
302,303,300,311,2
302,309,299,313,2
302,314,299,313,2
303,318,300,311,2
303,321,300,309,2
302,325,300,307,2
301,328,299,305,2
301,330,299,304,2
302,331,299,303,2
302,330,299,302,2
303,327,299,301,2
303,321,300,302,2
304,313,302,302,2
305,305,304,301,2
306,298,306,300,2
306,293,307,299,2
306,290,307,298,2
306,287,306,298,2
306,286,305,299,2
305,286,305,300,2
306,289,305,302,2
306,294,305,303,2
306,303,304,305,2
305,315,303,306,2
304,326,302,307,2
303,333,301,309,2
303,336,300,312,2
303,336,300,315,2
303,335,301,318,2
304,334,302,321,2
304,330,304,324,2
305,324,306,327,2
305,318,306,328,2
305,311,307,327,2
304,308,306,323,2
304,308,305,319,2
303,310,304,314,2
302,312,303,311,2
302,313,301,310,2
302,312,301,309,2
302,310,301,308,2
303,307,302,309,2
303,306,302,310,2
304,304,304,311,2
304,304,307,312,2
305,303,310,313,2
305,303,312,315,2
305,304,313,316,2
305,304,313,316,2
304,302,313,315,2
303,299,311,314,2
303,296,310,313,2
303,297,310,313,2
304,302,310,313,2
305,309,310,313,2
305,316,310,312,2
305,323,310,311,2
305,326,309,310,2
305,324,308,308,2
305,317,306,307,2
305,308,305,306,2
305,300,304,304,2
306,292,305,302,2
306,287,307,302,2
307,282,310,303,2
308,280,312,304,2
309,277,312,307,2
310,276,311,310,2
312,278,310,311,2
312,284,308,312,2
312,290,306,312,2
311,297,304,312,2
310,306,303,311,2
310,319,302,310,2
309,331,301,308,2
309,340,301,305,2
309,346,302,304,2
307,348,303,302,2
306,349,302,302,2
305,350,300,301,2
304,347,298,300,2
304,342,296,300,2
303,332,294,299,2
301,320,294,299,2
298,308,296,299,2
296,300,298,300,2
295,296,300,301,2
296,294,303,304,2
298,296,306,306,2
300,300,309,308,2
302,304,311,309,2
303,307,313,310,2
304,305,314,311,2
304,301,314,311,2
303,294,313,311,2
302,287,311,310,2
301,282,308,310,2
300,283,306,311,2
300,292,305,311,2
