307,290,305,307,2
306,297,304,307,2
305,298,304,308,2
305,295,304,309,2
305,292,303,309,2
305,289,303,310,2
304,291,303,310,2
304,299,302,311,2
303,312,301,311,2
302,324,300,311,2
301,333,299,311,2
300,336,299,311,2
300,331,300,311,2
301,322,300,310,2
303,312,301,310,2
305,304,302,311,2
306,300,302,311,2
308,300,302,311,2
307,303,302,310,2
306,307,302,310,2
303,311,302,309,2
302,314,302,309,2
301,315,302,308,2
301,314,302,307,2
300,314,301,306,2
299,315,300,304,2
299,317,300,303,2
298,320,298,301,2
298,322,297,299,2
297,323,296,297,2
298,324,295,297,2
299,321,297,297,2
300,316,299,299,2
301,309,302,302,2
302,305,305,307,2
304,302,308,312,2
305,300,310,313,2
306,300,311,314,2
306,303,311,314,2
306,309,311,314,2
305,316,310,313,2
305,320,308,311,2
304,321,306,309,2
303,320,304,308,2
303,315,303,307,2
304,308,302,308,2
304,300,303,308,2
305,292,304,308,2
306,286,307,307,2
308,284,310,307,2
309,288,313,308,2
310,296,314,310,2
310,304,316,312,2
309,310,316,311,2
307,314,314,310,2
305,315,311,309,2
304,314,308,308,2
303,311,306,308,2
304,308,305,308,2
305,306,304,309,2
306,307,304,311,2
307,309,305,312,2
307,316,306,313,2
307,324,306,314,2
307,330,306,316,2
306,330,307,317,2
307,324,307,318,2
307,316,307,319,2
307,308,308,319,2
308,299,308,317,2
309,291,309,315,2
310,282,309,313,2
310,276,310,311,2
310,274,310,309,2
309,273,311,308,2
309,276,311,306,2
308,283,310,306,2
307,294,310,306,2
307,304,309,307,2
308,310,309,307,2
308,312,308,308,2
309,312,308,309,2
309,308,308,309,2
309,305,307,308,2
309,302,306,306,2
309,301,305,303,2
309,300,304,300,2
308,300,303,297,2
307,300,304,295,2
306,298,305,294,2
304,295,307,296,2
303,294,308,298,2
304,294,309,302,2
305,293,310,305,2
306,292,310,307,2
307,291,309,308,2
308,288,309,308,2
308,281,310,306,2
307,274,309,305,2
307,268,310,306,2
307,267,311,306,2
307,271,311,306,2
306,284,311,307,2
305,303,309,308,2
304,325,307,309,2
302,345,306,309,2
302,359,306,310,2
302,368,307,311,2
303,370,309,311,2
304,364,310,310,2
304,355,311,310,2
305,345,312,309,2
305,336,312,309,2
306,329,311,310,2
307,323,311,311,2
307,315,311,310,2
307,306,311,309,2
307,300,311,308,2
308,297,311,307,2
309,295,310,306,2
309,295,310,306,2
309,295,310,307,2
308,296,310,308,2
308,297,309,308,2
308,297,309,309,2
307,299,309,309,2
307,303,310,310,2
307,307,310,311,2
308,307,311,311,2
309,306,312,311,2
309,302,312,310,2
309,301,312,308,2
308,301,312,306,2
308,304,311,304,2
308,309,311,303,2
308,313,310,301,2
307,315,310,299,2
306,316,309,297,2
306,316,309,296,2
306,316,309,296,2
306,317,308,297,2
307,318,308,298,2
308,319,308,299,2
309,318,308,301,2
310,316,308,302,2
310,314,308,304,2
309,312,308,306,2
309,311,308,307,2
307,311,307,309,2
306,312,307,309,2
305,311,305,308,2
305,310,304,306,2
304,308,302,303,2
304,304,300,301,2
304,300,298,299,2
304,298,297,299,2
304,296,298,298,2
305,294,300,299,2
307,293,302,301,2
308,293,304,304,2
310,291,305,307,2
311,292,306,309,2
311,297,305,311,2
310,307,304,313,2
309,317,304,313,2
307,325,304,313,2
306,330,305,313,2
306,334,307,313,2
306,336,310,314,2
307,337,311,315,2
307,334,312,315,2
308,325,311,315,2
308,317,311,315,2
308,308,310,315,2
309,300,309,313,2
309,292,309,313,2
310,285,310,313,2
310,278,310,313,2
310,273,310,314,2
310,271,309,314,2
308,275,308,313,2
307,282,306,311,2
305,288,306,310,2
304,295,305,310,2
303,304,304,310,2
303,312,304,312,2
303,320,304,313,2
303,326,305,315,2
303,330,307,315,2
303,334,308,315,2
302,335,309,315,2
300,335,309,314,2
299,336,309,313,2
299,337,308,312,2
300,337,306,311,2
302,336,306,311,2
303,333,305,310,2
304,327,305,308,2
304,321,304,307,2
304,315,304,306,2
304,309,304,306,2
305,303,305,307,2
306,296,305,306,2
306,289,305,306,2
307,282,305,305,2
307,275,305,304,2
308,272,306,305,2
308,272,306,306,2
308,276,306,307,2
307,285,306,308,2
307,296,305,309,2
306,307,304,310,2
304,316,302,311,2
303,322,301,311,2
303,325,300,311,2
302,325,300,311,2
301,322,301,311,2
300,318,302,309,2
299,313,303,307,2
298,309,302,305,2
297,306,301,303,2
297,303,301,302,2
297,299,301,302,2
298,294,303,304,2
300,287,306,306,2
303,281,309,310,2
305,275,311,312,2
308,272,313,315,2
310,275,314,316,2
310,281,314,316,2
309,289,313,316,2
307,300,312,315,2
304,310,310,314,2
302,319,308,313,2
301,324,307,312,2
302,329,307,312,2
303,332,308,313,2
304,333,309,313,2
304,334,310,313,2
304,332,310,312,2
304,326,310,312,2
304,317,309,311,2
304,307,309,310,2
304,297,309,310,2
305,291,310,309,2
306,289,310,309,2
305,291,310,308,2
304,296,310,307,2
304,303,310,307,2
303,310,310,306,2
303,316,310,307,2
302,320,310,307,2
302,321,309,306,2
302,321,308,305,2
301,322,307,305,2
301,323,307,305,2
300,325,307,305,2
300,325,307,306,2
299,326,307,307,2
299,325,308,308,2
299,324,309,309,2
300,322,310,310,2
301,319,311,311,2
301,316,312,313,2
303,313,312,314,2
303,309,313,314,2
304,302,313,314,2
305,296,312,314,2
305,289,312,314,2
306,280,311,313,2
306,269,310,312,2
307,260,310,311,2
306,253,310,309,2
305,252,311,308,2
305,259,312,307,2
304,273,314,306,2
303,292,315,306,2
302,312,315,307,2
302,327,314,307,2
302,335,314,308,2
302,337,313,308,2
302,335,313,307,2
302,330,313,306,2
302,323,313,304,2
302,316,312,303,2
302,309,310,302,2
303,301,309,301,2
303,295,307,300,2
304,291,307,300,2
305,291,307,301,2
307,292,308,302,2
307,294,310,304,2
309,298,311,306,2
309,302,312,310,2
310,309,312,312,2
310,316,312,314,2
310,325,312,314,2
310,332,312,312,2
308,335,311,309,2
308,336,312,306,2
309,334,312,303,2
310,330,312,301,2
310,325,312,300,2
310,321,312,299,2
310,318,312,299,2
309,317,311,299,2
308,319,310,300,2
307,319,309,301,2
306,319,308,301,2
305,317,307,300,2
305,315,306,300,2
304,313,307,301,2
306,311,308,302,2
307,307,309,303,2
308,302,310,304,2
309,296,311,306,2
310,290,311,307,2
311,286,312,308,2
311,284,313,309,2
312,285,312,309,2
311,289,311,309,2
310,297,310,308,2
309,306,310,307,2
308,313,310,306,2
308,320,311,306,2
308,323,311,307,2
307,323,311,307,2
307,319,311,309,2
306,315,311,311,2
306,312,310,312,2
305,309,308,312,2
305,307,306,312,2
306,302,305,313,2
306,294,303,311,2
306,284,302,310,2
306,275,302,308,2
306,269,303,307,2
306,265,306,307,2
307,266,308,307,2
308,269,310,308,2
308,273,312,308,2
308,279,312,308,2
309,284,312,309,2
309,289,311,309,2
309,294,311,309,2
308,298,311,309,2
308,302,311,310,2
308,307,311,311,2
308,313,311,312,2
309,317,311,313,2
309,322,311,313,2
309,325,310,312,2
310,324,309,311,2
311,321,308,310,2
311,316,307,308,2
311,312,306,306,2
311,309,306,305,2
310,307,305,304,2
310,308,305,304,2
309,310,305,304,2
308,312,305,304,2
306,310,306,304,2
305,306,305,303,2
304,302,305,302,2
304,298,305,302,2
304,298,304,302,2
303,300,302,301,2
303,303,301,301,2
302,305,301,301,2
303,304,302,300,2
303,302,304,301,2
304,299,305,303,2
305,297,307,306,2
306,296,308,308,2
307,295,309,310,2
308,294,310,310,2
308,294,310,310,2
308,296,309,310,2
307,299,310,310,2
307,303,310,311,2
307,306,310,311,2
307,309,310,311,2
307,313,311,311,2
308,315,311,312,2
308,314,312,311,2
307,310,311,311,2
306,305,310,310,2
305,299,309,310,2
304,293,308,310,2
305,288,306,310,2
306,287,306,311,2
306,289,305,311,2
306,293,303,309,2
306,298,302,308,2
305,304,301,307,2
305,310,300,305,2
305,315,300,303,2
305,317,299,301,2
304,316,301,301,2
304,314,302,301,2
305,313,305,302,2
306,314,308,304,2
307,315,311,305,2
307,317,312,306,2
307,317,312,308,2
307,314,313,309,2
308,308,313,309,2
309,301,314,310,2
310,298,314,312,2
310,300,314,313,2
309,304,313,313,2
309,307,311,313,2
308,309,309,313,2
307,309,308,312,2
306,309,306,311,2
305,310,305,310,2
304,312,304,309,2
304,315,303,309,2
303,316,303,310,2
303,316,303,309,2
303,317,303,308,2
303,316,304,308,2
303,312,304,307,2
303,307,304,306,2
304,302,304,307,2
303,296,303,308,2
303,292,301,308,2
302,291,299,308,2
302,293,298,308,2
303,296,299,308,2
304,299,301,309,2
306,301,305,311,2
308,303,309,315,2
309,303,311,317,2
309,301,313,318,2
309,298,313,318,2
307,295,313,316,2
306,294,311,314,2
305,292,310,312,2
305,291,309,311,2
305,291,309,310,2
306,295,309,310,2
306,302,309,311,2
306,312,310,311,2
306,320,311,312,2
306,325,311,313,2
306,326,312,313,2
305,324,312,313,2
305,322,313,314,2
306,319,313,314,2
306,315,312,315,2
306,312,311,315,2
306,309,310,314,2
307,308,309,313,2
307,305,308,312,2
307,302,307,309,2
306,298,307,308,2
306,293,308,307,2
307,288,310,307,2
307,287,312,307,2
307,287,313,307,2
306,289,314,307,2
306,292,313,307,2
306,294,313,308,2
306,295,313,308,2
306,297,312,308,2
306,299,312,309,2
307,301,312,310,2
307,303,312,312,2
308,307,313,314,2
308,313,313,315,2
308,318,313,314,2
307,323,313,312,2
306,326,312,310,2
306,327,311,307,2
306,325,312,305,2
305,322,311,304,2
304,318,311,302,2
304,313,311,300,2
305,305,311,300,2
306,297,312,300,2
308,290,313,301,2
309,286,314,301,2
310,283,315,302,2
310,285,314,302,2
310,291,313,302,2
310,301,312,303,2
311,311,310,304,2
311,320,309,304,2
311,326,308,304,2
310,331,307,304,2
310,334,306,304,2
310,336,306,302,2
309,335,305,301,2
307,330,304,300,2
306,318,304,300,2
305,305,304,300,2
305,296,306,301,2
305,292,309,302,2
306,292,311,304,2
307,296,313,306,2
308,303,312,308,2
309,311,312,310,2
309,316,311,310,2
309,319,311,311,2
309,320,311,312,2
309,321,312,313,2
309,323,312,314,2
310,324,313,315,2
310,323,313,315,2
310,320,313,315,2
310,316,313,315,2
309,312,314,315,2
309,308,314,316,2
308,303,313,315,2
307,301,313,315,2
307,300,312,314,2
306,304,310,314,2
305,307,309,313,2
304,311,308,313,2
304,313,307,313,2
303,312,307,312,2
304,307,308,312,2
304,301,312,312,2
305,293,315,312,2
307,287,318,311,2
307,281,319,310,2
307,279,319,309,2
307,280,319,310,2
307,283,318,310,2
305,286,318,310,2
304,292,316,309,2
302,301,315,309,2
302,310,314,309,2
302,317,313,309,2
301,318,313,307,2
301,315,311,306,2
300,310,309,305,2
300,305,308,304,2
300,302,307,304,2
301,302,306,303,2
301,305,305,303,2
301,311,304,303,2
301,315,303,304,2
301,314,303,305,2
302,308,303,307,2
303,299,303,309,2
305,289,304,310,2
306,282,305,311,2
307,279,307,312,2
308,280,308,313,2
309,286,309,314,2
310,293,310,315,2
310,299,310,315,2
310,302,309,313,2
309,302,308,311,2
308,301,306,309,2
307,300,304,306,2
305,302,302,305,2
304,306,301,304,2
304,311,301,304,2
303,319,303,306,2
303,328,306,308,2
304,334,310,310,2
305,338,313,313,2
305,339,313,316,2
306,339,314,318,2
306,337,314,318,2
305,333,312,318,2
304,329,311,317,2
304,326,309,317,2
304,319,307,316,2
304,312,306,317,2
305,307,306,318,2
306,303,305,318,2
306,300,305,318,2
306,297,305,316,2
305,293,306,313,2
305,289,307,309,2
305,284,308,306,2
305,283,309,303,2
306,284,309,302,2
306,291,310,301,2
305,302,311,302,2
305,316,312,303,2
305,327,313,304,2
305,333,313,305,2
305,330,312,305,2
305,323,312,305,2
305,314,313,306,2
306,304,313,306,2
308,295,313,307,2
310,289,313,308,2
310,287,313,309,2
310,288,313,310,2
309,292,312,310,2
308,297,311,310,2
306,304,310,310,2
305,309,308,309,2
304,310,307,308,2
305,309,307,307,2
305,306,307,308,2
306,303,307,308,2
307,302,307,307,2
308,302,308,307,2
308,304,308,305,2
307,309,309,304,2
306,314,308,303,2
306,319,308,302,2
306,322,307,302,2
306,324,307,303,2
306,323,307,304,2
307,320,307,304,2
307,316,307,304,2
307,311,306,305,2
307,308,306,305,2
307,307,306,306,2
307,305,305,306,2
308,304,306,307,2
308,304,306,307,2
309,303,307,308,2
311,301,307,308,2
312,298,308,308,2
312,298,309,308,2
312,298,309,308,2
311,298,308,308,2
309,298,307,307,2
307,299,305,307,2
305,300,303,305,2
304,301,301,303,2
304,302,299,302,2
303,303,297,300,2
303,303,297,299,2
302,301,298,298,2
303,299,300,298,2
303,299,302,300,2
304,300,304,302,2
304,301,305,303,2
304,300,305,302,2
303,299,305,301,2
302,298,305,301,2
302,298,305,300,2
301,300,305,299,2
302,300,305,299,2
304,299,304,299,2
305,297,305,300,2
307,295,305,301,2
309,293,305,303,2
310,293,305,305,2
310,294,304,307,2
311,295,303,308,2
311,297,303,309,2
311,299,303,310,2
311,300,304,311,2
310,301,306,312,2
308,302,307,312,2
307,305,308,313,2
305,308,309,313,2
304,311,308,313,2
303,312,308,313,2
303,308,308,311,2
303,301,308,310,2
304,292,309,310,2
305,282,309,310,2
306,272,309,310,2
307,265,310,310,2
307,262,310,309,2
308,266,309,308,2
308,274,309,308,2
307,286,307,307,2
307,297,306,306,2
306,306,305,306,2
305,314,304,305,2
305,320,303,306,2
305,323,303,306,2
305,324,302,307,2
306,322,301,307,2
306,319,301,307,2
306,318,301,307,2
306,317,301,307,2
306,316,301,306,2
306,317,302,307,2
306,317,302,309,2
306,315,303,311,2
306,312,304,314,2
307,308,305,316,2
308,305,305,316,2
309,305,306,317,2
309,308,306,316,2
309,310,306,314,2
308,311,305,312,2
308,313,303,310,2
307,314,302,309,2
306,313,300,307,2
306,313,298,306,2
305,313,297,305,2
304,316,295,303,2
303,319,293,302,2
301,320,292,301,2
300,317,293,300,2
301,311,296,301,2
302,301,298,302,2
304,288,301,303,2
306,274,303,304,2
307,262,304,304,2
308,254,305,304,2
308,254,305,305,2
308,259,306,307,2
308,269,305,307,2
306,282,304,307,2
304,295,301,306,2
302,307,299,305,2
301,315,298,305,2
301,319,297,305,2
300,322,296,305,2
300,325,296,305,2
300,327,296,305,2
300,330,296,303,2
300,334,296,301,2
301,338,296,300,2
302,339,296,299,2
302,336,297,300,2
303,327,297,302,2
304,315,297,304,2
304,306,298,305,2
305,301,298,306,2
305,300,300,306,2
304,300,302,307,2
304,300,305,307,2
304,300,306,308,2
304,301,307,309,2
304,302,308,310,2
304,305,308,311,2
305,310,307,312,2
306,314,307,313,2
306,317,308,312,2
306,316,307,312,2
306,314,307,311,2
306,311,307,310,2
306,305,307,309,2
305,298,307,307,2
305,292,307,305,2
305,285,306,303,2
305,280,307,302,2
306,278,307,302,2
306,278,308,301,2
307,281,307,301,2
307,287,307,301,2
306,296,307,302,2
306,304,307,302,2
305,310,306,302,2
305,313,306,302,2
305,315,307,301,2
306,314,308,300,2
307,310,309,301,2
308,306,309,302,2
309,299,309,303,2
309,289,308,302,2
309,279,306,302,2
310,272,305,301,2
311,272,303,301,2
310,281,302,300,2
308,292,300,299,2
304,308,298,299,2
301,326,297,299,2
299,341,297,299,2
298,350,297,300,2
298,355,299,302,2
299,355,300,305,2
300,352,302,308,2
301,349,304,310,2
302,344,304,312,2
302,338,304,312,2
302,333,303,312,2
303,328,303,312,2
303,324,303,311,2
303,321,303,311,2
303,318,302,310,2
303,315,302,310,2
303,313,302,309,2
302,309,302,308,2
302,306,303,308,2
302,304,303,308,2
302,302,304,308,2
302,300,304,308,2
302,299,304,308,2
302,298,303,309,2
303,296,302,309,2
304,292,302,309,2
305,286,303,309,2
307,279,303,307,2
308,274,303,306,2
308,271,302,304,2
308,272,301,303,2
308,277,299,301,2
306,284,297,299,2
305,289,297,297,2
304,292,297,296,2
305,292,300,297,2
307,293,304,297,2
308,296,307,298,2
308,303,308,299,2
307,311,307,299,2
306,319,306,299,2
304,324,304,300,2
303,328,303,300,2
302,331,302,301,2
300,330,301,301,2
300,328,301,302,2
300,324,300,303,2
301,318,300,304,2
303,311,300,305,2
303,306,301,306,2
304,303,301,307,2
305,299,301,309,2
306,295,301,310,2
306,292,301,311,2
307,291,300,311,2
307,293,300,312,2
307,296,301,311,2
307,300,301,310,2
307,305,301,309,2
306,311,301,308,2
307,318,302,307,2
307,322,302,306,2
308,321,302,306,2
309,317,303,305,2
309,311,303,305,2
310,305,303,305,2
310,299,304,306,2
310,296,304,307,2
310,294,305,310,2
310,294,306,312,2
310,293,306,313,2
309,293,306,311,2
307,293,304,309,2
306,294,302,306,2
305,297,300,303,2
304,302,298,301,2
303,310,297,300,2
303,314,296,299,2
303,316,297,299,2
304,316,299,299,2
305,315,303,301,2
307,315,305,305,2
308,315,307,308,2
309,313,309,310,2
308,311,309,311,2
308,308,307,311,2
307,301,305,312,2
307,293,303,311,2
307,285,301,310,2
307,282,300,309,2
307,283,300,307,2
307,289,301,306,2
305,299,302,305,2
304,312,304,305,2
303,325,305,305,2
302,335,304,306,2
301,341,304,306,2
301,341,304,306,2
302,339,304,306,2
304,335,303,307,2
306,332,304,309,2
308,329,304,310,2
308,326,304,310,2
309,323,304,309,2
308,322,303,308,2
308,320,303,307,2
308,318,302,306,2
307,314,302,306,2
307,309,302,306,2
307,303,302,306,2
307,298,302,306,2
306,296,302,305,2
306,295,301,305,2
306,298,301,305,2
306,302,301,304,2
305,306,302,304,2
305,309,302,304,2
306,311,302,304,2
306,312,303,304,2
307,311,303,304,2
307,311,303,303,2
308,311,303,303,2
308,310,304,304,2
308,309,304,305,2
308,307,305,305,2
307,304,305,306,2
306,299,305,305,2
305,294,304,304,2
304,290,303,303,2
303,289,301,303,2
303,291,299,302,2
302,296,298,300,2
302,301,297,298,2
302,302,298,296,2
303,302,300,295,2
304,299,303,297,2
305,294,305,299,2
306,286,307,301,2
307,279,307,302,2
307,273,307,302,2
307,271,307,303,2
307,271,306,304,2
307,275,306,305,2
307,280,305,306,2
307,285,305,307,2
307,288,306,309,2
307,291,306,309,2
307,294,306,310,2
307,299,306,310,2
306,304,306,309,2
305,310,306,308,2
304,314,305,308,2
304,318,305,308,2
305,320,304,308,2
305,319,303,308,2
306,318,304,308,2
308,318,306,308,2
309,319,309,309,2
311,320,312,309,2
312,322,314,309,2
313,323,315,310,2
312,321,314,310,2
311,318,313,310,2
310,315,312,310,2
308,314,311,310,2
307,313,311,311,2
307,309,311,311,2
307,304,310,312,2
307,298,310,312,2
308,296,309,313,2
307,295,308,313,2
307,297,306,314,2
307,301,306,315,2
306,307,306,316,2
306,312,306,317,2
306,319,306,318,2
306,324,306,318,2
306,328,306,317,2
307,330,306,317,2
308,329,306,316,2
309,326,307,316,2
310,322,308,316,2
311,316,308,317,2
312,309,309,317,2
312,302,309,317,2
311,293,309,316,2
310,288,309,315,2
309,286,308,314,2
309,290,308,313,2
309,298,308,312,2
308,305,307,311,2
307,311,307,309,2
308,315,307,309,2
308,317,306,308,2
307,318,306,307,2
306,320,304,306,2
306,323,303,306,2
305,326,303,307,2
305,329,303,307,2
305,332,303,308,2
305,333,303,310,2
306,333,303,311,2
307,330,303,312,2
307,327,303,312,2
307,323,303,313,2
306,319,303,313,2
306,316,302,313,2
305,312,302,312,2
305,307,301,310,2
305,302,300,308,2
305,298,299,307,2
305,294,299,306,2
305,291,300,306,2
307,288,301,306,2
307,287,303,305,2
307,289,304,306,2
308,292,304,307,2
309,296,304,310,2
310,299,305,311,2
310,303,305,313,2
310,309,306,314,2
310,314,306,316,2
309,316,306,317,2
308,316,306,317,2
307,314,306,317,2
306,313,307,317,2
306,313,307,317,2
306,313,308,316,2
306,313,308,315,2
306,312,308,313,2
306,312,307,311,2
307,312,307,311,2
307,312,306,309,2
307,312,306,308,2
306,309,305,307,2
306,305,305,306,2
306,299,305,306,2
307,293,305,306,2
307,289,305,306,2
308,291,305,306,2
309,296,304,307,2
308,304,304,306,2
308,312,304,307,2
308,319,304,307,2
308,325,305,307,2
307,325,306,307,2
307,321,308,308,2
308,312,310,308,2
308,301,310,308,2
309,291,309,307,2
309,284,308,306,2
310,282,308,305,2
310,286,307,305,2
309,296,305,305,2
309,310,306,305,2
308,322,307,306,2
307,327,309,307,2
307,328,310,308,2
307,326,312,309,2
307,323,313,311,2
307,321,312,312,2
307,319,311,312,2
307,318,310,313,2
306,316,309,313,2
307,313,309,314,2
307,310,310,315,2
308,307,310,315,2
309,304,310,314,2
309,304,310,312,2
309,306,309,309,2
308,308,308,306,2
307,310,308,304,2
307,311,308,304,2
308,312,307,304,2
308,313,306,305,2
308,313,305,305,2
308,313,304,305,2
309,314,303,304,2
308,314,301,303,2
306,313,299,302,2
305,312,297,300,2
303,310,296,299,2
303,310,297,298,2
303,311,299,299,2
305,314,301,301,2
305,318,303,304,2
306,321,305,306,2
306,322,306,308,2
306,321,306,308,2
306,319,306,308,2
305,316,306,309,2
306,313,305,309,2
306,310,305,310,2
307,309,306,311,2
307,308,306,312,2
307,305,305,312,2
306,300,305,311,2
305,294,304,310,2
305,288,304,309,2
305,283,303,309,2
305,282,303,309,2
306,285,303,308,2
306,293,303,308,2
306,303,303,308,2
306,310,304,309,2
307,315,304,310,2
307,319,305,311,2
307,320,305,312,2
306,321,304,312,2
306,320,303,312,2
305,318,303,311,2
304,315,303,310,2
304,311,303,310,2
303,307,304,310,2
303,302,304,310,2
304,298,304,310,2
304,295,303,310,2
305,292,302,311,2
305,288,301,311,2
305,287,301,310,2
305,288,302,310,2
306,290,303,310,2
306,293,305,310,2
306,297,305,312,2
306,302,304,312,2
306,306,304,311,2
306,310,303,309,2
305,312,302,306,2
304,313,301,304,2
302,310,301,303,2
302,304,302,302,2
303,296,303,303,2
304,285,304,304,2
305,275,305,304,2
306,269,306,304,2
306,268,306,304,2
305,275,305,305,2
304,288,304,306,2
302,302,303,307,2
301,314,303,308,2
300,324,302,309,2
299,331,302,311,2
299,335,302,311,2
299,337,302,312,2
299,338,303,312,2
299,337,303,312,2
299,335,304,311,2
299,333,304,311,2
300,329,304,310,2
300,325,304,309,2
301,320,302,307,2
302,314,301,305,2
303,308,301,304,2
304,303,302,303,2
305,301,305,305,2
307,299,308,308,2
309,295,312,311,2
309,289,315,314,2
309,284,316,316,2
309,281,316,317,2
309,275,315,317,2
308,269,314,317,2
308,263,311,317,2
307,261,309,317,2
307,262,308,317,2
307,264,308,317,2
307,268,307,315,2
307,277,306,314,2
307,291,305,314,2
307,308,304,313,2
306,323,302,312,2
305,333,301,311,2
305,339,300,311,2
304,342,300,310,2
304,343,301,309,2
304,342,304,309,2
304,339,307,310,2
304,334,310,311,2
304,329,312,311,2
304,324,312,311,2
304,321,313,311,2
304,319,312,311,2
305,317,311,311,2
306,315,310,311,2
307,313,309,311,2
307,312,309,311,2
307,311,308,311,2
306,309,308,310,2
306,306,308,310,2
306,303,309,309,2
306,300,310,309,2
307,299,311,308,2
307,298,311,307,2
308,296,309,306,2
307,293,306,305,2
307,291,303,305,2
307,290,302,305,2
307,289,301,306,2
308,288,304,307,2
310,287,308,307,2
311,286,312,307,2
312,285,314,307,2
312,284,315,306,2
311,281,315,305,2
310,277,315,305,2
308,273,312,305,2
307,271,309,306,2
306,273,305,306,2
306,281,303,307,2
306,292,302,307,2
306,303,301,307,2
305,312,299,306,2
304,318,298,305,2
303,318,297,304,2
302,317,297,303,2
301,314,297,302,2
302,310,298,302,2
302,307,299,301,2
303,307,300,302,2
304,310,300,302,2
305,314,301,303,2
305,317,301,304,2
305,319,300,304,2
304,320,300,304,2
304,320,298,303,2
304,320,296,302,2
304,320,295,300,2
304,320,294,299,2
304,319,295,298,2
305,315,297,298,2
307,311,300,300,2
309,307,303,303,2
311,303,306,307,2
312,300,308,309,2
313,301,309,311,2
313,305,310,311,2
312,311,310,311,2
311,320,310,311,2
309,327,310,312,2
308,328,308,313,2
308,322,307,314,2
308,314,307,314,2
309,304,308,314,2
311,296,310,314,2
312,289,312,314,2
314,281,313,313,2
315,275,312,312,2
315,273,311,311,2
315,275,309,310,2
314,278,308,309,2
313,282,306,308,2
311,288,304,307,2
309,296,303,307,2
306,303,301,308,2
305,307,300,310,2
303,304,299,312,2
303,296,300,313,2
304,285,301,314,2
306,272,303,314,2
307,262,306,313,2
308,256,309,312,2
308,258,310,310,2
308,267,310,309,2
309,280,309,309,2
310,293,309,307,2
310,305,309,306,2
309,318,307,306,2
308,329,306,306,2
306,337,306,308,2
305,342,306,310,2
305,341,307,312,2
306,334,308,313,2
306,323,309,312,2
307,312,310,311,2
307,302,310,309,2
308,299,309,308,2
308,302,307,307,2
307,311,306,307,2
305,322,305,308,2
303,331,305,309,2
303,339,304,310,2
302,344,304,311,2
302,347,304,313,2
302,346,305,314,2
302,343,306,313,2
303,337,307,312,2
303,330,307,310,2
303,323,306,307,2
302,315,304,305,2
302,308,302,303,2
302,301,299,302,2
303,296,296,301,2
303,292,295,301,2
304,290,296,302,2
304,291,297,303,2
304,293,300,306,2
305,295,304,309,2
306,298,307,310,2
306,304,310,311,2
307,307,311,312,2
307,308,311,311,2
308,307,312,310,2
307,306,312,308,2
306,307,312,307,2
306,308,312,307,2
305,305,311,306,2
304,299,312,306,2
303,295,312,307,2
302,290,312,307,2
301,287,312,306,2
301,286,312,306,2
302,291,311,306,2
302,300,310,307,2
301,310,309,307,2
302,321,308,308,2
302,331,308,309,2
302,338,307,309,2
302,340,306,308,2
302,338,306,307,2
304,334,306,306,2
305,329,306,305,2
307,323,306,305,2
308,319,306,305,2
309,316,306,305,2
309,315,306,304,2
309,313,305,304,2
308,310,304,303,2
307,304,303,302,2
306,299,302,301,2
305,296,301,301,2
305,297,301,302,2
304,299,301,303,2
303,300,301,305,2
302,301,301,305,2
302,300,301,306,2
303,299,302,307,2
303,299,302,307,2
304,300,302,307,2
305,301,301,306,2
306,300,300,305,2
306,297,299,303,2
307,292,297,302,2
306,287,297,301,2
306,282,297,300,2
306,280,299,300,2
306,280,301,303,2
306,283,303,306,2
307,286,305,309,2
306,290,306,310,2
306,292,306,311,2
305,295,306,312,2
304,297,307,313,2
303,300,307,313,2
302,305,306,313,2
302,309,307,313,2
303,313,308,313,2
303,315,308,312,2
303,316,308,311,2
303,317,307,310,2
303,318,307,310,2
303,319,307,310,2
302,321,307,310,2
302,322,307,310,2
302,323,307,312,2
303,322,307,313,2
304,320,308,314,2
305,317,307,314,2
306,313,307,314,2
306,309,307,314,2
307,304,307,313,2
307,298,307,313,2
308,289,308,313,2
309,281,308,314,2
309,277,309,316,2
309,277,310,317,2
308,282,310,317,2
307,290,310,316,2
305,301,308,314,2
304,313,307,313,2
303,322,306,312,2
301,329,305,312,2
300,334,305,312,2
299,336,305,312,2
300,336,305,312,2
300,334,305,312,2
301,330,305,312,2
302,323,305,312,2
303,316,306,312,2
304,308,307,312,2
305,301,308,313,2
305,295,309,313,2
305,292,309,313,2
305,294,308,313,2
304,298,307,313,2
303,305,306,313,2
301,311,305,313,2
299,317,304,313,2
298,321,304,313,2
297,322,304,313,2
297,320,305,314,2
298,318,306,314,2
298,315,306,315,2
299,313,306,316,2
301,313,306,317,2
302,314,306,317,2
303,315,306,317,2
303,314,306,317,2
304,312,306,316,2
305,310,306,316,2
305,307,305,314,2
305,304,304,312,2
305,302,302,310,2
304,301,300,309,2
304,302,298,307,2
303,303,297,305,2
302,305,296,303,2
302,307,297,303,2
302,309,299,304,2
303,308,302,306,2
304,306,305,310,2
306,302,307,313,2
307,298,309,316,2
307,296,310,318,2
307,296,313,319,2
307,297,315,319,2
306,300,316,320,2
306,304,317,320,2
305,307,317,319,2
304,310,316,318,2
304,311,314,317,2
304,310,313,316,2
304,307,312,315,2
304,302,311,314,2
305,296,311,313,2
306,291,312,313,2
307,290,313,312,2
308,292,313,312,2
308,295,314,311,2
308,301,316,309,2
308,309,316,308,2
306,316,316,307,2
304,321,314,307,2
302,322,312,307,2
301,322,309,308,2
300,321,308,310,2
300,319,307,311,2
301,318,308,312,2
301,317,308,313,2
302,315,308,313,2
302,312,308,313,2
302,306,308,313,2
303,299,308,312,2
305,291,308,312,2
306,284,308,310,2
308,279,308,309,2
309,279,309,309,2
309,283,309,310,2
309,289,310,310,2
309,297,310,311,2
308,305,310,311,2
306,313,310,311,2
305,319,310,311,2
304,324,309,311,2
303,327,309,312,2
304,327,309,312,2
304,326,310,312,2
304,323,310,313,2
304,320,310,312,2
303,316,309,311,2
303,311,309,309,2
302,305,309,306,2
303,299,310,305,2
303,293,312,304,2
304,289,312,304,2
304,287,313,304,2
304,289,313,304,2
303,291,313,305,2
302,297,314,306,2
302,301,314,307,2
302,304,314,308,2
302,301,314,308,2
303,295,314,309,2
303,289,313,309,2
304,285,312,309,2
304,286,309,309,2
304,288,307,309,2
302,293,304,308,2
301,299,303,306,2
300,305,302,305,2
299,308,302,305,2
299,312,303,306,2
299,316,305,309,2
300,322,305,312,2
300,328,305,315,2
301,333,305,316,2
300,334,305,317,2
300,333,304,318,2
299,330,304,318,2
299,324,306,317,2
299,315,308,317,2
300,305,311,317,2
300,296,312,316,2
301,289,312,314,2
302,286,313,313,2
303,287,312,311,2
303,291,312,310,2
302,297,311,309,2
302,302,310,307,2
302,305,309,306,2
302,306,307,304,2
301,305,307,303,2
300,306,306,302,2
299,307,306,302,2
298,308,306,302,2
299,307,306,304,2
299,304,307,305,2
299,299,308,306,2
300,296,310,307,2
302,292,313,308,2
304,290,315,308,2
306,289,315,309,2
308,288,315,309,2
309,289,314,310,2
310,293,313,311,2
309,301,312,312,2
308,311,311,312,2
307,320,309,313,2
305,328,309,313,2
303,334,309,313,2
302,335,309,313,2
301,333,308,312,2
301,328,307,311,2
301,323,306,310,2
302,319,305,310,2
302,317,304,309,2
302,315,303,307,2
302,313,302,305,2
303,312,302,302,2
304,309,302,299,2
304,306,302,297,2
304,303,301,296,2
303,302,301,296,2
302,300,300,297,2
301,299,299,299,2
301,296,298,301,2
301,293,299,304,2
302,290,301,306,2
303,288,303,308,2
303,288,305,309,2
303,292,305,309,2
302,300,305,308,2
302,308,304,308,2
303,314,304,307,2
305,315,304,306,2
305,313,304,305,2
306,308,303,304,2
306,302,302,302,2
306,298,301,302,2
306,298,301,302,2
306,300,302,302,2
306,302,303,303,2
307,301,306,305,2
308,298,309,309,2
308,294,311,314,2
309,292,313,318,2
310,291,314,319,2
309,291,314,319,2
308,292,314,316,2
307,293,312,314,2
307,294,312,312,2
307,292,312,311,2
308,288,312,309,2
308,285,312,307,2
307,287,311,305,2
306,295,310,303,2
304,306,309,301,2
304,316,309,302,2
304,325,309,303,2
304,331,308,305,2
304,334,307,307,2
304,334,307,308,2
305,331,308,308,2
305,326,309,308,2
306,322,310,309,2
307,319,311,309,2
307,315,311,309,2
306,313,310,307,2
305,312,308,306,2
304,311,307,304,2
304,311,306,302,2
303,310,306,301,2
304,309,306,300,2
304,308,306,300,2
304,308,307,300,2
304,309,308,300,2
304,310,308,301,2
304,312,308,301,2
304,314,309,301,2
305,315,309,301,2
305,316,308,300,2
306,317,309,300,2
306,317,309,301,2
306,316,309,301,2
305,311,309,304,2
305,303,309,306,2
306,293,310,309,2
306,280,310,310,2
307,265,310,310,2
307,251,310,310,2
307,243,309,308,2
307,242,308,306,2
306,248,306,304,2
305,260,305,302,2
304,278,303,302,2
303,301,302,302,2
301,320,301,302,2
300,334,300,302,2
299,341,300,301,2
299,342,302,301,2
299,340,306,300,2
299,334,308,299,2
300,325,310,298,2
302,314,309,296,2
303,304,309,295,2
305,296,308,294,2
307,292,308,293,2
309,291,308,291,2
309,295,309,290,2
308,302,309,291,2
306,312,311,296,2
305,320,312,302,2
306,326,313,308,2
306,328,315,313,2
307,328,315,316,2
309,326,316,319,2
310,324,316,320,2
311,322,316,320,2
311,321,316,319,2
309,321,316,318,2
308,321,315,317,2
306,321,314,315,2
306,320,313,314,2
306,317,313,313,2
306,313,312,312,2
307,307,313,311,2
308,301,313,309,2
310,296,315,308,2
311,293,315,306,2
311,292,315,304,2
311,292,314,302,2
311,295,312,302,2
311,297,311,301,2
311,299,309,302,2
309,298,307,302,2
307,294,304,303,2
306,288,303,304,2
305,281,301,305,2
303,276,300,305,2
302,275,300,306,2
302,278,301,307,2
302,286,304,308,2
302,297,306,308,2
302,308,308,309,2
302,315,309,309,2
303,316,309,309,2
303,312,310,309,2
304,304,309,309,2
304,294,309,309,2
305,286,309,309,2
306,282,309,309,2
306,281,308,309,2
306,285,307,309,2
306,295,306,309,2
306,309,306,309,2
305,326,305,310,2
304,341,305,310,2
303,351,305,311,2
303,356,305,312,2
303,354,305,312,2
303,350,305,312,2
303,342,305,310,2
303,335,306,308,2
303,327,306,305,2
304,321,305,302,2
304,314,304,300,2
304,308,302,299,2
303,302,301,298,2
304,298,300,298,2
304,295,300,298,2
305,293,301,299,2
306,292,303,301,2
308,295,304,304,2
308,298,306,306,2
308,302,307,307,2
309,303,307,306,2
309,302,307,305,2
309,301,306,304,2
309,301,306,304,2
308,302,304,303,2
307,301,304,303,2
307,300,304,303,2
307,299,304,304,2
307,301,304,303,2
308,303,304,302,2
308,306,304,301,2
308,309,304,302,2
309,312,305,303,2
309,316,306,305,2
309,319,306,307,2
309,320,307,307,2
310,320,307,307,2
310,318,307,306,2
310,317,307,306,2
311,315,308,306,2
311,312,308,306,2
311,308,308,305,2
311,303,308,305,2
311,297,308,305,2
311,292,309,304,2
311,287,309,305,2
311,284,309,305,2
311,279,309,305,2
310,276,308,305,2
311,275,308,306,2
311,274,309,306,2
312,273,309,306,2
313,274,309,306,2
313,277,309,306,2
313,286,308,306,2
311,299,307,306,2
309,312,306,305,2
307,323,305,305,2
307,329,304,305,2
307,331,304,304,2
307,330,304,304,2
308,327,305,303,2
308,323,306,301,2
308,318,306,300,2
308,312,307,299,2
309,310,308,299,2
309,309,308,300,2
310,308,308,301,2
311,305,307,302,2
311,300,307,304,2
312,294,307,307,2
314,285,307,309,2
315,277,307,310,2
315,271,306,309,2
314,270,304,307,2
313,275,303,305,2
311,286,302,303,2
309,298,302,301,2
308,307,303,300,2
307,313,303,298,2
305,316,304,296,2
305,317,305,294,2
305,317,306,294,2
306,318,308,296,2
307,318,309,298,2
307,317,309,299,2
307,314,310,301,2
306,311,310,302,2
306,305,311,302,2
306,298,311,302,2
306,290,312,303,2
307,285,312,303,2
308,283,312,303,2
309,287,312,304,2
310,294,312,306,2
311,303,311,306,2
311,312,311,307,2
311,320,311,307,2
311,326,311,306,2
312,329,311,305,2
312,329,310,305,2
312,328,309,304,2
312,325,308,303,2
311,322,307,303,2
311,320,307,303,2
312,319,307,304,2
312,322,307,304,2
312,326,308,304,2
312,330,308,304,2
312,330,309,304,2
313,328,309,304,2
315,324,309,304,2
316,318,309,303,2
317,313,308,303,2
317,306,308,302,2
317,299,306,300,2
315,294,305,298,2
314,292,304,297,2
313,294,304,297,2
313,298,304,298,2
314,305,305,300,2
316,314,306,302,2
317,319,307,303,2
316,320,307,303,2
314,316,307,302,2
312,309,308,302,2
310,302,308,303,2
309,299,309,305,2
308,299,309,308,2
307,303,309,311,2
306,308,307,312,2
304,313,305,313,2
304,319,303,313,2
305,322,302,312,2
307,323,301,311,2
309,321,301,308,2
311,319,300,306,2
313,317,299,304,2
315,315,300,304,2
317,314,302,303,2
319,313,306,302,2
321,314,309,303,2
322,314,311,304,2
324,313,312,305,2
325,312,313,305,2
321,310,311,305,2
312,307,308,302,2
302,303,304,299,2
294,301,301,296,2
289,300,301,295,2
287,299,302,294,2
288,297,303,295,2
290,296,305,297,2
293,297,305,299,2
294,299,305,300,2
295,302,304,300,2
296,304,304,299,2
296,305,304,299,2
297,304,305,299,2
298,304,305,300,2
300,304,306,301,2
300,306,307,301,2
301,307,307,302,2
302,308,307,303,2
303,308,308,303,2
304,306,308,303,2
305,302,309,303,2
306,298,309,303,2
308,293,309,303,2
309,289,309,304,2
310,288,309,304,2
311,291,310,304,2
312,298,310,305,2
313,306,310,306,2
312,313,310,305,2
311,317,310,304,2
309,318,311,303,2
307,318,311,302,2
307,316,311,302,2
306,314,312,303,2
307,311,313,304,2
308,306,313,304,2
308,303,313,303,2
308,301,312,302,2
307,300,312,301,2
307,301,311,300,2
306,302,311,299,2
306,300,310,300,2
306,296,310,299,2
307,287,310,299,2
308,276,311,298,2
310,265,311,298,2
312,257,311,298,2
313,254,312,299,2
315,253,313,300,2
318,256,314,301,2
320,265,316,303,2
320,276,317,304,2
320,288,317,305,2
316,300,314,305,2
312,312,310,304,2
309,321,305,302,2
305,327,300,301,2
302,328,298,299,2
300,326,297,299,2
299,325,299,299,2
299,325,302,299,2
300,327,306,301,2
301,329,309,304,2
302,330,312,308,2
304,331,314,312,2
305,329,314,314,2
305,324,313,315,2
305,319,312,314,2
304,319,310,314,2
304,321,309,314,2
305,323,308,313,2
305,325,308,313,2
306,327,308,313,2
307,330,308,313,2
309,332,309,313,2
310,333,309,312,2
311,334,308,311,2
311,333,308,310,2
310,331,308,308,2
309,328,307,307,2
308,324,307,307,2
307,321,307,307,2
306,318,307,307,2
305,314,307,307,2
305,312,307,307,2
304,311,307,307,2
304,311,306,307,2
303,311,305,307,2
303,312,304,307,2
303,312,304,307,2
303,310,305,307,2
303,307,305,308,2
304,304,306,308,2
305,301,307,309,2
306,298,308,309,2
306,296,309,308,2
307,294,309,308,2
307,295,310,308,2
308,297,311,308,2
308,298,312,309,2
309,296,313,309,2
310,291,313,309,2
310,286,311,308,2
309,280,310,307,2
310,276,309,307,2
311,275,309,307,2
312,280,308,307,2
311,287,307,307,2
311,292,306,307,2
309,293,305,307,2
308,292,304,307,2
307,290,304,308,2
308,289,304,308,2
308,289,305,308,2
307,292,304,307,2
306,297,302,305,2
304,305,299,303,2
302,313,295,301,2
301,319,293,299,2
301,322,291,298,2
301,323,290,298,2
302,324,290,299,2
303,324,291,302,2
304,325,294,304,2
304,326,297,308,2
304,326,301,312,2
305,325,303,316,2
306,321,307,319,2
307,316,310,321,2
309,311,312,322,2
310,308,313,322,2
311,305,312,322,2
311,302,311,320,2
311,302,309,317,2
311,307,308,315,2
310,313,308,314,2
309,318,307,313,2
309,319,307,313,2
308,320,306,313,2
307,321,305,313,2
306,321,305,314,2
306,320,305,315,2
306,315,306,315,2
307,307,306,315,2
307,299,306,316,2
308,291,307,316,2
308,284,307,316,2
307,279,307,315,2
307,279,307,314,2
308,283,306,311,2
308,288,306,309,2
309,292,306,306,2
310,295,307,304,2
310,298,307,302,2
310,301,307,301,2
309,304,307,301,2
308,306,306,302,2
306,308,305,304,2
303,311,304,306,2
301,314,303,308,2
300,317,302,310,2
299,322,302,311,2
299,325,303,312,2
300,327,305,312,2
300,326,306,312,2
301,324,307,312,2
302,321,308,312,2
303,319,309,312,2
303,316,309,310,2
302,312,309,308,2
303,310,308,307,2
302,309,307,305,2
302,308,307,304,2
303,307,306,303,2
303,303,306,303,2
303,299,306,304,2
304,293,306,305,2
305,286,306,306,2
305,281,306,306,2
305,280,306,306,2
304,281,306,307,2
304,283,306,308,2
303,288,307,309,2
303,296,306,310,2
302,305,306,311,2
302,316,305,312,2
302,324,304,312,2
302,330,304,313,2
302,331,304,313,2
303,329,304,313,2
304,323,304,312,2
304,315,304,311,2
303,308,302,309,2
303,304,301,308,2
302,304,301,307,2
302,307,302,307,2
302,314,305,309,2
303,321,308,312,2
303,327,309,316,2
303,329,310,318,2
304,329,311,320,2
305,326,311,319,2
305,322,311,319,2
306,318,311,317,2
308,313,310,315,2
309,308,309,313,2
309,304,309,312,2
309,302,308,310,2
308,299,308,309,2
308,298,307,307,2
308,298,307,306,2
308,300,307,306,2
308,301,307,307,2
308,302,307,308,2
308,300,307,308,2
307,300,307,308,2
306,301,306,309,2
306,303,306,311,2
307,306,306,313,2
308,309,307,314,2
309,310,307,315,2
309,310,308,316,2
309,309,309,315,2
308,307,308,312,2
307,305,308,309,2
307,304,308,307,2
307,305,308,306,2
306,308,307,305,2
304,311,306,304,2
303,313,305,304,2
302,312,305,304,2
302,309,305,305,2
302,306,306,306,2
303,303,306,307,2
304,302,306,308,2
305,300,306,309,2
306,299,305,309,2
305,298,305,308,2
304,296,304,307,2
303,294,303,306,2
301,294,303,305,2
301,296,303,305,2
300,302,303,306,2
300,308,303,306,2
299,312,303,305,2
298,314,303,305,2
298,312,304,306,2
299,305,305,307,2
300,296,306,307,2
301,288,307,307,2
302,283,307,307,2
303,283,306,307,2
303,289,305,306,2
303,300,304,305,2
303,309,303,304,2
303,317,303,304,2
303,323,303,304,2
304,326,305,304,2
304,329,308,305,2
305,329,310,305,2
305,327,312,307,2
305,322,311,309,2
304,316,310,312,2
304,310,308,313,2
304,304,306,315,2
303,302,304,317,2
303,304,304,318,2
302,308,305,318,2
302,311,306,317,2
302,313,309,316,2
302,313,312,313,2
302,312,313,311,2
302,314,313,309,2
303,315,312,308,2
303,318,312,307,2
303,321,311,307,2
302,324,309,308,2
303,326,308,309,2
302,325,308,309,2
302,320,307,309,2
301,314,306,309,2
301,307,306,308,2
301,302,307,308,2
303,297,308,308,2
304,295,309,309,2
306,296,310,310,2
306,301,310,311,2
306,307,310,312,2
307,311,309,312,2
308,313,308,312,2
308,316,307,311,2
308,319,307,310,2
308,321,306,309,2
307,323,306,308,2
306,324,306,307,2
305,323,306,306,2
306,321,305,306,2
306,317,305,305,2
306,314,305,304,2
306,313,304,304,2
306,313,305,304,2
307,314,305,304,2
307,314,305,305,2
307,314,305,306,2
306,314,305,306,2
305,313,305,307,2
305,313,305,308,2
305,311,305,309,2
305,308,305,308,2
305,304,305,307,2
305,298,305,306,2
306,292,306,305,2
307,284,306,305,2
308,278,307,304,2
310,275,308,304,2
312,274,309,305,2
312,276,309,306,2
312,279,309,306,2
312,286,308,306,2
310,294,306,305,2
309,302,304,303,2
308,307,303,303,2
308,308,302,303,2
307,307,301,303,2
307,307,302,304,2
306,307,304,306,2
306,308,307,309,2
307,311,310,313,2
308,312,313,317,2
309,311,314,319,2
308,308,315,320,2
307,308,314,320,2
306,311,313,320,2
306,316,312,319,2
306,319,311,319,2
306,320,310,318,2
306,317,309,318,2
306,314,309,318,2
307,309,308,318,2
307,306,307,318,2
307,306,307,319,2
308,309,308,319,2
307,313,309,318,2
306,315,310,318,2
306,317,312,317,2
305,318,312,316,2
305,319,312,316,2
305,318,312,315,2
305,315,312,315,2
306,312,311,313,2
306,311,311,312,2
306,313,311,310,2
306,315,310,308,2
306,318,309,307,2
305,320,308,306,2
304,321,307,305,2
304,323,307,305,2
303,325,306,305,2
303,327,307,305,2
303,328,308,305,2
302,327,309,305,2
302,326,310,305,2
302,325,311,306,2
303,322,310,306,2
303,318,309,306,2
302,313,307,306,2
303,308,306,306,2
303,301,304,306,2
304,294,304,306,2
305,287,304,306,2
306,282,305,306,2
306,277,305,306,2
306,273,306,305,2
306,273,306,305,2
306,275,307,305,2
306,279,307,306,2
307,285,308,306,2
307,293,308,307,2
307,302,308,308,2
307,311,308,309,2
306,318,307,308,2
305,321,306,307,2
303,322,306,305,2
303,323,305,304,2
302,324,305,303,2
303,324,305,303,2
304,322,305,304,2
304,321,305,305,2
304,318,306,306,2
304,314,306,306,2
305,308,306,306,2
306,302,306,306,2
306,299,305,305,2
307,300,303,304,2
305,306,300,301,2
303,312,298,298,2
301,316,296,297,2
301,318,297,297,2
301,319,299,299,2
302,319,303,304,2
304,320,306,311,2
306,320,309,316,2
308,320,310,320,2
309,320,311,322,2
308,320,311,322,2
308,318,310,322,2
308,317,309,321,2
307,317,308,319,2
306,316,308,317,2
305,315,307,314,2
305,312,307,312,2
306,307,308,309,2
306,300,308,307,2
307,291,308,306,2
308,281,309,305,2
309,272,310,306,2
311,267,311,307,2
312,268,311,308,2
311,274,311,309,2
311,284,310,309,2
308,296,309,308,2
306,307,307,307,2
304,314,305,305,2
301,317,303,304,2
300,317,302,303,2
300,315,302,303,2
301,313,302,304,2
302,313,303,304,2
303,316,303,305,2
304,319,303,305,2
304,321,303,305,2
303,321,303,303,2
303,320,304,303,2
304,320,306,302,2
304,320,307,302,2
304,321,308,303,2
305,321,307,303,2
305,321,307,303,2
306,323,307,304,2
306,323,308,304,2
305,317,308,303,2
305,310,308,302,2
305,304,309,301,2
305,299,311,302,2
306,297,312,303,2
307,297,313,304,2
308,297,313,305,2
308,299,312,306,2
308,301,310,307,2
308,305,308,308,2
307,308,306,308,2
307,312,305,308,2
307,314,305,308,2
307,316,305,308,2
307,316,305,309,2
307,314,306,310,2
308,312,306,311,2
309,308,307,312,2
309,303,307,312,2
308,299,307,311,2
308,296,306,308,2
306,297,305,306,2
306,301,303,304,2
305,305,301,303,2
304,308,300,302,2
303,310,299,300,2
302,311,300,299,2
303,311,301,300,2
304,309,303,302,2
306,308,304,304,2
306,307,305,306,2
307,304,305,306,2
307,300,305,304,2
306,294,304,302,2
305,290,304,300,2
305,291,304,299,2
305,297,304,299,2
305,305,304,299,2
305,313,304,299,2
305,318,304,299,2
305,321,303,300,2
306,322,303,300,2
307,323,304,301,2
309,321,305,303,2
310,317,307,305,2
311,310,307,308,2
312,301,308,308,2
312,293,308,309,2
311,286,308,308,2
311,283,307,308,2
310,285,306,307,2
309,291,305,307,2
308,298,304,306,2
307,305,303,307,2
307,310,302,307,2
308,314,300,308,2
308,315,299,309,2
309,314,297,309,2
309,309,297,310,2
309,304,297,309,2
309,299,299,309,2
310,298,301,309,2
310,300,305,309,2
310,306,307,309,2
309,313,308,309,2
307,319,307,308,2
306,322,306,307,2
304,321,304,306,2
303,318,302,305,2
304,312,302,305,2
305,305,302,305,2
306,296,302,304,2
307,286,302,303,2
308,279,302,303,2
308,276,302,302,2
309,279,302,302,2
310,287,301,303,2
310,296,301,303,2
310,304,300,303,2
310,312,300,303,2
309,317,300,303,2
308,319,299,303,2
308,319,300,303,2
309,318,300,303,2
311,314,300,304,2
311,311,300,303,2
312,308,300,303,2
310,306,299,302,2
309,305,299,303,2
309,305,299,304,2
310,304,300,305,2
309,303,301,306,2
309,301,302,307,2
308,301,301,307,2
307,305,301,305,2
307,310,300,304,2
306,315,300,304,2
307,317,300,305,2
307,317,300,305,2
308,313,301,305,2
308,309,302,305,2
309,305,303,305,2
309,301,304,306,2
310,298,305,307,2
310,296,305,307,2
310,296,305,307,2
310,297,305,307,2
309,299,304,307,2
308,303,303,307,2
307,307,303,307,2
306,311,302,305,2
305,312,301,304,2
304,311,301,303,2
305,306,300,301,2
305,299,299,300,2
306,292,299,300,2
307,285,299,301,2
308,281,299,301,2
308,279,299,301,2
308,282,299,299,2
307,292,299,299,2
306,306,299,298,2
305,319,299,299,2
305,329,299,299,2
305,334,299,300,2
305,333,300,301,2
305,329,301,302,2
305,325,301,304,2
306,320,301,305,2
306,317,300,307,2
307,316,300,308,2
307,314,300,309,2
307,311,302,309,2
308,307,304,310,2
308,304,306,310,2
309,303,307,310,2
308,305,306,309,2
307,308,306,309,2
306,313,306,309,2
306,317,306,309,2
306,321,306,309,2
306,324,307,309,2
306,324,307,308,2
306,321,306,307,2
305,317,306,305,2
305,313,306,305,2
305,309,307,305,2
306,306,308,305,2
306,304,309,306,2
306,302,309,306,2
306,302,309,307,2
306,301,308,306,2
306,300,307,305,2
305,298,306,304,2
304,294,305,303,2
304,290,304,302,2
304,288,303,302,2
304,286,302,303,2
304,285,302,304,2
305,287,304,305,2
305,292,306,306,2
305,298,307,308,2
305,302,308,311,2
305,302,309,313,2
306,297,310,314,2
307,289,310,315,2
307,280,311,315,2
308,273,311,315,2
309,270,311,314,2
309,273,309,313,2
308,283,308,313,2
307,296,306,313,2
306,307,305,312,2
306,318,305,313,2
306,325,306,312,2
305,329,306,311,2
304,330,308,309,2
304,328,309,308,2
304,321,310,307,2
304,313,308,306,2
305,303,307,306,2
306,294,307,306,2
307,285,307,306,2
308,281,307,307,2
308,281,307,307,2
307,285,307,306,2
306,289,306,305,2
305,295,305,305,2
305,302,304,305,2
304,310,304,306,2
304,317,303,307,2
304,324,302,309,2
303,328,301,310,2
303,330,300,310,2
303,330,299,310,2
302,331,298,309,2
302,330,297,308,2
301,330,298,307,2
301,328,299,307,2
301,326,301,307,2
301,323,304,307,2
301,319,305,308,2
301,315,306,308,2
301,309,306,309,2
302,304,306,309,2
303,298,306,310,2
303,294,307,310,2
304,291,307,309,2
304,292,307,309,2
304,297,308,309,2
305,303,308,309,2
305,310,309,309,2
305,315,309,308,2
306,318,309,308,2
306,319,309,308,2
306,318,309,307,2
307,315,310,305,2
306,310,310,305,2
306,304,311,304,2
306,301,311,305,2
306,299,311,305,2
306,300,311,307,2
307,303,310,308,2
306,307,311,308,2
306,311,311,308,2
306,313,310,308,2
306,313,310,307,2
306,308,309,306,2
306,298,308,304,2
306,285,306,303,2
306,273,305,301,2
307,265,304,300,2
307,263,304,299,2
308,270,305,299,2
309,281,307,300,2
309,292,309,302,2
309,300,310,303,2
310,304,310,305,2
310,305,310,306,2
310,306,310,307,2
310,310,309,308,2
309,318,308,309,2
308,327,307,310,2
307,333,306,310,2
306,336,305,309,2
306,336,304,308,2
306,334,303,307,2
306,331,303,305,2
307,328,303,303,2
308,325,303,302,2
309,322,304,302,2
311,320,305,303,2
311,318,306,306,2
312,318,307,307,2
312,318,308,308,2
311,317,308,308,2
311,316,308,307,2
311,314,308,307,2
312,311,307,307,2
312,306,306,308,2
312,302,306,308,2
313,297,306,309,2
313,295,306,310,2
313,295,306,311,2
311,298,306,311,2
310,303,306,311,2
309,309,306,312,2
308,315,305,312,2
307,320,305,311,2
305,324,304,312,2
304,326,304,312,2
304,326,303,312,2
304,324,303,311,2
304,320,303,311,2
305,316,303,310,2
305,310,302,308,2
305,303,302,306,2
305,295,301,304,2
304,290,302,304,2
305,289,302,304,2
305,292,302,305,2
306,299,302,306,2
306,306,302,307,2
305,313,301,308,2
305,318,301,309,2
304,320,301,309,2
304,318,302,309,2
303,312,304,308,2
304,301,307,307,2
305,286,310,306,2
306,272,312,306,2
307,261,313,306,2
308,257,313,306,2
309,262,313,306,2
308,275,312,306,2
307,293,310,305,2
304,312,307,305,2
302,328,305,304,2
300,339,304,304,2
300,345,303,305,2
300,346,302,305,2
300,344,301,305,2
300,341,299,304,2
300,336,298,302,2
300,331,298,300,2
300,326,299,299,2
301,323,302,299,2
302,320,304,301,2
303,316,305,303,2
303,311,306,305,2
304,304,306,306,2
305,296,306,306,2
305,287,307,305,2
307,280,308,305,2
308,277,310,304,2
309,279,312,304,2
311,285,314,304,2
312,294,315,304,2
312,304,315,304,2
312,315,315,304,2
311,325,313,304,2
309,332,311,304,2
308,336,309,303,2
308,337,307,304,2
308,336,306,304,2
308,333,305,304,2
309,329,304,303,2
309,324,303,303,2
309,317,302,302,2
308,311,301,302,2
308,306,300,301,2
307,302,301,301,2
307,300,301,300,2
307,300,302,300,2
307,300,303,300,2
307,298,304,300,2
308,296,303,300,2
308,294,304,301,2
308,293,303,302,2
308,293,303,303,2
308,293,303,304,2
308,293,303,304,2
308,296,303,305,2
308,297,303,305,2
307,298,303,305,2
307,300,302,304,2
307,303,302,304,2
308,306,302,305,2
310,309,302,306,2
311,310,302,305,2
313,310,301,304,2
314,311,301,303,2
315,310,300,302,2
316,307,298,301,2
317,303,297,300,2
317,297,296,300,2
316,292,295,301,2
316,286,295,301,2
316,280,296,302,2
315,276,297,302,2
315,274,300,304,2
314,276,303,305,2
314,278,305,307,2
314,284,306,308,2
314,293,306,308,2
313,304,305,308,2
312,316,303,306,2
309,326,300,305,2
307,333,298,302,2
306,335,295,300,2
306,332,292,298,2
305,326,291,296,2
306,318,292,295,2
307,310,294,294,2
309,302,297,296,2
310,295,300,298,2
312,292,302,302,2
313,292,303,304,2
313,291,303,305,2
313,290,303,305,2
313,289,304,306,2
313,288,304,307,2
313,286,305,307,2
313,282,304,307,2
312,283,305,307,2
312,286,305,306,2
312,292,305,305,2
311,298,305,304,2
310,306,305,304,2
310,314,305,304,2
309,319,304,303,2
308,321,303,302,2
307,321,302,301,2
307,321,302,300,2
307,321,302,299,2
307,321,302,298,2
307,322,303,298,2
307,323,303,299,2
307,322,304,299,2
307,319,304,300,2
307,312,304,300,2
307,303,304,300,2
307,295,304,301,2
308,288,304,301,2
308,283,304,300,2
309,281,304,300,2
308,284,303,299,2
308,292,302,299,2
307,301,301,298,2
306,310,301,298,2
306,315,301,299,2
305,317,301,299,2
306,315,302,301,2
306,310,303,302,2
307,302,305,303,2
308,294,306,303,2
308,289,306,302,2
309,287,306,301,2
308,289,305,299,2
307,292,304,298,2
306,296,304,298,2
306,301,304,300,2
306,307,305,302,2
306,312,305,303,2
306,316,305,305,2
306,317,305,306,2
305,315,305,306,2
305,310,305,306,2
305,303,304,305,2
306,296,304,303,2
307,291,303,301,2
307,288,302,299,2
308,287,301,298,2
307,289,300,296,2
307,292,299,295,2
306,298,300,295,2
306,303,302,296,2
307,309,304,299,2
309,312,306,302,2
310,315,307,304,2
311,317,308,306,2
311,318,307,307,2
311,318,307,307,2
311,316,306,308,2
311,314,305,308,2
310,312,304,309,2
310,309,305,310,2
310,307,306,311,2
309,305,308,312,2
308,303,310,312,2
308,300,311,312,2
307,297,311,311,2
307,294,310,310,2
307,292,309,308,2
308,289,309,308,2
308,285,308,307,2
308,281,308,307,2
309,276,308,306,2
310,273,309,307,2
311,273,309,307,2
311,275,308,307,2
310,281,308,306,2
309,286,308,306,2
308,288,308,304,2
309,285,308,303,2
309,281,308,301,2
310,278,308,301,2
311,278,309,302,2
312,281,309,303,2
313,290,310,304,2
312,303,310,305,2
310,314,310,306,2
309,322,310,305,2
308,325,309,304,2
306,324,308,302,2
304,323,305,301,2
304,322,304,301,2
304,321,303,301,2
305,320,303,302,2
306,318,303,304,2
307,317,303,306,2
308,316,304,308,2
309,316,304,310,2
310,314,304,310,2
310,313,304,310,2
310,310,305,309,2
311,306,305,308,2
312,302,306,307,2
314,299,307,307,2
315,298,307,307,2
314,300,307,307,2
314,301,307,308,2
313,299,308,308,2
313,295,308,308,2
312,290,308,309,2
312,287,308,309,2
311,288,307,309,2
310,293,306,309,2
308,301,304,309,2
306,310,302,308,2
306,318,301,308,2
306,325,300,308,2
306,328,298,308,2
305,328,297,307,2
304,325,296,307,2
303,320,296,306,2
302,312,297,306,2
302,303,299,306,2
303,296,301,306,2
303,293,302,307,2
304,293,303,309,2
304,297,304,311,2
305,301,304,313,2
306,307,304,314,2
307,311,303,315,2
306,315,302,314,2
305,318,301,314,2
304,321,301,313,2
302,324,301,312,2
301,326,303,311,2
301,326,306,309,2
301,323,308,307,2
301,316,310,307,2
301,308,311,308,2
301,301,311,308,2
301,296,312,308,2
302,292,313,308,2
302,288,314,308,2
303,287,314,308,2
304,287,315,308,2
305,289,315,307,2
306,293,315,307,2
306,298,315,307,2
307,306,315,307,2
306,315,314,308,2
305,322,313,308,2
304,326,313,308,2
303,328,313,309,2
302,327,313,311,2
302,326,314,311,2
302,325,315,311,2
302,322,316,310,2
304,319,316,309,2
304,314,317,308,2
305,309,318,308,2
306,305,317,308,2
307,302,317,309,2
307,301,316,309,2
307,302,315,310,2
307,302,314,311,2
307,302,314,311,2
307,303,314,312,2
307,305,314,313,2
308,307,314,314,2
309,309,314,313,2
309,311,314,312,2
308,313,315,310,2
308,313,315,309,2
308,311,316,307,2
308,307,316,306,2
308,304,315,306,2
308,303,315,306,2
307,304,313,306,2
307,307,312,307,2
306,310,311,308,2
306,313,310,307,2
306,314,309,306,2
305,317,306,304,2
304,320,304,303,2
302,322,301,300,2
301,320,298,297,2
300,315,298,295,2
300,311,300,294,2
302,307,304,294,2
304,305,309,296,2
306,305,313,299,2
308,307,316,302,2
310,312,317,305,2
310,317,316,306,2
310,319,315,306,2
310,319,314,307,2
309,317,314,308,2
309,314,313,308,2
308,312,313,307,2
307,312,313,306,2
306,313,313,305,2
305,314,313,304,2
305,315,313,304,2
305,315,312,304,2
304,315,313,305,2
304,314,312,305,2
304,312,312,305,2
304,309,312,305,2
304,306,311,304,2
303,302,311,303,2
303,298,310,302,2
303,298,310,301,2
303,301,309,301,2
303,304,309,301,2
303,304,308,302,2
303,303,308,303,2
303,299,309,304,2
303,296,309,305,2
303,295,309,307,2
303,298,309,310,2
303,302,308,311,2
302,306,308,312,2
303,313,307,312,2
304,319,306,311,2
305,324,307,310,2
306,326,308,308,2
308,326,309,306,2
309,323,310,305,2
310,317,310,304,2
310,310,310,304,2
310,301,308,304,2
309,294,306,304,2
309,291,306,307,2
310,289,305,309,2
310,288,306,310,2
309,290,307,311,2
308,296,307,311,2
307,302,307,311,2
305,307,307,311,2
304,309,306,310,2
303,307,305,309,2
302,305,305,309,2
301,301,304,309,2
301,298,304,309,2
300,296,304,309,2
300,297,304,308,2
299,301,303,308,2
299,305,303,308,2
298,308,302,308,2
299,311,303,307,2
299,315,303,307,2
299,319,302,306,2
299,322,302,304,2
299,324,302,302,2
300,325,301,301,2
301,324,301,301,2
302,321,301,301,2
303,315,301,301,2
303,310,300,301,2
303,306,299,301,2
303,304,299,301,2
302,303,299,302,2
302,304,300,302,2
302,308,301,305,2
302,313,302,308,2
302,315,302,310,2
302,314,302,312,2
302,312,301,312,2
303,310,301,312,2
303,309,301,311,2
304,309,300,310,2
304,310,300,310,2
304,312,299,311,2
304,312,300,312,2
304,311,299,312,2
304,307,300,314,2
305,302,300,315,2
305,297,301,315,2
305,295,301,316,2
305,295,301,316,2
304,299,301,316,2
304,304,301,315,2
305,309,303,314,2
305,313,305,313,2
306,316,307,312,2
307,316,309,310,2
308,313,310,310,2
308,309,311,309,2
309,303,312,309,2
309,298,312,309,2
309,292,311,308,2
308,287,310,306,2
307,287,308,306,2
306,292,307,305,2
305,300,306,305,2
304,307,306,305,2
303,314,306,305,2
302,320,306,306,2
302,324,307,307,2
302,325,307,308,2
302,322,306,308,2
302,318,306,308,2
303,311,305,308,2
303,302,305,306,2
304,294,305,305,2
305,289,305,304,2
304,288,305,304,2
304,290,305,305,2
303,295,304,305,2
303,302,303,306,2
303,309,302,306,2
303,314,302,307,2
304,317,303,307,2
305,318,304,307,2
306,318,305,308,2
308,317,307,309,2
310,316,309,310,2
310,316,310,311,2
311,315,311,312,2
310,313,311,313,2
310,310,311,313,2
309,305,311,314,2
308,302,310,315,2
308,301,310,315,2
307,303,309,314,2
307,308,307,312,2
306,314,304,309,2
304,318,300,306,2
303,320,297,304,2
302,320,296,302,2
301,318,296,302,2
302,316,298,304,2
303,314,301,308,2
304,311,304,312,2
305,309,305,315,2
305,308,306,317,2
305,310,305,317,2
304,310,305,317,2
305,310,304,316,2
305,309,303,315,2
306,308,302,314,2
307,310,302,314,2
307,310,302,313,2
308,307,301,312,2
309,300,300,311,2
310,291,300,311,2
311,281,301,312,2
312,275,303,313,2
312,273,306,313,2
312,278,310,314,2
310,290,313,315,2
308,303,313,314,2
304,311,313,313,2
302,316,312,311,2
300,319,310,310,2
300,321,309,309,2
301,324,308,309,2
301,327,307,309,2
302,330,306,308,2
303,332,306,309,2
303,332,305,309,2
303,328,304,310,2
303,322,304,310,2
303,313,304,310,2
304,302,304,309,2
304,292,305,308,2
305,283,306,306,2
306,278,307,305,2
306,278,308,304,2
306,282,308,304,2
305,290,306,304,2
304,300,305,304,2
303,309,304,304,2
302,315,303,304,2
301,318,303,304,2
300,319,302,304,2
300,320,302,303,2
301,320,302,303,2
302,320,302,303,2
302,320,302,302,2
303,320,302,302,2
304,321,302,303,2
304,320,302,303,2
304,319,303,304,2
305,317,304,304,2
305,315,304,305,2
305,312,305,305,2
305,309,305,305,2
305,305,305,306,2
306,302,305,307,2
306,300,304,307,2
306,298,304,307,2
306,295,304,307,2
306,293,305,307,2
306,292,306,308,2
307,292,306,309,2
308,295,306,310,2
308,298,306,310,2
309,302,306,310,2
309,304,307,309,2
309,305,307,308,2
308,308,306,307,2
307,311,303,306,2
306,314,301,304,2
304,317,299,303,2
303,319,298,302,2
302,317,299,302,2
301,311,300,303,2
300,303,302,306,2
301,291,303,309,2
302,279,304,310,2
303,268,306,311,2
304,261,306,311,2
305,259,307,312,2
306,263,307,312,2
305,270,307,312,2
305,282,307,313,2
306,297,307,314,2
305,311,306,315,2
305,323,306,315,2
304,331,305,315,2
303,340,304,316,2
303,349,302,315,2
303,356,301,315,2
303,361,301,314,2
303,361,300,314,2
304,357,299,313,2
304,352,299,312,2
304,346,300,311,2
303,341,301,310,2
303,336,303,310,2
304,333,306,311,2
304,330,309,311,2
305,328,309,311,2
306,326,310,311,2
306,325,310,311,2
306,324,309,312,2
306,323,308,313,2
306,322,308,313,2
306,319,309,314,2
307,313,309,314,2
308,308,309,314,2
309,304,309,314,2
310,299,309,315,2
311,295,309,315,2
311,290,310,315,2
312,285,311,315,2
313,280,311,314,2
313,277,311,313,2
314,274,311,310,2
313,275,309,307,2
311,279,308,306,2
310,287,307,305,2
309,295,305,304,2
308,299,304,305,2
307,299,304,305,2
306,298,305,305,2
306,299,306,305,2
306,300,307,305,2
306,302,309,304,2
306,308,309,303,2
304,316,308,303,2
303,324,307,303,2
301,329,305,303,2
300,329,302,303,2
300,327,300,302,2
299,322,297,300,2
299,315,295,299,2
299,307,294,298,2
299,299,294,297,2
299,293,295,296,2
300,289,296,297,2
301,287,298,298,2
302,288,301,301,2
303,292,302,304,2
304,301,303,307,2
304,311,303,309,2
304,319,303,310,2
303,323,303,311,2
303,326,303,311,2
303,326,303,311,2
303,325,304,312,2
304,323,304,313,2
304,321,304,313,2
305,318,303,314,2
305,315,303,314,2
305,313,302,315,2
306,310,302,315,2
306,308,302,314,2
306,307,301,312,2
308,306,301,311,2
308,305,302,310,2
308,304,302,309,2
308,301,302,308,2
307,296,302,308,2
307,286,302,308,2
307,272,302,308,2
308,256,303,308,2
309,240,304,308,2
310,224,305,307,2
310,210,306,306,2
310,202,306,305,2
310,203,306,303,2
310,209,305,302,2
310,222,303,301,2
309,239,301,300,2
307,260,298,297,2
305,287,295,296,2
304,314,293,296,2
303,337,293,296,2
302,356,294,297,2
303,368,297,297,2
303,376,300,299,2
303,380,301,300,2
302,380,302,302,2
303,376,303,305,2
303,370,304,308,2
304,364,305,311,2
304,356,306,314,2
305,348,306,315,2
304,340,306,316,2
304,334,306,316,2
305,328,305,316,2
305,323,306,315,2
306,318,305,314,2
306,315,305,313,2
306,312,304,311,2
306,310,304,309,2
307,308,304,308,2
308,306,304,307,2
308,305,304,306,2
308,303,302,306,2
307,302,302,305,2
307,300,300,305,2
307,297,298,304,2
308,292,298,304,2
308,285,298,304,2
308,278,300,304,2
308,272,302,305,2
309,269,305,308,2
310,269,308,312,2
311,272,310,316,2
312,276,311,319,2
312,279,311,320,2
312,281,311,320,2
312,283,310,318,2
311,286,310,317,2
310,289,310,314,2
309,292,308,312,2
309,297,306,310,2
309,306,304,309,2
308,316,303,309,2
308,322,302,308,2
307,325,302,308,2
306,325,302,308,2
306,322,303,308,2
306,320,304,308,2
306,320,304,309,2
305,322,304,308,2
304,323,303,309,2
304,323,303,309,2
303,321,303,309,2
303,318,303,310,2
304,315,303,310,2
304,312,303,310,2
305,310,303,310,2
306,309,303,309,2
306,310,303,308,2
306,310,303,309,2
306,311,303,309,2
306,310,303,309,2
306,310,303,309,2
306,307,303,310,2
307,303,303,309,2
308,297,304,309,2
308,288,304,308,2
309,278,305,307,2
309,268,305,307,2
310,261,306,306,2
310,257,305,305,2
309,259,304,304,2
309,265,303,303,2
308,274,301,303,2
308,286,300,304,2
307,298,298,305,2
306,307,297,305,2
305,312,296,304,2
304,314,297,304,2
304,316,299,304,2
304,320,302,305,2
303,323,304,305,2
303,325,306,306,2
302,326,306,307,2
302,327,307,308,2
302,328,307,309,2
302,329,307,310,2
302,329,307,310,2
303,328,308,311,2
303,326,307,310,2
303,322,307,309,2
303,316,306,308,2
303,307,306,306,2
303,296,306,304,2
303,286,305,302,2
304,276,305,301,2
304,270,306,301,2
305,270,306,301,2
306,277,306,302,2
305,288,307,303,2
304,301,307,304,2
304,314,308,305,2
303,324,308,306,2
302,330,308,307,2
302,333,307,308,2
302,334,307,310,2
302,332,306,310,2
302,328,304,310,2
302,323,304,309,2
302,320,304,310,2
303,319,306,309,2
303,319,307,309,2
303,319,308,310,2
303,320,309,311,2
303,320,310,312,2
304,321,310,312,2
304,321,310,312,2
305,320,311,311,2
305,318,311,309,2
306,316,311,307,2
306,312,312,305,2
307,307,313,304,2
308,302,314,303,2
310,297,314,303,2
311,292,315,304,2
312,291,315,304,2
312,292,315,304,2
311,296,315,305,2
310,299,314,307,2
308,303,314,307,2
307,307,313,307,2
305,312,311,308,2
305,314,310,309,2
304,313,310,309,2
304,309,311,309,2
304,304,311,309,2
305,298,311,309,2
306,293,311,310,2
306,289,311,309,2
306,287,311,309,2
306,286,310,309,2
305,286,310,307,2
304,285,310,306,2
304,283,310,306,2
304,281,311,305,2
305,281,312,305,2
305,286,313,306,2
305,292,313,306,2
305,298,314,306,2
305,300,313,305,2
304,302,313,306,2
303,307,312,305,2
303,313,311,305,2
303,321,311,303,2
303,331,309,302,2
303,338,308,300,2
303,341,307,299,2
303,339,307,300,2
304,332,307,301,2
306,322,307,301,2
307,313,308,301,2
308,305,307,302,2
309,300,307,302,2
310,299,305,302,2
308,300,304,302,2
307,304,303,302,2
306,309,302,301,2
305,315,302,300,2
304,322,303,299,2
303,326,304,297,2
302,328,305,296,2
302,328,306,297,2
303,326,308,299,2
304,323,310,302,2
305,319,312,305,2
306,314,312,307,2
307,310,312,309,2
308,306,312,309,2
309,302,312,309,2
310,301,312,309,2
311,302,313,309,2
310,306,313,309,2
310,311,313,308,2
310,314,312,307,2
309,315,311,306,2
308,315,310,306,2
307,315,309,305,2
307,312,309,304,2
308,309,310,304,2
309,305,311,305,2
311,302,311,305,2
312,301,311,305,2
312,301,310,305,2
311,304,309,305,2
310,308,309,305,2
309,313,308,305,2
309,316,307,305,2
308,317,307,305,2
308,316,307,306,2
307,313,307,307,2
308,309,308,307,2
308,305,309,308,2
309,299,309,308,2
310,291,310,308,2
311,282,311,307,2
311,270,312,307,2
312,259,313,307,2
313,252,314,307,2
314,250,314,308,2
313,257,314,310,2
311,272,313,311,2
309,291,312,311,2
306,308,310,311,2
305,321,308,310,2
304,330,307,309,2
303,335,306,308,2
303,336,305,307,2
304,334,305,306,2
305,329,304,306,2
306,321,304,306,2
307,311,304,306,2
308,302,305,305,2
308,295,307,306,2
309,291,309,306,2
308,293,312,305,2
307,297,313,305,2
306,304,313,305,2
305,313,312,305,2
304,322,312,305,2
304,326,313,305,2
304,325,312,305,2
304,321,312,305,2
304,317,311,305,2
303,315,310,304,2
304,315,309,304,2
303,315,307,303,2
303,315,306,301,2
302,316,305,300,2
300,318,303,300,2
299,318,302,300,2
299,316,301,301,2
299,313,303,301,2
300,311,304,302,2
301,310,307,303,2
302,311,310,305,2
304,312,312,308,2
305,312,313,310,2
307,310,313,311,2
308,307,313,312,2
309,305,313,312,2
309,303,312,312,2
309,302,311,313,2
309,302,311,313,2
309,302,310,313,2
308,303,309,311,2
306,304,307,309,2
304,304,306,308,2
303,303,306,307,2
302,300,305,307,2
302,295,305,306,2
301,288,305,305,2
301,279,304,305,2
303,270,305,306,2
304,263,305,305,2
305,263,305,305,2
307,268,305,304,2
307,277,303,302,2
307,290,302,301,2
306,304,302,300,2
306,317,302,300,2
306,327,302,300,2
306,333,302,301,2
307,336,302,302,2
307,336,302,301,2
306,334,301,301,2
306,331,301,300,2
306,327,301,300,2
307,324,302,300,2
308,321,302,301,2
307,319,304,302,2
307,318,304,303,2
307,318,304,304,2
306,318,304,305,2
306,318,303,306,2
307,317,304,307,2
307,316,305,308,2
307,314,307,310,2
308,313,307,312,2
308,313,307,313,2
308,311,307,312,2
307,307,306,312,2
306,305,305,310,2
304,304,304,308,2
303,307,303,307,2
302,310,302,306,2
301,312,302,306,2
301,312,301,306,2
301,309,301,305,2
301,306,302,305,2
302,303,303,306,2
302,301,304,306,2
302,297,307,306,2
302,292,309,306,2
303,286,311,305,2
303,281,311,304,2
303,279,311,303,2
303,280,312,302,2
303,283,312,301,2
303,288,311,301,2
303,291,310,300,2
303,294,307,299,2
303,294,304,298,2
303,294,302,296,2
303,294,301,295,2
304,296,301,296,2
304,300,302,297,2
304,304,304,301,2
304,309,307,305,2
305,312,308,310,2
305,313,309,314,2
305,313,310,316,2
305,316,310,316,2
304,320,309,315,2
304,324,309,314,2
304,328,309,313,2
304,330,309,312,2
304,329,309,312,2
305,324,309,312,2
306,317,309,312,2
307,310,309,311,2
308,304,309,310,2
307,299,308,308,2
307,298,308,306,2
306,301,308,305,2
305,306,307,304,2
305,310,306,304,2
305,311,306,303,2
305,310,306,302,2
305,308,307,303,2
305,305,307,303,2
304,304,308,303,2
304,302,308,303,2
303,299,309,302,2
303,294,309,302,2
304,288,309,303,2
305,280,309,303,2
306,272,309,304,2
307,265,309,305,2
307,263,309,305,2
307,270,307,305,2
305,284,306,305,2
304,299,305,305,2
303,311,305,305,2
302,318,305,304,2
302,319,304,304,2
303,314,304,304,2
304,307,305,305,2
305,300,307,307,2
307,297,308,309,2
308,298,310,312,2
308,303,311,313,2
307,310,310,313,2
306,316,309,313,2
304,321,308,314,2
303,324,306,314,2
301,328,306,314,2
300,332,306,314,2
299,336,307,315,2
299,337,309,315,2
300,337,311,316,2
300,336,312,316,2
300,332,313,315,2
300,326,312,314,2
301,318,312,313,2
302,309,311,312,2
303,299,310,311,2
304,290,310,310,2
305,282,310,309,2
306,278,310,309,2
307,279,309,309,2
306,283,308,307,2
306,291,307,305,2
305,300,305,303,2
303,307,303,300,2
302,309,302,299,2
302,306,303,298,2
303,302,305,297,2
304,300,308,299,2
305,302,311,302,2
307,308,313,305,2
308,313,313,309,2
308,317,312,312,2
308,320,310,314,2
307,323,308,316,2
306,324,306,317,2
305,324,305,317,2
304,323,304,317,2
304,322,303,316,2
304,320,303,315,2
305,318,302,314,2
305,315,302,313,2
305,313,301,312,2
305,311,301,312,2
306,307,302,311,2
307,303,302,309,2
308,298,302,309,2
309,293,302,308,2
309,288,302,308,2
311,284,302,309,2
312,281,302,309,2
314,281,302,309,2
314,283,302,309,2
314,288,301,308,2
314,293,301,308,2
314,297,302,307,2
314,300,302,307,2
314,301,302,307,2
315,300,302,308,2
314,298,302,309,2
314,293,302,309,2
314,290,302,308,2
313,290,301,307,2
312,296,301,307,2
312,308,300,306,2
310,320,300,307,2
309,329,300,307,2
309,334,300,307,2
308,338,300,307,2
308,339,301,307,2
307,339,302,308,2
306,336,302,308,2
305,331,301,308,2
305,325,300,309,2
305,320,301,308,2
306,315,301,309,2
307,312,301,310,2
308,309,302,311,2
308,309,303,310,2
307,308,303,309,2
306,307,303,308,2
305,304,303,306,2
304,302,303,305,2
304,299,303,305,2
305,296,305,306,2
307,292,306,307,2
308,285,306,308,2
309,278,305,308,2
308,274,303,307,2
307,275,301,306,2
306,280,298,304,2
305,287,297,304,2
305,297,296,304,2
306,307,297,305,2
306,317,299,306,2
306,324,301,307,2
307,328,302,308,2
308,329,304,308,2
308,329,304,308,2
308,328,305,309,2
309,326,306,310,2
309,325,308,310,2
308,324,309,310,2
309,323,310,309,2
309,321,309,308,2
309,318,309,307,2
309,314,308,306,2
309,309,307,305,2
311,301,306,304,2
312,293,305,304,2
313,286,304,304,2
313,280,304,304,2
313,277,304,305,2
313,277,303,305,2
313,282,303,306,2
312,291,302,307,2
311,301,303,308,2
310,310,305,309,2
309,318,307,310,2
308,323,309,310,2
307,326,310,310,2
307,326,310,310,2
307,325,311,309,2
308,322,311,310,2
309,318,312,311,2
311,314,313,312,2
312,312,313,313,2
312,311,312,312,2
312,311,311,311,2
311,312,310,309,2
310,312,308,307,2
309,311,308,305,2
309,311,307,304,2
308,312,307,303,2
309,313,307,303,2
309,314,306,303,2
309,314,306,303,2
308,313,305,303,2
307,311,304,302,2
306,310,303,302,2
306,309,303,302,2
307,309,304,302,2
307,308,304,303,2
307,304,305,304,2
308,298,305,305,2
308,288,305,306,2
309,274,304,306,2
310,262,304,306,2
311,253,305,307,2
312,249,306,306,2
312,251,306,306,2
313,259,306,306,2
312,272,306,307,2
311,290,305,307,2
310,307,303,307,2
308,320,301,305,2
305,328,299,304,2
304,330,297,303,2
302,328,296,302,2
301,323,296,302,2
301,318,297,303,2
301,311,299,305,2
303,305,302,308,2
305,302,304,311,2
306,301,306,313,2
307,302,307,314,2
309,303,308,316,2
310,303,309,316,2
311,303,310,316,2
311,303,311,316,2
312,305,312,315,2
312,306,312,314,2
311,308,311,312,2
310,310,311,311,2
308,313,310,311,2
307,315,309,310,2
306,316,309,309,2
305,315,309,308,2
305,314,309,307,2
305,312,309,306,2
305,308,309,304,2
305,304,308,302,2
305,300,308,301,2
306,296,308,300,2
306,293,308,300,2
307,291,308,300,2
308,292,307,301,2
308,295,305,302,2
308,299,304,302,2
307,301,303,304,2
307,301,301,305,2
306,298,301,306,2
306,295,300,306,2
306,293,302,306,2
306,294,305,307,2
305,300,308,306,2
303,307,310,306,2
301,315,310,306,2
300,319,310,306,2
300,319,310,307,2
299,316,310,308,2
300,312,311,310,2
301,309,312,311,2
302,309,313,312,2
302,312,314,313,2
303,318,314,313,2
303,325,315,314,2
303,329,313,314,2
302,330,311,314,2
301,328,309,313,2
301,324,308,313,2
302,320,307,312,2
302,314,307,311,2
303,309,306,311,2
303,303,307,311,2
303,299,306,312,2
303,296,307,312,2
304,295,307,313,2
304,294,307,313,2
304,295,307,312,2
305,296,308,312,2
306,297,308,311,2
307,298,308,309,2
308,297,308,308,2
307,299,306,305,2
306,301,304,304,2
306,302,301,302,2
305,302,299,301,2
305,302,297,301,2
305,301,296,301,2
306,303,295,302,2
306,306,297,303,2
306,310,299,306,2
307,314,303,310,2
308,315,306,315,2
309,313,308,317,2
309,307,309,318,2
309,299,308,318,2
309,290,308,317,2
309,283,308,315,2
309,282,307,314,2
309,284,307,314,2
309,290,307,313,2
308,296,307,313,2
308,300,307,313,2
308,300,308,314,2
307,299,308,314,2
308,296,308,314,2
307,295,307,313,2
306,298,305,311,2
304,303,302,310,2
303,306,300,309,2
302,307,300,309,2
301,307,300,309,2
301,307,302,310,2
302,310,305,311,2
302,315,307,312,2
302,320,308,313,2
302,323,308,313,2
301,322,307,312,2
301,318,307,312,2
300,312,306,311,2
300,304,306,311,2
301,296,306,311,2
301,290,306,310,2
302,287,307,310,2
303,285,307,310,2
303,289,308,309,2
303,298,308,309,2
302,309,308,310,2
302,319,308,311,2
302,325,308,312,2
302,329,308,313,2
303,331,307,314,2
302,330,306,314,2
302,328,306,315,2
301,324,305,316,2
301,320,305,316,2
302,316,304,316,2
302,313,304,315,2
302,309,304,312,2
302,309,303,310,2
303,308,303,309,2
304,307,303,308,2
305,304,304,308,2
305,300,304,308,2
306,294,304,309,2
306,288,305,310,2
307,282,305,310,2
308,279,305,312,2
309,279,305,313,2
309,285,305,313,2
308,295,305,313,2
307,306,304,312,2
306,318,302,310,2
305,327,301,308,2
304,334,299,305,2
302,336,297,303,2
301,335,296,302,2
300,330,296,301,2
299,323,296,301,2
300,316,298,302,2
301,308,301,303,2
303,301,304,304,2
305,296,306,306,2
307,293,308,308,2
308,292,308,309,2
309,290,309,311,2
310,288,309,313,2
310,290,309,314,2
309,295,309,315,2
308,299,308,315,2
307,303,307,314,2
305,305,306,314,2
303,307,306,314,2
303,307,306,314,2
304,308,305,314,2
305,308,305,314,2
306,309,306,313,2
308,310,306,312,2
308,312,306,310,2
309,315,306,308,2
308,318,305,305,2
307,322,304,304,2
305,326,303,303,2
305,328,302,304,2
305,328,302,305,2
306,327,304,307,2
307,325,307,310,2
308,321,309,311,2
307,315,310,311,2
306,309,310,310,2
304,306,309,308,2
303,304,308,308,2
303,303,307,307,2
303,304,307,307,2
303,307,306,307,2
303,311,306,308,2
303,314,306,309,2
302,316,307,309,2
302,318,307,309,2
302,319,308,310,2
302,320,308,310,2
303,319,309,309,2
303,317,309,308,2
304,314,308,307,2
304,311,306,305,2
303,307,304,303,2
302,304,302,303,2
301,302,300,302,2
301,299,298,301,2
301,295,297,300,2
302,290,297,298,2
303,285,299,297,2
305,281,302,297,2
307,276,305,299,2
309,272,308,301,2
310,271,310,304,2
311,277,310,306,2
310,288,310,307,2
309,300,309,309,2
307,313,307,310,2
305,322,306,310,2
304,325,306,310,2
303,322,306,309,2
303,315,306,309,2
303,306,307,308,2
304,299,307,309,2
303,293,307,310,2
304,291,307,311,2
304,296,307,312,2
305,306,306,312,2
305,315,306,312,2
304,322,306,310,2
304,326,305,308,2
303,328,304,306,2
302,326,303,305,2
302,320,303,304,2
304,311,303,304,2
305,299,303,304,2
307,287,304,304,2
308,276,305,304,2
308,269,307,304,2
308,267,308,305,2
307,272,308,307,2
306,280,308,308,2
303,290,307,309,2
302,299,306,308,2
300,309,305,308,2
299,320,303,307,2
298,330,302,307,2
298,336,301,307,2
298,340,301,308,2
298,341,301,309,2
299,342,301,310,2
299,341,301,310,2
300,339,301,309,2
301,338,300,309,2
301,336,300,307,2
301,334,301,307,2
301,330,302,308,2
301,326,304,308,2
302,322,307,309,2
302,318,309,310,2
304,312,311,312,2
305,305,313,313,2
306,297,314,314,2
306,291,314,314,2
306,287,314,313,2
305,288,314,311,2
305,291,313,310,2
304,294,313,309,2
303,296,311,309,2
302,298,310,308,2
302,300,310,308,2
301,304,311,309,2
301,309,311,309,2
300,315,310,310,2
300,322,309,309,2
299,326,308,307,2
298,328,305,305,2
298,327,302,303,2
299,324,299,300,2
299,316,296,297,2
299,306,295,295,2
300,294,295,295,2
301,284,297,296,2
303,277,300,297,2
305,274,304,301,2
306,277,307,305,2
307,285,309,308,2
305,295,309,310,2
304,304,309,310,2
302,310,309,310,2
300,312,308,309,2
300,312,308,310,2
300,312,308,311,2
302,313,309,313,2
302,314,310,315,2
303,314,311,316,2
304,314,311,316,2
304,314,312,315,2
305,312,312,313,2
305,310,311,312,2
305,309,310,310,2
304,309,310,308,2
304,309,309,307,2
304,311,308,307,2
303,311,307,307,2
303,309,308,307,2
304,305,309,307,2
304,302,310,307,2
305,301,310,307,2
306,300,310,306,2
306,299,309,305,2
306,299,307,304,2
305,300,305,303,2
305,302,303,303,2
304,303,301,303,2
303,305,300,302,2
302,307,299,303,2
301,310,299,304,2
302,312,300,306,2
302,312,302,306,2
304,309,305,307,2
305,305,309,307,2
307,300,313,307,2
308,294,315,308,2
310,291,316,310,2
311,291,317,311,2
312,296,317,313,2
311,303,316,314,2
310,311,314,314,2
308,316,312,315,2
308,317,311,316,2
307,316,310,317,2
307,313,310,316,2
307,311,310,315,2
307,310,309,313,2
307,307,308,310,2
307,303,306,308,2
307,297,305,306,2
306,292,303,305,2
305,290,303,305,2
305,290,303,305,2
305,292,304,306,2
306,296,307,309,2
308,303,309,313,2
309,309,311,316,2
310,316,311,317,2
310,322,311,318,2
309,326,311,318,2
308,328,310,317,2
307,325,308,316,2
306,320,308,314,2
306,316,307,313,2
305,313,305,312,2
305,314,302,312,2
305,315,301,312,2
305,315,299,310,2
305,315,298,310,2
305,314,299,309,2
305,312,299,309,2
305,310,300,308,2
305,308,300,307,2
305,305,301,306,2
305,301,301,305,2
305,297,303,305,2
305,294,304,305,2
305,293,305,306,2
306,295,305,305,2
306,297,305,304,2
306,299,304,303,2
306,300,304,302,2
307,299,305,301,2
307,296,305,301,2
308,290,305,301,2
308,285,305,301,2
309,282,305,301,2
309,284,304,302,2
309,290,304,302,2
308,300,304,303,2
308,311,304,305,2
307,320,304,306,2
306,328,305,308,2
306,333,305,310,2
306,335,306,311,2
305,332,306,311,2
306,325,307,312,2
306,315,308,312,2
306,306,308,312,2
306,298,308,312,2
306,293,308,311,2
306,292,307,309,2
305,297,306,307,2
305,305,305,306,2
305,312,304,306,2
305,315,304,307,2
306,315,304,308,2
306,314,304,309,2
307,313,305,311,2
306,314,306,311,2
306,315,309,310,2
306,316,311,308,2
306,315,312,306,2
306,311,312,303,2
305,304,311,302,2
305,298,311,301,2
306,294,310,300,2
306,291,309,299,2
306,289,307,297,2
305,288,305,295,2
305,287,304,295,2
305,287,304,295,2
305,289,307,297,2
305,292,309,300,2
306,295,311,304,2
306,295,312,306,2
306,295,312,308,2
306,296,313,309,2
306,300,312,310,2
305,306,312,311,2
304,313,311,312,2
304,318,310,312,2
303,321,310,311,2
302,321,309,311,2
302,321,309,311,2
302,322,310,310,2
302,323,310,310,2
301,324,310,310,2
300,325,310,311,2
300,324,310,311,2
301,320,310,311,2
301,315,311,310,2
302,310,310,308,2
302,307,310,307,2
303,306,310,306,2
303,306,310,306,2
303,310,311,305,2
303,316,310,305,2
302,321,310,306,2
301,324,310,306,2
301,324,310,307,2
301,322,310,306,2
302,320,309,306,2
302,317,309,306,2
302,314,308,306,2
303,312,308,306,2
304,311,309,306,2
304,310,309,307,2
305,309,309,307,2
305,307,309,306,2
305,305,309,306,2
304,301,308,305,2
303,296,308,305,2
303,288,306,304,2
303,282,306,304,2
304,276,305,303,2
304,273,305,304,2
304,275,305,304,2
304,280,305,305,2
304,287,305,306,2
304,293,305,307,2
303,300,305,308,2
303,306,305,308,2
302,311,307,309,2
301,312,307,309,2
301,311,309,310,2
301,308,310,311,2
301,304,311,311,2
301,301,311,311,2
301,298,311,311,2
301,293,310,310,2
302,287,309,308,2
302,282,308,305,2
302,280,307,304,2
303,281,307,303,2
304,285,308,303,2
305,289,310,304,2
306,295,310,304,2
306,302,309,306,2
306,310,307,307,2
305,314,305,307,2
304,315,303,306,2
303,314,303,306,2
303,313,303,306,2
303,315,305,307,2
302,318,307,308,2
302,321,309,309,2
302,322,311,310,2
301,322,311,310,2
301,320,311,310,2
301,318,311,311,2
301,313,311,311,2
301,308,311,311,2
301,303,310,311,2
301,299,310,310,2
302,298,309,309,2
304,297,309,309,2
305,295,309,309,2
306,291,309,309,2
308,283,309,308,2
308,276,309,308,2
309,270,308,309,2
310,268,309,308,2
310,271,309,307,2
310,283,309,307,2
309,298,309,306,2
308,311,308,304,2
307,322,308,304,2
306,329,309,305,2
306,332,310,306,2
306,333,310,307,2
306,333,311,307,2
307,332,311,307,2
307,329,311,308,2
308,325,311,308,2
309,320,311,309,2
310,315,311,309,2
311,313,310,310,2
312,312,310,310,2
311,313,310,310,2
311,315,309,310,2
310,316,309,310,2
308,315,309,309,2
306,314,308,309,2
305,313,308,309,2
305,313,308,310,2
305,312,308,311,2
304,307,308,312,2
304,300,307,312,2
304,293,306,312,2
305,286,306,310,2
305,280,305,309,2
305,277,305,307,2
304,279,304,306,2
303,283,304,305,2
303,289,304,304,2
303,292,305,303,2
303,292,305,302,2
303,288,306,302,2
304,281,306,301,2
304,271,306,300,2
303,264,305,299,2
303,260,303,298,2
303,263,301,297,2
304,271,299,297,2
304,282,299,297,2
304,295,299,298,2
305,307,300,300,2
306,317,302,303,2
307,327,303,306,2
308,334,304,308,2
309,338,305,310,2
309,339,305,310,2
309,337,305,310,2
308,336,305,310,2
307,333,304,311,2
306,331,302,312,2
306,328,300,312,2
305,326,298,313,2
305,324,297,313,2
306,322,297,314,2
307,319,299,314,2
308,316,302,314,2
308,313,304,313,2
308,311,305,312,2
308,310,306,312,2
308,309,306,312,2
308,307,306,312,2
307,306,305,312,2
307,306,305,312,2
307,306,305,311,2
307,307,306,311,2
307,307,306,312,2
307,306,307,312,2
306,305,307,313,2
307,304,307,313,2
306,305,307,313,2
306,307,307,313,2
305,309,307,314,2
305,310,307,314,2
304,309,307,313,2
304,307,308,313,2
305,304,308,313,2
306,300,309,313,2
307,297,310,314,2
308,296,310,314,2
309,296,310,314,2
309,296,309,313,2
308,299,308,312,2
308,299,307,311,2
308,298,306,310,2
309,296,306,309,2
310,294,305,308,2
311,292,305,308,2
311,288,306,309,2
312,280,307,310,2
312,271,308,311,2
312,262,309,312,2
311,254,310,312,2
311,248,311,311,2
310,246,310,309,2
308,251,309,308,2
306,264,307,307,2
304,281,306,306,2
301,299,305,305,2
300,315,304,304,2
300,326,304,303,2
301,331,303,302,2
301,332,303,302,2
302,331,302,303,2
303,329,301,304,2
302,327,299,304,2
301,326,297,303,2
300,326,296,302,2
298,327,295,302,2
298,329,295,302,2
298,330,297,303,2
299,330,299,306,2
301,329,301,308,2
302,327,301,310,2
304,325,301,311,2
305,322,301,312,2
307,320,302,313,2
308,317,302,314,2
309,315,302,314,2
310,311,302,314,2
311,308,302,315,2
312,304,301,315,2
313,302,301,314,2
313,301,300,314,2
313,302,300,313,2
313,304,301,312,2
312,304,300,311,2
311,305,300,310,2
310,305,299,308,2
310,304,298,306,2
309,304,298,305,2
309,304,298,305,2
309,307,298,305,2
308,307,297,304,2
307,304,296,304,2
307,300,295,303,2
305,297,294,303,2
305,294,294,302,2
305,292,296,303,2
306,292,300,304,2
307,292,303,306,2
307,293,306,307,2
307,294,306,307,2
307,294,304,306,2
306,297,302,305,2
305,301,301,305,2
305,306,300,304,2
304,308,300,303,2
304,305,299,302,2
304,299,299,301,2
304,292,299,301,2
305,286,300,302,2
307,282,301,303,2
307,282,301,304,2
308,287,302,305,2
308,294,302,306,2
308,301,302,306,2
309,307,302,306,2
309,311,302,305,2
308,313,301,305,2
308,315,300,304,2
308,318,299,303,2
307,319,299,303,2
306,319,298,303,2
305,318,298,303,2
305,317,297,303,2
306,316,297,304,2
306,313,298,303,2
306,312,297,303,2
305,312,297,302,2
304,312,295,299,2
303,311,294,296,2
303,311,294,294,2
303,312,296,294,2
304,312,298,294,2
304,312,301,296,2
305,309,304,299,2
307,305,305,302,2
308,300,306,304,2
309,295,306,306,2
309,290,306,307,2
310,288,306,308,2
311,288,306,309,2
311,290,306,309,2
311,294,305,309,2
310,300,305,307,2
309,307,303,305,2
309,313,302,302,2
308,318,301,300,2
308,320,301,298,2
308,321,300,298,2
309,321,300,299,2
309,320,299,301,2
310,319,299,302,2
311,313,298,304,2
311,304,298,305,2
312,294,298,306,2
312,284,296,306,2
313,277,296,305,2
313,273,296,305,2
314,278,297,307,2
315,289,298,308,2
316,302,300,309,2
315,314,302,310,2
316,321,305,311,2
316,321,307,311,2
315,317,308,311,2
314,312,308,311,2
313,305,308,310,2
313,300,308,310,2
312,298,308,310,2
312,298,308,310,2
312,300,308,310,2
314,302,309,310,2
314,305,309,310,2
314,307,308,308,2
313,308,308,307,2
313,310,306,306,2
312,311,306,307,2
312,313,304,308,2
312,315,303,309,2
311,315,303,309,2
310,315,302,310,2
309,314,303,310,2
308,315,303,309,2
307,315,302,308,2
306,317,302,307,2
305,317,302,306,2
305,316,302,306,2
305,313,302,306,2
306,309,302,308,2
307,306,302,308,2
308,306,301,309,2
307,309,300,308,2
306,313,299,308,2
305,317,298,307,2
304,319,297,306,2
303,318,296,305,2
303,316,296,304,2
304,313,298,304,2
306,310,299,304,2
307,307,302,305,2
308,305,305,308,2
309,303,307,312,2
310,303,309,315,2
311,304,309,316,2
311,306,309,317,2
311,306,307,317,2
310,304,306,315,2
311,301,305,313,2
311,297,304,311,2
311,294,304,309,2
311,292,305,307,2
311,292,305,307,2
310,293,305,306,2
310,297,305,306,2
309,301,305,306,2
308,307,304,305,2
307,311,303,305,2
307,313,302,305,2
307,310,302,304,2
307,305,301,303,2
307,297,301,302,2
308,287,302,302,2
309,278,303,302,2
310,270,303,302,2
310,268,303,304,2
310,271,303,305,2
310,276,303,307,2
310,281,303,307,2
311,284,302,306,2
310,285,302,305,2
310,285,302,305,2
310,286,302,304,2
310,289,302,304,2
309,296,303,304,2
308,308,303,304,2
308,321,303,304,2
307,331,303,303,2
305,335,302,303,2
305,336,302,304,2
305,335,303,306,2
305,333,303,308,2
306,330,302,311,2
307,326,301,313,2
308,320,300,314,2
309,316,299,314,2
309,312,298,312,2
309,308,298,310,2
309,305,299,309,2
309,305,301,307,2
308,305,304,306,2
307,308,307,304,2
306,312,309,303,2
305,315,309,303,2
304,317,308,302,2
303,318,307,303,2
303,319,305,303,2
302,319,303,303,2
302,320,302,303,2
302,319,300,303,2
301,316,298,302,2
300,312,297,301,2
300,307,296,300,2
300,303,296,298,2
300,300,297,298,2
302,301,300,299,2
303,304,302,300,2
304,308,304,303,2
305,310,304,305,2
305,312,304,306,2
304,313,304,307,2
303,313,303,308,2
302,313,303,308,2
302,312,303,308,2
302,312,303,308,2
302,312,304,309,2
303,311,305,309,2
303,309,305,310,2
303,307,306,310,2
303,306,306,311,2
303,305,307,311,2
303,302,307,312,2
303,297,308,312,2
303,292,309,311,2
303,289,309,309,2
304,286,309,308,2
306,284,309,307,2
307,282,309,307,2
309,282,310,308,2
310,282,312,310,2
312,281,314,311,2
313,282,316,312,2
314,284,317,313,2
313,286,316,312,2
309,289,313,309,2
305,294,309,306,2
303,298,306,305,2
301,301,305,304,2
300,305,304,303,2
300,313,304,304,2
300,322,304,304,2
300,330,305,305,2
300,336,305,305,2
299,339,305,305,2
298,339,305,305,2
298,339,304,304,2
298,337,303,304,2
298,333,303,303,2
299,329,303,303,2
299,324,303,302,2
301,320,302,302,2
302,316,302,303,2
302,313,302,303,2
302,311,302,304,2
303,309,304,305,2
304,309,307,306,2
305,308,311,306,2
306,307,314,307,2
307,305,316,308,2
308,303,316,308,2
310,300,316,308,2
311,297,316,308,2
312,290,315,308,2
313,282,314,307,2
313,275,312,305,2
313,268,311,303,2
313,263,309,301,2
312,263,307,299,2
310,268,305,299,2
309,277,304,298,2
308,289,304,298,2
306,300,305,298,2
304,311,307,299,2
304,321,309,301,2
303,328,311,303,2
305,330,312,306,2
306,329,313,308,2
307,325,313,310,2
307,319,313,310,2
308,311,313,309,2
309,305,313,308,2
309,299,313,308,2
309,294,313,309,2
310,290,313,309,2
310,287,313,311,2
311,286,313,312,2
311,286,312,314,2
311,288,312,315,2
310,290,312,315,2
310,292,312,314,2
310,293,312,312,2
310,296,312,310,2
310,299,311,309,2
311,303,311,308,2
311,306,310,308,2
311,308,310,308,2
311,309,308,307,2
310,307,308,306,2
310,303,307,305,2
311,300,307,306,2
311,299,306,307,2
310,300,305,308,2
309,304,304,308,2
308,310,303,307,2
307,318,302,306,2
306,327,302,306,2
306,334,302,306,2
307,339,303,307,2
307,341,303,308,2
308,340,304,309,2
309,337,304,309,2
311,334,304,309,2
312,330,304,309,2
312,324,304,309,2
311,318,303,308,2
311,312,303,308,2
311,305,302,309,2
310,298,301,309,2
310,293,301,310,2
309,290,303,310,2
309,291,305,310,2
309,295,308,311,2
309,301,310,310,2
308,307,311,310,2
307,311,311,309,2
307,313,311,309,2
306,314,309,309,2
306,313,308,309,2
305,313,306,308,2
304,311,305,307,2
303,309,305,306,2
302,305,304,305,2
301,300,303,305,2
300,296,302,303,2
299,294,301,302,2
299,293,299,300,2
298,293,297,299,2
297,295,297,298,2
297,298,299,300,2
297,299,302,302,2
298,300,306,305,2
298,298,309,310,2
300,294,311,314,2
300,291,313,316,2
301,290,314,316,2
300,291,313,316,2
298,294,312,314,2
297,298,311,312,2
296,303,310,311,2
296,308,309,310,2
296,312,309,310,2
297,315,310,310,2
298,317,311,310,2
299,318,312,311,2
301,320,314,313,2
301,320,315,316,2
301,319,315,318,2
301,315,316,320,2
302,309,315,321,2
302,302,316,322,2
302,292,316,321,2
303,281,316,321,2
304,270,317,320,2
306,259,318,319,2
308,251,318,317,2
307,250,316,315,2
306,254,314,313,2
304,262,311,311,2
302,273,307,309,2
301,287,305,309,2
299,301,303,310,2
298,314,302,311,2
297,325,302,312,2
297,332,301,313,2
298,337,302,314,2
298,341,302,314,2
299,343,303,314,2
299,342,303,312,2
300,341,303,312,2
300,341,303,312,2
300,340,304,312,2
300,339,303,312,2
300,336,303,311,2
300,331,302,310,2
299,327,301,309,2
298,323,300,307,2
298,319,298,306,2
299,314,298,305,2
299,309,299,304,2
300,303,301,304,2
301,294,304,303,2
303,285,307,304,2
304,279,308,305,2
305,275,308,306,2
305,276,309,308,2
306,282,309,310,2
305,292,309,310,2
303,303,308,310,2
301,314,307,309,2
299,321,306,307,2
298,325,305,306,2
298,327,304,304,2
298,327,304,304,2
299,325,305,303,2
300,324,305,303,2
301,322,306,303,2
302,320,306,303,2
302,319,305,302,2
301,319,303,301,2
299,317,300,300,2
298,314,299,299,2
298,310,299,299,2
299,304,301,300,2
301,299,304,302,2
303,294,308,306,2
306,292,312,310,2
307,292,314,312,2
307,296,314,314,2
307,302,314,316,2
306,310,313,316,2
305,317,312,315,2
304,321,311,315,2
304,322,311,314,2
303,323,310,314,2
303,323,309,314,2
302,323,309,313,2
302,322,308,313,2
302,318,308,313,2
302,312,309,312,2
303,305,310,310,2
303,299,311,307,2
303,296,311,305,2
303,297,312,303,2
303,301,312,302,2
302,307,313,303,2
302,313,312,304,2
302,318,312,306,2
302,320,311,308,2
302,321,309,310,2
302,320,307,311,2
302,317,306,312,2
303,312,305,312,2
302,308,306,311,2
302,306,306,310,2
302,306,306,309,2
302,308,307,307,2
301,310,306,306,2
302,312,306,305,2
302,312,306,304,2
302,311,305,304,2
303,308,306,304,2
304,304,307,304,2
305,302,307,304,2
305,300,307,304,2
306,300,307,305,2
306,300,308,305,2
307,300,308,305,2
307,300,309,304,2
306,298,309,304,2
306,296,310,304,2
306,294,310,305,2
306,295,310,307,2
306,300,309,308,2
307,307,307,309,2
307,313,305,309,2
307,316,304,307,2
306,316,303,305,2
305,314,301,303,2
305,311,301,301,2
304,308,300,300,2
303,307,299,299,2
302,308,297,298,2
301,309,296,298,2
300,309,295,298,2
300,309,296,299,2
300,309,298,300,2
302,307,301,302,2
304,301,304,306,2
307,292,306,309,2
309,280,308,310,2
312,269,308,311,2
313,262,309,310,2
314,260,309,310,2
313,266,308,309,2
312,277,306,309,2
311,291,304,309,2
309,306,303,309,2
308,322,302,311,2
307,335,303,313,2
306,342,304,313,2
305,345,306,313,2
305,345,308,311,2
305,344,308,309,2
305,340,308,307,2
305,336,308,306,2
305,332,308,305,2
306,328,309,305,2
306,322,310,306,2
307,315,310,307,2
307,309,311,308,2
307,302,310,309,2
307,297,310,309,2
307,295,310,310,2
307,294,309,309,2
308,294,309,310,2
308,295,309,310,2
309,297,309,310,2
309,301,309,310,2
309,304,309,310,2
310,306,309,309,2
309,307,308,308,2
309,308,308,306,2
308,309,308,305,2
307,309,308,304,2
307,309,308,304,2
307,310,309,304,2
306,312,309,304,2
306,315,309,304,2
306,319,308,304,2
306,322,308,305,2
307,324,308,307,2
308,324,309,309,2
309,322,309,311,2
311,319,310,313,2
312,315,311,314,2
312,314,311,314,2
313,313,312,314,2
314,313,311,313,2
314,313,310,312,2
314,315,309,313,2
314,316,308,313,2
314,315,306,312,2
313,311,305,310,2
313,306,303,308,2
312,298,301,306,2
311,291,300,303,2
310,284,300,301,2
310,281,301,299,2
311,283,304,299,2
311,288,307,299,2
311,296,308,301,2
309,304,309,302,2
308,312,309,303,2
307,317,309,303,2
306,319,308,303,2
306,317,307,303,2
305,313,304,302,2
305,308,303,302,2
305,303,302,303,2
305,300,303,303,2
306,300,304,304,2
307,305,306,304,2
308,311,308,306,2
310,319,310,308,2
311,325,311,310,2
311,329,312,310,2
310,330,312,310,2
310,328,313,309,2
309,322,313,308,2
309,316,313,307,2
308,310,313,307,2
308,304,312,306,2
307,300,312,305,2
306,298,311,304,2
305,297,310,302,2
304,295,308,301,2
303,292,307,300,2
303,290,307,300,2
303,289,307,300,2
303,292,307,300,2
304,299,307,300,2
304,307,308,300,2
303,318,308,301,2
302,325,308,301,2
302,329,308,301,2
301,328,307,300,2
299,325,306,301,2
299,321,305,301,2
298,317,305,302,2
299,316,305,302,2
300,317,305,303,2
301,318,306,303,2
302,318,307,302,2
302,317,308,301,2
302,316,307,301,2
304,314,307,301,2
304,311,307,301,2
305,307,307,301,2
305,304,307,301,2
306,300,306,302,2
307,297,306,302,2
308,293,305,303,2
308,291,306,303,2
308,290,306,305,2
309,289,307,308,2
309,289,308,310,2
308,290,309,311,2
308,291,310,311,2
306,295,310,312,2
306,300,310,312,2
304,304,309,312,2
303,308,308,311,2
302,312,307,311,2
301,317,306,310,2
301,320,303,309,2
300,322,301,310,2
301,323,299,310,2
301,323,298,310,2
302,321,297,309,2
303,314,296,307,2
303,303,294,305,2
303,290,293,303,2
302,278,294,301,2
302,270,297,300,2
303,268,301,300,2
304,274,305,304,2
303,289,308,308,2
303,306,309,312,2
302,320,310,314,2
301,330,310,316,2
300,334,310,316,2
300,336,309,315,2
300,336,308,313,2
299,336,307,312,2
300,335,306,310,2
300,334,307,310,2
301,333,307,310,2
302,331,307,311,2
302,328,306,311,2
302,324,306,311,2
302,322,307,311,2
302,321,307,312,2
301,319,307,311,2
301,316,307,310,2
300,314,307,309,2
300,314,307,309,2
300,314,307,309,2
300,314,307,310,2
301,312,308,310,2
302,308,308,309,2
302,305,308,308,2
302,301,309,308,2
303,297,310,307,2
303,294,310,307,2
303,294,311,307,2
303,293,311,307,2
302,291,311,307,2
302,290,310,306,2
300,289,309,304,2
300,289,308,304,2
299,287,308,303,2
299,287,309,303,2
300,289,310,303,2
300,293,310,304,2
301,300,310,305,2
301,310,309,305,2
300,320,309,306,2
299,328,309,307,2
299,332,308,307,2
299,332,308,306,2
299,330,307,305,2
301,327,307,304,2
301,325,308,304,2
302,323,308,304,2
302,320,308,304,2
302,317,309,304,2
302,312,308,303,2
302,310,308,303,2
303,310,307,302,2
304,311,306,302,2
305,314,305,302,2
306,317,305,301,2
306,322,304,301,2
306,325,303,302,2
306,325,304,304,2
306,324,304,305,2
305,322,305,306,2
305,321,307,308,2
305,320,308,310,2
304,318,310,311,2
304,317,310,310,2
304,316,310,309,2
303,313,309,308,2
302,308,307,306,2
301,302,305,305,2
301,296,303,304,2
302,291,302,303,2
302,287,302,303,2
303,285,303,302,2
304,287,304,304,2
305,291,305,306,2
305,295,306,308,2
305,299,306,309,2
304,300,307,311,2
304,301,309,312,2
304,300,311,314,2
305,297,312,314,2
306,292,313,315,2
307,287,313,315,2
309,284,313,314,2
309,286,313,313,2
309,293,312,312,2
308,305,310,311,2
308,317,309,311,2
307,325,308,310,2
306,330,306,308,2
306,332,306,307,2
306,331,306,306,2
306,329,306,306,2
306,327,307,306,2
305,325,308,307,2
305,323,309,309,2
305,320,310,310,2
306,316,312,311,2
308,312,313,311,2
309,306,314,312,2
310,299,315,312,2
310,291,315,313,2
310,283,313,313,2
310,279,312,314,2
310,278,311,313,2
310,281,311,312,2
310,287,310,312,2
310,297,310,311,2
309,307,310,311,2
308,316,309,310,2
307,322,308,310,2
305,325,308,310,2
305,326,307,310,2
305,326,306,310,2
304,326,306,309,2
304,325,305,309,2
305,323,304,309,2
305,320,304,309,2
305,318,304,309,2
304,317,304,308,2
304,315,304,307,2
304,313,305,307,2
305,310,306,307,2
305,306,307,307,2
306,302,307,307,2
306,300,307,308,2
307,298,307,309,2
307,296,306,310,2
307,295,306,310,2
307,294,306,310,2
307,293,306,309,2
306,292,306,308,2
305,292,306,306,2
305,292,305,305,2
305,292,306,305,2
304,289,307,305,2
304,285,308,305,2
304,281,309,305,2
305,279,310,305,2
305,280,310,304,2
305,284,309,303,2
305,291,307,303,2
304,300,306,302,2
303,312,304,301,2
302,323,303,301,2
300,331,303,301,2
300,336,305,303,2
300,339,306,306,2
301,339,307,309,2
302,338,307,311,2
302,336,307,311,2
303,331,306,310,2
304,326,305,310,2
306,320,304,308,2
307,315,303,307,2
308,310,303,305,2
308,306,304,305,2
309,306,306,305,2
309,308,309,305,2
308,311,311,305,2
308,315,311,306,2
307,319,312,307,2
307,321,312,309,2
307,319,312,311,2
307,315,312,313,2
307,309,312,313,2
307,303,312,313,2
306,298,311,312,2
306,294,311,312,2
306,293,311,312,2
307,294,311,311,2
307,298,310,311,2
307,301,309,311,2
307,304,308,310,2
307,307,308,309,2
307,310,309,309,2
307,313,310,309,2
308,313,311,309,2
309,313,312,310,2
310,312,313,311,2
312,310,314,311,2
313,307,313,311,2
314,304,312,310,2
315,301,311,310,2
315,301,310,309,2
315,302,309,308,2
314,303,308,307,2
313,303,307,306,2
313,300,307,305,2
312,296,307,304,2
311,292,306,304,2
310,289,306,303,2
309,288,306,304,2
308,290,306,304,2
307,295,306,306,2
307,302,305,308,2
307,309,305,309,2
306,316,305,310,2
306,321,305,311,2
306,324,304,310,2
305,325,304,309,2
304,324,303,307,2
304,323,302,304,2
303,322,300,302,2
301,321,298,300,2
300,319,297,299,2
299,318,297,299,2
300,316,299,299,2
300,314,302,301,2
301,311,305,303,2
303,307,308,307,2
305,302,309,310,2
306,296,310,312,2
306,290,310,313,2
307,287,311,313,2
307,286,311,313,2
308,288,311,312,2
309,291,311,312,2
309,294,310,312,2
310,297,309,312,2
311,298,308,312,2
311,300,307,311,2
310,303,305,310,2
309,308,304,309,2
308,311,304,309,2
308,310,305,308,2
307,305,308,307,2
308,293,311,307,2
309,279,313,305,2
310,264,313,304,2
310,251,312,302,2
309,245,310,301,2
308,250,309,302,2
307,265,307,302,2
305,285,305,303,2
302,306,303,303,2
300,325,302,303,2
297,338,301,302,2
297,345,301,302,2
298,347,302,304,2
299,345,303,307,2
302,340,305,310,2
304,332,308,311,2
307,324,309,313,2
308,316,310,313,2
309,307,310,313,2
309,300,308,312,2
309,295,306,312,2
309,295,304,311,2
309,298,303,311,2
308,302,303,311,2
308,308,302,312,2
308,315,302,311,2
308,321,302,312,2
308,324,301,312,2
308,325,301,312,2
308,324,301,312,2
309,322,301,311,2
309,321,302,310,2
309,321,303,310,2
308,319,304,310,2
308,317,305,310,2
306,314,305,310,2
304,312,306,310,2
303,311,306,310,2
302,307,306,310,2
302,299,306,310,2
303,291,305,309,2
303,283,304,309,2
304,277,304,309,2
305,275,304,309,2
306,278,304,309,2
306,285,304,309,2
307,294,304,309,2
307,299,304,309,2
307,300,304,308,2
308,299,304,308,2
309,298,305,308,2
310,297,305,308,2
310,297,306,307,2
309,300,305,306,2
308,305,305,304,2
308,310,304,303,2
308,310,303,302,2
307,308,302,301,2
306,304,300,300,2
305,300,298,299,2
304,296,296,299,2
303,294,296,300,2
303,292,296,301,2
303,291,298,301,2
304,292,301,303,2
305,293,303,306,2
306,293,305,308,2
307,293,307,310,2
307,294,307,310,2
307,298,306,311,2
308,307,305,311,2
308,317,305,311,2
308,327,304,311,2
308,334,304,312,2
308,336,302,312,2
309,334,301,312,2
309,330,300,312,2
309,326,300,313,2
309,323,300,314,2
308,321,301,315,2
308,320,303,315,2
307,318,306,314,2
307,316,308,314,2
307,315,311,313,2
307,313,312,312,2
307,312,313,311,2
307,310,313,309,2
306,308,313,308,2
306,307,312,307,2
305,305,311,308,2
305,303,310,309,2
304,300,310,310,2
304,298,310,311,2
305,293,310,313,2
305,287,311,313,2
306,282,311,314,2
305,279,310,315,2
305,279,310,316,2
305,280,310,316,2
304,283,309,316,2
304,287,309,315,2
304,288,309,314,2
304,286,309,313,2
305,279,309,311,2
306,272,309,309,2
307,266,309,309,2
308,263,310,308,2
308,262,310,307,2
307,264,310,306,2
307,270,310,305,2
305,283,309,305,2
303,300,307,304,2
302,319,305,304,2
301,333,303,304,2
302,341,302,304,2
302,345,302,305,2
303,348,302,306,2
303,349,302,308,2
303,349,303,309,2
304,347,303,309,2
305,344,304,309,2
306,339,304,308,2
307,334,304,305,2
306,329,303,302,2
306,325,302,299,2
305,321,301,298,2
305,318,300,297,2
305,317,300,297,2
305,316,301,296,2
305,315,303,298,2
306,314,305,301,2
306,312,306,303,2
305,310,307,306,2
305,307,307,308,2
305,304,307,308,2
305,300,307,308,2
305,295,307,307,2
305,291,307,307,2
306,289,307,307,2
306,289,308,308,2
308,290,309,309,2
308,293,309,309,2
309,298,309,309,2
309,304,309,308,2
310,309,308,306,2
309,312,306,303,2
309,313,305,301,2
309,312,304,300,2
309,311,304,299,2
310,308,304,299,2
310,305,304,298,2
311,302,304,299,2
311,298,305,301,2
311,295,306,303,2
311,292,307,305,2
310,292,307,307,2
311,293,309,308,2
311,294,309,309,2
311,296,309,309,2
311,297,308,309,2
312,297,307,309,2
312,297,306,308,2
313,298,305,307,2
313,300,304,306,2
313,305,304,305,2
313,310,306,304,2
312,315,308,302,2
311,318,310,300,2
310,320,311,300,2
309,320,312,300,2
309,317,312,300,2
309,311,312,300,2
309,303,312,301,2
310,294,312,302,2
311,286,312,304,2
311,277,312,306,2
312,270,313,308,2
313,267,312,309,2
313,269,312,309,2
313,274,312,309,2
312,282,313,309,2
311,292,313,308,2
310,301,313,308,2
310,306,313,308,2
310,307,313,309,2
311,307,313,309,2
311,308,311,309,2
311,310,309,309,2
311,310,307,310,2
311,313,307,310,2
311,317,307,310,2
310,322,308,310,2
309,324,307,310,2
307,326,307,308,2
307,326,306,305,2
307,325,305,303,2
307,325,304,300,2
307,322,302,298,2
306,320,302,296,2
306,319,302,295,2
307,321,304,297,2
308,322,306,300,2
309,322,309,304,2
310,321,311,308,2
311,321,312,311,2
312,320,312,312,2
311,319,312,311,2
311,317,312,310,2
310,314,312,310,2
311,310,312,309,2
311,308,312,310,2
311,309,312,311,2
312,313,313,311,2
311,317,314,312,2
309,320,314,312,2
308,322,313,312,2
307,322,312,311,2
307,320,311,309,2
306,318,310,308,2
305,314,310,308,2
305,308,309,306,2
306,299,310,305,2
307,288,310,303,2
307,275,311,302,2
306,263,311,301,2
306,252,311,300,2
305,244,310,300,2
304,242,310,300,2
303,245,310,301,2
303,255,309,302,2
302,270,308,303,2
302,288,308,304,2
302,304,308,305,2
303,318,307,306,2
303,329,307,306,2
304,337,306,307,2
304,344,306,308,2
305,348,305,309,2
306,350,305,310,2
306,348,305,310,2
307,344,306,311,2
307,338,308,311,2
307,331,312,311,2
308,325,314,311,2
308,319,316,311,2
309,315,316,309,2
310,310,315,308,2
310,305,314,307,2
309,300,313,307,2
308,297,312,307,2
307,295,312,307,2
307,295,312,306,2
306,297,312,306,2
305,301,311,305,2
304,307,310,305,2
303,310,309,305,2
302,312,308,304,2
302,314,308,304,2
301,316,308,305,2
301,317,308,305,2
300,316,307,304,2
299,314,307,304,2
299,312,307,303,2
299,309,307,303,2
300,307,307,304,2
300,304,307,304,2
301,302,306,304,2
301,300,305,303,2
301,299,303,302,2
300,298,302,302,2
300,297,302,300,2
301,297,304,300,2
302,297,306,302,2
303,299,308,305,2
304,300,310,307,2
305,301,311,309,2
307,302,312,310,2
308,302,313,312,2
309,301,313,314,2
310,300,313,315,2
311,301,312,316,2
311,304,310,316,2
311,307,308,315,2
310,307,307,314,2
309,306,306,313,2
309,301,306,313,2
308,295,305,312,2
308,288,304,312,2
307,280,304,311,2
306,272,303,309,2
305,267,303,308,2
305,267,302,307,2
305,271,302,306,2
306,277,302,307,2
306,283,301,307,2
307,290,301,307,2
307,296,301,308,2
307,301,301,308,2
306,304,301,307,2
305,305,301,306,2
303,306,301,306,2
302,308,301,305,2
301,311,302,306,2
300,318,302,307,2
300,327,303,308,2
300,334,303,309,2
301,338,304,310,2
302,339,305,310,2
302,337,305,310,2
303,330,305,310,2
304,322,306,310,2
305,314,306,310,2
305,308,306,310,2
306,305,306,311,2
306,305,306,312,2
305,308,305,312,2
305,314,304,310,2
304,320,302,309,2
303,325,301,309,2
303,329,300,310,2
304,329,300,310,2
303,327,298,309,2
303,323,298,308,2
303,320,298,307,2
302,316,301,307,2
302,314,304,306,2
302,312,307,307,2
303,310,308,307,2
303,308,309,306,2
304,307,309,306,2
305,305,308,305,2
305,303,308,306,2
305,302,307,305,2
305,301,306,304,2
304,300,304,303,2
304,300,302,302,2
304,298,301,301,2
304,295,300,301,2
303,289,302,302,2
304,282,304,304,2
305,276,306,308,2
306,272,309,311,2
306,269,310,313,2
306,271,310,313,2
305,277,311,313,2
304,285,310,313,2
304,290,310,313,2
303,291,310,312,2
303,291,310,312,2
304,290,310,311,2
304,290,311,309,2
304,294,311,308,2
304,304,311,307,2
303,317,312,307,2
302,330,311,307,2
300,340,311,307,2
299,345,309,308,2
298,345,307,309,2
298,339,306,310,2
298,332,304,310,2
299,324,303,310,2
300,319,303,309,2
302,317,303,309,2
303,316,304,307,2
304,314,304,307,2
305,312,305,306,2
305,311,305,305,2
305,312,305,304,2
306,312,305,304,2
306,312,305,303,2
307,312,306,303,2
307,312,306,303,2
307,314,307,303,2
307,315,307,304,2
307,315,308,304,2
307,315,307,304,2
308,312,308,304,2
309,309,308,304,2
309,304,308,304,2
309,299,309,305,2
309,295,308,305,2
308,291,308,305,2
307,287,308,305,2
306,287,308,304,2
305,290,307,303,2
305,295,307,303,2
305,301,307,304,2
305,307,307,304,2
304,311,307,304,2
303,311,306,304,2
302,310,306,303,2
302,309,305,301,2
301,307,304,301,2
300,304,303,302,2
301,302,304,303,2
302,301,304,304,2
302,301,304,305,2
303,301,304,306,2
303,301,305,306,2
305,302,305,307,2
305,305,306,308,2
307,308,308,309,2
307,311,310,309,2
307,311,312,309,2
307,311,314,307,2
307,311,314,306,2
307,309,313,305,2
307,303,313,304,2
308,294,313,303,2
308,285,312,302,2
307,278,312,301,2
307,274,312,300,2
306,275,311,299,2
305,281,310,298,2
303,290,309,298,2
302,296,307,298,2
301,299,305,297,2
300,299,304,297,2
301,298,303,297,2
302,293,303,297,2
303,287,304,298,2
305,282,306,298,2
306,282,307,300,2
306,286,309,302,2
306,292,309,303,2
305,299,310,305,2
306,305,310,306,2
306,310,310,308,2
306,315,310,309,2
307,319,310,310,2
306,323,310,312,2
306,326,311,312,2
305,328,310,313,2
304,329,310,313,2
304,328,310,313,2
304,328,310,313,2
303,329,309,312,2
303,329,309,313,2
303,326,309,314,2
304,321,309,314,2
304,317,309,314,2
304,312,309,313,2
305,308,310,312,2
306,305,310,311,2
306,304,311,310,2
306,304,311,310,2
306,304,311,310,2
305,303,310,309,2
304,301,309,309,2
303,299,309,308,2
303,298,308,308,2
303,298,309,307,2
302,301,309,307,2
302,306,309,307,2
302,312,308,308,2
302,316,307,308,2
301,320,306,308,2
302,322,305,309,2
302,322,305,309,2
302,320,305,309,2
304,317,305,308,2
304,312,306,307,2
306,305,307,307,2
306,297,307,306,2
307,289,308,305,2
307,283,308,304,2
306,279,307,303,2
305,280,305,302,2
304,283,303,302,2
303,287,302,303,2
303,291,301,306,2
304,293,301,308,2
304,295,301,310,2
304,296,303,310,2
304,296,304,309,2
303,298,306,309,2
303,304,307,310,2
303,312,308,310,2
302,318,308,308,2
302,322,308,306,2
301,323,308,304,2
300,324,307,302,2
299,325,305,300,2
298,325,304,298,2
298,323,303,297,2
298,319,303,297,2
299,313,303,298,2
300,308,305,299,2
301,304,306,303,2
302,300,308,306,2
304,298,309,308,2
305,298,309,309,2
305,300,308,310,2
305,302,307,312,2
305,304,306,312,2
305,304,305,313,2
305,304,305,313,2
305,304,304,312,2
304,305,304,312,2
304,307,303,312,2
304,309,303,313,2
305,308,304,314,2
306,305,304,315,2
306,300,305,315,2
308,295,304,313,2
309,291,304,310,2
310,289,303,308,2
310,291,302,306,2
309,297,301,305,2
307,305,300,304,2
306,313,299,304,2
304,321,299,304,2
302,325,299,305,2
302,327,299,306,2
303,327,301,308,2
303,324,301,309,2
304,321,302,311,2
304,318,302,311,2
305,315,303,311,2
306,314,304,311,2
307,314,304,311,2
308,315,304,310,2
308,317,304,310,2
308,320,304,309,2
308,323,304,310,2
308,324,303,310,2
308,323,304,311,2
308,320,304,311,2
308,314,303,311,2
308,305,303,311,2
309,295,302,311,2
310,285,303,311,2
310,277,303,311,2
311,271,302,310,2
310,268,302,309,2
309,267,302,308,2
308,269,302,308,2
307,275,302,308,2
307,285,301,307,2
307,297,301,306,2
306,310,300,305,2
306,322,300,304,2
305,332,299,304,2
303,337,298,305,2
303,338,298,306,2
303,336,299,307,2
304,334,300,308,2
304,332,300,309,2
305,330,301,309,2
305,328,302,311,2
305,327,302,313,2
305,324,303,314,2
305,319,303,314,2
304,314,303,313,2
303,309,301,313,2
302,306,299,312,2
301,305,297,311,2
300,306,295,310,2
299,307,294,310,2
299,307,295,311,2
301,305,296,312,2
302,301,299,314,2
304,296,301,315,2
305,290,301,316,2
305,285,302,316,2
305,279,302,315,2
306,275,303,313,2
306,274,305,312,2
307,275,308,312,2
307,279,310,312,2
306,284,310,312,2
304,290,309,312,2
302,296,306,312,2
299,303,305,312,2
297,310,304,312,2
296,315,304,312,2
296,320,305,313,2
298,326,305,314,2
301,328,305,315,2
302,327,304,314,2
302,323,302,313,2
302,317,300,313,2
301,309,299,312,2
301,300,299,310,2
301,294,299,309,2
302,289,299,309,2
303,287,299,308,2
302,287,299,307,2
301,292,300,307,2
300,302,301,307,2
300,316,301,308,2
300,328,302,310,2
301,335,301,311,2
302,337,301,311,2
302,334,301,311,2
303,330,301,312,2
304,324,302,312,2
305,320,303,313,2
306,316,304,314,2
306,315,304,315,2
306,315,305,316,2
306,316,305,317,2
306,318,306,317,2
306,320,305,317,2
306,319,305,316,2
305,317,304,314,2
306,316,304,314,2
306,314,304,312,2
307,312,304,310,2
307,308,304,309,2
308,303,304,308,2
308,299,304,308,2
308,297,304,308,2
308,297,304,307,2
307,299,303,306,2
307,301,303,306,2
306,302,302,305,2
306,302,302,305,2
306,300,301,304,2
306,297,301,303,2
306,292,300,302,2
307,288,299,300,2
307,285,298,299,2
308,282,297,299,2
308,278,297,299,2
309,278,298,300,2
309,279,298,301,2
309,281,299,302,2
309,284,301,303,2
309,288,302,306,2
308,294,304,309,2
307,302,304,311,2
306,310,306,312,2
304,318,308,312,2
303,324,311,312,2
302,325,312,311,2
301,323,313,310,2
300,317,313,309,2
300,311,313,308,2
300,307,313,307,2
300,307,313,306,2
301,312,313,306,2
302,318,313,305,2
303,321,312,306,2
303,322,311,306,2
304,321,310,306,2
304,317,309,306,2
303,313,308,306,2
303,307,308,306,2
302,302,308,307,2
302,299,308,308,2
303,299,308,309,2
302,301,308,309,2
303,304,308,310,2
303,309,308,310,2
304,315,307,309,2
305,321,306,308,2
305,328,305,308,2
304,333,304,308,2
303,335,304,308,2
302,334,303,308,2
303,331,303,307,2
304,327,305,308,2
306,325,306,308,2
309,323,307,310,2
310,320,308,309,2
310,318,308,309,2
308,318,308,309,2
307,319,308,308,2
306,320,307,306,2
304,321,307,304,2
304,322,307,303,2
303,323,307,302,2
303,321,308,302,2
303,320,307,302,2
303,317,306,302,2
305,314,305,302,2
306,310,304,302,2
307,306,304,302,2
308,301,304,303,2
309,296,304,304,2
309,289,305,304,2
309,282,306,305,2
309,276,307,305,2
308,273,307,307,2
308,275,307,308,2
307,281,307,309,2
307,289,306,310,2
307,297,306,309,2
306,305,305,308,2
305,311,304,306,2
305,313,302,304,2
305,312,299,303,2
305,308,297,304,2
304,304,294,303,2
303,301,293,302,2
303,300,293,300,2
303,302,296,299,2
303,310,299,301,2
304,322,304,304,2
305,334,308,306,2
306,343,311,309,2
308,346,313,311,2
309,346,314,311,2
309,342,314,310,2
309,337,314,309,2
309,330,313,308,2
308,322,313,307,2
307,311,312,306,2
306,295,312,306,2
306,274,311,305,2
305,253,312,305,2
306,235,312,305,2
307,223,314,305,2
309,220,315,306,2
310,224,315,307,2
310,238,313,308,2
308,259,311,308,2
306,282,310,308,2
305,301,309,308,2
305,314,309,308,2
306,322,310,309,2
307,326,311,310,2
308,328,312,310,2
309,329,313,310,2
309,331,313,310,2
309,335,312,310,2
308,338,310,309,2
307,341,309,308,2
306,343,308,308,2
306,347,309,308,2
306,350,309,309,2
306,354,310,309,2
306,357,310,309,2
305,358,310,310,2
305,356,310,309,2
305,352,311,310,2
306,346,312,310,2
306,337,313,310,2
306,326,314,310,2
307,314,314,310,2
309,301,314,310,2
309,290,313,310,2
309,283,312,310,2
309,282,311,309,2
308,288,309,309,2
307,300,308,308,2
306,310,307,307,2
305,317,307,307,2
305,320,306,307,2
306,321,307,308,2
307,320,307,308,2
308,315,308,307,2
308,309,309,307,2
310,303,310,308,2
311,295,311,307,2
310,287,310,305,2
309,282,309,303,2
309,282,307,302,2
307,286,305,301,2
306,293,302,301,2
304,303,301,300,2
303,310,300,299,2
303,315,301,300,2
303,319,303,302,2
304,323,305,306,2
306,326,307,311,2
308,327,308,314,2
310,321,309,315,2
311,311,309,315,2
312,298,308,314,2
312,286,308,313,2
312,278,306,313,2
312,275,305,312,2
312,281,304,312,2
312,296,302,313,2
310,312,301,313,2
308,326,300,313,2
307,334,301,313,2
307,337,303,313,2
306,337,305,312,2
306,335,307,311,2
306,332,308,310,2
306,327,308,311,2
308,320,308,312,2
308,313,308,312,2
310,307,308,312,2
310,303,308,312,2
311,300,308,311,2
312,300,308,311,2
312,301,307,310,2
311,305,306,309,2
310,311,305,308,2
310,316,304,309,2
310,318,304,308,2
309,319,304,307,2
308,321,304,307,2
308,322,303,308,2
308,322,303,309,2
308,320,304,309,2
308,315,304,310,2
309,310,304,310,2
309,302,305,310,2
310,296,305,309,2
311,290,306,307,2
312,283,306,306,2
313,277,307,304,2
313,272,308,302,2
313,267,309,301,2
313,265,310,302,2
312,268,311,303,2
311,276,311,304,2
309,287,310,305,2
308,298,308,306,2
308,307,308,306,2
307,313,307,306,2
307,314,307,306,2
308,309,307,306,2
309,300,308,307,2
309,293,308,307,2
310,286,308,307,2
310,281,308,307,2
311,277,308,306,2
310,278,308,305,2
308,280,307,304,2
306,283,306,301,2
305,286,305,300,2
304,292,304,298,2
304,300,302,297,2
303,308,300,297,2
303,306,298,297,2
303,297,298,298,2
303,284,298,299,2
303,273,300,300,2
304,266,302,303,2
305,268,305,305,2
305,282,308,308,2
306,304,310,311,2
306,322,310,311,2
306,330,309,312,2
307,327,308,312,2
309,318,307,313,2
310,305,307,312,2
310,294,306,312,2
310,290,306,312,2
310,292,308,311,2
311,299,310,311,2
311,306,312,310,2
311,309,313,309,2
310,308,313,308,2
309,302,312,308,2
308,291,310,308,2
308,284,309,308,2
307,286,308,308,2
306,297,307,309,2
305,317,306,311,2
304,338,305,312,2
302,353,304,313,2
302,359,304,313,2
301,357,304,313,2
301,351,304,312,2
301,344,304,311,2
301,333,303,308,2
301,319,302,306,2
300,304,302,303,2
300,290,302,302,2
301,277,302,303,2
302,269,304,304,2
302,267,305,306,2
302,273,307,309,2
303,283,308,311,2
304,293,308,312,2
305,302,308,313,2
305,306,307,315,2
306,305,307,315,2
306,301,307,314,2
307,300,308,314,2
307,305,308,313,2
308,315,309,313,2
307,324,310,312,2
305,330,309,311,2
303,332,308,310,2
303,331,306,310,2
302,330,305,310,2
303,328,304,311,2
303,325,304,311,2
303,321,303,310,2
302,317,301,310,2
301,313,299,308,2
299,309,298,305,2
298,306,298,303,2
297,305,299,302,2
297,304,301,302,2
299,303,304,302,2
300,304,306,304,2
301,303,307,306,2
303,299,307,306,2
303,294,308,307,2
304,289,310,307,2
304,286,311,309,2
305,285,312,311,2
306,285,313,313,2
306,289,313,313,2
305,294,313,313,2
305,297,312,312,2
304,295,312,311,2
304,293,312,309,2
305,292,312,309,2
306,293,312,309,2
307,295,312,309,2
307,300,312,309,2
307,308,312,309,2
307,317,312,310,2
308,325,312,311,2
308,331,311,311,2
307,335,311,310,2
305,338,309,309,2
305,339,308,309,2
305,340,308,308,2
304,338,307,309,2
305,334,307,310,2
305,327,307,311,2
305,319,306,311,2
304,311,306,311,2
304,306,305,311,2
305,303,305,311,2
306,305,306,311,2
306,313,308,311,2
306,323,310,312,2
306,331,311,313,2
305,335,312,314,2
306,334,313,315,2
306,331,313,315,2
306,329,312,316,2
307,329,311,317,2
308,329,311,317,2
308,327,311,317,2
308,322,311,318,2
309,314,311,318,2
310,303,311,317,2
311,293,310,316,2
312,287,310,315,2
313,286,309,314,2
312,289,308,311,2
311,294,306,308,2
311,297,305,307,2
312,296,304,305,2
311,292,304,304,2
311,289,304,304,2
311,291,304,304,2
311,297,305,305,2
310,305,306,306,2
309,312,306,307,2
308,314,306,307,2
308,313,306,307,2
307,309,307,307,2
307,306,307,308,2
308,307,308,309,2
308,310,307,310,2
307,313,307,310,2
306,315,305,309,2
304,318,303,307,2
303,323,300,305,2
302,327,298,304,2
301,329,297,302,2
300,329,297,300,2
300,324,299,300,2
301,316,302,302,2
304,305,305,305,2
306,293,308,309,2
308,283,309,312,2
309,282,310,315,2
310,289,310,317,2
311,301,310,319,2
311,313,310,320,2
311,323,311,321,2
311,330,310,321,2
310,334,309,321,2
309,337,308,319,2
308,341,306,318,2
307,344,305,316,2
306,345,305,315,2
307,342,305,314,2
307,336,306,313,2
307,330,305,312,2
307,327,305,311,2
308,326,305,311,2
308,325,304,311,2
308,323,304,311,2
308,319,304,311,2
309,316,305,311,2
309,313,305,312,2
311,312,306,312,2
312,309,307,312,2
313,303,308,312,2
314,293,310,312,2
314,282,311,313,2
313,270,311,314,2
312,259,311,316,2
311,253,312,317,2
310,254,312,318,2
310,263,312,319,2
309,277,311,319,2
309,290,312,318,2
309,300,312,317,2
310,305,312,317,2
311,305,313,316,2
312,301,312,316,2
312,296,312,315,2
312,293,311,315,2
312,295,309,316,2
311,304,308,315,2
312,318,306,313,2
312,331,306,311,2
312,338,305,309,2
313,337,305,308,2
314,333,306,308,2
315,329,306,308,2
315,324,306,308,2
315,319,307,307,2
315,315,308,307,2
315,314,309,307,2
314,316,310,308,2
314,319,311,309,2
313,324,311,310,2
311,330,310,311,2
310,336,309,311,2
308,341,308,312,2
308,344,307,312,2
307,344,305,312,2
307,341,305,311,2
307,336,304,309,2
306,329,302,307,2
305,323,301,305,2
304,317,300,303,2
303,312,301,302,2
304,309,302,303,2
305,306,304,305,2
306,303,307,308,2
308,298,309,310,2
309,295,312,312,2
310,295,312,314,2
311,299,313,315,2
310,305,312,316,2
310,311,312,317,2
310,316,311,318,2
309,316,312,319,2
309,313,312,318,2
310,306,312,318,2
310,300,313,317,2
310,294,313,315,2
310,291,314,313,2
311,291,314,313,2
312,299,314,313,2
312,312,314,312,2
311,322,312,312,2
310,328,310,311,2
309,327,307,311,2
309,322,306,313,2
309,314,305,314,2
310,304,306,314,2
310,291,306,313,2
311,280,307,311,2
312,274,307,309,2
312,276,308,307,2
312,284,307,305,2
312,296,307,304,2
310,313,307,304,2
309,328,306,306,2
307,339,306,307,2
307,344,305,308,2
306,344,305,308,2
306,342,305,308,2
307,336,305,308,2
308,329,305,307,2
308,321,305,307,2
308,313,306,306,2
307,305,306,305,2
306,300,306,304,2
306,298,306,303,2
306,300,306,302,2
307,302,305,303,2
307,302,305,304,2
307,296,305,305,2
307,287,305,306,2
307,278,305,309,2
307,273,305,310,2
307,273,304,311,2
307,278,304,311,2
306,288,302,311,2
305,301,300,311,2
304,311,299,311,2
303,317,299,311,2
303,316,301,311,2
302,312,303,310,2
302,305,305,309,2
302,302,305,308,2
301,306,305,306,2
301,314,303,304,2
301,325,302,303,2
302,335,302,303,2
303,341,304,302,2
303,344,306,304,2
304,344,308,306,2
305,343,309,308,2
306,340,311,311,2
307,336,311,313,2
309,332,311,314,2
310,326,311,315,2
311,318,311,316,2
311,311,310,315,2
311,306,309,316,2
311,302,308,315,2
311,300,308,315,2
310,302,307,315,2
310,304,306,314,2
308,306,304,312,2
308,308,303,310,2
308,308,302,310,2
309,308,302,310,2
309,305,302,311,2
310,302,303,310,2
309,296,303,309,2
309,288,303,308,2
310,281,304,308,2
311,276,305,307,2
311,275,306,306,2
311,277,307,306,2
310,282,308,305,2
308,290,308,304,2
306,301,308,303,2
305,313,307,304,2
306,324,306,304,2
307,332,306,305,2
307,337,305,306,2
306,339,304,306,2
305,337,303,306,2
305,334,303,305,2
304,331,302,304,2
304,328,301,303,2
304,326,301,302,2
303,324,301,302,2
303,322,301,301,2
303,320,302,302,2
303,315,303,302,2
304,311,303,302,2
304,306,304,302,2
304,301,303,303,2
304,295,304,303,2
305,288,304,302,2
305,281,304,302,2
306,275,304,302,2
307,273,305,301,2
308,275,305,300,2
307,284,304,300,2
307,300,304,301,2
307,317,304,301,2
307,329,304,301,2
307,335,304,302,2
307,337,304,301,2
307,336,304,300,2
305,333,303,299,2
304,329,303,297,2
303,325,303,297,2
302,321,303,297,2
302,317,304,298,2
303,314,305,300,2
304,313,307,302,2
305,316,308,303,2
306,315,309,304,2
305,310,308,304,2
305,305,308,304,2
304,304,307,304,2
303,302,306,304,2
303,299,305,304,2
303,292,304,303,2
302,283,302,303,2
303,273,300,301,2
303,265,298,300,2
304,259,298,297,2
305,259,298,295,2
306,263,299,293,2
306,273,301,293,2
307,285,303,294,2
306,296,305,296,2
306,305,306,299,2
305,310,306,301,2
305,316,305,302,2
305,320,304,303,2
305,325,304,304,2
305,329,304,305,2
304,333,304,305,2
303,336,304,305,2
303,336,304,306,2
303,335,305,307,2
305,331,305,307,2
306,324,304,307,2
307,318,302,306,2
308,312,300,305,2
308,307,298,305,2
309,301,297,306,2
309,294,297,307,2
309,288,298,306,2
309,282,301,306,2
308,278,304,306,2
308,280,307,306,2
308,288,308,307,2
308,302,308,308,2
306,318,308,309,2
305,330,307,310,2
303,338,307,310,2
303,342,306,310,2
302,341,306,310,2
303,335,306,310,2
304,326,306,310,2
304,317,306,309,2
304,310,306,308,2
304,305,306,307,2
304,301,305,306,2
304,300,305,305,2
304,303,305,305,2
305,306,305,305,2
305,309,304,305,2
306,312,305,306,2
305,316,305,306,2
305,319,305,306,2
305,320,305,307,2
305,322,306,308,2
305,323,307,308,2
304,323,307,308,2
304,321,307,308,2
304,317,308,307,2
304,315,308,308,2
304,312,308,309,2
304,310,308,309,2
304,309,308,310,2
305,311,308,310,2
305,312,308,310,2
305,314,308,309,2
305,315,307,307,2
305,314,307,306,2
305,313,306,304,2
305,311,305,303,2
304,310,304,301,2
303,310,303,299,2
302,309,302,297,2
302,305,301,296,2
302,299,300,295,2
302,293,299,295,2
302,289,299,296,2
303,288,300,297,2
303,291,302,300,2
303,296,304,302,2
302,302,306,305,2
302,306,308,307,2
302,308,309,309,2
302,308,310,310,2
302,306,309,311,2
303,304,310,311,2
305,301,311,311,2
307,299,312,311,2
308,299,312,311,2
308,301,311,311,2
307,303,310,310,2
307,304,309,310,2
306,306,308,309,2
305,307,307,307,2
305,306,307,307,2
305,304,306,307,2
305,299,306,307,2
306,294,305,307,2
306,288,305,308,2
307,280,305,307,2
308,272,304,306,2
308,267,303,305,2
307,265,303,304,2
306,266,302,304,2
306,268,302,303,2
305,271,301,302,2
304,276,301,300,2
303,281,301,299,2
303,285,302,299,2
304,289,303,300,2
304,293,305,301,2
305,301,305,302,2
304,309,305,303,2
304,318,305,304,2
304,326,305,306,2
304,331,305,308,2
305,333,305,310,2
307,332,306,312,2
308,330,306,313,2
309,329,307,315,2
309,331,307,317,2
310,333,307,318,2
309,334,307,320,2
309,333,307,322,2
309,330,307,321,2
308,324,307,319,2
308,318,307,316,2
307,313,307,313,2
307,309,306,311,2
307,306,307,310,2
307,303,307,310,2
307,298,307,310,2
307,291,307,310,2
307,285,308,309,2
307,280,307,309,2
306,279,307,309,2
305,280,306,309,2
304,282,306,309,2
304,281,307,309,2
305,278,307,311,2
306,272,308,313,2
307,267,309,314,2
307,266,310,314,2
307,272,311,313,2
306,285,310,311,2
304,302,309,309,2
303,321,308,307,2
302,335,306,304,2
301,343,305,304,2
301,345,304,303,2
302,342,303,301,2
302,335,303,300,2
304,327,304,300,2
306,319,307,302,2
307,311,308,303,2
308,303,309,305,2
308,300,308,306,2
308,301,308,307,2
307,305,307,308,2
307,312,306,309,2
306,318,305,309,2
305,322,305,310,2
305,324,306,311,2
305,324,308,312,2
305,322,311,311,2
305,321,314,310,2
305,318,317,310,2
305,314,318,309,2
305,309,318,309,2
305,301,318,309,2
304,293,317,308,2
303,287,316,307,2
303,284,313,305,2
303,285,312,303,2
302,286,310,301,2
302,287,309,300,2
301,289,308,300,2
300,292,307,301,2
301,296,307,303,2
303,303,307,305,2
303,310,307,306,2
303,316,306,306,2
303,318,305,306,2
301,318,304,305,2
300,317,302,304,2
300,314,301,304,2
299,311,300,303,2
299,307,300,302,2
300,303,301,301,2
300,299,301,301,2
301,295,302,300,2
301,292,303,301,2
302,288,304,302,2
304,285,305,304,2
305,280,306,306,2
307,274,307,309,2
309,267,308,311,2
309,262,309,313,2
309,261,310,314,2
310,262,310,315,2
310,268,310,315,2
308,280,310,315,2
307,298,309,314,2
305,315,309,313,2
304,328,308,311,2
304,334,306,309,2
303,335,305,307,2
303,333,304,305,2
303,328,302,303,2
303,322,302,302,2
303,316,303,301,2
304,310,305,302,2
306,307,308,304,2
307,305,311,308,2
309,306,313,312,2
310,305,314,315,2
310,304,315,316,2
309,302,315,316,2
309,300,314,316,2
309,297,315,316,2
309,296,315,317,2
309,296,316,317,2
310,294,316,318,2
310,290,316,317,2
311,283,315,316,2
311,275,315,315,2
311,268,314,312,2
309,263,313,311,2
308,264,312,309,2
307,270,311,308,2
305,279,309,307,2
304,288,308,306,2
302,294,307,305,2
301,298,306,304,2
300,301,306,304,2
300,305,305,304,2
301,310,306,306,2
302,317,306,306,2
302,324,305,306,2
301,330,305,305,2
301,335,305,304,2
300,338,304,304,2
301,339,304,304,2
303,337,305,305,2
304,334,305,306,2
305,330,305,306,2
306,327,305,305,2
306,323,304,304,2
306,319,303,305,2
306,315,303,305,2
306,311,301,306,2
305,304,301,306,2
305,296,300,305,2
304,288,300,304,2
303,281,299,303,2
302,278,298,302,2
302,277,300,301,2
302,281,303,300,2
303,287,306,300,2
303,291,308,301,2
303,293,309,302,2
304,293,310,303,2
304,290,310,305,2
306,286,310,306,2
307,283,310,307,2
307,285,309,307,2
307,291,309,307,2
307,299,309,308,2
306,307,309,308,2
305,312,309,308,2
304,315,308,307,2
303,317,307,306,2
302,318,305,303,2
301,319,303,301,2
300,317,300,298,2
300,311,299,296,2
301,302,300,295,2
302,293,302,296,2
304,286,305,299,2
307,284,308,304,2
309,288,309,307,2
310,294,309,308,2
310,299,308,308,2
310,302,308,308,2
310,304,308,309,2
310,305,308,310,2
310,306,308,310,2
310,307,308,310,2
309,310,307,310,2
308,310,306,310,2
308,310,305,310,2
307,309,305,310,2
307,306,306,310,2
307,302,306,310,2
307,300,306,310,2
307,301,306,309,2
307,304,305,309,2
307,310,305,308,2
307,314,305,308,2
306,315,305,308,2
307,314,305,308,2
307,313,305,310,2
307,314,306,311,2
307,314,307,312,2
307,311,308,312,2
308,306,308,313,2
309,298,310,312,2
310,291,310,311,2
311,286,309,310,2
311,283,307,308,2
311,284,306,306,2
310,290,304,304,2
309,300,303,303,2
308,308,302,302,2
308,312,302,301,2
308,313,303,300,2
308,311,303,300,2
308,308,304,299,2
307,305,304,299,2
307,305,305,299,2
307,306,306,299,2
307,307,306,300,2
306,308,307,299,2
306,309,307,300,2
306,308,307,300,2
306,304,307,300,2
305,297,307,301,2
306,292,307,302,2
307,289,308,302,2
308,290,308,302,2
309,296,309,302,2
309,306,309,302,2
309,316,309,302,2
309,323,309,302,2
309,328,308,301,2
308,331,307,301,2
308,332,305,300,2
308,332,304,299,2
307,330,303,299,2
307,328,301,299,2
306,325,300,300,2
305,320,298,299,2
304,313,297,299,2
304,307,297,300,2
304,300,299,299,2
305,294,303,299,2
306,289,307,299,2
308,285,311,301,2
309,281,313,303,2
311,279,315,305,2
311,282,315,305,2
310,288,314,305,2
308,294,313,303,2
306,300,312,302,2
305,305,311,300,2
304,310,311,300,2
305,314,311,300,2
306,315,311,300,2
307,313,311,302,2
308,308,312,304,2
310,297,312,305,2
310,283,313,307,2
311,269,314,309,2
311,259,315,310,2
312,255,315,310,2
311,258,314,310,2
311,269,312,309,2
310,285,311,308,2
309,301,309,307,2
309,312,309,307,2
308,318,309,306,2
307,320,309,305,2
306,318,309,304,2
305,315,309,303,2
305,314,310,303,2
305,316,311,303,2
305,319,311,305,2
306,321,312,306,2
306,320,311,306,2
306,318,311,306,2
305,316,310,307,2
304,311,310,308,2
304,304,309,309,2
304,297,308,310,2
304,290,308,310,2
305,286,308,309,2
306,283,308,308,2
306,283,308,307,2
306,286,307,306,2
307,293,307,306,2
307,300,306,306,2
308,306,306,305,2
308,308,307,305,2
307,308,306,304,2
306,309,306,303,2
305,312,306,302,2
305,315,305,303,2
305,317,305,304,2
305,316,305,305,2
306,314,305,305,2
305,311,305,306,2
305,308,305,305,2
304,304,305,305,2
304,302,304,306,2
304,301,304,305,2
303,303,304,305,2
303,306,303,303,2
303,309,303,301,2
302,310,302,300,2
301,309,300,298,2
300,306,298,296,2
300,302,296,294,2
300,297,296,292,2
301,293,295,291,2
302,290,295,292,2
303,287,296,292,2
304,284,298,295,2
305,283,301,298,2
306,284,304,302,2
307,289,306,305,2
308,299,309,307,2
308,312,312,308,2
308,321,313,309,2
308,326,313,309,2
308,326,312,308,2
