307,263,301,308,0
309,266,302,310,0
311,270,305,310,0
313,275,306,308,0
312,284,305,304,0
310,295,303,300,0
307,307,300,295,0
304,318,297,292,0
303,330,297,292,0
304,339,300,294,0
305,337,304,298,0
305,327,308,301,0
306,316,311,305,0
306,304,312,307,0
306,291,312,308,0
306,279,312,308,0
307,272,312,308,0
307,273,312,309,0
307,281,312,311,0
307,292,311,315,0
308,303,311,318,0
309,310,310,319,0
310,313,308,318,0
310,313,306,314,0
309,313,303,312,0
309,313,301,309,0
308,314,300,307,0
306,316,301,306,0
305,318,303,305,0
303,320,304,305,0
303,322,306,305,0
303,324,308,306,0
303,324,309,306,0
302,321,309,306,0
301,316,307,307,0
300,311,304,307,0
300,305,302,306,0
301,299,301,305,0
302,298,300,305,0
304,301,300,304,0
305,306,299,303,0
306,310,298,303,0
306,309,297,302,0
306,304,297,302,0
305,297,298,302,0
304,291,300,302,0
303,287,302,303,0
302,288,306,303,0
301,293,309,304,0
302,301,310,307,0
304,311,311,309,0
306,321,311,310,0
307,330,311,311,0
309,337,310,313,0
310,340,309,313,0
311,330,309,313,0
312,311,309,313,0
313,294,310,314,0
313,283,310,315,0
314,278,310,316,0
315,281,309,317,0
315,292,307,318,0
313,304,305,317,0
310,313,302,314,0
307,319,300,312,0
304,323,300,308,0
300,324,302,305,0
298,322,307,305,0
297,318,311,305,0
298,316,313,305,0
300,317,313,304,0
300,318,310,303,0
300,320,307,302,0
301,322,305,302,0
302,321,305,303,0
303,319,305,303,0
303,316,306,305,0
304,314,308,306,0
304,315,310,307,0
302,318,313,307,0
302,321,316,308,0
302,325,318,310,0
303,325,320,311,0
304,317,320,311,0
307,304,319,311,0
311,292,318,312,0
316,285,317,312,0
319,286,317,312,0
320,291,315,311,0
317,298,313,310,0
313,308,309,308,0
308,316,304,305,0
303,319,299,302,0
300,319,294,298,0
297,316,292,295,0
297,314,293,296,0
297,314,297,299,0
299,314,302,303,0
301,313,306,307,0
304,314,310,311,0
308,320,313,316,0
313,330,315,318,0
316,341,316,318,0
317,349,315,316,0
315,351,312,313,0
310,342,308,309,0
304,330,305,306,0
300,321,304,303,0
298,318,303,303,0
298,320,305,304,0
301,322,308,306,0
304,316,311,307,0
305,302,313,306,0
304,282,313,303,0
303,262,313,300,0
302,247,312,299,0
302,241,313,299,0
302,244,313,301,0
302,255,313,303,0
302,272,312,306,0
303,292,311,307,0
302,310,308,308,0
302,325,306,308,0
303,335,304,307,0
303,338,301,306,0
304,334,298,304,0
304,325,295,303,0
303,315,294,302,0
303,307,295,300,0
303,303,299,298,0
304,306,304,299,0
306,312,311,303,0
308,318,317,307,0
310,323,321,312,0
311,327,324,316,0
312,332,325,319,0
312,337,324,320,0
312,338,322,321,0
311,334,320,319,0
311,327,319,317,0
311,317,318,315,0
312,308,316,312,0
311,306,314,308,0
310,317,311,305,0
309,339,309,303,0
308,358,308,302,0
305,362,305,300,0
301,352,304,299,0
300,338,304,301,0
300,325,305,304,0
302,313,304,306,0
303,302,302,307,0
303,293,298,305,0
303,286,294,303,0
304,285,291,300,0
304,288,292,298,0
304,297,294,297,0
305,309,300,299,0
305,320,306,302,0
306,322,311,305,0
306,318,316,309,0
306,316,319,313,0
307,319,320,318,0
307,326,320,322,0
306,328,319,323,0
303,322,316,321,0
299,309,311,318,0
297,294,308,314,0
296,280,307,312,0
296,270,308,310,0
298,262,309,310,0
300,259,309,309,0
302,262,309,309,0
304,274,308,309,0
305,289,307,309,0
307,302,307,309,0
309,309,308,308,0
310,308,310,308,0
311,301,310,306,0
311,294,309,304,0
311,292,308,303,0
310,304,308,304,0
310,333,307,306,0
309,367,306,307,0
307,396,305,308,0
307,414,305,309,0
307,413,306,311,0
307,391,307,311,0
307,356,309,311,0
307,323,310,310,0
306,299,309,309,0
305,282,307,308,0
304,272,304,307,0
304,268,301,306,0
303,269,298,305,0
304,276,296,305,0
305,290,295,305,0
306,306,294,307,0
307,321,296,307,0
307,330,297,307,0
307,330,299,306,0
306,326,301,305,0
307,318,305,304,0
307,309,306,302,0
308,300,307,299,0
308,293,307,297,0
308,289,306,296,0
307,285,305,296,0
305,281,302,296,0
304,274,300,297,0
303,268,299,299,0
303,263,299,303,0
304,262,302,306,0
305,261,304,309,0
306,264,306,310,0
307,269,309,311,0
308,278,310,311,0
310,287,310,310,0
311,296,310,309,0
311,302,309,307,0
312,307,309,306,0
314,311,309,305,0
316,316,309,306,0
317,322,309,306,0
315,329,307,306,0
312,338,305,306,0
310,347,304,307,0
307,350,303,307,0
304,341,302,307,0
302,324,301,306,0
302,305,301,306,0
303,292,301,305,0
305,286,302,306,0
308,286,304,306,0
310,294,305,307,0
311,309,306,307,0
311,324,306,308,0
311,339,306,310,0
310,354,305,312,0
308,363,304,313,0
305,361,304,313,0
303,350,303,311,0
301,331,302,309,0
301,310,302,305,0
301,291,302,304,0
302,279,302,304,0
303,276,302,304,0
304,278,303,304,0
303,282,304,304,0
303,290,306,305,0
302,298,308,307,0
302,302,310,309,0
302,303,311,309,0
301,305,309,308,0
301,309,308,308,0
302,315,307,309,0
304,322,307,310,0
306,332,307,311,0
308,337,308,313,0
310,334,309,313,0
312,325,309,312,0
313,316,309,311,0
314,308,309,310,0
315,298,307,309,0
315,289,306,306,0
314,283,303,304,0
314,283,301,301,0
312,288,299,299,0
310,292,297,296,0
309,293,295,293,0
307,289,292,290,0
305,282,289,288,0
304,275,287,289,0
304,272,289,292,0
304,273,294,295,0
303,275,300,299,0
304,281,306,304,0
305,291,311,310,0
306,303,314,313,0
306,314,314,315,0
306,320,313,315,0
306,323,311,314,0
306,322,308,311,0
306,322,305,309,0
306,323,303,306,0
307,327,303,306,0
307,330,304,307,0
308,332,305,308,0
308,333,306,309,0
307,334,306,309,0
307,334,305,309,0
308,333,305,311,0
310,333,304,313,0
312,332,304,315,0
313,330,303,315,0
312,325,302,313,0
311,318,300,308,0
309,310,299,305,0
307,301,298,302,0
307,294,298,300,0
308,290,298,298,0
310,294,298,297,0
313,306,298,297,0
315,325,299,297,0
317,342,300,299,0
316,349,301,301,0
314,347,303,303,0
312,337,305,306,0
309,325,308,308,0
308,317,311,310,0
308,316,314,312,0
308,319,316,314,0
308,325,316,316,0
307,326,315,318,0
306,322,314,319,0
305,314,313,319,0
305,305,312,319,0
305,300,312,318,0
305,302,312,317,0
305,310,312,317,0
306,320,311,316,0
308,329,312,314,0
309,333,313,313,0
310,330,313,312,0
311,319,314,310,0
312,304,313,308,0
311,289,312,306,0
310,279,310,304,0
310,277,308,303,0
310,276,307,303,0
310,274,306,302,0
309,272,305,301,0
308,275,304,301,0
307,280,304,300,0
306,287,303,300,0
305,294,303,299,0
305,300,303,298,0
306,306,302,298,0
307,310,300,298,0
308,310,297,297,0
309,309,294,296,0
308,308,291,296,0
308,306,289,296,0
308,304,289,299,0
309,303,292,303,0
309,305,296,308,0
309,308,300,311,0
308,307,304,312,0
307,302,305,311,0
306,295,305,309,0
306,289,304,306,0
307,286,302,304,0
307,288,299,303,0
307,291,296,301,0
305,295,293,299,0
303,304,292,297,0
302,316,293,297,0
303,327,295,299,0
305,336,298,302,0
307,339,301,305,0
308,334,304,308,0
309,325,306,312,0
310,317,308,314,0
310,311,310,315,0
309,308,310,316,0
308,305,310,316,0
307,302,309,316,0
307,299,309,315,0
307,297,308,314,0
307,296,308,313,0
306,295,308,310,0
306,298,308,307,0
307,304,307,307,0
309,316,307,307,0
312,331,308,309,0
316,348,309,311,0
318,362,311,313,0
318,365,311,313,0
316,357,311,313,0
313,345,308,312,0
310,332,306,311,0
309,316,303,309,0
307,297,302,307,0
306,279,300,305,0
304,265,300,303,0
303,259,302,301,0
302,261,306,300,0
301,271,308,301,0
301,285,310,304,0
302,298,311,306,0
303,307,311,309,0
303,311,310,311,0
304,313,308,312,0
305,310,307,314,0
307,307,307,317,0
309,304,308,321,0
311,304,309,323,0
312,307,309,325,0
312,308,308,323,0
310,308,305,321,0
307,308,302,316,0
305,307,298,312,0
304,305,296,307,0
303,304,295,305,0
303,302,296,304,0
303,299,299,305,0
304,300,302,306,0
306,303,303,308,0
307,306,303,309,0
308,307,303,309,0
310,310,303,309,0
311,319,304,309,0
312,332,305,308,0
312,342,306,307,0
311,346,308,307,0
310,344,309,308,0
309,332,311,309,0
309,318,312,310,0
310,306,313,312,0
311,301,313,313,0
312,301,312,314,0
312,302,311,314,0
312,301,310,313,0
312,298,308,313,0
312,296,307,313,0
312,296,306,312,0
311,298,305,310,0
310,298,304,308,0
308,296,304,305,0
306,292,303,301,0
304,291,299,296,0
302,293,294,291,0
300,299,290,289,0
299,308,287,289,0
299,319,287,290,0
301,327,290,294,0
303,330,295,298,0
306,329,301,303,0
310,321,306,305,0
312,307,308,306,0
314,290,309,306,0
316,275,307,305,0
317,266,305,304,0
317,264,304,303,0
316,266,303,301,0
314,273,303,300,0
312,287,304,299,0
309,303,306,300,0
306,317,309,303,0
304,326,312,306,0
303,329,314,308,0
303,330,314,308,0
303,329,313,307,0
304,329,312,305,0
304,328,310,305,0
305,329,309,305,0
306,329,309,306,0
308,325,311,306,0
308,315,311,305,0
308,302,308,301,0
307,289,304,297,0
307,280,299,293,0
307,280,294,290,0
307,287,291,288,0
307,298,290,288,0
308,310,293,291,0
308,314,297,295,0
308,308,302,298,0
307,297,307,301,0
307,290,311,304,0
306,290,314,305,0
306,295,315,307,0
306,303,316,308,0
305,314,316,310,0
305,325,315,312,0
305,336,314,313,0
306,345,313,313,0
306,347,311,311,0
306,343,309,309,0
306,331,307,306,0
305,312,306,303,0
305,292,306,302,0
304,275,305,300,0
305,265,305,300,0
307,262,307,301,0
310,263,308,301,0
311,270,310,301,0
312,283,309,302,0
312,300,308,302,0
312,319,307,304,0
313,340,306,307,0
313,357,305,308,0
310,361,303,308,0
305,353,301,307,0
301,342,299,306,0
298,332,298,305,0
296,323,297,304,0
296,314,296,302,0
296,306,296,300,0
298,302,296,301,0
300,301,296,303,0
302,303,297,306,0
304,305,298,309,0
306,305,300,312,0
305,304,303,313,0
305,303,306,313,0
305,302,309,312,0
306,303,310,311,0
308,306,310,309,0
308,311,307,308,0
306,314,305,306,0
304,313,303,304,0
302,310,302,302,0
301,312,301,301,0
300,324,301,299,0
300,342,302,298,0
301,362,304,300,0
302,376,305,303,0
303,377,305,305,0
303,362,304,305,0
302,338,301,303,0
300,314,298,300,0
299,293,297,297,0
298,278,296,297,0
298,269,297,298,0
299,265,298,300,0
301,265,302,304,0
302,267,307,308,0
303,271,312,311,0
305,276,316,313,0
307,280,318,314,0
308,281,319,314,0
309,282,319,314,0
309,286,318,314,0
310,293,318,314,0
311,302,317,315,0
312,311,317,316,0
314,319,316,317,0
315,328,315,317,0
314,332,314,315,0
313,333,312,314,0
311,331,311,313,0
311,326,309,312,0
310,317,309,312,0
310,302,307,310,0
309,281,305,308,0
308,259,302,305,0
307,245,300,303,0
307,241,299,302,0
306,245,299,302,0
304,256,301,302,0
303,271,303,305,0
303,287,306,308,0
303,300,309,311,0
303,308,311,313,0
303,314,312,315,0
304,320,312,317,0
305,325,311,318,0
305,326,310,317,0
304,328,308,315,0
303,333,306,312,0
303,338,305,310,0
303,338,306,308,0
303,331,306,307,0
304,318,306,307,0
305,305,307,308,0
307,298,308,310,0
308,297,310,312,0
309,303,310,313,0
309,310,310,314,0
308,316,310,315,0
308,320,309,316,0
308,321,308,315,0
308,320,307,313,0
309,319,306,311,0
311,319,306,310,0
314,320,307,309,0
316,319,308,309,0
317,312,308,309,0
317,302,308,309,0
315,292,308,309,0
311,288,307,309,0
308,288,306,310,0
305,291,304,311,0
303,298,305,313,0
302,310,305,314,0
300,325,305,314,0
299,337,305,313,0
299,346,306,312,0
300,349,306,311,0
302,347,307,311,0
305,340,307,311,0
308,337,309,311,0
311,335,309,312,0
311,331,309,312,0
310,321,306,312,0
308,308,303,311,0
306,299,300,310,0
305,295,297,309,0
305,293,296,308,0
306,294,296,309,0
307,298,299,312,0
309,301,303,316,0
309,300,307,319,0
308,295,310,320,0
304,289,311,319,0
302,285,312,318,0
300,282,314,316,0
300,283,315,314,0
301,287,315,313,0
302,293,315,313,0
304,299,314,312,0
305,304,313,310,0
305,311,310,307,0
304,321,306,304,0
303,330,302,301,0
302,335,297,298,0
301,334,292,295,0
299,323,289,294,0
298,307,287,295,0
298,293,288,296,0
297,285,290,298,0
297,283,293,300,0
298,285,299,303,0
298,287,304,305,0
300,286,309,307,0
302,280,311,308,0
306,267,311,309,0
309,250,309,310,0
313,236,307,311,0
316,229,308,312,0
319,233,309,313,0
320,246,311,314,0
318,261,311,314,0
313,279,310,313,0
308,299,308,313,0
304,321,308,314,0
301,341,307,314,0
299,356,309,314,0
298,367,312,313,0
298,372,315,312,0
298,374,317,311,0
298,373,319,311,0
299,367,318,311,0
301,356,317,309,0
304,346,315,307,0
306,337,314,307,0
308,330,313,307,0
309,324,312,307,0
310,318,312,308,0
311,314,312,309,0
311,312,312,310,0
311,310,312,311,0
312,306,312,311,0
312,302,311,311,0
312,297,310,310,0
312,296,308,309,0
311,297,306,308,0
310,297,304,307,0
308,295,303,306,0
307,295,303,305,0
308,300,305,308,0
310,310,309,310,0
312,320,312,312,0
313,329,313,312,0
313,334,313,312,0
312,334,312,310,0
311,331,311,309,0
310,324,310,308,0
309,312,308,306,0
307,300,307,305,0
307,292,308,306,0
307,289,309,306,0
307,287,309,306,0
307,285,309,306,0
307,283,308,307,0
307,281,307,307,0
307,278,306,307,0
308,278,306,307,0
311,283,306,308,0
313,295,309,311,0
316,308,312,313,0
317,319,314,314,0
317,326,314,316,0
315,331,314,316,0
312,334,313,316,0
310,337,311,315,0
308,341,309,314,0
307,344,308,312,0
306,343,306,309,0
306,336,304,307,0
306,328,303,305,0
306,318,303,304,0
307,307,303,303,0
307,293,303,301,0
307,280,303,299,0
307,269,303,299,0
307,261,304,300,0
307,254,306,301,0
307,249,306,302,0
306,250,305,303,0
305,257,303,304,0
304,267,301,304,0
304,278,299,303,0
304,289,298,302,0
305,297,298,303,0
306,302,300,304,0
308,303,300,306,0
309,303,302,307,0
309,301,303,307,0
309,300,304,305,0
309,300,305,304,0
308,300,307,303,0
308,303,308,304,0
308,307,308,304,0
309,313,308,305,0
309,318,308,306,0
310,324,308,307,0
310,328,307,307,0
309,329,305,307,0
309,331,303,307,0
309,333,302,307,0
308,333,300,307,0
307,333,298,306,0
307,336,297,304,0
307,341,297,303,0
308,348,299,303,0
310,353,300,304,0
312,349,300,304,0
312,336,298,305,0
311,326,297,306,0
310,323,297,307,0
307,321,298,307,0
304,311,299,307,0
301,298,301,308,0
299,285,302,308,0
299,277,301,308,0
299,272,300,308,0
300,271,298,308,0
301,272,297,308,0
301,275,297,308,0
302,280,296,308,0
303,290,296,307,0
304,303,297,307,0
305,316,299,306,0
306,327,300,305,0
306,335,301,304,0
306,341,304,303,0
307,341,306,304,0
307,336,308,305,0
307,325,309,307,0
307,311,309,307,0
307,294,309,308,0
306,280,309,308,0
306,274,309,309,0
308,275,310,311,0
310,281,312,312,0
311,290,313,314,0
311,301,313,315,0
309,310,312,314,0
308,315,311,313,0
307,318,309,313,0
306,323,307,312,0
306,331,306,312,0
305,340,305,312,0
304,344,302,310,0
302,343,301,308,0
300,340,300,307,0
299,332,301,306,0
299,318,302,307,0
299,303,303,308,0
299,293,304,309,0
299,289,304,311,0
299,291,304,313,0
300,294,305,314,0
302,296,307,315,0
303,291,308,313,0
304,280,310,312,0
304,270,313,310,0
305,265,316,309,0
307,268,318,310,0
308,279,319,312,0
307,290,318,312,0
306,299,315,312,0
304,306,313,311,0
303,313,310,309,0
300,319,306,306,0
298,323,302,303,0
294,321,298,298,0
291,315,293,293,0
289,308,289,289,0
288,303,288,288,0
289,298,289,290,0
291,296,294,297,0
295,296,300,304,0
299,297,305,310,0
302,302,307,314,0
304,309,307,316,0
304,318,307,317,0
305,326,307,318,0
305,333,308,318,0
306,335,309,317,0
306,333,309,316,0
306,328,308,315,0
305,319,307,313,0
303,309,305,310,0
302,301,302,306,0
302,295,299,302,0
302,293,297,299,0
302,292,295,296,0
303,289,295,296,0
304,289,296,297,0
306,289,298,300,0
307,288,299,303,0
309,290,300,306,0
311,297,303,310,0
313,307,306,314,0
314,316,309,317,0
315,321,311,319,0
314,322,313,319,0
312,314,313,319,0
309,301,314,317,0
307,286,314,315,0
306,274,314,313,0
305,267,313,312,0
305,266,312,312,0
306,273,312,313,0
308,284,311,314,0
309,299,309,315,0
310,316,307,316,0
312,328,306,317,0
312,332,304,315,0
312,329,302,314,0
311,323,301,312,0
309,313,301,310,0
306,301,301,307,0
304,288,303,305,0
303,282,304,304,0
302,283,305,305,0
301,289,305,306,0
301,292,306,309,0
302,293,308,311,0
304,293,310,312,0
305,294,312,314,0
306,298,313,314,0
305,301,314,314,0
304,303,314,312,0
303,304,313,310,0
303,304,312,309,0
303,308,311,308,0
303,316,311,307,0
304,328,310,307,0
306,341,310,308,0
307,352,310,309,0
308,357,309,310,0
308,357,309,311,0
308,356,309,312,0
308,357,308,314,0
308,356,308,315,0
307,354,308,315,0
306,348,309,314,0
306,338,309,313,0
305,323,309,311,0
304,302,308,308,0
304,281,306,305,0
303,265,303,303,0
302,257,301,302,0
302,254,299,301,0
301,256,298,301,0
301,260,299,302,0
302,268,304,305,0
304,278,309,308,0
304,287,312,309,0
303,292,314,309,0
302,293,314,307,0
301,291,314,304,0
301,290,313,301,0
300,291,313,298,0
300,295,311,298,0
300,299,308,298,0
300,302,306,299,0
300,305,303,300,0
300,308,302,301,0
301,310,301,302,0
302,312,302,302,0
302,314,302,300,0
303,317,303,299,0
303,319,304,297,0
303,320,306,297,0
304,319,308,298,0
304,319,311,301,0
306,319,314,304,0
308,317,315,307,0
311,314,315,310,0
312,309,314,313,0
313,305,314,315,0
312,304,315,317,0
311,306,316,318,0
309,310,315,319,0
307,316,315,318,0
305,324,314,318,0
304,335,313,318,0
305,346,314,317,0
304,355,314,316,0
305,356,315,314,0
304,344,315,311,0
303,319,316,308,0
302,294,315,306,0
302,277,314,304,0
302,271,313,303,0
303,273,312,302,0
303,279,311,301,0
303,284,311,301,0
304,287,309,302,0
304,287,308,303,0
305,290,307,305,0
305,298,307,307,0
306,309,307,307,0
306,317,308,307,0
306,319,308,307,0
305,315,308,307,0
304,306,308,308,0
305,295,309,308,0
305,284,310,308,0
306,273,310,309,0
306,265,311,309,0
306,259,312,309,0
306,256,311,309,0
305,258,311,310,0
304,267,311,312,0
302,280,311,313,0
300,289,311,314,0
298,296,310,314,0
297,303,308,314,0
297,308,305,313,0
298,312,304,312,0
299,314,303,309,0
301,316,302,307,0
304,321,303,306,0
307,330,305,307,0
310,342,308,309,0
311,353,310,311,0
310,360,310,312,0
307,361,309,311,0
305,358,308,310,0
303,356,306,307,0
301,354,305,305,0
300,348,304,303,0
299,335,303,301,0
300,316,303,300,0
301,298,303,300,0
304,285,304,302,0
307,281,306,305,0
311,285,308,309,0
315,294,310,313,0
317,305,311,316,0
317,317,311,317,0
315,326,310,317,0
312,330,308,315,0
310,331,307,315,0
308,337,307,315,0
307,346,304,314,0
305,353,300,311,0
304,353,297,306,0
304,347,295,302,0
305,332,295,299,0
305,309,296,296,0
305,286,298,293,0
305,266,299,291,0
305,253,299,290,0
305,248,299,291,0
306,251,299,294,0
306,261,299,297,0
305,275,300,301,0
304,289,302,304,0
305,301,303,307,0
305,307,304,307,0
305,309,303,306,0
304,307,302,303,0
303,304,301,302,0
303,302,301,302,0
303,299,302,303,0
304,297,305,304,0
305,297,306,308,0
307,298,307,312,0
310,300,306,315,0
312,303,303,317,0
313,310,299,317,0
312,319,297,317,0
311,329,300,315,0
312,337,303,314,0
311,339,306,312,0
311,334,305,310,0
309,325,302,309,0
307,315,299,308,0
305,308,300,308,0
305,302,304,307,0
305,296,308,307,0
306,290,312,306,0
307,286,315,306,0
309,288,316,306,0
309,302,315,305,0
308,318,313,305,0
307,330,310,305,0
306,337,309,305,0
306,336,308,305,0
304,325,307,303,0
303,308,305,301,0
302,293,303,299,0
301,287,300,297,0
302,291,299,297,0
304,302,300,300,0
307,316,303,303,0
308,328,306,306,0
307,334,309,308,0
305,331,310,308,0
303,321,310,307,0
301,308,310,305,0
300,299,311,304,0
301,296,312,304,0
302,298,314,304,0
304,305,316,304,0
306,314,317,304,0
307,319,318,304,0
308,317,319,305,0
308,308,318,305,0
307,299,318,306,0
306,297,318,307,0
306,302,317,308,0
305,306,316,309,0
304,308,314,308,0
304,307,313,307,0
303,306,312,307,0
302,304,311,307,0
302,301,311,306,0
301,300,310,305,0
301,298,309,304,0
300,297,309,303,0
300,297,309,303,0
301,297,310,304,0
302,298,312,306,0
304,300,313,308,0
305,302,314,310,0
305,304,314,312,0
306,307,315,314,0
307,309,314,316,0
308,311,313,317,0
309,312,311,317,0
309,313,308,316,0
308,316,306,313,0
308,320,305,311,0
309,327,304,309,0
308,333,303,307,0
306,336,301,305,0
304,334,300,303,0
302,326,300,303,0
301,317,300,305,0
300,309,301,305,0
299,304,301,305,0
298,302,302,303,0
296,300,304,302,0
296,298,305,300,0
296,295,306,298,0
297,292,306,298,0
298,291,305,297,0
299,292,303,296,0
299,295,301,296,0
300,301,301,295,0
300,306,302,295,0
300,309,304,296,0
301,312,308,297,0
303,313,312,300,0
305,313,316,303,0
309,310,319,306,0
311,307,321,309,0
314,308,322,311,0
315,313,322,314,0
316,323,322,315,0
315,336,321,316,0
314,350,319,316,0
313,360,318,315,0
312,363,316,313,0
310,356,314,311,0
308,340,312,309,0
305,322,312,307,0
304,304,312,305,0
304,292,312,304,0
305,287,312,303,0
306,285,312,301,0
306,284,312,300,0
306,281,313,301,0
307,277,313,302,0
308,273,314,304,0
310,272,315,305,0
313,272,315,307,0
316,274,314,308,0
318,278,313,309,0
318,283,312,310,0
317,287,312,309,0
315,290,310,308,0
312,288,309,305,0
310,282,309,304,0
309,274,311,303,0
310,265,312,303,0
311,259,314,302,0
312,259,314,303,0
313,268,314,303,0
314,282,313,304,0
314,299,313,305,0
313,313,312,306,0
311,321,311,306,0
310,327,310,305,0
310,334,310,305,0
310,345,309,305,0
310,360,308,307,0
309,377,307,309,0
309,391,307,310,0
308,394,306,310,0
307,381,306,309,0
306,356,305,307,0
306,328,306,306,0
306,304,306,305,0
305,285,305,303,0
305,273,305,301,0
305,268,305,300,0
305,268,305,299,0
305,274,306,300,0
306,284,307,302,0
306,294,308,305,0
307,298,309,307,0
307,298,309,309,0
308,296,309,310,0
308,294,309,310,0
309,294,310,310,0
311,298,311,310,0
313,313,313,311,0
316,335,314,313,0
317,358,315,314,0
316,370,313,313,0
312,365,310,309,0
307,347,307,306,0
302,323,304,303,0
298,303,304,302,0
297,292,304,303,0
297,288,304,305,0
297,286,304,307,0
297,285,303,306,0
297,286,302,305,0
296,287,301,303,0
295,289,298,301,0
295,289,296,299,0
296,288,295,298,0
297,287,294,298,0
297,287,295,298,0
298,286,298,300,0
299,287,301,304,0
301,291,304,306,0
303,296,307,309,0
304,301,309,312,0
306,302,311,315,0
307,302,312,315,0
309,301,311,315,0
309,300,311,313,0
310,299,310,312,0
310,297,310,310,0
310,295,310,308,0
309,293,310,306,0
308,292,310,304,0
307,293,309,303,0
307,296,307,303,0
308,300,306,303,0
309,306,306,304,0
309,310,306,305,0
310,311,306,305,0
310,310,307,306,0
311,308,308,308,0
313,307,310,310,0
316,306,312,314,0
318,306,314,316,0
320,306,315,318,0
320,307,316,320,0
320,314,316,320,0
319,327,316,321,0
319,341,314,320,0
318,350,312,320,0
316,352,310,318,0
314,346,306,317,0
312,337,303,315,0
311,328,300,314,0
310,322,299,313,0
310,324,299,312,0
311,333,300,312,0
311,346,302,311,0
311,355,304,311,0
310,350,306,311,0
308,333,306,310,0
307,311,306,310,0
308,294,304,309,0
309,286,303,310,0
312,286,304,311,0
314,289,305,313,0
315,285,306,314,0
314,273,307,314,0
314,259,308,314,0
313,249,308,314,0
312,243,307,312,0
310,246,306,311,0
308,256,305,310,0
306,269,304,309,0
305,282,303,307,0
303,291,302,307,0
302,297,301,306,0
301,301,300,307,0
301,304,299,308,0
302,309,298,309,0
303,319,296,310,0
303,332,295,311,0
303,346,294,310,0
302,354,295,308,0
301,358,298,306,0
301,361,301,304,0
302,361,304,303,0
302,357,305,303,0
302,349,304,302,0
302,339,302,301,0
301,329,299,299,0
300,320,296,297,0
300,313,294,296,0
301,307,295,296,0
302,302,299,298,0
304,297,305,301,0
306,295,311,305,0
309,296,316,309,0
311,300,318,312,0
313,305,319,314,0
313,308,318,315,0
312,308,315,315,0
312,307,313,315,0
311,304,311,314,0
311,301,309,314,0
311,300,308,313,0
312,301,308,313,0
311,304,309,312,0
310,309,309,312,0
309,314,310,313,0
307,318,310,313,0
306,320,309,311,0
305,318,307,309,0
304,311,305,307,0
302,301,302,304,0
301,290,299,302,0
301,281,297,299,0
301,275,295,297,0
303,273,295,298,0
305,276,297,302,0
308,283,299,305,0
310,291,301,308,0
311,303,303,310,0
312,316,305,313,0
313,323,308,314,0
313,323,311,316,0
313,320,314,316,0
312,313,316,316,0
309,307,316,314,0
308,301,316,313,0
307,297,316,312,0
307,296,314,311,0
307,296,312,310,0
307,292,311,309,0
307,286,310,307,0
306,280,310,306,0
306,276,311,306,0
306,279,312,308,0
307,289,313,310,0
308,304,313,313,0
309,322,313,316,0
310,335,312,318,0
310,338,311,318,0
309,333,310,315,0
308,325,308,312,0
306,318,306,308,0
304,314,304,305,0
303,310,301,304,0
301,306,299,303,0
300,300,299,302,0
299,293,298,301,0
298,287,297,300,0
297,283,294,299,0
296,283,291,298,0
295,285,288,298,0
294,290,288,299,0
294,295,290,301,0
297,301,294,305,0
300,309,299,309,0
303,316,303,312,0
304,323,306,315,0
306,326,309,318,0
307,326,311,318,0
308,325,313,317,0
310,326,314,315,0
312,327,314,313,0
313,329,313,311,0
314,329,312,310,0
313,325,309,311,0
311,316,307,311,0
309,305,307,311,0
307,296,307,312,0
307,290,308,313,0
308,289,307,315,0
309,292,307,317,0
311,299,308,319,0
313,309,309,319,0
313,314,310,318,0
311,316,311,316,0
308,313,312,314,0
305,307,312,312,0
302,300,310,310,0
300,294,308,309,0
298,291,306,308,0
298,290,305,308,0
298,290,305,307,0
298,292,305,306,0
299,295,304,304,0
300,298,302,302,0
300,302,302,302,0
301,303,302,303,0
301,303,302,304,0
301,299,303,304,0
300,295,305,305,0
300,292,308,305,0
300,292,311,306,0
300,295,314,307,0
301,302,314,307,0
301,312,315,308,0
302,324,314,309,0
304,333,314,311,0
305,335,313,312,0
305,327,310,312,0
304,313,306,310,0
303,299,303,308,0
302,289,301,305,0
301,285,300,304,0
303,289,299,304,0
305,297,300,304,0
308,306,302,305,0
311,313,304,306,0
312,317,304,306,0
311,315,302,305,0
309,310,299,304,0
307,306,298,304,0
306,309,299,306,0
306,318,302,308,0
307,326,305,311,0
308,330,309,313,0
308,331,311,314,0
308,330,313,314,0
308,329,314,313,0
308,327,314,313,0
309,322,315,313,0
309,310,314,313,0
310,292,314,313,0
311,273,313,312,0
311,262,311,311,0
310,258,311,310,0
309,258,310,310,0
307,262,309,309,0
307,267,309,308,0
305,272,309,307,0
304,278,308,305,0
303,283,306,303,0
301,286,304,302,0
300,287,303,302,0
299,287,303,303,0
299,288,304,305,0
299,290,306,308,0
299,296,308,310,0
300,303,310,311,0
300,309,311,312,0
301,314,311,311,0
302,318,310,310,0
304,320,309,308,0
305,320,307,306,0
307,321,306,304,0
307,323,304,302,0
308,326,303,302,0
307,329,302,301,0
306,331,302,300,0
304,327,302,299,0
302,321,302,299,0
301,313,302,299,0
301,304,303,299,0
301,296,304,299,0
303,291,306,301,0
304,291,307,303,0
305,292,307,304,0
306,293,306,304,0
307,293,304,305,0
308,295,304,305,0
309,299,305,307,0
311,304,307,309,0
313,309,309,312,0
315,314,310,314,0
314,317,310,314,0
313,315,309,313,0
310,310,308,310,0
307,310,306,307,0
305,317,305,305,0
304,322,305,304,0
304,321,305,302,0
304,311,305,301,0
304,297,306,301,0
305,287,307,303,0
306,281,308,305,0
305,282,309,308,0
304,291,308,311,0
303,303,308,313,0
302,312,308,315,0
302,311,308,314,0
301,307,309,313,0
302,304,309,311,0
303,304,309,310,0
304,306,308,308,0
303,305,305,307,0
303,301,303,305,0
303,296,301,303,0
303,292,300,301,0
304,289,300,302,0
305,286,300,304,0
307,284,301,306,0
308,283,301,308,0
308,284,299,308,0
308,286,297,308,0
308,288,297,308,0
308,292,299,309,0
308,297,301,310,0
308,299,303,310,0
307,301,306,310,0
306,299,309,310,0
305,294,312,311,0
304,286,316,311,0
304,277,320,310,0
304,268,324,310,0
306,262,327,311,0
308,261,327,311,0
311,265,326,312,0
311,276,322,314,0
311,293,315,315,0
309,310,309,314,0
305,326,304,312,0
302,336,300,308,0
300,339,297,305,0
300,337,295,304,0
300,334,295,304,0
301,332,295,304,0
301,333,297,305,0
302,334,299,305,0
302,334,302,305,0
302,332,304,306,0
302,329,306,307,0
302,326,308,307,0
303,325,309,308,0
305,330,311,310,0
309,335,313,313,0
313,333,314,315,0
315,325,315,315,0
315,315,314,314,0
312,306,313,311,0
307,302,310,310,0
303,303,308,309,0
300,303,307,308,0
299,298,305,308,0
298,290,304,308,0
297,283,302,307,0
298,277,301,306,0
298,273,300,306,0
300,270,300,306,0
301,270,300,306,0
302,271,298,306,0
303,275,297,306,0
304,279,297,305,0
306,283,297,304,0
307,288,299,304,0
307,293,302,304,0
307,296,304,305,0
306,298,306,306,0
306,303,308,306,0
307,313,309,307,0
308,325,308,307,0
309,335,308,307,0
310,339,307,307,0
311,336,306,307,0
311,328,306,308,0
312,323,305,309,0
314,326,306,311,0
316,338,307,313,0
317,355,308,315,0
317,367,308,314,0
314,365,305,310,0
308,351,301,305,0
303,330,298,302,0
299,311,297,300,0
297,299,297,300,0
297,293,300,302,0
298,287,302,305,0
299,279,303,307,0
300,270,303,308,0
301,264,303,309,0
303,258,303,309,0
304,255,303,309,0
305,255,304,308,0
305,260,305,308,0
305,267,307,308,0
305,275,309,309,0
305,283,309,310,0
304,293,309,310,0
303,309,308,309,0
304,327,307,309,0
304,343,306,310,0
305,352,306,312,0
306,351,305,313,0
306,339,306,313,0
305,324,306,313,0
303,314,307,313,0
302,310,308,314,0
303,310,309,316,0
303,312,310,317,0
304,314,311,318,0
304,312,312,319,0
305,308,312,319,0
306,303,312,319,0
307,300,312,317,0
308,302,312,316,0
308,308,311,316,0
308,313,309,316,0
307,314,308,315,0
307,311,307,315,0
307,305,304,312,0
307,296,302,310,0
307,289,301,307,0
308,283,300,304,0
309,283,298,303,0
308,289,297,302,0
307,298,295,300,0
304,308,295,298,0
303,314,297,297,0
305,316,300,299,0
308,317,305,301,0
311,318,309,305,0
314,322,312,307,0
316,326,312,310,0
316,331,311,310,0
314,334,309,309,0
311,334,309,309,0
308,329,310,309,0
307,320,311,309,0
306,309,311,308,0
305,299,312,307,0
305,293,313,307,0
305,291,312,308,0
306,292,311,310,0
306,296,310,312,0
306,304,308,312,0
306,317,307,312,0
306,330,306,310,0
306,340,305,308,0
307,343,305,306,0
308,338,306,305,0
309,325,306,303,0
310,307,307,302,0
311,289,306,300,0
310,272,305,298,0
310,261,303,297,0
309,258,301,294,0
309,265,298,292,0
308,278,294,289,0
306,294,291,287,0
304,309,289,287,0
303,317,290,287,0
302,317,294,291,0
304,312,300,296,0
305,307,306,301,0
308,305,311,304,0
311,307,313,306,0
313,311,313,306,0
314,314,313,304,0
315,317,312,303,0
317,319,312,303,0
318,323,312,302,0
317,326,310,301,0
316,330,308,300,0
315,335,306,300,0
312,338,305,299,0
309,338,304,298,0
306,335,303,297,0
304,331,303,298,0
303,327,304,300,0
303,324,305,302,0
304,320,306,304,0
305,317,306,305,0
307,312,307,307,0
310,307,308,308,0
311,303,310,309,0
313,300,311,311,0
315,302,312,312,0
315,308,312,312,0
314,316,312,311,0
313,324,311,310,0
311,335,310,309,0
311,345,310,309,0
310,349,310,308,0
309,347,310,307,0
308,342,310,306,0
308,332,310,305,0
309,319,309,303,0
310,308,309,302,0
309,298,308,300,0
308,292,307,299,0
307,289,308,298,0
306,288,308,297,0
305,289,309,297,0
305,294,310,298,0
305,304,311,299,0
306,320,312,300,0
306,333,312,302,0
305,337,311,302,0
305,334,310,303,0
305,323,309,303,0
306,306,308,303,0
306,294,308,303,0
306,290,309,302,0
306,296,310,302,0
308,311,311,302,0
309,331,312,302,0
311,347,312,301,0
311,350,311,299,0
310,336,309,296,0
307,309,307,294,0
305,281,306,294,0
303,259,306,294,0
303,243,307,295,0
303,232,308,296,0
303,231,308,297,0
304,243,309,299,0
305,267,309,302,0
305,296,309,304,0
306,317,308,304,0
306,326,308,304,0
308,327,308,305,0
309,327,307,307,0
310,327,307,309,0
310,327,306,310,0
309,327,305,311,0
307,326,304,311,0
304,323,304,311,0
301,317,306,310,0
298,311,307,309,0
297,306,309,308,0
298,305,310,307,0
299,309,309,305,0
302,316,307,303,0
304,327,305,302,0
306,339,302,300,0
305,345,298,297,0
303,337,295,293,0
301,320,294,292,0
301,302,295,293,0
302,287,296,297,0
303,278,297,300,0
304,273,300,303,0
305,269,302,303,0
305,265,303,303,0
304,261,302,303,0
303,258,301,302,0
303,254,302,301,0
304,251,303,302,0
304,251,304,303,0
305,257,306,304,0
305,272,308,304,0
304,287,308,304,0
304,300,307,305,0
305,311,305,307,0
305,322,303,308,0
306,334,303,309,0
306,343,303,310,0
306,344,304,310,0
305,336,305,309,0
305,322,306,308,0
306,310,307,307,0
307,304,308,306,0
310,303,309,307,0
312,304,309,307,0
313,307,308,306,0
312,305,306,305,0
309,297,304,304,0
307,287,302,304,0
306,280,300,304,0
305,278,300,305,0
306,280,300,307,0
306,285,302,309,0
306,292,305,310,0
305,300,308,310,0
304,308,310,309,0
302,314,311,307,0
301,318,311,306,0
300,318,311,305,0
301,316,310,304,0
302,315,310,303,0
303,317,309,302,0
304,319,308,302,0
304,321,308,302,0
305,322,309,303,0
306,324,311,305,0
308,331,312,307,0
308,336,311,308,0
307,339,309,309,0
305,339,306,309,0
303,341,304,309,0
303,347,303,309,0
303,351,303,309,0
304,348,303,307,0
304,338,303,305,0
304,326,302,304,0
303,312,302,303,0
302,295,300,303,0
301,278,299,301,0
299,264,299,299,0
298,254,300,298,0
297,250,302,297,0
297,250,305,296,0
299,253,308,296,0
301,259,309,298,0
303,269,311,300,0
306,284,312,303,0
308,302,313,305,0
311,324,313,307,0
312,346,312,308,0
311,361,308,305,0
307,364,301,301,0
302,357,293,297,0
297,340,288,293,0
293,314,287,292,0
293,290,290,295,0
295,271,296,299,0
298,259,302,303,0
301,254,306,306,0
304,254,308,308,0
305,257,308,308,0
305,259,307,307,0
305,258,305,306,0
304,258,301,306,0
304,258,298,308,0
304,258,297,309,0
304,258,297,310,0
305,260,297,312,0
306,264,299,314,0
307,268,302,315,0
308,269,304,316,0
309,269,306,318,0
310,268,307,318,0
310,270,307,317,0
309,277,306,316,0
309,288,306,317,0
310,301,308,319,0
311,315,308,319,0
312,327,308,319,0
312,339,307,318,0
312,347,306,317,0
310,352,306,315,0
307,357,306,314,0
305,360,307,314,0
303,362,308,314,0
302,360,310,315,0
302,352,311,316,0
302,336,311,315,0
303,315,311,313,0
303,296,308,311,0
304,287,306,311,0
306,291,303,311,0
307,306,301,310,0
307,323,298,309,0
306,337,297,308,0
306,346,297,306,0
305,349,299,304,0
305,349,301,302,0
306,349,303,301,0
306,347,305,301,0
306,342,305,300,0
306,333,305,300,0
304,324,304,300,0
303,319,303,300,0
302,315,301,301,0
301,311,300,302,0
301,305,300,303,0
302,298,300,305,0
303,289,299,305,0
304,280,298,306,0
306,274,296,305,0
308,270,294,305,0
311,271,293,304,0
314,277,292,304,0
317,294,292,306,0
318,317,292,307,0
315,335,293,308,0
310,345,296,308,0
305,348,301,308,0
302,344,306,308,0
299,335,312,308,0
298,325,317,308,0
298,319,319,310,0
299,316,319,312,0
300,313,318,313,0
303,306,317,313,0
307,296,316,313,0
312,290,317,313,0
316,290,319,314,0
318,294,320,316,0
317,293,320,316,0
314,287,319,316,0
310,284,318,316,0
307,286,316,316,0
304,292,314,316,0
303,298,312,316,0
303,303,310,316,0
303,304,308,316,0
303,301,306,314,0
303,298,303,312,0
303,294,301,309,0
303,289,299,307,0
303,286,298,304,0
303,285,298,302,0
302,292,299,301,0
303,304,301,301,0
304,317,303,304,0
305,329,305,306,0
305,340,305,308,0
305,347,305,310,0
304,346,305,310,0
303,337,306,311,0
303,325,306,313,0
303,317,308,315,0
304,311,309,317,0
305,305,310,318,0
306,299,311,318,0
308,294,313,319,0
310,291,314,321,0
311,291,316,322,0
313,295,315,324,0
314,307,315,326,0
315,326,314,327,0
314,344,313,326,0
311,355,312,325,0
307,358,310,323,0
303,354,308,320,0
301,346,307,318,0
301,337,308,317,0
302,328,310,316,0
303,316,311,315,0
304,299,310,314,0
304,280,309,312,0
304,263,307,311,0
305,252,306,309,0
306,249,305,307,0
307,254,304,306,0
309,267,305,305,0
311,285,306,305,0
314,306,307,306,0
315,326,309,308,0
316,336,310,310,0
315,335,310,310,0
312,325,308,311,0
308,310,308,312,0
305,294,309,312,0
303,282,311,312,0
302,276,312,312,0
302,275,312,311,0
302,277,310,310,0
304,280,308,309,0
306,282,307,310,0
308,285,307,311,0
309,289,307,312,0
310,295,307,312,0
309,302,308,311,0
307,307,306,309,0
304,311,304,305,0
302,311,300,303,0
300,306,298,300,0
298,299,296,298,0
297,296,296,297,0
298,297,299,300,0
300,304,303,304,0
302,310,306,308,0
303,312,309,312,0
304,308,311,313,0
305,304,312,314,0
306,304,313,315,0
306,308,314,315,0
306,313,315,315,0
305,317,315,315,0
305,320,316,315,0
306,319,317,317,0
306,315,317,317,0
306,309,317,316,0
305,304,316,314,0
305,303,315,313,0
305,305,313,310,0
304,309,312,308,0
304,318,312,306,0
305,329,312,305,0
306,344,312,305,0
307,359,311,305,0
308,368,312,307,0
308,362,312,309,0
308,341,312,311,0
306,313,310,311,0
304,289,308,310,0
303,272,306,307,0
303,264,304,304,0
305,263,304,304,0
307,268,306,305,0
310,274,310,308,0
313,278,312,310,0
314,274,313,310,0
313,268,313,310,0
312,263,312,309,0
311,264,312,308,0
310,274,312,307,0
308,289,313,306,0
306,304,314,307,0
305,320,316,308,0
304,330,316,309,0
302,332,314,310,0
299,329,312,311,0
296,326,312,312,0
294,322,311,313,0
293,318,311,312,0
293,316,310,311,0
294,313,310,310,0
295,308,311,310,0
296,299,312,310,0
298,291,314,311,0
300,284,315,313,0
301,276,315,314,0
302,271,316,315,0
303,268,316,316,0
304,270,316,316,0
305,280,314,316,0
306,297,313,315,0
307,315,311,314,0
307,335,309,314,0
306,348,306,313,0
304,347,302,311,0
301,331,297,307,0
298,309,292,304,0
296,291,289,302,0
295,283,287,302,0
293,283,288,302,0
292,286,291,302,0
291,288,294,302,0
291,289,299,300,0
292,288,302,299,0
293,286,304,297,0
295,293,304,295,0
297,314,303,294,0
299,341,301,293,0
300,361,298,294,0
300,368,297,295,0
299,362,298,298,0
297,345,300,301,0
297,323,303,305,0
297,305,305,309,0
299,293,306,313,0
302,288,307,315,0
304,288,308,317,0
305,293,310,318,0
304,297,313,319,0
303,295,316,319,0
300,289,318,319,0
299,285,319,320,0
298,284,318,322,0
299,286,317,323,0
300,290,315,323,0
302,302,314,323,0
306,320,314,323,0
309,339,314,320,0
311,356,313,317,0
312,369,312,314,0
312,372,311,313,0
309,363,310,312,0
307,343,310,311,0
304,322,309,311,0
302,300,308,311,0
300,284,309,311,0
299,277,309,312,0
298,276,310,312,0
298,279,310,313,0
298,283,309,314,0
299,283,309,314,0
300,276,309,314,0
302,265,309,313,0
304,253,309,313,0
307,243,309,312,0
309,236,310,310,0
310,236,310,308,0
310,245,309,307,0
309,262,309,307,0
308,281,307,307,0
306,300,306,307,0
305,315,305,307,0
304,325,303,306,0
304,333,301,304,0
306,342,300,304,0
308,353,299,303,0
310,369,298,304,0
312,386,299,305,0
311,390,299,304,0
308,374,297,302,0
303,347,294,299,0
299,323,291,297,0
296,304,290,295,0
296,292,291,294,0
298,289,294,293,0
303,297,299,295,0
308,316,307,300,0
311,341,314,305,0
313,362,319,310,0
311,368,320,312,0
307,354,318,312,0
303,329,316,310,0
299,304,314,309,0
296,288,312,308,0
295,280,311,306,0
294,278,310,304,0
295,279,307,302,0
296,285,305,302,0
297,292,303,301,0
298,299,301,301,0
300,305,300,303,0
301,308,300,306,0
302,305,301,308,0
303,296,303,309,0
304,287,304,309,0
305,283,304,310,0
306,285,306,311,0
307,292,307,312,0
309,301,308,314,0
311,310,310,315,0
313,315,311,317,0
316,318,311,319,0
318,314,309,318,0
318,305,305,316,0
316,300,301,313,0
313,301,297,309,0
309,305,293,304,0
304,309,292,298,0
299,311,295,294,0
297,310,300,292,0
296,305,307,294,0
297,298,313,297,0
299,293,317,302,0
300,288,317,305,0
302,282,315,307,0
303,279,312,309,0
303,279,310,311,0
305,280,308,312,0
306,283,308,311,0
310,287,310,310,0
314,294,313,310,0
319,303,315,311,0
323,312,316,311,0
324,317,315,311,0
323,320,312,310,0
319,320,308,307,0
312,310,305,304,0
305,291,303,302,0
301,275,303,301,0
300,272,304,304,0
300,280,305,307,0
302,297,307,312,0
303,317,307,316,0
304,332,306,319,0
303,338,304,319,0
302,337,304,318,0
302,334,304,316,0
302,331,305,314,0
302,329,307,313,0
302,327,308,312,0
303,325,309,312,0
303,325,310,311,0
304,324,311,311,0
305,317,311,311,0
306,305,312,311,0
306,295,312,312,0
307,287,312,314,0
308,280,312,315,0
309,274,312,316,0
308,273,310,317,0
307,278,309,318,0
307,289,310,320,0
307,300,311,322,0
308,308,310,322,0
309,316,308,320,0
308,322,304,315,0
307,328,299,308,0
305,336,293,301,0
303,339,289,293,0
302,338,288,285,0
300,332,291,280,0
299,322,294,277,0
297,310,296,276,0
296,301,297,277,0
296,295,298,279,0
297,292,299,286,0
300,290,300,294,0
304,288,301,304,0
307,285,301,311,0
309,280,300,315,0
310,280,298,317,0
309,287,298,317,0
309,297,299,318,0
309,308,303,322,0
309,318,308,327,0
309,324,311,331,0
310,325,312,332,0
311,324,313,330,0
312,326,314,328,0
312,337,315,325,0
311,349,316,324,0
311,358,316,324,0
311,360,315,325,0
313,356,315,325,0
315,350,316,325,0
317,348,316,325,0
318,349,315,324,0
316,341,312,321,0
313,325,308,317,0
309,305,304,314,0
305,286,302,311,0
303,270,301,310,0
302,262,301,309,0
302,259,303,310,0
304,259,305,311,0
306,261,307,312,0
308,262,309,313,0
311,263,309,314,0
312,265,310,316,0
313,269,311,317,0
313,276,312,317,0
312,284,311,316,0
309,288,308,312,0
305,289,304,307,0
303,290,300,304,0
301,291,296,302,0
300,291,294,300,0
300,291,293,299,0
301,294,293,299,0
302,298,293,301,0
303,304,293,302,0
303,306,295,302,0
304,302,298,302,0
305,298,302,303,0
306,299,304,305,0
307,302,304,307,0
307,300,303,308,0
307,294,299,309,0
306,292,293,311,0
305,297,286,311,0
303,311,281,311,0
303,332,276,311,0
303,356,276,311,0
302,376,279,311,0
301,387,285,310,0
300,388,289,310,0
298,376,292,310,0
296,354,292,311,0
294,331,292,313,0
294,312,292,313,0
295,293,296,312,0
297,276,300,309,0
298,264,302,306,0
301,259,304,302,0
303,263,305,298,0
305,273,307,295,0
309,291,310,295,0
312,311,312,298,0
314,326,314,301,0
313,329,314,303,0
309,323,315,304,0
305,314,317,307,0
302,301,318,310,0
301,287,319,313,0
301,277,319,316,0
302,277,320,319,0
304,286,319,320,0
306,302,319,319,0
307,319,318,318,0
308,330,317,317,0
308,326,316,317,0
306,309,315,317,0
304,292,314,317,0
303,282,314,317,0
303,276,313,317,0
303,276,313,318,0
303,283,314,318,0
303,293,316,317,0
301,305,316,316,0
299,317,315,315,0
298,325,314,314,0
297,330,312,314,0
298,332,310,314,0
299,330,310,315,0
302,327,311,315,0
304,323,312,314,0
304,322,313,312,0
304,324,315,311,0
304,327,315,308,0
303,330,314,307,0
303,333,314,307,0
304,337,315,308,0
308,341,317,311,0
311,339,318,313,0
313,328,319,314,0
313,307,318,313,0
309,285,316,309,0
305,267,313,305,0
299,259,308,300,0
295,261,304,297,0
293,270,299,295,0
293,280,295,295,0
294,291,292,294,0
295,299,288,293,0
296,306,284,292,0
296,310,279,290,0
294,312,275,288,0
292,313,274,286,0
289,315,277,284,0
288,319,284,285,0
290,325,295,289,0
295,331,305,295,0
301,335,312,301,0
305,333,315,305,0
307,321,313,308,0
308,309,309,309,0
308,300,305,309,0
306,298,302,309,0
305,299,301,309,0
303,300,302,308,0
301,299,303,307,0
300,298,305,306,0
300,298,306,305,0
301,298,306,307,0
302,302,305,309,0
303,311,304,311,0
304,318,304,312,0
303,319,305,313,0
302,317,309,315,0
301,315,314,317,0
301,310,319,320,0
302,304,323,321,0
303,296,325,321,0
305,287,324,320,0
307,277,322,318,0
309,268,319,316,0
311,264,315,314,0
313,268,312,313,0
314,284,310,313,0
314,314,308,313,0
314,355,307,314,0
313,397,308,314,0
311,422,310,313,0
310,421,314,313,0
310,394,318,313,0
311,353,320,313,0
311,314,319,312,0
310,284,318,311,0
309,267,315,310,0
308,259,312,310,0
307,256,308,310,0
306,255,306,310,0
305,255,304,310,0
305,259,302,308,0
306,266,300,307,0
308,276,298,305,0
310,285,297,304,0
310,292,296,301,0
307,294,296,299,0
304,294,296,298,0
303,293,297,299,0
305,295,299,300,0
307,299,300,302,0
308,306,301,302,0
308,311,301,301,0
307,315,301,300,0
305,319,301,301,0
305,324,303,303,0
305,331,306,305,0
307,343,309,307,0
308,359,310,310,0
310,379,310,313,0
311,397,310,314,0
309,400,308,312,0
307,382,306,310,0
306,356,304,309,0
305,331,303,307,0
303,309,301,302,0
300,292,299,295,0
299,280,299,288,0
299,270,300,283,0
299,266,302,282,0
300,267,305,285,0
302,275,309,289,0
305,288,313,295,0
307,303,315,298,0
308,313,315,300,0
307,313,311,299,0
304,305,305,297,0
302,297,300,296,0
300,295,297,296,0
300,299,297,297,0
301,310,300,302,0
304,322,306,308,0
306,324,310,312,0
306,315,314,313,0
306,302,316,314,0
307,290,317,315,0
307,282,319,316,0
308,282,319,318,0
309,286,318,318,0
310,291,316,318,0
311,294,313,317,0
311,295,312,314,0
312,295,310,312,0
313,296,308,309,0
313,299,304,307,0
312,306,299,307,0
312,315,296,307,0
311,317,294,307,0
308,309,296,306,0
305,299,301,304,0
302,290,309,303,0
302,284,316,303,0
302,280,321,302,0
304,280,323,302,0
306,284,323,304,0
310,292,322,305,0
313,304,320,307,0
314,314,317,307,0
313,313,313,307,0
310,306,308,305,0
307,298,303,303,0
304,296,300,302,0
304,299,298,301,0
304,305,299,300,0
305,310,302,301,0
307,315,306,302,0
308,323,308,305,0
307,332,309,307,0
306,334,307,308,0
303,327,304,307,0
300,315,302,304,0
299,303,301,302,0
298,300,302,301,0
299,308,304,301,0
301,320,308,300,0
302,330,312,301,0
304,332,314,302,0
306,321,315,304,0
307,302,313,306,0
309,286,311,308,0
310,271,310,309,0
310,255,309,310,0
311,243,311,310,0
311,234,313,309,0
311,228,314,307,0
310,229,313,306,0
308,236,313,304,0
306,248,311,304,0
304,264,308,304,0
302,283,306,304,0
299,304,304,305,0
299,324,303,306,0
300,338,303,306,0
300,349,301,306,0
300,352,302,306,0
300,348,304,305,0
300,337,307,306,0
300,324,309,306,0
300,312,310,306,0
300,302,309,304,0
299,296,307,302,0
299,296,306,300,0
298,299,305,299,0
299,306,305,298,0
300,317,304,298,0
301,331,301,298,0
302,346,297,298,0
303,356,295,298,0
302,359,295,299,0
302,355,298,303,0
303,344,303,309,0
304,329,308,314,0
304,313,311,315,0
304,299,311,314,0
305,290,312,313,0
306,287,311,311,0
307,289,310,310,0
307,294,310,309,0
308,301,309,310,0
310,307,309,311,0
311,313,307,312,0
312,315,306,311,0
312,313,303,309,0
312,308,298,306,0
312,302,294,302,0
311,297,290,298,0
311,298,289,297,0
312,307,291,299,0
314,321,293,301,0
314,337,296,302,0
315,353,300,304,0
315,360,304,305,0
313,350,305,305,0
309,329,305,304,0
305,310,304,304,0
302,297,304,305,0
300,289,306,307,0
300,282,307,308,0
301,275,309,309,0
303,269,310,310,0
306,267,313,311,0
310,272,314,313,0
313,286,315,315,0
316,303,314,316,0
317,318,311,316,0
318,328,309,316,0
317,330,307,316,0
315,324,308,314,0
312,310,310,311,0
309,286,313,308,0
308,262,316,306,0
307,244,316,304,0
307,239,314,302,0
307,247,309,303,0
307,266,303,305,0
307,287,297,308,0
307,304,293,309,0
307,313,291,308,0
307,319,291,305,0
308,324,293,304,0
310,326,296,303,0
310,321,298,302,0
309,309,298,301,0
308,299,298,301,0
307,294,300,303,0
308,296,302,307,0
309,303,305,311,0
309,312,308,312,0
309,319,309,312,0
309,323,310,311,0
308,322,309,309,0
307,315,308,306,0
306,304,306,304,0
305,293,303,301,0
306,284,302,300,0
307,280,302,299,0
311,279,303,300,0
314,280,305,302,0
315,283,305,304,0
313,288,305,304,0
310,299,303,303,0
306,313,302,302,0
304,327,302,302,0
302,337,303,302,0
302,337,304,304,0
303,330,306,306,0
304,322,309,311,0
306,315,312,316,0
308,311,314,319,0
310,312,317,320,0
311,316,318,319,0
312,322,317,318,0
315,329,315,315,0
317,335,313,313,0
319,337,312,311,0
319,338,310,309,0
319,344,308,307,0
317,352,306,304,0
314,350,303,301,0
310,332,299,297,0
305,307,296,294,0
302,287,294,292,0
300,274,293,292,0
300,269,292,292,0
299,268,292,292,0
300,269,293,292,0
301,271,295,293,0
302,274,297,296,0
303,277,299,300,0
304,280,301,304,0
306,285,304,309,0
309,293,307,313,0
311,301,310,317,0
313,311,311,319,0
314,321,311,320,0
315,329,311,320,0
315,336,311,319,0
315,343,311,318,0
315,343,309,317,0
313,334,308,316,0
310,321,306,314,0
308,314,304,311,0
305,311,302,308,0
301,307,301,304,0
300,301,300,301,0
299,297,300,300,0
298,294,299,300,0
297,291,298,301,0
297,288,299,302,0
299,284,299,303,0
301,286,302,305,0
304,296,306,309,0
307,310,309,311,0
310,325,310,311,0
312,337,309,311,0
313,337,307,309,0
311,325,305,308,0
308,307,304,307,0
304,291,304,305,0
302,279,305,305,0
302,273,306,305,0
303,274,308,307,0
305,281,308,309,0
306,294,308,310,0
307,308,306,310,0
305,318,304,309,0
304,326,303,311,0
303,334,304,313,0
304,341,305,315,0
304,342,308,316,0
305,337,312,318,0
307,327,316,320,0
309,312,319,322,0
312,299,320,323,0
314,289,320,323,0
315,282,319,321,0
314,277,315,320,0
312,273,312,317,0
310,273,308,315,0
309,277,304,313,0
308,280,300,311,0
306,280,296,308,0
305,277,293,306,0
303,274,293,305,0
301,272,296,305,0
299,273,300,306,0
296,279,304,307,0
295,286,306,308,0
293,295,308,309,0
294,307,308,310,0
296,320,307,312,0
299,331,305,314,0
302,334,303,315,0
304,331,300,316,0
303,325,297,315,0
302,319,295,314,0
301,315,296,313,0
302,310,300,312,0
304,305,304,311,0
307,299,308,311,0
309,295,312,312,0
310,291,314,313,0
312,287,314,313,0
312,286,312,312,0
313,287,309,312,0
313,293,306,311,0
313,305,304,311,0
312,322,304,312,0
312,343,307,313,0
313,361,312,315,0
314,370,317,316,0
314,373,320,318,0
313,366,319,318,0
310,349,317,317,0
306,326,314,313,0
301,303,310,310,0
298,287,307,307,0
297,276,306,306,0
296,268,306,305,0
296,264,307,305,0
297,264,307,305,0
298,269,306,304,0
298,278,306,304,0
300,286,306,304,0
302,293,307,305,0
303,295,307,306,0
304,289,307,307,0
304,281,307,307,0
305,275,307,307,0
305,272,306,305,0
305,273,304,303,0
304,273,301,300,0
303,273,297,296,0
301,273,293,293,0
300,276,290,291,0
300,282,289,290,0
301,291,290,292,0
303,300,293,296,0
306,309,296,301,0
310,315,298,305,0
313,317,300,307,0
314,317,302,307,0
315,319,304,308,0
316,322,307,308,0
316,323,308,308,0
315,322,307,307,0
313,321,304,305,0
312,317,300,303,0
309,313,297,300,0
307,309,295,298,0
307,305,296,297,0
307,302,297,297,0
306,300,297,298,0
305,300,297,299,0
305,301,297,301,0
305,302,296,301,0
306,301,296,300,0
306,297,295,298,0
306,293,295,297,0
306,290,295,295,0
306,291,296,295,0
306,294,294,296,0
305,295,291,296,0
303,294,288,296,0
301,291,286,296,0
300,288,285,296,0
299,284,285,295,0
298,281,286,295,0
297,281,288,296,0
298,281,292,297,0
298,282,295,297,0
299,283,298,297,0
300,284,300,296,0
302,286,301,296,0
304,288,303,298,0
305,290,305,303,0
307,289,308,311,0
308,288,310,318,0
310,286,312,323,0
312,292,313,326,0
315,306,313,328,0
318,329,314,329,0
320,356,315,329,0
320,376,315,326,0
318,384,313,322,0
314,378,309,318,0
310,363,302,314,0
306,345,297,311,0
302,332,294,309,0
299,326,296,309,0
299,320,300,309,0
299,315,305,310,0
300,310,309,312,0
300,306,311,313,0
300,301,310,314,0
299,295,308,315,0
299,288,305,314,0
299,281,303,314,0
301,272,300,312,0
303,262,300,309,0
306,254,302,306,0
309,247,306,305,0
313,245,310,304,0
315,246,312,305,0
318,249,314,309,0
320,256,318,313,0
320,270,321,317,0
320,292,322,320,0
318,316,322,321,0
314,334,320,320,0
310,344,316,319,0
307,345,312,317,0
303,342,306,316,0
301,337,303,315,0
299,332,303,315,0
299,326,303,315,0
299,320,304,314,0
300,317,305,313,0
300,315,304,311,0
299,314,303,311,0
299,313,303,311,0
300,310,304,311,0
302,308,305,313,0
303,306,307,314,0
305,305,308,314,0
306,303,308,315,0
308,304,308,315,0
310,308,309,315,0
311,317,310,315,0
313,330,310,316,0
315,343,310,317,0
315,351,310,316,0
313,351,306,314,0
309,344,301,311,0
305,332,296,305,0
302,318,293,300,0
299,301,289,295,0
297,284,287,291,0
296,271,287,289,0
296,266,289,290,0
298,267,293,292,0
300,272,298,295,0
303,280,303,300,0
305,291,307,305,0
307,306,311,311,0
309,320,314,315,0
311,328,316,317,0
313,331,318,318,0
314,330,319,319,0
313,323,320,321,0
312,311,320,322,0
310,297,319,322,0
308,288,319,321,0
306,287,318,319,0
305,293,315,317,0
304,304,311,315,0
304,316,306,315,0
304,331,303,315,0
304,343,301,316,0
304,348,301,316,0
305,342,304,314,0
305,328,306,311,0
306,312,306,308,0
306,298,304,305,0
305,290,301,302,0
303,282,299,298,0
301,278,298,294,0
299,280,299,292,0
300,288,303,293,0
302,304,309,297,0
305,322,313,302,0
307,331,315,305,0
308,331,315,306,0
309,322,313,306,0
309,307,312,306,0
309,290,311,305,0
311,276,310,304,0
312,271,309,304,0
313,273,307,304,0
312,279,305,305,0
310,286,303,306,0
308,294,303,306,0
306,305,303,305,0
303,319,304,304,0
301,332,306,303,0
301,343,308,304,0
301,346,309,305,0
301,336,309,305,0
302,320,307,305,0
302,302,303,305,0
302,288,299,306,0
302,283,298,308,0
301,287,300,310,0
300,296,305,311,0
300,307,311,311,0
299,318,315,310,0
298,323,318,309,0
297,322,319,308,0
297,314,319,308,0
298,305,317,308,0
298,296,315,308,0
299,289,312,308,0
300,284,311,309,0
301,282,310,309,0
303,286,310,310,0
304,291,310,312,0
306,297,311,313,0
308,300,312,314,0
309,302,313,315,0
310,301,314,317,0
311,298,314,317,0
313,295,313,318,0
314,293,313,317,0
314,293,311,318,0
313,293,309,317,0
310,291,306,316,0
307,290,303,316,0
306,290,302,317,0
304,290,302,315,0
302,289,303,312,0
301,289,304,308,0
301,288,304,305,0
302,288,305,304,0
303,289,305,304,0
306,293,307,305,0
309,300,308,308,0
313,308,309,310,0
314,314,310,311,0
314,317,310,310,0
312,316,308,308,0
309,312,305,305,0
305,301,300,301,0
301,289,295,298,0
298,281,292,295,0
297,279,290,293,0
296,284,290,293,0
296,293,291,294,0
296,303,294,296,0
296,314,297,299,0
297,323,301,303,0
299,325,304,306,0
301,324,307,308,0
304,325,309,311,0
306,335,311,313,0
308,352,312,314,0
309,371,312,313,0
309,394,312,313,0
311,418,312,313,0
313,435,311,315,0
315,442,311,319,0
317,432,310,321,0
316,399,309,321,0
313,351,306,318,0
309,306,305,315,0
305,273,304,312,0
303,257,305,309,0
301,255,306,307,0
301,259,306,306,0
301,265,306,305,0
302,272,306,304,0
303,279,306,304,0
304,286,306,303,0
305,291,305,303,0
306,292,305,301,0
306,289,304,300,0
307,286,304,301,0
308,285,303,302,0
310,286,304,305,0
312,289,305,308,0
314,292,307,311,0
315,295,308,313,0
314,298,309,315,0
312,300,309,316,0
309,299,308,317,0
307,298,307,317,0
306,298,306,316,0
306,299,303,313,0
306,300,300,309,0
305,301,295,304,0
303,300,290,300,0
302,299,289,298,0
301,297,291,296,0
301,293,295,296,0
303,290,300,296,0
306,288,304,299,0
309,289,308,303,0
311,293,310,306,0
312,299,311,308,0
312,305,310,309,0
312,311,309,308,0
311,315,308,307,0
309,318,308,306,0
308,321,308,306,0
307,325,307,307,0
308,330,307,309,0
309,336,308,309,0
310,338,309,308,0
310,336,309,305,0
309,326,307,302,0
306,310,306,299,0
304,297,307,298,0
303,296,309,299,0
303,302,311,301,0
303,312,312,302,0
304,320,312,303,0
304,320,312,303,0
305,311,311,303,0
305,300,309,302,0
305,289,308,302,0
305,283,307,302,0
306,282,306,302,0
306,286,305,302,0
307,293,303,303,0
307,302,302,304,0
308,313,303,307,0
311,325,304,310,0
314,338,307,313,0
316,351,309,315,0
317,357,310,315,0
316,350,310,314,0
314,335,309,312,0
313,322,307,310,0
311,314,305,307,0
308,310,304,305,0
305,310,303,304,0
302,309,302,303,0
299,306,302,304,0
298,299,302,305,0
297,292,303,307,0
298,287,305,309,0
299,284,309,310,0
301,283,312,311,0
302,285,315,311,0
303,289,316,312,0
303,294,316,312,0
303,297,315,312,0
304,297,314,311,0
305,294,314,310,0
306,289,313,308,0
307,281,313,307,0
308,274,312,305,0
308,269,310,303,0
308,273,309,301,0
308,286,308,299,0
307,302,307,297,0
306,316,306,296,0
306,328,307,296,0
305,337,307,296,0
304,345,306,296,0
304,353,305,297,0
304,358,305,298,0
305,357,305,299,0
305,354,305,301,0
306,350,305,302,0
307,345,304,304,0
307,336,304,305,0
306,323,305,305,0
305,307,306,305,0
304,294,307,306,0
304,289,307,306,0
304,292,306,306,0
304,299,305,308,0
306,308,304,309,0
307,318,303,310,0
308,323,302,310,0
306,319,301,311,0
303,309,301,309,0
299,298,302,308,0
299,292,304,308,0
300,290,308,309,0
302,293,311,312,0
304,296,314,314,0
305,298,316,316,0
305,296,315,317,0
306,292,314,316,0
306,288,312,315,0
307,287,311,314,0
307,287,311,312,0
306,289,312,310,0
304,290,313,308,0
302,290,313,306,0
300,294,312,305,0
300,299,310,305,0
299,303,308,305,0
298,304,306,305,0
299,304,305,305,0
300,306,304,306,0
302,309,304,307,0
304,313,303,309,0
307,319,303,312,0
309,329,302,314,0
310,338,300,315,0
310,346,299,315,0
309,344,297,312,0
305,332,295,307,0
301,316,294,303,0
299,299,295,302,0
298,288,297,303,0
297,282,299,305,0
297,281,300,306,0
296,283,300,305,0
295,286,300,304,0
295,288,300,303,0
295,291,301,303,0
296,293,301,303,0
296,295,303,303,0
297,297,305,303,0
299,302,306,304,0
302,308,308,305,0
305,318,309,307,0
308,327,310,309,0
309,333,309,310,0
309,338,308,311,0
309,343,308,314,0
308,347,309,316,0
308,346,311,317,0
307,341,312,316,0
306,330,312,315,0
305,316,311,312,0
304,302,309,309,0
303,290,306,305,0
301,281,303,303,0
300,274,301,302,0
300,271,300,303,0
301,273,300,304,0
302,277,300,305,0
303,282,298,304,0
305,286,297,303,0
306,292,295,301,0
306,299,292,299,0
304,302,291,297,0
302,301,291,295,0
300,298,294,294,0
299,293,297,295,0
299,288,301,297,0
300,280,304,300,0
302,273,306,302,0
303,268,308,305,0
305,267,310,308,0
307,270,310,310,0
308,278,308,310,0
308,289,306,309,0
309,300,303,308,0
309,312,302,307,0
310,322,300,307,0
311,328,299,306,0
311,335,299,306,0
311,340,301,307,0
311,342,304,308,0
310,335,309,309,0
309,323,314,308,0
308,309,318,308,0
308,297,319,308,0
309,292,318,310,0
310,298,316,311,0
310,311,312,310,0
309,327,308,308,0
308,338,304,305,0
306,341,301,303,0
304,336,298,301,0
304,327,297,300,0
303,319,297,298,0
302,310,296,296,0
301,305,296,295,0
301,303,297,295,0
301,305,300,297,0
302,310,306,300,0
303,319,310,303,0
305,334,313,306,0
307,352,314,308,0
310,369,314,309,0
313,381,313,310,0
315,381,311,310,0
315,367,310,308,0
314,344,308,307,0
313,318,307,306,0
310,294,307,305,0
308,277,306,305,0
306,266,305,305,0
305,260,303,304,0
304,258,298,304,0
302,258,293,304,0
301,261,291,304,0
302,267,293,305,0
305,275,296,307,0
308,285,299,309,0
311,299,301,311,0
313,313,300,310,0
312,323,298,309,0
310,328,296,307,0
308,326,299,306,0
308,317,302,305,0
308,305,305,305,0
307,296,307,304,0
307,292,309,305,0
307,289,309,306,0
306,287,308,308,0
305,283,306,309,0
304,280,305,309,0
303,278,303,308,0
301,278,301,306,0
301,279,297,303,0
300,283,294,300,0
301,288,293,298,0
302,295,293,297,0
304,301,296,298,0
307,304,301,300,0
309,305,307,304,0
312,305,313,308,0
315,308,316,310,0
318,314,318,312,0
319,322,319,313,0
319,332,318,314,0
317,341,317,314,0
316,346,315,314,0
315,348,314,315,0
314,347,312,314,0
311,344,310,312,0
309,341,308,310,0
308,341,307,309,0
307,341,308,309,0
308,338,309,310,0
308,334,309,309,0
308,328,309,308,0
307,323,309,306,0
307,316,308,304,0
307,304,306,303,0
307,292,306,304,0
309,284,308,306,0
310,279,310,308,0
311,277,311,310,0
312,276,311,312,0
312,275,311,312,0
312,276,310,312,0
312,283,309,312,0
312,295,308,312,0
313,313,305,311,0
315,338,304,311,0
315,361,303,311,0
315,371,303,309,0
313,368,302,308,0
311,356,301,307,0
308,337,300,306,0
306,315,300,305,0
304,294,300,305,0
303,275,300,304,0
303,260,302,303,0
303,250,303,303,0
304,245,303,304,0
305,243,304,304,0
306,243,304,304,0
308,245,306,305,0
310,252,307,306,0
313,265,308,307,0
315,281,307,308,0
317,297,305,309,0
316,309,300,310,0
314,314,296,308,0
313,314,295,306,0
311,311,295,303,0
310,304,297,302,0
308,299,299,301,0
307,298,303,300,0
306,302,307,299,0
305,309,312,297,0
305,318,316,296,0
305,327,319,295,0
305,338,320,295,0
305,346,320,296,0
304,350,319,299,0
305,347,319,302,0
307,335,320,305,0
309,318,320,307,0
311,308,319,311,0
314,305,318,314,0
316,309,316,316,0
316,313,314,314,0
316,308,312,310,0
313,296,310,305,0
309,283,308,302,0
307,276,309,301,0
305,275,311,300,0
305,277,313,302,0
304,283,314,303,0
303,290,314,305,0
303,303,313,307,0
302,317,313,310,0
301,331,312,311,0
301,339,311,310,0
301,340,311,307,0
301,336,311,304,0
301,329,311,302,0
300,320,311,301,0
300,312,311,300,0
299,306,310,299,0
299,302,308,299,0
298,300,307,299,0
299,299,307,301,0
300,300,307,302,0
302,303,309,304,0
304,309,312,306,0
308,320,316,309,0
313,335,321,313,0
317,351,326,318,0
319,359,328,323,0
319,357,328,325,0
316,345,326,325,0
312,330,324,324,0
309,316,322,323,0
307,305,320,322,0
307,300,319,321,0
308,302,318,319,0
310,311,317,317,0
311,323,315,312,0
311,335,314,308,0
311,347,313,304,0
312,352,312,302,0
311,346,311,300,0
309,334,309,299,0
308,321,308,298,0
307,308,307,298,0
307,295,306,299,0
308,283,306,300,0
308,273,307,301,0
308,265,307,300,0
306,257,306,297,0
304,254,305,293,0
303,256,304,290,0
303,263,304,289,0
304,273,305,290,0
305,284,306,292,0
307,291,306,294,0
309,291,307,296,0
311,288,306,297,0
313,286,306,299,0
314,289,306,302,0
315,299,308,304,0
316,313,310,306,0
316,326,310,306,0
316,332,310,307,0
314,323,310,308,0
313,307,309,309,0
311,290,308,308,0
311,278,306,307,0
311,270,302,304,0
309,264,299,300,0
307,262,297,298,0
306,263,300,296,0
305,268,305,296,0
306,274,310,297,0
307,282,312,298,0
307,288,311,300,0
306,292,309,300,0
305,293,307,298,0
305,293,305,298,0
305,292,304,298,0
305,294,303,298,0
304,298,303,299,0
304,303,303,299,0
304,307,305,300,0
304,311,307,301,0
304,314,310,301,0
304,316,313,301,0
306,315,316,301,0
309,311,319,302,0
313,310,320,303,0
317,313,321,306,0
320,319,320,308,0
320,330,318,308,0
319,343,315,306,0
316,354,310,303,0
311,358,305,300,0
307,354,300,298,0
304,346,297,297,0
302,338,294,298,0
301,332,292,299,0
300,328,293,300,0
299,324,297,302,0
300,324,303,303,0
302,328,310,305,0
304,335,315,306,0
306,341,317,306,0
308,344,316,304,0
308,341,313,303,0
308,334,310,301,0
307,326,307,300,0
306,320,306,301,0
306,316,307,302,0
307,313,309,304,0
307,307,311,304,0
306,301,312,303,0
304,297,311,302,0
302,292,311,300,0
301,288,311,298,0
300,284,310,296,0
300,280,310,296,0
302,279,309,297,0
303,279,309,298,0
305,281,309,301,0
307,285,309,302,0
309,292,309,302,0
310,301,309,302,0
311,306,308,302,0
311,305,306,302,0
309,300,304,301,0
308,298,303,301,0
307,303,303,300,0
308,309,304,299,0
309,314,306,298,0
310,315,307,297,0
310,309,308,296,0
309,295,307,295,0
307,278,306,293,0
305,264,305,292,0
304,257,305,293,0
303,257,304,294,0
303,262,303,295,0
302,269,302,296,0
301,278,301,296,0
300,290,300,296,0
300,304,300,296,0
300,319,300,297,0
301,334,302,299,0
302,347,303,302,0
304,352,305,304,0
306,351,306,304,0
308,345,306,300,0
309,339,307,295,0
310,334,307,292,0
310,329,307,292,0
309,321,308,293,0
307,310,309,293,0
305,298,309,293,0
302,288,308,292,0
300,282,307,292,0
299,279,307,292,0
299,278,308,294,0
301,279,310,298,0
304,282,312,303,0
306,290,313,307,0
307,301,313,311,0
308,314,314,314,0
310,329,314,316,0
311,342,314,316,0
311,346,313,315,0
309,338,312,311,0
308,321,310,307,0
307,303,308,304,0
307,291,307,301,0
307,284,306,297,0
305,281,302,292,0
303,280,298,287,0
300,282,295,283,0
299,286,295,282,0
300,291,296,284,0
301,295,300,290,0
304,296,304,298,0
306,292,308,306,0
309,287,311,312,0
309,283,310,316,0
309,280,307,319,0
307,278,303,319,0
305,279,297,318,0
302,287,293,314,0
300,298,291,309,0
298,310,291,304,0
298,322,293,301,0
299,329,295,299,0
302,333,298,298,0
304,336,301,301,0
307,336,305,308,0
310,332,309,314,0
312,326,312,319,0
314,318,313,321,0
314,310,313,320,0
314,305,313,318,0
313,306,314,317,0
311,311,317,316,0
309,313,320,317,0
308,312,322,318,0
306,308,322,319,0
305,307,321,319,0
305,310,317,318,0
306,314,313,317,0
306,318,308,315,0
306,318,302,313,0
306,314,296,309,0
306,309,291,305,0
306,303,287,302,0
306,300,284,300,0
307,300,283,299,0
308,299,283,299,0
308,293,285,300,0
307,286,288,301,0
306,279,292,304,0
305,276,298,307,0
304,278,304,309,0
304,287,309,312,0
305,299,313,315,0
307,313,314,317,0
309,326,314,318,0
310,335,313,317,0
309,336,310,315,0
307,327,308,311,0
304,315,307,308,0
302,305,307,308,0
302,299,308,308,0
301,297,310,308,0
301,296,311,308,0
301,293,314,308,0
302,290,317,308,0
304,289,320,309,0
306,292,320,310,0
308,299,320,310,0
309,308,318,310,0
310,315,316,311,0
311,317,314,311,0
310,314,313,311,0
311,308,313,311,0
312,303,315,311,0
312,300,316,310,0
312,295,316,309,0
311,289,315,308,0
311,285,314,307,0
311,287,313,307,0
309,293,312,306,0
308,298,310,305,0
306,298,309,305,0
304,294,307,305,0
303,289,307,304,0
302,288,306,304,0
301,288,307,302,0
300,289,306,300,0
298,291,305,297,0
297,294,304,293,0
297,297,304,291,0
299,298,304,289,0
301,295,305,289,0
305,289,307,291,0
309,282,309,295,0
313,277,312,299,0
315,276,315,302,0
315,281,315,306,0
313,293,314,310,0
310,311,313,314,0
308,331,312,317,0
306,344,311,318,0
305,351,310,318,0
304,352,309,319,0
304,348,308,319,0
304,340,306,318,0
305,330,305,316,0
304,320,303,315,0
304,313,300,314,0
303,307,296,313,0
302,304,293,313,0
302,304,292,311,0
302,307,293,308,0
302,311,296,304,0
301,315,300,299,0
301,317,304,295,0
301,317,305,292,0
302,315,305,289,0
303,315,302,288,0
303,317,297,287,0
303,322,293,287,0
302,330,289,288,0
300,337,286,288,0
298,341,284,289,0
297,342,283,293,0
299,342,285,297,0
301,338,290,302,0
304,332,297,308,0
307,329,304,315,0
309,331,310,319,0
309,330,313,321,0
307,329,313,321,0
306,330,311,320,0
305,333,309,319,0
305,334,307,316,0
306,328,308,312,0
306,314,307,309,0
307,298,308,307,0
308,288,309,306,0
309,284,311,306,0
310,282,313,308,0
311,281,314,308,0
310,280,315,308,0
310,284,315,308,0
310,294,315,308,0
311,312,316,308,0
313,332,318,309,0
315,347,320,310,0
315,351,320,310,0
315,342,319,308,0
314,327,316,307,0
313,316,313,306,0
311,312,311,307,0
310,311,310,308,0
310,309,309,308,0
309,302,308,308,0
310,294,307,307,0
312,285,306,307,0
315,278,306,308,0
317,271,306,308,0
319,264,306,308,0
319,256,307,307,0
316,246,306,303,0
312,236,305,299,0
309,232,303,298,0
307,236,301,299,0
305,244,299,300,0
303,255,298,301,0
301,267,300,303,0
300,281,303,304,0
299,299,306,305,0
297,317,307,306,0
297,334,308,307,0
297,346,307,308,0
298,353,305,309,0
299,355,303,311,0
300,355,300,311,0
302,354,299,311,0
301,353,297,309,0
300,350,296,307,0
299,347,296,306,0
300,346,296,305,0
300,345,295,304,0
300,342,293,303,0
299,339,292,303,0
299,338,294,303,0
300,337,297,304,0
302,332,299,305,0
304,319,302,306,0
305,303,303,306,0
305,286,304,305,0
304,273,303,303,0
301,267,302,299,0
299,269,301,296,0
298,275,300,293,0
298,286,299,292,0
299,299,297,291,0
299,311,294,290,0
300,322,293,290,0
302,333,293,294,0
305,343,297,301,0
309,354,301,308,0
314,365,305,313,0
316,371,308,314,0
317,369,309,315,0
317,363,309,317,0
317,354,310,319,0
317,340,309,318,0
315,325,308,315,0
313,310,307,312,0
309,298,306,309,0
306,288,305,308,0
304,279,302,307,0
303,272,300,306,0
302,268,298,306,0
303,267,298,306,0
304,268,299,307,0
306,273,301,308,0
306,281,302,310,0
306,291,301,312,0
305,301,299,314,0
304,312,295,315,0
303,322,293,315,0
302,330,293,315,0
303,336,297,314,0
307,344,303,315,0
311,350,309,316,0
315,350,315,317,0
316,345,318,319,0
315,338,320,320,0
313,331,321,320,0
310,322,321,321,0
307,310,320,320,0
304,294,317,319,0
301,280,313,317,0
300,270,310,316,0
300,269,308,314,0
301,276,307,312,0
304,287,307,310,0
308,299,309,309,0
312,310,310,309,0
315,314,311,310,0
317,309,312,310,0
316,299,312,310,0
314,289,311,308,0
311,284,309,307,0
308,283,307,307,0
305,286,305,307,0
303,288,304,307,0
303,289,303,306,0
303,290,303,306,0
304,291,303,305,0
305,291,303,305,0
306,291,302,305,0
307,290,301,305,0
308,289,301,304,0
307,287,302,303,0
307,283,303,301,0
307,278,306,300,0
306,272,309,300,0
306,268,310,301,0
305,265,310,301,0
304,265,308,302,0
302,271,306,303,0
302,281,304,303,0
302,294,304,304,0
303,305,305,306,0
304,315,307,307,0
304,323,309,308,0
303,325,310,308,0
301,321,309,309,0
300,316,308,308,0
298,315,306,307,0
298,320,302,305,0
298,327,298,303,0
298,332,296,302,0
298,332,296,301,0
298,327,298,302,0
300,319,302,305,0
301,310,306,309,0
302,303,308,313,0
304,299,309,315,0
305,299,309,316,0
307,301,309,317,0
308,302,308,316,0
310,305,308,315,0
310,314,308,314,0
310,329,307,313,0
310,347,305,312,0
308,364,303,310,0
306,375,301,308,0
304,377,298,306,0
301,367,296,303,0
298,353,294,302,0
297,343,292,302,0
298,345,293,301,0
299,354,295,302,0
299,359,298,303,0
299,357,302,304,0
299,347,307,305,0
300,328,312,306,0
300,304,315,307,0
301,280,316,309,0
302,263,316,310,0
303,256,316,311,0
305,257,317,315,0
308,264,318,319,0
312,277,319,323,0
314,296,320,327,0
314,314,319,328,0
313,323,317,327,0
311,322,314,323,0
310,313,312,318,0
308,307,311,313,0
308,307,311,311,0
308,310,310,309,0
306,307,308,309,0
303,294,305,308,0
301,276,303,308,0
300,261,303,308,0
301,252,303,308,0
302,251,302,309,0
302,255,301,309,0
302,260,302,310,0
303,266,302,311,0
303,272,302,310,0
304,276,302,308,0
305,280,301,306,0
307,284,300,305,0
309,289,300,304,0
311,297,301,305,0
313,305,303,307,0
315,314,303,307,0
314,320,302,306,0
313,322,301,304,0
310,321,300,303,0
307,316,299,301,0
305,308,299,300,0
303,300,299,299,0
302,296,299,299,0
301,297,300,299,0
300,301,301,300,0
302,305,304,302,0
304,304,308,305,0
307,298,312,309,0
310,293,315,315,0
312,293,317,319,0
314,297,317,322,0
314,305,316,322,0
314,312,314,321,0
314,314,313,319,0
313,310,310,317,0
312,304,307,315,0
310,298,305,313,0
309,296,303,311,0
308,294,300,308,0
307,290,298,305,0
307,286,297,305,0
306,281,296,304,0
305,279,295,303,0
305,280,295,303,0
305,288,297,303,0
306,297,298,305,0
307,302,299,307,0
308,303,299,308,0
308,301,299,309,0
310,299,301,309,0
311,298,302,309,0
311,298,303,307,0
311,297,304,307,0
312,296,306,308,0
312,294,307,308,0
312,291,308,309,0
312,293,308,311,0
312,302,309,313,0
314,317,310,313,0
314,334,309,312,0
313,347,309,310,0
312,356,308,308,0
310,359,308,307,0
310,355,310,308,0
310,345,314,310,0
311,332,317,312,0
310,319,318,312,0
311,308,317,312,0
310,298,314,311,0
310,292,310,310,0
310,290,307,308,0
310,291,304,306,0
311,296,302,305,0
311,305,300,305,0
312,316,300,307,0
312,324,302,308,0
313,326,303,310,0
312,321,303,310,0
309,310,302,308,0
307,300,303,307,0
306,294,305,306,0
306,294,307,305,0
308,301,309,306,0
309,309,310,307,0
308,312,308,309,0
308,312,308,311,0
308,315,308,311,0
309,322,308,310,0
310,332,308,309,0
312,345,305,307,0
313,355,303,305,0
311,355,299,302,0
309,346,297,299,0
307,334,297,299,0
307,315,299,299,0
307,293,302,301,0
307,270,304,304,0
308,253,307,307,0
310,241,309,310,0
310,236,310,310,0
310,239,310,308,0
310,249,309,305,0
310,265,309,304,0
310,283,309,302,0
309,294,308,299,0
307,296,306,298,0
307,294,305,297,0
306,291,302,298,0
307,288,300,300,0
308,286,299,304,0
310,286,299,308,0
312,288,299,310,0
313,291,299,312,0
314,291,301,311,0
313,288,304,310,0
313,285,307,309,0
312,285,310,308,0
313,288,312,307,0
313,294,313,307,0
314,302,312,307,0
314,313,310,308,0
314,328,310,310,0
313,345,309,313,0
313,356,309,314,0
311,352,308,314,0
309,339,308,314,0
308,321,308,313,0
307,305,309,312,0
305,294,310,310,0
304,288,310,308,0
302,284,309,307,0
302,286,309,306,0
301,292,308,305,0
302,301,307,304,0
303,308,307,304,0
304,313,308,304,0
304,313,308,304,0
305,312,309,304,0
307,311,309,305,0
308,309,309,305,0
309,308,309,304,0
309,306,308,303,0
309,305,307,302,0
309,304,306,302,0
309,306,304,302,0
309,310,301,300,0
310,313,299,299,0
308,316,298,299,0
307,315,298,302,0
305,308,300,306,0
305,298,304,311,0
306,292,307,314,0
307,292,308,314,0
308,298,308,311,0
308,307,308,307,0
309,316,307,302,0
310,323,306,299,0
310,329,307,299,0
311,334,307,301,0
312,336,309,303,0
313,335,311,306,0
315,332,313,309,0
316,328,314,311,0
316,324,315,311,0
316,323,315,311,0
316,325,314,311,0
316,332,313,314,0
318,341,310,315,0
319,349,306,316,0
318,353,303,314,0
316,352,300,311,0
312,343,300,306,0
306,328,300,301,0
300,310,302,298,0
296,295,303,296,0
293,283,306,295,0
293,273,308,298,0
293,269,308,302,0
294,271,308,304,0
295,278,309,305,0
298,288,310,306,0
300,296,312,308,0
302,302,314,311,0
304,305,316,313,0
307,312,318,316,0
310,321,319,318,0
312,328,318,319,0
313,331,317,320,0
314,333,316,321,0
316,334,315,321,0
317,330,314,321,0
317,324,313,321,0
315,316,310,319,0
311,307,307,316,0
306,304,305,313,0
302,308,304,309,0
299,313,303,307,0
298,311,302,306,0
299,302,301,305,0
301,292,301,305,0
303,287,301,305,0
304,289,301,306,0
305,294,302,307,0
305,297,304,307,0
304,298,306,306,0
303,298,308,305,0
302,299,308,305,0
301,301,308,305,0
302,301,307,307,0
304,300,305,307,0
306,300,302,306,0
308,303,299,305,0
309,305,297,303,0
308,306,295,300,0
305,306,292,297,0
303,306,290,294,0
301,308,291,292,0
301,311,294,293,0
303,314,299,296,0
305,313,305,300,0
308,313,310,305,0
310,311,313,310,0
312,306,314,311,0
312,298,313,311,0
312,290,311,311,0
311,284,310,310,0
310,283,308,309,0
308,289,306,308,0
307,298,304,309,0
305,304,303,310,0
304,306,301,309,0
304,307,299,306,0
304,306,296,302,0
303,304,292,299,0
303,303,290,297,0
303,302,289,296,0
303,302,290,296,0
303,303,292,298,0
304,304,296,299,0
304,304,300,300,0
304,304,305,300,0
303,309,311,301,0
304,323,315,303,0
305,346,317,305,0
307,372,318,307,0
309,395,318,309,0
312,408,316,311,0
312,402,313,312,0
311,374,309,311,0
309,336,306,308,0
306,301,303,305,0
304,277,302,302,0
302,264,302,300,0
301,260,301,299,0
301,260,301,298,0
301,260,300,298,0
300,259,300,298,0
301,258,300,299,0
302,259,301,302,0
302,260,303,304,0
303,263,305,305,0
303,266,307,304,0
304,268,308,302,0
306,273,309,298,0
307,280,307,296,0
308,292,306,294,0
310,312,305,294,0
312,337,307,297,0
315,360,310,301,0
316,373,313,305,0
317,374,315,306,0
315,364,315,307,0
312,349,313,307,0
310,337,311,307,0
308,328,309,308,0
306,321,308,308,0
305,317,308,308,0
305,314,308,309,0
305,311,308,310,0
305,304,308,310,0
304,296,309,309,0
304,287,309,309,0
305,280,307,308,0
304,274,306,307,0
304,270,305,307,0
303,267,306,306,0
305,263,308,306,0
306,262,308,307,0
307,261,308,307,0
308,259,307,306,0
307,258,305,304,0
306,258,304,301,0
304,261,302,299,0
303,267,300,299,0
303,276,300,299,0
305,291,301,301,0
308,311,302,302,0
311,334,302,302,0
313,353,301,302,0
314,357,299,300,0
311,340,296,297,0
308,313,294,294,0
305,289,295,294,0
304,274,297,297,0
304,269,300,300,0
306,272,304,304,0
307,279,306,308,0
309,285,308,310,0
309,291,309,313,0
309,299,311,314,0
308,307,312,317,0
309,316,314,318,0
309,323,314,318,0
308,326,314,317,0
308,326,313,316,0
307,325,312,314,0
307,322,311,310,0
306,316,309,305,0
305,309,307,302,0
304,304,305,300,0
304,300,303,301,0
306,300,302,304,0
307,303,299,306,0
307,306,296,306,0
308,309,294,306,0
308,313,293,304,0
308,321,292,303,0
306,333,292,302,0
306,346,291,300,0
307,358,292,300,0
309,370,295,300,0
313,378,298,302,0
316,382,302,304,0
318,386,304,307,0
319,387,308,310,0
317,370,310,311,0
314,341,312,309,0
311,309,314,308,0
310,281,315,308,0
308,263,316,307,0
308,253,316,308,0
307,249,316,309,0
306,246,316,308,0
305,244,315,306,0
304,247,313,303,0
303,252,310,300,0
304,258,307,297,0
303,263,302,294,0
303,267,299,294,0
302,270,297,296,0
302,273,298,298,0
302,278,299,299,0
302,287,300,299,0
302,299,300,298,0
303,311,300,299,0
303,315,301,300,0
304,317,302,302,0
304,317,303,305,0
304,318,306,310,0
304,318,308,316,0
305,314,309,320,0
305,306,310,322,0
306,295,311,322,0
308,287,311,322,0
310,282,311,321,0
311,283,311,319,0
311,287,311,316,0
311,292,313,313,0
311,298,314,310,0
310,305,314,306,0
308,311,312,303,0
307,316,310,300,0
306,318,309,299,0
306,319,308,301,0
308,319,308,305,0
311,318,307,311,0
313,316,306,313,0
315,313,303,314,0
315,314,299,312,0
314,321,295,309,0
313,328,292,305,0
312,334,290,303,0
311,337,291,303,0
312,339,294,304,0
312,334,296,305,0
310,323,296,305,0
307,317,297,306,0
305,323,300,307,0
305,339,302,309,0
304,357,304,310,0
304,372,306,310,0
304,375,308,310,0
304,366,309,310,0
305,348,310,311,0
306,327,311,313,0
306,304,311,314,0
305,285,309,313,0
302,272,306,312,0
299,264,303,310,0
297,259,302,308,0
297,259,303,306,0
297,263,304,306,0
297,270,307,306,0
299,280,309,306,0
300,291,310,307,0
301,305,310,307,0
301,318,309,306,0
300,328,309,304,0
299,335,309,301,0
298,336,308,299,0
298,331,308,298,0
299,322,309,298,0
300,310,310,299,0
302,296,312,301,0
305,285,313,303,0
307,277,314,305,0
308,276,314,308,0
309,281,314,310,0
308,287,312,311,0
307,289,309,312,0
308,289,307,313,0
309,288,305,315,0
311,285,305,316,0
312,280,305,317,0
311,274,306,317,0
308,273,308,316,0
305,281,311,314,0
302,293,313,313,0
299,307,314,311,0
299,319,315,312,0
298,328,315,313,0
298,330,314,314,0
298,326,312,314,0
297,318,308,312,0
296,311,304,310,0
296,304,301,309,0
297,300,299,307,0
298,298,299,306,0
300,298,302,307,0
303,303,305,308,0
306,311,309,311,0
309,321,311,312,0
310,328,312,313,0
310,330,312,311,0
309,326,311,311,0
308,316,311,310,0
307,302,311,311,0
305,289,311,311,0
303,281,311,311,0
302,277,310,311,0
301,277,310,310,0
300,281,309,311,0
300,286,308,311,0
300,290,307,311,0
300,297,306,311,0
300,308,305,312,0
301,321,305,313,0
302,331,305,314,0
304,341,306,315,0
305,352,307,316,0
307,362,308,318,0
309,366,307,316,0
308,360,305,313,0
305,344,301,309,0
302,329,298,306,0
302,321,296,304,0
303,324,296,302,0
305,329,298,302,0
306,331,302,304,0
307,329,307,305,0
306,322,312,307,0
306,314,315,307,0
307,308,316,308,0
309,302,317,307,0
310,295,315,306,0
311,290,314,305,0
310,286,313,305,0
309,280,311,304,0
307,275,309,305,0
305,275,308,306,0
304,282,306,306,0
303,293,304,306,0
302,310,302,305,0
302,331,301,305,0
304,352,302,306,0
305,365,302,308,0
304,367,302,309,0
303,354,301,310,0
302,336,300,309,0
302,325,300,309,0
303,323,300,307,0
304,328,300,307,0
305,331,299,306,0
305,324,297,303,0
303,310,294,299,0
302,297,291,297,0
302,289,290,297,0
302,285,291,297,0
303,283,293,297,0
303,281,295,297,0
304,276,296,297,0
304,270,299,298,0
305,264,302,301,0
308,262,307,306,0
311,264,312,312,0
314,272,315,317,0
316,289,316,319,0
316,309,315,320,0
315,321,312,318,0
312,322,309,315,0
310,318,306,313,0
308,313,305,312,0
307,306,305,311,0
306,297,308,310,0
305,290,313,310,0
306,287,317,311,0
307,290,320,311,0
308,296,321,312,0
309,303,319,312,0
308,304,316,312,0
307,297,313,312,0
304,287,311,311,0
302,278,310,310,0
301,274,310,309,0
301,274,310,310,0
302,277,310,311,0
303,283,310,312,0
304,291,310,313,0
305,297,310,314,0
306,302,309,316,0
308,307,309,319,0
310,313,310,320,0
312,318,309,320,0
314,316,308,317,0
315,311,306,312,0
315,307,305,308,0
314,310,304,304,0
313,319,302,302,0
310,330,301,299,0
307,338,299,298,0
305,341,300,298,0
304,338,302,298,0
304,335,306,300,0
306,330,310,303,0
307,322,312,306,0
307,310,312,308,0
306,297,310,309,0
303,288,307,309,0
302,283,304,309,0
301,282,303,311,0
300,282,304,313,0
301,285,306,317,0
303,288,309,321,0
305,290,310,322,0
305,290,310,322,0
306,289,309,322,0
306,289,308,320,0
306,291,306,318,0
306,293,304,315,0
305,298,302,312,0
305,307,301,309,0
306,320,300,308,0
305,330,299,306,0
305,334,298,305,0
305,336,297,302,0
304,335,295,299,0
303,329,291,294,0
301,318,286,288,0
300,310,283,284,0
300,306,282,281,0
300,304,280,279,0
299,299,279,278,0
299,293,281,281,0
300,289,285,287,0
302,290,290,295,0
303,293,293,302,0
304,298,295,308,0
305,302,296,311,0
306,307,299,313,0
309,316,303,317,0
312,328,307,323,0
314,341,311,331,0
317,349,312,336,0
316,348,312,339,0
314,334,312,340,0
312,320,311,339,0
310,310,310,339,0
308,305,310,337,0
308,301,309,334,0
307,297,307,330,0
306,295,305,326,0
305,296,303,321,0
304,300,302,318,0
304,307,300,315,0
303,311,299,314,0
302,311,299,313,0
303,308,300,314,0
304,307,302,316,0
306,308,303,318,0
307,312,305,320,0
307,315,306,322,0
307,316,306,323,0
306,319,306,324,0
305,321,306,323,0
305,320,306,321,0
306,318,308,319,0
308,313,310,319,0
311,305,312,320,0
312,301,313,320,0
312,303,312,320,0
310,307,310,318,0
307,307,308,315,0
304,301,305,312,0
302,293,303,310,0
301,285,301,309,0
300,279,301,309,0
300,275,303,310,0
300,272,307,313,0
301,271,311,315,0
302,274,313,318,0
305,281,315,321,0
307,293,316,323,0
310,307,316,325,0
312,322,316,327,0
314,336,316,328,0
315,342,314,327,0
314,338,312,326,0
310,331,309,324,0
307,323,307,322,0
303,314,306,320,0
301,306,306,317,0
300,302,307,315,0
299,304,308,314,0
298,308,308,313,0
298,313,307,312,0
298,317,306,310,0
297,315,304,308,0
297,308,303,307,0
297,302,303,308,0
298,298,305,310,0
300,297,306,311,0
303,296,306,312,0
305,298,307,313,0
307,302,307,313,0
308,304,307,314,0
308,309,306,313,0
307,315,305,311,0
306,321,303,310,0
305,324,301,308,0
305,326,299,308,0
304,329,298,307,0
304,331,296,307,0
303,334,294,305,0
302,336,292,305,0
302,336,292,306,0
302,328,293,308,0
302,313,295,308,0
302,296,299,308,0
301,280,301,306,0
300,271,302,304,0
300,268,303,304,0
302,270,305,305,0
304,275,308,308,0
307,282,311,312,0
309,285,314,317,0
311,289,317,323,0
313,297,320,330,0
316,309,321,336,0
318,321,321,340,0
318,332,320,340,0
317,340,318,338,0
315,341,316,334,0
311,339,314,329,0
308,334,312,325,0
305,325,310,320,0
302,311,310,317,0
302,293,309,314,0
302,277,309,310,0
303,267,308,306,0
303,263,307,304,0
304,264,307,302,0
304,266,308,303,0
305,267,310,304,0
306,267,311,304,0
307,266,311,304,0
306,266,311,303,0
306,272,310,304,0
306,290,311,308,0
307,317,311,314,0
308,345,311,320,0
308,367,310,324,0
308,376,310,325,0
307,369,309,325,0
305,352,307,322,0
303,330,306,320,0
301,313,305,318,0
298,303,303,316,0
297,300,302,314,0
296,302,302,313,0
297,304,301,313,0
298,303,301,313,0
299,296,300,312,0
300,285,300,311,0
302,275,300,311,0
302,269,303,310,0
303,269,306,310,0
304,276,309,309,0
305,288,311,309,0
306,301,312,309,0
306,314,310,309,0
306,328,308,309,0
306,342,307,310,0
307,349,307,310,0
305,346,305,308,0
304,333,304,305,0
303,316,304,302,0
303,301,305,300,0
303,293,305,298,0
304,294,304,295,0
306,302,304,293,0
307,315,303,292,0
308,325,302,292,0
306,322,300,290,0
302,306,298,289,0
299,287,297,288,0
297,272,298,289,0
296,261,298,292,0
297,255,299,295,0
298,253,299,298,0
299,255,297,300,0
299,259,295,302,0
300,263,294,303,0
302,270,294,304,0
304,278,296,304,0
306,285,299,306,0
307,290,303,309,0
308,293,306,310,0
308,295,307,311,0
307,295,306,312,0
306,296,305,314,0
305,298,304,315,0
305,301,304,315,0
305,304,305,315,0
305,308,307,316,0
305,312,310,318,0
306,317,312,317,0
306,323,314,315,0
307,328,316,313,0
308,329,316,311,0
308,325,315,309,0
309,319,314,307,0
309,312,312,306,0
310,306,310,306,0
312,305,308,307,0
313,311,307,308,0
313,323,309,310,0
312,338,313,310,0
311,349,317,310,0
310,356,322,311,0
310,357,325,310,0
310,350,326,308,0
308,336,323,305,0
307,321,320,303,0
305,310,316,302,0
304,305,313,302,0
304,300,310,302,0
303,293,308,302,0
303,286,308,302,0
302,283,308,302,0
302,283,309,304,0
303,284,308,305,0
303,287,307,305,0
304,295,307,305,0
306,307,307,304,0
307,320,309,303,0
309,328,311,302,0
310,327,313,301,0
311,322,315,300,0
311,318,317,301,0
313,315,318,303,0
314,314,319,306,0
314,313,318,307,0
313,312,317,308,0
311,309,316,306,0
308,302,314,304,0
305,295,313,302,0
304,288,313,300,0
305,283,313,299,0
306,281,313,299,0
308,282,312,299,0
310,286,312,300,0
311,290,312,303,0
310,295,311,305,0
309,299,309,307,0
307,304,308,309,0
306,308,308,310,0
305,311,308,310,0
303,311,308,310,0
302,311,308,308,0
301,308,307,307,0
300,303,306,306,0
300,296,305,305,0
300,288,305,304,0
302,281,305,303,0
303,277,305,303,0
305,278,306,304,0
307,286,307,306,0
307,299,307,307,0
306,316,307,306,0
306,334,305,304,0
304,346,304,302,0
303,350,302,299,0
301,345,299,297,0
299,335,298,297,0
298,324,299,299,0
296,315,302,302,0
296,309,307,305,0
296,307,310,308,0
298,305,311,308,0
299,305,311,307,0
301,306,311,305,0
302,310,310,303,0
302,314,310,302,0
302,317,310,301,0
301,319,308,299,0
300,317,306,298,0
299,313,303,296,0
298,309,300,295,0
297,308,298,295,0
296,312,297,295,0
297,320,297,296,0
297,330,299,297,0
299,340,303,300,0
301,345,307,303,0
302,345,311,307,0
304,346,314,310,0
307,348,317,312,0
309,351,320,313,0
310,353,321,312,0
310,354,321,311,0
310,349,321,309,0
309,337,321,307,0
308,323,321,306,0
308,313,321,307,0
309,312,320,308,0
309,312,319,309,0
309,309,316,310,0
309,303,315,311,0
308,295,313,311,0
308,288,313,310,0
308,287,314,309,0
309,292,315,307,0
309,299,314,307,0
309,304,313,308,0
309,305,312,308,0
308,302,309,308,0
307,299,305,305,0
305,295,301,301,0
303,288,297,296,0
302,279,295,290,0
302,269,296,287,0
303,261,298,287,0
304,257,302,288,0
305,257,305,290,0
307,259,309,293,0
308,261,311,295,0
308,261,313,297,0
309,259,314,298,0
309,259,315,298,0
309,261,316,299,0
309,269,315,299,0
309,282,314,300,0
310,300,312,300,0
309,315,309,299,0
308,326,306,298,0
309,333,304,299,0
310,337,304,300,0
311,338,304,301,0
312,337,305,301,0
313,337,308,303,0
314,339,313,306,0
315,347,317,308,0
315,358,318,308,0
314,367,318,306,0
314,376,317,305,0
314,375,314,302,0
312,358,310,299,0
308,331,305,296,0
305,303,301,292,0
302,280,300,290,0
301,265,299,290,0
301,254,300,290,0
301,245,301,290,0
301,240,301,289,0
300,242,301,289,0
299,250,301,289,0
299,261,301,291,0
299,271,301,293,0
299,281,301,296,0
300,290,301,301,0
301,301,303,305,0
302,311,306,311,0
302,319,310,314,0
304,324,314,316,0
306,328,317,317,0
309,333,317,316,0
311,338,315,315,0
311,342,313,313,0
311,344,310,311,0
310,338,306,309,0
309,334,304,309,0
308,332,303,309,0
307,335,302,308,0
306,336,302,307,0
305,328,301,305,0
303,311,301,302,0
301,291,301,299,0
300,275,302,298,0
299,263,303,296,0
299,259,304,295,0
299,261,303,294,0
299,268,301,293,0
298,277,298,293,0
297,286,295,294,0
296,291,293,295,0
296,294,294,297,0
298,297,299,300,0
300,300,304,304,0
302,304,308,308,0
303,307,310,311,0
304,310,310,314,0
305,313,310,316,0
307,319,311,318,0
309,326,314,318,0
309,335,316,318,0
309,344,318,317,0
308,354,318,315,0
306,358,317,312,0
305,354,316,310,0
304,347,314,309,0
304,340,312,309,0
303,329,310,307,0
302,316,308,306,0
303,302,307,305,0
303,288,305,305,0
302,275,304,306,0
302,267,303,307,0
301,264,303,310,0
301,263,304,313,0
301,263,305,315,0
302,265,307,315,0
302,271,308,313,0
302,280,308,310,0
302,290,308,305,0
302,295,307,299,0
302,296,305,293,0
302,293,304,290,0
301,292,303,290,0
302,290,302,291,0
303,288,302,292,0
305,287,303,293,0
306,288,304,295,0
307,292,305,297,0
308,298,306,298,0
309,306,307,300,0
309,315,307,303,0
309,319,307,305,0
308,319,307,308,0
308,314,308,310,0
308,308,309,312,0
308,303,309,313,0
307,300,309,313,0
306,300,309,311,0
304,301,308,309,0
304,303,308,308,0
304,305,307,308,0
305,307,305,307,0
305,306,304,307,0
305,304,301,305,0
304,300,300,302,0
304,297,299,301,0
304,294,300,299,0
306,293,301,300,0
308,292,301,302,0
309,293,302,303,0
311,297,303,305,0
313,302,304,306,0
315,310,305,307,0
319,324,306,308,0
321,338,306,308,0
321,350,305,307,0
319,360,304,307,0
317,363,303,307,0
313,352,303,305,0
309,329,303,304,0
305,306,303,302,0
302,289,303,301,0
301,278,301,300,0
299,270,298,298,0
298,269,295,297,0
297,276,294,297,0
296,287,295,296,0
295,301,298,297,0
295,313,300,298,0
295,321,301,298,0
297,326,300,299,0
298,328,299,299,0
298,323,301,299,0
298,313,304,299,0
300,304,309,300,0
302,298,312,303,0
305,296,314,305,0
308,297,314,308,0
310,298,313,309,0
310,296,312,311,0
310,296,311,311,0
309,302,309,312,0
307,312,307,312,0
305,323,306,312,0
304,331,306,312,0
304,332,307,311,0
303,323,308,309,0
302,311,307,306,0
300,302,306,304,0
299,297,304,302,0
298,296,302,300,0
298,297,301,300,0
299,301,301,301,0
300,305,302,303,0
302,309,305,306,0
305,314,308,309,0
308,317,312,312,0
311,320,315,313,0
312,322,317,313,0
313,326,318,313,0
311,330,317,312,0
308,331,316,310,0
305,327,313,306,0
302,320,310,303,0
299,315,308,301,0
298,312,306,299,0
298,311,304,298,0
299,311,303,297,0
299,310,303,297,0
299,307,303,298,0
301,304,304,298,0
302,301,306,299,0
304,298,308,300,0
306,298,310,301,0
307,299,311,302,0
309,302,311,303,0
311,308,311,304,0
313,314,311,305,0
313,319,310,306,0
313,318,309,306,0
311,313,307,305,0
310,307,306,304,0
309,308,306,304,0
309,317,306,303,0
309,332,307,303,0
309,347,308,302,0
310,355,308,303,0
310,350,309,303,0
310,331,310,304,0
310,304,311,306,0
310,277,311,307,0
311,262,311,308,0
311,258,310,309,0
312,262,310,308,0
313,268,309,305,0
313,273,308,303,0
311,277,306,301,0
309,277,304,298,0
308,275,302,295,0
307,272,302,293,0
308,272,302,292,0
310,276,303,293,0
312,282,304,295,0
313,290,305,298,0
315,302,306,301,0
316,316,306,304,0
316,333,306,308,0
314,345,305,309,0
311,345,304,309,0
307,332,302,307,0
304,311,301,305,0
303,291,301,305,0
303,279,302,305,0
306,274,303,305,0
310,280,304,307,0
314,294,307,308,0
317,307,309,310,0
319,315,310,312,0
318,317,311,313,0
315,317,310,313,0
312,321,309,313,0
309,329,307,311,0
306,340,304,309,0
304,348,302,307,0
304,351,301,307,0
304,342,302,305,0
303,321,302,304,0
303,301,303,304,0
304,288,304,306,0
306,281,306,307,0
307,281,306,309,0
308,283,305,312,0
309,290,305,314,0
309,297,305,314,0
307,304,305,313,0
306,307,305,311,0
304,307,304,310,0
302,306,302,309,0
301,304,302,309,0
301,301,302,308,0
302,301,302,307,0
304,307,302,306,0
305,319,302,305,0
306,332,301,303,0
307,342,301,302,0
307,344,300,301,0
307,336,300,300,0
307,325,300,300,0
307,318,301,300,0
307,314,302,301,0
308,311,303,301,0
307,304,303,302,0
307,294,303,302,0
307,284,303,303,0
309,277,303,304,0
311,273,305,306,0
313,267,307,308,0
315,261,308,309,0
316,257,308,310,0
316,256,308,310,0
316,259,307,309,0
314,266,305,307,0
311,277,304,306,0
309,285,302,304,0
306,290,299,302,0
304,295,297,299,0
302,300,296,298,0
301,305,297,298,0
301,307,298,300,0
301,305,301,302,0
301,301,304,305,0
302,300,307,307,0
302,306,309,308,0
303,324,310,310,0
304,351,311,311,0
306,384,312,312,0
309,414,312,313,0
309,429,311,312,0
305,419,309,309,0
301,389,306,305,0
297,352,303,303,0
293,320,301,302,0
292,295,298,301,0
292,280,296,300,0
292,271,295,300,0
293,266,295,299,0
294,264,296,299,0
296,266,298,299,0
298,271,299,300,0
300,277,299,300,0
301,282,299,299,0
301,284,297,298,0
301,283,294,297,0
300,282,291,298,0
300,281,290,299,0
300,285,290,302,0
303,297,293,306,0
307,312,297,310,0
311,326,300,314,0
314,338,303,316,0
315,345,306,318,0
317,348,310,320,0
318,350,313,323,0
317,351,315,324,0
316,345,315,324,0
315,327,314,323,0
314,303,312,323,0
314,283,311,323,0
314,270,309,323,0
315,265,309,324,0
316,270,310,325,0
316,284,312,325,0
316,300,313,325,0
315,311,313,324,0
312,314,311,321,0
309,310,309,318,0
306,301,306,315,0
304,292,304,312,0
303,286,301,310,0
303,283,299,309,0
304,280,297,308,0
304,278,293,306,0
303,276,291,305,0
302,276,291,304,0
302,279,293,304,0
303,282,296,303,0
303,284,300,303,0
304,285,303,303,0
304,286,306,303,0
305,286,308,304,0
307,286,310,306,0
310,286,311,307,0
313,289,312,309,0
315,300,312,311,0
317,318,312,313,0
317,339,313,313,0
316,356,312,313,0
314,365,310,313,0
311,360,307,312,0
308,344,305,312,0
306,326,304,311,0
305,312,304,312,0
305,298,304,311,0
303,282,305,309,0
302,266,304,308,0
301,257,304,306,0
301,256,304,305,0
302,260,305,305,0
304,267,305,305,0
306,275,305,305,0
308,280,304,307,0
310,282,303,308,0
311,288,303,308,0
312,298,301,308,0
312,312,299,307,0
311,324,298,306,0
311,334,299,306,0
311,338,302,306,0
311,335,305,307,0
311,329,307,308,0
311,321,307,309,0
311,308,306,307,0
310,297,302,304,0
309,291,296,301,0
307,291,291,298,0
306,294,287,295,0
305,299,285,295,0
304,310,287,299,0
305,324,292,307,0
306,338,300,315,0
308,345,306,322,0
310,339,310,327,0
313,325,312,329,0
315,308,313,329,0
316,295,313,328,0
316,286,313,325,0
316,282,312,321,0
314,281,310,317,0
312,281,307,314,0
312,278,305,310,0
311,275,304,307,0
311,270,302,304,0
311,265,301,302,0
312,261,299,301,0
313,259,298,301,0
313,260,298,301,0
313,267,299,302,0
313,280,300,304,0
313,301,302,306,0
313,325,304,309,0
314,348,307,312,0
316,362,309,315,0
317,364,311,318,0
317,361,312,319,0
315,360,312,320,0
314,365,311,321,0
314,376,312,323,0
314,387,312,325,0
315,395,313,326,0
314,396,313,325,0
313,388,311,323,0
312,369,309,321,0
311,341,306,318,0
310,307,303,314,0
309,273,302,311,0
308,251,301,308,0
307,241,301,305,0
305,240,300,303,0
303,242,300,300,0
301,245,301,299,0
300,247,300,298,0
300,249,300,297,0
300,253,299,296,0
301,258,299,296,0
302,266,298,296,0
302,277,298,297,0
302,286,298,298,0
302,292,299,301,0
304,296,301,305,0
305,298,303,310,0
306,297,303,313,0
306,293,302,315,0
305,291,301,315,0
304,292,300,314,0
303,297,299,314,0
301,304,299,314,0
300,310,299,313,0
301,314,299,312,0
304,317,297,311,0
307,321,296,309,0
310,327,294,306,0
310,332,293,304,0
309,334,292,302,0
307,328,292,301,0
305,320,294,302,0
307,317,297,306,0
312,322,301,310,0
317,333,304,314,0
321,347,306,315,0
324,359,307,315,0
323,364,306,313,0
319,361,305,312,0
313,348,303,311,0
305,327,303,309,0
299,304,303,308,0
296,284,306,308,0
295,269,309,308,0
296,263,311,309,0
298,267,312,310,0
299,278,311,310,0
300,292,311,311,0
302,306,311,313,0
303,314,311,314,0
302,316,310,314,0
302,316,309,314,0
303,319,309,314,0
304,324,309,314,0
306,328,309,314,0
307,324,309,312,0
308,312,308,310,0
308,299,307,308,0
306,289,306,307,0
305,283,305,305,0
303,277,303,303,0
301,274,300,302,0
300,273,298,301,0
301,275,297,300,0
303,277,297,300,0
305,281,297,300,0
310,287,297,300,0
315,293,297,301,0
319,296,297,300,0
322,296,298,298,0
322,295,298,297,0
319,296,298,297,0
314,301,299,299,0
310,305,300,301,0
306,309,301,301,0
303,313,300,301,0
300,317,300,301,0
298,322,299,301,0
296,326,299,302,0
296,327,299,302,0
296,325,300,303,0
299,322,302,304,0
303,319,304,306,0
305,317,307,308,0
307,309,309,309,0
306,302,311,311,0
305,302,313,313,0
304,305,316,314,0
303,306,316,313,0
302,305,316,312,0
302,301,315,312,0
303,295,314,312,0
305,289,313,312,0
307,284,312,310,0
307,282,310,308,0
306,288,308,307,0
305,299,306,306,0
304,316,303,306,0
303,333,301,308,0
302,341,302,309,0
303,338,304,310,0
303,328,306,312,0
305,320,309,314,0
307,316,312,316,0
308,323,314,318,0
310,341,316,319,0
311,364,317,320,0
311,380,316,320,0
309,385,315,319,0
306,379,314,317,0
302,364,313,315,0
299,344,312,314,0
297,322,311,312,0
295,303,308,310,0
293,289,304,307,0
292,282,300,304,0
290,278,298,300,0
290,276,298,296,0
290,274,300,293,0
292,275,303,293,0
295,278,306,294,0
298,283,308,295,0
301,288,309,296,0
304,293,310,296,0
306,298,310,297,0
308,300,310,299,0
307,298,310,300,0
306,297,309,301,0
305,298,309,304,0
304,303,308,306,0
303,311,308,308,0
302,319,307,310,0
302,324,308,312,0
302,325,308,314,0
302,321,308,315,0
302,313,307,315,0
302,304,308,314,0
302,295,308,311,0
303,287,308,308,0
304,283,307,305,0
306,284,307,304,0
308,288,307,303,0
308,295,306,303,0
308,303,305,302,0
308,310,304,302,0
307,315,305,302,0
306,318,305,303,0
306,319,306,303,0
306,318,307,304,0
306,317,309,304,0
307,320,309,306,0
308,328,311,307,0
309,341,313,309,0
311,355,314,311,0
311,366,315,312,0
309,361,314,311,0
307,339,312,311,0
306,318,311,311,0
307,303,310,312,0
307,290,307,310,0
306,279,305,308,0
306,273,302,306,0
305,273,300,304,0
304,279,298,303,0
302,286,297,302,0
301,292,300,302,0
300,297,304,302,0
301,302,309,303,0
304,308,314,305,0
308,315,318,308,0
310,326,320,308,0
311,339,319,308,0
311,354,318,308,0
311,371,316,309,0
312,381,315,309,0
311,380,313,309,0
309,368,311,308,0
305,350,307,307,0
301,329,305,306,0
299,309,303,305,0
298,291,302,306,0
298,278,302,306,0
299,268,302,307,0
300,263,302,307,0
301,260,302,306,0
302,260,301,305,0
302,262,300,304,0
304,266,300,303,0
304,273,300,302,0
304,280,301,301,0
305,284,301,299,0
306,285,302,298,0
308,287,302,298,0
311,294,303,299,0
313,307,303,300,0
315,323,304,301,0
316,339,306,303,0
317,355,309,305,0
315,358,311,306,0
311,341,313,306,0
306,317,314,304,0
303,299,313,304,0
301,291,312,304,0
299,287,310,303,0
298,283,308,303,0
297,279,306,303,0
297,275,306,305,0
298,273,307,306,0
298,274,308,307,0
298,279,308,307,0
298,284,308,306,0
297,290,306,303,0
297,296,304,301,0
299,304,304,300,0
301,310,304,300,0
303,316,305,302,0
306,323,307,305,0
308,330,308,307,0
308,331,309,307,0
307,325,308,306,0
307,314,308,305,0
306,297,308,304,0
307,279,307,303,0
307,268,308,303,0
307,267,308,303,0
308,275,309,304,0
307,289,309,305,0
307,307,309,306,0
305,322,309,306,0
304,330,309,307,0
304,330,308,307,0
304,333,309,308,0
305,343,310,310,0
306,357,311,312,0
306,372,311,313,0
306,384,311,314,0
305,384,311,315,0
303,372,310,315,0
302,351,308,314,0
301,326,306,313,0
301,304,305,312,0
302,288,305,310,0
303,279,306,308,0
303,274,308,307,0
303,271,310,305,0
304,269,311,304,0
304,269,313,304,0
305,271,313,305,0
307,272,313,305,0
307,274,313,306,0
308,276,313,307,0
311,279,314,308,0
313,281,314,310,0
316,282,315,311,0
317,286,314,312,0
318,297,313,313,0
318,315,311,313,0
316,330,308,311,0
312,334,306,307,0
308,328,304,304,0
304,314,303,302,0
303,302,303,299,0
302,295,302,298,0
302,294,302,297,0
301,295,302,296,0
301,297,301,296,0
301,299,300,297,0
300,300,300,298,0
300,299,300,300,0
301,298,299,303,0
301,297,298,305,0
302,295,298,308,0
303,293,297,310,0
305,289,296,311,0
306,286,294,310,0
306,284,291,309,0
307,288,289,307,0
308,301,290,305,0
309,321,293,306,0
312,347,299,308,0
314,370,305,312,0
315,380,310,314,0
314,372,313,315,0
311,349,315,316,0
308,322,315,315,0
306,301,316,315,0
305,291,316,314,0
304,290,315,314,0
303,295,313,312,0
302,301,311,311,0
302,307,307,309,0
300,311,305,307,0
299,309,303,305,0
298,299,303,304,0
298,287,304,303,0
298,278,306,301,0
298,272,306,301,0
298,270,306,302,0
299,272,306,304,0
299,278,306,305,0
300,285,306,305,0
301,294,306,305,0
302,303,306,305,0
302,310,306,305,0
303,315,306,305,0
303,316,306,306,0
304,316,307,306,0
305,314,308,307,0
306,313,309,308,0
307,316,310,310,0
309,323,310,311,0
309,328,310,312,0
307,325,309,311,0
306,313,308,309,0
306,299,306,307,0
305,287,304,306,0
305,279,303,305,0
305,273,301,304,0
304,273,300,303,0
304,280,299,302,0
303,298,298,301,0
302,326,298,301,0
302,355,299,303,0
303,379,300,304,0
304,390,300,306,0
304,383,300,307,0
303,362,301,307,0
303,339,303,309,0
302,322,305,311,0
301,310,306,313,0
299,301,306,315,0
298,296,308,318,0
298,293,309,320,0
299,292,310,320,0
300,291,311,320,0
302,293,312,319,0
303,298,311,318,0
304,302,311,317,0
305,306,310,316,0
305,305,309,316,0
305,300,309,314,0
304,294,308,313,0
304,291,307,310,0
303,291,305,308,0
303,293,303,305,0
302,293,299,303,0
300,290,297,301,0
299,283,296,300,0
298,278,295,301,0
297,273,297,303,0
298,270,301,305,0
300,271,305,307,0
302,275,309,310,0
303,282,311,313,0
305,291,311,314,0
305,299,311,315,0
305,304,309,315,0
305,306,308,313,0
306,309,306,312,0
308,313,306,311,0
309,319,305,310,0
308,324,305,309,0
306,324,305,307,0
303,320,304,306,0
300,315,303,304,0
296,315,302,303,0
294,318,302,303,0
293,324,303,304,0
292,328,304,305,0
293,325,305,305,0
295,316,306,305,0
298,304,306,305,0
301,294,307,306,0
304,287,307,307,0
306,285,307,309,0
308,286,309,310,0
309,290,311,311,0
309,294,312,312,0
308,297,313,313,0
308,299,313,313,0
307,302,313,312,0
306,304,313,311,0
306,305,313,310,0
306,305,312,308,0
305,305,312,306,0
304,303,311,306,0
304,302,310,306,0
304,300,309,306,0
303,297,308,306,0
303,295,308,307,0
303,294,308,307,0
304,295,307,308,0
304,298,306,308,0
305,303,306,307,0
305,309,306,306,0
307,314,307,305,0
308,318,307,304,0
309,321,307,303,0
309,322,307,302,0
307,323,307,300,0
306,326,307,298,0
304,331,306,297,0
303,334,306,298,0
302,335,305,299,0
302,330,304,302,0
302,324,304,304,0
303,317,304,307,0
303,312,305,310,0
304,310,306,312,0
304,309,306,311,0
304,311,306,309,0
304,314,306,308,0
304,316,307,307,0
304,318,308,307,0
306,319,309,308,0
308,319,311,310,0
310,320,312,311,0
312,322,312,313,0
315,325,312,314,0
318,325,313,315,0
320,320,313,317,0
318,306,313,315,0
315,289,310,313,0
311,279,308,309,0
308,278,307,306,0
306,285,305,303,0
305,295,302,300,0
304,305,299,296,0
302,314,296,293,0
300,319,293,290,0
299,322,291,289,0
298,323,292,289,0
298,321,294,289,0
299,317,298,290,0
302,317,302,295,0
306,323,305,299,0
308,328,307,304,0
308,332,307,308,0
308,334,307,311,0
308,333,307,314,0
308,328,307,316,0
308,320,308,317,0
309,311,309,317,0
311,302,310,316,0
314,296,310,315,0
316,294,310,314,0
319,300,309,314,0
320,307,309,314,0
319,308,309,313,0
317,304,309,311,0
313,294,309,308,0
310,280,308,304,0
308,267,306,302,0
306,261,305,300,0
306,262,304,299,0
305,266,303,298,0
304,272,301,297,0
303,278,300,297,0
302,281,300,298,0
302,281,300,298,0
302,279,300,299,0
301,279,300,301,0
301,283,301,303,0
303,293,303,306,0
304,308,304,309,0
306,320,305,311,0
306,327,306,313,0
306,326,307,313,0
305,318,307,312,0
305,310,306,309,0
304,303,305,307,0
304,300,304,305,0
304,301,303,304,0
304,306,301,303,0
305,310,299,303,0
305,313,298,301,0
304,312,298,300,0
304,308,298,298,0
304,302,298,298,0
304,294,297,298,0
304,288,296,298,0
305,285,294,300,0
306,286,295,302,0
307,290,296,304,0
308,293,298,304,0
308,297,301,304,0
307,300,304,304,0
306,302,306,303,0
305,301,308,303,0
304,303,309,304,0
304,307,310,306,0
305,313,310,308,0
305,317,309,310,0
306,319,308,312,0
306,316,306,312,0
306,311,305,311,0
306,303,304,310,0
305,293,302,306,0
305,282,300,302,0
305,273,299,299,0
306,265,299,297,0
309,261,300,297,0
311,264,303,299,0
314,281,306,302,0
316,310,308,305,0
316,343,309,307,0
315,372,308,308,0
312,389,307,308,0
309,387,306,308,0
306,364,304,307,0
303,330,303,306,0
301,298,302,305,0
301,276,303,307,0
301,266,303,309,0
301,270,305,311,0
302,284,306,314,0
302,302,307,315,0
302,319,308,315,0
302,331,307,313,0
302,340,306,312,0
301,345,306,311,0
302,344,307,310,0
302,340,308,308,0
303,334,307,307,0
304,327,305,306,0
304,318,304,305,0
305,312,303,305,0
306,311,304,306,0
306,314,304,307,0
306,317,304,308,0
307,318,305,309,0
307,318,305,310,0
307,315,306,311,0
306,308,308,310,0
304,300,308,309,0
302,294,309,309,0
300,291,310,309,0
299,292,311,309,0
299,298,312,310,0
300,308,313,312,0
301,319,314,312,0
302,326,314,313,0
302,327,314,313,0
303,322,313,311,0
302,314,312,310,0
302,307,310,310,0
301,302,310,310,0
301,299,310,311,0
302,296,310,310,0
302,291,310,309,0
303,287,310,308,0
305,284,310,307,0
307,282,311,306,0
308,281,312,305,0
309,281,311,303,0
309,279,309,303,0
309,283,311,303,0
310,290,315,303,0
312,295,320,304,0
313,298,323,305,0
314,304,325,306,0
314,311,324,306,0
311,315,322,306,0
306,315,317,305,0
301,310,314,304,0
297,305,312,302,0
295,301,311,302,0
295,299,311,303,0
295,301,313,305,0
296,305,315,308,0
298,310,318,312,0
299,313,320,314,0
300,312,321,317,0
300,309,322,318,0
301,305,322,319,0
301,302,322,319,0
302,300,321,318,0
301,300,320,315,0
301,301,319,312,0
300,303,317,308,0
300,305,315,306,0
299,305,313,304,0
299,304,310,303,0
298,303,308,302,0
298,303,308,302,0
300,310,311,303,0
303,323,315,305,0
307,338,319,307,0
311,347,322,309,0
313,346,323,310,0
312,332,323,311,0
310,314,322,312,0
308,297,320,312,0
305,282,319,312,0
303,271,317,311,0
302,263,317,310,0
302,258,317,310,0
303,256,317,308,0
305,256,317,307,0
308,258,317,306,0
310,265,316,305,0
312,276,316,305,0
314,288,316,305,0
316,300,316,307,0
316,311,316,308,0
317,321,316,309,0
318,330,316,309,0
317,336,317,308,0
316,339,317,308,0
314,338,318,308,0
311,332,319,308,0
310,329,320,310,0
309,332,322,312,0
310,338,323,313,0
310,345,323,314,0
310,350,323,313,0
309,350,322,311,0
309,343,321,309,0
308,330,320,308,0
307,318,320,306,0
307,310,320,305,0
307,306,321,305,0
307,305,321,304,0
308,301,321,303,0
308,292,321,302,0
308,284,321,301,0
307,281,322,301,0
308,282,322,303,0
307,284,322,304,0
307,288,323,305,0
307,295,324,307,0
307,302,324,307,0
306,306,323,307,0
305,306,323,305,0
304,302,323,303,0
304,297,322,300,0
303,292,322,299,0
304,287,322,298,0
305,286,322,299,0
307,287,322,301,0
310,292,323,303,0
314,302,325,306,0
317,319,327,310,0
321,341,330,314,0
323,362,331,316,0
322,377,331,318,0
318,378,330,317,0
313,367,327,315,0
308,348,325,313,0
304,331,323,312,0
301,321,321,311,0
298,316,318,309,0
296,314,315,308,0
294,313,311,308,0
294,312,309,308,0
294,312,308,307,0
295,310,310,307,0
296,306,312,307,0
297,298,314,308,0
298,287,315,308,0
298,279,316,307,0
298,273,316,306,0
298,271,314,304,0
298,271,313,303,0
298,276,313,304,0
298,279,313,304,0
298,281,314,305,0
299,282,315,305,0
300,286,316,307,0
301,293,316,308,0
301,304,316,309,0
300,315,316,309,0
300,325,316,310,0
300,330,315,310,0
301,331,314,309,0
301,322,313,308,0
300,311,312,306,0
300,298,312,305,0
300,288,313,304,0
300,281,313,305,0
300,278,312,305,0
300,277,313,305,0
301,279,313,306,0
301,281,313,306,0
302,285,314,308,0
303,289,315,309,0
305,293,315,311,0
307,298,316,313,0
309,300,317,314,0
309,299,318,314,0
309,296,318,314,0
309,294,317,313,0
308,294,316,312,0
308,298,315,311,0
309,305,314,311,0
310,313,314,312,0
311,321,313,313,0
310,329,313,315,0
309,332,311,315,0
307,330,311,315,0
306,324,310,315,0
305,318,311,315,0
305,313,311,314,0
305,311,312,312,0
304,313,311,310,0
305,319,311,310,0
306,323,310,310,0
306,320,311,310,0
307,309,311,309,0
306,293,311,309,0
306,281,312,308,0
306,276,312,308,0
307,281,312,308,0
309,292,311,309,0
310,308,311,310,0
312,323,310,311,0
311,327,310,310,0
309,321,310,308,0
307,307,312,306,0
304,293,313,305,0
301,282,313,304,0
298,275,313,305,0
296,273,313,306,0
296,275,313,309,0
297,281,313,311,0
298,288,313,313,0
300,296,313,313,0
301,304,313,314,0
302,313,312,315,0
305,325,313,317,0
307,336,312,317,0
309,343,311,315,0
310,342,308,313,0
310,335,304,308,0
308,320,300,304,0
306,304,297,302,0
304,290,296,301,0
303,284,297,301,0
302,286,300,303,0
302,295,304,306,0
302,302,308,307,0
303,306,311,307,0
303,308,313,306,0
305,312,314,305,0
306,317,313,307,0
309,323,313,310,0
310,329,313,312,0
313,339,314,314,0
314,352,315,316,0
313,359,315,317,0
311,355,314,316,0
309,343,313,314,0
306,325,312,313,0
304,306,311,311,0
303,291,311,309,0
302,281,310,308,0
301,276,309,308,0
301,275,310,309,0
302,278,310,310,0
304,286,310,310,0
306,297,310,311,0
308,309,312,312,0
310,319,312,313,0
312,326,312,314,0
315,329,312,314,0
318,334,314,317,0
321,344,315,318,0
321,350,314,319,0
318,347,312,318,0
314,337,309,316,0
312,327,308,315,0
310,319,307,313,0
308,312,306,311,0
307,307,305,309,0
306,303,304,306,0
305,299,304,305,0
304,296,303,304,0
303,293,303,304,0
302,288,305,304,0
301,282,307,305,0
301,278,310,305,0
302,278,312,306,0
303,280,314,308,0
304,282,315,310,0
305,282,314,311,0
305,282,312,312,0
304,282,310,312,0
304,283,309,312,0
303,286,308,311,0
303,292,306,311,0
303,299,306,312,0
304,307,306,313,0
304,313,307,313,0
305,317,307,312,0
305,315,306,311,0
305,308,305,308,0
305,299,303,305,0
305,289,301,302,0
305,280,298,299,0
305,271,297,296,0
305,261,297,294,0
306,252,298,294,0
308,249,302,297,0
309,250,304,299,0
311,255,307,302,0
311,265,309,304,0
310,279,310,307,0
309,292,310,310,0
308,304,310,313,0
307,318,308,315,0
308,332,307,317,0
309,346,305,317,0
309,357,305,316,0
309,363,304,314,0
308,365,304,313,0
309,364,305,311,0
309,363,307,310,0
310,362,309,310,0
310,355,309,310,0
308,344,309,308,0
305,334,307,306,0
303,327,305,304,0
302,324,305,302,0
302,326,306,302,0
303,326,307,302,0
303,322,307,304,0
302,315,306,305,0
302,306,306,306,0
302,300,306,308,0
302,296,308,309,0
303,296,310,311,0
304,300,312,312,0
307,307,314,313,0
309,316,315,314,0
312,328,315,315,0
313,336,314,315,0
314,336,314,315,0
314,327,313,313,0
313,312,313,312,0
312,296,313,312,0
312,284,313,312,0
311,275,313,311,0
309,269,311,310,0
307,265,310,309,0
305,263,309,309,0
303,265,308,310,0
301,272,307,311,0
299,284,307,312,0
299,296,306,311,0
297,302,306,310,0
297,302,305,309,0
297,300,304,308,0
298,299,305,308,0
300,301,305,307,0
301,305,304,307,0
301,310,304,307,0
303,314,305,307,0
305,314,306,308,0
307,311,307,309,0
307,307,308,310,0
307,304,309,311,0
306,302,310,311,0
304,303,309,311,0
303,306,310,310,0
303,313,310,309,0
304,322,311,309,0
306,331,312,309,0
308,336,312,309,0
308,334,310,309,0
307,320,308,308,0
304,302,304,306,0
302,287,300,303,0
301,280,298,301,0
301,279,297,301,0
302,285,297,302,0
304,295,300,304,0
305,304,303,308,0
306,306,306,310,0
306,301,308,311,0
306,296,308,311,0
305,294,307,312,0
304,291,305,311,0
304,286,304,310,0
303,280,302,307,0
303,275,301,304,0
303,273,301,302,0
303,275,301,301,0
303,281,301,301,0
303,288,302,301,0
303,296,302,301,0
303,301,301,302,0
302,305,300,302,0
302,308,298,302,0
301,310,297,302,0
302,312,295,302,0
302,314,294,302,0
302,315,294,302,0
302,317,295,302,0
304,317,296,302,0
304,317,298,303,0
306,316,299,304,0
306,315,300,304,0
307,315,301,304,0
306,314,301,304,0
305,314,300,304,0
303,312,300,305,0
301,310,299,305,0
300,307,300,305,0
299,306,300,306,0
299,307,301,308,0
300,310,301,309,0
301,315,302,309,0
302,320,302,308,0
303,325,302,307,0
303,326,302,306,0
303,326,301,306,0
303,326,301,307,0
304,332,301,308,0
305,344,301,311,0
308,361,303,314,0
311,378,307,318,0
315,392,311,322,0
318,402,313,325,0
320,404,314,324,0
320,392,312,319,0
317,366,308,312,0
313,339,302,304,0
309,317,297,298,0
306,298,293,294,0
302,278,290,291,0
297,257,288,289,0
294,236,287,290,0
293,221,286,291,0
292,212,284,292,0
292,212,282,292,0
293,219,281,293,0
294,232,282,293,0
295,246,286,295,0
296,261,292,298,0
299,275,298,302,0
301,284,303,305,0
303,289,308,309,0
305,292,311,311,0
305,296,312,312,0
304,302,313,312,0
303,307,313,311,0
302,312,313,310,0
302,314,312,309,0
301,316,311,307,0
301,317,310,306,0
302,316,308,305,0
303,313,307,304,0
304,311,307,304,0
305,308,307,305,0
307,306,307,305,0
308,304,307,307,0
309,303,308,308,0
311,303,310,310,0
314,303,311,312,0
315,305,313,314,0
316,307,314,314,0
316,307,314,315,0
315,304,314,315,0
315,302,313,315,0
314,299,312,314,0
314,298,311,314,0
315,303,310,314,0
315,310,310,314,0
314,318,310,314,0
312,323,308,313,0
311,325,307,311,0
310,324,307,309,0
309,317,306,308,0
309,306,306,306,0
309,294,305,305,0
309,284,302,305,0
308,280,300,304,0
307,279,301,302,0
307,284,302,301,0
308,293,303,300,0
307,307,303,298,0
306,320,302,298,0
304,333,301,298,0
303,343,300,300,0
303,350,300,301,0
303,357,301,304,0
304,359,302,307,0
306,355,304,310,0
307,343,307,312,0
307,324,308,313,0
307,306,308,312,0
307,295,309,312,0
308,290,309,311,0
309,288,309,311,0
310,289,308,311,0
311,292,309,311,0
313,299,309,312,0
313,306,310,312,0
312,306,309,311,0
310,298,307,308,0
307,286,305,306,0
305,276,304,304,0
305,270,302,303,0
305,271,301,302,0
307,282,300,302,0
308,299,301,303,0
309,313,301,305,0
309,318,301,306,0
308,316,300,305,0
306,307,299,305,0
304,295,298,304,0
301,284,299,303,0
299,275,302,302,0
299,271,305,302,0
301,269,307,302,0
302,269,307,303,0
304,271,306,304,0
305,274,304,304,0
305,279,302,303,0
305,284,301,303,0
305,290,302,304,0
306,294,302,306,0
307,293,302,307,0
307,290,302,306,0
309,290,301,306,0
312,302,300,306,0
314,330,300,308,0
315,365,298,309,0
315,395,298,310,0
312,411,298,311,0
309,405,299,312,0
307,380,300,313,0
305,349,301,313,0
304,323,303,313,0
304,308,305,313,0
305,305,306,313,0
307,309,307,313,0
309,316,307,313,0
310,320,306,312,0
312,317,305,312,0
312,309,304,311,0
312,298,304,311,0
312,287,304,311,0
311,280,305,311,0
310,277,305,311,0
309,276,305,312,0
309,278,305,313,0
308,280,304,313,0
309,284,303,315,0
310,288,303,316,0
310,290,303,317,0
310,289,303,316,0
309,287,301,315,0
309,283,301,314,0
309,281,300,313,0
310,280,300,312,0
311,281,300,311,0
313,287,301,310,0
314,299,302,310,0
314,315,304,309,0
314,332,307,309,0
313,344,310,309,0
311,345,311,307,0
310,334,311,307,0
310,319,311,306,0
311,307,310,307,0
311,300,309,308,0
312,301,307,309,0
314,308,307,310,0
315,321,307,311,0
317,331,309,313,0
316,330,311,315,0
313,319,312,316,0
311,304,312,313,0
307,293,311,311,0
304,287,310,308,0
302,284,310,307,0
301,283,309,305,0
300,285,309,305,0
301,288,309,304,0
303,297,310,304,0
306,310,311,305,0
309,328,313,307,0
312,352,314,309,0
314,372,314,310,0
315,383,313,311,0
315,384,312,310,0
314,374,309,308,0
311,353,306,307,0
308,327,303,305,0
304,301,302,303,0
301,283,300,301,0
299,272,298,299,0
298,266,296,299,0
298,263,296,299,0
299,265,298,300,0
300,269,300,301,0
301,274,301,303,0
302,278,302,305,0
304,280,303,305,0
306,280,303,304,0
309,278,304,303,0
310,276,303,301,0
311,275,302,300,0
310,275,300,299,0
310,279,300,298,0
310,287,301,299,0
311,298,302,300,0
311,309,305,303,0
312,321,307,306,0
311,330,308,309,0
310,336,309,310,0
310,339,309,309,0
309,337,309,308,0
309,334,309,306,0
309,330,308,305,0
308,325,308,303,0
308,321,307,302,0
309,319,307,301,0
310,316,306,302,0
310,314,306,304,0
311,313,307,306,0
311,310,307,306,0
311,306,306,306,0
310,303,306,305,0
309,300,305,304,0
309,299,305,304,0
309,299,305,305,0
310,300,305,305,0
310,301,306,306,0
311,300,306,307,0
312,299,305,308,0
314,300,306,309,0
317,311,307,312,0
321,340,309,315,0
325,380,312,317,0
325,415,312,316,0
322,430,310,314,0
318,415,309,311,0
312,378,309,309,0
307,335,309,308,0
304,296,310,306,0
302,265,310,305,0
302,246,309,303,0
301,237,307,303,0
301,238,305,302,0
301,244,304,302,0
302,255,304,303,0
303,267,304,303,0
304,279,303,302,0
304,290,302,301,0
305,302,302,301,0
305,312,302,301,0
305,317,303,302,0
306,316,303,303,0
306,310,304,302,0
306,302,304,301,0
306,297,305,301,0
306,296,306,301,0
308,298,306,302,0
310,301,307,303,0
311,301,309,306,0
312,295,309,308,0
312,285,308,309,0
310,274,307,309,0
309,266,305,308,0
308,263,304,307,0
306,267,303,306,0
306,273,304,306,0
306,281,305,306,0
305,290,305,307,0
304,300,305,308,0
304,309,305,309,0
303,317,305,309,0
302,323,304,307,0
301,324,304,304,0
301,324,304,301,0
301,322,305,298,0
301,319,305,297,0
301,315,303,296,0
302,310,302,297,0
302,305,300,297,0
301,301,299,297,0
302,300,299,299,0
303,300,302,302,0
304,301,305,305,0
305,303,308,308,0
305,307,311,310,0
305,312,313,312,0
305,317,314,313,0
306,320,314,315,0
306,321,315,317,0
307,321,315,319,0
307,321,316,319,0
307,321,315,319,0
307,320,315,317,0
306,319,313,315,0
304,316,311,314,0
303,312,309,313,0
303,310,309,312,0
303,308,307,309,0
303,307,306,306,0
303,307,306,303,0
303,309,306,302,0
304,312,307,301,0
305,315,307,301,0
305,321,307,303,0
306,330,306,306,0
306,342,308,308,0
307,355,309,310,0
309,366,311,311,0
310,369,311,312,0
311,360,311,313,0
310,346,312,313,0
309,331,311,313,0
308,318,311,312,0
306,309,309,311,0
304,303,309,310,0
303,297,308,310,0
303,291,308,310,0
304,290,308,311,0
305,296,309,313,0
308,309,309,315,0
309,325,310,316,0
309,335,309,315,0
308,332,308,313,0
307,320,306,311,0
306,305,304,309,0
306,290,302,309,0
305,278,299,308,0
305,268,298,307,0
306,262,298,307,0
308,263,300,308,0
311,272,303,309,0
314,287,305,311,0
318,309,307,313,0
319,325,308,315,0
318,326,307,312,0
313,312,305,308,0
309,294,302,304,0
305,278,300,300,0
303,269,299,298,0
302,268,299,297,0
301,268,300,296,0
300,267,301,295,0
299,268,302,294,0
299,272,302,294,0
299,281,302,296,0
300,291,302,299,0
300,302,302,302,0
300,313,301,305,0
301,323,301,308,0
301,334,300,311,0
302,341,300,311,0
302,343,299,312,0
302,341,299,311,0
303,335,299,311,0
303,330,300,310,0
304,323,300,310,0
306,319,301,310,0
308,319,302,311,0
309,323,303,311,0
310,322,303,310,0
311,315,304,310,0
311,310,304,309,0
310,313,303,308,0
308,321,300,305,0
305,331,296,302,0
301,340,291,299,0
297,346,287,297,0
296,346,286,295,0
295,339,288,294,0
295,330,294,296,0
296,320,301,301,0
298,308,307,306,0
300,296,310,309,0
302,284,311,311,0
302,275,311,312,0
302,270,309,313,0
302,269,308,314,0
302,270,307,315,0
301,272,308,315,0
301,274,309,315,0
301,280,310,314,0
302,288,311,314,0
304,298,312,315,0
306,308,312,317,0
308,316,312,319,0
310,318,311,320,0
309,314,310,319,0
308,306,307,316,0
307,302,306,313,0
305,300,304,309,0
303,298,303,306,0
302,295,302,303,0
300,293,302,301,0
299,292,301,300,0
299,291,301,300,0
299,290,301,300,0
298,290,302,301,0
298,293,304,303,0
299,298,305,305,0
300,302,306,307,0
302,303,306,308,0
304,305,307,310,0
306,316,307,312,0
309,334,308,314,0
311,352,309,316,0
312,363,308,316,0
311,363,306,315,0
307,347,304,311,0
304,323,303,308,0
301,300,302,305,0
300,284,302,304,0
300,278,302,303,0
300,280,301,303,0
300,286,300,303,0
300,294,299,303,0
300,305,299,305,0
301,318,300,306,0
302,327,301,308,0
303,330,303,309,0
303,331,304,311,0
304,331,306,312,0
304,330,306,313,0
304,324,306,313,0
304,315,306,312,0
304,305,305,311,0
304,295,305,311,0
305,286,304,310,0
306,280,302,310,0
306,276,300,309,0
306,275,297,306,0
305,275,293,304,0
304,274,291,302,0
303,273,290,300,0
303,273,292,300,0
304,273,295,302,0
305,273,297,303,0
307,275,299,304,0
310,284,301,306,0
312,299,301,308,0
314,315,300,310,0
315,331,298,313,0
315,340,298,316,0
314,336,298,317,0
312,324,300,316,0
310,308,302,314,0
309,297,305,313,0
309,292,307,311,0
309,292,309,309,0
310,294,309,308,0
309,292,307,306,0
310,289,304,306,0
309,287,302,306,0
308,289,301,306,0
306,297,300,306,0
303,309,299,305,0
301,321,298,304,0
300,330,298,304,0
299,331,298,305,0
299,324,299,305,0
299,314,300,305,0
300,307,301,305,0
300,303,301,306,0
301,302,301,307,0
302,302,301,307,0
304,304,301,308,0
306,307,302,309,0
310,311,303,309,0
313,315,304,310,0
314,321,305,311,0
314,322,304,310,0
312,319,303,308,0
309,314,301,306,0
306,311,298,305,0
304,310,296,304,0
303,310,296,304,0
302,310,296,304,0
302,312,298,304,0
302,317,300,305,0
302,322,304,307,0
304,328,307,309,0
306,331,310,311,0
308,330,310,312,0
310,326,309,312,0
311,322,308,313,0
313,319,308,314,0
314,315,307,314,0
314,307,305,314,0
312,297,304,314,0
311,286,304,314,0
310,281,304,312,0
309,279,303,310,0
308,283,302,307,0
306,289,300,306,0
303,296,299,305,0
302,302,300,306,0
301,303,301,306,0
300,299,301,306,0
299,291,301,305,0
298,283,303,305,0
297,276,304,305,0
296,272,303,306,0
296,272,303,308,0
296,278,303,309,0
296,288,303,310,0
296,301,303,311,0
298,315,302,311,0
300,325,302,313,0
302,332,302,314,0
305,338,304,316,0
308,346,305,318,0
311,354,306,317,0
312,360,305,315,0
311,363,303,311,0
308,359,300,306,0
304,346,298,301,0
300,326,296,297,0
297,306,296,296,0
295,290,298,297,0
295,281,301,300,0
296,279,304,302,0
297,281,305,305,0
299,282,306,306,0
300,279,306,306,0
302,271,307,306,0
303,264,308,307,0
305,260,310,308,0
307,261,310,308,0
308,267,309,309,0
310,280,308,310,0
310,298,308,310,0
311,318,307,309,0
310,332,305,308,0
309,337,304,306,0
307,332,302,303,0
304,323,300,301,0
302,318,298,299,0
301,318,296,298,0
300,324,295,299,0
300,329,294,300,0
300,323,294,299,0
299,309,295,299,0
300,295,296,299,0
301,288,298,301,0
303,289,299,304,0
304,295,300,307,0
306,301,301,311,0
307,306,302,315,0
308,308,302,317,0
308,307,302,319,0
309,303,303,319,0
308,298,303,318,0
308,292,302,315,0
308,290,301,313,0
308,291,300,312,0
308,299,301,313,0
309,308,301,314,0
308,315,300,313,0
306,316,300,312,0
304,310,299,311,0
303,299,299,310,0
303,289,300,310,0
303,281,300,310,0
304,279,300,309,0
305,284,301,309,0
306,296,302,310,0
308,310,303,312,0
309,322,304,314,0
310,329,305,315,0
310,326,306,316,0
309,313,306,315,0
308,294,305,314,0
308,275,305,312,0
307,262,305,310,0
307,257,305,309,0
305,259,305,307,0
304,264,304,305,0
302,273,302,303,0
301,283,299,301,0
301,292,296,300,0
301,299,293,300,0
301,305,292,301,0
303,308,292,302,0
303,308,294,304,0
304,302,297,306,0
305,297,300,308,0
306,302,302,311,0
308,317,303,312,0
310,338,303,312,0
312,356,301,311,0
313,366,298,310,0
311,367,297,308,0
309,354,297,307,0
308,331,299,306,0
307,306,301,305,0
307,288,301,303,0
306,281,301,302,0
306,287,302,303,0
307,301,304,305,0
310,316,305,308,0
311,328,305,309,0
309,337,305,310,0
307,340,304,311,0
304,335,303,311,0
301,326,301,313,0
300,318,300,314,0
300,312,299,316,0
300,309,299,317,0
301,307,299,317,0
301,307,299,315,0
300,307,298,312,0
299,307,297,309,0
299,305,295,306,0
298,303,293,303,0
298,302,292,300,0
299,306,291,299,0
300,313,292,300,0
302,320,294,301,0
303,322,296,303,0
304,319,298,305,0
304,313,299,307,0
304,307,299,309,0
304,302,300,310,0
304,298,301,310,0
305,294,302,310,0
307,292,304,310,0
308,292,306,311,0
310,294,309,312,0
311,299,311,314,0
312,303,312,316,0
311,304,313,316,0
309,305,311,315,0
305,305,309,313,0
302,304,307,311,0
300,301,307,311,0
299,298,308,311,0
299,297,309,313,0
300,298,309,313,0
301,299,309,312,0
300,300,308,311,0
301,301,307,309,0
301,304,306,308,0
302,309,306,308,0
302,318,305,309,0
303,324,304,310,0
302,328,304,311,0
302,331,304,312,0
301,334,304,312,0
301,334,305,312,0
301,329,305,311,0
301,324,305,310,0
301,321,305,309,0
302,320,306,309,0
302,319,306,309,0
303,315,306,309,0
303,311,307,309,0
304,305,308,309,0
305,299,308,310,0
306,293,308,311,0
307,286,306,313,0
309,281,305,316,0
311,277,304,318,0
313,280,304,318,0
315,295,305,318,0
317,322,307,317,0
319,356,308,316,0
320,384,308,315,0
318,394,308,314,0
315,380,306,312,0
311,349,304,310,0
307,315,303,309,0
305,289,302,308,0
304,271,302,307,0
304,263,302,306,0
304,261,303,306,0
304,263,303,305,0
304,267,304,304,0
304,271,303,304,0
304,275,301,304,0
305,276,300,304,0
306,271,299,304,0
307,264,299,303,0
309,256,300,303,0
311,248,302,304,0
313,247,305,305,0
315,255,307,308,0
317,271,309,310,0
316,289,310,311,0
314,308,309,310,0
311,325,308,310,0
309,340,307,309,0
306,351,305,308,0
304,357,303,307,0
303,355,302,306,0
304,345,302,305,0
305,334,302,306,0
307,327,303,308,0
309,321,304,310,0
310,316,304,311,0
311,312,304,312,0
311,309,303,311,0
309,305,303,310,0
308,297,303,309,0
307,292,304,307,0
307,293,304,306,0
305,301,304,305,0
303,308,302,304,0
302,314,302,304,0
301,319,301,304,0
300,323,301,304,0
300,328,300,304,0
300,341,299,305,0
301,361,299,307,0
303,379,302,308,0
305,388,305,309,0
306,380,309,310,0
307,356,312,310,0
307,326,314,312,0
307,303,316,312,0
307,286,317,313,0
307,276,316,313,0
307,271,316,312,0
307,269,314,312,0
308,270,313,311,0
308,274,312,311,0
309,280,311,311,0
310,286,311,311,0
310,291,310,310,0
310,290,309,309,0
309,286,308,307,0
308,280,306,304,0
307,275,304,302,0
307,273,303,301,0
308,276,303,302,0
309,284,304,303,0
309,296,305,304,0
309,310,306,304,0
309,325,307,305,0
309,337,307,307,0
311,345,309,309,0
313,347,310,310,0
316,343,311,311,0
318,336,312,313,0
318,330,312,313,0
318,327,312,313,0
316,326,311,312,0
315,327,310,311,0
313,331,309,309,0
312,329,308,306,0
311,320,306,303,0
310,311,304,301,0
310,306,303,301,0
311,304,304,302,0
312,301,305,303,0
312,299,305,304,0
310,296,305,305,0
309,293,305,304,0
309,291,306,303,0
310,289,307,303,0
311,288,308,303,0
312,290,308,304,0
313,293,307,305,0
314,296,306,305,0
314,298,304,304,0
314,301,303,304,0
313,306,303,304,0
313,315,304,305,0
314,329,307,307,0
315,346,308,308,0
317,361,308,308,0
319,370,308,308,0
322,366,308,309,0
323,350,309,309,0
322,325,310,308,0
318,299,310,305,0
315,280,310,302,0
312,272,308,299,0
309,269,307,298,0
307,271,305,297,0
306,277,304,298,0
306,288,303,300,0
307,300,304,303,0
309,310,305,306,0
311,313,306,309,0
311,307,306,310,0
311,298,306,311,0
310,293,306,311,0
309,290,307,311,0
307,289,309,310,0
306,289,310,310,0
306,292,311,309,0
306,297,311,309,0
307,301,311,308,0
307,303,310,307,0
307,304,309,306,0
308,308,309,307,0
310,316,309,308,0
313,326,309,309,0
315,337,310,310,0
316,340,310,309,0
315,333,310,308,0
313,318,310,306,0
310,299,309,305,0
309,284,309,304,0
309,275,308,303,0
309,274,307,304,0
309,277,307,305,0
309,282,307,307,0
309,288,306,310,0
310,297,306,314,0
310,310,307,316,0
310,324,307,315,0
309,337,306,314,0
309,347,306,314,0
309,353,306,314,0
309,350,306,314,0
309,337,307,314,0
309,319,308,313,0
308,303,307,312,0
308,292,307,309,0
308,286,306,307,0
308,285,305,305,0
308,285,304,304,0
309,284,303,303,0
309,284,302,304,0
308,286,299,304,0
305,287,296,302,0
303,289,293,300,0
303,294,293,298,0
303,299,296,297,0
305,304,300,299,0
307,306,304,301,0
308,305,306,303,0
310,303,306,305,0
310,304,307,308,0
311,307,306,311,0
312,312,306,313,0
312,314,304,314,0
311,313,302,312,0
309,307,302,309,0
309,299,303,306,0
309,293,304,303,0
309,289,305,300,0
308,287,304,298,0
307,286,304,297,0
306,289,303,298,0
305,296,302,299,0
305,307,302,300,0
306,319,302,302,0
308,331,303,303,0
309,339,303,305,0
310,342,304,306,0
309,342,303,306,0
307,344,302,306,0
306,346,301,305,0
305,342,299,304,0
