309,296,308,309,0
308,291,312,309,0
306,287,315,310,0
304,282,317,311,0
303,275,320,312,0
303,270,322,313,0
304,265,325,315,0
305,261,327,316,0
308,258,327,317,0
309,256,327,317,0
310,259,327,316,0
310,265,326,316,0
310,277,326,317,0
312,292,325,320,0
314,308,325,323,0
316,320,325,326,0
317,323,324,327,0
316,315,323,324,0
312,303,320,320,0
308,294,318,315,0
304,298,316,312,0
303,326,316,310,0
304,367,316,308,0
307,408,318,309,0
310,438,319,310,0
310,442,320,312,0
308,420,321,313,0
304,384,319,314,0
301,349,318,313,0
300,320,317,313,0
301,301,317,313,0
302,289,316,312,0
304,281,314,311,0
305,275,313,310,0
306,271,312,311,0
306,266,312,312,0
305,261,313,311,0
305,257,314,310,0
305,259,317,310,0
305,265,319,312,0
305,270,321,312,0
305,273,322,313,0
306,273,322,315,0
311,272,322,319,0
319,274,323,324,0
327,283,325,328,0
333,297,325,330,0
333,309,322,326,0
327,317,319,321,0
320,326,317,316,0
314,329,316,314,0
309,321,317,313,0
303,307,317,314,0
298,291,317,314,0
295,269,317,314,0
293,245,316,313,0
293,221,316,312,0
295,202,316,312,0
298,190,317,313,0
302,199,317,314,0
304,238,317,316,0
306,289,317,318,0
308,337,317,319,0
312,378,317,320,0
314,400,317,320,0
314,402,317,319,0
313,391,316,316,0
311,372,315,314,0
310,350,314,312,0
309,332,313,311,0
309,322,313,311,0
310,317,312,310,0
310,310,311,309,0
309,301,309,307,0
308,292,308,305,0
306,286,307,305,0
305,283,307,305,0
305,282,308,307,0
305,280,309,309,0
307,283,311,312,0
308,294,312,314,0
309,304,313,316,0
309,308,312,316,0
308,306,311,314,0
307,298,309,312,0
305,287,307,310,0
305,275,306,308,0
306,265,305,306,0
309,258,305,305,0
313,259,307,305,0
316,262,309,305,0
316,268,310,303,0
312,280,310,301,0
309,300,310,301,0
307,320,311,305,0
306,329,312,309,0
305,332,313,312,0
305,333,313,314,0
304,329,313,314,0
303,319,311,313,0
301,309,308,312,0
301,303,306,310,0
301,303,304,308,0
302,305,303,307,0
303,306,303,306,0
304,305,304,307,0
305,306,307,309,0
306,308,309,311,0
307,309,311,314,0
307,306,312,315,0
306,301,313,315,0
304,296,314,315,0
304,294,315,316,0
304,295,316,316,0
306,299,316,316,0
307,303,315,317,0
307,307,313,316,0
308,314,310,316,0
308,326,307,316,0
309,340,305,315,0
309,344,304,314,0
308,336,303,311,0
306,320,303,309,0
303,296,304,306,0
301,274,305,305,0
299,268,308,305,0
300,285,311,308,0
302,322,315,312,0
306,368,319,317,0
309,402,322,319,0
312,414,324,320,0
313,405,326,319,0
312,377,326,316,0
309,336,324,313,0
305,295,322,311,0
303,261,320,310,0
303,238,320,309,0
305,230,321,311,0
309,240,323,314,0
312,261,325,318,0
314,282,326,321,0
316,295,325,322,0
316,305,325,323,0
316,314,325,323,0
315,316,324,321,0
314,311,322,317,0
313,304,320,314,0
311,297,318,311,0
309,291,315,309,0
307,290,314,309,0
307,297,313,310,0
309,308,313,311,0
310,317,312,312,0
309,321,310,310,0
309,322,310,310,0
309,324,310,310,0
311,328,311,311,0
311,330,312,311,0
310,329,311,310,0
308,325,310,308,0
308,319,310,307,0
308,313,309,306,0
309,305,309,304,0
310,298,309,301,0
311,290,309,298,0
310,282,308,293,0
309,277,307,291,0
308,273,306,292,0
307,267,307,292,0
307,261,308,293,0
308,264,311,293,0
311,280,314,294,0
314,304,317,296,0
315,327,319,299,0
313,336,319,301,0
309,331,319,304,0
305,318,319,308,0
302,306,320,312,0
302,296,319,315,0
302,291,319,317,0
302,290,319,317,0
302,292,319,318,0
302,295,319,319,0
304,295,319,320,0
306,294,320,322,0
310,293,320,323,0
314,296,319,322,0
316,309,318,322,0
318,333,315,321,0
317,359,312,318,0
316,384,310,316,0
314,400,307,314,0
312,397,304,311,0
310,373,301,310,0
309,341,301,308,0
309,311,301,308,0
310,289,303,309,0
311,275,304,310,0
309,265,304,310,0
306,261,304,309,0
302,261,303,308,0
298,263,302,306,0
296,265,301,305,0
294,266,301,304,0
295,268,302,305,0
298,277,304,307,0
303,293,307,310,0
311,316,310,313,0
318,337,313,315,0
321,345,312,314,0
319,337,309,310,0
315,323,308,308,0
312,311,309,308,0
313,306,312,311,0
316,309,315,315,0
320,317,317,316,0
322,324,318,315,0
319,327,317,311,0
314,318,315,306,0
308,303,312,301,0
304,292,310,299,0
303,294,310,302,0
304,305,310,306,0
305,314,310,308,0
305,309,309,308,0
305,296,308,306,0
304,281,309,305,0
303,271,311,303,0
303,269,314,302,0
304,273,317,303,0
305,284,320,304,0
306,296,321,305,0
304,306,319,304,0
302,322,317,304,0
304,350,316,304,0
309,386,316,306,0
316,421,317,311,0
323,441,318,314,0
323,429,315,314,0
317,382,312,311,0
310,323,309,310,0
305,278,307,310,0
303,257,308,312,0
304,260,308,313,0
305,277,309,313,0
306,299,309,313,0
306,311,310,313,0
306,311,311,312,0
306,303,312,312,0
307,296,312,312,0
307,290,312,312,0
306,286,311,312,0
305,282,309,311,0
304,275,307,310,0
303,266,303,309,0
303,258,298,308,0
305,253,293,307,0
307,254,290,308,0
311,263,290,310,0
315,282,292,310,0
313,302,295,308,0
309,321,297,306,0
304,334,302,306,0
301,338,309,308,0
300,339,315,313,0
301,336,320,317,0
302,324,322,319,0
301,308,321,319,0
299,293,318,317,0
297,282,315,315,0
296,275,312,312,0
295,274,310,310,0
297,281,308,311,0
300,294,308,312,0
304,309,307,314,0
306,322,304,313,0
309,333,300,311,0
311,339,296,309,0
313,340,291,307,0
311,334,288,304,0
310,334,288,302,0
309,349,292,303,0
309,373,298,306,0
310,396,304,307,0
309,402,308,307,0
305,385,309,305,0
302,356,309,304,0
300,331,308,304,0
299,310,308,305,0
299,292,307,304,0
301,279,308,304,0
304,272,309,304,0
307,271,312,307,0
308,273,314,310,0
309,279,317,313,0
309,288,319,316,0
307,300,320,317,0
305,310,320,318,0
301,317,320,319,0
298,318,318,318,0
295,304,315,316,0
293,282,313,315,0
293,264,311,314,0
294,254,311,315,0
296,250,310,316,0
299,251,310,317,0
304,254,312,318,0
308,256,312,318,0
311,259,312,318,0
314,268,313,319,0
317,286,313,319,0
316,307,311,318,0
312,319,307,314,0
306,324,304,311,0
302,324,304,311,0
301,315,307,313,0
301,297,311,314,0
301,282,312,315,0
300,279,312,316,0
301,285,311,317,0
301,301,308,318,0
301,323,306,319,0
301,336,304,319,0
301,335,302,318,0
301,331,302,316,0
300,329,303,315,0
300,328,304,313,0
299,321,305,312,0
298,308,305,311,0
298,293,305,310,0
298,283,305,310,0
299,279,305,310,0
299,281,306,311,0
301,291,307,312,0
303,308,309,314,0
307,326,310,317,0
310,340,311,319,0
312,343,311,319,0
311,331,309,317,0
308,307,306,315,0
304,282,304,312,0
302,261,302,311,0
301,249,301,310,0
302,245,301,311,0
304,249,302,312,0
307,259,304,313,0
310,274,305,314,0
312,294,306,313,0
315,313,308,314,0
318,332,310,315,0
322,350,313,318,0
325,357,315,319,0
323,347,314,317,0
318,327,311,314,0
312,310,307,311,0
307,302,304,310,0
303,305,302,310,0
300,311,300,311,0
299,311,299,311,0
298,302,298,309,0
297,291,298,308,0
297,286,300,308,0
299,288,303,309,0
300,299,306,311,0
302,315,308,311,0
304,332,309,312,0
307,347,310,312,0
310,352,309,311,0
310,337,307,307,0
308,309,303,303,0
305,281,299,300,0
304,261,298,299,0
303,248,297,298,0
302,240,299,298,0
302,234,301,298,0
301,231,303,299,0
302,232,306,302,0
303,236,308,306,0
303,247,310,309,0
303,262,310,313,0
303,281,311,317,0
302,299,311,322,0
302,311,312,325,0
303,317,313,326,0
303,320,314,327,0
304,319,315,326,0
304,315,315,325,0
306,311,315,323,0
307,310,314,321,0
308,312,313,320,0
308,315,311,317,0
307,322,309,315,0
307,334,308,314,0
307,350,306,313,0
308,365,305,313,0
310,376,304,314,0
311,380,303,314,0
310,370,302,312,0
307,351,302,309,0
304,333,303,308,0
302,320,306,307,0
301,312,308,307,0
300,299,308,306,0
299,281,307,305,0
298,266,306,304,0
298,257,305,303,0
298,251,305,302,0
298,252,305,301,0
299,259,305,300,0
301,270,304,300,0
301,278,303,300,0
301,277,302,301,0
300,276,301,304,0
301,278,301,308,0
301,285,301,310,0
301,297,300,310,0
302,315,299,310,0
304,332,299,309,0
306,343,300,309,0
308,346,301,309,0
310,345,304,309,0
312,345,308,310,0
314,346,312,311,0
315,341,314,311,0
312,325,316,311,0
308,305,317,311,0
305,290,318,311,0
303,280,317,311,0
301,274,316,309,0
300,271,315,307,0
300,271,313,305,0
301,275,312,304,0
302,282,311,304,0
302,288,310,305,0
304,293,309,307,0
305,299,308,309,0
306,302,307,311,0
307,304,307,313,0
307,308,307,314,0
306,317,307,314,0
305,330,308,315,0
305,338,309,315,0
305,339,311,314,0
306,329,311,314,0
307,312,312,314,0
309,295,315,316,0
312,289,318,318,0
314,298,321,320,0
316,321,323,322,0
316,347,324,322,0
314,365,323,320,0
310,369,321,317,0
307,359,319,314,0
305,338,317,311,0
303,314,316,309,0
301,294,315,308,0
301,280,316,309,0
302,269,316,309,0
303,259,315,309,0
303,251,313,308,0
303,243,311,307,0
302,243,309,306,0
301,251,306,305,0
301,266,305,305,0
299,285,304,304,0
300,305,304,305,0
302,324,305,306,0
304,336,306,308,0
306,344,308,309,0
308,345,310,309,0
308,335,310,307,0
306,319,310,305,0
306,305,310,304,0
307,295,309,302,0
308,289,308,302,0
309,287,307,301,0
308,289,303,300,0
305,292,299,298,0
301,295,295,296,0
297,299,293,297,0
295,302,295,300,0
295,308,300,305,0
297,314,305,311,0
299,316,309,315,0
300,314,311,318,0
301,312,311,318,0
299,311,309,317,0
298,311,307,316,0
299,312,307,317,0
301,313,307,317,0
304,313,306,316,0
306,312,303,316,0
308,310,302,316,0
310,310,300,317,0
311,310,301,316,0
310,305,301,313,0
309,297,303,311,0
309,293,307,309,0
309,291,311,307,0
308,289,313,305,0
306,290,314,302,0
304,299,313,299,0
303,311,312,297,0
304,319,310,296,0
306,321,309,294,0
310,321,309,296,0
313,320,309,298,0
314,317,309,299,0
312,313,307,299,0
309,312,305,299,0
306,314,303,299,0
304,318,301,298,0
302,317,300,297,0
301,309,301,298,0
302,301,303,300,0
303,291,307,303,0
304,286,311,306,0
304,288,313,308,0
303,300,314,308,0
303,314,315,309,0
303,322,316,310,0
303,320,316,312,0
303,317,316,313,0
305,325,315,314,0
307,339,315,314,0
308,356,314,314,0
310,368,313,312,0
311,362,311,309,0
310,335,308,306,0
309,304,306,304,0
307,280,304,304,0
306,267,303,303,0
305,261,303,301,0
304,260,305,301,0
305,261,309,301,0
307,263,315,303,0
309,265,320,304,0
311,268,323,305,0
312,272,323,306,0
312,278,321,306,0
311,287,318,306,0
310,296,315,307,0
309,301,313,307,0
308,303,311,307,0
308,303,311,306,0
308,305,312,306,0
308,309,312,306,0
309,313,312,306,0
309,319,312,305,0
310,333,312,305,0
310,351,312,306,0
309,364,311,306,0
308,366,310,306,0
306,353,309,306,0
304,333,308,307,0
303,314,308,307,0
302,300,309,309,0
301,294,310,311,0
301,290,310,312,0
300,287,310,312,0
301,288,309,311,0
302,294,308,310,0
303,302,306,309,0
304,305,305,308,0
306,304,304,307,0
307,297,305,308,0
308,286,307,308,0
306,274,308,309,0
304,268,310,310,0
303,268,312,312,0
302,276,313,313,0
303,289,315,315,0
305,299,316,316,0
307,301,316,316,0
309,300,316,316,0
309,298,316,315,0
309,296,315,315,0
308,294,314,314,0
307,291,313,313,0
307,289,312,313,0
307,288,312,312,0
307,288,312,311,0
307,291,313,310,0
308,297,313,310,0
309,306,313,310,0
309,315,313,310,0
310,318,312,311,0
309,315,312,312,0
308,307,312,313,0
307,298,312,313,0
307,286,313,314,0
307,272,313,315,0
308,263,315,316,0
311,260,315,316,0
314,266,315,316,0
316,281,315,316,0
318,299,314,316,0
316,313,312,314,0
311,319,308,310,0
305,321,305,306,0
301,320,304,304,0
299,320,304,304,0
298,320,305,306,0
297,318,306,306,0
297,316,307,306,0
298,314,307,306,0
299,312,306,307,0
300,311,306,310,0
302,309,306,313,0
304,306,306,314,0
305,303,306,312,0
305,301,305,310,0
305,302,306,308,0
307,310,307,307,0
308,323,309,307,0
308,340,311,309,0
309,357,314,310,0
310,367,315,311,0
311,368,315,311,0
311,359,315,311,0
309,342,315,311,0
309,327,316,313,0
310,326,317,315,0
312,342,318,317,0
315,367,319,318,0
318,395,321,321,0
320,406,321,322,0
318,386,319,321,0
313,341,317,318,0
308,291,315,316,0
305,250,314,314,0
304,226,313,313,0
303,213,312,311,0
302,210,311,309,0
302,216,310,308,0
302,231,308,307,0
302,249,307,307,0
304,268,304,309,0
306,283,301,310,0
306,292,298,309,0
307,298,296,307,0
307,301,295,304,0
307,300,295,302,0
306,301,297,301,0
306,307,301,303,0
305,314,305,304,0
304,321,308,304,0
302,323,311,305,0
300,313,312,305,0
299,290,313,304,0
300,263,313,304,0
302,239,314,304,0
304,227,315,304,0
308,228,316,305,0
312,239,317,308,0
313,260,317,310,0
314,290,316,313,0
314,318,315,316,0
314,336,314,317,0
314,341,313,316,0
313,336,312,315,0
312,328,311,313,0
310,322,310,312,0
310,317,311,311,0
311,313,311,311,0
312,313,312,311,0
313,319,312,312,0
312,329,312,311,0
311,341,310,311,0
310,349,309,311,0
307,349,308,311,0
305,340,307,311,0
302,326,306,310,0
301,311,304,309,0
300,300,304,308,0
300,294,303,306,0
299,288,303,304,0
299,285,303,303,0
300,284,304,302,0
301,285,306,303,0
303,286,308,305,0
303,288,311,308,0
304,294,312,309,0
305,302,313,310,0
306,312,313,310,0
307,319,313,309,0
307,321,312,308,0
306,317,311,306,0
306,307,310,305,0
307,296,310,305,0
308,287,311,306,0
309,280,311,307,0
310,278,312,309,0
312,282,311,310,0
313,291,311,311,0
313,299,310,311,0
311,302,308,309,0
309,303,306,308,0
307,305,307,308,0
307,306,308,309,0
307,305,309,310,0
306,306,310,310,0
306,309,311,311,0
306,315,311,311,0
306,319,311,311,0
306,316,311,311,0
307,309,311,312,0
308,306,310,313,0
308,306,310,313,0
309,308,308,313,0
307,306,307,312,0
306,298,306,309,0
304,286,305,307,0
304,276,306,307,0
304,273,307,307,0
304,276,307,307,0
304,288,308,308,0
305,304,308,309,0
307,322,308,311,0
310,342,309,314,0
313,359,310,316,0
315,370,309,317,0
314,373,308,317,0
312,371,307,315,0
310,374,306,314,0
308,379,306,312,0
307,378,304,310,0
305,366,303,308,0
303,345,303,307,0
302,320,304,306,0
302,292,305,306,0
303,266,305,306,0
304,246,306,307,0
306,236,307,307,0
307,235,307,308,0
308,237,307,308,0
308,240,306,308,0
307,242,305,307,0
307,242,305,307,0
307,238,305,307,0
308,235,305,307,0
309,236,306,307,0
309,245,307,308,0
308,265,307,309,0
307,294,307,309,0
306,326,307,309,0
306,353,306,310,0
306,372,306,311,0
307,377,306,311,0
307,364,306,312,0
308,342,305,312,0
307,321,305,311,0
306,305,304,311,0
306,295,304,311,0
306,289,305,311,0
307,288,307,312,0
307,290,309,314,0
308,294,311,315,0
307,298,312,315,0
306,303,311,314,0
305,310,311,313,0
303,316,309,312,0
301,321,308,310,0
300,321,308,310,0
300,317,309,311,0
301,310,310,313,0
302,304,312,314,0
303,301,312,314,0
303,301,312,313,0
304,301,312,314,0
304,301,312,315,0
305,301,312,316,0
307,299,312,317,0
309,297,312,319,0
311,298,311,318,0
313,301,310,317,0
313,303,308,313,0
313,301,307,310,0
313,300,307,307,0
311,302,307,306,0
309,306,307,307,0
306,309,306,310,0
304,308,306,311,0
303,305,306,312,0
302,301,306,312,0
302,299,306,311,0
303,300,305,310,0
303,301,305,310,0
305,302,305,310,0
306,302,306,310,0
308,301,307,310,0
311,303,308,311,0
313,306,310,312,0
313,315,312,313,0
314,336,313,314,0
315,366,315,315,0
316,393,317,316,0
317,409,317,316,0
316,412,317,315,0
315,409,315,315,0
312,403,314,315,0
308,389,312,315,0
304,361,311,314,0
301,328,309,314,0
301,301,309,315,0
302,283,309,317,0
304,275,309,320,0
307,277,309,321,0
309,286,309,322,0
309,299,308,321,0
308,312,307,320,0
306,318,305,317,0
303,311,304,314,0
302,297,303,312,0
301,283,303,310,0
300,272,302,308,0
300,266,302,308,0
301,263,302,309,0
302,263,303,309,0
302,266,304,309,0
303,270,305,309,0
304,274,307,309,0
304,279,307,309,0
305,285,307,309,0
306,292,308,309,0
307,300,308,310,0
307,305,308,311,0
307,308,307,312,0
307,308,306,312,0
306,305,304,311,0
305,302,303,310,0
304,301,302,309,0
304,302,302,308,0
304,303,303,308,0
304,302,306,309,0
307,309,309,310,0
310,326,313,312,0
314,350,316,313,0
318,374,317,314,0
321,397,317,314,0
320,414,315,314,0
318,410,313,311,0
314,387,310,307,0
310,353,310,305,0
306,315,310,305,0
304,280,311,306,0
302,253,311,307,0
300,238,311,307,0
300,230,310,305,0
300,229,307,303,0
300,233,305,300,0
300,240,302,298,0
299,250,301,298,0
300,263,302,301,0
301,283,303,305,0
303,307,305,309,0
305,329,307,312,0
305,340,307,313,0
306,339,307,313,0
306,331,306,312,0
306,319,306,310,0
306,307,306,310,0
307,298,308,311,0
308,293,310,313,0
309,292,312,315,0
310,295,313,316,0
310,302,313,317,0
312,309,314,318,0
313,313,314,318,0
313,308,313,317,0
312,300,312,316,0
312,300,310,316,0
313,309,310,317,0
315,325,309,318,0
316,345,309,319,0
318,364,309,320,0
318,372,308,320,0
316,365,307,319,0
314,353,306,318,0
311,340,305,317,0
309,327,305,316,0
307,313,304,313,0
305,297,302,309,0
303,285,300,305,0
301,277,299,303,0
300,273,299,304,0
300,270,300,307,0
301,266,300,310,0
303,261,301,313,0
305,260,302,316,0
307,269,303,318,0
309,288,303,319,0
311,310,304,319,0
312,326,304,318,0
310,331,303,316,0
307,325,302,315,0
303,312,301,314,0
300,299,301,313,0
298,290,302,314,0
297,281,303,315,0
297,273,304,315,0
298,265,305,314,0
299,258,306,314,0
301,254,306,314,0
304,256,306,314,0
307,269,306,314,0
310,294,306,313,0
310,320,305,310,0
309,342,303,307,0
307,359,302,304,0
306,372,300,303,0
305,373,298,302,0
303,358,296,301,0
301,336,295,302,0
298,319,295,303,0
297,310,296,304,0
296,308,298,305,0
296,310,300,306,0
297,310,302,307,0
298,308,303,307,0
300,307,303,308,0
301,304,304,309,0
303,299,305,309,0
304,290,305,308,0
304,282,304,307,0
304,275,303,304,0
304,271,303,302,0
303,270,303,301,0
304,269,304,302,0
304,269,305,304,0
304,270,306,306,0
304,276,307,307,0
304,288,307,308,0
304,301,308,310,0
305,312,309,311,0
308,321,311,314,0
311,329,313,316,0
314,338,315,318,0
316,350,315,319,0
317,363,315,319,0
315,373,314,318,0
312,377,312,315,0
308,372,309,313,0
304,358,306,309,0
301,337,303,306,0
299,316,300,303,0
297,295,299,301,0
296,279,298,300,0
296,268,298,299,0
297,264,299,298,0
298,267,300,299,0
299,275,301,299,0
300,290,302,299,0
300,306,302,299,0
299,315,302,298,0
298,315,301,297,0
296,307,301,295,0
295,298,300,294,0
295,291,300,293,0
296,288,300,294,0
297,289,301,298,0
299,291,301,302,0
300,293,301,307,0
302,295,301,310,0
304,295,301,313,0
305,295,300,315,0
308,294,300,317,0
309,294,302,318,0
309,292,303,317,0
309,287,305,314,0
307,282,306,311,0
306,278,306,308,0
306,279,306,304,0
305,283,306,301,0
304,288,304,297,0
303,293,303,295,0
302,301,302,295,0
302,312,301,296,0
302,320,301,298,0
303,324,301,300,0
304,324,301,302,0
304,321,301,303,0
304,317,300,305,0
303,315,298,306,0
302,317,297,307,0
303,318,297,308,0
303,319,296,308,0
304,319,295,308,0
304,317,296,307,0
305,316,298,307,0
307,317,301,307,0
309,319,304,308,0
311,320,306,309,0
311,318,309,309,0
310,314,310,309,0
308,311,310,310,0
306,310,310,310,0
305,311,311,312,0
306,314,311,313,0
306,318,311,313,0
306,318,311,313,0
306,316,310,312,0
306,314,310,312,0
306,316,310,312,0
307,319,310,313,0
308,318,310,312,0
309,313,310,310,0
308,304,310,308,0
308,291,310,307,0
309,281,310,307,0
310,278,310,307,0
311,288,309,307,0
311,307,309,307,0
309,329,308,307,0
308,351,308,307,0
307,362,308,308,0
306,359,308,309,0
305,350,310,311,0
306,349,311,313,0
309,358,313,314,0
311,370,314,314,0
312,383,314,313,0
313,391,316,313,0
314,388,317,313,0
315,369,318,313,0
313,337,316,310,0
309,299,314,307,0
306,268,312,304,0
303,258,310,302,0
302,267,309,301,0
301,286,308,300,0
302,303,307,300,0
303,315,306,300,0
302,321,305,301,0
300,315,304,301,0
299,302,303,301,0
298,295,302,301,0
298,295,302,302,0
298,300,302,303,0
300,304,302,303,0
300,300,302,303,0
300,288,302,301,0
300,272,300,299,0
298,263,300,298,0
298,264,300,299,0
298,277,301,301,0
299,297,303,303,0
300,319,304,304,0
301,334,306,305,0
302,340,307,305,0
303,334,308,305,0
305,319,309,305,0
307,307,311,306,0
311,299,312,306,0
314,296,312,307,0
316,298,311,307,0
317,300,310,306,0
316,301,309,305,0
315,301,308,304,0
315,301,308,303,0
315,298,307,303,0
314,295,306,303,0
314,295,305,303,0
313,297,305,302,0
312,298,303,301,0
310,301,301,300,0
308,310,300,300,0
308,325,299,300,0
308,336,299,300,0
308,340,301,301,0
310,334,301,301,0
311,321,302,302,0
313,305,304,304,0
315,287,305,304,0
315,270,306,304,0
315,261,306,303,0
313,260,305,303,0
312,265,305,303,0
310,273,305,303,0
309,281,305,303,0
309,285,305,303,0
309,285,305,302,0
310,282,305,301,0
311,280,304,301,0
312,281,304,300,0
313,286,304,300,0
313,295,304,299,0
313,305,304,299,0
312,314,303,300,0
312,319,303,301,0
312,319,304,303,0
312,315,304,304,0
312,311,306,306,0
314,310,307,307,0
316,311,309,309,0
317,310,310,309,0
318,308,310,309,0
317,308,310,308,0
316,314,309,307,0
316,326,308,307,0
315,340,307,307,0
314,349,305,307,0
312,348,304,304,0
309,340,302,301,0
306,330,301,298,0
304,320,301,296,0
304,311,301,295,0
304,304,301,295,0
305,302,301,296,0
306,304,301,298,0
305,307,300,300,0
304,307,300,302,0
303,304,299,303,0
302,300,299,304,0
303,297,299,304,0
304,294,301,304,0
305,293,302,304,0
306,295,304,304,0
307,301,305,305,0
307,310,306,306,0
308,316,307,307,0
308,319,307,308,0
309,325,307,308,0
310,335,306,308,0
311,347,305,308,0
313,357,304,309,0
314,361,305,309,0
314,348,304,309,0
313,327,304,310,0
313,313,305,310,0
313,310,305,310,0
312,314,305,311,0
312,319,304,312,0
311,321,304,312,0
310,322,303,312,0
310,318,303,312,0
309,308,302,310,0
307,294,302,308,0
305,281,302,307,0
303,271,304,306,0
302,264,305,306,0
301,259,305,305,0
300,255,304,304,0
300,256,304,302,0
300,261,303,302,0
301,270,303,303,0
300,281,303,304,0
300,292,302,307,0
299,301,302,308,0
299,307,302,309,0
300,313,302,309,0
300,315,302,309,0
300,313,302,308,0
301,312,303,308,0
302,317,304,308,0
303,330,305,309,0
305,348,305,310,0
307,365,306,311,0
308,375,306,312,0
308,371,307,313,0
307,351,307,312,0
304,325,307,312,0
303,304,307,311,0
302,292,306,310,0
302,286,306,309,0
302,285,306,309,0
303,283,307,307,0
303,282,307,306,0
303,282,307,305,0
303,282,306,304,0
305,285,306,305,0
307,290,308,307,0
309,298,309,308,0
310,311,310,310,0
310,325,312,310,0
309,337,312,310,0
307,341,312,309,0
305,337,311,308,0
302,332,310,308,0
301,324,308,307,0
300,317,306,306,0
301,315,305,306,0
303,313,305,307,0
304,302,304,307,0
304,284,302,307,0
303,271,300,306,0
301,266,298,304,0
300,270,297,303,0
300,279,297,302,0
300,288,299,302,0
300,295,301,303,0
300,298,303,305,0
301,299,305,307,0
301,298,306,309,0
302,298,307,310,0
303,297,307,309,0
304,295,307,308,0
304,291,307,308,0
304,287,307,308,0
305,285,308,309,0
306,284,309,310,0
306,281,309,309,0
306,281,308,308,0
306,285,308,307,0
306,292,307,307,0
305,301,307,308,0
305,312,307,309,0
306,321,306,309,0
306,331,307,309,0
306,338,307,309,0
306,340,307,308,0
304,333,307,307,0
302,319,306,306,0
300,304,305,305,0
298,294,306,305,0
298,289,307,305,0
298,287,307,305,0
300,285,307,305,0
302,285,308,306,0
305,286,308,307,0
307,288,309,308,0
309,292,309,309,0
310,302,309,309,0
311,321,310,309,0
312,345,310,310,0
312,368,310,311,0
312,383,309,312,0
312,384,308,312,0
311,370,307,312,0
310,352,307,314,0
309,335,308,316,0
308,320,308,316,0
306,307,307,315,0
304,297,306,313,0
304,294,305,312,0
304,299,305,312,0
305,306,305,313,0
306,308,304,314,0
305,306,303,314,0
305,304,303,313,0
304,306,304,312,0
304,311,304,312,0
304,315,305,310,0
303,313,306,309,0
301,305,306,308,0
300,295,306,307,0
299,289,306,307,0
299,290,304,307,0
299,298,303,306,0
300,310,303,306,0
301,325,303,307,0
304,338,304,309,0
307,342,306,310,0
309,335,307,311,0
310,324,308,311,0
310,312,309,310,0
309,299,310,310,0
308,284,310,309,0
307,269,310,310,0
307,256,310,311,0
307,248,310,311,0
308,243,309,311,0
309,241,308,310,0
309,241,306,308,0
308,242,305,305,0
308,244,304,303,0
308,244,305,303,0
308,246,306,303,0
308,254,308,305,0
308,271,310,308,0
309,296,311,310,0
310,324,312,313,0
311,351,313,315,0
310,373,313,317,0
309,382,313,317,0
307,374,313,317,0
305,355,313,316,0
305,335,313,315,0
304,321,314,315,0
304,316,313,314,0
304,317,313,314,0
304,316,313,313,0
304,308,312,311,0
304,298,309,308,0
303,291,308,306,0
302,289,306,304,0
301,291,305,304,0
301,296,305,304,0
303,300,306,306,0
303,301,306,307,0
302,301,306,308,0
302,305,306,310,0
302,311,307,310,0
302,316,307,310,0
303,319,308,310,0
304,318,309,310,0
306,311,311,309,0
309,303,313,309,0
312,298,315,309,0
315,296,317,311,0
317,294,319,312,0
316,294,319,312,0
312,293,316,311,0
306,289,313,309,0
301,285,310,307,0
298,282,308,306,0
297,282,305,305,0
295,285,304,305,0
295,290,303,304,0
294,294,301,304,0
295,300,301,305,0
296,306,301,306,0
298,309,302,307,0
299,307,302,307,0
300,304,303,308,0
302,305,305,309,0
305,308,307,311,0
308,311,309,313,0
310,314,311,315,0
311,317,310,316,0
310,318,310,315,0
309,318,308,315,0
307,318,307,315,0
307,320,307,315,0
308,326,308,315,0
311,334,309,315,0
313,340,311,314,0
314,336,311,313,0
312,317,311,310,0
310,291,310,307,0
308,270,309,306,0
309,264,309,307,0
310,271,309,307,0
311,289,309,308,0
311,308,310,308,0
310,321,310,308,0
308,320,309,307,0
306,306,308,307,0
304,289,307,308,0
302,278,307,308,0
301,274,306,307,0
299,277,305,306,0
298,286,304,305,0
297,298,305,305,0
297,310,305,305,0
298,318,305,304,0
298,316,305,304,0
299,306,305,304,0
299,293,305,304,0
298,282,304,304,0
297,277,304,305,0
297,275,303,305,0
297,276,303,307,0
297,278,304,307,0
299,281,305,308,0
300,283,305,307,0
301,288,305,306,0
301,294,304,305,0
301,299,303,303,0
302,303,303,302,0
303,306,303,301,0
305,310,304,300,0
306,312,304,300,0
307,312,305,300,0
307,309,306,300,0
306,306,307,300,0
306,302,307,300,0
306,296,307,300,0
306,291,307,300,0
307,287,307,301,0
307,284,307,302,0
307,285,307,302,0
306,289,307,303,0
305,297,308,305,0
305,310,309,307,0
305,318,309,309,0
304,320,309,311,0
306,319,309,313,0
308,323,310,315,0
311,330,309,315,0
313,338,308,314,0
313,345,306,313,0
313,348,305,312,0
312,343,304,310,0
311,331,303,309,0
309,318,303,308,0
308,310,303,306,0
308,308,303,305,0
307,310,303,305,0
306,313,304,304,0
305,315,304,303,0
305,314,304,302,0
304,313,304,301,0
304,312,303,301,0
304,310,303,301,0
305,307,303,301,0
306,309,304,302,0
309,319,305,304,0
311,335,307,305,0
313,353,307,307,0
315,367,308,309,0
316,370,308,310,0
316,359,309,310,0
315,335,309,309,0
313,312,308,307,0
310,300,308,305,0
307,295,307,304,0
305,293,306,303,0
303,286,305,302,0
302,276,304,301,0
303,265,303,301,0
304,254,304,301,0
306,244,305,300,0
307,238,307,301,0
308,238,309,303,0
309,245,310,304,0
309,259,311,306,0
308,277,312,306,0
307,293,311,307,0
305,305,311,307,0
304,314,309,307,0
304,320,308,307,0
304,324,307,307,0
305,326,306,306,0
306,327,305,306,0
307,326,305,307,0
308,321,305,307,0
309,313,306,308,0
310,304,306,307,0
310,293,306,306,0
309,282,305,306,0
309,275,306,305,0
309,271,306,304,0
309,274,306,303,0
309,282,306,303,0
310,296,305,302,0
310,313,304,302,0
311,332,303,302,0
310,351,303,303,0
309,366,303,303,0
308,371,303,303,0
307,366,304,304,0
306,358,305,306,0
307,347,306,306,0
307,338,307,307,0
308,339,307,308,0
309,352,308,309,0
311,370,309,309,0
311,380,309,310,0
310,374,307,309,0
308,356,306,309,0
306,336,305,309,0
306,321,305,309,0
306,315,305,308,0
307,317,308,308,0
310,321,310,308,0
312,312,311,307,0
312,294,312,305,0
312,280,312,305,0
311,274,312,305,0
311,277,312,306,0
311,284,312,307,0
311,292,311,308,0
311,296,311,308,0
311,294,310,307,0
310,291,308,304,0
309,290,306,301,0
308,293,305,298,0
307,295,304,297,0
305,291,303,296,0
303,280,302,295,0
302,270,302,295,0
302,262,303,297,0
304,253,304,299,0
307,242,307,301,0
309,234,309,303,0
312,229,312,305,0
315,231,314,308,0
316,242,315,311,0
316,265,315,312,0
313,298,313,312,0
308,330,309,310,0
303,355,306,309,0
299,377,304,310,0
298,392,304,311,0
300,390,305,312,0
301,373,306,313,0
303,353,307,313,0
304,335,309,312,0
305,319,309,311,0
305,305,309,310,0
304,295,309,308,0
304,292,309,307,0
304,294,309,306,0
303,295,308,306,0
303,296,308,306,0
302,297,307,306,0
302,294,307,307,0
300,290,307,308,0
299,290,308,309,0
299,297,308,310,0
299,305,308,310,0
300,313,309,311,0
302,316,310,313,0
304,310,310,314,0
305,300,310,315,0
305,290,309,314,0
304,284,308,314,0
304,283,306,312,0
304,285,304,311,0
303,289,302,309,0
302,293,301,307,0
302,293,301,306,0
302,293,302,306,0
303,293,303,307,0
304,293,305,308,0
305,295,306,309,0
305,301,306,309,0
304,309,306,309,0
304,317,307,309,0
304,327,307,309,0
303,332,308,311,0
304,328,308,311,0
304,315,308,312,0
306,300,309,314,0
308,289,310,314,0
310,284,310,314,0
312,290,310,315,0
313,307,309,314,0
312,323,308,311,0
310,333,305,308,0
306,335,303,304,0
304,329,301,302,0
302,318,301,300,0
302,306,301,300,0
303,299,302,301,0
304,299,302,302,0
305,306,303,303,0
307,318,304,305,0
309,328,305,307,0
308,330,305,309,0
306,322,306,310,0
303,314,307,311,0
300,308,307,311,0
297,302,306,310,0
296,298,305,309,0
296,298,304,308,0
298,299,303,306,0
300,301,301,303,0
301,303,299,300,0
302,305,297,298,0
303,307,298,296,0
304,312,298,296,0
305,317,299,296,0
306,326,300,297,0
307,339,301,299,0
309,346,301,299,0
308,339,301,300,0
307,329,300,300,0
306,317,301,302,0
304,305,302,303,0
302,297,302,304,0
299,291,302,305,0
297,285,303,305,0
297,276,304,306,0
298,271,305,308,0
299,272,305,309,0
301,280,305,311,0
303,293,305,313,0
304,303,305,313,0
304,308,306,313,0
305,312,306,311,0
306,315,306,309,0
306,315,307,307,0
307,312,308,305,0
307,306,309,304,0
307,300,309,303,0
307,295,309,302,0
307,289,309,300,0
307,283,308,299,0
307,280,308,299,0
308,282,309,301,0
309,290,310,302,0
310,297,311,303,0
311,296,311,303,0
311,292,311,303,0
311,292,311,302,0
313,302,312,303,0
315,323,314,305,0
316,350,314,306,0
315,374,313,307,0
311,388,311,306,0
306,384,309,304,0
302,362,307,302,0
300,333,307,301,0
300,308,308,302,0
302,290,309,304,0
302,283,309,304,0
303,288,310,304,0
303,304,309,304,0
304,324,309,304,0
304,339,308,303,0
304,348,307,302,0
305,351,307,302,0
305,352,308,304,0
306,354,309,307,0
307,354,311,309,0
307,345,310,311,0
306,334,310,310,0
304,324,308,309,0
303,318,308,307,0
303,311,307,305,0
301,301,307,303,0
300,290,306,301,0
300,283,307,301,0
301,277,308,301,0
302,271,308,301,0
303,265,308,301,0
304,262,307,301,0
305,261,305,300,0
305,262,304,299,0
305,266,303,299,0
306,273,302,299,0
306,280,302,299,0
306,285,302,298,0
306,290,302,297,0
305,295,302,296,0
305,297,302,295,0
305,299,302,293,0
304,302,302,293,0
304,309,303,293,0
304,320,304,294,0
304,332,305,295,0
304,341,306,296,0
305,344,307,297,0
305,340,307,298,0
306,327,307,298,0
306,313,306,300,0
307,304,307,302,0
308,302,308,305,0
309,304,308,307,0
308,306,308,308,0
307,307,308,308,0
304,306,307,308,0
302,305,307,308,0
301,305,307,308,0
300,304,307,309,0
300,300,307,308,0
300,296,307,309,0
301,295,306,309,0
302,298,306,309,0
303,303,305,308,0
304,311,304,307,0
305,319,304,306,0
306,325,303,305,0
307,327,304,305,0
307,322,304,305,0
306,311,304,305,0
305,302,305,306,0
304,295,305,307,0
304,291,306,309,0
305,291,307,310,0
307,297,307,311,0
310,307,308,313,0
314,320,309,314,0
317,329,309,315,0
316,325,308,314,0
313,314,307,313,0
310,305,307,312,0
308,300,307,311,0
308,294,308,310,0
308,287,308,308,0
307,279,307,306,0
307,272,306,305,0
307,267,306,305,0
307,265,306,306,0
306,263,306,306,0
306,262,306,306,0
307,266,308,308,0
309,274,310,310,0
311,284,312,312,0
313,298,313,314,0
313,315,312,315,0
311,327,309,313,0
307,332,306,310,0
305,334,304,307,0
304,338,304,306,0
305,340,304,305,0
306,337,304,304,0
306,333,304,304,0
305,328,304,304,0
303,328,303,304,0
302,331,302,304,0
300,333,301,304,0
299,329,300,305,0
299,319,300,306,0
300,307,301,309,0
302,299,303,312,0
303,296,305,315,0
305,298,306,316,0
306,302,306,316,0
307,305,305,315,0
307,304,303,313,0
306,302,301,310,0
304,299,299,308,0
304,300,298,306,0
304,310,298,306,0
305,326,299,305,0
306,346,300,304,0
308,370,301,305,0
309,390,302,305,0
311,397,303,306,0
312,391,303,307,0
312,375,304,308,0
310,346,304,307,0
308,315,303,306,0
306,290,303,305,0
306,279,302,305,0
307,283,302,307,0
308,291,302,309,0
308,289,301,309,0
306,276,300,309,0
304,264,299,308,0
302,257,299,308,0
301,260,299,308,0
301,270,300,308,0
302,284,300,309,0
303,295,299,308,0
303,297,298,307,0
302,291,296,304,0
301,283,294,301,0
300,278,292,299,0
301,277,292,298,0
302,281,294,298,0
303,285,296,299,0
304,288,299,301,0
304,287,301,304,0
304,283,303,306,0
304,280,305,309,0
303,278,306,312,0
304,277,307,314,0
305,276,308,316,0
306,275,308,316,0
307,274,308,315,0
309,276,309,315,0
311,284,309,314,0
313,300,310,313,0
314,320,310,313,0
313,336,309,313,0
312,341,308,313,0
311,338,307,312,0
310,329,305,310,0
308,318,304,308,0
307,307,303,307,0
307,302,304,308,0
307,302,305,310,0
306,309,305,310,0
305,321,304,311,0
303,339,303,311,0
303,358,303,313,0
302,370,304,313,0
302,370,304,314,0
303,358,304,315,0
304,340,304,314,0
304,319,304,313,0
304,298,303,311,0
303,279,302,309,0
303,260,301,307,0
302,246,301,305,0
302,240,302,304,0
301,242,302,304,0
301,254,303,304,0
301,271,303,306,0
303,290,304,308,0
305,307,306,310,0
308,321,307,312,0
311,333,309,314,0
312,343,309,315,0
312,342,307,315,0
309,327,306,313,0
306,310,304,312,0
304,298,303,311,0
304,296,303,311,0
304,297,302,310,0
303,297,301,307,0
301,295,301,304,0
300,292,300,303,0
300,290,300,302,0
301,285,300,302,0
302,281,300,303,0
303,280,300,304,0
304,281,301,306,0
304,281,301,306,0
304,276,301,307,0
304,270,301,307,0
304,264,302,308,0
306,259,302,308,0
308,256,301,309,0
309,256,301,309,0
310,261,302,310,0
309,269,301,312,0
308,280,301,313,0
308,294,301,313,0
307,307,301,314,0
306,315,301,314,0
305,317,300,314,0
304,316,299,313,0
303,318,298,312,0
302,326,297,311,0
301,336,296,309,0
301,348,296,307,0
301,361,296,304,0
302,371,296,300,0
302,375,297,298,0
303,364,299,297,0
303,340,301,297,0
303,313,303,300,0
304,295,306,304,0
305,285,308,308,0
306,281,309,313,0
306,281,310,316,0
306,281,309,317,0
304,284,308,317,0
304,293,307,316,0
305,304,306,316,0
306,317,306,315,0
306,324,307,314,0
306,322,306,312,0
306,311,304,310,0
305,300,302,307,0
305,292,299,304,0
305,291,297,303,0
306,298,296,304,0
307,311,297,306,0
307,327,299,308,0
308,341,301,310,0
308,342,303,311,0
307,330,305,312,0
305,314,306,314,0
304,304,308,316,0
302,299,308,317,0
301,297,308,317,0
299,296,307,317,0
299,295,306,317,0
299,292,304,316,0
300,288,303,316,0
302,286,303,316,0
304,285,303,315,0
306,286,303,315,0
308,290,304,315,0
310,298,304,314,0
311,314,304,314,0
311,334,304,313,0
311,353,303,313,0
310,366,302,312,0
308,373,301,311,0
307,372,301,311,0
305,358,301,312,0
304,330,301,311,0
303,298,302,309,0
302,272,303,309,0
302,259,304,309,0
302,254,305,310,0
303,255,305,310,0
303,267,304,310,0
303,289,304,309,0
304,314,303,308,0
304,334,302,307,0
305,341,302,307,0
305,332,301,306,0
304,313,301,306,0
303,294,301,306,0
302,281,301,306,0
300,273,300,306,0
300,270,300,306,0
301,270,302,307,0
303,277,303,309,0
306,287,306,311,0
310,297,308,312,0
313,302,308,312,0
313,302,308,312,0
312,302,307,311,0
310,302,305,310,0
308,302,304,309,0
306,303,302,308,0
304,306,300,308,0
303,308,299,308,0
302,309,299,307,0
302,306,300,307,0
302,304,303,307,0
302,303,305,307,0
303,307,308,307,0
303,315,309,307,0
304,327,309,307,0
305,338,308,307,0
307,346,306,308,0
308,345,304,307,0
309,341,302,308,0
311,340,302,308,0
312,339,301,308,0
312,343,302,307,0
313,346,303,306,0
312,339,303,305,0
311,324,303,303,0
310,304,304,302,0
308,278,305,301,0
307,254,307,301,0
305,239,310,302,0
305,239,312,304,0
304,242,313,305,0
303,244,313,307,0
303,249,312,309,0
302,259,311,310,0
303,272,309,311,0
303,282,307,310,0
305,286,305,310,0
307,287,304,309,0
308,285,305,309,0
309,281,306,308,0
309,279,309,307,0
308,276,312,305,0
307,272,314,304,0
308,263,316,302,0
309,254,317,301,0
310,248,317,301,0
312,248,316,301,0
312,257,314,302,0
312,274,312,303,0
311,292,308,302,0
309,306,304,302,0
306,314,300,302,0
303,316,298,300,0
301,313,297,300,0
300,309,297,301,0
301,308,298,302,0
302,311,300,304,0
304,321,302,307,0
305,342,303,310,0
307,369,303,312,0
309,399,303,313,0
311,425,304,313,0
312,436,306,313,0
311,424,308,313,0
309,395,310,312,0
306,363,310,312,0
303,334,310,311,0
302,310,310,311,0
303,293,309,312,0
305,282,308,312,0
308,278,307,311,0
310,276,306,308,0
312,273,305,306,0
312,269,304,305,0
309,266,303,304,0
304,269,301,304,0
299,277,298,305,0
296,286,297,306,0
296,292,295,306,0
298,293,293,307,0
302,294,291,308,0
307,299,291,309,0
312,307,292,310,0
317,318,295,312,0
319,326,301,314,0
319,328,307,315,0
316,330,312,314,0
314,335,314,314,0
313,342,315,313,0
311,349,313,313,0
308,347,310,312,0
305,333,306,310,0
301,311,302,307,0
300,290,298,305,0
299,273,295,304,0
299,264,293,303,0
299,259,292,303,0
298,258,293,303,0
298,261,294,304,0
299,268,295,304,0
302,281,298,306,0
306,301,302,308,0
309,320,306,311,0
313,334,310,314,0
316,341,311,315,0
319,341,311,314,0
320,339,309,312,0
320,346,307,311,0
317,366,305,312,0
314,393,304,312,0
312,419,303,313,0
309,427,302,313,0
307,406,302,313,0
304,364,301,313,0
300,318,301,312,0
297,281,302,312,0
296,259,302,312,0
296,250,304,313,0
296,247,305,314,0
296,245,306,315,0
296,248,307,315,0
296,260,308,314,0
295,280,310,315,0
295,298,310,315,0
295,310,311,315,0
296,309,311,315,0
297,295,310,314,0
298,277,309,312,0
300,263,307,311,0
303,253,305,309,0
306,249,303,307,0
307,249,302,306,0
309,253,301,305,0
309,259,300,304,0
309,262,300,302,0
309,263,300,301,0
309,264,302,302,0
310,267,306,304,0
311,276,310,306,0
310,288,314,307,0
309,301,316,307,0
308,312,317,306,0
308,317,316,306,0
308,319,314,306,0
308,318,311,307,0
308,321,309,309,0
307,334,307,311,0
307,348,306,311,0
306,356,305,311,0
306,356,305,311,0
306,349,306,310,0
305,337,308,310,0
304,327,308,309,0
302,327,309,309,0
300,337,309,307,0
298,355,308,306,0
296,375,308,304,0
295,384,308,303,0
295,383,308,302,0
298,375,309,303,0
302,363,311,303,0
306,349,312,304,0
309,333,312,305,0
311,314,312,305,0
312,291,312,305,0
311,265,311,304,0
311,244,311,304,0
312,231,311,305,0
313,227,311,305,0
314,233,311,306,0
313,244,310,307,0
312,253,308,307,0
309,260,306,305,0
307,265,304,304,0
306,271,303,303,0
306,279,302,303,0
307,289,302,304,0
308,300,302,307,0
309,308,302,309,0
309,307,302,309,0
308,303,301,307,0
307,301,302,305,0
306,301,303,303,0
305,300,304,303,0
305,299,304,303,0
306,298,304,304,0
307,299,305,306,0
308,300,306,307,0
309,303,306,307,0
308,313,306,307,0
307,329,307,307,0
305,348,307,307,0
303,361,307,307,0
302,366,305,307,0
301,363,303,306,0
301,353,302,307,0
302,341,301,307,0
303,326,300,307,0
303,313,299,306,0
304,304,298,304,0
303,304,298,303,0
303,312,299,302,0
302,326,301,303,0
302,340,305,305,0
302,341,307,307,0
302,328,309,307,0
303,309,310,308,0
306,291,311,308,0
308,276,311,309,0
310,266,311,309,0
311,261,311,309,0
312,262,310,309,0
311,270,309,308,0
311,284,309,309,0
311,300,309,310,0
310,314,310,311,0
309,326,310,311,0
308,332,311,310,0
307,331,311,310,0
307,327,311,311,0
307,321,310,311,0
307,316,311,311,0
307,314,310,312,0
307,316,311,313,0
308,316,310,312,0
307,307,311,311,0
307,295,310,310,0
305,283,309,308,0
304,274,308,306,0
302,270,307,303,0
301,268,307,300,0
301,268,308,298,0
300,270,309,297,0
299,274,310,296,0
299,280,310,297,0
299,287,310,299,0
299,294,310,301,0
300,298,310,304,0
301,299,310,305,0
302,297,310,306,0
305,295,310,306,0
307,292,310,306,0
310,292,311,307,0
313,294,312,308,0
316,294,314,309,0
318,294,315,309,0
316,299,315,308,0
314,312,315,308,0
311,328,314,307,0
309,339,314,305,0
305,341,312,304,0
302,329,310,302,0
299,308,309,302,0
297,289,308,304,0
297,278,308,304,0
296,275,307,305,0
296,280,307,304,0
296,288,307,304,0
297,301,307,304,0
299,315,308,304,0
302,330,309,305,0
304,342,310,306,0
305,351,309,306,0
305,354,308,305,0
305,354,306,305,0
305,351,305,305,0
306,344,303,305,0
305,334,301,305,0
305,324,300,306,0
304,315,299,307,0
303,309,299,308,0
301,302,299,308,0
299,296,299,306,0
298,292,299,304,0
297,293,301,302,0
298,299,303,301,0
301,307,305,301,0
303,306,306,301,0
304,300,306,301,0
306,295,306,301,0
307,293,307,302,0
308,290,307,303,0
308,284,308,304,0
309,277,309,305,0
310,272,311,306,0
309,269,312,306,0
309,270,313,306,0
309,283,313,306,0
311,306,313,308,0
315,332,313,310,0
316,353,312,310,0
314,360,310,309,0
310,349,307,306,0
304,330,305,305,0
300,315,304,305,0
296,306,302,305,0
294,297,301,304,0
292,286,300,303,0
292,277,300,303,0
292,272,299,302,0
292,274,299,303,0
293,282,299,303,0
295,294,298,303,0
297,307,297,303,0
300,318,296,303,0
302,321,295,302,0
302,313,296,301,0
302,301,297,300,0
302,292,299,300,0
301,288,302,301,0
302,287,303,302,0
302,291,304,302,0
303,302,303,302,0
304,319,303,304,0
307,337,305,307,0
309,348,307,309,0
309,346,308,311,0
308,334,310,313,0
307,321,311,314,0
308,313,313,316,0
309,308,315,319,0
311,306,315,321,0
312,301,315,321,0
312,294,314,321,0
310,288,313,319,0
306,284,310,317,0
303,281,308,314,0
300,279,306,312,0
299,279,304,310,0
299,278,304,308,0
299,279,302,307,0
300,283,302,307,0
300,287,302,306,0
300,292,302,306,0
301,295,302,305,0
301,299,303,304,0
302,303,303,304,0
303,305,303,304,0
304,308,304,304,0
305,313,304,303,0
306,323,305,304,0
307,337,306,306,0
307,352,307,308,0
307,365,308,310,0
307,366,308,310,0
305,354,307,310,0
303,337,307,308,0
303,320,307,307,0
302,304,308,306,0
302,293,307,306,0
301,283,307,306,0
299,273,306,306,0
296,265,305,306,0
294,259,304,307,0
293,256,303,306,0
293,258,303,306,0
294,266,304,306,0
296,279,304,305,0
298,295,305,305,0
300,309,305,306,0
302,320,304,305,0
303,327,303,305,0
304,328,302,304,0
304,327,301,303,0
305,329,301,303,0
306,337,301,304,0
308,352,303,307,0
309,368,304,308,0
311,372,304,309,0
311,361,305,309,0
312,343,306,311,0
313,325,307,313,0
313,309,309,314,0
313,301,311,315,0
313,298,313,315,0
311,296,314,314,0
309,293,314,313,0
306,289,314,312,0
304,282,313,311,0
303,274,312,311,0
302,265,311,312,0
302,255,311,312,0
303,251,311,313,0
303,254,311,314,0
303,263,311,314,0
303,275,310,314,0
303,286,310,314,0
304,293,309,313,0
305,299,308,312,0
308,304,308,310,0
311,304,308,308,0
313,300,308,306,0
313,292,308,305,0
313,290,307,304,0
311,295,306,304,0
309,308,306,305,0
308,324,306,306,0
307,339,306,308,0
305,345,305,309,0
305,347,305,311,0
305,348,304,312,0
306,353,304,313,0
308,364,305,314,0
310,377,304,315,0
312,384,304,315,0
313,382,303,315,0
311,364,302,313,0
309,335,300,312,0
307,304,299,310,0
306,281,300,311,0
306,271,302,313,0
306,273,304,314,0
306,280,306,314,0
306,289,307,313,0
306,294,307,312,0
305,290,306,310,0
304,277,305,310,0
303,266,305,310,0
302,261,305,312,0
301,262,305,314,0
300,267,305,315,0
300,275,306,316,0
301,285,306,316,0
302,298,307,317,0
303,314,307,318,0
305,328,307,317,0
305,337,305,315,0
304,338,302,313,0
301,327,300,310,0
298,311,298,308,0
296,296,297,307,0
295,285,297,307,0
295,281,298,307,0
296,282,300,307,0
297,286,301,307,0
298,288,302,308,0
298,288,302,308,0
298,287,303,309,0
298,286,304,311,0
299,284,305,312,0
301,283,305,312,0
303,281,305,312,0
304,278,305,311,0
306,274,306,310,0
309,271,307,309,0
312,275,307,309,0
314,285,308,310,0
315,297,309,310,0
313,306,309,310,0
310,315,308,310,0
307,324,307,309,0
305,332,305,308,0
303,337,304,307,0
302,340,302,306,0
301,346,301,307,0
301,356,302,309,0
302,371,304,310,0
303,391,305,311,0
305,416,307,313,0
309,439,311,316,0
312,447,314,319,0
314,433,314,319,0
311,397,313,317,0
308,347,309,313,0
305,297,307,309,0
303,258,305,306,0
303,234,303,304,0
302,221,303,304,0
303,216,302,304,0
303,215,302,304,0
304,217,302,304,0
304,220,303,304,0
304,225,303,305,0
304,236,305,306,0
303,251,306,308,0
303,267,306,309,0
302,281,306,309,0
302,293,306,309,0
303,302,305,309,0
304,309,304,309,0
304,313,303,308,0
304,315,302,307,0
304,316,301,307,0
304,317,300,308,0
304,317,300,308,0
305,317,299,308,0
307,320,299,309,0
310,323,300,308,0
313,324,300,308,0
314,323,300,307,0
313,321,301,307,0
311,318,302,306,0
310,313,303,305,0
308,309,306,304,0
307,305,308,304,0
305,303,310,303,0
304,301,312,303,0
303,301,312,303,0
303,302,312,304,0
304,302,311,305,0
304,303,311,307,0
305,306,310,309,0
305,311,309,311,0
306,317,308,313,0
307,323,309,314,0
308,326,308,314,0
309,327,309,313,0
310,333,308,312,0
311,341,308,311,0
311,347,306,309,0
310,345,306,307,0
309,332,305,304,0
308,309,304,303,0
307,290,304,304,0
307,282,303,305,0
307,285,303,306,0
307,293,302,307,0
306,301,301,307,0
306,309,301,308,0
307,315,302,309,0
307,321,303,309,0
308,325,305,308,0
307,324,307,306,0
307,317,309,305,0
306,310,312,303,0
306,302,312,303,0
305,293,312,302,0
304,286,312,303,0
303,279,311,303,0
302,271,309,302,0
303,267,307,302,0
304,266,306,303,0
305,270,305,303,0
306,275,304,303,0
307,280,303,303,0
309,286,303,302,0
311,291,303,301,0
312,292,303,301,0
314,290,305,301,0
315,284,306,301,0
314,280,307,300,0
314,282,309,300,0
314,295,310,300,0
313,314,311,300,0
311,335,311,299,0
309,354,309,299,0
306,362,308,300,0
304,353,307,301,0
303,334,305,301,0
302,316,304,301,0
302,305,303,300,0
302,301,303,300,0
301,303,303,299,0
300,309,304,299,0
299,318,305,299,0
300,326,305,301,0
301,335,307,303,0
304,339,308,305,0
306,334,309,307,0
308,322,310,309,0
309,307,309,310,0
312,296,309,311,0
313,290,309,311,0
314,288,309,311,0
313,286,309,310,0
311,287,309,308,0
309,297,309,306,0
307,312,308,304,0
306,325,308,303,0
305,331,308,302,0
305,326,308,302,0
305,309,308,301,0
304,290,307,301,0
304,277,307,302,0
304,272,307,303,0
305,273,308,305,0
306,280,308,306,0
307,291,308,307,0
308,301,307,308,0
308,308,307,308,0
308,310,306,307,0
307,305,307,307,0
304,298,309,306,0
303,293,311,305,0
301,290,313,305,0
301,286,314,305,0
301,281,313,304,0
301,276,311,304,0
301,274,309,303,0
301,272,306,304,0
301,268,304,303,0
300,263,302,302,0
299,261,301,300,0
299,263,299,298,0
298,270,298,297,0
298,283,298,297,0
298,302,299,298,0
299,324,301,299,0
300,343,304,302,0
302,359,307,305,0
303,372,310,308,0
303,381,311,310,0
303,383,312,311,0
303,380,311,312,0
304,375,310,313,0
304,365,309,313,0
304,354,308,311,0
304,348,308,309,0
304,344,308,306,0
306,345,308,304,0
309,349,307,303,0
310,357,307,303,0
311,364,306,303,0
310,362,305,302,0
308,345,304,301,0
306,318,304,300,0
304,292,304,300,0
302,273,304,300,0
301,263,305,300,0
300,259,306,301,0
300,258,306,302,0
299,260,305,302,0
299,266,304,302,0
300,274,305,303,0
300,285,305,303,0
301,295,306,302,0
301,304,307,303,0
302,310,308,303,0
303,310,310,304,0
304,302,311,304,0
305,291,311,303,0
305,281,310,302,0
306,273,309,301,0
305,268,309,300,0
305,268,307,300,0
304,273,306,301,0
304,277,305,301,0
304,280,304,302,0
305,282,303,303,0
305,286,303,305,0
305,290,303,306,0
305,297,303,307,0
305,303,304,309,0
305,311,305,311,0
304,319,307,312,0
304,328,311,313,0
305,337,313,314,0
305,343,313,314,0
306,346,312,314,0
306,345,310,314,0
307,339,307,313,0
307,329,305,311,0
307,318,303,308,0
306,308,301,306,0
305,303,300,305,0
305,301,301,305,0
305,301,302,306,0
307,304,305,308,0
308,309,308,310,0
309,315,311,311,0
310,325,313,311,0
310,345,314,311,0
311,371,313,310,0
312,397,311,309,0
313,415,310,309,0
313,415,308,309,0
310,393,306,309,0
307,356,304,309,0
304,315,304,308,0
304,282,305,308,0
304,262,307,309,0
305,250,308,309,0
304,246,309,308,0
303,247,309,307,0
301,250,309,306,0
300,253,309,305,0
300,257,308,306,0
301,262,308,307,0
303,268,308,309,0
305,274,308,310,0
305,278,307,310,0
305,282,306,309,0
304,285,306,307,0
305,291,307,305,0
305,306,309,304,0
306,327,310,303,0
307,351,311,303,0
308,368,311,304,0
308,371,310,304,0
309,357,309,303,0
310,330,309,303,0
311,303,309,304,0
313,284,309,305,0
315,275,309,306,0
315,274,307,306,0
313,277,304,305,0
310,283,300,304,0
307,291,297,303,0
305,299,296,304,0
303,306,295,304,0
302,312,296,303,0
303,316,297,303,0
304,319,299,303,0
304,320,301,304,0
305,321,302,304,0
306,326,302,305,0
306,336,303,306,0
306,347,304,307,0
305,353,304,305,0
305,352,305,303,0
308,348,306,302,0
312,343,307,303,0
316,338,308,304,0
318,336,309,304,0
318,334,309,304,0
315,327,308,303,0
311,311,307,300,0
309,290,307,299,0
308,271,307,298,0
307,257,307,297,0
306,249,306,297,0
306,245,305,298,0
305,244,305,299,0
305,247,304,300,0
304,253,303,301,0
304,263,302,301,0
303,278,302,301,0
304,298,302,301,0
305,318,301,301,0
306,332,300,300,0
307,338,299,299,0
309,344,300,298,0
311,352,303,298,0
313,361,307,299,0
315,365,311,302,0
315,359,314,303,0
312,342,316,303,0
310,321,317,304,0
308,304,318,306,0
308,294,319,307,0
308,287,318,309,0
308,280,317,309,0
308,275,316,310,0
309,278,315,311,0
310,290,313,310,0
309,310,311,309,0
307,333,308,308,0
303,355,305,306,0
299,365,302,305,0
296,359,299,305,0
294,341,298,305,0
294,322,298,305,0
296,308,299,305,0
298,301,300,306,0
299,300,302,305,0
300,300,302,304,0
300,300,302,302,0
301,299,300,301,0
302,298,299,301,0
304,297,298,301,0
307,298,299,303,0
310,302,300,303,0
312,310,301,304,0
313,320,303,303,0
312,330,305,302,0
310,339,307,301,0
309,342,309,301,0
307,339,310,301,0
306,332,309,301,0
306,327,308,301,0
305,318,306,302,0
305,307,304,302,0
305,300,302,302,0
305,300,300,302,0
305,307,300,302,0
306,315,302,303,0
307,313,304,304,0
307,304,305,304,0
307,293,306,305,0
307,287,307,305,0
307,293,308,306,0
308,308,309,306,0
308,324,308,306,0
306,334,308,304,0
305,334,307,303,0
304,319,307,301,0
303,296,307,300,0
304,277,308,301,0
305,266,308,301,0
307,261,309,302,0
308,260,308,301,0
308,262,307,300,0
308,268,306,300,0
306,278,304,299,0
305,293,304,299,0
305,309,303,299,0
306,323,302,298,0
306,331,301,297,0
306,331,300,297,0
306,326,299,297,0
307,320,300,298,0
308,315,300,299,0
309,314,300,299,0
309,316,299,299,0
308,320,297,299,0
307,323,296,299,0
304,324,296,299,0
302,318,297,298,0
301,307,299,297,0
301,296,302,296,0
302,287,305,296,0
303,282,307,296,0
305,286,307,297,0
306,298,306,298,0
305,311,304,299,0
304,320,303,299,0
303,321,301,298,0
300,318,300,298,0
298,315,299,299,0
297,318,299,299,0
296,324,298,300,0
297,333,299,301,0
298,344,300,302,0
300,352,303,303,0
301,350,305,304,0
300,339,307,305,0
300,325,309,306,0
300,315,310,307,0
301,310,311,307,0
304,305,311,307,0
307,301,310,306,0
309,296,309,305,0
310,289,307,301,0
308,284,304,298,0
305,283,302,295,0
303,287,301,294,0
302,296,301,294,0
303,305,302,295,0
305,313,304,298,0
307,316,306,301,0
308,312,307,303,0
309,301,308,305,0
309,290,309,307,0
311,281,311,309,0
313,275,312,312,0
316,272,313,313,0
317,272,313,315,0
317,275,312,315,0
316,280,310,313,0
313,287,306,311,0
310,296,303,308,0
307,304,301,306,0
305,311,299,304,0
304,316,298,302,0
302,319,299,300,0
301,319,300,299,0
299,317,303,297,0
297,314,306,296,0
297,313,309,296,0
297,314,311,296,0
297,323,312,296,0
298,341,312,297,0
300,365,313,299,0
302,387,314,300,0
304,393,313,301,0
305,378,312,302,0
305,348,312,303,0
305,319,312,303,0
305,299,312,303,0
305,287,312,303,0
305,281,311,302,0
306,279,310,302,0
306,276,309,301,0
307,274,309,300,0
309,276,309,300,0
311,284,309,300,0
311,292,309,300,0
311,301,308,300,0
309,309,308,300,0
307,311,308,300,0
305,310,309,300,0
303,309,310,300,0
301,311,310,300,0
301,316,310,302,0
301,320,310,304,0
302,319,311,305,0
302,310,311,307,0
303,301,310,308,0
303,293,310,308,0
304,288,309,308,0
304,284,308,307,0
304,281,308,307,0
304,279,308,307,0
304,282,310,307,0
306,300,312,309,0
308,331,314,311,0
310,366,316,315,0
311,397,316,317,0
311,409,317,318,0
309,395,316,318,0
307,366,316,316,0
306,336,314,314,0
306,313,313,312,0
305,297,311,308,0
303,284,308,305,0
301,277,306,303,0
299,273,305,302,0
298,273,305,301,0
298,274,306,302,0
299,278,307,302,0
300,282,309,304,0
302,287,310,305,0
303,293,311,306,0
304,302,311,306,0
305,312,310,305,0
305,319,310,304,0
305,318,309,302,0
304,306,309,301,0
303,291,308,299,0
302,278,308,299,0
301,273,308,300,0
301,273,309,302,0
301,278,309,304,0
302,283,309,306,0
303,289,310,307,0
304,296,310,309,0
305,300,309,309,0
304,304,308,309,0
303,308,306,309,0
303,315,304,309,0
304,327,303,309,0
305,340,302,309,0
307,348,302,309,0
308,348,301,310,0
309,339,302,310,0
310,324,302,309,0
310,312,304,309,0
310,309,306,309,0
310,315,309,309,0
310,325,312,309,0
309,333,314,310,0
309,335,315,310,0
309,330,315,311,0
309,318,313,310,0
309,304,312,310,0
309,291,310,311,0
309,280,309,311,0
308,272,308,311,0
308,270,306,310,0
308,274,305,310,0
309,283,304,310,0
309,291,304,310,0
308,298,303,310,0
307,302,303,309,0
305,305,303,308,0
304,305,303,307,0
305,304,303,306,0
304,302,303,306,0
305,303,303,306,0
305,307,304,306,0
306,312,304,307,0
307,318,305,308,0
308,324,305,308,0
308,324,304,307,0
308,320,302,305,0
307,316,301,303,0
307,317,301,302,0
308,324,302,303,0
308,330,303,302,0
308,332,304,302,0
307,325,304,301,0
307,310,304,301,0
307,294,305,302,0
307,280,305,302,0
308,267,305,301,0
309,257,306,299,0
309,250,306,299,0
308,252,305,300,0
307,262,304,301,0
305,278,303,303,0
304,296,302,305,0
305,313,302,307,0
306,325,303,308,0
307,334,305,310,0
307,335,306,311,0
308,330,307,312,0
306,326,307,311,0
303,333,305,309,0
300,351,303,307,0
298,371,301,306,0
297,380,300,304,0
297,363,300,303,0
299,328,300,302,0
301,292,302,303,0
303,269,303,305,0
305,264,303,306,0
306,270,301,306,0
304,284,299,306,0
303,300,297,306,0
302,315,296,305,0
302,324,295,304,0
303,329,295,303,0
303,328,297,303,0
305,321,299,303,0
305,311,302,305,0
306,300,303,304,0
305,292,304,304,0
305,287,305,303,0
305,287,306,303,0
306,289,307,304,0
307,291,307,305,0
307,290,307,306,0
309,288,306,306,0
309,287,306,306,0
311,294,307,306,0
312,310,309,308,0
314,330,310,308,0
315,344,310,307,0
314,346,310,306,0
312,334,309,306,0
309,313,309,306,0
306,294,308,305,0
303,284,307,304,0
303,278,307,304,0
303,274,306,303,0
304,271,306,303,0
305,270,307,304,0
307,270,308,304,0
309,274,309,306,0
312,286,310,307,0
313,299,310,308,0
313,306,310,307,0
312,308,309,306,0
310,307,307,304,0
308,309,306,303,0
306,314,304,302,0
304,322,303,301,0
302,330,302,302,0
300,338,301,302,0
299,342,300,302,0
299,338,300,302,0
299,330,300,303,0
299,322,300,304,0
300,318,302,305,0
302,319,303,306,0
303,326,305,308,0
303,332,305,309,0
303,335,306,310,0
303,336,306,310,0
302,331,306,309,0
301,320,305,308,0
299,306,304,307,0
299,296,304,307,0
300,289,304,308,0
300,283,305,309,0
302,277,305,309,0
303,277,306,310,0
306,284,306,310,0
308,294,307,311,0
310,301,308,311,0
310,299,308,310,0
309,292,307,309,0
307,289,306,309,0
305,295,305,310,0
304,309,304,311,0
303,324,303,311,0
303,335,302,310,0
304,337,302,310,0
304,327,301,309,0
304,309,302,308,0
304,293,302,308,0
303,282,302,308,0
303,278,303,309,0
304,280,304,309,0
305,287,305,310,0
306,294,305,311,0
305,301,304,311,0
305,305,304,312,0
305,309,304,314,0
307,317,304,315,0
309,326,304,317,0
311,330,303,317,0
313,331,303,316,0
315,327,302,316,0
316,318,303,315,0
318,303,304,315,0
319,290,307,313,0
318,283,310,312,0
318,283,313,312,0
315,292,315,311,0
313,306,316,311,0
309,322,314,312,0
306,336,312,312,0
303,342,309,313,0
301,339,307,313,0
300,331,305,313,0
299,321,303,311,0
299,313,303,311,0
301,310,302,312,0
303,309,303,313,0
305,309,303,315,0
306,309,304,316,0
307,309,303,317,0
307,308,303,316,0
307,304,303,316,0
307,294,304,315,0
307,281,304,314,0
307,271,306,313,0
307,267,307,313,0
307,271,308,312,0
306,281,308,310,0
304,292,306,308,0
303,300,304,307,0
302,305,303,306,0
302,305,302,307,0
302,310,303,308,0
302,319,303,309,0
303,330,304,310,0
304,337,305,311,0
305,339,305,312,0
305,333,306,312,0
305,322,306,313,0
304,311,307,313,0
302,303,307,313,0
301,301,306,314,0
300,305,305,313,0
301,310,304,313,0
302,314,304,312,0
304,322,303,312,0
306,337,303,311,0
309,357,303,311,0
311,377,302,310,0
312,391,302,308,0
310,391,300,306,0
308,375,299,304,0
307,345,299,304,0
306,314,301,305,0
307,289,302,307,0
307,271,304,309,0
308,261,306,310,0
309,260,307,311,0
309,262,308,312,0
308,260,307,311,0
307,255,306,310,0
306,249,305,309,0
306,245,304,307,0
306,243,303,306,0
307,243,302,306,0
307,247,300,305,0
307,254,298,304,0
306,261,297,304,0
306,270,298,303,0
306,282,299,304,0
305,301,301,306,0
303,322,302,309,0
301,337,302,312,0
300,344,302,313,0
299,345,300,314,0
299,342,299,314,0
299,336,299,313,0
300,330,299,312,0
301,326,300,310,0
302,328,301,310,0
304,336,302,309,0
308,350,304,310,0
311,362,307,311,0
313,364,308,311,0
313,352,308,310,0
312,332,307,309,0
312,311,307,307,0
311,296,307,306,0
312,287,307,306,0
311,285,308,306,0
310,287,308,306,0
309,289,309,305,0
308,294,308,305,0
307,304,308,305,0
307,315,308,305,0
307,323,308,306,0
307,327,308,307,0
307,322,307,306,0
307,311,307,305,0
308,300,306,304,0
310,292,306,302,0
310,288,306,301,0
311,289,307,300,0
310,294,307,300,0
311,303,308,301,0
312,315,309,302,0
313,324,309,304,0
313,328,309,305,0
314,328,309,306,0
314,326,310,307,0
313,321,309,307,0
313,320,310,307,0
314,319,311,308,0
314,312,310,309,0
313,300,309,309,0
310,288,307,308,0
308,282,306,308,0
307,281,304,307,0
307,283,303,308,0
307,287,303,309,0
308,290,302,309,0
309,292,302,310,0
309,291,303,310,0
309,286,303,309,0
308,280,303,307,0
307,275,303,305,0
306,278,304,303,0
305,284,306,302,0
305,292,308,302,0
304,299,309,302,0
303,311,311,303,0
303,328,312,306,0
305,350,312,308,0
308,373,312,310,0
312,395,311,313,0
315,406,311,315,0
317,400,310,316,0
317,380,310,317,0
315,355,309,317,0
313,335,309,316,0
311,321,309,315,0
310,314,310,314,0
308,307,310,312,0
305,300,309,309,0
302,294,308,306,0
300,292,308,304,0
300,294,308,303,0
301,295,308,302,0
301,293,309,303,0
302,289,308,304,0
303,284,309,306,0
305,278,309,308,0
306,274,309,308,0
307,271,308,309,0
307,270,309,309,0
308,269,310,311,0
309,272,310,312,0
310,279,311,313,0
311,291,311,315,0
311,308,311,316,0
312,322,312,317,0
311,327,312,317,0
310,323,312,316,0
308,311,311,315,0
306,300,310,315,0
304,293,310,314,0
303,290,310,313,0
302,292,310,312,0
301,297,310,312,0
302,303,311,313,0
304,306,310,313,0
306,308,310,313,0
309,307,309,312,0
312,305,310,311,0
315,306,312,311,0
316,307,313,310,0
316,309,313,310,0
314,313,312,309,0
312,319,310,307,0
309,322,308,306,0
307,324,308,305,0
307,321,307,305,0
306,313,307,306,0
306,304,307,305,0
305,300,306,304,0
304,299,304,304,0
304,300,303,303,0
304,299,304,303,0
304,298,305,303,0
304,296,307,304,0
303,293,308,304,0
303,293,309,304,0
302,298,309,304,0
302,304,310,304,0
304,307,310,304,0
306,304,311,304,0
307,297,311,304,0
308,288,311,304,0
308,282,310,304,0
308,281,310,304,0
309,285,310,304,0
311,295,309,304,0
312,312,309,304,0
314,329,310,305,0
315,343,311,305,0
316,353,311,305,0
316,357,312,306,0
316,352,312,306,0
315,350,311,305,0
315,356,311,304,0
315,369,310,304,0
315,382,310,304,0
313,384,309,303,0
310,364,308,303,0
307,332,308,303,0
305,299,308,303,0
303,274,307,304,0
303,259,305,304,0
303,253,304,304,0
304,252,302,304,0
304,252,301,304,0
305,254,301,304,0
305,257,301,305,0
305,260,302,305,0
305,266,305,306,0
305,273,308,306,0
304,280,311,305,0
302,283,314,304,0
300,284,316,303,0
299,286,316,302,0
299,289,314,301,0
299,292,313,301,0
300,294,311,301,0
300,295,309,301,0
300,296,308,300,0
301,296,308,300,0
302,299,309,300,0
302,301,310,300,0
302,303,310,299,0
302,303,310,299,0
302,302,309,299,0
302,301,309,300,0
302,301,310,301,0
303,302,310,302,0
304,307,310,303,0
305,321,310,304,0
307,345,310,305,0
308,374,309,306,0
310,395,309,306,0
310,402,307,306,0
311,396,307,306,0
312,375,308,307,0
313,344,309,307,0
313,310,310,307,0
314,283,311,307,0
314,264,313,307,0
313,253,313,307,0
310,249,312,306,0
307,250,311,305,0
306,253,311,306,0
305,258,309,307,0
305,266,307,308,0
306,279,304,308,0
306,301,301,309,0
307,326,298,309,0
306,342,297,306,0
305,346,298,302,0
304,341,302,298,0
302,330,306,293,0
299,317,310,290,0
296,307,312,290,0
295,301,313,292,0
296,299,314,296,0
298,299,313,301,0
300,300,312,306,0
303,301,311,309,0
304,301,309,311,0
305,299,308,311,0
306,298,306,310,0
306,298,305,309,0
305,298,305,308,0
304,299,306,307,0
304,299,308,306,0
304,298,309,305,0
305,297,310,305,0
307,300,311,305,0
308,305,311,305,0
308,311,311,305,0
307,315,310,305,0
306,316,309,305,0
305,316,308,305,0
304,314,308,305,0
304,310,308,306,0
304,307,308,306,0
304,305,308,307,0
303,302,308,307,0
303,303,308,308,0
303,309,309,309,0
305,317,310,310,0
307,325,310,311,0
310,330,310,311,0
311,333,309,310,0
311,342,308,308,0
311,356,307,308,0
311,370,308,308,0
311,375,308,307,0
310,359,309,306,0
308,324,309,306,0
307,283,309,305,0
306,248,309,305,0
307,222,309,305,0
309,207,309,305,0
313,204,309,304,0
315,213,309,304,0
315,234,309,303,0
313,264,309,304,0
313,297,309,305,0
312,331,308,306,0
311,360,307,306,0
309,379,305,305,0
307,382,304,304,0
305,375,303,303,0
304,360,302,303,0
303,343,303,303,0
303,327,303,304,0
303,316,304,305,0
302,307,304,305,0
302,298,305,305,0
302,291,305,303,0
302,288,305,302,0
302,289,304,301,0
302,291,304,301,0
302,291,304,302,0
303,290,304,302,0
303,289,304,302,0
304,288,305,302,0
304,288,305,302,0
305,290,305,303,0
306,293,305,303,0
306,295,304,302,0
305,296,302,300,0
304,297,301,299,0
302,298,300,300,0
302,298,300,301,0
301,296,300,301,0
301,292,301,302,0
302,291,302,303,0
302,290,304,304,0
302,293,305,303,0
302,296,306,304,0
301,304,306,304,0
302,317,307,305,0
303,331,307,305,0
305,341,307,307,0
307,344,308,307,0
309,334,309,307,0
310,313,310,307,0
310,288,310,307,0
311,268,310,307,0
311,256,310,306,0
311,252,309,306,0
309,251,307,305,0
307,251,306,305,0
305,254,305,303,0
304,259,304,303,0
304,268,304,303,0
304,286,304,303,0
304,319,305,304,0
305,358,305,305,0
307,391,305,307,0
307,407,304,307,0
306,398,304,305,0
304,367,302,304,0
303,333,302,303,0
302,308,302,303,0
301,295,302,304,0
301,292,303,305,0
301,294,303,306,0
301,295,303,306,0
301,295,304,306,0
301,293,305,306,0
301,290,305,305,0
302,286,306,305,0
302,285,307,306,0
303,290,307,307,0
304,300,306,307,0
304,313,306,308,0
304,325,305,309,0
304,329,305,309,0
304,325,305,308,0
304,317,306,308,0
304,309,307,308,0
305,303,307,307,0
306,300,308,308,0
308,296,309,308,0
309,291,310,309,0
310,290,310,311,0
311,292,311,312,0
311,297,311,314,0
309,302,311,313,0
307,304,309,313,0
305,305,308,312,0
303,305,307,311,0
302,308,307,311,0
302,318,307,310,0
302,337,307,310,0
303,360,307,310,0
303,375,306,309,0
302,376,305,308,0
301,363,304,306,0
299,336,303,305,0
298,307,302,304,0
298,286,302,304,0
299,276,301,305,0
300,277,301,306,0
301,281,301,307,0
303,284,302,307,0
305,287,304,306,0
308,292,307,306,0
312,297,312,307,0
315,299,315,308,0
316,294,317,308,0
314,286,315,308,0
309,287,313,308,0
305,299,310,308,0
302,320,308,309,0
301,342,306,308,0
300,353,304,306,0
299,348,303,304,0
298,333,302,302,0
297,316,302,301,0
297,302,302,302,0
296,291,303,304,0
297,283,304,306,0
298,279,305,307,0
299,276,305,309,0
300,274,305,310,0
302,273,305,310,0
302,274,304,310,0
303,278,304,309,0
304,285,304,310,0
306,291,305,311,0
307,293,306,311,0
305,293,308,312,0
304,293,310,312,0
304,292,311,313,0
304,289,312,313,0
305,286,312,312,0
306,283,311,312,0
307,282,310,311,0
307,284,309,310,0
306,288,307,309,0
303,297,306,308,0
301,312,304,308,0
300,329,302,308,0
300,341,301,308,0
300,345,300,309,0
301,341,300,309,0
302,330,300,310,0
304,317,301,310,0
305,305,302,310,0
305,296,303,309,0
305,290,306,309,0
304,287,307,308,0
303,286,309,308,0
303,286,310,309,0
303,288,311,309,0
304,291,312,310,0
305,295,312,310,0
308,299,311,310,0
310,309,311,309,0
312,323,311,308,0
315,340,311,307,0
316,356,311,305,0
316,361,309,304,0
314,351,308,302,0
312,333,307,301,0
311,314,307,302,0
310,301,307,303,0
310,291,307,305,0
308,282,306,305,0
307,274,305,305,0
306,271,304,305,0
306,274,305,306,0
307,281,306,309,0
308,289,308,311,0
310,296,308,313,0
311,301,306,313,0
311,305,304,312,0
311,309,303,310,0
310,311,301,308,0
310,311,302,306,0
309,312,302,305,0
309,315,303,304,0
309,324,304,304,0
308,334,305,304,0
309,346,306,304,0
310,353,308,305,0
311,350,308,306,0
312,336,308,307,0
313,320,307,308,0
313,302,306,309,0
314,286,306,309,0
313,274,307,309,0
313,267,308,308,0
311,262,309,307,0
309,257,310,304,0
307,252,310,302,0
305,249,310,301,0
304,252,308,300,0
304,260,306,300,0
304,269,304,301,0
304,279,303,303,0
303,289,302,304,0
303,302,302,305,0
304,323,303,306,0
305,347,303,308,0
308,370,304,309,0
310,385,305,310,0
309,380,304,310,0
307,358,304,310,0
305,330,304,311,0
304,306,304,311,0
304,292,304,311,0
304,286,304,311,0
305,283,304,311,0
305,279,304,311,0
306,274,305,311,0
307,274,305,311,0
308,283,305,312,0
308,297,305,312,0
307,308,304,312,0
306,314,304,312,0
305,311,303,312,0
306,304,303,313,0
307,299,303,314,0
307,297,303,314,0
307,298,304,314,0
306,299,304,313,0
305,300,304,312,0
305,301,305,311,0
305,302,305,310,0
306,305,306,310,0
307,311,307,310,0
308,322,308,310,0
308,337,307,309,0
307,357,307,309,0
306,381,306,307,0
306,400,305,305,0
306,405,304,304,0
305,386,304,303,0
306,352,304,304,0
306,317,304,304,0
306,291,304,304,0
306,275,305,305,0
306,267,307,305,0
305,262,308,307,0
306,263,310,307,0
306,266,311,308,0
307,272,311,308,0
307,278,311,309,0
308,284,311,308,0
307,288,310,308,0
307,291,308,307,0
307,291,307,307,0
307,289,306,306,0
307,286,306,306,0
307,288,305,307,0
307,297,305,308,0
308,312,306,308,0
309,327,306,308,0
309,338,306,307,0
307,346,306,307,0
306,346,306,306,0
305,342,306,304,0
305,334,306,303,0
305,320,305,302,0
305,302,303,303,0
305,287,302,304,0
305,280,301,305,0
307,278,301,306,0
309,274,301,306,0
310,268,301,305,0
311,266,302,303,0
312,271,303,302,0
312,284,306,302,0
312,299,310,303,0
311,312,314,305,0
310,320,317,307,0
309,323,318,307,0
306,322,316,306,0
304,317,314,305,0
302,310,311,304,0
302,304,308,304,0
302,300,306,304,0
301,299,305,304,0
301,299,304,304,0
299,300,304,306,0
298,299,304,307,0
297,298,304,308,0
296,298,304,308,0
297,301,303,308,0
297,308,303,307,0
299,319,303,307,0
300,333,303,306,0
303,345,303,306,0
308,352,305,306,0
311,348,307,306,0
313,331,308,306,0
314,306,310,303,0
313,284,310,302,0
312,272,310,301,0
310,269,310,301,0
308,271,309,302,0
307,276,308,302,0
306,283,308,304,0
305,291,308,304,0
306,301,308,305,0
306,318,309,306,0
307,335,308,307,0
307,344,308,308,0
307,344,307,307,0
306,335,306,306,0
305,322,305,305,0
306,311,304,304,0
307,309,304,304,0
308,315,305,305,0
308,325,306,305,0
308,336,306,306,0
308,341,307,306,0
306,335,306,306,0
304,318,306,305,0
303,300,306,305,0
302,291,306,305,0
302,290,306,305,0
303,297,307,306,0
305,304,307,306,0
306,307,307,306,0
307,301,307,305,0
307,294,307,305,0
307,290,306,303,0
306,292,304,302,0
304,296,303,301,0
303,297,302,301,0
301,294,302,303,0
300,291,302,304,0
300,289,303,305,0
301,288,303,306,0
301,287,303,307,0
301,286,303,306,0
301,286,303,306,0
302,289,303,305,0
303,296,303,304,0
305,305,303,303,0
306,313,302,303,0
307,318,302,302,0
307,321,302,301,0
306,324,303,301,0
305,330,304,301,0
304,334,306,302,0
304,334,307,304,0
305,334,309,306,0
307,334,310,308,0
310,337,310,311,0
312,341,310,312,0
312,338,307,311,0
309,325,304,308,0
307,308,301,305,0
304,294,299,302,0
303,289,299,299,0
302,290,301,298,0
302,293,305,298,0
303,292,309,299,0
304,290,313,302,0
305,287,316,304,0
306,288,318,307,0
307,293,318,310,0
307,301,318,313,0
306,307,316,314,0
305,309,315,314,0
305,305,313,314,0
306,300,312,314,0
308,299,312,314,0
309,299,311,314,0
310,301,311,314,0
310,306,311,313,0
309,311,310,312,0
306,312,309,311,0
304,310,308,309,0
303,305,307,308,0
303,294,306,308,0
303,279,306,309,0
303,267,305,310,0
304,260,305,310,0
304,259,305,310,0
304,261,305,310,0
303,265,305,309,0
303,270,305,309,0
303,275,305,309,0
303,281,305,309,0
302,289,305,309,0
301,297,304,309,0
301,304,303,308,0
302,312,303,308,0
303,317,304,308,0
304,321,304,308,0
305,321,304,307,0
306,318,304,306,0
306,313,304,305,0
307,308,304,305,0
307,306,305,304,0
305,307,306,303,0
304,309,306,303,0
304,308,307,303,0
304,304,307,304,0
305,298,307,304,0
306,294,306,305,0
307,295,305,307,0
307,304,304,309,0
306,320,304,310,0
305,341,306,311,0
305,369,308,311,0
306,402,309,312,0
309,433,310,311,0
310,450,310,310,0
311,444,309,309,0
309,410,307,307,0
306,360,305,305,0
304,311,304,304,0
304,276,304,304,0
305,258,305,304,0
306,253,306,305,0
306,251,306,304,0
306,249,306,303,0
306,248,306,302,0
305,247,305,301,0
303,246,305,299,0
301,248,304,298,0
300,252,303,297,0
299,257,302,298,0
298,264,302,300,0
297,272,303,301,0
298,282,305,302,0
299,293,307,303,0
301,309,308,304,0
303,323,309,304,0
304,330,308,303,0
305,335,308,302,0
306,335,307,302,0
306,330,307,302,0
305,321,307,303,0
305,313,305,303,0
304,309,304,304,0
305,307,303,304,0
306,305,303,305,0
308,302,303,305,0
310,298,304,306,0
313,297,306,307,0
317,300,308,308,0
318,304,309,308,0
318,308,309,307,0
315,306,308,305,0
310,302,307,303,0
305,297,307,302,0
301,294,307,301,0
299,294,308,300,0
299,295,308,300,0
299,297,308,300,0
301,300,307,301,0
303,301,306,301,0
304,297,306,301,0
305,292,305,302,0
306,286,304,302,0
306,283,304,303,0
305,283,304,303,0
304,286,304,304,0
303,291,304,305,0
302,296,303,307,0
302,303,303,309,0
303,314,304,311,0
306,329,305,312,0
308,344,306,313,0
311,352,307,313,0
312,345,307,312,0
312,323,307,310,0
312,302,306,308,0
312,293,305,306,0
311,299,305,304,0
310,314,305,303,0
309,329,305,303,0
308,340,305,303,0
308,345,306,305,0
309,344,306,307,0
310,342,307,308,0
311,341,307,308,0
311,344,306,309,0
311,352,306,308,0
311,359,306,307,0
311,362,306,307,0
311,360,306,305,0
310,346,305,304,0
308,319,303,302,0
307,291,302,302,0
305,276,301,302,0
304,275,302,302,0
304,281,302,303,0
305,288,303,304,0
305,292,303,305,0
305,297,302,305,0
305,303,302,306,0
305,307,303,306,0
305,307,303,305,0
305,304,304,305,0
304,294,303,305,0
304,284,304,306,0
304,275,304,307,0
303,269,305,307,0
303,266,305,307,0
302,267,306,307,0
302,272,306,307,0
303,278,307,308,0
304,284,306,309,0
305,290,306,309,0
306,297,305,310,0
307,302,305,309,0
306,302,304,309,0
306,303,304,310,0
305,309,303,311,0
305,317,303,312,0
304,324,302,311,0
303,328,302,310,0
303,329,303,309,0
301,326,303,308,0
301,322,303,306,0
301,320,303,306,0
301,319,302,305,0
301,315,301,304,0
302,308,300,304,0
303,301,300,305,0
305,297,301,307,0
307,289,303,308,0
309,280,303,310,0
310,269,304,312,0
312,259,305,313,0
312,250,305,313,0
312,245,306,312,0
311,251,307,312,0
309,274,307,311,0
306,309,306,311,0
304,344,305,312,0
303,369,304,313,0
301,375,303,314,0
300,362,303,315,0
299,344,303,316,0
299,332,306,317,0
300,321,309,318,0
301,312,311,318,0
302,305,312,318,0
304,300,312,317,0
306,299,310,316,0
307,298,308,314,0
307,301,305,312,0
306,311,302,310,0
306,326,300,309,0
306,342,299,308,0
306,355,299,307,0
307,357,299,308,0
306,345,299,309,0
305,330,300,310,0
304,318,300,311,0
304,313,301,311,0
303,314,302,310,0
303,315,302,308,0
303,318,302,308,0
303,320,303,308,0
303,314,303,309,0
302,304,302,310,0
303,295,302,312,0
304,288,302,313,0
306,283,303,314,0
307,281,303,314,0
308,281,303,314,0
307,286,304,314,0
307,295,305,314,0
308,308,306,314,0
308,320,307,315,0
309,328,307,314,0
307,327,307,311,0
305,318,305,308,0
304,312,305,306,0
304,312,304,305,0
305,316,305,305,0
306,317,305,305,0
307,311,305,305,0
307,302,305,305,0
305,294,304,306,0
303,290,304,307,0
302,287,304,308,0
301,285,306,309,0
301,285,308,311,0
303,284,309,311,0
304,281,310,311,0
305,278,310,311,0
306,278,310,311,0
306,281,309,310,0
306,287,308,310,0
305,296,306,309,0
303,303,304,308,0
301,305,303,306,0
299,304,301,304,0
298,302,301,303,0
298,303,301,303,0
300,306,302,304,0
301,310,304,306,0
302,313,305,307,0
302,312,305,308,0
303,307,305,308,0
304,297,306,308,0
305,288,307,308,0
308,283,308,308,0
310,282,310,308,0
311,284,312,309,0
311,287,312,307,0
308,296,312,306,0
304,314,310,305,0
302,340,310,305,0
300,365,310,306,0
299,374,309,306,0
299,363,309,306,0
297,341,308,306,0
297,322,307,306,0
298,309,306,305,0
298,301,305,305,0
299,298,304,305,0
300,297,303,304,0
301,295,303,303,0
302,297,303,303,0
303,304,304,304,0
304,313,304,305,0
305,321,304,307,0
305,322,304,309,0
304,313,305,310,0
303,303,305,310,0
303,297,305,310,0
303,293,305,309,0
303,289,306,310,0
304,287,306,309,0
305,286,306,309,0
306,287,305,308,0
307,289,304,307,0
307,289,304,307,0
307,285,303,308,0
308,279,303,308,0
307,277,304,308,0
307,279,304,308,0
307,282,304,309,0
307,287,303,309,0
307,294,303,310,0
308,301,303,311,0
308,305,303,310,0
307,309,302,308,0
307,318,302,306,0
309,335,301,305,0
310,357,301,305,0
311,379,301,305,0
312,396,301,305,0
311,399,301,305,0
310,393,301,304,0
309,381,301,305,0
308,362,301,305,0
308,330,302,305,0
308,296,302,304,0
308,271,303,305,0
310,258,303,305,0
311,256,304,305,0
311,260,304,305,0
311,269,304,304,0
311,279,304,303,0
310,286,304,303,0
310,287,303,302,0
309,282,302,302,0
309,278,302,303,0
309,286,302,305,0
308,303,302,307,0
307,320,303,309,0
305,327,303,310,0
303,316,303,309,0
301,297,304,308,0
300,280,304,307,0
299,270,305,306,0
300,265,306,306,0
301,262,307,305,0
302,264,307,305,0
303,265,307,304,0
304,265,308,303,0
306,261,308,302,0
308,257,309,301,0
309,258,309,301,0
310,266,310,301,0
310,279,310,303,0
310,296,310,304,0
310,313,311,306,0
309,327,311,308,0
309,338,311,308,0
308,348,311,309,0
308,361,311,309,0
308,374,310,308,0
308,382,310,308,0
309,379,309,308,0
309,370,310,308,0
310,360,310,308,0
309,352,310,308,0
309,349,310,308,0
308,347,310,308,0
306,344,310,309,0
305,340,310,310,0
304,330,310,311,0
304,315,310,311,0
304,301,310,311,0
305,293,310,310,0
306,292,309,309,0
307,295,309,309,0
308,295,307,309,0
306,288,305,308,0
304,279,304,307,0
302,273,303,306,0
301,270,302,306,0
301,271,301,305,0
302,274,300,305,0
302,276,299,304,0
303,281,299,304,0
304,289,300,305,0
305,299,302,307,0
305,307,305,310,0
304,313,308,311,0
303,313,309,310,0
301,308,310,308,0
300,305,311,307,0
300,307,312,308,0
301,317,314,308,0
302,332,315,309,0
302,349,316,310,0
302,361,316,310,0
302,359,315,309,0
302,339,313,307,0
300,314,311,304,0
299,293,309,303,0
299,279,307,302,0
299,269,305,301,0
301,264,303,300,0
302,267,303,300,0
304,275,304,301,0
306,285,305,303,0
307,295,306,304,0
307,301,307,305,0
308,304,308,306,0
310,307,309,307,0
312,313,310,308,0
314,321,311,308,0
316,329,312,308,0
317,334,312,306,0
317,333,312,305,0
316,328,311,305,0
313,320,309,305,0
309,309,306,305,0
305,297,303,303,0
302,288,300,300,0
300,284,296,297,0
300,285,292,294,0
300,288,290,292,0
301,291,289,290,0
301,294,289,290,0
302,298,291,291,0
302,301,295,294,0
303,305,299,297,0
304,304,303,299,0
305,299,306,301,0
307,293,307,302,0
308,288,308,303,0
310,287,309,305,0
311,291,310,306,0
313,302,312,308,0
314,315,313,310,0
315,323,313,312,0
315,319,312,314,0
315,312,311,315,0
313,307,310,315,0
312,310,309,314,0
310,321,309,313,0
309,336,310,312,0
308,349,311,311,0
306,354,311,309,0
305,347,311,308,0
305,331,310,307,0
304,312,309,306,0
305,296,308,305,0
306,287,307,304,0
307,288,307,304,0
308,293,307,304,0
308,295,306,303,0
306,294,303,302,0
304,293,301,300,0
302,294,301,299,0
301,303,301,299,0
301,318,303,300,0
302,334,306,301,0
303,345,308,301,0
304,343,310,302,0
305,329,309,303,0
306,314,309,305,0
308,304,308,306,0
308,296,306,306,0
307,290,303,306,0
305,288,302,304,0
304,289,301,303,0
304,291,301,302,0
304,293,303,302,0
306,295,304,303,0
308,296,306,304,0
310,294,307,305,0
310,291,308,307,0
311,292,309,308,0
310,300,308,308,0
309,315,307,309,0
308,328,306,311,0
307,336,304,313,0
306,340,303,313,0
305,346,302,313,0
304,350,302,312,0
303,345,301,310,0
301,328,301,308,0
300,308,301,307,0
301,291,303,307,0
303,284,306,308,0
305,283,309,309,0
306,284,311,310,0
305,286,312,309,0
304,291,311,307,0
303,299,310,306,0
303,310,308,305,0
303,322,307,305,0
304,334,306,306,0
303,347,305,306,0
303,359,304,305,0
302,361,304,304,0
302,347,304,303,0
304,327,304,302,0
306,307,304,301,0
309,290,305,300,0
311,279,305,300,0
312,273,305,301,0
312,270,306,302,0
313,270,307,302,0
314,274,308,303,0
315,282,309,304,0
316,289,309,305,0
316,294,308,305,0
315,293,307,306,0
314,287,306,306,0
312,276,306,306,0
312,267,305,306,0
310,264,306,305,0
310,269,306,305,0
311,283,307,305,0
312,304,308,306,0
313,330,308,307,0
315,348,308,307,0
315,352,308,307,0
314,347,308,305,0
313,338,308,305,0
312,330,306,304,0
310,323,305,303,0
306,317,303,302,0
303,309,301,302,0
301,300,301,302,0
300,290,300,302,0
300,282,300,303,0
300,276,301,304,0
300,275,302,305,0
302,279,303,306,0
303,288,304,307,0
304,302,306,307,0
306,316,307,307,0
307,330,307,306,0
308,341,306,305,0
308,346,305,304,0
308,344,303,304,0
307,339,303,304,0
306,331,302,305,0
305,320,302,305,0
305,307,303,306,0
304,293,304,306,0
304,278,306,306,0
304,268,308,306,0
306,267,311,307,0
310,279,313,308,0
313,301,315,309,0
315,323,315,309,0
314,340,313,309,0
313,349,310,309,0
311,351,307,309,0
310,346,305,310,0
310,334,303,310,0
310,317,301,309,0
309,302,300,307,0
306,288,299,305,0
302,277,299,304,0
300,270,299,304,0
298,267,299,304,0
299,266,301,304,0
300,268,302,305,0
301,276,305,306,0
303,287,307,306,0
304,299,309,306,0
306,309,310,305,0
309,317,311,305,0
312,322,310,306,0
314,325,309,307,0
315,335,309,309,0
316,355,308,310,0
315,373,307,311,0
312,378,305,310,0
306,373,302,307,0
301,361,301,305,0
296,344,301,304,0
294,326,302,305,0
294,310,304,306,0
295,296,305,307,0
296,283,306,307,0
299,271,306,307,0
300,262,306,307,0
303,257,306,306,0
305,257,305,306,0
307,258,305,306,0
308,260,305,306,0
309,258,305,306,0
308,257,306,305,0
308,263,306,304,0
308,275,305,304,0
309,295,305,304,0
310,322,305,304,0
310,348,305,304,0
310,363,305,304,0
310,371,305,305,0
310,374,306,306,0
311,364,307,307,0
311,348,308,308,0
311,336,308,309,0
311,324,308,311,0
310,300,308,312,0
309,273,308,312,0
308,256,309,313,0
307,253,308,312,0
305,256,307,310,0
303,264,305,308,0
301,272,305,306,0
301,280,304,306,0
301,290,305,308,0
302,299,305,310,0
303,308,306,312,0
304,316,306,313,0
304,318,306,313,0
304,312,304,312,0
304,304,303,311,0
306,296,303,310,0
307,292,302,310,0
309,291,301,310,0
311,294,300,310,0
313,302,299,311,0
315,314,300,311,0
317,326,301,312,0
317,339,303,312,0
316,346,305,311,0
312,337,307,309,0
307,321,307,308,0
304,306,307,308,0
303,296,306,308,0
302,292,304,307,0
302,298,302,306,0
303,315,301,306,0
305,339,300,307,0
307,364,300,308,0
310,384,301,310,0
311,391,301,311,0
312,381,302,312,0
312,359,303,313,0
312,330,304,313,0
311,303,305,314,0
311,288,307,314,0
311,287,307,315,0
310,291,307,313,0
307,288,305,311,0
304,282,303,309,0
303,275,302,308,0
303,268,302,307,0
302,260,303,305,0
302,257,303,302,0
302,265,304,301,0
302,285,303,300,0
303,315,303,300,0
304,350,303,302,0
305,381,302,305,0
306,403,301,306,0
306,408,300,307,0
305,392,300,307,0
304,358,300,308,0
302,319,301,308,0
301,289,302,308,0
300,272,302,309,0
301,266,303,310,0
302,272,305,310,0
304,289,305,310,0
305,309,306,310,0
307,327,305,309,0
307,332,303,307,0
307,316,301,306,0
307,292,300,305,0
307,271,300,306,0
307,257,300,307,0
308,250,301,308,0
309,246,302,308,0
310,247,304,309,0
311,252,308,310,0
313,257,311,310,0
313,261,312,310,0
312,264,313,310,0
311,266,312,310,0
310,266,311,309,0
310,266,310,309,0
310,274,309,309,0
312,287,307,308,0
311,301,306,307,0
310,311,305,307,0
309,316,304,307,0
308,316,304,307,0
306,313,303,307,0
305,310,302,307,0
304,314,302,309,0
304,322,303,310,0
304,331,305,311,0
303,334,307,311,0
301,327,309,309,0
299,314,310,307,0
297,301,310,304,0
296,292,309,303,0
296,290,307,302,0
297,291,307,302,0
300,296,307,303,0
302,300,307,304,0
304,304,307,306,0
305,307,306,306,0
305,308,305,306,0
304,311,305,306,0
304,319,305,306,0
304,327,304,306,0
306,333,304,307,0
307,334,304,307,0
309,331,304,308,0
310,330,306,309,0
312,332,308,309,0
314,341,310,310,0
316,349,312,309,0
316,351,313,308,0
315,349,312,305,0
314,340,311,303,0
312,320,310,301,0
310,297,310,300,0
308,281,309,299,0
307,277,309,300,0
306,283,308,302,0
304,292,306,303,0
303,300,305,305,0
302,308,304,306,0
301,314,305,307,0
302,319,305,307,0
305,321,305,308,0
306,319,306,309,0
307,315,305,309,0
307,311,305,308,0
307,308,304,307,0
307,304,304,307,0
307,296,304,307,0
307,286,304,306,0
306,278,305,305,0
305,276,306,304,0
305,283,307,303,0
306,297,308,304,0
306,313,308,305,0
307,327,309,307,0
307,332,309,309,0
307,328,309,311,0
306,319,308,311,0
305,311,308,311,0
304,303,307,309,0
303,295,307,308,0
303,283,307,307,0
303,276,307,307,0
304,276,307,307,0
305,282,306,308,0
305,292,305,308,0
306,303,303,309,0
305,308,302,309,0
303,306,301,309,0
302,305,301,309,0
302,312,301,309,0
303,330,302,309,0
304,352,303,309,0
305,364,303,308,0
304,360,304,307,0
303,339,305,306,0
303,308,306,304,0
303,278,308,303,0
304,264,311,304,0
307,263,312,307,0
311,273,314,311,0
315,288,314,314,0
316,296,313,315,0
313,293,311,314,0
309,290,308,312,0
305,291,306,311,0
301,296,306,309,0
297,299,306,308,0
295,298,306,307,0
294,293,306,307,0
294,289,306,307,0
294,287,306,308,0
296,287,305,308,0
299,288,305,308,0
302,289,305,308,0
305,291,306,309,0
306,296,307,310,0
307,301,309,312,0
307,305,310,313,0
307,309,310,313,0
307,314,311,312,0
307,317,311,312,0
307,316,310,311,0
306,311,309,309,0
306,304,307,308,0
305,299,306,307,0
306,297,305,307,0
306,299,305,307,0
306,302,304,308,0
305,305,303,308,0
304,309,303,308,0
303,312,302,308,0
302,314,303,309,0
301,313,305,309,0
301,311,308,308,0
302,310,311,307,0
303,317,314,305,0
305,334,315,305,0
306,362,315,305,0
306,397,314,306,0
306,430,312,306,0
306,452,310,306,0
307,454,310,307,0
309,437,309,308,0
311,406,310,309,0
312,364,310,310,0
313,320,311,311,0
312,282,310,310,0
309,257,309,309,0
306,244,307,308,0
303,239,306,308,0
301,236,305,307,0
298,238,303,307,0
296,246,303,307,0
295,260,303,307,0
295,273,303,309,0
294,280,304,309,0
294,278,304,310,0
293,272,304,309,0
293,266,303,309,0
294,262,303,308,0
296,260,302,307,0
298,257,301,307,0
301,254,301,306,0
303,252,301,305,0
306,252,300,305,0
308,252,300,305,0
311,252,301,306,0
312,251,302,307,0
313,248,305,308,0
314,245,308,309,0
314,241,312,309,0
314,243,316,309,0
314,252,317,310,0
314,271,317,310,0
314,297,314,309,0
314,336,312,309,0
312,377,309,309,0
308,409,306,308,0
304,427,303,307,0
301,427,302,307,0
299,406,302,307,0
298,373,302,309,0
298,343,303,309,0
300,321,305,311,0
303,311,306,312,0
306,306,307,313,0
309,300,307,313,0
309,293,306,312,0
308,288,304,312,0
306,281,303,313,0
305,274,302,312,0
303,270,301,311,0
300,273,300,309,0
299,285,300,307,0
299,300,301,308,0
300,313,302,309,0
301,319,303,310,0
303,317,304,310,0
304,310,304,310,0
305,303,304,310,0
306,298,304,310,0
306,295,304,310,0
306,293,304,310,0
306,292,302,308,0
306,292,301,307,0
307,297,301,306,0
308,304,302,306,0
311,312,304,307,0
313,322,306,308,0
315,331,308,310,0
317,340,310,310,0
318,352,313,310,0
318,360,314,309,0
317,361,314,308,0
315,349,312,306,0
311,324,310,305,0
308,295,308,304,0
305,272,306,304,0
304,261,304,304,0
304,259,303,304,0
304,263,303,305,0
304,268,303,306,0
304,274,303,307,0
304,282,303,307,0
304,290,303,308,0
303,297,303,308,0
304,298,303,309,0
305,297,304,310,0
306,295,304,312,0
307,292,304,313,0
308,290,305,314,0
309,288,306,315,0
309,289,308,317,0
309,290,308,317,0
309,292,309,318,0
309,292,309,318,0
310,290,310,318,0
312,292,311,318,0
315,309,313,319,0
320,342,315,320,0
325,383,316,322,0
326,419,315,322,0
323,433,312,320,0
316,420,309,318,0
310,394,307,316,0
305,364,306,315,0
302,335,306,315,0
302,316,307,316,0
303,312,308,318,0
304,319,310,320,0
305,326,310,320,0
304,324,308,319,0
303,309,307,317,0
301,288,305,314,0
300,270,304,312,0
299,260,303,310,0
298,259,302,307,0
298,263,301,306,0
300,271,300,306,0
301,280,300,307,0
304,288,302,309,0
305,292,305,311,0
306,288,308,312,0
306,279,310,312,0
307,271,312,313,0
307,271,312,313,0
307,277,311,314,0
306,289,310,315,0
304,299,308,315,0
302,307,307,314,0
300,311,306,313,0
299,314,306,313,0
297,315,305,313,0
297,317,305,313,0
297,319,305,313,0
297,321,305,314,0
299,323,306,314,0
302,322,307,313,0
306,317,308,313,0
308,313,309,314,0
309,310,310,314,0
309,310,311,315,0
310,310,311,316,0
311,311,312,316,0
312,309,312,315,0
312,305,311,314,0
313,308,310,313,0
314,324,311,312,0
315,345,312,311,0
313,356,312,309,0
310,351,310,306,0
307,337,308,304,0
306,329,308,305,0
306,331,308,307,0
307,337,309,309,0
307,335,308,310,0
306,323,306,310,0
305,310,305,309,0
304,301,304,309,0
302,295,304,308,0
301,288,305,307,0
302,279,306,308,0
303,276,308,309,0
305,283,310,311,0
308,296,312,313,0
310,311,313,314,0
310,323,312,314,0
309,325,309,312,0
309,317,307,311,0
308,302,305,310,0
307,281,305,310,0
305,262,308,310,0
304,249,312,309,0
302,245,315,309,0
299,249,316,308,0
298,255,315,307,0
297,264,313,307,0
296,273,310,307,0
296,279,308,308,0
297,282,306,309,0
298,286,305,310,0
300,296,305,311,0
302,312,305,312,0
305,329,305,313,0
306,344,304,312,0
306,348,303,311,0
306,346,302,309,0
307,349,302,308,0
308,360,303,308,0
309,371,305,309,0
310,376,307,309,0
309,364,309,311,0
309,340,310,312,0
309,321,311,314,0
309,318,310,315,0
310,332,309,317,0
311,348,307,316,0
311,355,305,315,0
311,350,304,314,0
310,335,303,314,0
310,313,303,313,0
310,290,302,312,0
310,267,302,311,0
310,248,302,309,0
309,237,303,308,0
308,236,303,308,0
307,243,303,307,0
306,252,302,308,0
306,262,302,308,0
306,269,302,308,0
305,272,302,309,0
305,271,302,309,0
304,270,302,310,0
305,269,303,311,0
305,273,303,312,0
306,285,304,313,0
307,303,305,314,0
308,327,307,316,0
311,352,309,318,0
314,372,311,320,0
316,381,313,320,0
317,382,313,318,0
317,380,313,317,0
316,373,313,314,0
313,357,311,310,0
309,333,308,307,0
306,309,307,304,0
305,288,305,303,0
304,273,304,303,0
304,265,304,304,0
305,264,304,306,0
305,267,304,308,0
304,275,305,309,0
304,284,305,309,0
303,292,304,307,0
304,302,304,306,0
304,310,303,305,0
304,313,303,305,0
304,308,303,305,0
304,301,303,305,0
304,295,302,304,0
304,290,301,303,0
305,288,300,302,0
306,287,298,303,0
307,288,297,304,0
308,291,298,306,0
309,296,298,307,0
309,299,300,307,0
310,300,302,308,0
309,301,305,307,0
309,308,307,307,0
309,322,309,308,0
309,339,309,308,0
308,348,307,308,0
307,343,306,307,0
306,324,304,308,0
306,303,304,309,0
306,291,304,310,0
307,292,304,312,0
308,304,304,313,0
310,319,304,313,0
312,330,304,314,0
313,336,304,314,0
313,332,305,314,0
311,322,305,313,0
308,307,304,312,0
306,292,304,311,0
305,283,303,310,0
304,279,302,309,0
303,281,302,307,0
302,285,302,306,0
301,286,301,304,0
300,283,301,303,0
299,281,299,301,0
298,280,299,300,0
298,278,298,300,0
299,278,298,300,0
300,279,299,302,0
301,282,301,303,0
303,283,304,305,0
304,285,307,307,0
305,292,310,310,0
307,303,312,313,0
309,316,312,315,0
312,325,312,317,0
314,328,311,318,0
315,327,309,317,0
315,327,308,316,0
315,331,307,315,0
315,338,307,315,0
314,343,307,315,0
312,340,306,315,0
310,334,306,314,0
307,327,304,312,0
304,320,303,310,0
303,312,302,308,0
302,305,301,307,0
303,304,302,307,0
305,312,303,307,0
307,326,305,309,0
308,342,306,311,0
309,349,308,311,0
307,342,309,311,0
305,331,311,311,0
303,321,312,310,0
302,310,313,309,0
301,297,312,307,0
300,286,311,305,0
300,278,310,304,0
300,274,308,304,0
300,272,307,306,0
300,271,306,307,0
302,271,306,308,0
303,271,306,309,0
305,274,306,309,0
306,281,307,309,0
307,293,307,309,0
308,307,308,309,0
309,318,309,308,0
309,323,309,307,0
307,316,309,306,0
306,302,308,305,0
305,288,308,304,0
304,275,308,304,0
304,267,307,304,0
305,267,308,305,0
305,274,308,306,0
305,284,309,306,0
304,294,311,306,0
303,302,313,306,0
302,309,313,306,0
302,318,312,305,0
302,332,310,305,0
303,348,309,306,0
305,361,308,306,0
306,362,308,307,0
307,353,307,307,0
307,340,306,306,0
307,331,306,305,0
307,322,306,305,0
307,307,305,305,0
307,288,305,305,0
307,277,304,306,0
308,280,304,307,0
310,293,304,307,0
309,308,303,307,0
308,313,302,306,0
305,305,301,305,0
303,287,301,303,0
302,271,300,301,0
301,267,301,301,0
301,274,301,301,0
302,286,302,301,0
303,301,303,302,0
306,315,305,304,0
309,326,307,305,0
310,330,308,305,0
309,323,309,305,0
308,316,308,306,0
306,314,309,307,0
306,320,308,307,0
305,329,308,308,0
305,336,307,306,0
304,335,306,305,0
304,328,306,304,0
303,320,305,304,0
304,313,305,303,0
305,303,305,304,0
306,291,305,304,0
307,282,305,305,0
308,278,307,307,0
309,277,309,308,0
310,279,311,309,0
311,280,313,310,0
310,281,314,309,0
309,281,314,309,0
308,282,313,308,0
307,286,311,308,0
307,288,309,308,0
306,287,308,307,0
306,283,306,306,0
305,281,306,305,0
306,285,307,306,0
306,301,308,307,0
306,327,309,308,0
305,355,309,308,0
305,378,309,310,0
304,390,308,311,0
303,382,308,311,0
302,358,307,310,0
301,331,305,308,0
302,307,304,306,0
303,290,304,305,0
304,279,304,304,0
304,273,304,303,0
304,270,304,303,0
304,268,303,302,0
304,267,301,302,0
306,270,300,302,0
307,278,300,302,0
308,285,301,303,0
309,291,304,303,0
309,296,308,304,0
308,298,313,305,0
308,297,316,307,0
308,295,317,308,0
308,292,316,309,0
308,288,315,308,0
307,282,314,307,0
307,274,312,306,0
307,268,310,305,0
306,264,308,304,0
305,266,305,304,0
305,272,304,304,0
304,285,302,302,0
304,301,301,301,0
305,318,302,300,0
306,337,302,299,0
306,356,303,299,0
306,370,304,297,0
306,377,304,297,0
306,377,304,298,0
307,371,304,299,0
308,364,305,301,0
308,359,306,304,0
309,351,307,306,0
310,337,308,307,0
310,317,308,307,0
309,295,308,307,0
309,276,307,307,0
308,262,306,306,0
308,255,305,304,0
306,253,304,303,0
305,256,302,303,0
304,263,300,303,0
304,272,299,303,0
304,280,297,303,0
304,286,297,303,0
303,294,297,304,0
304,306,299,305,0
304,321,302,306,0
304,335,303,306,0
305,346,305,306,0
305,347,306,305,0
305,336,308,304,0
306,322,310,304,0
307,309,311,304,0
307,301,312,304,0
308,296,312,305,0
307,292,310,305,0
307,291,308,304,0
307,293,304,304,0
307,295,300,304,0
307,293,297,302,0
307,286,294,301,0
305,283,293,302,0
304,286,293,304,0
303,293,295,306,0
301,298,296,307,0
299,302,297,307,0
299,304,299,308,0
299,302,300,308,0
301,295,302,309,0
304,290,303,310,0
306,285,306,311,0
307,281,309,310,0
307,279,312,309,0
305,280,314,307,0
303,284,315,306,0
302,290,315,305,0
301,294,314,304,0
300,295,312,304,0
299,295,311,304,0
300,296,310,305,0
301,303,309,306,0
303,313,308,308,0
305,323,307,309,0
306,328,307,310,0
306,325,306,311,0
306,318,306,311,0
306,313,307,311,0
306,313,307,312,0
307,316,307,313,0
307,314,308,314,0
308,305,308,315,0
308,294,309,316,0
309,289,309,316,0
309,288,309,315,0
308,291,307,312,0
306,300,306,309,0
305,313,304,306,0
304,323,303,305,0
303,328,303,304,0
303,324,303,303,0
302,313,304,303,0
301,300,306,303,0
300,291,308,304,0
300,286,310,305,0
300,283,310,306,0
300,281,310,307,0
301,278,308,308,0
301,275,306,307,0
301,274,303,307,0
300,277,302,306,0
300,279,302,305,0
301,279,302,305,0
301,277,302,304,0
301,273,301,303,0
302,272,301,302,0
302,273,301,301,0
303,280,301,301,0
303,292,302,302,0
304,305,302,303,0
304,316,302,304,0
303,321,302,305,0
303,320,302,306,0
302,318,303,307,0
303,320,303,307,0
303,326,304,307,0
303,333,305,308,0
303,342,306,309,0
304,351,307,311,0
307,358,308,314,0
310,361,309,316,0
314,360,310,318,0
315,355,309,318,0
315,345,307,318,0
313,333,305,315,0
309,323,302,312,0
306,318,300,309,0
304,314,299,306,0
303,311,299,304,0
303,308,300,304,0
303,308,301,305,0
303,312,303,306,0
304,313,304,307,0
304,306,305,307,0
303,294,305,306,0
302,282,304,305,0
301,274,303,305,0
301,271,301,305,0
300,273,300,305,0
300,280,299,306,0
301,289,299,308,0
302,302,300,311,0
304,316,303,315,0
306,331,306,317,0
308,349,309,319,0
311,368,310,319,0
314,384,310,318,0
315,386,309,317,0
315,367,306,314,0
313,333,303,311,0
310,298,301,308,0
307,269,298,306,0
306,248,297,305,0
306,235,299,305,0
307,227,302,304,0
306,228,304,304,0
305,240,306,305,0
303,256,307,306,0
301,271,306,307,0
300,281,306,308,0
299,285,306,309,0
299,288,305,310,0
300,291,305,310,0
300,295,305,310,0
301,297,306,311,0
302,299,306,311,0
303,301,305,312,0
303,301,304,312,0
303,301,303,311,0
304,301,302,311,0
303,300,301,310,0
304,300,300,310,0
305,302,300,311,0
306,306,299,312,0
307,311,299,313,0
307,315,300,313,0
307,319,301,313,0
307,325,304,312,0
307,333,307,311,0
306,340,309,310,0
305,340,309,308,0
304,334,310,307,0
304,322,308,308,0
304,309,306,308,0
304,297,304,308,0
305,288,302,309,0
305,280,301,309,0
306,276,301,309,0
308,282,302,309,0
310,298,303,309,0
313,323,305,310,0
315,351,307,310,0
316,375,309,310,0
315,383,309,309,0
314,382,308,308,0
312,376,307,307,0
309,365,305,306,0
305,348,304,306,0
303,328,303,305,0
302,308,302,306,0
301,291,302,306,0
302,278,302,306,0
302,271,302,307,0
302,274,303,307,0
302,283,303,307,0
303,294,303,307,0
303,299,303,307,0
303,297,303,308,0
303,289,303,309,0
304,280,303,310,0
304,274,302,311,0
305,269,301,311,0
306,266,301,310,0
307,263,301,309,0
308,262,303,308,0
308,263,304,308,0
308,263,305,307,0
308,263,305,307,0
308,263,304,307,0
309,266,303,307,0
310,268,301,306,0
310,269,299,305,0
309,274,300,304,0
308,291,301,304,0
306,320,304,305,0
306,354,308,307,0
307,385,310,310,0
308,400,312,312,0
309,393,312,312,0
309,369,312,311,0
310,342,311,311,0
311,320,311,312,0
312,310,312,313,0
314,308,312,312,0
313,314,310,310,0
311,323,307,306,0
307,326,304,302,0
304,321,301,300,0
303,312,300,299,0
303,307,298,298,0
303,311,297,298,0
304,318,295,299,0
303,322,294,300,0
302,315,295,299,0
300,301,298,299,0
298,288,302,300,0
297,279,306,301,0
297,275,309,304,0
298,276,311,306,0
299,280,312,308,0
301,286,313,309,0
302,293,312,309,0
304,299,312,309,0
306,302,311,309,0
307,302,311,309,0
308,299,311,309,0
308,295,310,309,0
308,293,310,310,0
307,294,311,311,0
307,297,311,313,0
307,302,312,315,0
307,308,313,316,0
307,314,313,316,0
306,316,313,315,0
305,316,312,313,0
304,318,311,311,0
303,321,309,309,0
302,321,307,307,0
302,322,306,305,0
301,325,305,303,0
301,331,304,301,0
301,335,303,301,0
301,334,303,302,0
302,323,304,303,0
303,307,305,305,0
304,293,306,307,0
305,284,306,309,0
306,280,306,310,0
307,279,307,312,0
308,281,307,313,0
309,282,309,315,0
309,277,310,315,0
309,271,310,314,0
309,266,310,313,0
308,267,310,313,0
308,273,309,312,0
308,285,308,312,0
308,302,306,313,0
307,322,306,314,0
307,343,305,315,0
307,363,305,315,0
307,385,305,316,0
307,410,305,317,0
309,438,306,318,0
312,457,306,318,0
314,462,306,319,0
315,448,306,319,0
313,415,306,317,0
309,371,305,315,0
306,331,304,314,0
304,301,303,313,0
302,277,303,312,0
302,257,303,311,0
302,239,303,310,0
303,227,303,309,0
304,224,304,308,0
305,227,304,308,0
306,235,304,308,0
307,246,303,307,0
307,257,303,308,0
307,269,302,309,0
307,278,302,309,0
307,286,301,309,0
307,291,301,309,0
307,294,301,309,0
306,295,301,310,0
306,294,301,311,0
306,290,301,311,0
307,286,302,310,0
308,283,304,311,0
311,285,306,311,0
313,290,308,312,0
314,299,310,312,0
314,313,310,312,0
312,328,311,311,0
311,343,311,311,0
309,353,311,311,0
307,358,309,309,0
306,355,305,307,0
305,346,302,305,0
305,333,299,303,0
304,316,297,302,0
303,297,296,301,0
303,282,297,300,0
304,275,298,301,0
305,276,298,303,0
307,280,299,305,0
308,282,299,306,0
308,283,299,306,0
309,284,299,308,0
309,288,301,309,0
310,295,301,311,0
310,304,302,312,0
310,311,303,313,0
311,317,304,312,0
311,317,304,310,0
310,315,304,308,0
308,310,304,305,0
308,302,303,303,0
306,291,302,301,0
306,278,302,301,0
307,266,303,301,0
307,257,303,301,0
308,252,303,301,0
307,253,302,301,0
307,262,302,302,0
306,277,302,302,0
306,293,303,304,0
307,307,304,306,0
308,318,305,308,0
308,325,307,311,0
308,331,309,313,0
309,335,311,314,0
309,338,311,314,0
307,340,310,313,0
305,339,309,311,0
303,340,307,309,0
302,342,306,307,0
301,345,304,305,0
301,345,303,303,0
301,340,301,301,0
301,330,300,300,0
302,319,299,300,0
302,311,299,301,0
303,310,300,302,0
303,315,301,304,0
302,320,302,303,0
301,322,303,303,0
301,320,304,303,0
301,311,305,303,0
301,299,306,303,0
301,290,307,303,0
302,285,307,304,0
303,286,307,305,0
305,288,307,304,0
305,290,306,303,0
306,292,305,303,0
306,292,304,302,0
306,291,304,302,0
306,290,304,303,0
306,292,303,304,0
307,295,304,305,0
308,300,304,306,0
309,305,304,306,0
309,308,304,307,0
310,310,304,307,0
310,309,305,308,0
311,306,305,308,0
312,312,306,309,0
313,331,307,310,0
315,353,309,311,0
317,377,310,313,0
319,394,310,313,0
318,394,309,312,0
316,375,306,309,0
313,350,303,307,0
310,327,301,305,0
308,305,299,304,0
305,285,297,302,0
303,271,296,302,0
301,264,297,301,0
300,263,299,301,0
299,263,301,301,0
299,263,303,301,0
300,261,305,302,0
302,259,306,302,0
303,258,306,303,0
305,259,307,305,0
306,263,308,306,0
307,271,308,308,0
309,281,309,310,0
311,291,310,312,0
313,304,311,314,0
316,319,313,316,0
320,339,316,319,0
324,365,320,321,0
328,391,322,322,0
329,416,323,322,0
328,444,322,322,0
328,469,321,322,0
327,472,319,320,0
322,438,316,316,0
314,377,311,311,0
306,310,306,306,0
299,256,303,302,0
296,225,301,299,0
294,212,299,297,0
293,210,299,297,0
294,215,299,298,0
294,221,300,298,0
295,228,302,298,0
296,236,304,299,0
296,244,306,300,0
297,251,307,300,0
299,258,308,301,0
300,265,307,301,0
301,270,307,302,0
302,275,306,303,0
303,279,304,304,0
304,282,303,304,0
305,283,301,303,0
305,285,298,302,0
305,288,297,301,0
304,292,297,300,0
303,296,299,300,0
302,299,302,301,0
302,301,306,302,0
302,303,310,303,0
303,305,312,304,0
304,306,314,306,0
306,306,314,308,0
307,307,314,309,0
309,308,313,311,0
309,310,312,312,0
310,311,312,312,0
309,310,312,312,0
309,310,312,310,0
309,309,311,308,0
308,306,311,307,0
308,302,310,307,0
309,301,310,307,0
310,304,309,306,0
311,310,309,306,0
311,314,309,305,0
311,317,308,305,0
310,320,308,305,0
310,332,308,306,0
310,353,307,307,0
310,376,307,308,0
310,388,307,308,0
309,381,307,309,0
307,358,307,310,0
306,328,306,311,0
306,301,306,313,0
306,281,306,313,0
306,270,306,312,0
306,266,305,310,0
306,266,303,308,0
305,267,302,307,0
305,268,300,305,0
305,270,299,304,0
305,272,299,304,0
304,273,300,304,0
304,275,301,304,0
304,277,302,304,0
305,278,304,304,0
305,279,305,304,0
306,278,306,304,0
308,275,307,305,0
308,270,308,305,0
308,264,308,305,0
309,262,308,305,0
309,267,308,304,0
309,282,308,304,0
308,303,308,305,0
308,325,308,305,0
308,344,307,306,0
308,355,308,307,0
308,353,308,307,0
309,340,309,307,0
309,322,309,306,0
310,306,310,306,0
311,303,310,306,0
312,316,310,307,0
312,336,310,309,0
313,353,310,310,0
313,364,309,311,0
313,361,308,311,0
312,350,308,311,0
312,337,307,311,0
310,325,306,309,0
306,319,304,307,0
302,321,303,306,0
300,329,303,306,0
299,330,303,307,0
300,321,304,308,0
301,306,305,310,0
303,292,306,311,0
303,278,305,310,0
301,266,304,307,0
298,258,303,305,0
297,256,301,304,0
297,257,300,305,0
297,261,299,307,0
298,267,298,308,0
299,272,297,309,0
301,280,297,310,0
302,292,298,310,0
303,307,301,311,0
303,321,305,310,0
303,330,310,309,0
303,329,313,307,0
302,318,316,306,0
302,306,318,306,0
302,297,319,305,0
302,290,316,303,0
302,284,312,300,0
302,279,307,298,0
302,273,304,296,0
303,269,302,294,0
303,268,300,294,0
304,269,300,295,0
304,271,300,297,0
304,276,301,300,0
303,283,301,302,0
301,290,301,304,0
301,294,301,306,0
300,296,302,307,0
300,299,304,309,0
301,304,307,311,0
303,311,309,312,0
304,320,312,313,0
305,332,313,315,0
306,340,314,316,0
306,340,314,316,0
306,332,313,315,0
305,323,311,312,0
303,314,309,310,0
302,308,308,309,0
302,309,308,310,0
303,313,309,312,0
304,317,309,313,0
304,318,309,314,0
304,315,309,314,0
303,311,308,312,0
302,306,308,311,0
302,302,308,310,0
303,302,307,308,0
303,306,307,308,0
304,309,306,307,0
303,312,306,307,0
302,314,306,308,0
301,312,306,309,0
298,309,307,309,0
298,308,307,309,0
297,306,307,307,0
298,306,308,306,0
299,306,308,306,0
301,307,309,306,0
302,307,309,306,0
303,307,309,306,0
304,305,309,305,0
304,304,309,305,0
304,307,309,305,0
304,315,310,306,0
304,327,311,307,0
305,342,312,309,0
306,353,312,310,0
307,354,312,311,0
307,346,311,311,0
306,331,310,311,0
305,315,309,310,0
305,304,309,310,0
305,301,309,309,0
306,303,309,309,0
307,309,310,308,0
310,318,311,308,0
313,326,313,309,0
317,333,315,311,0
320,338,316,313,0
320,331,315,312,0
316,313,312,310,0
310,295,308,307,0
304,285,304,305,0
300,284,302,303,0
299,288,302,304,0
298,292,301,304,0
298,291,301,304,0
297,285,300,303,0
296,279,300,303,0
296,275,300,303,0
296,273,301,303,0
297,273,302,304,0
298,275,304,305,0
299,277,305,305,0
301,281,306,306,0
303,284,307,306,0
304,288,308,307,0
305,293,308,307,0
306,299,308,307,0
307,310,308,308,0
307,324,309,309,0
307,337,309,310,0
307,344,310,311,0
307,344,311,312,0
307,335,312,312,0
308,321,313,312,0
308,306,314,312,0
308,292,315,312,0
308,283,316,312,0
308,279,317,312,0
308,279,317,312,0
308,278,316,311,0
307,280,314,309,0
306,284,313,307,0
304,290,312,305,0
303,295,310,304,0
302,300,309,303,0
302,303,309,304,0
302,306,308,305,0
302,308,307,306,0
302,310,307,307,0
302,311,308,307,0
302,311,309,307,0
302,310,309,307,0
303,309,310,307,0
303,309,311,308,0
304,307,312,309,0
305,305,313,310,0
307,303,314,311,0
309,301,314,312,0
312,300,315,314,0
315,305,315,315,0
317,326,316,316,0
319,363,316,317,0
321,405,316,318,0
321,439,316,318,0
321,452,315,318,0
320,432,313,316,0
315,382,310,313,0
309,326,306,308,0
303,283,303,305,0
299,257,301,303,0
297,245,300,302,0
296,242,300,301,0
296,245,300,301,0
297,251,301,301,0
298,257,303,302,0
300,264,304,304,0
302,270,305,305,0
304,275,306,307,0
305,280,307,308,0
305,282,306,309,0
306,284,306,309,0
306,285,306,309,0
307,287,306,309,0
307,289,306,308,0
307,293,307,308,0
307,297,308,309,0
307,303,308,309,0
307,308,309,310,0
308,310,309,311,0
308,311,310,311,0
309,311,310,310,0
308,312,310,310,0
308,312,311,310,0
308,312,311,310,0
308,312,310,310,0
308,313,310,310,0
308,318,310,310,0
309,327,310,312,0
309,336,310,313,0
309,341,308,314,0
309,341,307,314,0
308,337,305,312,0
308,329,305,311,0
306,317,304,309,0
305,305,305,308,0
305,295,307,308,0
305,288,308,308,0
305,285,309,308,0
305,284,309,308,0
306,285,309,308,0
307,286,309,308,0
307,285,309,308,0
308,281,308,308,0
310,272,309,308,0
311,259,309,307,0
312,247,310,308,0
314,243,311,310,0
316,252,313,312,0
317,274,314,314,0
315,301,313,315,0
311,331,312,316,0
309,358,310,316,0
307,376,308,315,0
306,383,305,314,0
305,384,303,312,0
305,385,301,311,0
305,384,300,309,0
305,377,299,308,0
305,364,299,307,0
304,345,299,307,0
303,327,299,307,0
302,312,299,308,0
302,301,299,308,0
302,292,299,308,0
303,285,300,309,0
304,279,301,310,0
304,276,302,311,0
305,276,303,312,0
306,279,304,313,0
306,282,304,313,0
307,285,305,313,0
307,288,305,313,0
307,290,305,312,0
306,291,305,311,0
305,292,304,309,0
304,293,303,307,0
304,294,302,306,0
304,296,302,306,0
304,299,302,306,0
304,303,302,305,0
305,306,303,305,0
306,309,303,306,0
307,312,303,306,0
306,315,303,307,0
306,318,303,307,0
305,319,303,307,0
304,320,304,307,0
304,323,304,308,0
305,330,304,309,0
306,341,304,310,0
307,351,303,310,0
308,357,303,310,0
310,357,303,310,0
311,345,304,310,0
312,326,304,310,0
313,312,306,311,0
314,307,308,314,0
316,313,311,315,0
314,318,311,314,0
310,315,310,310,0
306,302,309,306,0
303,287,307,304,0
301,276,306,303,0
301,268,306,304,0
301,262,306,305,0
302,258,305,306,0
302,256,304,306,0
302,259,303,306,0
302,263,303,306,0
302,269,302,306,0
302,274,301,305,0
302,281,301,304,0
302,289,301,303,0
302,298,302,303,0
303,308,304,304,0
304,318,305,305,0
306,327,307,307,0
308,335,310,309,0
309,343,311,311,0
310,350,312,313,0
309,353,312,313,0
307,349,311,311,0
305,340,310,310,0
304,332,310,309,0
304,328,309,307,0
305,334,308,306,0
307,348,307,306,0
308,363,307,305,0
310,375,307,306,0
312,384,308,308,0
312,382,308,308,0
311,363,306,306,0
308,340,305,304,0
305,316,304,302,0
304,292,303,302,0
302,275,302,302,0
301,266,302,303,0
301,263,303,305,0
301,263,304,307,0
301,267,305,309,0
302,272,306,310,0
303,278,306,311,0
303,287,307,311,0
304,296,307,311,0
304,306,307,311,0
304,313,306,310,0
303,317,306,310,0
304,312,307,309,0
304,301,307,308,0
304,287,308,307,0
305,277,309,306,0
305,272,309,304,0
305,275,309,304,0
305,283,309,304,0
304,291,308,304,0
303,296,307,305,0
303,299,306,305,0
303,302,305,306,0
303,302,305,307,0
304,298,305,308,0
306,291,305,309,0
308,283,307,308,0
310,276,308,308,0
311,274,310,308,0
313,279,312,310,0
314,296,313,311,0
314,320,314,313,0
314,347,315,315,0
314,367,314,316,0
312,376,312,315,0
310,377,310,314,0
309,378,308,314,0
309,381,307,313,0
308,384,306,312,0
307,386,305,312,0
307,383,303,311,0
307,378,302,310,0
309,375,302,310,0
311,366,301,310,0
311,339,300,308,0
310,303,301,307,0
310,276,303,309,0
310,265,305,312,0
310,265,307,313,0
309,271,307,313,0
307,277,307,311,0
305,276,307,310,0
303,269,307,309,0
301,265,308,309,0
301,267,309,310,0
302,272,310,312,0
303,278,310,314,0
303,285,310,314,0
304,289,310,315,0
305,292,309,315,0
305,294,309,315,0
306,296,309,314,0
307,301,310,314,0
308,306,311,315,0
309,313,312,315,0
309,318,313,315,0
310,321,312,314,0
310,319,311,313,0
310,313,310,311,0
310,306,310,310,0
311,300,310,309,0
311,299,311,310,0
313,303,311,311,0
315,315,313,313,0
317,326,314,315,0
317,327,314,314,0
315,316,313,311,0
311,300,311,309,0
308,282,310,307,0
306,266,308,304,0
304,262,307,301,0
303,273,306,300,0
303,296,305,300,0
303,324,305,300,0
304,347,305,301,0
303,356,306,302,0
304,364,306,304,0
305,380,307,307,0
307,397,307,309,0
308,409,308,311,0
308,415,308,312,0
307,403,307,312,0
306,372,307,312,0
304,333,306,311,0
303,299,306,311,0
303,275,305,311,0
303,260,306,311,0
303,251,305,311,0
302,248,304,310,0
302,248,302,309,0
301,251,301,308,0
301,256,301,308,0
302,261,301,308,0
302,265,302,308,0
303,269,303,309,0
305,271,305,310,0
306,273,306,312,0
308,274,307,314,0
310,277,307,316,0
311,283,308,317,0
312,291,308,317,0
311,299,308,317,0
311,306,307,317,0
309,310,307,316,0
307,313,307,315,0
306,314,306,315,0
305,314,306,314,0
305,316,306,313,0
305,321,306,313,0
305,327,305,313,0
306,331,305,313,0
305,332,305,311,0
304,329,305,310,0
304,327,305,310,0
304,328,307,310,0
305,332,307,309,0
306,335,308,310,0
307,333,308,310,0
307,323,309,310,0
307,309,309,310,0
307,296,309,312,0
307,284,310,313,0
307,278,309,313,0
306,276,307,313,0
304,278,305,312,0
303,283,303,312,0
302,290,301,311,0
301,299,299,311,0
300,307,297,310,0
299,312,297,310,0
299,314,297,310,0
299,312,299,310,0
301,308,301,310,0
303,305,304,311,0
305,307,306,311,0
307,316,308,312,0
308,333,309,313,0
310,356,310,313,0
311,377,310,314,0
312,388,310,314,0
312,384,310,315,0
311,367,310,315,0
310,345,309,313,0
308,325,307,311,0
306,309,306,309,0
304,297,305,308,0
303,286,304,307,0
302,275,304,307,0
302,266,304,306,0
302,259,303,305,0
302,252,303,303,0
301,246,304,302,0
302,243,304,301,0
302,246,305,300,0
302,253,304,300,0
302,261,304,301,0
302,268,304,302,0
302,274,304,303,0
303,284,305,304,0
304,300,305,306,0
306,314,306,308,0
307,323,307,308,0
307,324,306,308,0
306,318,305,306,0
306,305,303,304,0
305,292,302,303,0
304,284,301,302,0
304,284,301,303,0
305,294,300,304,0
306,311,300,304,0
306,328,299,305,0
308,344,299,306,0
310,357,300,308,0
313,364,302,311,0
315,355,303,312,0
314,331,303,311,0
312,307,303,309,0
311,294,303,307,0
310,294,303,306,0
309,306,303,305,0
310,318,303,305,0
309,318,303,305,0
308,303,303,304,0
305,287,303,303,0
303,276,304,303,0
302,273,305,302,0
300,277,306,302,0
300,288,307,302,0
300,304,308,303,0
301,322,308,304,0
301,333,308,304,0
301,335,308,304,0
301,325,307,303,0
301,311,306,304,0
301,300,305,304,0
302,294,303,304,0
301,291,302,304,0
301,291,302,304,0
301,292,303,305,0
302,294,304,306,0
303,297,306,307,0
304,299,306,309,0
305,299,307,310,0
306,297,307,311,0
307,294,308,312,0
308,289,308,312,0
309,287,308,311,0
308,285,308,310,0
307,286,307,309,0
306,289,307,308,0
305,296,307,308,0
304,305,307,308,0
305,315,307,309,0
306,325,307,311,0
308,334,307,313,0
310,339,307,315,0
311,336,307,316,0
311,329,307,316,0
311,323,307,315,0
310,321,308,314,0
311,319,308,313,0
312,314,308,312,0
313,302,308,311,0
313,287,308,310,0
312,276,308,309,0
311,271,308,307,0
309,271,307,305,0
308,277,305,303,0
307,292,305,303,0
308,313,305,304,0
310,334,306,306,0
312,348,307,309,0
315,353,309,311,0
318,346,311,313,0
319,334,312,314,0
319,322,311,313,0
317,312,309,310,0
315,307,306,308,0
313,305,304,307,0
311,307,302,306,0
309,315,301,307,0
308,323,302,307,0
305,325,302,307,0
303,315,303,306,0
302,299,304,305,0
301,283,305,304,0
302,270,306,303,0
302,264,307,301,0
303,261,308,299,0
303,263,309,298,0
304,268,309,299,0
304,274,309,301,0
305,279,309,302,0
306,285,309,304,0
307,296,309,306,0
308,311,309,308,0
310,330,310,311,0
311,352,311,313,0
313,371,311,314,0
313,386,312,315,0
312,389,311,313,0
311,379,310,310,0
309,359,309,306,0
308,335,308,303,0
307,310,308,304,0
307,287,309,306,0
308,269,308,308,0
308,258,308,308,0
308,254,307,307,0
307,257,306,305,0
306,263,306,304,0
305,270,305,303,0
305,278,305,303,0
305,287,304,303,0
306,294,305,304,0
306,299,306,305,0
308,299,308,305,0
310,297,310,305,0
312,295,312,304,0
314,296,314,304,0
317,302,316,305,0
319,309,317,305,0
320,325,318,306,0
322,350,319,307,0
323,377,318,306,0
323,396,317,307,0
321,400,316,306,0
318,381,314,305,0
312,348,312,304,0
308,320,310,303,0
305,310,308,303,0
304,318,308,303,0
305,336,307,304,0
307,351,307,305,0
308,344,306,304,0
307,309,305,303,0
305,267,304,301,0
303,236,303,300,0
302,219,302,299,0
301,215,301,298,0
300,220,300,297,0
300,231,299,297,0
301,244,299,298,0
302,259,301,299,0
305,273,302,300,0
307,286,305,302,0
308,297,307,303,0
309,306,310,306,0
310,312,312,308,0
310,311,313,308,0
310,306,314,307,0
309,298,314,307,0
310,288,314,306,0
310,278,313,306,0
311,270,313,305,0
312,265,312,305,0
311,266,311,305,0
311,271,311,306,0
310,280,310,307,0
310,290,310,308,0
309,297,309,309,0
309,302,309,309,0
309,305,308,309,0
309,306,307,310,0
309,306,306,310,0
308,306,305,310,0
308,306,304,311,0
309,306,302,310,0
308,306,301,309,0
309,306,300,307,0
309,304,301,305,0
310,302,304,303,0
312,301,306,303,0
313,299,310,304,0
315,301,313,306,0
316,307,315,308,0
318,315,316,310,0
318,331,317,311,0
318,355,317,311,0
316,371,317,309,0
313,373,315,307,0
310,366,314,305,0
308,350,313,305,0
308,327,313,305,0
307,306,312,306,0
306,295,311,308,0
305,296,310,309,0
304,305,309,309,0
303,312,309,308,0
302,311,307,306,0
300,304,306,303,0
298,298,305,302,0
297,298,305,302,0
298,303,306,303,0
300,309,307,304,0
301,313,307,304,0
303,316,307,304,0
304,316,308,305,0
305,317,309,305,0
306,319,309,307,0
308,321,309,308,0
309,323,309,310,0
310,325,309,310,0
310,323,309,310,0
310,315,308,309,0
309,300,308,309,0
308,286,307,308,0
307,278,307,307,0
306,277,306,307,0
306,285,306,307,0
306,300,306,307,0
306,320,305,308,0
306,337,305,308,0
306,343,304,308,0
306,335,304,308,0
307,317,303,308,0
310,296,303,308,0
312,282,303,309,0
315,277,302,310,0
316,277,303,311,0
316,283,303,311,0
316,296,304,313,0
316,314,305,314,0
317,334,307,315,0
317,355,307,313,0
314,374,306,310,0
310,387,303,307,0
306,388,301,304,0
302,372,298,301,0
299,340,296,299,0
298,302,295,298,0
297,270,294,299,0
298,251,295,300,0
298,244,296,302,0
299,245,296,303,0
301,251,297,305,0
302,259,299,306,0
304,268,301,307,0
305,275,302,308,0
307,282,303,308,0
308,287,304,308,0
308,289,304,307,0
308,290,304,307,0
308,290,304,306,0
308,292,304,306,0
309,294,304,306,0
309,294,303,306,0
309,294,302,306,0
309,297,302,307,0
309,303,302,308,0
309,311,302,307,0
310,319,302,307,0
311,324,302,306,0
311,321,302,305,0
310,311,302,305,0
309,300,302,306,0
307,294,302,307,0
305,291,302,308,0
303,290,302,308,0
303,289,302,308,0
303,288,302,307,0
304,288,303,307,0
304,288,304,306,0
304,288,304,306,0
304,287,305,306,0
304,287,307,307,0
305,287,309,308,0
306,290,310,309,0
306,297,311,309,0
305,304,311,309,0
305,312,310,309,0
304,318,309,309,0
305,326,307,310,0
306,335,305,311,0
308,344,303,311,0
310,350,302,310,0
312,353,301,309,0
312,349,301,307,0
311,339,302,305,0
309,329,303,303,0
305,317,303,302,0
302,302,302,301,0
300,288,301,300,0
299,278,300,300,0
300,278,300,301,0
301,288,301,302,0
304,303,303,302,0
305,319,303,303,0
305,332,303,302,0
304,335,302,301,0
302,330,301,299,0
301,316,301,300,0
301,302,302,300,0
302,295,304,302,0
305,298,306,304,0
308,308,308,306,0
311,318,310,307,0
311,324,309,307,0
311,324,308,307,0
309,322,307,307,0
308,319,306,309,0
307,312,306,311,0
307,302,306,312,0
307,290,305,312,0
307,279,304,310,0
308,273,304,309,0
308,277,304,308,0
308,286,304,307,0
307,298,304,306,0
306,307,304,305,0
305,309,304,304,0
303,302,303,303,0
302,289,303,302,0
300,277,302,301,0
300,268,302,300,0
299,262,303,300,0
299,261,305,300,0
299,264,306,301,0
300,271,306,302,0
302,285,307,304,0
303,305,307,305,0
305,327,308,306,0
307,349,308,308,0
309,367,308,310,0
310,373,308,311,0
310,371,308,313,0
309,366,309,313,0
306,353,308,312,0
303,330,306,310,0
300,304,305,308,0
299,285,305,307,0
298,273,305,306,0
299,267,305,305,0
300,264,306,304,0
301,263,306,303,0
303,265,307,302,0
304,272,307,301,0
305,284,307,301,0
304,297,307,301,0
302,307,307,301,0
300,309,306,301,0
297,305,305,300,0
296,301,305,301,0
296,297,306,302,0
297,296,306,303,0
298,296,306,303,0
299,297,306,304,0
301,297,306,305,0
303,299,306,306,0
305,308,308,307,0
307,324,309,309,0
309,342,310,310,0
310,358,310,311,0
309,366,309,310,0
307,362,308,310,0
306,351,306,310,0
306,342,306,311,0
305,337,306,312,0
305,332,305,312,0
305,320,306,311,0
303,303,306,310,0
302,285,305,309,0
301,270,305,307,0
301,263,305,306,0
302,265,305,305,0
303,274,306,305,0
304,283,306,306,0
305,289,306,306,0
305,289,305,306,0
304,284,305,306,0
303,275,304,305,0
302,268,304,304,0
302,267,304,304,0
303,272,305,305,0
303,281,305,306,0
303,288,305,305,0
303,295,305,305,0
303,301,305,303,0
302,304,305,302,0
302,307,304,301,0
302,310,304,301,0
302,315,304,302,0
303,321,304,304,0
306,326,304,306,0
309,329,304,309,0
314,329,303,310,0
316,321,302,311,0
317,314,301,310,0
315,309,301,309,0
311,311,300,306,0
306,315,299,303,0
304,315,300,299,0
303,306,302,296,0
302,290,304,294,0
300,278,305,292,0
297,276,306,292,0
296,284,308,294,0
295,297,309,297,0
295,310,310,300,0
296,321,311,303,0
297,333,311,306,0
300,343,311,308,0
302,351,311,309,0
304,353,311,309,0
305,346,311,310,0
306,331,311,309,0
306,316,311,309,0
306,306,310,309,0
306,301,310,309,0
307,303,308,309,0
307,311,308,310,0
307,326,307,311,0
307,340,307,311,0
307,348,306,309,0
306,350,305,307,0
305,347,306,306,0
305,341,306,304,0
304,338,307,304,0
304,338,308,304,0
304,337,308,304,0
305,332,308,304,0
304,325,308,304,0
304,314,308,304,0
303,305,308,306,0
304,297,308,307,0
304,291,308,308,0
303,285,308,308,0
304,279,307,308,0
304,271,307,308,0
305,269,308,308,0
308,281,310,309,0
312,304,312,310,0
316,336,313,312,0
317,361,313,312,0
315,363,311,309,0
310,339,308,305,0
306,306,306,302,0
302,277,303,299,0
300,255,302,298,0
298,239,302,298,0
298,230,303,298,0
299,230,304,299,0
300,239,304,300,0
300,251,304,302,0
301,263,304,303,0
301,276,305,304,0
302,289,307,306,0
303,303,308,308,0
304,314,309,310,0
305,323,310,311,0
305,327,310,311,0
305,325,311,311,0
305,320,311,312,0
305,314,310,312,0
305,311,310,311,0
305,312,309,311,0
304,317,309,311,0
304,325,310,311,0
304,332,312,312,0
305,335,313,313,0
304,335,313,312,0
305,339,313,311,0
305,346,312,310,0
304,353,311,309,0
303,352,310,308,0
301,340,308,306,0
299,319,305,305,0
298,297,303,304,0
298,277,301,304,0
298,263,301,303,0
297,253,301,303,0
298,248,302,304,0
299,248,303,305,0
301,254,304,306,0
302,267,305,308,0
303,285,306,310,0
304,302,307,311,0
304,311,307,312,0
305,310,308,311,0
306,302,310,311,0
307,294,311,311,0
308,289,312,311,0
307,287,311,310,0
304,291,310,309,0
302,299,309,308,0
299,309,308,308,0
298,318,307,308,0
297,322,307,308,0
298,320,307,308,0
298,316,306,308,0
298,315,306,308,0
300,317,307,309,0
301,320,307,309,0
303,325,308,310,0
305,330,309,311,0
306,333,310,312,0
306,333,310,312,0
306,328,309,311,0
305,320,309,311,0
304,316,308,310,0
304,321,308,309,0
304,333,308,308,0
305,349,308,307,0
305,360,308,306,0
304,360,307,305,0
303,345,306,304,0
303,325,305,303,0
302,306,305,303,0
303,291,305,303,0
303,283,304,303,0
303,279,304,301,0
303,278,303,299,0
302,280,302,298,0
301,282,302,298,0
301,284,301,299,0
301,285,301,301,0
302,286,300,302,0
302,288,300,303,0
302,290,300,304,0
303,293,301,306,0
304,298,303,308,0
306,304,304,310,0
308,313,306,311,0
309,327,307,312,0
311,345,308,313,0
312,365,308,314,0
313,387,308,314,0
313,404,308,312,0
312,407,306,310,0
312,397,306,309,0
311,374,306,308,0
310,340,307,307,0
309,308,307,305,0
307,288,307,303,0
306,280,307,303,0
306,281,308,303,0
305,286,308,304,0
305,288,309,304,0
303,284,308,304,0
302,276,308,304,0
302,269,307,303,0
302,263,306,302,0
302,260,305,301,0
301,259,304,301,0
301,258,304,300,0
301,259,304,301,0
302,262,306,302,0
304,265,308,303,0
306,266,309,304,0
309,266,311,305,0
311,264,313,306,0
313,266,314,307,0
314,280,316,308,0
313,304,316,308,0
312,333,316,308,0
309,356,314,308,0
305,364,312,306,0
301,358,308,303,0
297,347,306,301,0
296,339,304,301,0
296,336,304,301,0
298,335,305,302,0
301,334,305,303,0
303,329,306,305,0
304,322,306,306,0
306,317,307,308,0
307,315,308,310,0
308,315,309,311,0
308,316,310,311,0
308,314,310,310,0
307,309,310,309,0
306,303,309,307,0
306,300,308,306,0
306,298,308,306,0
305,297,308,305,0
305,297,307,306,0
306,302,307,306,0
306,307,306,306,0
307,311,306,306,0
307,309,306,306,0
308,302,306,305,0
308,292,306,305,0
309,283,306,305,0
309,276,306,306,0
310,273,305,306,0
309,275,305,306,0
310,284,305,307,0
311,301,305,309,0
313,323,305,311,0
314,348,306,312,0
315,370,307,313,0
315,383,307,311,0
313,383,306,308,0
311,374,304,305,0
309,362,301,304,0
307,350,300,303,0
306,333,300,302,0
305,310,301,301,0
303,288,302,300,0
302,270,304,299,0
301,260,305,298,0
301,255,307,298,0
301,253,307,299,0
301,255,307,299,0
302,257,307,299,0
303,259,307,299,0
304,262,306,300,0
305,267,306,301,0
306,272,307,302,0
306,276,307,303,0
306,278,308,303,0
307,280,308,303,0
307,285,308,303,0
307,292,309,304,0
308,300,309,304,0
309,305,310,306,0
311,310,312,309,0
315,309,314,311,0
317,301,316,312,0
319,286,317,311,0
318,278,316,308,0
316,287,314,305,0
313,315,312,304,0
312,353,310,304,0
311,392,308,304,0
310,423,306,304,0
308,438,304,303,0
307,434,302,302,0
306,414,302,302,0
306,389,303,304,0
306,364,304,305,0
305,335,304,306,0
303,310,304,306,0
301,294,304,306,0
300,290,303,306,0
299,293,303,305,0
299,293,302,306,0
300,286,303,307,0
302,276,303,308,0
303,267,303,307,0
303,259,303,306,0
303,255,303,305,0
302,253,302,303,0
301,255,302,301,0
302,259,302,300,0
302,265,302,300,0
303,272,303,300,0
303,279,304,301,0
303,283,304,302,0
302,287,306,302,0
302,289,307,303,0
302,293,308,304,0
303,295,309,306,0
304,295,309,306,0
305,295,308,307,0
306,298,309,307,0
305,301,308,308,0
304,304,308,307,0
304,307,308,307,0
304,312,307,307,0
304,321,306,307,0
305,331,305,305,0
304,338,304,305,0
304,338,304,305,0
304,329,304,306,0
304,319,305,307,0
304,312,305,309,0
304,306,305,309,0
304,301,304,309,0
303,296,304,308,0
302,292,303,306,0
301,289,301,304,0
299,285,299,302,0
299,284,297,300,0
298,285,296,299,0
298,289,296,299,0
298,293,295,299,0
297,295,294,299,0
296,298,294,300,0
297,300,294,301,0
298,300,297,304,0
299,299,299,306,0
299,296,303,307,0
300,293,305,308,0
300,294,307,309,0
301,297,309,310,0
301,304,310,311,0
301,308,311,312,0
302,309,311,312,0
302,306,311,312,0
304,303,312,312,0
305,302,312,312,0
307,304,312,311,0
308,309,312,310,0
309,319,311,309,0
309,330,310,308,0
308,335,309,307,0
306,332,309,306,0
305,324,309,306,0
305,315,309,306,0
305,307,309,306,0
305,299,309,306,0
305,294,308,307,0
304,292,308,307,0
303,294,308,307,0
303,297,308,308,0
303,300,308,307,0
303,305,308,307,0
303,312,307,306,0
304,323,306,306,0
304,338,305,306,0
304,350,303,306,0
304,354,302,306,0
303,351,300,306,0
301,345,299,306,0
300,336,299,306,0
301,328,299,307,0
302,319,301,308,0
303,308,302,309,0
303,297,302,310,0
302,290,303,310,0
302,287,303,310,0
302,289,304,310,0
303,298,307,309,0
305,314,311,309,0
309,336,315,310,0
314,361,319,312,0
319,382,322,314,0
322,388,322,314,0
320,375,319,312,0
315,350,315,309,0
310,326,312,306,0
307,311,309,303,0
305,307,307,302,0
304,299,307,300,0
303,284,306,299,0
300,271,305,299,0
298,263,304,300,0
297,259,304,300,0
296,259,304,301,0
296,263,304,301,0
297,268,304,303,0
298,276,305,305,0
300,284,307,307,0
303,292,308,309,0
304,295,308,309,0
304,295,308,308,0
303,292,307,307,0
303,289,306,306,0
303,287,305,305,0
303,287,304,305,0
303,286,302,304,0
303,285,302,305,0
304,283,301,305,0
306,279,301,305,0
307,274,301,306,0
308,270,302,307,0
309,269,302,308,0
311,272,303,309,0
314,283,304,311,0
317,301,304,314,0
319,324,304,317,0
318,347,302,319,0
315,361,299,318,0
311,360,298,315,0
307,348,298,311,0
304,334,300,308,0
302,324,303,307,0
301,320,304,306,0
302,320,306,306,0
302,318,307,306,0
302,310,308,307,0
302,302,309,308,0
303,296,310,308,0
303,294,311,309,0
303,295,311,309,0
304,300,311,308,0
304,309,311,308,0
305,322,312,308,0
305,334,311,308,0
306,343,311,309,0
306,346,310,309,0
307,342,310,309,0
308,331,309,308,0
309,317,308,306,0
309,302,306,304,0
308,290,305,303,0
308,285,305,303,0
308,283,306,305,0
308,282,306,307,0
307,279,306,308,0
306,274,306,307,0
305,270,305,306,0
304,272,305,305,0
305,281,305,306,0
306,295,305,307,0
306,307,305,309,0
307,313,305,311,0
306,311,305,312,0
306,304,304,312,0
305,300,304,313,0
305,303,304,313,0
306,311,305,313,0
306,317,305,312,0
307,316,306,311,0
308,303,306,309,0
309,282,307,307,0
311,262,308,307,0
312,251,308,307,0
313,255,308,308,0
313,272,307,309,0
310,296,306,309,0
306,319,304,310,0
302,335,302,310,0
299,345,300,309,0
298,346,298,308,0
297,343,297,308,0
298,339,297,308,0
299,336,298,308,0
301,337,299,309,0
302,340,300,311,0
303,343,301,311,0
303,343,301,311,0
302,338,301,309,0
301,327,301,308,0
301,315,301,307,0
301,306,301,308,0
302,299,303,309,0
303,297,304,310,0
304,298,305,312,0
304,303,306,313,0
305,310,306,314,0
305,317,305,313,0
304,319,303,313,0
304,315,302,313,0
304,308,302,313,0
304,303,302,313,0
305,304,302,314,0
307,311,304,316,0
310,323,306,319,0
313,337,309,320,0
317,352,311,320,0
321,365,312,320,0
325,372,311,319,0
329,379,310,320,0
332,392,309,323,0
334,406,310,324,0
331,405,311,320,0
325,389,311,314,0
317,363,311,309,0
310,335,309,306,0
303,308,307,304,0
299,281,305,303,0
297,260,304,302,0
295,247,303,303,0
295,241,303,303,0
294,240,303,303,0
294,241,303,304,0
295,243,304,305,0
296,246,304,305,0
297,246,304,305,0
298,245,305,305,0
299,243,305,305,0
300,242,306,306,0
300,242,306,306,0
300,246,306,306,0
300,255,305,307,0
300,269,305,308,0
