299,308,323,298,2
298,323,318,296,2
299,337,315,296,2
302,342,318,298,2
307,337,324,302,2
312,324,332,305,2
315,307,337,306,2
316,290,340,308,2
315,278,340,310,2
314,276,337,312,2
313,284,333,314,2
313,297,330,314,2
314,309,328,313,2
316,323,329,313,2
318,344,332,313,2
319,367,336,313,2
318,388,337,312,2
316,398,338,311,2
315,397,336,312,2
314,389,332,313,2
313,378,326,314,2
312,364,319,313,2
310,345,312,311,2
308,320,306,307,2
306,289,302,303,2
307,256,303,300,2
309,227,306,299,2
311,208,311,299,2
311,210,316,300,2
310,235,318,301,2
307,271,317,301,2
304,310,317,302,2
300,340,315,302,2
298,361,314,303,2
297,374,313,303,2
298,378,313,303,2
300,376,313,302,2
303,375,313,302,2
306,378,314,302,2
307,381,314,303,2
307,379,314,303,2
306,371,312,305,2
305,360,310,307,2
305,347,308,310,2
306,336,307,312,2
308,329,308,314,2
309,327,310,315,2
311,328,313,314,2
314,331,317,314,2
317,331,321,313,2
319,331,324,310,2
319,332,324,308,2
316,326,323,305,2
312,313,320,303,2
310,295,319,302,2
310,274,320,301,2
312,256,323,302,2
314,245,327,303,2
315,247,328,305,2
314,260,327,307,2
312,274,325,310,2
310,286,324,312,2
307,297,323,313,2
305,316,322,313,2
303,340,321,311,2
300,364,319,310,2
298,381,316,309,2
298,387,314,308,2
299,385,312,310,2
303,377,312,313,2
309,365,314,315,2
313,357,315,316,2
315,353,314,316,2
315,353,313,317,2
316,356,312,318,2
316,362,312,319,2
315,369,310,318,2
314,372,308,317,2
313,374,308,316,2
311,374,308,316,2
309,370,307,317,2
307,358,306,319,2
307,336,304,320,2
308,314,304,320,2
310,297,306,318,2
312,290,309,316,2
312,294,311,313,2
312,306,313,312,2
310,320,314,312,2
308,333,313,312,2
306,340,312,312,2
304,342,311,313,2
304,340,311,315,2
304,335,312,318,2
303,330,313,320,2
302,322,313,323,2
303,311,314,326,2
305,299,314,328,2
309,288,316,330,2
312,282,318,330,2
315,287,319,328,2
315,296,321,323,2
315,304,322,317,2
315,309,324,313,2
314,312,322,312,2
311,313,318,312,2
308,315,313,312,2
304,320,308,311,2
299,327,304,310,2
296,338,301,310,2
294,350,299,310,2
293,362,297,311,2
293,371,296,311,2
294,378,296,312,2
295,383,298,313,2
298,388,301,314,2
301,394,306,316,2
304,398,310,319,2
306,397,312,319,2
308,389,312,318,2
308,373,310,316,2
307,353,306,313,2
306,332,302,311,2
305,311,298,308,2
305,291,295,305,2
304,275,294,303,2
304,266,295,302,2
304,263,297,301,2
304,269,300,298,2
304,281,302,296,2
307,296,306,297,2
313,313,312,302,2
320,333,319,309,2
328,352,325,316,2
334,364,329,322,2
337,366,330,325,2
338,365,330,324,2
338,365,329,324,2
337,367,330,323,2
337,366,333,323,2
335,365,336,322,2
329,361,338,320,2
320,354,336,316,2
309,345,329,312,2
299,332,319,307,2
291,317,308,303,2
286,301,298,301,2
282,287,290,300,2
280,278,285,299,2
279,280,285,299,2
278,294,289,301,2
279,313,295,304,2
281,326,301,306,2
285,331,306,309,2
289,331,308,311,2
293,331,309,314,2
297,332,311,317,2
302,335,313,320,2
306,341,317,323,2
308,346,319,326,2
309,349,319,327,2
308,352,317,324,2
305,354,312,322,2
303,358,308,321,2
303,363,306,321,2
303,365,306,322,2
305,365,308,322,2
306,359,311,321,2
308,346,314,318,2
309,332,318,316,2
311,319,321,315,2
313,311,324,317,2
314,309,325,319,2
314,317,323,322,2
313,330,321,326,2
310,341,319,328,2
307,343,316,329,2
304,339,313,328,2
303,330,311,327,2
303,321,310,326,2
305,312,311,326,2
307,307,312,324,2
307,307,312,320,2
305,312,312,316,2
303,320,312,313,2
303,325,313,311,2
303,326,314,310,2
302,322,313,308,2
302,316,311,307,2
302,313,309,307,2
302,313,307,307,2
301,312,305,307,2
300,306,303,307,2
300,297,302,307,2
301,286,302,306,2
302,281,303,306,2
302,283,303,306,2
301,291,304,307,2
300,303,304,307,2
299,319,305,307,2
299,331,307,307,2
298,337,310,308,2
297,340,312,308,2
297,340,313,310,2
299,337,315,312,2
302,333,316,315,2
304,333,317,317,2
306,337,317,319,2
306,346,316,320,2
306,356,314,320,2
306,363,313,320,2
304,365,312,320,2
303,363,311,319,2
303,358,311,318,2
302,353,311,317,2
303,347,313,316,2
305,340,314,315,2
307,331,314,313,2
309,321,312,312,2
309,312,310,310,2
309,310,307,310,2
308,313,304,310,2
306,316,302,309,2
304,315,302,309,2
304,311,304,309,2
305,306,310,310,2
307,303,317,311,2
309,303,323,313,2
310,309,325,313,2
309,320,323,313,2
308,335,318,315,2
307,346,312,317,2
305,350,308,319,2
304,348,306,318,2
302,344,305,318,2
301,339,306,319,2
302,336,307,320,2
303,333,308,322,2
305,332,308,324,2
306,333,307,323,2
305,334,305,320,2
304,333,304,316,2
303,331,303,313,2
303,330,303,312,2
303,329,304,313,2
303,328,304,313,2
303,327,305,313,2
304,326,307,313,2
305,325,309,314,2
305,323,311,315,2
306,321,312,316,2
306,318,312,317,2
306,314,310,317,2
305,308,307,316,2
305,302,304,315,2
305,295,302,313,2
305,289,298,312,2
304,286,296,311,2
305,289,296,311,2
305,299,297,311,2
305,313,301,313,2
306,326,305,315,2
307,335,307,316,2
306,338,308,316,2
306,340,309,318,2
307,340,311,320,2
310,339,312,322,2
312,339,314,324,2
314,337,315,324,2
313,332,314,323,2
309,325,313,321,2
305,318,312,319,2
302,311,310,317,2
301,305,309,316,2
300,302,307,316,2
300,303,304,315,2
300,305,302,314,2
300,311,300,313,2
299,316,299,312,2
300,322,300,312,2
301,327,301,313,2
303,329,303,314,2
305,329,304,315,2
306,327,305,315,2
306,321,307,315,2
307,313,308,314,2
308,304,309,315,2
309,294,309,317,2
310,288,309,319,2
310,291,308,321,2
308,304,308,322,2
305,323,308,321,2
302,341,306,319,2
300,353,304,315,2
298,355,303,311,2
298,345,303,308,2
300,329,304,308,2
302,317,305,309,2
303,310,304,310,2
302,306,302,311,2
301,307,299,310,2
300,310,296,309,2
300,315,295,309,2
300,316,296,309,2
301,316,299,309,2
302,317,303,309,2
301,321,306,307,2
301,327,308,306,2
302,331,309,306,2
304,329,308,308,2
305,321,306,311,2
307,312,303,314,2
308,305,301,316,2
308,302,300,318,2
308,308,301,320,2
307,319,303,322,2
307,329,307,322,2
307,334,311,322,2
308,332,314,323,2
308,327,314,322,2
307,322,313,321,2
306,321,310,320,2
304,322,306,320,2
303,325,303,320,2
302,329,302,320,2
302,331,303,321,2
303,331,305,323,2
303,330,308,324,2
303,329,308,323,2
302,330,308,322,2
300,331,305,320,2
299,331,302,317,2
299,329,299,314,2
300,328,299,312,2
301,328,299,311,2
303,327,301,312,2
304,325,304,312,2
305,320,306,311,2
305,314,308,311,2
305,306,307,310,2
304,296,307,308,2
304,287,305,308,2
303,281,304,309,2
302,278,303,312,2
300,279,302,314,2
299,284,301,316,2
298,295,301,318,2
298,308,302,320,2
299,320,302,319,2
299,329,300,317,2
298,334,297,315,2
297,335,295,314,2
297,335,294,315,2
299,332,295,319,2
300,324,297,321,2
301,313,298,321,2
302,299,299,321,2
304,282,299,319,2
306,261,299,316,2
308,242,299,315,2
311,230,300,315,2
314,229,302,317,2
315,240,302,319,2
314,262,301,320,2
312,289,301,319,2
308,315,300,317,2
305,337,300,316,2
303,353,302,315,2
302,362,303,316,2
301,365,303,317,2
300,363,303,319,2
299,360,303,320,2
298,356,302,320,2
299,350,303,321,2
300,341,304,322,2
303,329,305,321,2
305,314,306,320,2
307,298,305,319,2
308,284,306,317,2
310,277,306,316,2
310,278,305,315,2
308,285,303,314,2
305,298,301,315,2
302,311,300,315,2
299,318,298,315,2
298,316,297,314,2
298,310,297,314,2
300,301,298,313,2
302,292,299,312,2
304,287,300,311,2
306,286,300,310,2
308,293,301,311,2
308,304,302,311,2
307,312,301,312,2
305,316,300,311,2
302,320,299,309,2
299,323,298,309,2
299,325,298,309,2
299,327,299,310,2
300,327,299,311,2
301,326,301,311,2
303,327,303,313,2
304,332,305,314,2
306,336,305,316,2
307,336,304,317,2
306,330,302,317,2
304,321,300,317,2
303,310,298,316,2
302,301,297,316,2
302,296,297,316,2
303,294,298,317,2
304,296,299,319,2
304,299,300,320,2
305,301,300,320,2
306,300,300,320,2
307,297,300,319,2
308,292,299,318,2
309,289,298,316,2
310,290,298,314,2
310,294,296,311,2
308,299,296,309,2
306,306,296,309,2
304,314,299,310,2
303,319,301,311,2
303,320,304,312,2
304,320,306,313,2
306,320,307,315,2
308,319,307,316,2
310,315,307,316,2
311,310,305,314,2
310,305,303,313,2
309,299,302,311,2
307,297,301,311,2
306,299,301,312,2
305,303,302,314,2
305,306,303,314,2
305,307,303,314,2
306,306,304,313,2
308,302,304,313,2
309,298,305,313,2
310,296,305,314,2
310,296,305,314,2
309,297,305,313,2
308,299,304,312,2
306,301,302,310,2
305,301,301,308,2
304,299,299,305,2
304,297,298,304,2
304,299,298,302,2
305,303,298,301,2
305,306,298,301,2
306,309,299,300,2
306,312,300,301,2
307,316,302,305,2
308,320,305,310,2
309,322,308,315,2
309,320,310,318,2
309,317,311,320,2
310,314,312,321,2
310,310,312,321,2
309,304,311,320,2
307,298,309,319,2
307,293,307,317,2
307,291,306,315,2
307,294,305,313,2
307,298,304,311,2
306,301,303,309,2
306,301,302,307,2
306,296,301,306,2
307,289,301,304,2
309,282,300,302,2
311,274,299,300,2
313,267,299,297,2
313,265,299,295,2
311,271,298,294,2
309,281,298,294,2
306,290,298,294,2
304,297,297,296,2
302,304,297,297,2
301,309,297,298,2
300,311,298,300,2
300,309,300,302,2
300,305,303,304,2
301,300,307,308,2
303,292,311,312,2
307,282,315,316,2
310,275,318,319,2
313,270,319,320,2
313,270,318,320,2
312,272,315,318,2
309,276,313,316,2
306,286,309,314,2
304,297,306,311,2
303,307,303,309,2
303,315,302,307,2
303,323,303,306,2
304,331,304,305,2
304,336,305,303,2
302,337,306,304,2
302,336,306,305,2
302,333,307,306,2
303,327,306,307,2
304,321,307,307,2
305,315,307,306,2
307,310,309,306,2
308,304,310,307,2
309,297,310,309,2
310,290,310,310,2
309,282,309,309,2
309,276,309,308,2
309,274,308,307,2
310,277,307,308,2
310,284,306,311,2
310,292,304,313,2
309,300,303,313,2
307,310,301,313,2
306,318,300,312,2
304,322,299,311,2
304,325,299,309,2
304,324,297,306,2
304,319,296,302,2
304,312,293,299,2
304,308,290,295,2
304,306,286,294,2
304,307,284,293,2
305,309,284,292,2
306,311,285,292,2
306,308,288,293,2
305,299,292,295,2
304,288,296,298,2
303,283,300,300,2
303,280,302,300,2
303,279,303,300,2
305,281,305,300,2
306,284,306,300,2
308,289,309,301,2
309,295,312,304,2
309,301,313,308,2
310,307,315,313,2
311,311,317,317,2
312,311,318,320,2
313,308,319,321,2
313,302,319,321,2
312,293,318,319,2
311,285,314,319,2
309,284,309,318,2
307,291,305,316,2
305,304,301,313,2
304,317,297,312,2
303,324,294,309,2
303,322,293,308,2
303,312,295,307,2
304,301,298,307,2
306,291,302,308,2
309,282,306,309,2
311,275,308,309,2
313,270,311,308,2
315,271,313,308,2
316,277,315,308,2
317,287,316,309,2
317,300,318,311,2
318,311,318,312,2
317,318,316,312,2
316,320,313,311,2
315,321,309,309,2
314,323,305,307,2
312,327,302,305,2
310,327,299,306,2
308,325,299,309,2
306,321,301,314,2
306,317,303,318,2
306,313,304,320,2
306,309,305,321,2
306,306,306,322,2
306,303,307,322,2
307,300,308,322,2
307,297,307,321,2
308,296,307,319,2
308,297,306,317,2
308,300,305,315,2
308,304,304,313,2
307,306,303,311,2
307,307,303,310,2
307,308,304,310,2
307,310,304,310,2
307,312,305,310,2
307,311,305,310,2
307,304,305,308,2
308,290,304,307,2
310,273,303,306,2
312,254,303,307,2
314,236,304,309,2
317,224,306,312,2
319,221,310,315,2
320,230,314,316,2
320,251,315,315,2
318,282,314,314,2
316,315,312,312,2
315,337,312,311,2
314,343,312,309,2
314,337,313,308,2
313,325,312,306,2
311,312,311,305,2
309,302,308,304,2
306,298,305,303,2
304,298,304,302,2
302,302,302,302,2
301,308,302,303,2
300,315,301,304,2
299,319,300,305,2
300,322,301,306,2
301,322,301,307,2
303,320,302,307,2
305,318,303,307,2
307,316,304,307,2
307,315,303,307,2
306,314,301,306,2
305,315,298,306,2
304,317,296,307,2
303,317,295,308,2
302,312,295,308,2
303,303,294,307,2
304,294,295,305,2
305,288,295,305,2
307,285,297,306,2
308,283,301,307,2
309,284,304,308,2
308,288,306,308,2
307,292,307,309,2
307,291,308,309,2
307,283,308,309,2
308,274,307,310,2
309,265,306,311,2
310,263,305,312,2
310,266,307,312,2
312,273,308,313,2
313,283,308,314,2
313,293,307,315,2
313,304,306,315,2
313,313,303,315,2
312,317,300,313,2
312,317,296,310,2
312,316,293,305,2
311,316,290,300,2
311,317,289,297,2
312,317,290,297,2
312,315,292,300,2
311,315,292,302,2
310,316,291,304,2
309,314,290,306,2
307,309,291,308,2
306,304,293,310,2
306,302,298,313,2
307,302,303,316,2
308,301,309,318,2
308,302,312,317,2
308,301,314,317,2
308,300,314,316,2
309,299,314,316,2
310,298,315,316,2
310,298,315,315,2
310,297,315,314,2
310,295,314,313,2
311,294,315,312,2
312,298,314,312,2
311,303,312,313,2
310,305,308,312,2
306,305,302,310,2
303,306,296,308,2
300,307,291,305,2
298,307,288,302,2
297,307,288,299,2
296,306,290,297,2
297,305,294,297,2
297,304,298,299,2
299,303,303,301,2
299,300,307,303,2
300,298,310,306,2
302,295,312,310,2
304,293,313,314,2
306,291,312,317,2
307,290,311,319,2
309,292,309,321,2
310,296,308,321,2
310,300,307,320,2
310,302,307,318,2
310,301,307,316,2
310,299,306,313,2
310,297,306,311,2
310,294,306,309,2
310,289,305,307,2
310,287,305,306,2
309,288,305,307,2
308,291,305,307,2
308,294,306,308,2
308,299,307,309,2
308,305,307,311,2
308,309,307,311,2
307,305,306,311,2
307,297,305,311,2
307,288,304,309,2
307,284,302,307,2
306,284,301,304,2
306,288,299,302,2
305,292,298,300,2
305,293,297,299,2
305,291,297,298,2
305,289,296,298,2
306,289,295,298,2
306,291,295,298,2
306,297,295,299,2
307,304,297,301,2
308,309,300,303,2
308,313,303,305,2
309,315,305,307,2
309,316,306,307,2
309,315,306,307,2
309,313,306,307,2
309,309,305,306,2
309,302,305,305,2
309,295,305,305,2
310,287,305,306,2
310,278,305,305,2
310,268,305,304,2
311,262,305,302,2
312,263,304,301,2
313,274,304,300,2
312,290,304,299,2
311,304,302,299,2
310,310,301,300,2
309,310,300,300,2
308,311,299,300,2
307,314,299,301,2
307,319,300,303,2
306,324,300,304,2
305,326,301,306,2
305,328,303,307,2
306,328,305,309,2
307,327,308,309,2
308,326,310,310,2
310,324,311,309,2
310,320,309,308,2
310,318,306,306,2
310,314,302,304,2
310,309,297,301,2
310,300,294,298,2
310,286,291,295,2
309,268,287,291,2
308,251,284,287,2
306,240,283,284,2
304,239,284,283,2
303,251,286,284,2
302,271,291,288,2
302,297,298,295,2
303,319,304,303,2
304,333,308,310,2
305,338,310,315,2
305,337,310,317,2
305,331,309,316,2
304,324,307,311,2
304,318,306,305,2
304,313,305,301,2
304,311,305,300,2
304,312,306,300,2
305,313,305,302,2
305,313,306,304,2
306,311,306,306,2
307,305,307,308,2
308,298,307,310,2
309,289,307,311,2
311,282,307,312,2
312,279,307,313,2
313,280,306,313,2
313,286,305,314,2
312,295,305,314,2
310,304,305,314,2
309,313,305,314,2
308,318,305,314,2
306,318,306,314,2
305,311,306,313,2
304,304,307,313,2
304,301,307,313,2
305,300,307,313,2
305,300,306,313,2
305,301,306,313,2
305,304,305,312,2
304,309,304,311,2
305,314,304,309,2
306,317,305,308,2
307,317,305,307,2
307,313,305,306,2
308,305,304,305,2
308,296,304,304,2
308,286,303,303,2
308,276,302,303,2
309,269,302,302,2
309,270,302,302,2
309,280,301,303,2
308,295,301,302,2
307,308,301,302,2
306,318,302,302,2
305,324,302,303,2
304,328,302,303,2
304,330,303,305,2
303,329,303,306,2
302,326,303,306,2
302,322,304,305,2
302,318,304,305,2
302,315,306,305,2
304,314,309,306,2
305,311,311,307,2
306,307,312,308,2
307,302,313,308,2
308,296,312,309,2
309,288,311,309,2
310,279,310,308,2
311,270,309,307,2
311,264,308,306,2
311,262,308,305,2
311,262,309,304,2
311,266,309,304,2
311,274,310,303,2
312,282,310,305,2
311,292,311,306,2
310,302,310,308,2
306,312,307,308,2
303,320,305,307,2
300,324,303,306,2
298,324,301,304,2
299,317,301,303,2
300,305,302,302,2
302,290,303,301,2
304,272,305,300,2
307,257,306,299,2
309,246,307,300,2
310,246,306,301,2
310,257,305,302,2
307,278,303,302,2
304,302,300,303,2
302,321,299,304,2
301,333,299,306,2
301,337,300,307,2
302,336,301,308,2
303,333,303,309,2
304,329,303,309,2
304,325,303,308,2
305,321,303,307,2
305,319,303,306,2
305,318,302,306,2
306,316,303,305,2
306,315,302,305,2
306,314,301,305,2
306,313,299,305,2
306,312,298,306,2
305,311,297,306,2
305,307,298,306,2
305,301,300,307,2
306,295,303,308,2
306,288,305,308,2
307,283,306,306,2
307,280,305,304,2
306,283,304,301,2
305,289,303,298,2
304,297,302,296,2
303,304,301,296,2
303,306,300,297,2
303,307,300,298,2
304,306,301,299,2
305,308,302,301,2
306,309,304,302,2
307,311,305,303,2
308,312,305,303,2
308,312,305,302,2
308,311,305,302,2
308,311,306,302,2
308,309,306,301,2
308,308,306,299,2
307,309,306,298,2
307,310,306,297,2
306,310,305,297,2
306,306,304,297,2
305,299,303,297,2
305,292,302,296,2
305,286,300,295,2
304,281,298,294,2
305,275,296,292,2
305,270,295,292,2
306,265,295,293,2
306,262,296,295,2
307,263,298,298,2
308,265,301,301,2
308,270,305,304,2
308,278,308,306,2
309,289,310,308,2
308,301,311,308,2
307,310,310,307,2
306,315,309,306,2
306,316,309,305,2
307,315,309,304,2
308,312,309,304,2
310,309,308,302,2
310,307,307,301,2
309,307,305,299,2
307,308,303,297,2
307,311,301,296,2
306,314,299,296,2
305,316,298,296,2
304,317,297,296,2
303,317,297,297,2
302,317,299,298,2
303,317,301,301,2
304,314,303,303,2
304,309,305,305,2
304,302,307,307,2
304,297,308,309,2
305,294,310,310,2
305,293,312,312,2
305,296,313,314,2
305,302,313,314,2
305,307,313,314,2
305,310,311,312,2
305,310,310,311,2
305,306,308,308,2
305,303,306,306,2
306,299,305,303,2
306,300,304,302,2
307,304,302,302,2
307,312,301,303,2
307,318,300,305,2
307,321,301,308,2
306,320,301,310,2
306,319,303,312,2
307,317,306,313,2
307,314,308,312,2
307,309,311,308,2
307,306,312,306,2
307,304,312,305,2
307,302,312,305,2
308,301,312,306,2
308,299,312,306,2
309,299,311,306,2
309,298,311,305,2
309,298,310,303,2
309,298,310,301,2
310,297,310,300,2
309,294,309,299,2
309,290,307,300,2
308,286,306,300,2
306,280,304,300,2
305,277,303,301,2
304,277,301,301,2
303,281,301,300,2
301,286,300,300,2
301,291,300,300,2
300,297,301,300,2
300,303,302,301,2
300,307,302,301,2
299,308,303,300,2
299,304,303,301,2
300,297,303,302,2
302,289,303,303,2
304,281,304,303,2
305,272,305,304,2
306,265,307,303,2
307,261,308,301,2
307,264,310,301,2
308,272,312,300,2
309,280,313,301,2
309,288,314,301,2
309,296,313,302,2
309,305,312,302,2
309,313,312,303,2
308,320,312,303,2
306,325,312,302,2
304,329,311,301,2
303,331,310,302,2
302,333,310,302,2
303,335,309,302,2
303,335,307,301,2
303,333,305,299,2
301,328,303,298,2
301,324,302,296,2
300,320,302,296,2
301,315,303,297,2
301,312,304,298,2
302,310,304,298,2
303,307,305,300,2
304,305,306,300,2
305,302,308,301,2
306,297,309,300,2
307,290,310,299,2
309,283,311,298,2
311,279,310,298,2
312,279,308,298,2
312,284,305,299,2
311,290,302,300,2
309,293,300,301,2
306,298,299,299,2
303,305,300,297,2
301,312,302,296,2
301,317,304,296,2
301,320,306,296,2
301,320,307,298,2
303,319,309,299,2
305,316,310,300,2
307,312,310,299,2
308,307,310,298,2
308,303,310,298,2
308,303,309,298,2
308,304,308,298,2
309,305,309,300,2
310,306,309,301,2
310,303,309,301,2
310,298,308,301,2
309,295,308,302,2
309,292,306,303,2
308,292,306,304,2
309,291,306,306,2
309,293,306,307,2
310,297,308,308,2
311,303,309,309,2
311,310,310,309,2
309,318,310,309,2
308,323,309,310,2
308,326,309,310,2
309,327,309,310,2
309,326,309,309,2
308,325,309,308,2
306,322,308,306,2
305,316,308,304,2
304,310,308,303,2
305,307,308,301,2
305,307,309,301,2
305,308,309,301,2
306,310,310,304,2
307,312,311,307,2
308,311,311,308,2
307,308,312,308,2
307,302,313,307,2
306,295,313,306,2
306,288,315,305,2
307,281,315,304,2
308,276,316,304,2
309,274,316,304,2
309,276,316,303,2
308,281,314,303,2
306,287,312,303,2
304,292,310,303,2
303,294,309,303,2
303,294,308,303,2
304,294,308,303,2
306,296,309,303,2
308,301,310,303,2
309,310,309,301,2
309,322,308,299,2
308,333,306,297,2
308,342,305,297,2
308,345,304,298,2
308,344,305,300,2
310,342,307,303,2
311,338,309,306,2
312,334,310,309,2
312,334,311,311,2
312,334,311,311,2
311,331,309,309,2
309,323,308,307,2
307,314,307,306,2
306,307,307,307,2
306,301,307,308,2
305,297,307,308,2
305,296,306,307,2
304,295,305,307,2
305,295,305,306,2
306,296,304,306,2
307,297,305,305,2
308,298,306,305,2
310,297,307,306,2
311,295,308,308,2
312,292,308,309,2
311,290,309,310,2
311,290,308,310,2
310,292,308,309,2
309,297,308,308,2
307,301,308,307,2
306,303,309,307,2
306,304,310,307,2
306,303,310,307,2
305,303,310,307,2
306,302,309,307,2
306,303,309,307,2
307,303,309,307,2
308,303,310,307,2
310,302,311,306,2
313,296,311,304,2
315,289,310,303,2
317,281,309,302,2
317,274,307,302,2
317,271,307,302,2
316,275,305,304,2
314,284,305,306,2
312,299,306,307,2
311,315,307,309,2
311,326,308,309,2
312,328,309,307,2
313,321,308,303,2
313,310,308,299,2
314,301,308,298,2
315,296,308,297,2
315,293,307,297,2
314,291,306,299,2
312,288,305,300,2
310,284,304,303,2
308,281,303,305,2
305,280,303,307,2
304,281,303,309,2
303,285,303,310,2
303,291,303,311,2
304,297,304,312,2
305,300,304,312,2
306,300,305,312,2
308,296,305,312,2
309,289,305,312,2
309,284,305,310,2
310,280,305,309,2
309,280,306,308,2
309,283,305,308,2
308,291,305,307,2
307,302,305,308,2
308,314,306,309,2
309,327,308,312,2
309,335,308,313,2
308,336,307,312,2
307,331,306,311,2
306,323,306,310,2
305,313,306,309,2
305,301,307,308,2
305,292,308,308,2
307,285,309,308,2
309,280,310,308,2
310,279,310,308,2
309,283,309,309,2
308,291,308,310,2
308,299,307,311,2
308,305,306,311,2
308,308,305,312,2
308,313,303,311,2
306,319,302,310,2
305,325,301,308,2
303,329,300,305,2
302,330,299,302,2
301,326,298,299,2
299,317,296,297,2
297,306,295,295,2
298,297,294,295,2
300,292,294,295,2
302,288,295,296,2
305,284,298,298,2
307,279,301,300,2
309,274,305,303,2
309,272,308,305,2
309,275,310,307,2
309,282,310,308,2
308,291,309,308,2
307,302,308,308,2
306,313,308,309,2
306,321,309,311,2
306,323,309,313,2
306,321,309,313,2
306,315,309,314,2
307,306,310,314,2
308,294,310,314,2
309,283,311,313,2
310,275,310,312,2
310,272,310,311,2
311,272,311,312,2
312,280,312,314,2
312,295,312,315,2
310,313,311,315,2
308,326,310,314,2
306,331,307,311,2
303,331,305,308,2
301,327,304,306,2
301,321,304,306,2
301,315,304,307,2
301,308,305,308,2
302,300,306,307,2
303,290,307,306,2
304,281,308,303,2
305,275,309,302,2
306,272,309,302,2
307,271,309,302,2
307,275,309,302,2
308,282,308,302,2
308,289,308,302,2
307,293,308,303,2
307,296,308,303,2
307,298,309,304,2
307,299,309,304,2
308,300,310,305,2
309,304,310,306,2
310,309,310,306,2
310,312,310,307,2
309,313,307,306,2
309,311,304,306,2
307,309,301,306,2
305,308,300,305,2
304,307,300,304,2
303,305,301,303,2
302,302,303,303,2
303,299,306,302,2
304,298,308,302,2
306,300,309,302,2
308,304,310,304,2
310,307,312,305,2
311,308,311,305,2
312,306,311,305,2
312,301,310,304,2
312,295,310,304,2
312,288,310,304,2
312,284,309,305,2
313,285,310,305,2
313,291,311,307,2
313,298,310,306,2
311,305,308,303,2
308,314,305,300,2
304,321,302,297,2
302,323,300,296,2
300,320,299,296,2
300,313,300,296,2
301,305,301,298,2
302,296,302,301,2
304,289,304,306,2
307,286,305,311,2
309,290,307,315,2
311,298,308,318,2
312,308,309,319,2
313,316,308,318,2
312,319,307,316,2
311,318,305,312,2
311,314,303,309,2
310,310,302,305,2
309,304,300,301,2
308,300,298,297,2
307,298,297,295,2
306,296,296,294,2
305,293,296,294,2
305,289,297,295,2
306,284,300,298,2
306,281,302,301,2
307,280,303,303,2
307,283,304,304,2
307,290,304,305,2
306,297,304,306,2
306,302,305,308,2
306,303,305,310,2
307,302,306,312,2
308,300,307,313,2
308,300,308,314,2
309,301,309,314,2
309,305,309,312,2
308,308,308,310,2
306,311,307,308,2
305,312,306,307,2
304,311,306,305,2
303,308,306,305,2
303,303,306,305,2
303,298,307,305,2
302,293,307,304,2
302,291,307,305,2
303,291,307,306,2
302,294,307,308,2
303,297,307,309,2
303,299,306,309,2
303,301,305,309,2
302,303,304,308,2
303,305,304,308,2
303,307,304,309,2
305,310,305,310,2
306,310,305,310,2
306,309,305,310,2
306,308,306,311,2
306,307,307,312,2
306,307,308,313,2
306,307,308,314,2
306,307,307,313,2
306,308,306,311,2
306,309,306,309,2
306,309,306,307,2
305,308,306,306,2
304,306,306,306,2
304,305,306,306,2
303,303,307,307,2
303,301,307,308,2
303,299,307,309,2
303,296,307,309,2
302,291,306,308,2
302,285,305,307,2
301,279,303,306,2
301,276,302,305,2
301,278,302,304,2
302,283,302,304,2
302,289,302,303,2
303,292,301,303,2
303,290,302,303,2
303,285,301,303,2
303,278,302,304,2
305,269,303,305,2
307,261,305,307,2
310,258,308,310,2
312,262,309,312,2
312,271,309,312,2
311,284,309,311,2
308,297,307,310,2
305,307,304,308,2
302,310,302,305,2
299,309,301,303,2
298,307,301,303,2
298,306,301,302,2
298,307,303,302,2
298,311,304,303,2
299,318,305,304,2
298,324,307,305,2
299,328,307,305,2
299,330,307,305,2
300,330,307,305,2
301,328,306,305,2
300,324,306,306,2
299,320,305,307,2
298,317,304,307,2
298,314,304,307,2
298,312,304,307,2
298,310,304,307,2
299,308,305,308,2
300,304,305,309,2
302,297,306,311,2
303,288,307,312,2
304,281,307,312,2
305,275,307,312,2
305,272,307,311,2
305,273,306,309,2
305,279,305,308,2
305,289,305,307,2
306,300,304,307,2
306,309,304,308,2
306,316,304,309,2
307,320,305,311,2
307,321,305,311,2
307,321,305,312,2
306,320,306,312,2
305,319,306,312,2
305,318,306,313,2
305,317,306,314,2
306,316,306,314,2
306,313,305,313,2
306,306,305,311,2
305,299,304,309,2
305,292,302,308,2
304,288,302,308,2
304,286,301,308,2
304,285,302,308,2
304,286,302,308,2
304,287,301,308,2
304,287,301,308,2
304,287,301,308,2
304,289,300,309,2
304,292,299,310,2
305,295,299,311,2
305,298,298,312,2
306,299,298,313,2
306,298,297,314,2
307,295,297,314,2
307,294,299,314,2
308,294,300,314,2
308,296,300,313,2
307,300,300,312,2
305,302,300,311,2
303,304,298,309,2
301,308,296,307,2
299,311,295,307,2
298,313,294,306,2
298,314,294,307,2
298,316,296,308,2
299,320,299,309,2
300,328,303,311,2
301,335,306,312,2
302,339,308,313,2
302,340,308,313,2
302,339,307,313,2
302,337,308,314,2
303,330,309,314,2
304,317,309,315,2
305,302,310,315,2
307,290,310,315,2
309,284,310,315,2
311,280,311,316,2
312,279,311,315,2
311,280,310,314,2
311,284,309,313,2
309,287,307,313,2
308,291,306,311,2
307,294,305,309,2
306,297,304,307,2
305,298,303,305,2
304,299,303,303,2
304,299,303,303,2
304,300,303,303,2
304,302,303,304,2
304,302,303,305,2
304,302,304,305,2
305,303,304,306,2
306,304,303,306,2
306,306,303,307,2
305,306,302,307,2
304,305,302,308,2
304,303,303,310,2
305,301,303,311,2
307,297,304,312,2
308,293,305,312,2
309,290,305,311,2
309,288,305,309,2
309,287,305,308,2
309,289,305,307,2
308,290,305,306,2
307,291,305,306,2
306,291,305,306,2
306,290,306,307,2
306,287,308,308,2
306,284,308,309,2
306,284,309,310,2
306,288,309,310,2
304,297,308,310,2
303,306,308,310,2
302,312,308,310,2
302,317,308,310,2
303,320,307,309,2
304,322,307,309,2
305,322,306,309,2
306,322,306,308,2
307,320,306,307,2
308,318,306,307,2
308,313,306,307,2
307,310,305,306,2
306,309,304,304,2
306,307,303,302,2
305,307,302,301,2
306,309,302,301,2
306,310,302,301,2
306,311,302,302,2
306,313,302,302,2
306,315,303,303,2
305,317,303,304,2
306,317,303,307,2
306,317,304,310,2
305,314,304,312,2
304,310,305,313,2
304,302,305,313,2
304,294,305,313,2
306,286,305,312,2
307,279,305,311,2
308,273,306,310,2
310,268,308,309,2
310,268,308,309,2
311,275,308,309,2
309,287,306,308,2
308,299,305,308,2
306,308,304,307,2
303,313,303,306,2
301,317,302,304,2
299,319,302,303,2
299,322,301,303,2
299,324,302,303,2
300,326,302,304,2
301,326,303,305,2
302,322,303,307,2
303,317,304,308,2
304,310,305,308,2
305,303,306,309,2
306,298,306,309,2
307,295,306,309,2
307,296,305,308,2
307,304,304,308,2
306,317,303,307,2
305,326,301,307,2
303,329,300,305,2
302,325,299,303,2
301,317,298,303,2
301,308,299,302,2
300,300,299,302,2
300,294,300,303,2
300,291,302,304,2
300,290,303,305,2
300,288,304,305,2
301,287,305,306,2
302,285,306,308,2
304,284,308,310,2
306,282,309,313,2
307,281,312,317,2
308,281,313,320,2
309,284,313,320,2
309,289,312,317,2
308,297,310,314,2
307,304,308,310,2
306,310,306,308,2
306,313,305,306,2
306,314,304,306,2
306,314,304,305,2
306,314,303,304,2
305,317,302,303,2
304,321,300,302,2
303,325,298,302,2
302,328,297,303,2
301,330,297,303,2
302,331,298,304,2
302,329,300,305,2
303,326,303,307,2
304,320,305,307,2
305,312,307,308,2
305,306,309,308,2
305,302,310,309,2
305,298,310,310,2
305,295,310,311,2
305,295,310,312,2
304,295,309,312,2
304,296,308,313,2
303,297,307,313,2
303,297,307,313,2
303,294,306,313,2
304,290,306,313,2
305,286,306,313,2
306,282,306,313,2
307,278,306,313,2
308,275,306,313,2
309,273,305,312,2
309,275,304,312,2
308,277,304,312,2
308,279,304,312,2
308,284,304,311,2
307,293,304,311,2
307,303,304,311,2
306,312,305,311,2
305,319,306,310,2
305,327,307,309,2
305,334,307,309,2
305,338,307,309,2
304,341,306,308,2
304,345,306,309,2
304,349,305,310,2
304,353,305,312,2
305,353,305,313,2
306,349,306,314,2
307,339,305,315,2
308,329,306,315,2
309,319,306,316,2
310,307,307,315,2
311,296,307,314,2
312,289,307,313,2
313,285,308,313,2
315,286,308,313,2
315,291,307,311,2
313,297,306,311,2
311,305,306,312,2
310,313,306,312,2
308,316,305,312,2
308,315,305,311,2
308,312,306,310,2
308,309,306,308,2
309,308,307,307,2
309,310,308,307,2
310,313,309,307,2
309,316,309,308,2
307,319,308,309,2
306,320,307,310,2
304,319,306,310,2
303,316,304,310,2
303,313,303,310,2
303,310,303,309,2
303,309,302,307,2
303,307,302,306,2
302,306,302,305,2
302,305,302,305,2
302,304,302,306,2
302,304,303,308,2
303,304,305,310,2
304,301,307,312,2
306,295,309,313,2
308,288,310,314,2
310,280,311,315,2
312,273,311,315,2
314,267,311,315,2
315,265,311,314,2
315,269,310,313,2
313,281,308,312,2
311,298,306,312,2
308,314,304,312,2
307,326,303,312,2
307,333,303,313,2
306,335,303,313,2
306,332,303,313,2
306,327,302,313,2
306,321,302,312,2
306,317,301,310,2
307,313,301,308,2
308,311,300,306,2
308,312,300,304,2
308,313,300,304,2
309,315,303,305,2
310,316,305,306,2
309,317,307,307,2
309,316,308,307,2
307,312,308,307,2
307,308,308,306,2
307,305,308,307,2
308,302,308,307,2
309,299,309,307,2
309,296,309,306,2
309,296,309,305,2
310,296,309,304,2
311,298,309,303,2
311,299,310,302,2
311,300,309,300,2
311,302,309,299,2
311,307,308,298,2
311,314,308,298,2
310,321,308,300,2
309,328,308,304,2
309,333,309,307,2
309,335,310,310,2
308,332,310,312,2
307,325,310,312,2
307,316,310,311,2
307,308,310,310,2
308,300,311,308,2
308,294,311,308,2
309,289,311,309,2
309,287,312,311,2
310,287,312,312,2
310,290,312,312,2
310,293,311,310,2
309,296,310,308,2
307,298,308,305,2
306,298,306,302,2
305,299,304,300,2
304,300,302,298,2
302,304,301,299,2
302,309,302,302,2
302,312,304,304,2
303,312,305,306,2
304,308,307,307,2
305,303,309,309,2
306,298,310,309,2
307,293,312,309,2
307,290,313,309,2
307,291,314,310,2
308,295,315,310,2
309,300,314,311,2
310,305,313,312,2
310,312,313,313,2
311,319,313,315,2
311,325,313,316,2
310,329,313,316,2
308,332,312,316,2
305,331,311,315,2
303,327,311,313,2
302,322,311,312,2
302,321,311,313,2
302,320,311,313,2
302,319,311,313,2
302,318,311,313,2
303,315,311,312,2
303,312,310,312,2
303,310,310,312,2
303,307,310,311,2
304,305,309,310,2
303,303,310,310,2
304,301,310,311,2
304,299,311,312,2
305,297,311,314,2
306,297,312,316,2
306,297,313,318,2
307,300,313,318,2
307,305,312,316,2
308,309,310,313,2
308,312,309,310,2
307,313,308,308,2
307,314,308,308,2
307,316,309,309,2
306,316,310,310,2
304,316,310,311,2
303,315,310,311,2
303,313,310,311,2
303,312,310,310,2
303,311,310,309,2
303,309,310,308,2
304,308,310,308,2
305,305,310,307,2
305,304,309,307,2
306,302,309,307,2
307,302,308,307,2
307,302,309,307,2
307,303,310,307,2
307,304,310,308,2
307,309,310,309,2
308,313,309,311,2
308,315,310,311,2
309,313,310,309,2
308,308,309,307,2
309,300,308,304,2
309,291,308,303,2
310,283,309,303,2
312,277,310,303,2
313,270,310,303,2
314,267,310,302,2
314,268,310,302,2
314,275,310,301,2
313,284,310,303,2
312,293,310,305,2
311,302,310,307,2
309,308,309,309,2
308,310,309,310,2
307,309,308,310,2
306,308,307,309,2
306,308,307,308,2
305,312,307,306,2
305,316,307,305,2
305,321,306,304,2
306,323,306,302,2
306,323,305,300,2
307,320,305,300,2
308,317,306,300,2
309,313,306,300,2
309,311,307,300,2
310,310,307,302,2
310,311,309,303,2
309,314,309,304,2
308,317,310,306,2
307,318,310,309,2
306,317,309,311,2
306,315,309,314,2
305,312,310,316,2
306,309,310,318,2
306,307,310,318,2
307,304,310,318,2
306,301,309,316,2
305,298,308,312,2
303,295,307,308,2
301,294,306,305,2
301,294,305,303,2
300,295,305,301,2
300,297,305,301,2
301,300,306,301,2
301,303,306,301,2
301,306,306,302,2
301,308,306,303,2
302,310,307,304,2
303,313,308,305,2
304,315,309,306,2
306,317,311,307,2
308,320,312,307,2
309,322,312,307,2
310,322,311,306,2
309,319,311,306,2
309,317,311,306,2
309,315,310,305,2
309,313,310,306,2
309,311,310,307,2
309,309,310,309,2
309,305,310,310,2
309,301,310,311,2
311,296,310,312,2
312,291,311,313,2
314,288,312,313,2
315,285,312,313,2
315,284,312,313,2
315,287,311,312,2
314,291,311,311,2
313,295,311,311,2
313,298,310,310,2
313,301,309,309,2
312,304,308,308,2
311,306,308,307,2
310,309,307,307,2
309,312,307,307,2
308,313,307,308,2
308,312,306,307,2
309,309,306,306,2
309,303,306,306,2
309,296,307,306,2
309,288,307,305,2
308,279,307,303,2
307,273,308,301,2
306,271,309,300,2
307,275,309,299,2
307,280,310,299,2
308,286,311,299,2
310,292,312,301,2
311,300,314,304,2
311,307,315,305,2
311,312,315,305,2
310,314,315,305,2
309,316,315,304,2
308,319,315,304,2
308,319,314,304,2
307,316,313,304,2
306,312,312,304,2
306,311,310,304,2
306,312,309,304,2
306,315,308,304,2
305,318,306,303,2
304,321,306,304,2
303,323,306,306,2
304,324,307,309,2
305,323,308,312,2
306,320,308,313,2
307,318,309,313,2
309,316,309,313,2
310,315,309,312,2
310,316,309,310,2
310,315,308,308,2
311,312,308,306,2
311,307,308,305,2
311,299,308,303,2
311,290,309,302,2
311,285,309,303,2
311,286,310,303,2
310,293,310,304,2
309,303,309,304,2
307,311,309,304,2
306,315,308,303,2
306,317,307,302,2
306,317,307,301,2
306,317,308,301,2
307,319,309,302,2
308,322,309,303,2
308,326,309,303,2
306,326,307,301,2
304,321,307,300,2
303,318,306,299,2
303,322,307,300,2
303,328,308,302,2
304,330,309,305,2
304,328,309,306,2
303,323,309,307,2
302,319,307,307,2
301,315,306,308,2
300,313,306,308,2
300,312,306,309,2
300,310,306,309,2
301,306,307,308,2
302,302,307,307,2
304,297,308,306,2
305,292,310,306,2
306,289,311,306,2
307,289,312,307,2
308,291,313,308,2
308,297,312,309,2
308,304,312,310,2
308,309,312,309,2
309,312,313,309,2
309,311,313,308,2
310,308,313,307,2
310,306,313,306,2
311,304,312,305,2
311,303,311,305,2
310,302,310,305,2
310,302,309,305,2
309,302,309,304,2
307,304,308,305,2
305,307,309,305,2
304,306,309,306,2
303,301,308,306,2
303,293,308,305,2
302,283,308,304,2
302,272,307,302,2
302,266,306,301,2
301,266,306,301,2
301,274,305,301,2
300,286,304,302,2
300,300,304,303,2
299,313,304,303,2
298,325,304,303,2
298,333,304,303,2
298,338,304,303,2
298,339,305,303,2
299,338,306,304,2
301,337,307,305,2
302,335,307,306,2
303,333,307,306,2
304,331,308,307,2
305,327,308,308,2
306,324,308,309,2
305,320,308,308,2
303,317,306,306,2
301,315,306,303,2
299,313,305,302,2
299,310,305,300,2
299,307,304,299,2
299,305,304,299,2
299,304,304,298,2
299,303,304,296,2
299,302,304,295,2
299,302,305,295,2
300,301,305,297,2
301,298,305,298,2
302,295,305,299,2
303,290,305,299,2
303,284,304,297,2
303,281,304,296,2
304,281,304,296,2
304,285,305,296,2
305,290,305,296,2
305,295,306,296,2
306,299,307,296,2
307,303,307,297,2
307,304,309,298,2
308,304,310,299,2
308,302,310,301,2
309,302,310,303,2
308,302,310,304,2
307,303,309,304,2
306,304,309,305,2
306,304,308,305,2
305,305,308,304,2
304,309,307,303,2
303,315,306,301,2
302,322,305,299,2
302,326,304,298,2
302,327,304,298,2
303,325,304,299,2
303,321,304,300,2
304,316,304,300,2
304,309,303,300,2
304,302,304,301,2
305,298,304,302,2
306,298,305,303,2
307,300,305,304,2
307,305,306,304,2
307,309,306,304,2
306,313,305,305,2
305,316,304,306,2
304,317,304,307,2
304,317,305,308,2
304,316,307,309,2
304,315,308,309,2
304,313,308,309,2
304,311,308,308,2
304,308,308,306,2
304,305,308,305,2
305,304,307,304,2
305,306,306,305,2
305,311,305,306,2
306,315,305,307,2
305,316,304,307,2
305,315,304,307,2
305,315,304,306,2
304,315,304,306,2
305,313,305,308,2
305,312,307,309,2
305,311,307,310,2
306,312,307,310,2
306,312,306,308,2
306,312,305,307,2
306,311,304,304,2
306,311,304,300,2
306,311,303,298,2
307,310,304,296,2
307,310,305,295,2
307,310,307,296,2
307,311,309,297,2
307,315,311,300,2
306,322,311,301,2
305,326,311,302,2
305,325,311,303,2
305,319,311,304,2
306,310,310,306,2
307,302,311,306,2
307,296,311,306,2
307,294,310,305,2
307,295,309,304,2
307,297,309,302,2
306,299,308,302,2
307,296,309,302,2
308,290,309,303,2
309,283,309,304,2
309,275,310,305,2
309,271,310,305,2
308,271,309,305,2
307,276,309,306,2
306,288,307,306,2
304,303,306,307,2
302,316,305,307,2
301,325,305,308,2
301,329,305,308,2
302,330,305,307,2
304,326,305,307,2
304,320,305,306,2
304,311,303,305,2
304,303,301,304,2
302,296,301,303,2
302,291,300,302,2
301,291,300,301,2
301,296,301,301,2
302,305,300,301,2
301,314,301,301,2
301,322,302,302,2
301,328,303,305,2
301,332,304,306,2
302,332,304,308,2
302,328,305,308,2
303,323,305,308,2
303,318,304,308,2
304,312,303,307,2
304,308,303,306,2
304,303,302,305,2
304,301,303,304,2
304,297,303,303,2
304,295,304,303,2
304,295,305,304,2
304,299,306,306,2
305,305,307,308,2
306,311,307,310,2
306,315,307,310,2
306,317,307,309,2
306,316,306,308,2
307,315,306,307,2
308,315,306,307,2
309,315,305,308,2
308,315,305,308,2
307,316,305,306,2
305,317,304,305,2
304,316,303,303,2
303,313,302,302,2
302,309,302,300,2
302,305,302,301,2
303,304,302,302,2
304,304,303,303,2
304,305,304,304,2
305,307,305,305,2
305,308,305,305,2
305,308,305,306,2
305,308,306,307,2
306,307,305,307,2
306,307,305,307,2
307,307,306,307,2
308,306,306,306,2
308,306,306,306,2
308,304,306,306,2
308,301,305,306,2
309,298,305,305,2
309,296,304,304,2
309,293,303,303,2
309,293,303,303,2
309,296,304,303,2
308,300,304,302,2
307,304,305,302,2
306,307,305,303,2
305,307,306,303,2
305,304,306,304,2
306,299,307,305,2
307,293,307,306,2
307,288,308,307,2
308,283,308,306,2
308,278,308,305,2
308,277,309,304,2
309,280,309,303,2
310,286,310,304,2
311,293,310,305,2
312,301,309,307,2
312,310,309,308,2
312,318,308,309,2
312,321,308,310,2
311,319,307,311,2
309,317,307,311,2
308,318,307,311,2
306,321,306,311,2
304,321,305,309,2
303,317,304,307,2
302,311,303,306,2
302,305,303,306,2
303,301,303,306,2
304,298,303,306,2
305,296,303,306,2
305,297,303,306,2
305,299,304,307,2
305,301,304,307,2
306,303,304,307,2
306,305,305,307,2
305,307,304,306,2
305,309,304,306,2
305,310,304,306,2
304,311,304,307,2
304,310,304,308,2
304,309,305,310,2
305,307,307,312,2
306,307,309,313,2
307,307,310,314,2
306,309,310,313,2
305,314,310,311,2
304,319,309,310,2
303,322,309,310,2
303,325,309,311,2
304,327,309,313,2
304,328,309,314,2
304,327,308,313,2
302,324,307,312,2
301,321,306,309,2
301,317,306,307,2
301,315,305,304,2
302,314,305,304,2
302,314,305,305,2
303,314,305,307,2
304,314,306,308,2
306,314,306,310,2
307,314,306,311,2
308,312,305,311,2
308,311,305,310,2
309,310,306,310,2
310,311,307,310,2
311,312,308,310,2
311,310,309,311,2
310,306,309,310,2
309,300,309,310,2
307,294,309,309,2
306,290,310,309,2
306,286,310,309,2
306,284,309,307,2
306,285,309,307,2
306,289,308,306,2
307,295,308,307,2
306,302,308,307,2
305,310,308,307,2
305,315,309,308,2
305,317,309,308,2
305,316,309,309,2
305,311,308,309,2
306,304,308,309,2
307,297,307,310,2
308,292,307,311,2
309,290,306,312,2
309,291,305,311,2
308,296,303,310,2
307,301,303,308,2
306,304,302,305,2
305,306,303,302,2
305,306,304,301,2
306,305,306,301,2
306,304,308,303,2
305,307,309,305,2
304,313,309,306,2
303,318,309,307,2
302,322,308,307,2
300,325,308,308,2
300,327,308,310,2
300,328,309,311,2
300,328,309,312,2
301,327,309,312,2
303,326,310,312,2
304,325,310,313,2
306,322,311,313,2
306,317,312,313,2
306,311,312,313,2
304,304,311,311,2
303,299,310,309,2
302,298,311,309,2
302,299,311,310,2
304,301,312,312,2
305,302,312,312,2
306,303,311,311,2
307,302,310,309,2
307,298,309,307,2
307,293,308,306,2
307,289,307,304,2
306,288,306,302,2
306,293,306,302,2
306,302,305,303,2
306,313,305,304,2
306,321,305,303,2
306,322,305,302,2
305,317,305,302,2
305,307,304,303,2
306,297,304,305,2
306,288,305,307,2
307,283,305,310,2
308,282,306,311,2
309,286,307,312,2
310,293,308,311,2
309,302,308,310,2
308,308,308,308,2
307,312,306,307,2
306,316,305,306,2
306,320,304,304,2
306,325,303,303,2
305,328,302,301,2
304,330,302,299,2
303,329,303,299,2
303,325,304,301,2
303,321,305,304,2
305,314,307,307,2
306,308,307,310,2
307,303,308,313,2
307,299,307,312,2
306,300,306,310,2
306,302,305,308,2
306,306,304,307,2
305,310,303,306,2
304,314,303,306,2
304,318,303,307,2
303,318,304,308,2
302,319,304,309,2
301,318,305,309,2
301,317,305,309,2
301,315,305,308,2
301,312,305,308,2
302,310,305,308,2
303,307,305,309,2
306,304,305,310,2
308,302,305,310,2
310,300,305,310,2
310,298,305,310,2
309,290,305,308,2
310,278,305,307,2
310,268,305,307,2
310,262,305,306,2
310,263,304,306,2
310,271,304,306,2
309,287,304,306,2
307,304,302,307,2
304,319,301,306,2
302,329,300,306,2
300,336,300,306,2
299,338,300,306,2
298,337,300,306,2
298,334,302,306,2
299,327,303,307,2
300,319,305,307,2
301,310,306,308,2
303,303,308,309,2
304,299,309,309,2
306,299,309,311,2
307,304,309,312,2
308,310,308,313,2
308,318,307,314,2
308,323,307,315,2
308,324,307,315,2
309,321,307,313,2
309,315,307,310,2
309,310,307,308,2
308,305,307,308,2
308,299,306,307,2
308,292,306,307,2
308,286,306,307,2
307,282,306,307,2
308,282,307,306,2
308,287,306,305,2
308,294,306,305,2
308,302,306,305,2
307,308,306,306,2
307,311,306,308,2
307,312,305,308,2
307,310,304,309,2
308,309,304,309,2
308,312,304,309,2
308,316,303,309,2
307,323,302,309,2
306,328,300,307,2
305,329,298,306,2
304,324,297,304,2
304,315,297,303,2
305,305,297,302,2
306,296,298,302,2
306,290,298,301,2
305,286,298,300,2
305,286,299,300,2
304,289,300,299,2
304,294,302,299,2
303,299,304,300,2
304,304,306,302,2
304,308,308,304,2
305,313,310,306,2
305,317,311,308,2
305,321,312,311,2
305,323,312,314,2
306,325,313,317,2
306,325,313,319,2
306,322,313,321,2
307,317,312,321,2
306,310,311,319,2
306,301,311,316,2
305,292,310,313,2
306,285,310,311,2
305,280,310,310,2
305,279,311,310,2
304,282,312,310,2
305,289,313,311,2
305,300,313,311,2
305,312,312,311,2
305,321,311,311,2
305,326,310,310,2
304,328,309,310,2
304,328,308,310,2
305,326,307,310,2
305,323,307,310,2
306,319,308,311,2
307,313,309,311,2
308,304,310,310,2
308,294,310,309,2
309,285,310,307,2
309,281,309,307,2
309,280,309,306,2
309,284,309,306,2
308,289,309,306,2
307,295,309,306,2
307,302,309,307,2
307,310,310,307,2
307,316,310,307,2
307,321,310,308,2
305,325,310,309,2
305,326,310,311,2
304,325,309,312,2
304,320,309,314,2
303,311,309,314,2
304,300,309,313,2
304,290,309,311,2
305,283,309,310,2
306,278,309,309,2
308,278,309,308,2
309,285,309,308,2
309,297,309,310,2
310,312,310,311,2
310,322,311,310,2
309,325,311,310,2
309,326,311,310,2
309,328,312,311,2
309,332,313,311,2
308,336,314,312,2
308,338,314,312,2
307,339,314,313,2
307,338,313,314,2
306,335,313,313,2
304,332,313,312,2
302,329,312,311,2
301,326,312,311,2
301,324,312,311,2
302,321,312,312,2
303,318,311,312,2
304,314,311,310,2
305,309,310,310,2
305,304,310,310,2
306,300,310,312,2
306,296,309,313,2
307,293,309,314,2
307,293,310,315,2
308,294,310,316,2
308,295,311,317,2
308,292,311,318,2
308,287,311,318,2
308,282,312,317,2
308,279,312,315,2
307,278,312,313,2
307,280,312,311,2
305,286,311,310,2
304,296,309,310,2
301,307,307,310,2
299,319,304,309,2
296,330,302,308,2
293,338,301,306,2
291,342,300,304,2
290,343,300,304,2
291,343,301,304,2
291,338,302,304,2
292,333,303,303,2
293,327,305,304,2
295,319,307,304,2
297,311,308,306,2
299,305,310,308,2
300,301,311,310,2
301,301,311,312,2
300,304,311,314,2
300,310,311,314,2
299,314,311,313,2
298,316,310,312,2
299,314,309,311,2
300,310,310,311,2
303,305,310,311,2
304,304,310,311,2
306,305,310,311,2
307,311,310,311,2
306,319,309,311,2
305,326,307,310,2
304,329,307,309,2
303,329,306,308,2
303,326,307,307,2
303,323,306,307,2
302,320,306,306,2
302,318,306,305,2
302,317,305,306,2
303,315,306,307,2
303,315,307,309,2
304,314,309,311,2
305,313,311,313,2
305,311,311,315,2
305,312,311,316,2
304,315,312,317,2
304,319,312,316,2
303,322,311,314,2
302,324,310,312,2
302,324,309,310,2
302,322,309,308,2
303,320,309,307,2
304,317,309,307,2
305,312,310,308,2
305,308,311,309,2
305,304,311,310,2
304,299,312,310,2
303,295,312,310,2
302,294,312,310,2
300,296,312,309,2
299,297,311,308,2
298,298,311,307,2
298,300,311,307,2
297,301,311,308,2
297,297,312,308,2
296,290,312,308,2
297,283,312,309,2
298,277,312,308,2
299,276,312,307,2
299,277,313,307,2
300,281,313,306,2
300,289,313,304,2
300,298,313,303,2
300,306,311,301,2
299,314,310,300,2
299,319,309,299,2
299,324,308,298,2
299,327,307,297,2
298,330,307,298,2
298,331,307,300,2
299,330,308,303,2
300,328,308,306,2
301,325,309,309,2
302,320,310,311,2
302,314,311,311,2
303,308,312,311,2
304,301,313,311,2
305,295,314,311,2
306,289,315,310,2
307,285,315,310,2
306,283,315,309,2
304,282,314,307,2
303,283,314,307,2
303,286,314,307,2
303,293,314,308,2
303,303,314,310,2
304,314,314,312,2
304,321,315,314,2
304,326,315,314,2
305,328,315,313,2
305,328,315,311,2
305,328,314,310,2
305,325,314,309,2
305,321,313,309,2
306,314,312,307,2
308,304,310,305,2
308,291,308,302,2
309,278,307,300,2
310,268,307,299,2
311,262,308,297,2
311,264,309,297,2
312,274,311,298,2
311,290,312,300,2
309,309,312,303,2
306,324,311,304,2
304,332,311,306,2
302,336,312,309,2
302,337,313,312,2
302,335,316,315,2
303,330,317,317,2
302,326,316,317,2
301,322,315,314,2
300,318,314,310,2
300,314,313,308,2
301,308,313,306,2
302,300,313,306,2
303,289,313,306,2
305,277,313,305,2
306,267,312,305,2
307,260,312,306,2
308,257,312,307,2
309,263,312,308,2
310,274,311,310,2
310,287,310,311,2
309,298,309,312,2
308,307,307,313,2
307,313,306,314,2
306,318,306,314,2
305,325,306,315,2
304,332,306,315,2
304,338,305,314,2
303,343,304,313,2
303,344,304,312,2
302,340,304,310,2
302,333,303,308,2
302,325,302,306,2
302,319,303,304,2
303,315,302,303,2
304,312,302,303,2
306,310,302,303,2
307,307,302,302,2
308,305,302,301,2
309,305,302,300,2
309,305,302,301,2
310,306,304,302,2
311,308,305,304,2
313,310,306,306,2
314,312,307,308,2
314,312,308,308,2
314,311,309,307,2
313,309,309,305,2
311,305,309,304,2
309,301,309,304,2
309,297,310,305,2
308,293,310,305,2
308,289,309,303,2
308,286,309,301,2
308,281,309,299,2
309,271,310,298,2
310,258,310,297,2
312,245,311,297,2
314,234,313,297,2
316,227,313,298,2
317,223,313,299,2
318,228,312,300,2
317,250,311,300,2
315,282,309,301,2
312,309,308,303,2
309,326,307,304,2
306,332,305,304,2
304,330,304,304,2
303,326,304,303,2
303,322,304,303,2
303,321,305,304,2
303,322,306,305,2
304,323,306,306,2
304,324,307,306,2
304,325,306,305,2
304,328,307,304,2
304,333,306,304,2
303,340,306,303,2
303,346,305,304,2
304,349,305,304,2
304,348,305,305,2
306,342,305,307,2
308,332,306,310,2
309,321,306,314,2
310,312,307,318,2
311,305,308,321,2
311,300,308,321,2
310,298,307,320,2
308,296,307,319,2
308,293,306,317,2
308,288,306,315,2
308,284,305,312,2
309,284,305,309,2
308,287,304,308,2
308,293,304,307,2
307,302,304,308,2
306,313,303,307,2
305,322,302,307,2
305,328,303,306,2
304,331,304,306,2
304,331,305,307,2
305,326,307,308,2
306,316,309,309,2
306,303,310,309,2
307,289,310,310,2
308,278,310,311,2
309,270,310,311,2
310,269,309,311,2
310,277,307,310,2
309,289,305,310,2
307,299,304,309,2
307,302,303,308,2
307,300,302,307,2
308,293,302,306,2
308,286,303,305,2
309,281,303,304,2
309,279,302,304,2
308,285,301,304,2
307,299,299,305,2
306,317,298,307,2
306,331,296,307,2
306,332,294,305,2
306,320,292,303,2
307,299,291,300,2
307,277,292,299,2
307,264,296,300,2
305,263,300,301,2
303,272,304,303,2
301,284,308,304,2
300,299,309,304,2
299,315,309,304,2
300,328,308,304,2
300,336,305,304,2
301,340,303,304,2
301,340,302,305,2
302,337,302,305,2
303,333,303,306,2
304,330,304,306,2
305,328,304,306,2
306,326,304,305,2
306,324,305,305,2
307,319,307,305,2
307,310,310,307,2
308,300,313,310,2
308,291,315,313,2
308,284,317,315,2
308,281,317,315,2
308,282,318,316,2
308,288,318,316,2
307,298,317,315,2
305,307,316,313,2
304,315,314,312,2
304,320,314,312,2
305,323,313,312,2
307,321,312,312,2
309,314,312,312,2
312,302,311,311,2
315,289,311,310,2
316,281,311,310,2
317,278,311,309,2
317,279,310,308,2
317,287,310,307,2
316,301,310,307,2
314,318,309,309,2
312,334,309,311,2
310,343,308,312,2
307,344,307,312,2
306,340,306,311,2
305,334,305,311,2
305,329,305,310,2
306,325,305,309,2
306,320,304,309,2
307,316,304,309,2
307,313,304,309,2
307,311,304,309,2
306,307,303,309,2
305,304,302,307,2
304,304,300,306,2
303,307,299,305,2
303,312,299,305,2
303,314,300,305,2
303,313,302,306,2
304,307,304,307,2
305,300,306,307,2
306,293,308,308,2
307,287,310,309,2
309,286,311,310,2
311,289,312,309,2
312,295,312,309,2
312,304,311,309,2
311,307,309,308,2
310,303,306,307,2
309,293,304,306,2
309,279,303,306,2
309,265,303,305,2
309,258,303,304,2
310,259,304,303,2
309,271,304,303,2
308,288,303,303,2
306,302,303,303,2
304,313,303,303,2
303,323,303,303,2
302,332,303,304,2
303,341,303,305,2
304,350,303,308,2
305,356,303,310,2
306,355,303,312,2
307,350,303,314,2
308,345,303,316,2
309,341,303,316,2
309,337,302,315,2
308,331,301,314,2
308,322,300,312,2
307,311,300,311,2
307,301,300,309,2
305,292,300,307,2
304,286,300,306,2
303,283,300,305,2
303,282,301,304,2
303,283,301,304,2
302,287,301,305,2
301,294,302,308,2
302,300,303,311,2
303,304,304,314,2
305,304,305,315,2
306,301,305,314,2
307,299,305,313,2
308,300,305,312,2
308,302,305,311,2
309,303,305,311,2
310,304,306,311,2
311,305,307,312,2
314,305,309,313,2
316,305,311,314,2
317,307,312,313,2
316,310,311,312,2
315,315,310,311,2
313,320,307,309,2
311,325,305,307,2
309,329,303,305,2
307,331,302,304,2
305,330,301,303,2
305,326,301,301,2
305,319,301,301,2
306,315,301,301,2
307,314,301,302,2
308,315,300,303,2
307,317,300,304,2
307,320,299,306,2
305,322,299,308,2
304,320,300,308,2
302,315,300,308,2
301,312,301,308,2
300,310,303,310,2
300,309,304,312,2
301,309,305,315,2
302,311,305,316,2
302,313,305,316,2
303,315,304,314,2
303,317,303,312,2
304,318,304,310,2
305,316,303,308,2
305,314,303,307,2
306,311,302,306,2
306,309,302,305,2
308,308,302,305,2
309,307,302,303,2
308,306,301,302,2
307,305,301,301,2
307,304,301,300,2
306,305,301,300,2
306,305,302,300,2
306,306,302,301,2
307,305,303,301,2
309,305,303,302,2
309,304,303,303,2
309,304,304,304,2
309,301,305,305,2
309,297,306,305,2
309,294,306,306,2
310,291,306,306,2
309,291,306,305,2
309,291,306,305,2
309,293,306,305,2
309,296,305,305,2
308,299,305,304,2
307,303,305,304,2
306,306,305,304,2
306,308,306,305,2
305,310,307,307,2
304,311,307,308,2
303,310,307,307,2
301,309,306,305,2
300,308,305,303,2
299,309,303,301,2
299,311,301,299,2
299,313,299,297,2
299,316,298,296,2
300,319,298,295,2
301,321,299,294,2
302,323,300,294,2
304,325,302,295,2
304,325,303,297,2
304,323,304,301,2
304,320,305,303,2
304,315,307,305,2
304,307,309,306,2
305,299,311,307,2
305,294,312,308,2
307,291,312,309,2
308,290,312,310,2
310,292,312,310,2
310,297,312,310,2
308,304,310,310,2
307,310,309,310,2
305,314,309,310,2
304,315,308,309,2
303,314,308,308,2
304,311,308,306,2
304,307,308,304,2
305,303,309,304,2
307,301,309,304,2
308,302,308,305,2
307,304,307,305,2
306,304,307,305,2
306,304,306,305,2
306,306,306,306,2
307,307,305,307,2
306,304,305,307,2
306,294,306,306,2
305,280,307,305,2
305,263,308,305,2
306,247,309,304,2
307,231,309,303,2
308,220,310,301,2
308,220,309,299,2
306,234,307,297,2
304,259,305,297,2
302,288,304,297,2
301,316,303,298,2
300,337,301,298,2
298,352,300,298,2
298,363,300,300,2
298,369,301,302,2
298,372,302,305,2
299,370,302,306,2
298,365,301,307,2
298,358,301,307,2
298,352,300,306,2
298,346,299,305,2
299,338,298,304,2
299,330,299,303,2
300,321,301,303,2
302,312,304,303,2
303,302,307,303,2
305,293,310,305,2
307,289,313,307,2
307,289,314,308,2
306,292,315,309,2
305,298,314,310,2
304,305,313,310,2
304,314,313,311,2
303,322,313,312,2
303,329,313,312,2
304,333,312,312,2
305,335,311,311,2
306,335,310,309,2
308,333,309,308,2
310,326,308,308,2
311,315,309,308,2
312,299,309,307,2
312,282,310,307,2
311,270,311,307,2
310,263,312,305,2
308,264,312,304,2
307,275,313,304,2
306,294,313,304,2
305,313,313,306,2
305,330,313,309,2
305,341,312,309,2
304,348,311,309,2
303,351,309,307,2
302,350,308,305,2
302,346,308,305,2
302,340,308,305,2
303,333,308,306,2
304,326,309,307,2
305,317,309,307,2
305,308,309,308,2
307,300,309,308,2
309,293,311,308,2
311,290,312,309,2
313,289,313,309,2
314,291,313,308,2
314,292,312,307,2
314,289,312,305,2
314,285,311,304,2
313,286,310,302,2
311,289,309,302,2
310,295,308,303,2
308,303,308,305,2
307,314,307,308,2
306,325,307,310,2
306,333,308,310,2
306,338,308,310,2
306,339,308,309,2
305,336,307,308,2
304,330,307,307,2
303,323,307,305,2
302,314,307,303,2
301,304,306,301,2
300,293,305,300,2
300,284,305,299,2
300,276,305,299,2
301,271,304,299,2
302,269,304,301,2
304,271,304,302,2
306,278,304,304,2
309,288,304,306,2
310,299,304,307,2
310,312,302,305,2
308,324,301,305,2
307,333,300,305,2
306,335,299,305,2
306,330,299,304,2
305,321,299,302,2
305,311,300,300,2
306,300,302,298,2
308,289,304,299,2
310,281,306,300,2
311,278,307,302,2
311,281,308,304,2
310,290,308,306,2
309,305,308,308,2
308,319,308,311,2
306,325,308,313,2
305,321,308,315,2
304,313,308,316,2
304,308,308,316,2
305,306,308,315,2
305,305,309,313,2
305,305,308,312,2
305,303,307,311,2
306,300,307,309,2
307,294,307,308,2
308,287,308,307,2
308,280,309,306,2
308,277,309,306,2
307,279,308,305,2
307,284,306,305,2
306,292,305,305,2
306,303,304,306,2
307,312,304,306,2
307,318,304,306,2
308,321,305,306,2
310,321,306,305,2
311,317,307,304,2
311,309,307,304,2
311,300,308,304,2
311,293,308,305,2
311,292,309,305,2
310,295,308,305,2
309,298,307,305,2
308,297,305,304,2
307,293,305,303,2
306,287,305,303,2
306,282,305,302,2
305,275,305,302,2
306,266,305,302,2
307,257,305,302,2
308,247,306,302,2
309,241,306,302,2
308,241,306,301,2
307,250,306,301,2
305,270,305,300,2
303,295,304,299,2
302,317,303,299,2
302,330,301,299,2
303,336,300,299,2
303,336,299,301,2
304,334,299,303,2
305,329,300,304,2
306,317,301,306,2
308,295,303,308,2
310,268,305,310,2
312,244,307,311,2
312,230,308,309,2
311,233,309,307,2
310,257,308,306,2
307,300,306,306,2
305,347,303,306,2
304,382,302,307,2
304,393,300,305,2
305,382,299,302,2
307,361,299,299,2
310,338,300,298,2
312,317,301,297,2
314,298,302,297,2
314,283,303,297,2
312,277,303,298,2
310,282,304,299,2
307,292,304,301,2
306,302,305,304,2
305,315,306,305,2
304,330,307,307,2
304,339,307,307,2
304,335,308,308,2
305,318,309,309,2
307,293,311,309,2
309,263,313,308,2
311,237,313,307,2
312,219,314,306,2
313,212,313,306,2
311,215,312,305,2
308,226,309,304,2
306,242,308,303,2
304,257,306,303,2
304,276,305,303,2
303,300,303,303,2
301,325,302,303,2
301,337,301,303,2
302,333,301,303,2
305,316,302,303,2
308,290,303,303,2
311,260,305,303,2
314,241,307,303,2
315,238,307,303,2
315,249,306,304,2
314,264,305,305,2
311,279,304,306,2
307,293,303,307,2
305,301,302,306,2
305,296,302,304,2
307,287,303,303,2
310,279,304,303,2
313,275,306,305,2
316,285,307,307,2
317,307,309,309,2
316,328,309,309,2
314,336,308,308,2
313,337,307,308,2
312,347,305,308,2
310,361,302,308,2
308,371,297,307,2
305,372,292,304,2
302,363,287,300,2
298,345,283,294,2
294,324,282,289,2
292,303,282,287,2
292,292,285,290,2
294,294,290,296,2
297,305,296,303,2
300,321,301,309,2
303,334,306,313,2
305,343,309,315,2
308,347,309,314,2
308,348,309,312,2
308,346,307,310,2
308,343,305,308,2
306,338,304,308,2
303,333,305,309,2
299,327,305,310,2
295,319,307,312,2
292,310,309,313,2
292,299,311,315,2
292,287,312,314,2
294,274,311,312,2
298,266,310,308,2
304,267,308,304,2
311,278,306,301,2
315,295,304,299,2
317,312,304,300,2
317,320,303,303,2
316,318,301,304,2
315,307,297,305,2
314,292,290,304,2
313,282,284,303,2
312,281,278,302,2
311,286,275,299,2
311,296,274,298,2
312,311,276,298,2
313,326,281,298,2
315,337,288,299,2
320,344,296,300,2
325,347,303,300,2
328,347,308,300,2
329,345,311,302,2
326,340,313,304,2
322,336,314,307,2
316,332,314,310,2
310,331,313,312,2
305,330,312,313,2
303,326,311,314,2
302,316,310,311,2
301,303,308,308,2
302,289,308,306,2
303,276,308,306,2
304,269,308,306,2
304,271,308,306,2
305,277,307,307,2
305,279,306,307,2
305,276,306,306,2
305,271,305,306,2
305,267,305,306,2
306,263,304,306,2
306,261,304,306,2
306,264,304,305,2
305,270,304,304,2
303,280,304,304,2
302,294,305,305,2
302,312,306,308,2
301,328,307,311,2
301,339,307,313,2
302,345,307,314,2
303,345,307,313,2
304,342,306,312,2
305,341,306,311,2
306,340,305,309,2
305,338,304,306,2
305,334,303,304,2
304,329,302,304,2
304,325,302,305,2
304,320,304,308,2
305,315,305,311,2
305,314,307,314,2
304,317,308,316,2
303,322,308,317,2
302,325,308,316,2
302,325,307,315,2
304,326,305,312,2
307,329,304,311,2
310,333,304,309,2
313,339,304,308,2
314,347,304,308,2
314,349,305,308,2
313,343,305,309,2
312,332,306,310,2
310,318,307,311,2
309,304,307,312,2
307,294,307,311,2
306,291,307,309,2
305,293,307,308,2
304,296,307,306,2
303,298,306,306,2
303,297,306,307,2
303,289,306,309,2
304,277,308,311,2
306,267,309,314,2
307,266,310,315,2
307,277,309,314,2
303,293,307,311,2
299,311,304,309,2
295,327,302,308,2
291,338,300,306,2
288,346,300,307,2
286,352,300,308,2
286,356,301,310,2
287,357,302,311,2
290,356,303,311,2
295,353,304,311,2
300,349,304,309,2
304,342,303,307,2
307,335,301,305,2
309,327,301,304,2
311,319,301,303,2
313,305,302,302,2
314,285,303,301,2
315,261,304,301,2
316,241,306,301,2
317,227,307,302,2
317,223,308,303,2
317,233,308,303,2
316,259,308,305,2
315,291,306,307,2
315,316,305,309,2
315,330,305,310,2
315,333,304,311,2
315,327,304,312,2
315,318,303,312,2
314,309,303,312,2
312,304,302,310,2
308,304,301,306,2
305,308,299,303,2
303,308,298,301,2
303,304,298,300,2
303,296,298,300,2
302,287,298,301,2
301,281,298,302,2
299,279,299,303,2
298,286,299,303,2
295,300,300,303,2
294,315,301,304,2
293,324,303,305,2
293,329,305,307,2
295,329,306,308,2
296,327,305,308,2
297,322,304,309,2
298,322,304,309,2
299,327,304,310,2
300,332,305,310,2
301,337,305,310,2
301,341,306,311,2
302,343,306,312,2
302,341,306,312,2
301,337,305,312,2
301,330,304,310,2
300,322,302,307,2
301,315,301,305,2
302,312,301,304,2
304,309,301,305,2
305,305,301,307,2
306,301,301,308,2
304,296,300,307,2
303,291,300,307,2
303,285,300,308,2
305,283,302,310,2
308,287,304,313,2
312,295,306,314,2
314,305,308,315,2
317,316,309,315,2
318,324,310,314,2
317,329,309,313,2
314,333,309,311,2
311,335,307,311,2
308,336,306,311,2
306,334,306,311,2
305,330,305,311,2
305,322,304,311,2
304,310,304,310,2
304,298,304,308,2
303,289,305,306,2
303,287,304,306,2
303,289,304,307,2
303,292,304,309,2
302,296,303,310,2
302,299,303,310,2
303,302,302,308,2
304,303,302,306,2
307,302,302,304,2
310,298,303,304,2
312,293,304,303,2
314,288,305,303,2
314,289,307,304,2
314,296,308,307,2
313,306,309,309,2
313,315,310,312,2
313,326,311,314,2
312,335,311,316,2
310,340,310,316,2
308,340,309,316,2
307,335,309,316,2
306,327,309,315,2
306,318,309,314,2
307,309,308,311,2
308,299,307,309,2
309,289,307,306,2
310,281,307,305,2
310,276,306,305,2
311,274,306,306,2
311,278,305,307,2
310,284,303,307,2
309,291,301,306,2
308,298,300,306,2
309,305,300,306,2
309,311,302,306,2
309,314,303,307,2
308,314,305,311,2
307,316,306,314,2
305,317,307,317,2
303,318,307,318,2
302,321,306,318,2
300,326,306,317,2
299,329,305,314,2
298,330,305,312,2
298,328,304,309,2
299,323,305,307,2
300,319,305,306,2
301,317,305,305,2
301,321,304,305,2
303,326,304,305,2
304,333,304,306,2
305,337,304,307,2
307,339,305,309,2
308,335,304,310,2
310,331,304,312,2
312,326,304,313,2
312,322,303,313,2
312,317,302,313,2
309,311,301,311,2
305,306,300,309,2
302,302,298,307,2
300,299,297,302,2
299,296,297,297,2
299,295,296,294,2
299,294,297,292,2
299,292,297,293,2
300,291,298,294,2
301,292,300,298,2
302,298,303,301,2
303,307,305,305,2
304,316,307,308,2
304,321,308,310,2
304,324,309,312,2
304,326,308,313,2
303,329,308,313,2
302,331,307,313,2
302,330,306,314,2
301,328,305,314,2
302,324,304,314,2
302,319,304,314,2
304,313,305,315,2
304,307,305,315,2
306,300,306,315,2
307,290,305,314,2
306,281,304,311,2
305,275,302,308,2
304,274,299,304,2
303,278,297,302,2
302,289,296,300,2
301,304,295,299,2
300,318,294,299,2
299,328,294,299,2
299,333,295,300,2
299,334,297,302,2
300,333,299,304,2
301,329,300,305,2
302,325,300,305,2
302,321,300,305,2
302,319,299,304,2
302,319,298,303,2
301,319,298,302,2
300,320,298,301,2
301,320,299,303,2
301,321,302,307,2
303,321,304,312,2
305,321,306,315,2
306,320,306,317,2
307,320,306,317,2
307,318,306,316,2
308,315,307,315,2
308,312,307,315,2
308,308,307,313,2
307,304,307,310,2
307,299,306,307,2
306,293,305,305,2
307,286,305,304,2
307,279,306,303,2
308,272,306,302,2
309,268,306,301,2
308,271,306,301,2
308,283,306,301,2
306,301,305,302,2
304,321,304,303,2
302,338,302,304,2
301,350,301,304,2
301,356,301,305,2
302,357,300,304,2
302,355,300,304,2
303,350,300,303,2
303,343,301,303,2
303,337,302,304,2
304,332,304,305,2
305,326,305,307,2
306,318,306,309,2
307,307,307,310,2
309,293,307,311,2
311,277,307,311,2
312,266,307,311,2
313,263,307,310,2
312,270,306,309,2
310,285,304,308,2
308,301,302,307,2
306,314,301,306,2
305,321,300,306,2
306,326,300,307,2
306,329,301,307,2
306,328,300,307,2
306,324,300,306,2
306,318,299,305,2
305,311,299,304,2
305,303,299,303,2
306,296,299,303,2
307,292,299,304,2
308,291,300,304,2
308,294,300,304,2
307,298,300,304,2
306,305,301,305,2
305,311,302,307,2
306,316,304,309,2
307,320,305,311,2
307,323,305,310,2
307,323,304,309,2
305,323,303,308,2
303,322,303,306,2
302,319,303,306,2
302,314,304,306,2
302,307,304,307,2
302,301,304,308,2
302,297,304,309,2
302,297,305,311,2
302,300,305,313,2
303,302,305,315,2
305,299,305,314,2
307,290,305,312,2
310,278,304,309,2
313,267,304,307,2
314,262,303,304,2
314,266,302,303,2
313,280,301,303,2
310,299,300,302,2
307,320,300,302,2
305,337,301,304,2
304,348,303,306,2
304,352,304,309,2
303,352,305,311,2
302,349,305,312,2
300,343,304,311,2
299,338,303,310,2
298,332,302,309,2
299,327,302,307,2
299,322,301,305,2
300,318,301,303,2
302,311,301,302,2
303,303,302,301,2
304,296,303,301,2
304,289,303,301,2
305,285,305,301,2
307,282,306,302,2
307,281,307,302,2
307,281,307,303,2
308,283,307,302,2
308,288,307,301,2
309,294,306,300,2
309,301,306,300,2
307,310,306,302,2
305,320,306,303,2
304,327,306,305,2
303,330,307,306,2
302,329,308,307,2
301,325,308,307,2
301,320,308,307,2
302,314,307,307,2
303,308,308,308,2
305,304,308,308,2
305,300,308,308,2
305,296,306,307,2
304,292,305,305,2
303,291,304,304,2
303,293,303,304,2
303,299,303,304,2
304,306,304,304,2
304,314,305,305,2
303,318,306,305,2
301,318,306,305,2
298,314,306,304,2
296,311,305,304,2
295,309,306,304,2
296,311,306,305,2
296,317,306,306,2
297,325,305,306,2
297,329,305,307,2
297,329,305,308,2
298,325,305,309,2
300,319,306,310,2
302,310,307,310,2
304,301,308,310,2
306,297,308,311,2
308,297,308,310,2
308,299,306,308,2
307,301,305,307,2
305,301,304,305,2
303,297,304,304,2
302,291,304,303,2
302,282,306,303,2
303,272,307,304,2
304,262,309,306,2
305,253,310,305,2
305,249,309,303,2
305,253,308,301,2
303,265,306,299,2
302,283,304,298,2
301,302,302,298,2
300,321,302,299,2
300,337,303,300,2
299,349,305,303,2
298,355,307,306,2
298,355,309,310,2
299,351,309,311,2
300,342,309,312,2
301,333,309,312,2
301,323,309,313,2
302,318,309,313,2
302,317,309,314,2
302,320,308,313,2
301,326,307,312,2
300,333,307,312,2
299,338,307,311,2
299,338,307,311,2
299,332,307,310,2
298,323,307,308,2
299,311,307,307,2
299,298,306,305,2
300,284,307,304,2
301,274,307,305,2
303,269,307,307,2
303,270,307,309,2
303,277,306,310,2
303,288,305,312,2
301,302,304,312,2
300,316,304,310,2
299,327,303,309,2
298,335,303,308,2
296,339,303,307,2
296,339,303,307,2
296,333,304,306,2
297,325,304,305,2
298,317,305,306,2
299,310,307,308,2
301,304,308,311,2
302,300,309,313,2
302,300,308,314,2
301,303,306,314,2
300,308,304,313,2
300,313,303,313,2
300,316,303,313,2
300,320,304,312,2
300,322,305,311,2
300,322,306,310,2
300,320,306,309,2
301,315,307,307,2
301,307,307,306,2
302,299,308,306,2
303,289,309,306,2
305,281,309,307,2
307,276,309,307,2
308,274,309,306,2
309,276,308,305,2
308,283,307,305,2
306,295,305,305,2
304,306,303,306,2
301,316,300,305,2
298,323,297,304,2
295,326,295,302,2
294,326,295,301,2
295,323,297,301,2
297,318,300,302,2
299,312,302,302,2
302,308,304,301,2
302,305,305,300,2
302,305,304,299,2
301,307,302,298,2
300,310,301,298,2
300,313,300,300,2
302,316,301,302,2
303,319,302,303,2
305,322,304,305,2
307,322,306,306,2
309,318,308,307,2
310,305,309,306,2
310,288,310,305,2
309,272,311,304,2
307,259,311,304,2
304,253,312,303,2
302,253,313,304,2
300,259,313,304,2
299,273,313,305,2
298,289,313,306,2
299,305,312,306,2
300,319,311,307,2
302,330,311,307,2
303,337,311,308,2
304,339,311,309,2
305,338,312,309,2
305,334,312,309,2
306,329,312,309,2
306,323,312,308,2
305,316,311,308,2
304,309,311,308,2
303,302,310,308,2
301,296,310,309,2
301,290,310,310,2
302,286,311,311,2
302,287,312,311,2
304,295,312,311,2
305,306,311,310,2
305,316,311,309,2
307,324,310,308,2
308,326,309,306,2
309,324,308,305,2
309,321,307,304,2
309,317,307,304,2
309,315,307,303,2
309,314,307,304,2
308,315,306,305,2
307,317,305,306,2
306,317,304,308,2
305,314,303,309,2
304,309,302,309,2
304,304,301,308,2
305,304,301,308,2
305,307,301,308,2
305,314,302,307,2
305,321,302,307,2
304,325,303,306,2
304,325,304,305,2
303,321,304,306,2
303,316,304,306,2
303,309,304,306,2
304,304,304,307,2
304,301,305,307,2
304,301,306,308,2
304,302,306,309,2
304,302,306,310,2
302,302,307,311,2
301,302,307,312,2
300,302,307,312,2
299,302,307,311,2
299,301,306,309,2
299,298,306,308,2
301,292,307,307,2
303,283,307,308,2
307,274,308,308,2
308,270,308,307,2
308,271,306,307,2
307,277,305,306,2
306,285,302,304,2
305,296,302,304,2
305,309,301,306,2
305,316,299,308,2
305,318,298,309,2
304,315,297,309,2
303,312,297,307,2
302,310,298,303,2
302,309,301,301,2
303,310,304,300,2
303,313,307,302,2
304,316,310,306,2
304,316,311,309,2
304,311,311,311,2
304,304,311,311,2
304,296,311,312,2
305,291,311,312,2
306,292,311,312,2
306,298,310,312,2
306,305,309,311,2
305,309,308,311,2
304,312,307,310,2
303,313,306,310,2
303,314,305,309,2
304,315,305,309,2
305,316,305,310,2
306,319,306,311,2
307,321,306,313,2
308,322,307,314,2
307,322,307,315,2
307,321,308,315,2
307,318,309,316,2
308,315,309,316,2
308,314,310,317,2
308,317,311,317,2
307,320,311,315,2
304,321,310,312,2
302,320,308,309,2
301,318,307,307,2
301,313,305,305,2
303,306,304,304,2
305,298,304,304,2
307,289,305,303,2
309,281,306,304,2
311,277,308,305,2
312,278,309,305,2
312,285,310,306,2
309,295,309,306,2
306,304,309,305,2
304,310,307,304,2
303,312,307,303,2
303,312,306,302,2
304,311,306,301,2
304,311,306,300,2
305,312,307,302,2
306,315,307,304,2
307,317,307,307,2
306,317,306,309,2
305,315,305,309,2
305,314,304,308,2
305,313,304,307,2
306,312,303,306,2
306,311,304,306,2
308,310,304,305,2
308,308,303,303,2
309,306,301,301,2
308,305,300,298,2
308,303,298,296,2
307,302,297,294,2
307,300,296,293,2
307,298,297,293,2
307,294,299,294,2
307,287,300,295,2
306,279,300,296,2
306,271,300,297,2
306,265,302,299,2
307,263,306,304,2
308,266,311,308,2
310,276,314,312,2
310,288,316,314,2
309,297,316,314,2
308,301,315,313,2
308,300,315,312,2
307,298,314,310,2
306,296,314,309,2
305,299,314,308,2
305,305,314,308,2
305,312,313,308,2
303,319,311,308,2
302,322,310,307,2
301,324,308,307,2
300,324,306,306,2
300,322,305,306,2
300,321,304,306,2
300,318,304,305,2
300,315,304,305,2
300,312,305,305,2
301,310,307,306,2
302,308,309,307,2
303,308,310,309,2
304,309,311,310,2
305,308,311,310,2
306,304,311,308,2
307,298,310,307,2
308,288,309,305,2
308,278,308,304,2
309,269,307,303,2
310,265,307,302,2
312,265,308,303,2
313,270,309,305,2
314,279,311,307,2
314,292,311,309,2
311,303,310,310,2
308,309,309,310,2
306,311,309,310,2
305,310,308,310,2
304,309,308,310,2
302,309,308,309,2
300,310,307,306,2
298,311,306,304,2
296,314,304,301,2
294,318,303,299,2
293,321,302,298,2
294,323,301,296,2
296,323,300,294,2
298,321,299,291,2
300,317,299,290,2
303,311,300,290,2
307,305,302,292,2
310,300,306,296,2
314,296,310,300,2
317,290,313,302,2
318,285,314,303,2
319,280,315,304,2
318,276,315,305,2
316,272,315,305,2
314,269,314,306,2
312,270,314,306,2
310,276,313,305,2
309,286,313,304,2
307,299,311,303,2
305,311,309,301,2
303,320,307,300,2
302,324,305,298,2
301,324,304,296,2
300,322,303,296,2
300,319,303,298,2
300,315,303,301,2
299,309,303,303,2
300,303,302,305,2
302,300,302,306,2
305,301,303,306,2
307,305,304,306,2
309,311,305,306,2
310,316,306,306,2
311,319,306,306,2
311,321,306,306,2
311,321,305,306,2
311,321,305,306,2
311,320,304,306,2
310,319,303,305,2
307,317,302,303,2
304,314,301,302,2
303,309,302,301,2
304,304,303,301,2
306,299,306,302,2
308,296,309,304,2
309,294,311,305,2
310,294,312,306,2
310,296,312,308,2
310,300,311,309,2
308,302,310,309,2
307,303,309,309,2
307,304,308,308,2
306,304,308,308,2
306,304,308,306,2
306,305,308,305,2
306,305,308,304,2
307,306,308,303,2
309,308,309,303,2
309,309,308,302,2
309,308,308,302,2
308,306,307,303,2
307,302,306,303,2
306,297,306,303,2
304,292,306,303,2
303,287,307,304,2
303,284,308,304,2
303,284,308,306,2
303,288,309,307,2
304,293,308,307,2
304,299,307,306,2
304,302,306,304,2
303,302,304,302,2
302,301,303,301,2
302,300,302,301,2
301,299,301,301,2
302,299,299,301,2
303,298,298,301,2
304,297,297,301,2
306,294,298,301,2
308,289,301,300,2
310,282,304,300,2
312,276,307,300,2
314,274,309,300,2
315,279,310,301,2
316,288,310,303,2
317,297,310,307,2
317,304,310,311,2
316,308,310,314,2
314,310,308,314,2
312,309,306,312,2
310,307,304,310,2
309,304,303,308,2
309,302,302,305,2
308,302,302,303,2
308,305,301,301,2
307,309,302,301,2
307,313,302,302,2
307,316,302,305,2
307,318,303,308,2
308,320,302,312,2
308,319,301,315,2
309,314,302,317,2
309,307,303,319,2
310,297,306,318,2
311,290,310,316,2
312,286,312,314,2
314,288,313,312,2
314,293,314,310,2
314,299,313,309,2
312,304,312,306,2
310,305,309,305,2
308,305,307,303,2
308,304,307,302,2
308,304,308,301,2
309,304,309,303,2
311,305,310,305,2
312,304,312,307,2
313,301,313,308,2
313,297,313,309,2
313,296,313,310,2
312,298,312,309,2
310,301,311,308,2
309,304,310,306,2
308,308,309,303,2
308,311,307,301,2
308,314,306,299,2
308,314,306,298,2
308,315,305,298,2
309,316,305,297,2
309,317,305,297,2
310,318,305,298,2
310,317,305,300,2
309,314,306,302,2
310,307,307,304,2
310,298,308,305,2
311,289,309,306,2
312,281,308,305,2
312,277,307,305,2
312,278,306,305,2
312,282,306,305,2
311,289,305,304,2
310,299,304,303,2
309,309,302,302,2
309,316,300,300,2
307,317,297,298,2
306,318,296,296,2
305,320,296,296,2
304,322,297,296,2
303,323,299,296,2
301,324,301,296,2
301,325,303,297,2
300,324,305,298,2
301,323,306,300,2
302,321,308,302,2
304,320,308,304,2
306,320,309,306,2
308,320,310,307,2
308,320,309,309,2
308,318,309,310,2
309,314,309,310,2
309,310,309,310,2
310,307,309,310,2
310,306,309,309,2
309,306,308,308,2
308,308,306,307,2
308,309,305,306,2
307,309,304,305,2
307,307,304,305,2
307,304,304,305,2
306,301,305,305,2
307,298,305,305,2
307,298,305,306,2
306,300,304,306,2
305,304,303,306,2
304,309,302,306,2
303,312,302,307,2
303,312,303,308,2
304,309,304,308,2
305,305,304,309,2
306,300,305,309,2
307,296,306,310,2
308,292,306,310,2
309,291,306,310,2
310,294,306,310,2
312,299,305,311,2
313,305,304,312,2
313,312,303,313,2
313,317,301,314,2
314,318,301,316,2
313,314,301,316,2
312,308,301,316,2
310,300,301,315,2
307,292,301,314,2
305,288,302,313,2
304,290,303,313,2
303,299,303,313,2
304,311,304,313,2
304,321,303,312,2
305,327,303,311,2
305,330,303,310,2
305,330,302,310,2
305,328,302,309,2
305,325,301,309,2
304,323,300,309,2
305,324,299,309,2
305,324,299,309,2
306,321,299,309,2
306,315,299,309,2
308,306,300,309,2
310,296,301,310,2
312,286,303,310,2
314,278,304,311,2
315,274,304,310,2
313,279,302,308,2
311,291,299,306,2
308,305,297,305,2
306,317,294,305,2
304,325,292,307,2
303,331,292,308,2
302,334,295,309,2
303,335,300,311,2
304,334,304,313,2
305,331,308,315,2
306,326,309,317,2
305,319,310,317,2
304,312,309,317,2
303,305,308,317,2
302,302,307,317,2
302,301,308,317,2
301,302,308,316,2
300,303,308,316,2
300,304,309,315,2
301,304,309,314,2
302,303,310,313,2
304,302,310,312,2
307,302,311,311,2
308,305,311,311,2
309,310,311,312,2
310,314,311,312,2
309,317,311,313,2
308,317,310,312,2
307,314,309,311,2
305,310,308,309,2
304,308,307,308,2
304,305,307,308,2
305,301,307,309,2
306,295,307,309,2
307,289,307,309,2
308,286,307,308,2
308,284,307,307,2
308,286,308,307,2
308,290,309,308,2
308,299,310,309,2
308,309,310,310,2
308,319,311,311,2
309,325,311,312,2
308,327,311,311,2
308,327,310,311,2
308,325,309,310,2
308,322,308,310,2
308,316,307,309,2
309,311,307,309,2
309,306,307,308,2
310,304,307,306,2
310,303,308,306,2
309,303,307,306,2
308,304,306,307,2
307,304,305,308,2
306,303,304,307,2
306,301,302,306,2
306,298,301,305,2
306,295,301,303,2
306,289,301,300,2
306,285,302,298,2
306,283,303,298,2
306,283,303,299,2
306,285,303,300,2
305,287,303,302,2
306,292,304,305,2
306,299,306,306,2
306,307,306,307,2
306,313,307,307,2
306,315,306,307,2
305,313,306,306,2
304,309,305,307,2
304,305,304,307,2
304,302,303,306,2
303,304,301,305,2
301,308,300,304,2
300,314,299,303,2
299,320,300,302,2
299,324,302,304,2
300,327,304,306,2
301,328,304,309,2
303,327,305,310,2
304,325,304,311,2
305,322,303,312,2
305,317,302,312,2
304,312,302,312,2
305,306,302,312,2
305,302,304,313,2
306,298,305,313,2
307,294,307,313,2
308,290,308,313,2
308,288,309,312,2
309,288,309,312,2
310,289,309,312,2
311,294,309,313,2
311,301,308,314,2
310,309,306,313,2
308,313,305,311,2
306,313,303,309,2
305,310,303,307,2
304,306,303,306,2
304,303,304,307,2
304,302,305,308,2
305,305,306,310,2
306,310,306,312,2
306,315,306,313,2
306,321,306,313,2
306,326,305,314,2
305,329,304,315,2
304,329,304,316,2
303,326,303,316,2
302,321,304,316,2
301,314,304,316,2
300,309,305,315,2
299,305,306,314,2
299,304,306,312,2
300,306,306,310,2
302,311,305,309,2
304,316,306,308,2
306,319,306,309,2
308,320,307,310,2
309,317,308,311,2
309,312,309,312,2
310,306,309,313,2
310,302,309,314,2
310,300,308,314,2
309,299,307,313,2
309,297,306,311,2
309,296,305,309,2
309,295,305,306,2
309,297,304,304,2
309,300,304,304,2
308,306,304,305,2
308,310,304,305,2
307,313,304,305,2
306,313,303,305,2
305,313,302,305,2
304,313,302,306,2
303,313,301,306,2
303,313,299,308,2
304,313,299,310,2
305,312,299,312,2
306,311,301,314,2
307,306,303,315,2
308,297,305,316,2
309,285,307,317,2
310,273,308,317,2
312,265,309,316,2
312,261,308,314,2
311,264,308,311,2
311,271,308,309,2
310,280,308,308,2
309,290,308,307,2
307,300,307,306,2
307,306,306,304,2
306,310,306,304,2
307,313,306,304,2
306,316,305,304,2
306,319,305,304,2
304,319,304,304,2
303,319,303,303,2
301,321,301,303,2
301,323,300,303,2
300,325,300,302,2
300,326,300,302,2
300,325,300,302,2
301,323,302,303,2
302,320,303,305,2
304,317,304,307,2
305,315,305,309,2
306,313,306,310,2
306,309,306,309,2
305,304,307,310,2
306,298,307,311,2
306,291,308,311,2
307,284,309,311,2
307,279,309,310,2
308,278,310,310,2
307,284,310,309,2
307,294,310,309,2
307,304,309,309,2
307,312,308,310,2
309,316,308,311,2
309,317,308,313,2
309,317,309,314,2
310,316,310,314,2
309,316,312,314,2
309,318,312,313,2
308,320,314,314,2
307,321,313,314,2
306,319,313,314,2
306,311,312,313,2
306,299,310,311,2
306,285,309,307,2
306,272,307,304,2
308,266,306,301,2
309,268,306,299,2
310,275,306,299,2
311,286,307,299,2
311,300,308,301,2
310,315,308,303,2
309,328,307,305,2
308,338,306,307,2
306,343,305,308,2
305,345,305,308,2
305,344,305,310,2
305,342,306,312,2
305,338,306,313,2
304,333,305,312,2
303,328,304,310,2
302,326,304,309,2
302,327,305,308,2
302,329,306,308,2
303,332,306,309,2
303,334,306,310,2
304,335,305,311,2
305,332,304,312,2
305,328,302,313,2
306,320,301,314,2
306,309,302,315,2
306,298,303,316,2
305,290,305,315,2
305,283,307,315,2
305,280,309,314,2
304,277,310,312,2
304,276,310,311,2
303,276,310,311,2
303,279,310,311,2
304,284,310,310,2
304,289,309,309,2
304,295,309,307,2
305,299,309,306,2
305,302,307,305,2
304,303,306,305,2
305,303,306,306,2
306,298,307,306,2
307,291,307,307,2
309,282,307,308,2
310,274,307,308,2
311,268,307,310,2
312,269,306,311,2
311,276,305,311,2
310,288,305,310,2
308,299,304,309,2
305,309,303,307,2
303,318,303,306,2
302,326,302,305,2
301,330,302,304,2
302,331,304,305,2
303,330,305,306,2
303,326,306,307,2
304,322,307,308,2
304,319,308,309,2
304,318,309,310,2
304,318,310,311,2
304,319,310,310,2
304,317,310,308,2
305,309,310,305,2
305,297,309,301,2
305,282,308,299,2
305,270,307,297,2
305,263,306,297,2
305,263,306,298,2
305,270,307,298,2
304,282,307,299,2
304,297,307,299,2
304,311,308,301,2
304,321,309,303,2
304,328,310,306,2
305,331,310,308,2
305,331,310,309,2
303,328,310,309,2
302,323,310,309,2
301,315,311,309,2
302,306,312,309,2
303,295,313,310,2
304,285,314,310,2
305,277,314,309,2
306,273,312,307,2
305,275,310,305,2
304,281,308,304,2
302,289,308,303,2
301,300,308,304,2
299,309,310,306,2
297,315,312,309,2
297,318,314,311,2
297,319,315,311,2
297,317,315,309,2
297,317,314,308,2
297,314,313,307,2
298,307,312,307,2
300,295,311,308,2
302,281,310,308,2
303,271,310,307,2
304,266,309,307,2
306,269,308,308,2
307,277,307,309,2
309,288,306,310,2
309,298,304,311,2
308,303,302,310,2
307,306,300,307,2
306,311,299,305,2
305,319,299,305,2
303,329,300,306,2
303,337,301,307,2
301,342,302,308,2
301,344,302,308,2
299,342,302,309,2
298,334,302,309,2
298,323,303,309,2
299,309,305,309,2
300,295,307,309,2
303,284,309,309,2
304,278,310,309,2
306,278,311,309,2
307,288,310,309,2
307,304,309,308,2
305,318,308,306,2
303,328,306,305,2
301,332,305,305,2
300,333,304,305,2
300,332,304,305,2
301,330,304,306,2
301,326,304,306,2
303,321,303,307,2
304,315,304,309,2
305,308,304,311,2
306,301,305,313,2
307,295,306,314,2
308,291,306,314,2
310,290,308,315,2
310,292,310,316,2
309,296,311,316,2
308,299,310,316,2
307,301,310,316,2
306,301,309,315,2
306,301,308,313,2
306,301,307,310,2
305,304,306,307,2
304,305,304,305,2
303,305,303,304,2
304,303,303,304,2
305,299,303,304,2
306,295,303,305,2
307,291,304,306,2
307,291,305,308,2
307,292,306,310,2
307,295,306,310,2
307,295,307,308,2
306,295,306,306,2
305,296,305,303,2
303,298,303,301,2
302,300,301,299,2
300,300,299,298,2
299,299,297,298,2
299,299,297,298,2
300,300,300,300,2
302,305,303,302,2
304,311,305,305,2
305,315,307,307,2
306,318,308,309,2
308,321,308,311,2
309,323,309,311,2
310,324,309,311,2
309,323,309,311,2
307,321,309,309,2
305,318,308,307,2
303,314,308,306,2
302,311,308,304,2
302,308,308,303,2
302,303,308,303,2
302,298,307,301,2
302,290,307,300,2
303,283,307,298,2
304,276,308,298,2
305,273,308,299,2
305,273,309,300,2
306,277,310,301,2
306,285,310,303,2
306,295,310,305,2
305,305,310,307,2
304,313,310,309,2
304,319,309,311,2
304,325,309,313,2
305,331,309,315,2
305,334,309,315,2
305,334,310,316,2
305,329,310,315,2
304,322,310,315,2
303,315,311,314,2
303,310,311,313,2
302,305,310,310,2
302,301,310,307,2
301,300,310,305,2
301,301,309,303,2
301,302,308,301,2
300,302,306,300,2
300,298,306,300,2
301,292,306,301,2
302,285,307,303,2
304,279,308,307,2
306,278,309,310,2
307,281,310,313,2
308,287,311,314,2
307,297,310,313,2
306,306,310,309,2
305,313,309,307,2
305,317,308,305,2
305,319,306,306,2
305,320,305,307,2
306,319,305,307,2
307,319,306,307,2
307,319,307,307,2
307,319,309,307,2
308,319,309,307,2
309,318,309,306,2
309,316,309,305,2
308,314,308,305,2
308,313,307,304,2
307,311,307,304,2
307,309,307,304,2
307,308,308,304,2
308,307,310,304,2
309,307,311,305,2
310,305,312,305,2
311,303,313,306,2
311,300,313,307,2
310,299,313,307,2
309,297,312,307,2
307,296,311,306,2
306,296,309,304,2
305,297,307,303,2
304,299,304,301,2
303,301,302,300,2
303,302,301,300,2
304,304,302,299,2
305,307,304,300,2
306,309,306,301,2
307,309,307,303,2
308,308,308,304,2
308,307,308,305,2
308,306,308,305,2
308,306,308,306,2
307,305,308,306,2
306,304,308,306,2
305,302,307,306,2
304,301,307,307,2
304,300,306,306,2
304,299,305,306,2
304,299,305,305,2
304,299,305,305,2
304,299,305,305,2
304,301,306,305,2
305,302,306,305,2
305,303,307,305,2
304,304,307,305,2
304,304,308,304,2
303,303,307,304,2
303,303,307,304,2
302,302,306,304,2
302,301,305,304,2
302,301,304,305,2
302,300,303,306,2
303,300,303,307,2
304,299,304,308,2
305,298,305,309,2
306,297,306,310,2
307,297,306,311,2
308,298,307,312,2
308,300,307,312,2
307,301,306,312,2
306,303,306,311,2
305,304,305,310,2
304,304,305,307,2
303,304,304,303,2
303,304,304,301,2
304,304,305,300,2
304,304,305,300,2
304,303,307,302,2
305,304,309,303,2
306,305,311,306,2
307,306,314,308,2
309,307,316,310,2
310,308,317,311,2
310,308,318,312,2
310,306,318,311,2
309,303,317,312,2
309,299,315,311,2
309,291,314,310,2
310,280,313,310,2
312,268,312,309,2
312,258,310,309,2
313,253,308,310,2
313,255,306,310,2
312,264,304,309,2
311,279,301,308,2
310,298,299,307,2
308,315,297,305,2
306,328,296,304,2
304,336,295,304,2
303,339,296,304,2
304,339,298,304,2
304,337,300,304,2
305,332,302,304,2
305,325,303,304,2
304,318,304,305,2
304,310,304,306,2
304,302,304,306,2
304,293,303,304,2
303,287,303,302,2
302,285,302,300,2
301,289,300,300,2
300,295,299,300,2
299,303,299,300,2
299,312,300,301,2
300,320,302,303,2
301,325,304,305,2
302,327,306,305,2
303,325,308,305,2
302,322,311,305,2
302,319,314,305,2
302,318,316,306,2
303,317,318,308,2
305,317,320,310,2
308,317,320,310,2
309,317,320,311,2
310,317,319,310,2
310,316,317,309,2
310,316,315,307,2
310,315,313,307,2
309,312,311,306,2
308,309,309,305,2
308,308,308,306,2
309,307,308,307,2
310,308,309,310,2
310,309,310,312,2
311,309,311,313,2
311,308,312,312,2
311,307,311,309,2
309,305,311,306,2
308,304,309,303,2
306,302,308,301,2
305,299,306,300,2
305,295,306,300,2
305,292,305,301,2
306,288,305,302,2
307,287,305,303,2
307,289,305,305,2
308,297,306,306,2
308,307,307,306,2
309,314,308,307,2
310,318,308,307,2
310,318,308,307,2
310,317,307,306,2
309,315,305,305,2
309,311,305,306,2
308,305,305,306,2
308,299,306,307,2
307,295,307,308,2
307,291,308,308,2
308,286,309,309,2
309,281,311,310,2
311,277,312,312,2
313,276,313,313,2
314,277,314,314,2
314,281,314,314,2
313,287,313,313,2
311,294,312,311,2
310,303,310,308,2
308,314,308,305,2
306,325,306,302,2
303,333,305,299,2
301,340,304,299,2
299,344,303,299,2
298,345,303,299,2
298,342,303,300,2
298,337,303,300,2
299,332,305,300,2
302,324,308,302,2
304,317,311,306,2
307,309,312,310,2
310,302,313,312,2
313,297,314,314,2
314,295,313,315,2
314,294,313,314,2
314,293,312,313,2
315,295,311,311,2
315,297,309,310,2
316,298,308,308,2
316,297,307,306,2
316,295,306,303,2
317,294,305,302,2
316,295,305,301,2
316,296,305,300,2
315,296,306,300,2
315,295,308,301,2
315,290,310,302,2
314,285,313,303,2
314,277,315,304,2
314,272,317,304,2
314,271,317,305,2
313,272,317,305,2
311,274,315,304,2
309,280,312,303,2
308,285,309,302,2
306,290,306,301,2
306,295,305,301,2
307,303,305,302,2
308,318,305,303,2
311,338,307,305,2
313,358,308,308,2
314,373,310,311,2
314,381,312,313,2
314,380,312,316,2
313,375,313,318,2
312,366,314,319,2
312,354,314,319,2
310,342,313,318,2
309,330,312,316,2
307,321,312,313,2
306,315,311,312,2
307,311,312,312,2
307,307,311,313,2
307,304,311,313,2
306,303,310,314,2
307,301,309,314,2
307,299,308,313,2
306,296,308,311,2
306,293,308,309,2
306,291,309,308,2
306,289,309,308,2
306,288,309,308,2
305,289,310,309,2
304,292,310,311,2
303,296,310,311,2
302,302,310,311,2
300,307,310,310,2
299,312,310,310,2
299,315,310,310,2
299,315,310,310,2
301,312,310,309,2
303,308,309,308,2
305,303,309,308,2
306,298,308,307,2
306,294,307,306,2
306,292,308,305,2
306,294,309,304,2
306,299,312,305,2
308,306,314,308,2
309,311,316,311,2
309,314,316,313,2
308,314,315,314,2
307,310,313,316,2
306,304,312,316,2
305,297,312,316,2
306,288,311,315,2
307,281,310,313,2
307,277,309,312,2
307,280,309,312,2
306,288,308,311,2
305,294,308,310,2
303,296,307,308,2
301,295,307,307,2
300,293,307,307,2
301,292,308,308,2
301,293,309,310,2
302,297,309,313,2
303,302,309,315,2
303,306,308,316,2
303,309,309,317,2
303,308,309,318,2
304,304,309,318,2
305,300,311,319,2
306,296,312,319,2
308,291,313,318,2
309,287,315,318,2
310,284,317,317,2
311,284,318,316,2
312,286,319,314,2
313,292,318,311,2
312,302,316,308,2
310,314,313,305,2
307,324,310,304,2
304,329,308,304,2
303,331,308,305,2
303,332,308,305,2
303,332,308,306,2
304,330,308,307,2
304,327,307,308,2
304,323,307,308,2
305,318,307,308,2
305,314,307,308,2
306,312,309,309,2
306,311,310,309,2
305,311,311,309,2
305,309,311,307,2
305,304,311,305,2
304,297,311,304,2
304,288,311,304,2
304,279,310,303,2
305,271,310,303,2
306,266,310,303,2
308,265,310,304,2
309,270,311,306,2
310,282,311,307,2
309,298,311,308,2
308,315,310,309,2
306,330,309,310,2
304,339,308,310,2
303,342,308,311,2
303,338,308,311,2
303,329,307,311,2
303,319,307,311,2
304,311,307,312,2
304,306,307,312,2
304,305,307,311,2
303,310,308,309,2
303,319,308,309,2
302,329,310,311,2
302,335,310,313,2
303,337,311,317,2
304,337,311,320,2
304,334,311,321,2
304,328,310,319,2
304,321,309,316,2
304,314,308,311,2
304,309,308,307,2
304,307,307,305,2
305,308,307,304,2
305,309,307,304,2
305,310,307,305,2
305,309,308,305,2
306,305,308,305,2
306,299,309,306,2
307,293,310,306,2
307,288,310,306,2
307,287,310,306,2
307,288,309,306,2
307,290,309,307,2
306,294,308,308,2
305,296,307,309,2
305,293,305,309,2
305,289,303,309,2
305,287,302,308,2
305,289,301,307,2
305,295,300,306,2
305,301,300,305,2
304,306,300,304,2
302,311,302,304,2
301,315,302,304,2
300,314,302,304,2
300,309,303,303,2
301,299,304,303,2
302,287,305,303,2
304,275,307,305,2
306,262,308,307,2
307,254,309,309,2
309,252,309,310,2
310,257,309,310,2
310,267,307,309,2
309,279,305,308,2
308,289,304,308,2
307,299,303,309,2
306,306,303,309,2
306,312,302,310,2
304,316,303,309,2
304,318,304,309,2
303,316,306,308,2
304,313,307,309,2
306,310,309,310,2
307,307,310,311,2
307,307,310,312,2
306,309,310,312,2
306,311,311,313,2
307,315,310,313,2
307,317,310,313,2
308,319,310,313,2
309,319,312,313,2
310,320,313,313,2
309,320,314,313,2
308,315,313,312,2
306,309,310,310,2
304,304,307,308,2
303,301,304,308,2
302,300,302,307,2
301,299,300,307,2
300,299,300,307,2
300,299,300,308,2
301,302,301,308,2
303,305,304,309,2
305,309,306,309,2
307,313,307,310,2
308,316,309,310,2
309,317,310,311,2
309,316,310,311,2
310,314,309,311,2
310,310,310,310,2
311,306,310,308,2
312,304,310,307,2
312,304,309,306,2
311,305,308,304,2
310,307,307,303,2
309,309,306,303,2
309,311,305,304,2
309,309,304,305,2
310,302,303,306,2
310,291,303,306,2
311,278,304,307,2
311,268,305,307,2
310,264,307,307,2
308,267,307,307,2
307,278,307,307,2
307,295,306,307,2
306,312,304,307,2
306,326,303,307,2
306,333,303,309,2
306,335,304,309,2
306,334,306,310,2
306,330,307,311,2
306,326,308,312,2
306,324,309,312,2
305,323,310,313,2
304,320,311,312,2
304,315,311,311,2
304,311,312,310,2
305,307,311,309,2
306,305,311,309,2
306,304,311,310,2
307,302,310,310,2
308,301,308,310,2
308,303,307,311,2
308,307,306,312,2
308,312,306,314,2
309,314,306,313,2
309,315,307,312,2
309,315,307,310,2
308,315,306,308,2
308,314,306,305,2
307,312,304,302,2
305,308,301,299,2
304,305,299,297,2
304,302,299,296,2
304,300,299,298,2
305,298,299,299,2
305,295,300,301,2
306,294,301,303,2
305,293,301,304,2
305,294,301,305,2
304,296,300,306,2
303,300,300,306,2
302,303,299,306,2
303,305,299,305,2
303,304,299,305,2
304,301,300,304,2
305,297,301,304,2
306,292,303,303,2
306,288,304,303,2
305,288,305,302,2
305,293,305,302,2
306,301,306,303,2
306,308,308,306,2
307,311,310,308,2
307,309,311,311,2
307,304,311,312,2
307,298,311,313,2
307,293,310,313,2
307,289,309,311,2
306,288,307,309,2
305,291,305,308,2
304,297,304,306,2
304,300,303,306,2
303,301,303,306,2
303,299,303,306,2
304,298,304,307,2
305,298,305,309,2
307,302,307,310,2
308,305,308,310,2
308,308,308,311,2
307,313,308,311,2
307,319,307,312,2
306,325,306,312,2
305,329,304,312,2
304,331,304,312,2
302,331,303,311,2
301,328,302,311,2
300,325,302,311,2
301,323,302,312,2
301,321,301,311,2
302,320,300,310,2
304,321,300,310,2
305,322,300,309,2
307,321,301,309,2
307,318,302,309,2
308,312,304,309,2
309,305,305,310,2
310,296,306,310,2
311,288,306,311,2
312,283,306,311,2
312,281,306,311,2
312,284,305,309,2
312,290,305,308,2
310,297,305,308,2
309,302,305,308,2
309,306,307,310,2
309,308,308,312,2
309,308,309,314,2
308,308,310,315,2
306,311,309,316,2
304,314,307,314,2
300,316,304,310,2
298,316,302,306,2
296,314,299,303,2
296,310,297,301,2
297,306,297,299,2
298,302,297,298,2
299,300,300,298,2
300,301,302,300,2
301,303,305,302,2
303,307,305,304,2
304,311,304,305,2
306,314,302,306,2
307,314,301,307,2
309,313,299,307,2
310,312,299,309,2
311,312,299,310,2
311,311,301,311,2
312,310,303,313,2
312,310,306,314,2
313,308,309,315,2
312,304,312,315,2
311,299,313,315,2
310,291,312,313,2
308,281,310,312,2
307,273,308,310,2
308,267,308,309,2
309,265,309,309,2
310,267,310,308,2
310,273,311,307,2
310,282,312,306,2
309,291,311,305,2
307,299,310,304,2
306,306,308,304,2
305,311,308,304,2
305,315,307,304,2
305,318,308,305,2
306,322,308,306,2
306,328,308,307,2
306,333,307,307,2
307,336,306,307,2
308,337,305,308,2
310,336,305,308,2
311,333,304,308,2
312,329,303,309,2
312,326,302,309,2
312,323,303,308,2
311,319,304,306,2
311,315,306,306,2
310,311,308,305,2
309,307,310,305,2
308,304,310,306,2
307,299,311,307,2
306,295,310,308,2
306,289,310,309,2
306,283,310,308,2
307,278,311,307,2
308,274,311,307,2
308,275,312,307,2
308,280,313,306,2
309,288,313,306,2
308,297,312,306,2
307,305,310,305,2
305,310,310,305,2
305,312,311,305,2
305,313,312,305,2
306,314,314,305,2
307,316,316,307,2
309,317,317,307,2
310,317,317,308,2
310,315,315,308,2
310,311,314,308,2
311,304,313,309,2
312,296,312,310,2
312,289,311,311,2
313,284,311,311,2
313,282,310,310,2
312,282,309,308,2
310,285,309,306,2
309,290,309,305,2
308,297,309,306,2
308,305,310,307,2
308,312,312,310,2
308,318,314,311,2
307,322,315,312,2
307,326,316,312,2
306,328,316,312,2
306,329,316,312,2
307,328,316,311,2
308,326,316,310,2
309,322,315,310,2
309,317,314,309,2
308,312,311,310,2
308,306,309,310,2
307,302,307,310,2
307,299,307,309,2
306,295,307,307,2
305,293,306,306,2
304,294,307,305,2
304,296,307,306,2
304,297,308,309,2
305,296,309,311,2
305,297,309,313,2
305,299,309,312,2
304,303,308,310,2
303,310,308,307,2
301,316,307,304,2
300,320,307,302,2
299,322,307,301,2
299,322,307,302,2
300,321,308,304,2
301,319,309,307,2
302,313,310,310,2
304,306,312,313,2
306,298,313,314,2
307,292,313,315,2
308,287,313,313,2
307,284,311,310,2
306,284,308,307,2
304,289,306,304,2
303,298,303,303,2
303,307,302,302,2
303,316,304,304,2
304,323,307,306,2
305,328,310,308,2
305,330,313,310,2
306,328,314,312,2
306,323,316,313,2
307,318,316,315,2
308,313,316,315,2
308,308,315,315,2
307,305,313,315,2
306,305,311,313,2
305,309,308,311,2
304,315,307,309,2
303,320,307,308,2
303,321,309,307,2
303,320,311,309,2
304,320,312,311,2
304,321,312,312,2
304,323,312,314,2
305,323,313,316,2
305,321,313,316,2
305,318,313,316,2
305,312,314,315,2
305,304,314,313,2
305,294,314,312,2
306,278,313,310,2
307,259,312,308,2
307,243,311,305,2
308,234,310,304,2
308,231,309,303,2
309,231,309,302,2
309,235,308,302,2
309,244,307,301,2
309,258,306,302,2
309,270,305,301,2
309,281,304,302,2
308,292,304,303,2
306,305,304,306,2
305,318,305,309,2
303,331,306,312,2
302,340,307,314,2
302,344,307,316,2
301,343,308,316,2
302,339,307,317,2
303,336,308,317,2
304,333,307,315,2
303,331,306,313,2
302,331,306,311,2
302,332,305,311,2
302,329,306,310,2
302,319,305,311,2
303,303,304,311,2
304,284,304,310,2
305,266,304,310,2
306,254,304,308,2
308,249,304,307,2
309,257,304,306,2
308,272,304,306,2
307,287,303,306,2
306,298,302,305,2
304,303,302,305,2
303,306,303,307,2
301,313,306,309,2
301,326,308,313,2
300,343,309,316,2
299,358,310,320,2
298,367,309,321,2
298,369,308,322,2
299,367,307,321,2
300,360,307,320,2
302,352,306,317,2
303,344,305,314,2
304,338,304,312,2
304,333,303,311,2
304,327,302,310,2
303,321,301,310,2
302,315,301,309,2
301,306,302,308,2
299,296,304,309,2
299,284,306,310,2
299,272,307,311,2
299,263,309,313,2
300,256,309,314,2
302,252,310,314,2
305,252,310,314,2
308,257,309,313,2
312,262,308,312,2
315,266,308,311,2
317,267,308,311,2
320,269,308,310,2
322,274,309,311,2
323,284,310,311,2
323,296,310,311,2
321,307,309,312,2
319,314,308,312,2
316,318,308,313,2
315,319,309,314,2
315,318,310,314,2
314,318,310,313,2
313,321,309,314,2
312,323,307,312,2
310,322,305,310,2
309,320,304,307,2
308,318,303,304,2
307,320,302,301,2
305,326,300,298,2
305,334,300,298,2
305,341,300,299,2
305,345,302,301,2
305,345,303,302,2
306,343,304,303,2
306,339,305,304,2
307,334,305,304,2
307,330,305,306,2
306,326,305,307,2
304,323,303,308,2
303,323,301,310,2
302,324,300,312,2
302,323,301,314,2
304,321,302,315,2
305,317,304,315,2
306,308,306,313,2
307,294,306,309,2
307,279,306,306,2
307,268,304,302,2
307,262,303,300,2
307,261,303,299,2
307,270,303,299,2
306,285,304,301,2
305,303,304,304,2
305,319,305,307,2
304,328,306,307,2
304,332,307,308,2
305,332,308,309,2
306,331,309,311,2
307,328,309,314,2
308,327,309,316,2
309,325,309,317,2
310,324,310,317,2
311,323,310,317,2
312,322,308,317,2
311,320,307,316,2
310,317,304,314,2
307,312,302,312,2
305,307,300,310,2
303,305,299,310,2
302,303,300,309,2
302,301,301,308,2
302,299,302,308,2
303,297,303,308,2
303,294,304,310,2
303,294,305,311,2
302,295,308,314,2
301,296,311,315,2
300,298,313,316,2
298,304,313,316,2
296,311,312,315,2
295,318,310,314,2
295,323,310,314,2
296,325,308,313,2
298,323,307,313,2
300,318,307,312,2
302,312,306,310,2
304,305,306,307,2
306,299,306,304,2
307,297,306,302,2
308,298,307,301,2
308,300,308,301,2
309,299,309,302,2
309,294,310,302,2
309,287,309,303,2
309,280,308,302,2
309,275,307,303,2
309,273,307,304,2
309,277,307,306,2
308,284,307,307,2
307,293,306,309,2
307,300,306,311,2
307,308,306,313,2
308,319,306,314,2
308,332,305,315,2
309,343,304,315,2
309,350,303,313,2
307,350,301,309,2
305,346,299,304,2
303,340,298,301,2
303,333,298,299,2
303,326,300,300,2
304,320,302,303,2
307,315,306,307,2
308,313,309,312,2
309,313,310,315,2
308,315,310,316,2
307,318,309,315,2
304,320,307,314,2
302,319,305,311,2
301,317,304,308,2
300,313,304,307,2
300,310,304,307,2
301,309,305,307,2
301,309,306,307,2
302,310,306,307,2
303,312,307,308,2
304,313,308,309,2
304,314,310,310,2
305,314,312,311,2
304,314,313,311,2
304,312,313,310,2
303,310,313,309,2
301,309,313,308,2
300,310,313,307,2
299,310,313,306,2
299,307,313,306,2
299,302,313,305,2
299,296,312,304,2
299,289,311,304,2
300,283,311,302,2
300,276,310,301,2
301,273,310,300,2
301,273,309,300,2
302,276,309,301,2
302,282,309,302,2
302,289,308,303,2
302,298,308,303,2
301,309,308,303,2
301,318,307,303,2
300,324,306,301,2
300,327,306,300,2
300,330,305,299,2
301,333,306,299,2
301,333,306,300,2
302,331,307,302,2
302,327,309,305,2
303,324,311,307,2
304,320,312,309,2
305,317,313,310,2
306,314,313,311,2
306,314,313,313,2
305,313,312,312,2
304,312,311,311,2
303,310,309,309,2
302,308,308,306,2
301,306,308,304,2
301,302,309,303,2
302,298,310,302,2
302,295,311,301,2
303,292,312,300,2
304,288,312,300,2
304,286,312,301,2
304,287,312,302,2
303,292,311,304,2
301,299,309,305,2
299,306,308,306,2
298,312,307,307,2
297,316,306,307,2
297,318,306,307,2
297,316,306,306,2
298,312,306,305,2
300,308,305,305,2
302,305,306,306,2
303,305,307,307,2
304,307,308,308,2
304,310,309,309,2
304,314,309,310,2
304,317,310,311,2
304,318,311,312,2
305,316,312,313,2
305,313,311,312,2
306,310,310,311,2
306,306,309,310,2
307,304,308,308,2
308,303,307,306,2
308,301,306,303,2
308,298,305,301,2
307,294,304,299,2
306,289,305,299,2
306,285,307,299,2
306,281,310,300,2
307,280,312,302,2
308,286,313,303,2
308,297,314,305,2
308,309,313,307,2
307,321,312,307,2
306,332,310,308,2
304,339,308,308,2
304,341,307,308,2
303,339,307,308,2
304,333,308,308,2
304,326,308,308,2
305,319,309,308,2
306,313,308,308,2
306,310,308,309,2
307,309,307,310,2
307,307,306,310,2
308,304,304,310,2
308,301,302,309,2
309,298,299,305,2
309,295,297,301,2
308,296,297,298,2
308,301,298,297,2
307,309,299,296,2
306,318,299,296,2
305,325,298,297,2
304,330,297,299,2
303,332,297,300,2
304,332,299,302,2
304,331,302,303,2
304,329,304,303,2
304,324,306,303,2
304,316,307,303,2
304,307,308,304,2
304,297,309,306,2
305,286,309,307,2
306,276,309,307,2
308,268,310,306,2
310,264,311,305,2
311,263,312,304,2
310,266,312,302,2
307,274,312,301,2
305,286,311,300,2
303,301,309,300,2
302,314,307,300,2
300,323,304,298,2
299,326,301,297,2
299,326,299,296,2
300,325,298,296,2
301,322,300,296,2
303,318,302,297,2
304,316,304,299,2
305,315,307,301,2
305,315,308,304,2
306,314,309,307,2
306,314,309,308,2
307,315,309,309,2
306,315,309,309,2
305,313,310,308,2
305,310,311,307,2
305,308,311,306,2
305,305,312,305,2
305,305,312,305,2
305,307,312,306,2
306,310,312,308,2
305,312,311,309,2
305,311,310,310,2
304,304,309,309,2
304,295,308,309,2
305,284,309,309,2
307,275,309,310,2
308,272,310,311,2
309,277,311,312,2
310,286,311,313,2
309,298,310,313,2
307,311,307,312,2
304,322,305,311,2
302,330,303,309,2
300,331,303,309,2
300,329,303,309,2
300,324,304,309,2
301,318,305,310,2
302,311,305,311,2
303,304,305,313,2
303,298,305,314,2
303,295,304,314,2
302,294,303,311,2
301,296,302,309,2
301,301,301,307,2
301,306,302,306,2
302,309,303,306,2
303,312,304,306,2
305,313,305,307,2
306,313,305,307,2
308,310,305,306,2
310,306,305,305,2
311,301,305,305,2
311,297,305,305,2
310,294,304,304,2
309,293,305,304,2
308,296,305,304,2
307,300,305,304,2
306,303,305,304,2
305,304,304,303,2
304,305,303,303,2
304,308,301,302,2
303,309,299,300,2
301,309,297,300,2
300,305,295,299,2
300,300,295,299,2
301,292,296,300,2
302,283,299,302,2
304,276,303,304,2
306,273,305,307,2
307,273,307,310,2
308,276,307,310,2
307,278,306,310,2
307,281,305,308,2
306,286,305,308,2
306,290,306,309,2
306,295,306,310,2
306,300,307,311,2
306,305,307,312,2
306,309,306,312,2
306,310,305,312,2
305,311,303,311,2
305,312,302,310,2
305,314,301,310,2
305,315,300,311,2
306,314,299,312,2
305,311,300,312,2
305,306,301,311,2
305,298,303,311,2
306,290,305,311,2
306,284,308,311,2
306,283,309,311,2
304,288,310,311,2
303,297,310,310,2
301,303,309,309,2
301,306,309,308,2
301,305,309,309,2
303,300,309,310,2
304,296,310,311,2
305,297,310,312,2
306,302,310,312,2
307,309,308,312,2
306,318,306,311,2
305,325,304,309,2
305,326,303,308,2
305,322,302,306,2
305,318,303,305,2
307,315,305,306,2
308,314,307,307,2
308,318,308,309,2
308,322,309,311,2
307,325,309,312,2
307,326,308,313,2
307,325,307,313,2
307,321,306,313,2
307,317,304,312,2
307,313,303,311,2
306,310,303,309,2
305,309,303,308,2
305,309,303,306,2
304,308,303,305,2
304,308,304,303,2
305,308,304,302,2
305,310,304,302,2
305,312,303,304,2
304,315,301,305,2
304,317,299,306,2
304,318,297,305,2
305,316,295,303,2
305,313,293,300,2
306,306,292,299,2
306,299,293,298,2
306,290,295,298,2
307,283,298,300,2
308,279,302,303,2
309,280,306,306,2
310,285,309,309,2
310,291,311,312,2
310,297,312,314,2
310,300,313,316,2
310,301,312,316,2
310,301,310,315,2
309,301,307,314,2
308,304,304,312,2
307,310,301,311,2
305,320,299,310,2
304,329,298,309,2
303,336,298,310,2
303,340,297,310,2
302,340,298,310,2
301,336,298,308,2
300,332,299,307,2
301,328,301,306,2
301,323,303,306,2
301,321,305,307,2
301,318,306,308,2
301,316,307,309,2
302,313,307,309,2
303,311,307,309,2
304,308,306,308,2
305,303,305,307,2
306,298,304,306,2
306,293,304,305,2
306,289,304,305,2
306,284,304,305,2
306,280,303,305,2
306,278,303,306,2
306,281,302,305,2
307,286,300,305,2
306,293,299,303,2
306,302,299,303,2
304,312,299,302,2
303,319,300,302,2
301,323,302,302,2
301,322,303,302,2
301,320,306,302,2
302,318,308,303,2
303,316,311,305,2
305,316,313,308,2
306,319,313,310,2
307,322,313,312,2
307,326,312,313,2
306,327,311,312,2
305,324,310,309,2
304,316,309,307,2
304,307,309,307,2
304,297,309,307,2
305,288,308,306,2
305,281,307,306,2
305,280,304,305,2
304,281,301,304,2
303,284,297,303,2
303,285,296,302,2
303,285,297,303,2
304,286,299,305,2
305,291,301,307,2
305,296,303,308,2
304,299,303,308,2
304,301,303,308,2
304,304,302,309,2
305,308,301,309,2
305,309,300,309,2
304,306,299,308,2
304,303,299,306,2
303,300,299,304,2
303,297,299,302,2
303,295,300,302,2
303,297,300,303,2
302,303,301,304,2
302,310,301,306,2
302,314,301,307,2
303,317,302,308,2
304,318,302,309,2
306,316,302,309,2
307,308,303,308,2
308,297,303,308,2
310,287,303,307,2
311,281,302,307,2
311,280,302,307,2
311,284,301,308,2
310,297,300,307,2
308,314,299,306,2
306,330,297,306,2
305,342,296,306,2
304,349,295,306,2
304,350,295,306,2
304,348,296,306,2
304,343,296,307,2
304,339,296,306,2
303,334,296,306,2
301,329,295,305,2
300,326,295,305,2
299,324,295,304,2
298,322,295,305,2
299,318,296,304,2
299,310,297,303,2
300,300,298,301,2
302,289,299,300,2
304,280,300,300,2
307,275,303,301,2
308,274,305,303,2
309,281,309,305,2
308,291,310,307,2
306,303,310,309,2
304,312,309,311,2
302,319,306,311,2
299,326,303,309,2
298,331,300,306,2
297,333,297,304,2
298,333,296,303,2
300,331,296,302,2
303,326,297,302,2
305,323,301,303,2
306,320,304,306,2
307,318,307,308,2
308,316,309,309,2
308,314,310,309,2
307,310,310,309,2
307,305,310,309,2
307,299,311,310,2
308,293,312,312,2
309,290,313,313,2
309,288,314,314,2
310,289,314,314,2
311,294,315,314,2
311,301,316,315,2
312,308,315,316,2
312,313,315,316,2
310,317,315,314,2
309,317,314,311,2
308,313,313,306,2
306,305,311,302,2
305,296,310,299,2
305,287,310,297,2
305,281,311,298,2
305,280,311,299,2
305,285,311,300,2
305,292,311,302,2
304,299,311,303,2
303,305,311,304,2
302,309,310,304,2
301,307,309,303,2
301,302,308,302,2
302,293,308,301,2
304,286,308,300,2
305,283,309,301,2
307,286,309,302,2
308,294,311,304,2
309,301,311,305,2
307,307,310,306,2
305,313,309,307,2
303,319,308,307,2
302,325,305,308,2
301,330,303,307,2
301,333,300,306,2
302,334,299,305,2
303,334,299,303,2
304,332,298,302,2
306,325,298,301,2
307,313,298,300,2
309,298,298,300,2
311,283,301,300,2
313,269,303,301,2
315,259,307,302,2
317,255,310,302,2
317,257,312,302,2
316,263,314,303,2
315,271,315,305,2
314,277,315,308,2
314,283,313,309,2
313,292,312,309,2
312,305,309,309,2
310,323,306,308,2
308,342,303,305,2
305,355,301,304,2
303,361,301,304,2
302,359,302,304,2
302,352,303,305,2
302,342,304,306,2
302,333,304,307,2
303,325,304,308,2
304,318,304,309,2
306,315,305,310,2
308,314,305,311,2
310,314,304,312,2
310,312,302,311,2
310,311,301,310,2
311,311,300,309,2
312,310,301,308,2
312,307,303,307,2
311,304,305,306,2
309,304,306,305,2
307,303,306,303,2
306,296,306,301,2
306,282,306,299,2
306,266,306,296,2
307,251,307,294,2
309,240,307,292,2
310,239,307,291,2
311,250,307,293,2
310,269,305,295,2
307,290,302,296,2
302,307,301,297,2
299,315,300,297,2
298,314,300,296,2
299,306,299,297,2
301,293,298,297,2
303,277,296,297,2
305,260,294,296,2
306,248,292,295,2
308,244,291,296,2
309,250,292,297,2
309,263,293,299,2
308,279,294,298,2
306,296,293,297,2
304,307,293,297,2
302,305,296,296,2
302,290,300,296,2
303,267,307,297,2
306,242,314,299,2
310,220,321,302,2
313,208,326,306,2
314,214,328,310,2
314,238,327,313,2
313,269,324,314,2
311,297,320,315,2
310,311,314,313,2
308,305,308,310,2
307,281,303,304,2
308,249,300,300,2
310,218,299,297,2
312,199,299,296,2
313,197,301,295,2
313,216,303,296,2
311,249,304,297,2
307,283,306,298,2
304,307,306,299,2
303,320,308,302,2
303,326,310,305,2
304,331,311,306,2
305,336,310,306,2
306,338,309,306,2
307,336,308,305,2
308,333,306,305,2
309,324,304,305,2
310,308,303,305,2
311,291,302,305,2
311,279,302,306,2
310,272,301,306,2
309,270,301,304,2
308,271,300,304,2
308,280,301,304,2
308,298,304,305,2
308,324,307,306,2
308,353,309,308,2
309,373,312,310,2
309,377,313,310,2
310,364,313,311,2
311,340,312,311,2
313,311,312,312,2
314,279,313,312,2
314,251,312,311,2
314,234,309,309,2
313,230,307,306,2
311,238,304,304,2
311,257,302,303,2
310,286,301,303,2
309,315,300,303,2
308,334,300,304,2
306,341,298,303,2
306,335,296,302,2
305,318,293,299,2
304,300,289,295,2
305,288,284,292,2
306,289,278,289,2
307,302,273,288,2
308,322,271,290,2
307,341,273,293,2
307,355,277,298,2
306,360,284,301,2
308,357,293,304,2
309,346,301,305,2
311,330,307,306,2
311,311,311,306,2
310,295,313,306,2
309,283,312,305,2
308,278,310,304,2
307,281,308,303,2
307,291,306,303,2
307,303,305,302,2
308,317,306,303,2
307,330,310,305,2
306,340,314,306,2
306,343,317,307,2
307,337,320,306,2
308,325,323,307,2
310,310,325,307,2
312,297,326,307,2
313,291,326,307,2
313,293,324,308,2
311,301,322,309,2
308,313,318,311,2
304,324,314,312,2
302,330,312,315,2
301,329,311,318,2
302,322,312,319,2
303,312,313,318,2
304,305,314,315,2
306,304,315,312,2
307,303,315,308,2
307,302,314,303,2
307,301,312,300,2
308,304,310,298,2
307,311,308,298,2
306,320,306,298,2
305,333,304,298,2
304,345,302,300,2
303,352,300,301,2
304,351,300,302,2
305,342,300,303,2
308,324,302,305,2
311,301,305,307,2
314,276,309,308,2
316,256,313,309,2
316,246,317,309,2
316,247,319,310,2
315,258,319,310,2
313,275,317,310,2
311,293,315,311,2
310,303,314,311,2
309,303,314,311,2
308,297,314,311,2
308,291,315,312,2
308,289,315,313,2
308,293,315,314,2
308,300,314,313,2
307,312,312,312,2
305,324,309,309,2
304,332,306,306,2
303,332,304,302,2
303,328,301,298,2
303,323,298,296,2
304,315,297,295,2
304,305,297,295,2
305,293,299,296,2
306,279,302,299,2
309,263,305,302,2
311,249,307,304,2
313,243,308,305,2
313,250,309,307,2
313,270,309,309,2
311,299,308,312,2
309,329,307,314,2
307,352,306,316,2
306,366,306,318,2
305,373,306,318,2
305,375,305,318,2
306,372,304,318,2
306,366,304,317,2
306,357,302,315,2
306,346,302,312,2
306,334,301,309,2
306,322,299,306,2
306,310,299,304,2
307,297,299,304,2
308,285,301,306,2
310,277,302,310,2
311,274,304,313,2
311,276,305,315,2
309,285,305,315,2
307,300,305,314,2
305,316,304,314,2
303,331,305,315,2
303,340,305,316,2
303,344,306,318,2
303,342,306,318,2
304,338,305,317,2
304,335,304,314,2
305,334,302,312,2
304,336,301,310,2
304,337,300,310,2
303,339,300,312,2
302,341,299,313,2
301,341,298,313,2
301,338,298,312,2
301,334,299,311,2
301,329,301,310,2
301,324,303,311,2
301,317,305,312,2
302,310,307,314,2
302,304,308,315,2
304,298,309,316,2
306,293,310,316,2
308,290,309,315,2
311,291,309,314,2
313,295,308,313,2
315,302,307,312,2
314,313,305,311,2
313,324,303,310,2
311,330,302,309,2
310,331,302,307,2
309,328,302,306,2
309,324,302,305,2
309,321,302,304,2
309,321,303,304,2
310,322,303,304,2
309,323,303,304,2
309,325,304,305,2
308,325,306,306,2
308,324,308,307,2
307,320,310,308,2
307,317,310,309,2
309,314,311,310,2
310,312,311,311,2
310,311,311,312,2
310,311,311,312,2
308,313,311,312,2
307,314,310,312,2
305,316,310,312,2
305,319,309,310,2
305,322,308,308,2
306,324,306,307,2
307,323,305,306,2
309,321,304,305,2
310,318,304,305,2
312,314,304,305,2
314,312,304,304,2
316,311,305,305,2
318,312,307,306,2
320,315,311,306,2
320,318,314,307,2
320,320,317,307,2
319,322,319,307,2
316,323,319,307,2
312,322,317,308,2
308,320,312,309,2
305,315,306,310,2
304,309,303,311,2
304,304,301,311,2
305,300,301,312,2
307,295,302,312,2
310,288,306,311,2
313,282,310,310,2
315,276,314,310,2
315,271,318,309,2
313,271,318,308,2
310,278,315,308,2
308,291,310,308,2
306,306,306,307,2
305,314,303,306,2
305,314,302,306,2
307,308,303,307,2
309,302,304,308,2
311,299,306,310,2
311,300,307,312,2
311,303,308,312,2
309,309,309,310,2
308,316,308,307,2
306,321,307,307,2
305,327,306,307,2
304,335,306,307,2
301,344,304,307,2
300,351,302,308,2
299,353,301,309,2
300,353,301,310,2
301,352,302,311,2
303,350,304,312,2
306,347,305,312,2
307,342,307,312,2
309,335,308,312,2
309,324,310,312,2
311,309,312,312,2
313,292,314,312,2
316,273,317,312,2
319,251,319,311,2
321,234,319,310,2
321,221,316,308,2
318,217,309,305,2
314,223,302,303,2
312,240,298,303,2
310,264,298,304,2
310,292,300,308,2
309,322,302,312,2
306,352,303,314,2
303,374,303,315,2
300,387,302,315,2
299,391,301,314,2
298,390,300,314,2
297,384,300,315,2
298,377,300,315,2
297,367,300,316,2
297,358,300,316,2
297,350,299,317,2
297,343,300,317,2
299,336,300,317,2
301,330,301,317,2
303,324,302,317,2
304,317,304,316,2
306,309,305,317,2
307,303,306,316,2
308,300,306,316,2
309,299,307,314,2
308,300,306,313,2
307,301,305,311,2
305,300,303,309,2
302,298,301,306,2
300,298,298,303,2
298,300,297,301,2
298,303,296,300,2
297,310,295,300,2
297,317,295,301,2
297,323,295,303,2
297,328,296,304,2
297,329,297,306,2
298,329,298,307,2
300,328,299,308,2
301,326,300,309,2
303,325,300,309,2
304,320,301,309,2
304,311,301,309,2
305,298,302,309,2
307,282,302,310,2
308,269,301,309,2
307,259,299,308,2
306,254,296,308,2
305,257,295,308,2
303,269,295,308,2
301,287,296,308,2
299,305,298,308,2
299,319,302,309,2
299,329,305,310,2
300,335,309,310,2
301,333,312,311,2
303,325,314,313,2
305,315,314,315,2
308,305,313,317,2
309,300,314,318,2
311,300,314,318,2
310,305,315,317,2
309,313,314,316,2
307,323,313,315,2
307,331,311,316,2
307,333,310,316,2
307,328,309,316,2
306,318,310,316,2
306,308,310,316,2
305,302,311,316,2
306,302,310,316,2
306,306,309,315,2
305,314,306,313,2
304,322,304,310,2
303,327,302,307,2
304,329,301,306,2
304,329,302,305,2
303,329,304,306,2
303,328,305,308,2
303,324,306,309,2
304,317,308,310,2
305,308,309,311,2
306,298,309,311,2
307,289,310,311,2
309,284,311,311,2
309,280,311,310,2
310,281,310,309,2
309,286,308,307,2
308,293,307,305,2
307,300,306,304,2
306,307,305,303,2
305,314,304,303,2
304,322,302,303,2
302,328,300,304,2
300,333,299,305,2
299,335,299,306,2
298,332,299,307,2
299,325,301,307,2
300,317,301,307,2
300,309,301,306,2
300,304,300,304,2
300,300,298,303,2
299,297,296,302,2
299,297,296,302,2
298,301,295,302,2
298,303,295,301,2
298,304,294,300,2
298,302,292,298,2
298,302,289,296,2
298,304,285,294,2
297,307,282,292,2
296,313,282,292,2
295,321,286,294,2
296,332,291,299,2
297,341,298,305,2
298,344,303,310,2
298,341,306,312,2
298,333,307,313,2
299,324,308,313,2
300,316,309,311,2
301,310,310,310,2
303,305,311,309,2
304,299,312,308,2
306,294,311,307,2
307,288,311,309,2
308,282,310,311,2
309,275,309,312,2
308,273,308,312,2
308,276,308,313,2
308,285,308,314,2
307,299,309,314,2
305,316,309,314,2
303,330,309,314,2
301,339,310,313,2
300,341,311,312,2
299,339,312,311,2
300,335,312,311,2
300,330,313,311,2
300,326,313,311,2
300,322,313,312,2
301,319,312,312,2
301,317,311,311,2
302,315,311,309,2
302,314,311,309,2
304,314,311,308,2
305,314,312,309,2
306,314,313,309,2
307,310,314,310,2
308,305,314,310,2
308,300,314,309,2
308,296,313,310,2
307,295,312,310,2
306,299,310,310,2
303,306,309,310,2
301,313,307,310,2
299,318,306,310,2
298,320,305,309,2
298,321,304,308,2
298,323,304,308,2
299,325,304,308,2
300,327,304,308,2
300,327,304,309,2
301,325,305,308,2
302,321,306,308,2
304,317,307,308,2
305,315,308,308,2
305,314,309,309,2
306,312,310,310,2
306,312,311,310,2
305,313,311,310,2
305,313,310,310,2
304,313,309,310,2
304,312,308,309,2
303,312,307,309,2
302,310,306,309,2
301,305,305,309,2
301,300,304,308,2
300,294,303,308,2
301,289,303,307,2
301,283,304,306,2
302,282,305,304,2
302,283,306,303,2
302,285,306,302,2
303,291,306,301,2
304,299,306,301,2
304,307,306,301,2
304,316,305,301,2
302,323,303,301,2
301,329,301,301,2
299,331,300,300,2
298,332,301,300,2
298,332,304,303,2
299,330,307,306,2
302,326,310,310,2
304,318,312,312,2
306,308,313,313,2
308,298,314,313,2
309,290,314,312,2
309,288,313,311,2
309,291,312,311,2
308,298,311,311,2
308,308,311,313,2
307,315,311,314,2
306,319,310,314,2
305,318,309,313,2
305,313,308,311,2
305,308,307,309,2
304,304,306,308,2
304,303,306,306,2
304,301,306,305,2
304,301,307,304,2
304,301,307,303,2
304,302,309,303,2
305,303,309,303,2
305,304,310,304,2
306,304,311,304,2
306,303,310,303,2
306,299,309,303,2
307,291,309,302,2
308,280,308,301,2
309,268,307,301,2
311,259,305,301,2
312,257,304,302,2
312,263,303,303,2
311,276,303,305,2
309,291,303,308,2
307,304,303,311,2
305,314,305,312,2
304,322,308,314,2
303,330,309,314,2
302,335,309,313,2
300,337,308,312,2
300,334,307,310,2
300,328,307,308,2
301,321,307,307,2
302,314,307,307,2
303,307,308,308,2
305,304,309,309,2
305,301,309,310,2
305,298,309,310,2
304,296,309,309,2
303,295,308,308,2
302,298,306,308,2
303,305,304,308,2
303,314,303,308,2
303,320,302,307,2
302,322,301,308,2
301,320,301,308,2
301,316,300,308,2
301,311,299,306,2
301,305,297,304,2
301,302,295,301,2
302,304,294,299,2
304,310,296,297,2
305,318,299,297,2
307,325,303,296,2
309,329,307,297,2
308,329,310,298,2
307,327,311,300,2
305,323,310,302,2
304,318,309,305,2
304,313,308,308,2
305,310,307,311,2
305,307,308,313,2
306,303,308,314,2
306,299,308,313,2
306,294,308,311,2
306,289,307,308,2
306,284,306,306,2
306,279,305,305,2
307,274,304,304,2
308,269,303,305,2
310,266,303,305,2
311,264,303,306,2
312,265,303,306,2
312,269,304,305,2
312,279,304,305,2
310,291,305,306,2
309,304,306,307,2
307,316,307,308,2
306,326,308,309,2
307,333,309,310,2
307,336,310,311,2
308,338,311,311,2
309,339,313,310,2
309,338,313,309,2
309,337,313,307,2
310,333,314,304,2
310,323,314,301,2
311,310,314,298,2
311,298,311,296,2
312,290,309,296,2
312,283,309,297,2
312,280,308,297,2
310,280,307,298,2
306,285,305,300,2
304,293,303,301,2
304,301,303,302,2
304,309,305,303,2
304,318,307,303,2
304,326,308,303,2
304,332,307,303,2
303,336,307,303,2
302,338,306,303,2
303,336,305,303,2
303,333,304,304,2
302,327,303,305,2
302,321,302,305,2
301,315,301,305,2
300,309,301,304,2
300,301,301,304,2
300,291,302,304,2
302,280,302,305,2
304,270,304,306,2
306,260,306,307,2
308,255,308,307,2
309,255,309,307,2
310,263,309,309,2
310,276,310,311,2
310,290,310,314,2
309,302,310,315,2
309,314,310,315,2
307,325,308,313,2
306,333,307,312,2
304,339,305,310,2
303,343,303,309,2
301,344,301,308,2
300,342,298,307,2
298,338,297,307,2
298,332,297,307,2
298,324,297,307,2
298,315,297,307,2
299,307,296,307,2
301,300,296,306,2
302,294,295,305,2
303,291,295,303,2
303,291,295,301,2
304,295,296,300,2
304,304,296,299,2
304,314,297,298,2
303,323,297,297,2
303,329,298,297,2
303,335,300,299,2
303,338,302,301,2
304,341,304,303,2
305,342,306,307,2
305,342,307,308,2
304,340,306,309,2
303,338,304,309,2
302,334,301,309,2
300,329,300,309,2
300,321,300,309,2
300,311,301,309,2
301,296,301,309,2
303,276,302,309,2
305,255,304,310,2
306,241,305,312,2
307,233,305,313,2
308,234,304,314,2
309,246,303,315,2
308,268,302,315,2
307,294,301,315,2
306,316,300,314,2
304,330,299,312,2
303,336,298,310,2
302,338,296,309,2
302,336,294,307,2
302,330,292,305,2
302,323,290,303,2
303,318,290,302,2
303,316,291,302,2
304,316,294,302,2
303,316,297,302,2
303,317,300,303,2
303,318,303,305,2
302,319,304,306,2
301,319,304,307,2
300,318,303,308,2
298,316,302,309,2
297,313,300,310,2
296,310,298,311,2
295,306,296,312,2
294,301,294,309,2
292,295,293,305,2
291,292,291,301,2
293,294,292,298,2
299,297,293,298,2
304,300,294,298,2
307,300,294,298,2
305,297,293,298,2
303,292,291,297,2
300,285,291,297,2
298,280,292,298,2
298,280,294,299,2
301,287,298,301,2
305,297,301,302,2
309,305,304,303,2
310,311,305,303,2
310,313,305,302,2
309,312,306,301,2
307,310,305,299,2
307,310,306,298,2
307,312,306,299,2
308,312,307,300,2
309,311,307,302,2
310,308,307,302,2
311,306,307,303,2
311,305,307,304,2
311,303,307,304,2
310,303,307,304,2
310,304,308,305,2
309,305,309,305,2
310,307,310,305,2
310,309,312,306,2
311,313,312,306,2
311,315,311,305,2
311,310,309,304,2
310,298,306,304,2
311,281,305,303,2
311,265,305,302,2
312,252,305,302,2
312,247,306,301,2
310,250,306,302,2
307,261,305,304,2
305,276,305,306,2
303,290,304,307,2
302,300,304,307,2
303,308,303,307,2
304,313,303,307,2
305,318,303,307,2
305,324,303,307,2
304,332,302,306,2
303,339,301,307,2
302,343,301,308,2
301,344,302,309,2
300,342,302,310,2
299,337,304,312,2
297,329,305,313,2
296,320,307,313,2
296,309,308,313,2
299,296,308,312,2
305,285,308,311,2
313,278,308,310,2
319,275,306,309,2
324,276,304,308,2
326,278,302,308,2
324,280,300,306,2
319,284,298,305,2
312,290,296,305,2
307,298,295,306,2
302,304,294,307,2
298,306,294,307,2
294,302,295,307,2
293,289,299,308,2
296,269,302,309,2
300,246,306,311,2
305,228,308,313,2
307,216,311,314,2
307,208,312,315,2
304,207,312,314,2
299,215,311,313,2
298,229,310,312,2
303,242,309,312,2
316,254,309,313,2
331,267,310,314,2
344,284,310,315,2
352,304,307,315,2
355,325,304,314,2
353,342,299,312,2
345,352,293,308,2
331,355,287,305,2
315,355,283,302,2
301,351,283,300,2
293,344,287,300,2
291,338,293,302,2
293,337,300,305,2
296,342,304,308,2
298,346,307,310,2
299,343,310,312,2
300,332,311,313,2
299,318,311,312,2
299,302,311,312,2
301,289,310,311,2
304,277,310,310,2
308,268,308,308,2
311,260,307,306,2
315,252,307,304,2
318,245,307,304,2
320,239,306,303,2
320,235,305,302,2
318,236,305,300,2
315,242,306,299,2
310,247,307,298,2
305,252,309,298,2
302,261,310,299,2
299,275,311,301,2
296,291,311,303,2
294,313,311,305,2
293,337,310,308,2
294,356,310,311,2
297,366,309,312,2
301,371,308,313,2
304,370,306,312,2
305,366,305,310,2
304,360,306,310,2
303,353,308,311,2
301,344,310,312,2
299,337,313,313,2
298,332,313,314,2
298,329,313,314,2
301,328,313,315,2
304,329,312,315,2
308,330,312,315,2
310,328,311,315,2
311,319,311,314,2
312,304,312,313,2
314,283,312,312,2
315,261,312,311,2
316,245,312,311,2
318,237,312,311,2
319,237,312,311,2
319,246,312,311,2
317,257,311,311,2
315,267,310,312,2
313,275,308,312,2
312,283,308,312,2
312,295,307,313,2
311,312,307,313,2
309,331,306,313,2
309,339,306,312,2
309,335,305,311,2
308,322,305,310,2
306,308,304,308,2
304,298,302,307,2
302,296,301,307,2
300,302,300,309,2
300,311,299,311,2
302,317,299,314,2
304,321,301,315,2
306,323,302,315,2
306,324,302,313,2
306,326,302,311,2
305,329,301,307,2
304,331,299,304,2
303,332,297,302,2
302,331,296,301,2
302,327,296,301,2
303,321,299,301,2
306,308,304,302,2
311,289,310,303,2
316,267,317,303,2
321,249,324,302,2
325,236,329,300,2
325,233,331,297,2
321,243,330,296,2
317,265,325,298,2
313,294,318,303,2
308,319,310,309,2
305,336,304,313,2
302,344,300,314,2
301,347,298,314,2
302,349,298,314,2
303,348,299,313,2
304,346,301,312,2
305,345,303,312,2
305,346,306,313,2
304,346,308,313,2
304,344,308,312,2
303,342,307,311,2
302,339,306,310,2
302,335,306,310,2
302,327,306,311,2
302,313,307,311,2
303,294,308,310,2
304,271,309,308,2
306,247,309,305,2
309,227,310,302,2
311,219,311,301,2
312,224,311,300,2
312,236,311,300,2
310,254,309,301,2
307,281,308,302,2
304,309,306,303,2
301,331,305,304,2
301,343,305,305,2
301,349,304,306,2
301,354,304,306,2
302,355,304,306,2
303,353,305,306,2
305,350,305,306,2
305,345,306,306,2
305,341,306,306,2
304,338,306,306,2
304,335,307,306,2
305,330,309,307,2
306,326,311,308,2
307,324,313,309,2
308,323,314,310,2
308,322,313,310,2
308,319,313,311,2
309,314,312,311,2
311,304,311,311,2
313,291,312,311,2
315,277,313,310,2
317,265,315,308,2
318,259,316,307,2
317,262,315,308,2
315,274,313,308,2
312,287,311,309,2
309,296,309,309,2
308,300,307,310,2
308,300,307,310,2
307,296,307,309,2
305,291,306,308,2
304,289,306,306,2
303,290,306,304,2
302,293,307,302,2
301,299,307,300,2
301,310,307,300,2
300,320,308,301,2
300,328,308,303,2
300,333,308,305,2
301,336,308,307,2
302,339,308,308,2
303,342,307,309,2
304,344,306,309,2
303,345,305,309,2
302,344,304,309,2
301,343,304,308,2
300,343,305,307,2
300,342,307,306,2
300,341,308,306,2
301,338,308,305,2
301,334,307,305,2
301,331,306,305,2
301,328,307,306,2
302,325,309,308,2
304,321,312,310,2
305,315,313,311,2
306,307,314,312,2
307,295,314,312,2
308,282,315,311,2
310,273,316,311,2
312,267,317,310,2
313,267,318,310,2
314,272,318,312,2
314,282,317,313,2
312,295,315,314,2
309,310,314,314,2
307,321,312,315,2
305,325,311,313,2
304,326,310,311,2
304,323,310,309,2
304,316,309,307,2
305,308,310,306,2
306,299,311,306,2
308,293,311,306,2
309,291,312,307,2
308,293,311,307,2
308,299,310,307,2
306,308,309,307,2
304,318,308,307,2
302,327,307,307,2
301,334,305,306,2
300,336,303,306,2
300,335,302,304,2
300,334,301,302,2
300,333,300,300,2
301,333,300,299,2
302,332,300,299,2
302,329,301,300,2
303,326,302,302,2
304,321,303,304,2
306,317,305,305,2
307,313,306,307,2
308,311,307,309,2
309,311,307,310,2
309,313,307,310,2
308,314,307,311,2
308,315,306,311,2
307,317,305,311,2
305,318,304,311,2
304,318,303,310,2
303,315,303,310,2
302,310,304,309,2
301,304,305,309,2
301,298,306,310,2
302,293,308,311,2
303,290,309,310,2
303,289,309,309,2
304,290,309,308,2
306,292,309,307,2
309,294,308,307,2
311,298,307,308,2
313,306,306,309,2
314,316,304,310,2
314,322,303,309,2
313,323,301,309,2
313,322,300,308,2
311,319,299,307,2
308,315,298,304,2
303,312,298,303,2
300,309,300,301,2
298,309,301,301,2
299,311,301,300,2
301,313,301,301,2
302,316,301,301,2
301,316,301,301,2
299,313,301,302,2
298,306,303,305,2
299,295,306,307,2
302,280,308,309,2
303,262,310,308,2
306,245,311,307,2
307,236,311,307,2
309,239,311,308,2
311,256,311,309,2
312,281,310,311,2
311,308,308,312,2
309,329,307,313,2
308,341,306,313,2
308,345,306,312,2
308,345,307,311,2
309,342,308,311,2
309,338,309,310,2
308,336,309,310,2
307,336,309,310,2
306,337,309,311,2
306,336,309,311,2
306,332,309,311,2
306,322,309,309,2
305,311,308,308,2
305,302,308,307,2
305,296,309,308,2
307,293,310,310,2
308,294,311,313,2
309,298,312,315,2
310,302,312,316,2
312,305,311,316,2
311,309,310,313,2
310,314,307,310,2
308,320,305,307,2
307,327,303,305,2
306,331,301,304,2
306,334,300,302,2
305,334,299,301,2
303,333,298,301,2
302,329,299,301,2
303,322,300,302,2
304,314,302,304,2
305,306,304,304,2
305,300,304,304,2
306,298,305,305,2
306,300,306,307,2
307,306,307,309,2
307,313,309,311,2
308,317,310,313,2
309,319,311,315,2
309,321,311,317,2
309,321,310,316,2
308,321,308,313,2
307,321,306,310,2
306,320,306,308,2
306,315,306,307,2
307,306,307,306,2
308,296,308,305,2
309,289,308,305,2
310,287,308,305,2
311,289,308,305,2
