304,291,296,298,0
304,302,294,297,0
304,314,293,297,0
303,323,293,295,0
303,331,293,294,0
303,344,297,297,0
305,357,304,301,0
306,367,311,305,0
307,370,316,310,0
308,358,320,314,0
308,333,321,315,0
307,306,321,314,0
307,289,319,313,0
307,277,315,309,0
306,268,310,304,0
306,261,301,298,0
305,258,291,293,0
304,258,281,288,0
303,257,273,284,0
302,256,270,282,0
300,255,276,283,0
299,256,287,287,0
298,259,300,291,0
299,265,312,296,0
301,275,321,301,0
303,289,326,306,0
306,304,329,310,0
307,317,330,312,0
308,332,329,312,0
308,346,326,311,0
306,354,324,310,0
306,355,321,309,0
306,346,320,307,0
307,327,317,305,0
308,305,314,304,0
309,289,309,303,0
308,282,303,301,0
307,288,298,299,0
305,307,294,297,0
304,332,293,296,0
303,352,293,295,0
301,359,297,294,0
300,352,302,295,0
299,332,306,298,0
300,309,310,300,0
302,287,312,302,0
304,272,313,304,0
306,263,314,305,0
307,262,315,305,0
309,269,316,305,0
310,285,316,305,0
311,307,316,306,0
312,335,316,307,0
312,364,315,308,0
311,383,313,309,0
309,378,311,310,0
307,354,308,311,0
304,327,305,312,0
302,307,303,312,0
301,297,301,312,0
301,295,299,312,0
301,294,299,310,0
302,291,299,308,0
303,286,298,305,0
304,282,293,302,0
302,278,289,298,0
301,278,286,294,0
300,280,286,292,0
300,284,290,292,0
302,289,296,294,0
304,294,302,297,0
306,302,307,298,0
309,314,310,299,0
311,325,311,299,0
312,333,310,300,0
311,335,307,301,0
309,330,305,303,0
308,316,304,307,0
306,298,303,311,0
306,280,303,315,0
307,268,304,319,0
308,265,303,321,0
309,271,300,322,0
310,280,296,320,0
310,291,292,317,0
308,299,287,312,0
306,305,284,306,0
303,311,282,303,0
302,320,283,300,0
301,329,285,299,0
300,332,289,298,0
299,326,294,297,0
300,318,301,300,0
302,311,308,303,0
305,306,313,308,0
308,303,316,313,0
310,301,318,316,0
312,300,317,318,0
313,300,316,320,0
314,299,315,321,0
315,296,314,321,0
314,294,314,320,0
313,295,316,319,0
312,301,319,319,0
310,307,322,319,0
309,311,323,318,0
310,314,322,317,0
310,318,320,316,0
310,324,317,314,0
309,331,314,313,0
309,339,311,311,0
309,349,309,310,0
308,356,308,311,0
309,358,308,313,0
310,355,308,314,0
311,348,308,316,0
311,340,308,316,0
309,330,306,316,0
307,319,304,315,0
304,310,303,315,0
303,305,302,314,0
302,303,303,315,0
303,304,304,315,0
303,307,304,315,0
304,311,304,315,0
304,314,304,314,0
305,315,304,312,0
306,312,304,311,0
307,307,304,309,0
307,303,304,307,0
306,307,303,304,0
304,320,301,300,0
302,336,298,296,0
301,350,297,294,0
302,355,295,292,0
302,343,294,292,0
303,316,293,293,0
303,284,293,294,0
303,261,295,296,0
304,251,297,297,0
304,251,299,300,0
304,257,300,304,0
304,270,300,309,0
304,286,301,313,0
304,302,303,317,0
304,313,304,319,0
305,315,306,319,0
305,305,307,318,0
305,286,310,317,0
306,269,312,316,0
308,260,313,316,0
309,259,315,315,0
309,266,315,313,0
310,280,314,312,0
309,297,314,312,0
309,314,313,312,0
307,321,312,313,0
306,317,311,312,0
304,305,310,311,0
303,294,309,310,0
303,288,309,309,0
304,286,310,310,0
305,286,311,312,0
306,288,311,314,0
306,290,311,315,0
306,296,308,315,0
306,307,302,313,0
304,323,296,308,0
303,342,289,302,0
302,357,283,294,0
302,367,281,289,0
303,368,285,290,0
306,360,293,299,0
308,348,302,310,0
310,337,308,318,0
310,329,309,322,0
309,320,309,324,0
308,309,309,323,0
307,296,312,322,0
306,284,316,321,0
306,275,320,320,0
306,273,323,319,0
306,276,323,318,0
306,281,320,318,0
306,287,315,316,0
306,294,310,315,0
306,300,305,315,0
307,308,304,314,0
309,316,305,314,0
310,326,306,315,0
312,338,305,316,0
312,350,304,318,0
311,356,301,319,0
308,353,297,319,0
306,339,293,317,0
303,320,291,315,0
302,304,289,313,0
301,294,287,311,0
302,290,288,311,0
303,288,293,310,0
304,286,297,311,0
306,286,301,312,0
308,290,303,312,0
310,301,305,312,0
312,318,306,312,0
312,336,307,312,0
311,350,307,311,0
309,354,304,309,0
307,342,302,306,0
306,322,301,303,0
304,303,302,302,0
304,291,303,302,0
304,285,304,302,0
304,280,304,302,0
304,281,305,303,0
305,290,305,304,0
306,306,306,307,0
308,328,309,310,0
310,346,311,314,0
311,352,311,315,0
311,347,310,316,0
311,335,310,316,0
310,319,309,316,0
309,299,308,315,0
307,279,306,314,0
305,262,305,313,0
304,253,305,312,0
303,249,305,311,0
303,248,305,311,0
302,248,304,310,0
302,251,304,308,0
302,258,304,307,0
302,270,304,305,0
303,287,303,304,0
305,304,303,305,0
306,318,303,308,0
307,325,303,310,0
307,325,304,312,0
306,320,303,313,0
305,314,304,313,0
304,311,304,313,0
304,308,306,313,0
305,306,306,314,0
306,304,306,315,0
307,300,304,315,0
308,295,300,314,0
309,290,296,311,0
309,287,293,309,0
308,286,290,305,0
307,286,288,300,0
303,291,287,296,0
300,298,288,294,0
297,304,291,296,0
296,309,295,299,0
297,314,299,303,0
299,324,302,305,0
300,337,303,306,0
301,351,304,307,0
301,366,304,306,0
301,375,303,304,0
300,371,302,302,0
300,356,302,300,0
300,335,303,299,0
300,315,304,301,0
302,303,307,306,0
304,298,309,312,0
306,295,310,317,0
308,292,310,318,0
309,286,307,318,0
310,277,303,316,0
310,267,300,314,0
311,263,300,311,0
312,267,302,310,0
313,276,306,312,0
312,290,310,314,0
310,304,313,314,0
307,316,313,313,0
305,325,312,311,0
303,334,308,308,0
301,342,304,305,0
299,343,300,305,0
297,336,299,307,0
297,322,299,309,0
297,310,301,312,0
298,303,304,314,0
299,299,307,315,0
300,298,309,314,0
301,298,309,314,0
301,299,309,314,0
302,301,308,313,0
302,303,308,311,0
303,305,308,309,0
304,307,310,307,0
305,306,310,306,0
306,304,310,305,0
308,303,310,305,0
310,307,310,306,0
311,314,310,308,0
310,318,309,309,0
307,318,308,309,0
305,318,307,310,0
304,323,308,312,0
304,333,309,314,0
305,346,309,317,0
307,360,310,318,0
309,372,312,319,0
311,372,312,320,0
312,364,313,320,0
312,350,312,320,0
311,333,311,320,0
310,318,309,319,0
308,307,306,317,0
306,300,302,315,0
304,294,295,312,0
302,285,289,310,0
300,276,283,307,0
300,271,280,307,0
301,272,280,306,0
303,277,282,307,0
304,286,287,308,0
306,295,293,308,0
306,298,299,308,0
305,298,303,307,0
304,297,306,307,0
303,297,309,306,0
302,294,310,305,0
302,287,311,304,0
302,275,312,301,0
303,267,312,298,0
304,270,312,298,0
307,284,313,300,0
309,308,314,304,0
309,332,314,307,0
307,342,313,309,0
303,335,311,308,0
300,318,308,308,0
298,303,307,307,0
296,296,305,307,0
296,293,304,306,0
297,294,301,306,0
297,295,300,305,0
297,296,299,304,0
297,297,300,303,0
298,297,301,304,0
299,297,302,305,0
301,297,303,306,0
303,299,303,308,0
304,308,304,310,0
306,321,303,312,0
307,337,303,312,0
307,349,303,312,0
306,355,304,311,0
306,351,306,310,0
306,335,308,307,0
306,314,307,304,0
306,297,305,302,0
306,290,303,303,0
307,295,300,306,0
307,304,296,308,0
307,307,292,309,0
306,301,291,311,0
306,291,294,315,0
307,282,298,318,0
308,278,302,320,0
308,284,304,321,0
308,302,301,321,0
306,317,295,319,0
303,321,286,315,0
299,315,276,311,0
297,306,270,307,0
296,298,270,304,0
297,292,277,304,0
299,287,289,306,0
302,287,302,309,0
304,290,314,312,0
305,296,323,315,0
307,302,328,315,0
308,307,330,314,0
308,312,330,313,0
309,320,330,312,0
309,326,329,312,0
308,327,328,311,0
307,320,326,312,0
306,306,325,312,0
306,291,322,312,0
306,274,321,312,0
308,261,320,312,0
309,255,319,312,0
312,258,319,313,0
314,271,318,314,0
314,294,317,314,0
315,319,316,314,0
314,341,314,313,0
313,356,313,312,0
311,362,311,311,0
308,355,310,309,0
306,341,308,307,0
305,330,307,304,0
305,322,305,303,0
307,317,306,302,0
310,312,307,304,0
313,304,310,305,0
315,292,311,306,0
315,281,313,307,0
315,272,314,308,0
315,265,315,308,0
313,258,314,307,0
310,256,311,304,0
306,264,309,303,0
301,280,305,303,0
298,297,303,304,0
296,310,301,306,0
296,319,301,308,0
297,325,301,309,0
299,329,302,311,0
301,335,302,313,0
304,344,303,315,0
306,353,303,317,0
306,357,303,316,0
305,351,303,313,0
304,338,303,311,0
305,321,303,309,0
305,301,304,306,0
306,289,304,303,0
306,287,305,301,0
306,294,304,301,0
305,307,304,302,0
304,319,304,305,0
304,323,304,308,0
304,319,305,311,0
304,310,306,314,0
304,299,308,317,0
306,293,308,319,0
309,297,309,320,0
312,307,310,320,0
313,321,309,318,0
312,332,306,317,0
310,336,303,315,0
307,337,302,315,0
305,335,301,315,0
304,335,302,316,0
305,340,304,317,0
306,345,305,318,0
306,346,306,318,0
306,343,305,318,0
305,341,304,318,0
304,341,302,316,0
303,335,298,313,0
301,325,295,309,0
299,315,292,306,0
299,311,290,303,0
300,310,288,302,0
301,309,287,301,0
302,308,286,301,0
303,306,287,300,0
304,293,287,299,0
305,278,287,301,0
306,268,288,303,0
308,267,288,303,0
307,269,286,304,0
306,272,287,307,0
303,276,291,310,0
301,281,296,313,0
299,286,303,315,0
299,292,310,316,0
299,299,316,316,0
300,306,320,316,0
301,314,322,317,0
303,321,322,318,0
304,326,319,318,0
304,327,313,317,0
303,326,307,316,0
302,325,300,314,0
300,324,294,311,0
299,324,291,308,0
299,323,292,306,0
299,322,294,306,0
299,319,296,307,0
299,314,296,307,0
300,312,294,308,0
300,316,292,308,0
300,323,292,308,0
302,331,293,307,0
303,334,298,307,0
306,329,306,310,0
310,320,315,314,0
312,309,322,318,0
314,302,326,320,0
315,303,328,320,0
315,312,328,320,0
315,323,326,319,0
313,335,324,317,0
311,339,321,314,0
308,335,318,312,0
305,326,315,311,0
302,314,313,311,0
301,302,311,313,0
302,293,310,314,0
302,287,309,316,0
304,285,308,317,0
305,285,308,318,0
307,286,308,318,0
310,292,309,319,0
312,305,309,321,0
314,321,310,321,0
313,331,308,319,0
309,335,304,315,0
305,332,299,309,0
301,326,294,302,0
297,317,288,296,0
295,311,284,292,0
294,306,283,289,0
293,302,285,290,0
294,299,290,293,0
296,298,298,298,0
299,299,305,305,0
302,301,310,309,0
305,304,310,310,0
308,309,308,310,0
309,315,304,308,0
310,320,300,306,0
310,319,296,305,0
311,316,296,308,0
311,316,297,312,0
312,322,296,314,0
312,331,293,314,0
310,337,288,313,0
309,335,284,310,0
306,323,282,307,0
305,308,284,305,0
304,295,291,305,0
304,289,301,306,0
303,286,308,308,0
302,283,312,309,0
302,280,313,308,0
303,276,312,307,0
304,272,312,306,0
305,270,313,305,0
306,269,314,303,0
307,270,316,302,0
309,271,318,301,0
310,272,319,302,0
310,279,319,303,0
311,293,317,305,0
311,310,314,306,0
311,329,312,306,0
312,346,309,305,0
312,356,307,303,0
311,358,306,299,0
309,354,306,297,0
306,348,308,296,0
305,346,309,297,0
304,348,309,298,0
302,348,308,299,0
299,337,306,299,0
297,318,306,300,0
295,298,306,301,0
295,284,306,303,0
296,277,308,305,0
298,276,310,308,0
301,279,312,310,0
303,283,314,313,0
304,286,315,315,0
306,289,315,317,0
308,293,315,319,0
308,297,314,319,0
309,300,313,319,0
309,303,311,319,0
310,305,309,318,0
311,305,308,317,0
311,306,306,315,0
310,308,306,313,0
310,311,306,311,0
309,316,305,309,0
308,320,305,306,0
307,322,307,304,0
307,319,310,302,0
306,307,313,300,0
306,290,316,299,0
306,276,317,299,0
307,270,317,300,0
305,274,315,301,0
304,285,312,302,0
303,299,308,302,0
301,314,304,301,0
298,327,302,300,0
298,335,301,300,0
299,335,302,300,0
300,329,304,301,0
301,322,305,303,0
302,316,306,304,0
304,310,306,304,0
305,307,306,303,0
306,305,305,303,0
307,303,305,302,0
307,299,304,302,0
306,293,304,303,0
306,289,304,306,0
305,293,305,308,0
304,305,306,309,0
302,318,306,309,0
302,327,306,310,0
301,330,305,310,0
301,333,305,311,0
301,337,304,313,0
301,335,303,313,0
301,327,300,313,0
301,316,297,313,0
301,307,294,312,0
302,302,292,312,0
303,301,292,311,0
305,307,292,309,0
305,319,293,305,0
305,339,294,302,0
306,364,296,300,0
306,387,298,298,0
306,403,301,298,0
304,407,304,298,0
303,393,306,300,0
303,362,307,303,0
303,321,309,307,0
304,280,311,310,0
304,249,314,314,0
305,234,316,317,0
305,230,316,319,0
304,234,315,319,0
303,241,313,319,0
301,251,310,317,0
300,261,307,315,0
299,270,305,313,0
299,278,303,312,0
300,284,304,311,0
301,289,304,311,0
303,293,305,310,0
304,296,306,310,0
304,298,306,309,0
303,299,305,308,0
302,299,304,306,0
302,297,304,305,0
302,292,304,303,0
302,286,305,302,0
302,282,305,301,0
302,280,305,301,0
302,280,306,302,0
302,282,307,304,0
303,286,307,306,0
303,292,308,308,0
303,295,307,310,0
302,295,307,310,0
302,292,306,310,0
303,289,306,309,0
306,290,307,309,0
309,300,306,310,0
309,317,305,311,0
309,333,304,312,0
307,339,304,311,0
304,338,305,310,0
303,334,305,309,0
303,329,305,308,0
303,324,305,308,0
303,321,305,308,0
304,315,305,308,0
304,303,305,308,0
305,295,305,308,0
305,299,306,310,0
307,318,305,312,0
309,344,306,316,0
310,361,306,318,0
309,360,307,318,0
307,341,307,317,0
305,315,307,316,0
303,290,306,314,0
302,273,303,312,0
300,264,298,309,0
298,261,292,306,0
296,263,286,302,0
296,269,281,299,0
296,276,278,297,0
297,283,279,296,0
299,291,282,297,0
301,302,286,299,0
302,315,289,300,0
303,327,291,301,0
303,336,294,302,0
302,337,300,305,0
302,333,307,310,0
302,327,313,315,0
303,324,316,319,0
304,323,316,321,0
305,325,314,322,0
304,327,309,321,0
303,325,303,318,0
303,318,297,312,0
302,307,293,307,0
301,296,290,302,0
301,287,289,302,0
302,283,289,303,0
304,286,292,305,0
307,298,295,308,0
312,320,299,312,0
317,351,304,318,0
320,371,311,323,0
319,367,315,325,0
315,348,316,325,0
311,326,317,324,0
308,309,316,324,0
307,298,314,323,0
305,291,311,321,0
303,287,307,317,0
302,285,303,313,0
301,284,300,309,0
301,283,299,306,0
302,285,299,305,0
302,288,299,305,0
303,292,299,304,0
303,297,299,304,0
304,305,300,304,0
304,315,301,305,0
304,322,303,305,0
304,325,305,305,0
304,323,306,304,0
305,314,307,304,0
305,303,308,304,0
306,294,309,305,0
308,292,309,306,0
310,294,310,307,0
312,297,311,308,0
313,299,312,309,0
313,300,313,310,0
313,296,314,310,0
311,292,312,308,0
309,291,310,306,0
307,299,307,305,0
307,314,305,304,0
307,334,303,304,0
310,352,303,305,0
312,363,303,306,0
313,364,304,308,0
311,353,306,310,0
310,332,307,312,0
308,309,309,314,0
308,289,310,316,0
308,276,310,317,0
307,267,310,316,0
306,258,308,313,0
304,250,305,310,0
302,243,303,306,0
300,241,299,302,0
298,243,296,299,0
297,251,293,297,0
295,263,291,295,0
295,276,289,294,0
295,288,290,294,0
297,301,292,296,0
299,310,297,299,0
301,317,301,302,0
302,323,304,304,0
303,324,305,306,0
304,321,303,306,0
305,315,301,307,0
307,309,297,307,0
309,305,294,307,0
310,307,291,308,0
309,312,290,310,0
308,319,293,312,0
306,323,296,313,0
304,323,300,313,0
302,313,305,313,0
302,299,310,313,0
301,285,314,313,0
302,278,316,313,0
302,278,317,313,0
303,283,317,311,0
304,289,317,311,0
305,296,316,312,0
307,301,315,313,0
308,304,313,313,0
309,304,310,312,0
308,303,307,310,0
308,304,303,306,0
306,306,298,302,0
305,313,294,297,0
305,324,293,294,0
306,337,294,296,0
308,350,295,301,0
309,360,298,308,0
309,360,300,314,0
308,348,301,316,0
306,326,301,316,0
304,303,301,315,0
303,286,303,314,0
303,278,304,313,0
303,277,306,313,0
303,281,308,314,0
303,287,309,314,0
303,292,309,313,0
304,294,308,312,0
304,294,306,310,0
305,294,304,309,0
306,296,303,308,0
306,299,303,307,0
307,304,305,307,0
307,310,308,308,0
307,318,311,309,0
308,323,311,310,0
307,325,310,308,0
306,325,309,305,0
305,325,308,303,0
305,326,308,301,0
305,328,309,301,0
306,335,309,302,0
306,345,308,304,0
306,349,306,305,0
305,339,305,305,0
303,320,305,305,0
302,303,307,306,0
302,293,309,309,0
304,287,311,312,0
306,283,312,314,0
308,277,314,315,0
309,274,315,317,0
310,278,316,318,0
310,284,316,318,0
309,287,317,318,0
308,285,316,317,0
306,281,315,316,0
305,278,313,314,0
304,277,312,313,0
304,279,311,312,0
304,283,311,312,0
306,288,311,311,0
307,296,311,311,0
308,306,311,310,0
309,315,310,310,0
309,321,310,310,0
310,323,310,309,0
310,318,310,308,0
311,309,309,307,0
311,301,308,305,0
312,297,307,303,0
312,298,305,301,0
311,301,301,297,0
309,304,298,294,0
306,306,295,291,0
305,305,295,291,0
305,303,297,294,0
306,301,300,299,0
308,303,303,303,0
309,307,307,305,0
309,310,310,303,0
309,313,312,300,0
308,312,312,295,0
307,306,310,290,0
305,300,309,289,0
303,295,308,291,0
303,293,307,293,0
302,292,306,295,0
302,291,304,295,0
302,291,304,295,0
303,294,305,296,0
305,300,308,299,0
306,308,310,301,0
307,317,312,303,0
307,324,313,305,0
308,330,316,305,0
309,332,317,306,0
309,329,317,305,0
308,322,316,304,0
306,316,315,302,0
304,313,313,300,0
303,313,311,301,0
304,319,311,303,0
306,326,312,306,0
308,327,313,307,0
310,319,315,308,0
312,306,317,309,0
313,292,318,309,0
313,283,320,309,0
313,281,321,308,0
311,283,322,307,0
310,287,321,306,0
308,287,320,303,0
306,286,317,301,0
305,284,315,300,0
304,282,312,299,0
303,282,311,299,0
304,282,311,301,0
303,285,311,302,0
303,290,312,303,0
304,295,312,304,0
305,300,314,306,0
307,308,316,307,0
309,318,317,309,0
311,327,318,309,0
311,328,317,309,0
310,324,316,308,0
309,320,316,308,0
308,320,315,308,0
307,323,314,309,0
305,326,312,309,0
304,330,311,309,0
304,332,310,309,0
303,333,310,310,0
304,331,310,310,0
304,329,311,310,0
306,333,310,310,0
309,344,309,310,0
311,360,308,309,0
312,374,307,306,0
312,378,305,304,0
311,367,302,301,0
310,350,301,301,0
309,333,302,303,0
308,317,305,305,0
307,306,308,308,0
307,306,310,309,0
307,315,311,310,0
307,325,311,310,0
308,334,309,309,0
307,333,307,306,0
306,317,305,303,0
304,296,306,301,0
304,277,306,299,0
304,262,308,298,0
305,254,310,300,0
306,254,312,304,0
307,260,313,308,0
308,270,315,310,0
310,281,316,311,0
312,287,317,310,0
313,284,318,309,0
314,278,317,308,0
315,272,317,308,0
316,269,315,309,0
316,270,313,310,0
315,276,311,310,0
313,282,310,310,0
310,285,310,309,0
309,288,310,307,0
308,294,307,306,0
307,302,304,306,0
308,311,300,308,0
308,316,299,311,0
310,321,298,313,0
311,325,299,314,0
311,325,299,312,0
310,321,298,309,0
306,315,295,304,0
303,309,293,300,0
300,305,292,300,0
299,305,293,303,0
300,307,296,307,0
301,310,298,309,0
302,309,298,310,0
301,305,297,308,0
300,299,297,306,0
300,294,299,303,0
299,292,303,301,0
300,293,307,300,0
302,295,310,301,0
303,298,312,303,0
305,301,313,307,0
307,303,314,310,0
309,303,315,312,0
310,300,318,313,0
311,295,320,312,0
311,288,321,309,0
310,282,321,306,0
308,279,320,303,0
306,281,318,301,0
304,287,316,300,0
303,296,314,299,0
302,304,311,300,0
303,312,309,300,0
303,320,307,301,0
304,329,306,302,0
305,340,305,303,0
305,353,304,303,0
305,363,303,303,0
304,367,303,304,0
304,359,306,305,0
304,343,309,307,0
305,325,313,308,0
305,311,317,308,0
306,301,319,308,0
307,295,318,306,0
307,291,316,304,0
308,288,313,303,0
309,286,311,303,0
311,287,308,304,0
311,291,307,305,0
311,294,306,305,0
310,294,308,304,0
308,291,310,304,0
308,289,313,306,0
309,288,317,310,0
312,290,320,313,0
315,299,321,315,0
316,311,322,317,0
315,317,321,317,0
313,314,319,316,0
310,306,317,315,0
310,303,315,315,0
311,310,315,316,0
312,326,315,317,0
313,344,315,315,0
312,362,313,313,0
311,372,311,310,0
310,369,309,307,0
309,354,308,304,0
310,333,308,303,0
310,317,309,303,0
309,308,311,303,0
307,303,313,303,0
305,295,313,301,0
303,286,312,299,0
301,279,311,297,0
299,277,309,296,0
298,277,309,296,0
299,281,311,298,0
300,286,313,300,0
301,292,315,302,0
302,297,315,303,0
303,299,316,305,0
303,300,316,305,0
303,300,315,306,0
302,300,313,306,0
301,300,311,306,0
300,302,308,304,0
299,303,305,301,0
298,304,302,297,0
297,305,299,295,0
297,305,298,295,0
297,303,298,295,0
298,301,300,297,0
300,299,302,301,0
302,299,304,304,0
304,302,306,308,0
305,310,307,312,0
306,320,307,314,0
306,329,307,314,0
306,334,306,314,0
306,332,305,312,0
305,324,305,310,0
305,314,304,308,0
304,306,305,307,0
305,301,305,307,0
305,297,304,306,0
305,297,301,304,0
305,298,298,302,0
303,297,295,299,0
300,294,293,296,0
297,291,294,294,0
296,290,297,294,0
296,291,302,297,0
298,294,307,302,0
300,298,313,306,0
302,301,315,309,0
302,304,317,310,0
303,305,317,311,0
303,305,316,311,0
303,305,316,311,0
304,304,316,311,0
304,304,315,313,0
306,306,314,313,0
308,310,313,313,0
309,312,312,313,0
311,316,311,312,0
312,319,311,312,0
312,320,312,311,0
312,322,312,310,0
312,327,314,308,0
311,328,314,305,0
308,323,313,301,0
305,316,311,298,0
302,306,309,295,0
300,297,307,292,0
299,290,306,291,0
300,286,307,290,0
301,288,308,291,0
303,293,309,293,0
304,303,310,297,0
306,311,310,301,0
306,313,308,304,0
306,311,306,304,0
305,308,304,305,0
305,309,302,305,0
304,311,301,305,0
303,312,300,305,0
301,308,300,304,0
300,302,299,305,0
299,296,299,305,0
300,291,299,305,0
301,285,300,306,0
302,282,301,306,0
303,280,302,306,0
304,278,303,306,0
305,276,304,306,0
306,275,304,306,0
306,274,304,305,0
307,278,303,304,0
306,287,303,303,0
305,299,302,302,0
305,315,303,302,0
305,331,303,302,0
305,344,303,301,0
306,352,304,302,0
306,351,305,303,0
306,341,306,304,0
307,329,306,305,0
307,318,305,306,0
307,312,304,308,0
308,310,303,309,0
309,312,302,310,0
310,317,303,311,0
310,320,304,311,0
309,321,306,309,0
307,319,306,308,0
305,316,305,306,0
304,312,304,306,0
305,311,303,307,0
305,313,302,309,0
306,319,302,312,0
308,325,303,313,0
308,328,304,315,0
307,323,305,315,0
307,310,305,314,0
306,296,305,312,0
305,284,305,309,0
303,278,305,306,0
302,279,304,303,0
300,286,303,300,0
299,299,301,297,0
299,314,298,295,0
299,327,296,295,0
298,331,294,294,0
297,330,292,293,0
297,324,292,293,0
297,316,293,294,0
298,308,295,296,0
299,299,296,300,0
302,292,298,303,0
304,287,300,306,0
305,290,302,309,0
306,298,303,311,0
306,304,302,311,0
305,306,300,309,0
304,307,296,306,0
302,307,293,305,0
301,307,289,303,0
301,308,288,302,0
301,309,291,303,0
301,309,295,305,0
301,309,298,305,0
300,308,299,304,0
298,303,299,302,0
297,300,299,299,0
296,297,299,298,0
296,293,301,300,0
297,290,305,306,0
300,288,311,312,0
303,292,315,317,0
307,302,318,320,0
310,314,320,322,0
312,325,320,322,0
312,329,319,321,0
312,326,319,320,0
311,319,317,319,0
310,312,316,317,0
309,306,316,316,0
307,299,314,314,0
305,293,311,312,0
304,289,308,309,0
303,288,305,307,0
304,290,303,306,0
306,296,303,307,0
308,305,304,308,0
310,316,305,309,0
310,322,304,310,0
308,321,302,309,0
306,316,299,306,0
304,312,298,305,0
305,308,300,305,0
305,303,303,306,0
306,294,306,308,0
305,286,308,307,0
304,283,309,307,0
304,284,309,306,0
304,287,309,305,0
304,293,310,305,0
306,301,311,304,0
307,310,311,304,0
307,319,311,304,0
308,332,310,305,0
308,346,310,306,0
309,358,311,308,0
309,359,311,308,0
310,350,312,307,0
310,332,312,306,0
310,311,310,305,0
308,294,308,303,0
307,285,307,302,0
306,283,306,303,0
306,284,305,303,0
306,288,305,304,0
306,293,305,305,0
306,305,304,306,0
307,324,303,308,0
309,347,302,309,0
311,367,301,310,0
312,379,301,311,0
313,376,302,310,0
311,355,302,308,0
309,324,303,305,0
306,295,304,303,0
304,272,304,299,0
302,259,304,299,0
302,255,305,300,0
303,257,307,303,0
304,261,309,305,0
304,270,309,305,0
304,282,308,305,0
304,296,305,304,0
304,307,302,303,0
304,313,300,302,0
303,311,298,301,0
303,305,298,299,0
302,303,299,298,0
302,307,302,297,0
303,315,304,299,0
303,322,305,300,0
302,323,306,301,0
301,320,305,303,0
301,319,305,305,0
302,318,304,308,0
303,318,304,311,0
304,316,303,313,0
306,312,303,315,0
307,305,303,315,0
306,293,304,313,0
305,280,305,311,0
304,269,307,308,0
304,261,309,306,0
303,257,311,304,0
304,258,312,305,0
304,262,312,307,0
304,265,312,308,0
305,267,312,309,0
306,270,312,308,0
306,277,311,308,0
306,286,310,307,0
305,294,308,306,0
305,301,307,305,0
305,307,306,304,0
305,311,306,303,0
306,316,307,302,0
307,320,306,302,0
307,321,305,301,0
306,320,304,300,0
304,316,302,299,0
302,312,301,299,0
302,309,300,300,0
304,315,300,300,0
307,330,300,302,0
309,349,302,303,0
311,365,304,304,0
311,365,305,304,0
310,346,305,302,0
308,322,304,302,0
306,305,302,302,0
305,298,302,302,0
305,293,301,302,0
305,287,301,303,0
306,282,302,304,0
307,280,303,305,0
307,280,305,306,0
308,282,307,307,0
308,283,307,307,0
309,286,306,307,0
307,292,304,306,0
305,299,302,305,0
304,307,300,305,0
303,313,301,305,0
302,311,302,306,0
303,304,303,306,0
303,295,304,307,0
304,289,305,308,0
305,286,306,310,0
306,287,306,310,0
307,289,306,310,0
308,294,307,308,0
308,300,307,308,0
308,303,308,308,0
308,305,308,308,0
308,307,308,308,0
308,311,307,307,0
307,317,305,306,0
307,319,303,304,0
306,317,300,301,0
306,313,298,298,0
305,309,296,297,0
304,307,295,297,0
303,306,294,298,0
303,310,293,300,0
302,318,291,302,0
302,323,290,304,0
302,323,289,305,0
301,322,287,306,0
300,319,287,307,0
298,313,287,308,0
297,308,290,308,0
296,306,294,308,0
295,304,300,309,0
296,304,307,311,0
297,305,312,313,0
298,306,315,316,0
299,308,316,317,0
301,307,316,317,0
301,305,315,317,0
302,306,314,318,0
302,309,313,317,0
302,313,312,316,0
302,316,311,314,0
301,314,310,311,0
301,308,309,309,0
300,303,308,307,0
300,300,307,305,0
300,299,306,303,0
299,301,304,302,0
298,306,304,302,0
298,309,303,301,0
298,308,303,302,0
297,305,301,303,0
297,302,300,304,0
297,300,299,304,0
298,297,298,305,0
299,292,298,306,0
300,287,299,306,0
301,282,301,307,0
303,279,303,308,0
305,279,304,309,0
307,281,305,309,0
309,281,306,310,0
310,282,307,310,0
312,283,309,311,0
313,287,310,311,0
315,292,311,312,0
316,299,312,313,0
316,308,311,313,0
313,317,310,312,0
309,326,308,310,0
304,332,305,307,0
300,334,303,304,0
297,333,301,301,0
295,327,299,299,0
294,321,298,297,0
295,316,297,297,0
296,312,296,297,0
298,310,297,299,0
300,308,299,302,0
301,305,302,305,0
303,304,303,308,0
303,303,304,311,0
304,303,305,312,0
304,302,305,312,0
304,300,304,312,0
305,300,304,311,0
305,304,304,310,0
307,313,305,310,0
308,324,306,311,0
308,332,307,311,0
308,333,306,310,0
306,331,306,308,0
305,334,305,307,0
305,347,306,307,0
307,368,307,308,0
308,391,309,308,0
309,403,309,308,0
309,400,309,306,0
307,376,307,302,0
305,336,304,298,0
303,290,301,295,0
302,245,298,294,0
301,209,298,293,0
301,186,299,293,0
302,178,301,295,0
305,184,304,298,0
308,202,306,302,0
310,227,307,305,0
309,253,305,307,0
307,275,301,307,0
303,292,297,307,0
300,304,293,306,0
298,314,290,306,0
298,321,289,306,0
297,326,288,307,0
298,328,289,308,0
298,330,290,310,0
300,331,291,313,0
301,332,292,314,0
303,331,294,315,0
304,328,297,316,0
306,324,299,315,0
307,320,302,315,0
308,318,305,314,0
309,318,307,314,0
310,321,309,313,0
310,324,311,312,0
310,325,312,310,0
309,324,313,308,0
309,322,313,306,0
309,320,311,304,0
309,320,308,302,0
309,321,304,299,0
310,320,300,297,0
310,314,297,294,0
310,305,295,293,0
310,295,296,293,0
311,290,299,295,0
312,294,304,301,0
313,305,308,307,0
314,318,311,311,0
314,328,312,314,0
314,329,313,316,0
314,321,313,317,0
314,307,313,316,0
314,298,312,315,0
314,297,311,315,0
314,302,310,313,0
313,306,308,311,0
312,304,306,308,0
309,298,303,305,0
308,293,301,304,0
308,290,299,303,0
308,290,299,303,0
308,292,300,303,0
309,294,302,304,0
310,295,304,304,0
311,297,306,304,0
311,299,308,305,0
312,303,309,307,0
312,307,310,309,0
312,311,310,310,0
312,315,309,312,0
312,318,308,312,0
312,319,308,311,0
313,321,307,310,0
314,323,307,309,0
315,328,307,309,0
315,335,308,309,0
315,342,308,309,0
315,347,308,309,0
316,350,307,310,0
316,348,306,311,0
314,341,305,311,0
311,330,303,311,0
310,322,304,312,0
310,320,307,313,0
312,323,310,313,0
313,324,311,312,0
314,320,310,310,0
313,309,308,307,0
311,288,304,304,0
307,262,300,302,0
305,242,298,301,0
303,232,300,302,0
304,231,303,303,0
305,238,306,304,0
305,250,307,304,0
306,262,307,304,0
307,268,307,304,0
308,269,307,304,0
308,269,307,306,0
309,271,308,307,0
309,277,309,309,0
310,288,310,310,0
309,304,309,311,0
309,328,310,312,0
308,348,309,313,0
307,353,308,312,0
305,346,306,311,0
302,337,303,310,0
300,330,299,308,0
300,327,297,305,0
298,328,295,301,0
297,327,294,297,0
296,323,294,294,0
297,320,297,294,0
300,317,301,298,0
304,316,306,303,0
308,318,311,308,0
312,317,314,311,0
313,310,313,310,0
311,301,311,308,0
309,296,311,308,0
307,296,312,309,0
306,298,314,310,0
306,300,314,311,0
306,300,315,312,0
308,298,315,312,0
309,294,314,312,0
309,289,313,311,0
309,283,309,309,0
308,280,306,307,0
306,280,302,304,0
305,282,299,302,0
304,286,298,300,0
303,293,298,300,0
303,300,300,302,0
303,307,302,304,0
304,314,304,305,0
304,322,306,306,0
304,328,307,307,0
304,331,309,309,0
305,337,310,311,0
306,345,311,311,0
305,352,312,312,0
306,352,312,311,0
307,346,314,310,0
308,331,315,310,0
311,314,317,311,0
314,301,318,312,0
318,295,319,314,0
319,296,320,314,0
318,297,318,313,0
313,293,315,311,0
308,288,310,309,0
304,284,307,307,0
302,282,304,305,0
300,285,303,305,0
300,293,303,304,0
301,303,302,304,0
302,311,301,302,0
303,315,299,301,0
305,315,298,299,0
305,308,296,297,0
305,297,294,295,0
303,287,292,294,0
302,281,292,294,0
301,277,293,296,0
301,276,296,300,0
304,278,300,305,0
305,284,303,308,0
307,295,306,311,0
307,307,308,313,0
307,316,310,315,0
306,323,311,315,0
305,326,313,314,0
304,326,315,314,0
304,326,318,313,0
304,326,319,313,0
304,328,319,312,0
304,329,318,311,0
304,325,317,310,0
304,317,314,309,0
303,306,313,308,0
303,296,312,307,0
304,289,311,306,0
304,286,310,306,0
304,286,309,306,0
303,285,309,305,0
302,285,308,304,0
301,288,306,303,0
301,295,305,302,0
302,304,305,302,0
304,313,305,302,0
305,317,305,302,0
305,319,306,301,0
305,328,306,301,0
305,343,307,303,0
306,364,309,307,0
307,384,311,311,0
309,393,313,312,0
307,381,314,312,0
306,353,314,311,0
305,316,314,310,0
304,278,316,310,0
304,250,317,309,0
304,234,318,309,0
305,232,319,309,0
305,240,319,308,0
304,252,318,306,0
303,267,316,304,0
302,284,315,304,0
302,302,314,307,0
302,317,314,310,0
303,327,314,312,0
302,330,314,312,0
302,329,314,311,0
302,329,315,310,0
302,335,316,309,0
303,345,317,309,0
304,354,317,309,0
306,357,316,308,0
307,352,316,308,0
308,340,315,308,0
309,327,315,309,0
311,318,314,309,0
311,314,313,309,0
311,316,312,308,0
310,319,311,308,0
308,320,309,307,0
306,318,307,306,0
304,307,305,306,0
302,293,303,304,0
301,281,302,302,0
300,277,301,300,0
300,280,301,299,0
301,286,300,298,0
301,292,299,298,0
302,296,298,298,0
303,302,300,299,0
303,301,303,300,0
302,295,304,299,0
301,286,305,298,0
301,281,306,298,0
302,286,307,299,0
303,298,309,301,0
305,313,309,304,0
307,325,309,306,0
309,332,310,308,0
310,330,310,310,0
309,320,309,312,0
308,308,308,312,0
306,298,308,312,0
304,296,306,313,0
303,297,305,313,0
302,302,306,314,0
303,308,309,316,0
304,315,312,317,0
305,320,314,317,0
306,320,315,316,0
306,315,315,315,0
305,306,315,313,0
303,300,313,312,0
302,297,312,310,0
302,297,312,310,0
302,301,311,310,0
303,307,310,310,0
304,318,309,312,0
305,331,309,313,0
307,342,310,314,0
308,349,311,315,0
309,348,312,316,0
309,337,312,316,0
309,318,313,315,0
309,296,312,313,0
308,273,311,311,0
307,255,310,308,0
307,243,309,305,0
306,242,307,302,0
306,252,305,301,0
305,268,303,300,0
303,283,301,299,0
301,292,300,299,0
300,301,299,298,0
300,315,299,297,0
302,333,300,298,0
302,345,301,298,0
301,346,301,299,0
300,338,302,301,0
299,327,304,307,0
300,318,307,312,0
301,312,309,316,0
301,310,311,318,0
302,315,312,319,0
302,323,312,319,0
303,332,311,318,0
303,339,310,316,0
303,338,310,315,0
304,327,311,315,0
305,311,312,314,0
305,296,313,313,0
306,289,313,312,0
307,289,312,311,0
308,297,312,310,0
309,310,312,310,0
309,324,312,309,0
308,333,310,309,0
307,335,309,308,0
306,333,306,307,0
305,322,303,305,0
304,306,300,303,0
304,290,297,301,0
304,276,293,299,0
303,264,291,296,0
302,255,292,295,0
303,249,296,295,0
305,248,303,298,0
307,251,309,303,0
309,261,314,308,0
310,279,315,312,0
310,302,314,316,0
309,323,312,318,0
307,338,311,320,0
305,343,310,322,0
304,340,308,322,0
303,331,307,322,0
302,322,306,320,0
302,315,308,319,0
302,308,310,318,0
302,303,312,317,0
302,301,313,315,0
302,300,311,313,0
302,298,309,310,0
302,296,308,308,0
303,295,307,306,0
304,298,307,306,0
307,307,308,308,0
310,319,308,310,0
313,330,309,312,0
314,336,308,312,0
313,333,306,311,0
311,322,305,308,0
308,309,305,307,0
307,298,306,306,0
306,289,307,306,0
307,285,309,306,0
307,283,312,307,0
308,287,314,308,0
308,297,315,308,0
307,309,315,308,0
307,322,313,307,0
306,330,310,306,0
305,330,306,304,0
305,325,304,303,0
305,322,301,301,0
305,324,299,300,0
305,332,298,298,0
306,345,297,297,0
307,352,299,295,0
306,347,300,294,0
304,329,301,293,0
302,304,302,293,0
302,280,303,294,0
304,262,305,298,0
307,254,308,301,0
308,254,310,303,0
308,260,311,304,0
308,271,311,304,0
307,286,310,304,0
307,299,309,304,0
307,309,309,305,0
307,311,308,305,0
307,309,307,305,0
309,303,307,305,0
311,300,307,307,0
313,299,307,308,0
314,300,308,308,0
313,300,308,307,0
311,298,307,304,0
308,296,303,302,0
306,293,299,301,0
304,291,296,301,0
303,290,294,300,0
302,291,295,301,0
302,294,298,301,0
303,297,301,303,0
304,299,303,304,0
305,299,304,305,0
306,298,303,305,0
306,297,302,305,0
307,299,301,306,0
308,303,303,307,0
308,308,306,308,0
310,316,308,310,0
310,326,309,311,0
309,336,309,311,0
308,343,308,310,0
306,347,307,308,0
305,347,306,307,0
304,344,305,306,0
303,342,304,306,0
304,343,304,307,0
304,340,304,308,0
304,332,304,309,0
304,320,303,310,0
304,311,303,311,0
304,305,302,312,0
303,303,301,311,0
302,303,300,311,0
300,302,299,309,0
300,297,299,308,0
300,293,300,307,0
301,289,302,308,0
303,288,304,309,0
304,290,307,311,0
306,295,309,312,0
307,300,309,312,0
307,303,309,311,0
306,302,308,311,0
305,299,309,310,0
304,297,311,310,0
303,297,314,310,0
303,298,317,309,0
304,299,318,308,0
304,299,317,306,0
303,295,315,304,0
302,288,313,302,0
301,282,309,301,0
301,279,307,301,0
302,280,308,303,0
304,282,308,305,0
305,285,309,306,0
306,288,309,306,0
306,294,308,305,0
305,298,307,303,0
304,299,306,303,0
302,298,306,303,0
302,297,307,305,0
302,298,309,307,0
302,301,310,309,0
301,307,311,312,0
301,313,311,313,0
301,319,311,314,0
301,329,310,313,0
301,341,309,312,0
302,354,308,311,0
304,360,307,309,0
304,355,306,307,0
304,339,305,305,0
304,321,305,304,0
304,310,305,305,0
305,307,305,305,0
305,310,304,306,0
305,312,303,306,0
305,308,302,305,0
305,298,301,306,0
304,288,302,307,0
303,283,304,307,0
302,287,307,308,0
302,298,310,310,0
303,309,311,311,0
303,318,309,309,0
303,319,306,306,0
301,314,301,302,0
300,306,299,299,0
301,300,298,300,0
303,294,300,304,0
306,287,304,307,0
309,283,308,310,0
311,284,311,313,0
312,291,313,314,0
312,300,313,315,0
312,311,313,316,0
312,324,313,316,0
312,340,312,316,0
313,356,312,318,0
314,367,312,320,0
314,363,312,322,0
312,345,311,323,0
309,322,309,322,0
307,302,307,320,0
306,283,304,317,0
304,266,302,313,0
304,249,300,308,0
303,237,300,305,0
303,230,301,304,0
304,229,302,304,0
305,235,304,304,0
305,249,306,305,0
305,272,308,306,0
304,295,310,307,0
303,314,311,308,0
303,329,311,308,0
303,344,310,307,0
304,361,310,308,0
306,377,309,308,0
308,386,309,308,0
309,382,309,308,0
309,364,308,306,0
308,340,306,304,0
307,318,304,302,0
306,302,302,301,0
306,293,300,300,0
305,289,298,300,0
306,286,298,300,0
306,286,297,301,0
306,286,297,301,0
307,287,297,303,0
306,287,295,304,0
305,286,293,305,0
305,287,292,307,0
305,287,292,308,0
306,287,293,309,0
306,286,295,309,0
307,287,298,309,0
308,298,301,308,0
309,318,304,307,0
309,339,306,305,0
308,355,307,303,0
305,367,306,300,0
302,366,303,297,0
299,351,300,295,0
295,326,295,292,0
292,304,292,291,0
291,289,291,290,0
291,280,292,291,0
293,276,294,293,0
295,275,298,297,0
298,277,303,302,0
301,282,307,306,0
303,290,309,309,0
304,299,311,311,0
305,306,310,311,0
306,312,310,312,0
307,312,310,312,0
308,306,310,312,0
310,300,310,313,0
312,300,311,315,0
313,305,312,317,0
312,309,312,317,0
309,309,311,316,0
307,308,310,315,0
305,306,309,313,0
304,304,308,311,0
304,303,308,310,0
305,306,307,309,0
306,315,307,307,0
307,324,306,305,0
307,331,306,304,0
308,330,306,303,0
309,319,307,304,0
310,303,308,304,0
311,290,308,305,0
311,284,307,305,0
311,286,306,305,0
310,293,304,305,0
308,302,303,305,0
306,309,303,306,0
305,312,303,308,0
305,310,303,310,0
305,304,302,309,0
305,296,302,308,0
305,286,302,307,0
305,275,302,306,0
305,268,301,305,0
305,266,301,305,0
305,270,301,305,0
305,276,302,306,0
306,285,304,308,0
307,293,306,310,0
309,303,308,313,0
312,317,310,316,0
315,335,312,318,0
317,352,313,318,0
317,359,314,316,0
315,351,314,313,0
312,334,312,310,0
309,317,309,307,0
308,307,305,306,0
306,305,302,305,0
304,307,300,305,0
304,312,300,305,0
304,313,301,305,0
306,309,302,306,0
307,300,304,306,0
309,288,306,307,0
310,280,307,308,0
311,278,308,310,0
311,286,307,311,0
309,298,306,312,0
306,311,304,313,0
304,319,302,313,0
302,320,299,313,0
300,318,296,311,0
298,315,293,309,0
298,312,290,307,0
297,308,289,305,0
297,306,290,304,0
298,305,294,305,0
300,304,298,308,0
303,303,301,310,0
304,302,304,312,0
305,303,306,313,0
305,308,309,313,0
306,316,312,312,0
307,330,313,310,0
308,349,312,308,0
308,365,309,305,0
308,373,306,303,0
307,368,304,302,0
307,347,304,302,0
307,320,304,302,0
307,296,305,303,0
307,281,306,305,0
307,276,306,307,0
307,278,305,309,0
307,283,305,311,0
306,287,306,312,0
305,289,306,313,0
304,289,305,313,0
303,289,305,312,0
303,290,304,312,0
303,296,304,311,0
303,305,304,311,0
302,318,304,311,0
300,334,305,312,0
299,348,306,313,0
298,352,307,312,0
299,349,306,312,0
302,341,303,311,0
306,330,299,311,0
308,316,297,310,0
309,304,295,309,0
310,297,296,307,0
311,299,299,307,0
312,306,303,308,0
312,310,308,310,0
312,309,312,311,0
312,304,313,312,0
311,299,313,312,0
310,293,313,312,0
309,288,311,312,0
308,286,308,311,0
307,290,305,310,0
306,297,304,309,0
304,300,302,307,0
303,301,302,305,0
304,304,303,303,0
306,313,304,301,0
307,323,304,300,0
309,331,304,299,0
310,334,305,298,0
310,327,306,298,0
309,312,307,298,0
306,292,307,299,0
305,274,307,300,0
302,259,306,299,0
300,248,305,299,0
300,242,304,299,0
299,241,304,298,0
299,244,303,300,0
300,251,302,303,0
301,260,303,307,0
303,270,304,310,0
305,282,307,312,0
305,294,309,314,0
305,307,309,315,0
303,322,308,316,0
302,337,307,316,0
302,347,305,315,0
302,352,302,314,0
300,357,299,311,0
298,361,295,309,0
296,364,294,307,0
296,362,295,307,0
297,354,298,309,0
298,344,301,312,0
300,330,304,315,0
301,314,306,317,0
303,302,308,318,0
305,296,310,317,0
307,296,313,316,0
310,302,314,315,0
313,311,314,315,0
315,318,313,315,0
316,318,309,314,0
316,310,306,313,0
315,299,304,314,0
313,290,303,314,0
309,288,303,314,0
305,287,302,314,0
302,288,301,313,0
299,290,301,312,0
298,295,301,311,0
299,301,303,311,0
301,307,306,310,0
303,311,309,311,0
304,311,311,310,0
304,310,312,310,0
302,313,313,310,0
302,320,312,308,0
300,328,311,306,0
300,334,310,304,0
300,334,309,303,0
302,326,310,304,0
304,314,311,305,0
306,304,312,304,0
306,296,312,303,0
305,291,311,301,0
304,288,309,300,0
303,289,310,302,0
304,293,312,305,0
304,299,313,307,0
305,304,312,308,0
304,305,310,306,0
303,302,307,303,0
301,297,304,298,0
300,290,301,294,0
298,286,300,292,0
297,285,299,291,0
297,288,297,293,0
297,294,294,294,0
298,302,291,294,0
298,311,289,295,0
300,317,289,298,0
301,319,292,302,0
302,317,297,306,0
302,313,302,308,0
302,307,307,309,0
302,302,310,309,0
303,298,311,308,0
304,297,310,307,0
306,296,309,306,0
307,298,308,305,0
308,299,308,305,0
309,302,309,306,0
310,306,311,308,0
310,313,312,311,0
309,324,311,314,0
308,333,310,316,0
306,337,311,318,0
306,335,312,318,0
305,327,313,317,0
306,317,313,315,0
306,307,313,313,0
307,301,312,312,0
307,298,311,312,0
308,300,310,313,0
310,313,310,315,0
311,339,310,318,0
313,371,311,318,0
313,400,311,317,0
313,413,312,316,0
312,398,312,313,0
310,358,312,311,0
310,313,313,310,0
310,280,313,309,0
310,259,313,308,0
310,248,313,307,0
309,240,313,306,0
308,234,312,304,0
306,231,311,302,0
305,230,309,301,0
305,235,308,300,0
305,243,307,300,0
306,254,307,301,0
307,268,308,303,0
309,284,309,306,0
310,299,310,307,0
310,310,310,307,0
308,315,309,306,0
307,313,308,304,0
306,305,308,303,0
305,293,307,303,0
305,284,307,302,0
304,278,307,302,0
303,279,307,302,0
302,287,307,302,0
301,300,307,302,0
301,316,306,302,0
301,330,305,302,0
301,339,304,303,0
302,340,304,304,0
304,335,304,304,0
304,326,304,304,0
305,318,304,304,0
305,312,304,304,0
306,310,304,305,0
307,313,304,309,0
308,319,304,312,0
310,328,304,316,0
310,336,303,320,0
311,337,304,322,0
310,327,305,323,0
310,312,307,322,0
310,299,310,321,0
310,291,313,318,0
310,288,314,316,0
309,289,314,313,0
307,293,313,310,0
305,296,312,308,0
304,297,312,307,0
305,299,312,306,0
306,305,312,306,0
307,314,310,305,0
309,323,308,304,0
309,328,306,302,0
309,324,301,299,0
308,317,297,295,0
305,312,292,290,0
302,310,287,284,0
299,313,282,279,0
298,316,281,278,0
298,316,284,282,0
300,313,290,289,0
302,308,298,298,0
305,307,305,305,0
307,309,310,309,0
309,314,313,311,0
310,320,316,311,0
311,325,318,311,0
312,329,320,313,0
313,331,321,314,0
315,329,322,316,0
316,325,324,317,0
316,317,324,317,0
315,308,323,317,0
314,303,323,317,0
314,304,322,317,0
313,307,320,317,0
312,305,319,315,0
311,298,318,313,0
311,292,317,313,0
311,289,316,313,0
311,288,316,313,0
312,289,315,313,0
312,292,314,313,0
312,296,313,312,0
310,301,312,311,0
308,307,311,308,0
305,312,309,306,0
302,315,308,304,0
300,316,308,304,0
300,314,308,305,0
302,306,310,305,0
305,296,312,306,0
308,287,313,306,0
310,280,313,306,0
311,272,311,304,0
310,267,309,303,0
309,265,309,302,0
309,266,309,301,0
309,268,309,303,0
309,272,309,305,0
309,278,310,307,0
309,290,310,309,0
309,305,310,310,0
308,317,310,310,0
307,327,310,309,0
306,329,310,308,0
305,327,311,308,0
305,322,311,308,0
304,318,310,307,0
304,317,309,307,0
303,316,308,307,0
304,315,308,307,0
305,310,307,307,0
306,301,306,308,0
307,291,306,309,0
308,285,306,309,0
310,282,307,310,0
310,285,309,310,0
310,291,310,308,0
311,297,311,307,0
312,301,312,306,0
313,302,311,304,0
314,303,311,303,0
314,308,311,302,0
313,314,310,300,0
311,322,308,297,0
309,334,304,295,0
305,346,302,294,0
303,356,302,293,0
303,360,304,295,0
304,360,307,300,0
305,353,310,305,0
306,341,310,308,0
305,326,309,308,0
305,315,308,308,0
304,309,306,306,0
303,310,305,304,0
302,315,306,304,0
302,323,308,305,0
304,328,311,308,0
306,326,313,310,0
307,319,314,312,0
308,307,314,312,0
308,297,314,312,0
307,294,313,311,0
307,300,312,311,0
308,313,312,311,0
309,326,311,310,0
309,329,311,309,0
308,321,309,307,0
306,307,306,302,0
304,296,303,298,0
303,293,301,297,0
303,299,301,299,0
305,309,303,301,0
307,316,306,304,0
309,318,311,308,0
310,310,318,313,0
312,296,322,315,0
312,280,324,316,0
311,269,323,315,0
311,265,321,314,0
311,268,319,313,0
311,274,317,313,0
310,282,315,313,0
308,290,313,312,0
306,295,309,310,0
305,297,305,308,0
304,297,301,307,0
303,294,297,305,0
302,293,295,303,0
303,295,296,302,0
304,298,298,301,0
305,302,303,302,0
307,305,307,305,0
308,306,311,307,0
309,308,313,309,0
311,311,314,310,0
311,313,315,311,0
311,312,315,311,0
309,308,315,311,0
307,302,315,312,0
307,296,314,312,0
307,288,314,313,0
307,280,315,313,0
308,272,315,313,0
309,268,314,313,0
310,269,313,313,0
310,277,312,312,0
309,291,310,311,0
307,311,307,309,0
306,335,305,308,0
306,358,304,308,0
307,380,303,308,0
308,399,302,309,0
308,405,303,310,0
307,396,304,311,0
305,373,306,313,0
303,344,309,314,0
303,317,311,314,0
303,299,312,312,0
303,289,311,311,0
303,285,309,309,0
303,283,308,308,0
303,285,307,308,0
304,288,307,309,0
306,292,307,311,0
308,298,307,313,0
309,308,308,314,0
309,317,307,315,0
309,321,306,314,0
309,324,306,312,0
309,321,305,309,0
308,312,305,306,0
307,301,304,304,0
307,293,304,304,0
308,292,303,305,0
309,299,303,306,0
311,312,302,307,0
311,327,302,308,0
311,339,302,307,0
310,340,301,307,0
308,328,300,306,0
308,310,301,304,0
307,294,301,303,0
308,287,301,303,0
308,288,302,304,0
309,295,303,306,0
309,301,304,308,0
309,305,305,310,0
310,304,305,312,0
309,298,304,312,0
308,291,303,312,0
306,284,302,311,0
305,280,302,311,0
304,278,304,311,0
305,279,307,310,0
306,280,310,311,0
308,282,311,313,0
310,285,312,314,0
313,289,311,314,0
316,293,310,313,0
319,298,309,312,0
321,303,309,311,0
320,309,310,312,0
318,318,309,312,0
313,326,308,312,0
309,332,306,311,0
306,334,304,311,0
304,334,301,310,0
304,332,299,309,0
303,332,298,309,0
302,337,297,308,0
300,340,297,306,0
299,338,297,303,0
299,331,296,299,0
299,325,295,298,0
300,317,295,300,0
302,308,298,306,0
303,298,302,312,0
305,291,304,317,0
307,286,307,322,0
309,284,308,323,0
310,282,309,323,0
310,276,309,320,0
311,268,310,317,0
312,260,311,313,0
312,256,310,309,0
310,262,307,305,0
308,278,303,303,0
306,293,298,300,0
303,301,295,300,0
300,304,293,301,0
299,307,293,303,0
299,311,295,305,0
300,315,299,306,0
301,320,304,307,0
302,324,307,308,0
303,330,309,310,0
305,338,310,311,0
307,348,310,311,0
307,356,310,311,0
306,359,309,311,0
305,354,308,310,0
303,345,307,309,0
302,336,306,309,0
303,329,306,309,0
303,321,306,310,0
304,310,305,310,0
304,300,305,311,0
305,292,306,312,0
306,289,307,311,0
307,290,307,312,0
308,294,308,312,0
309,297,309,312,0
309,298,309,311,0
309,299,309,312,0
310,303,309,313,0
312,310,309,313,0
313,319,309,314,0
314,327,309,314,0
313,331,308,313,0
311,334,307,311,0
309,336,305,308,0
305,334,303,306,0
303,328,301,304,0
302,317,300,304,0
303,307,300,305,0
304,298,300,306,0
306,292,300,307,0
308,293,300,307,0
309,298,300,305,0
310,301,301,305,0
310,302,302,304,0
310,298,302,303,0
309,291,303,302,0
308,284,302,302,0
306,281,302,301,0
304,279,302,299,0
302,277,302,298,0
303,275,303,298,0
305,272,304,299,0
308,271,305,302,0
309,275,305,304,0
310,283,304,305,0
310,292,303,305,0
310,301,302,307,0
310,311,302,309,0
311,322,303,311,0
311,332,304,312,0
311,338,304,312,0
310,341,304,312,0
309,340,304,311,0
308,336,304,312,0
306,331,304,313,0
303,325,303,314,0
299,319,301,314,0
296,315,299,314,0
296,311,296,313,0
296,311,295,310,0
298,314,294,307,0
300,320,294,305,0
302,325,295,304,0
304,330,297,303,0
307,333,301,304,0
308,331,304,306,0
309,323,307,308,0
309,314,307,308,0
309,307,307,309,0
310,304,307,310,0
310,304,308,310,0
309,306,308,309,0
308,306,307,309,0
306,305,305,308,0
305,301,303,307,0
304,298,301,306,0
304,304,300,305,0
305,321,301,305,0
306,348,302,305,0
308,375,303,305,0
309,392,303,305,0
310,390,304,305,0
311,366,305,304,0
310,331,306,305,0
309,298,307,305,0
307,274,307,306,0
305,261,306,306,0
304,255,305,307,0
303,253,304,306,0
304,256,303,305,0
305,262,303,304,0
306,271,302,302,0
307,280,301,301,0
308,289,301,301,0
308,297,300,302,0
308,303,298,302,0
307,303,296,301,0
306,299,292,299,0
305,296,289,295,0
304,296,288,291,0
304,297,289,290,0
306,296,293,291,0
307,294,295,292,0
308,291,297,293,0
309,290,299,294,0
310,291,299,293,0
311,292,299,293,0
313,293,300,294,0
315,291,301,296,0
317,286,303,299,0
316,280,306,303,0
314,278,309,309,0
312,281,311,314,0
308,289,312,319,0
307,301,311,323,0
307,316,310,324,0
307,327,308,324,0
307,336,306,322,0
306,342,305,319,0
304,341,302,315,0
302,336,299,310,0
298,328,296,305,0
294,319,294,299,0
291,314,293,295,0
290,315,295,294,0
291,322,297,294,0
294,330,299,294,0
297,336,301,294,0
302,339,303,297,0
306,340,305,300,0
308,339,305,303,0
308,340,304,305,0
306,344,304,307,0
304,348,304,309,0
300,346,303,310,0
297,334,302,308,0
295,318,300,306,0
294,304,300,303,0
295,294,299,300,0
296,291,298,299,0
297,295,298,302,0
298,303,297,307,0
298,313,295,310,0
297,322,294,311,0
295,328,293,311,0
296,328,294,310,0
299,321,298,311,0
304,312,302,311,0
308,304,305,312,0
310,300,309,313,0
312,297,310,314,0
312,293,310,312,0
311,286,308,310,0
309,279,307,308,0
307,275,308,309,0
307,275,309,311,0
307,277,310,314,0
306,279,311,315,0
306,281,310,315,0
305,285,311,314,0
304,291,311,313,0
304,300,311,313,0
304,310,312,313,0
305,320,312,314,0
307,329,312,313,0
310,336,312,314,0
312,336,312,315,0
315,331,313,316,0
316,319,315,317,0
316,302,314,315,0
313,282,313,313,0
311,268,311,310,0
308,261,311,309,0
305,262,311,308,0
303,269,311,307,0
302,278,312,308,0
302,291,312,308,0
303,307,312,308,0
305,326,312,308,0
308,346,312,308,0
312,362,312,308,0
314,370,312,308,0
315,366,310,307,0
314,351,308,306,0
311,331,307,306,0
309,310,307,306,0
305,292,307,306,0
303,281,308,305,0
301,277,308,305,0
302,278,309,305,0
305,282,310,305,0
308,286,310,305,0
311,292,309,306,0
312,298,309,308,0
312,303,309,311,0
310,302,309,312,0
308,298,310,313,0
307,295,311,313,0
306,294,312,315,0
307,297,312,315,0
308,304,313,315,0
310,314,313,313,0
313,323,311,311,0
315,328,309,307,0
315,326,308,303,0
314,319,307,300,0
311,312,306,297,0
307,309,304,295,0
303,310,303,293,0
301,314,301,292,0
300,316,299,290,0
297,307,296,289,0
294,294,293,287,0
291,285,291,287,0
290,283,291,287,0
290,285,293,290,0
291,289,296,293,0
293,291,301,299,0
297,290,308,306,0
300,286,313,312,0
302,282,317,315,0
304,278,318,316,0
306,278,319,317,0
308,283,318,318,0
310,296,317,320,0
311,318,316,322,0
312,347,316,324,0
312,372,314,324,0
311,381,312,323,0
309,371,310,321,0
307,347,308,320,0
305,320,306,318,0
304,295,304,317,0
303,274,303,316,0
303,259,302,315,0
303,250,303,313,0
303,246,303,311,0
303,244,303,308,0
302,245,302,306,0
301,250,303,303,0
301,259,303,301,0
301,273,306,299,0
301,290,309,298,0
300,303,313,297,0
299,309,315,296,0
298,312,315,296,0
298,314,313,298,0
298,317,311,300,0
299,322,309,302,0
302,330,307,306,0
305,336,307,308,0
307,336,308,310,0
307,332,308,311,0
306,325,309,311,0
306,318,310,311,0
307,312,310,312,0
307,307,311,311,0
307,302,313,311,0
306,297,313,312,0
306,290,314,312,0
305,285,313,311,0
305,282,312,311,0
305,281,310,309,0
304,283,308,307,0
304,290,307,305,0
302,302,307,302,0
301,315,308,299,0
300,322,308,295,0
298,326,309,293,0
297,328,309,293,0
298,327,309,293,0
298,324,310,295,0
299,321,309,296,0
299,322,309,299,0
301,328,309,301,0
302,332,309,304,0
303,334,310,306,0
305,335,311,308,0
308,335,312,311,0
311,336,313,313,0
314,338,313,316,0
316,339,314,316,0
317,336,314,316,0
315,329,314,315,0
312,319,314,314,0
310,305,314,313,0
308,289,315,312,0
306,278,315,310,0
304,273,314,309,0
302,274,312,307,0
300,280,310,306,0
298,288,307,303,0
298,295,305,301,0
298,298,302,299,0
299,296,299,299,0
299,291,298,300,0
302,287,299,302,0
304,288,302,304,0
306,291,305,308,0
308,296,307,311,0
310,302,310,313,0
311,308,312,314,0
311,311,313,315,0
312,312,314,315,0
312,311,315,314,0
312,304,315,313,0
312,293,314,311,0
311,283,312,308,0
312,273,309,305,0
314,265,307,301,0
316,261,305,298,0
317,258,304,295,0
315,256,303,292,0
313,255,302,292,0
310,258,302,294,0
308,265,303,297,0
305,272,304,301,0
302,281,304,303,0
300,289,304,305,0
299,297,305,305,0
299,305,305,305,0
299,312,305,304,0
299,320,306,304,0
301,331,307,304,0
303,341,309,306,0
305,345,310,309,0
306,341,310,311,0
307,333,311,312,0
308,325,311,312,0
308,321,312,313,0
308,323,312,313,0
307,329,311,313,0
306,335,310,313,0
304,340,310,314,0
303,344,310,316,0
303,349,310,316,0
303,355,309,316,0
302,365,308,316,0
303,375,307,315,0
304,376,307,314,0
304,365,308,312,0
305,343,308,309,0
306,319,307,307,0
306,301,307,306,0
307,293,307,306,0
307,289,306,306,0
305,288,305,306,0
303,286,304,306,0
302,284,303,307,0
302,284,303,308,0
302,284,302,308,0
302,283,302,307,0
303,278,302,307,0
304,274,303,306,0
305,276,305,307,0
306,283,306,307,0
307,294,307,307,0
309,310,308,308,0
311,329,310,309,0
312,347,311,310,0
311,357,311,309,0
309,355,310,309,0
306,342,309,310,0
302,326,308,309,0
300,312,307,309,0
298,303,306,309,0
298,301,306,309,0
298,306,305,309,0
299,314,304,309,0
299,322,301,308,0
300,328,297,306,0
300,331,295,303,0
302,328,295,300,0
305,320,297,299,0
308,306,301,301,0
311,292,304,306,0
312,285,307,310,0
311,288,307,313,0
309,300,307,314,0
307,315,306,315,0
304,325,305,313,0
302,323,305,312,0
299,311,305,310,0
298,296,305,309,0
298,285,306,308,0
298,279,306,308,0
298,275,305,308,0
300,271,305,308,0
303,267,304,308,0
306,262,304,307,0
308,257,303,306,0
309,252,303,303,0
309,251,303,302,0
310,256,303,303,0
310,268,303,304,0
309,289,303,307,0
309,316,303,310,0
311,342,303,312,0
312,360,303,312,0
312,371,302,310,0
310,369,300,306,0
307,352,296,302,0
304,330,293,299,0
303,313,291,300,0
302,302,292,304,0
303,291,294,307,0
304,282,296,309,0
305,278,298,310,0
306,279,301,311,0
307,282,304,311,0
308,285,305,311,0
310,287,307,310,0
312,291,309,310,0
315,297,310,310,0
316,303,310,309,0
315,310,309,308,0
313,316,306,307,0
309,314,303,306,0
305,305,299,304,0
302,294,296,302,0
300,284,293,300,0
299,277,292,299,0
299,276,294,300,0
301,279,297,301,0
303,283,302,304,0
305,287,306,306,0
304,292,310,308,0
303,299,312,309,0
302,308,313,309,0
302,319,313,309,0
303,325,313,308,0
304,324,311,307,0
304,322,309,305,0
305,320,308,305,0
306,320,308,306,0
307,322,308,308,0
308,323,309,310,0
309,320,309,312,0
309,317,309,314,0
309,313,308,314,0
308,307,308,314,0
306,304,306,313,0
303,305,304,312,0
301,314,302,310,0
299,328,301,310,0
297,339,301,310,0
296,343,300,309,0
295,338,300,308,0
295,327,298,307,0
294,319,297,305,0
295,316,296,304,0
298,319,297,304,0
302,326,300,304,0
306,326,304,305,0
308,317,308,306,0
310,305,311,309,0
311,297,313,311,0
312,291,313,313,0
312,286,313,312,0
311,281,313,311,0
311,276,313,309,0
311,272,313,309,0
310,267,314,309,0
310,260,314,310,0
310,252,314,310,0
311,247,314,310,0
311,249,314,310,0
311,253,312,309,0
310,258,309,307,0
309,267,306,305,0
308,283,305,304,0
308,305,306,304,0
309,327,308,304,0
309,344,310,306,0
309,355,313,307,0
308,356,314,307,0
307,348,314,308,0
305,335,314,306,0
303,323,311,305,0
301,316,308,302,0
301,313,305,300,0
303,315,303,299,0
305,320,301,299,0
305,324,300,300,0
305,327,300,301,0
304,327,301,303,0
304,323,303,304,0
303,313,306,305,0
302,304,308,305,0
302,298,309,304,0
302,295,309,303,0
302,293,308,302,0
303,290,308,300,0
303,286,307,298,0
304,286,305,298,0
304,291,305,298,0
305,301,305,299,0
305,310,305,300,0
305,315,305,300,0
304,311,304,298,0
303,301,304,296,0
301,291,303,294,0
300,285,301,293,0
299,284,299,294,0
300,286,299,295,0
301,291,300,298,0
303,297,303,301,0
305,303,307,305,0
308,311,310,308,0
310,319,312,309,0
311,328,312,308,0
311,339,313,308,0
312,352,313,307,0
311,356,312,305,0
308,346,311,302,0
305,326,308,299,0
303,304,307,297,0
302,288,307,297,0
303,278,306,295,0
304,272,304,293,0
306,271,301,290,0
306,273,298,287,0
305,278,295,284,0
302,281,292,282,0
299,285,291,282,0
297,289,290,282,0
296,294,292,283,0
296,298,296,285,0
297,299,300,288,0
297,298,304,293,0
298,297,308,298,0
299,297,310,304,0
299,298,311,308,0
301,300,312,311,0
302,301,314,314,0
304,302,314,315,0
305,305,315,316,0
306,307,315,316,0
306,307,315,316,0
307,304,315,315,0
307,299,315,314,0
308,292,315,312,0
308,286,314,309,0
309,280,312,304,0
308,276,310,300,0
308,278,309,297,0
307,285,308,299,0
309,295,309,304,0
311,308,310,310,0
313,322,311,314,0
314,334,312,316,0
314,339,313,316,0
313,337,313,314,0
310,333,311,311,0
307,338,309,308,0
304,350,308,307,0
303,366,308,306,0
302,377,307,306,0
302,375,305,306,0
302,360,304,305,0
300,339,302,305,0
300,321,303,304,0
300,312,303,303,0
301,310,304,303,0
301,316,304,302,0
303,326,305,302,0
304,329,304,302,0
304,318,303,300,0
304,297,300,298,0
303,276,297,295,0
303,261,295,292,0
303,254,294,290,0
303,256,293,290,0
304,263,294,292,0
305,275,296,296,0
306,290,299,300,0
306,305,301,303,0
307,316,302,305,0
307,321,304,306,0
306,318,304,305,0
305,310,303,304,0
305,300,302,303,0
304,293,302,301,0
303,285,302,302,0
303,279,303,304,0
304,276,304,308,0
304,275,306,312,0
304,273,309,316,0
306,273,312,319,0
307,276,313,320,0
308,283,314,321,0
308,293,314,320,0
306,302,314,319,0
304,308,312,316,0
302,311,310,314,0
301,312,307,312,0
300,312,305,312,0
301,312,304,311,0
302,312,304,311,0
303,313,304,311,0
304,316,305,312,0
305,319,305,313,0
306,324,305,315,0
308,329,305,316,0
310,338,303,315,0
311,353,302,314,0
312,367,300,313,0
313,375,299,311,0
312,368,298,308,0
310,346,297,305,0
309,315,296,303,0
307,289,296,302,0
306,272,296,302,0
306,263,298,304,0
306,262,301,306,0
306,265,303,307,0
307,271,306,308,0
309,283,308,308,0
312,300,309,307,0
315,312,309,305,0
317,318,309,303,0
317,319,307,301,0
314,317,304,298,0
311,314,300,295,0
307,309,297,292,0
304,305,294,290,0
302,301,293,290,0
301,297,292,292,0
301,296,293,295,0
302,296,294,300,0
303,296,295,302,0
303,300,295,304,0
303,313,296,304,0
304,332,294,302,0
304,353,291,300,0
304,371,290,300,0
305,376,291,301,0
305,362,294,304,0
305,337,297,307,0
305,315,301,313,0
307,301,303,317,0
308,292,305,320,0
309,284,306,321,0
310,277,307,320,0
311,270,309,320,0
311,267,312,319,0
311,266,316,318,0
310,268,318,317,0
310,273,317,316,0
309,279,316,314,0
309,286,313,313,0
309,293,312,313,0
309,301,310,311,0
309,309,309,309,0
308,318,307,306,0
305,326,306,303,0
302,332,304,301,0
299,332,303,300,0
298,324,302,301,0
298,314,302,304,0
299,305,303,307,0
301,301,304,310,0
304,298,306,312,0
308,296,308,312,0
312,293,310,311,0
316,289,311,309,0
319,285,312,307,0
322,281,311,305,0
323,277,311,303,0
324,276,310,302,0
321,277,308,301,0
319,283,307,301,0
315,295,307,302,0
312,315,306,304,0
309,336,305,306,0
306,355,305,309,0
304,367,305,311,0
303,368,305,313,0
301,357,306,315,0
299,335,306,315,0
297,310,307,314,0
297,289,308,313,0
298,273,309,311,0
299,261,309,309,0
300,254,307,308,0
301,252,305,307,0
301,255,303,306,0
302,260,302,306,0
303,269,302,306,0
304,281,304,306,0
305,293,305,307,0
306,306,306,308,0
306,316,307,308,0
307,322,308,308,0
307,325,308,308,0
308,325,308,307,0
308,322,308,306,0
307,317,307,305,0
308,311,307,304,0
309,304,307,303,0
310,297,307,303,0
311,291,307,303,0
310,290,307,304,0
310,295,306,305,0
308,304,305,305,0
306,314,304,305,0
304,323,302,305,0
302,329,300,303,0
301,331,300,302,0
300,329,300,301,0
301,328,301,301,0
302,331,302,302,0
304,338,303,304,0
305,344,303,306,0
305,342,302,308,0
305,332,302,309,0
305,318,303,311,0
305,309,304,312,0
305,303,304,313,0
306,299,304,314,0
306,293,305,313,0
306,286,304,310,0
305,279,303,307,0
305,275,301,303,0
304,276,299,301,0
304,283,297,299,0
303,293,295,297,0
305,304,295,297,0
307,313,297,297,0
310,318,301,297,0
310,314,304,297,0
309,307,307,299,0
308,300,310,302,0
306,298,312,304,0
304,304,312,306,0
302,314,310,307,0
301,325,310,307,0
301,333,310,306,0
303,335,311,306,0
304,329,310,305,0
304,318,308,302,0
303,309,305,299,0
302,305,302,295,0
299,305,298,291,0
297,306,295,289,0
296,307,295,290,0
296,308,296,293,0
297,307,299,297,0
298,304,301,302,0
301,301,304,306,0
304,301,305,309,0
307,308,306,311,0
312,322,308,314,0
315,343,311,316,0
318,362,313,316,0
319,369,314,316,0
318,355,314,315,0
316,331,314,315,0
314,311,313,315,0
312,303,312,317,0
311,304,312,318,0
309,309,312,320,0
308,314,311,320,0
307,312,310,319,0
306,305,309,318,0
305,296,308,316,0
304,287,307,314,0
304,277,307,311,0
303,265,307,308,0
303,256,306,306,0
303,252,306,306,0
304,253,307,306,0
305,259,308,308,0
308,269,309,310,0
309,284,310,312,0
310,300,310,313,0
309,310,309,313,0
308,313,308,312,0
307,310,306,311,0
306,304,304,310,0
305,300,303,309,0
304,301,302,308,0
304,307,302,307,0
303,314,304,304,0
302,320,305,302,0
301,321,305,301,0
301,317,305,299,0
301,311,306,298,0
301,306,308,298,0
302,302,309,300,0
303,303,310,302,0
305,309,311,305,0
306,324,312,308,0
307,343,312,310,0
309,363,310,311,0
308,376,307,310,0
306,374,304,308,0
303,358,304,306,0
302,335,306,306,0
303,313,309,307,0
304,299,311,309,0
305,293,312,310,0
306,294,312,310,0
307,296,312,311,0
307,292,310,309,0
306,281,306,307,0
305,270,304,303,0
304,262,301,300,0
303,258,298,297,0
304,259,298,296,0
305,262,298,298,0
306,267,300,299,0
306,271,300,300,0
306,280,300,299,0
305,295,301,299,0
305,316,302,301,0
305,342,303,303,0
304,367,305,306,0
303,383,307,307,0
301,387,309,309,0
300,380,309,310,0
299,361,307,311,0
300,338,307,312,0
301,320,307,312,0
303,310,308,312,0
305,307,309,311,0
306,306,310,309,0
308,301,310,307,0
308,289,310,304,0
308,276,308,301,0
308,267,306,297,0
309,263,304,293,0
311,266,303,291,0
313,275,302,290,0
314,287,303,290,0
313,297,304,292,0
312,304,306,297,0
311,309,308,303,0
309,314,310,310,0
308,322,312,315,0
308,336,314,318,0
308,357,314,320,0
308,381,312,321,0
307,400,310,321,0
307,405,307,319,0
305,388,305,316,0
305,354,304,314,0
305,319,304,314,0
305,294,304,313,0
305,279,305,312,0
305,272,306,311,0
305,268,306,309,0
306,266,307,308,0
307,264,307,307,0
309,261,308,305,0
310,256,310,305,0
311,255,311,305,0
312,258,312,304,0
312,266,312,305,0
310,274,311,306,0
308,283,311,306,0
307,291,311,306,0
305,297,311,306,0
302,300,311,306,0
299,301,309,305,0
297,301,307,305,0
296,302,306,305,0
296,303,305,303,0
297,303,303,302,0
297,304,302,300,0
297,303,300,298,0
298,300,300,295,0
300,297,301,294,0
303,296,303,295,0
306,297,306,297,0
308,300,309,299,0
310,310,309,301,0
310,324,309,303,0
310,338,309,303,0
311,349,309,304,0
311,350,309,304,0
310,339,309,304,0
309,322,309,304,0
309,305,308,303,0
310,292,307,302,0
311,284,306,301,0
312,281,305,300,0
312,282,304,298,0
312,284,305,297,0
310,284,305,297,0
309,283,304,296,0
307,279,304,296,0
306,276,304,296,0
306,277,304,296,0
307,284,305,296,0
310,297,306,297,0
311,316,306,297,0
312,338,304,297,0
311,354,303,295,0
309,358,302,292,0
308,351,301,291,0
307,339,301,291,0
307,325,299,289,0
306,310,296,287,0
305,302,291,285,0
304,303,287,283,0
302,309,283,281,0
301,313,283,282,0
301,314,287,287,0
302,311,294,293,0
304,304,304,300,0
305,298,312,306,0
306,297,319,311,0
306,298,322,313,0
305,301,324,315,0
305,301,325,317,0
306,301,325,319,0
307,299,325,320,0
309,298,325,319,0
311,299,325,319,0
312,303,324,317,0
312,309,323,316,0
311,313,321,314,0
309,313,318,311,0
307,310,316,309,0
306,306,315,307,0
306,302,314,305,0
306,302,313,303,0
305,305,311,302,0
305,310,310,302,0
305,313,310,304,0
306,312,311,306,0
307,306,312,308,0
307,297,313,310,0
308,289,314,310,0
308,286,313,310,0
309,287,311,309,0
309,292,309,307,0
309,296,308,306,0
309,299,308,306,0
309,302,311,308,0
310,305,314,311,0
310,306,316,313,0
309,307,317,314,0
307,311,317,314,0
306,320,315,314,0
306,334,315,314,0
307,351,315,314,0
308,367,315,314,0
309,374,314,313,0
309,375,313,312,0
308,369,312,311,0
307,359,311,309,0
306,349,309,308,0
306,336,308,308,0
307,319,308,307,0
307,301,308,306,0
306,285,308,305,0
306,273,307,304,0
305,265,306,303,0
305,260,306,302,0
305,254,306,301,0
305,249,308,303,0
306,247,308,305,0
306,247,309,307,0
307,248,308,309,0
307,251,308,310,0
306,259,309,311,0
305,272,310,312,0
303,286,312,312,0
302,300,312,312,0
301,313,312,312,0
301,326,313,312,0
304,336,313,313,0
307,341,314,313,0
310,340,314,313,0
312,332,313,313,0
311,323,312,312,0
310,316,310,312,0
309,315,308,311,0
307,317,307,310,0
306,317,305,309,0
305,315,305,308,0
304,310,304,306,0
303,302,302,304,0
303,296,301,304,0
303,291,301,305,0
305,292,301,306,0
307,297,302,308,0
310,310,305,311,0
313,327,308,315,0
316,343,312,317,0
317,349,313,318,0
315,343,313,317,0
312,334,311,315,0
307,329,309,313,0
303,328,306,312,0
300,328,303,309,0
297,328,300,305,0
294,326,298,300,0
293,320,296,294,0
293,313,294,288,0
293,306,291,282,0
292,295,290,279,0
291,283,292,280,0
292,273,295,283,0
293,268,300,288,0
296,269,304,293,0
298,273,306,298,0
299,279,308,303,0
300,286,310,308,0
302,293,311,312,0
304,299,313,316,0
307,305,314,318,0
310,308,315,319,0
313,308,314,319,0
314,305,312,319,0
315,303,310,319,0
314,300,308,318,0
313,297,306,317,0
312,295,306,314,0
311,297,306,312,0
311,306,308,309,0
312,321,310,307,0
313,333,313,305,0
314,339,316,305,0
313,335,317,307,0
312,327,317,309,0
310,318,316,310,0
310,311,315,311,0
309,305,315,312,0
309,303,315,312,0
310,300,315,314,0
310,298,315,315,0
310,294,315,315,0
309,289,314,315,0
307,283,313,314,0
306,281,312,313,0
305,281,311,313,0
305,282,309,313,0
305,282,308,313,0
306,283,307,312,0
308,282,308,311,0
310,283,309,309,0
313,288,309,308,0
315,298,310,308,0
317,317,310,308,0
318,341,310,308,0
318,365,310,308,0
317,384,309,309,0
316,388,309,309,0
313,373,309,307,0
309,344,308,305,0
307,317,308,303,0
306,299,307,302,0
305,292,306,302,0
304,289,305,302,0
303,288,304,301,0
303,290,303,302,0
303,293,303,302,0
303,296,303,302,0
304,299,304,302,0
305,300,305,303,0
305,299,305,303,0
305,296,305,304,0
305,291,305,304,0
306,287,305,306,0
307,287,306,307,0
308,289,305,308,0
309,291,306,309,0
309,290,305,309,0
310,288,305,310,0
310,289,304,311,0
309,295,303,311,0
308,308,302,311,0
306,325,303,311,0
306,342,304,310,0
306,358,306,310,0
307,366,307,310,0
307,361,308,309,0
306,351,307,308,0
304,336,306,307,0
303,319,305,305,0
301,300,303,304,0
301,285,303,303,0
302,274,303,303,0
303,266,302,302,0
303,260,301,300,0
302,256,298,297,0
301,256,295,294,0
300,257,292,291,0
299,264,291,288,0
300,273,294,290,0
303,284,298,296,0
307,292,303,302,0
310,296,306,307,0
311,296,308,309,0
310,296,308,310,0
309,301,308,311,0
306,309,308,312,0
305,317,308,313,0
305,322,308,313,0
305,327,307,313,0
306,330,306,313,0
306,331,305,313,0
307,329,304,313,0
307,323,303,312,0
306,315,303,312,0
306,308,304,312,0
307,304,304,312,0
307,302,304,313,0
308,302,304,313,0
308,305,304,314,0
309,311,305,313,0
310,322,305,313,0
310,335,305,314,0
312,345,306,315,0
314,348,308,316,0
314,336,309,316,0
314,314,309,314,0
313,289,308,312,0
312,271,307,310,0
311,262,306,308,0
310,262,304,307,0
309,269,303,306,0
309,280,304,306,0
310,291,304,306,0
311,302,305,306,0
311,316,305,306,0
310,329,305,305,0
308,342,304,303,0
308,349,303,303,0
305,347,302,303,0
303,332,300,303,0
303,309,301,304,0
304,286,302,305,0
305,270,304,308,0
307,263,307,311,0
309,262,309,312,0
310,265,310,313,0
309,272,310,314,0
309,279,310,313,0
308,287,310,312,0
308,293,309,311,0
308,299,310,311,0
308,305,310,311,0
309,314,310,311,0
310,330,309,311,0
312,351,309,311,0
314,373,309,312,0
314,390,309,311,0
313,393,309,311,0
311,377,308,310,0
309,347,308,309,0
306,315,308,308,0
304,290,307,308,0
302,276,307,307,0
302,270,307,307,0
302,272,306,306,0
301,276,304,305,0
300,280,300,304,0
298,284,296,302,0
298,288,294,301,0
298,292,295,301,0
300,295,297,302,0
301,297,300,303,0
302,297,303,305,0
302,293,305,307,0
303,291,305,308,0
304,289,306,310,0
305,287,305,312,0
306,286,306,313,0
305,288,305,315,0
305,290,306,317,0
305,291,306,317,0
305,291,307,318,0
306,291,307,317,0
307,293,306,316,0
307,296,305,315,0
307,298,304,313,0
307,300,304,311,0
308,301,302,308,0
307,301,301,304,0
307,302,299,301,0
306,305,299,301,0
306,309,298,302,0
305,310,298,303,0
304,309,299,303,0
302,310,299,304,0
301,318,300,305,0
300,327,301,305,0
300,334,303,305,0
300,339,304,306,0
301,343,304,308,0
302,345,304,309,0
303,343,303,311,0
304,340,300,311,0
305,336,296,309,0
306,328,294,305,0
306,316,293,301,0
305,302,293,297,0
306,290,296,297,0
306,282,299,298,0
307,276,303,300,0
307,273,306,302,0
308,274,307,305,0
308,278,308,306,0
307,281,308,306,0
306,283,308,304,0
306,287,308,303,0
305,293,308,303,0
306,302,308,303,0
305,310,307,304,0
305,317,306,305,0
306,323,305,307,0
308,329,304,308,0
309,333,304,310,0
310,334,304,309,0
310,331,303,308,0
310,324,303,307,0
310,313,303,306,0
310,301,302,304,0
309,290,301,302,0
307,283,300,300,0
306,281,300,299,0
304,283,299,299,0
302,287,299,298,0
301,291,298,298,0
300,293,297,298,0
298,293,294,298,0
298,292,293,297,0
297,291,292,297,0
297,289,292,299,0
298,290,294,302,0
300,294,297,306,0
302,299,299,309,0
304,305,301,311,0
305,314,302,311,0
305,323,302,310,0
306,331,303,310,0
308,334,303,309,0
308,332,304,308,0
308,327,304,307,0
307,322,305,307,0
307,323,306,308,0
308,327,307,309,0
307,328,308,310,0
306,321,307,309,0
304,312,306,309,0
303,303,305,309,0
304,299,305,311,0
305,299,305,312,0
306,299,306,313,0
307,299,307,314,0
308,295,308,315,0
310,288,309,315,0
312,281,308,315,0
314,278,308,314,0
316,282,308,315,0
317,296,307,316,0
317,311,307,317,0
317,325,306,318,0
316,337,305,316,0
315,344,304,314,0
313,347,302,312,0
312,350,300,311,0
312,357,298,310,0
310,359,294,308,0
309,352,291,305,0
306,338,288,302,0
305,322,286,298,0
303,306,286,295,0
302,293,286,292,0
301,284,287,289,0
301,279,289,289,0
301,277,293,292,0
303,277,298,298,0
305,282,303,305,0
307,292,306,311,0
309,307,309,316,0
311,320,311,319,0
313,327,312,320,0
313,324,312,319,0
312,313,310,317,0
310,300,309,314,0
310,289,308,312,0
310,283,307,311,0
312,283,308,311,0
313,288,308,311,0
314,295,309,312,0
314,297,310,312,0
314,292,311,313,0
315,285,312,314,0
315,281,312,315,0
314,286,311,316,0
314,298,309,317,0
313,307,306,316,0
311,315,306,315,0
310,320,306,314,0
309,322,306,312,0
308,321,306,310,0
307,320,304,307,0
306,320,300,304,0
305,318,296,302,0
303,313,293,300,0
302,306,292,299,0
303,300,292,298,0
304,294,293,299,0
304,290,295,300,0
304,289,296,301,0
304,290,297,303,0
305,294,300,305,0
306,300,302,307,0
307,311,306,310,0
308,323,308,312,0
309,335,310,315,0
310,345,310,317,0
311,347,310,318,0
310,336,309,318,0
308,315,309,317,0
307,295,309,317,0
307,281,311,317,0
308,276,313,316,0
310,275,313,315,0
310,276,312,312,0
310,276,310,310,0
310,276,308,307,0
310,277,307,306,0
310,280,306,305,0
311,286,306,306,0
311,292,306,307,0
311,296,306,308,0
310,298,305,309,0
309,300,304,310,0
309,306,305,312,0
310,321,306,313,0
312,339,307,314,0
313,357,308,314,0
313,370,308,314,0
313,370,307,313,0
312,351,306,311,0
311,322,304,310,0
311,294,304,309,0
311,275,303,307,0
311,265,302,306,0
311,264,301,304,0
310,269,299,301,0
309,276,297,298,0
308,284,296,296,0
306,291,297,295,0
306,297,299,297,0
306,302,302,300,0
307,308,304,302,0
308,311,305,304,0
308,311,306,305,0
309,311,306,307,0
308,311,304,308,0
308,309,302,309,0
307,304,301,309,0
307,297,300,308,0
307,293,301,307,0
308,292,303,307,0
308,294,306,308,0
310,298,308,309,0
311,308,311,310,0
312,324,311,311,0
313,342,311,312,0
313,354,310,311,0
312,352,308,310,0
310,337,308,309,0
309,319,307,309,0
308,305,306,309,0
307,297,305,310,0
307,294,304,311,0
308,293,303,311,0
310,293,302,312,0
310,293,301,313,0
310,294,302,313,0
310,296,303,313,0
311,301,304,313,0
311,307,306,313,0
311,314,307,313,0
311,319,308,312,0
311,322,308,310,0
310,325,308,308,0
309,330,307,306,0
307,328,306,303,0
305,318,303,297,0
301,307,300,292,0
299,302,298,288,0
298,302,297,286,0
299,304,298,286,0
300,301,300,288,0
301,290,303,290,0
302,277,305,293,0
303,266,307,295,0
304,260,308,296,0
306,260,309,298,0
307,265,310,299,0
308,272,309,302,0
309,283,308,304,0
308,294,306,306,0
307,303,306,308,0
307,309,308,307,0
308,311,310,307,0
308,311,311,306,0
308,310,310,305,0
308,310,310,305,0
308,311,309,305,0
309,315,309,306,0
310,321,310,306,0
312,328,311,307,0
313,335,312,308,0
314,341,313,308,0
313,346,313,308,0
313,352,314,307,0
314,361,315,307,0
315,366,316,307,0
316,366,315,306,0
315,359,313,306,0
313,345,312,306,0
311,325,309,305,0
308,300,307,303,0
305,277,305,301,0
303,265,305,299,0
301,262,306,299,0
301,266,306,298,0
301,274,307,297,0
301,284,306,297,0
302,293,306,297,0
303,298,306,298,0
305,298,307,300,0
306,296,309,302,0
306,295,310,304,0
307,296,311,305,0
307,301,310,307,0
307,308,310,307,0
307,318,309,306,0
308,328,309,306,0
310,336,310,306,0
313,340,310,305,0
313,334,309,304,0
311,322,308,303,0
309,312,307,304,0
306,305,306,304,0
304,300,306,303,0
302,295,306,302,0
301,289,304,300,0
301,283,301,299,0
301,278,299,297,0
302,274,298,296,0
302,272,298,297,0
304,272,301,300,0
305,274,304,303,0
307,278,305,305,0
308,282,306,305,0
308,286,305,306,0
307,288,306,307,0
307,287,305,306,0
305,287,306,304,0
305,290,308,302,0
305,296,310,302,0
305,305,310,302,0
305,309,307,303,0
304,308,304,303,0
303,307,302,303,0
303,311,300,303,0
303,316,300,304,0
303,317,302,306,0
304,314,305,307,0
303,311,307,307,0
302,310,308,307,0
302,312,308,307,0
302,314,307,307,0
302,316,306,307,0
303,318,306,306,0
303,318,306,305,0
303,317,306,304,0
305,314,307,304,0
307,311,308,304,0
309,309,310,305,0
311,308,310,306,0
312,307,311,307,0
313,306,311,308,0
315,307,312,309,0
316,315,312,310,0
318,334,312,310,0
319,364,311,310,0
320,400,310,309,0
319,428,308,307,0
317,434,307,306,0
314,416,306,306,0
312,382,307,307,0
311,346,308,310,0
311,314,309,312,0
310,290,309,313,0
309,274,308,313,0
308,264,306,312,0
307,256,303,310,0
305,253,300,308,0
304,252,298,306,0
303,252,297,305,0
301,252,298,304,0
301,254,298,303,0
301,257,299,301,0
301,261,301,300,0
301,265,303,298,0
301,272,303,296,0
301,280,304,294,0
301,288,305,294,0
302,294,306,297,0
303,298,308,301,0
306,298,311,304,0
309,297,313,307,0
312,295,314,308,0
314,294,314,310,0
315,293,313,310,0
315,293,311,309,0
315,298,309,307,0
314,307,308,306,0
313,319,305,304,0
311,329,302,304,0
310,333,299,303,0
308,331,297,302,0
307,333,296,302,0
307,341,298,305,0
308,348,301,307,0
309,352,303,308,0
309,349,304,309,0
308,340,305,307,0
308,324,306,307,0
308,307,308,306,0
309,294,309,306,0
310,287,310,306,0
311,285,312,307,0
313,286,313,307,0
313,286,315,307,0
313,284,316,307,0
313,282,316,308,0
312,287,315,310,0
311,296,315,311,0
310,306,313,312,0
308,311,311,311,0
306,308,308,309,0
304,299,306,307,0
302,291,305,305,0
302,287,305,304,0
302,287,305,304,0
303,289,306,305,0
304,297,308,306,0
306,312,309,307,0
306,331,310,308,0
307,350,311,308,0
307,365,310,308,0
306,370,310,308,0
304,358,309,307,0
302,335,307,306,0
299,313,305,305,0
299,299,303,304,0
300,293,302,304,0
301,288,301,303,0
301,280,302,303,0
302,273,304,304,0
302,269,307,304,0
302,267,308,305,0
302,269,309,305,0
302,273,310,304,0
301,280,310,304,0
301,287,309,302,0
301,293,309,300,0
301,297,309,299,0
302,298,309,300,0
303,299,309,302,0
304,301,309,304,0
305,305,310,306,0
306,311,312,309,0
308,319,313,311,0
310,328,315,313,0
312,336,315,314,0
313,339,314,314,0
313,333,313,313,0
312,323,312,313,0
311,313,311,313,0
310,309,310,312,0
311,308,309,312,0
311,310,308,310,0
312,315,307,309,0
313,327,306,308,0
315,341,306,307,0
316,357,306,307,0
317,367,306,306,0
315,361,305,305,0
311,338,303,304,0
308,312,301,303,0
305,290,300,303,0
303,273,298,304,0
303,261,297,304,0
304,250,298,304,0
305,245,299,303,0
305,246,301,303,0
305,257,303,305,0
305,274,308,309,0
306,293,311,313,0
307,306,312,316,0
306,312,311,318,0
305,314,309,318,0
304,315,308,318,0
304,316,307,317,0
304,320,306,316,0
305,325,306,315,0
305,332,307,313,0
305,336,307,312,0
304,337,306,311,0
304,336,305,310,0
305,331,304,310,0
305,321,303,309,0
305,307,302,307,0
304,294,301,306,0
303,286,300,304,0
302,284,300,302,0
300,287,299,301,0
300,297,299,300,0
301,310,298,301,0
302,324,297,302,0
304,332,296,302,0
306,334,296,303,0
307,331,297,305,0
308,329,299,307,0
308,329,302,309,0
307,330,305,310,0
306,330,307,310,0
305,322,307,308,0
304,307,307,306,0
304,291,307,304,0
303,281,307,303,0
303,276,307,302,0
302,276,306,303,0
303,281,306,305,0
302,292,305,306,0
302,306,306,306,0
302,318,307,305,0
302,324,308,305,0
301,321,309,305,0
301,311,310,306,0
301,299,312,308,0
302,293,313,310,0
303,294,314,313,0
305,300,314,316,0
306,307,315,318,0
306,312,315,319,0
306,314,315,320,0
306,309,314,319,0
307,302,314,318,0
307,294,313,316,0
305,287,311,313,0
304,283,309,311,0
303,281,308,310,0
302,282,307,309,0
302,285,307,310,0
302,288,307,310,0
302,290,307,312,0
302,292,307,312,0
302,293,307,313,0
301,297,307,313,0
301,301,307,313,0
301,304,308,312,0
301,307,309,310,0
301,308,309,309,0
302,305,309,308,0
303,299,309,308,0
305,294,309,308,0
308,291,310,308,0
310,291,310,308,0
310,293,309,308,0
310,294,307,307,0
310,294,305,306,0
309,295,303,306,0
309,296,302,306,0
308,299,302,306,0
307,299,303,306,0
307,297,304,307,0
306,293,306,309,0
306,292,309,309,0
306,295,310,310,0
307,301,310,310,0
307,308,309,310,0
306,317,308,310,0
306,326,308,310,0
305,335,308,312,0
304,344,308,313,0
304,352,308,313,0
305,358,308,313,0
306,358,308,313,0
307,353,308,312,0
308,347,309,310,0
310,341,308,308,0
311,337,308,307,0
311,334,308,306,0
310,324,306,304,0
307,305,304,301,0
304,288,303,298,0
302,282,303,297,0
302,287,303,296,0
304,296,304,295,0
305,300,305,295,0
305,289,305,295,0
305,271,304,295,0
304,258,302,295,0
305,257,302,296,0
305,269,301,298,0
305,283,301,300,0
305,295,301,301,0
305,301,302,302,0
304,300,302,303,0
302,295,303,304,0
302,290,303,304,0
302,289,304,305,0
302,291,305,305,0
303,295,307,305,0
303,298,307,306,0
304,297,308,307,0
305,295,308,307,0
306,292,309,307,0
307,291,309,307,0
307,291,309,308,0
309,292,310,309,0
310,296,310,309,0
309,298,309,308,0
308,295,307,307,0
307,288,304,305,0
306,281,301,304,0
305,277,298,303,0
305,279,297,303,0
304,284,295,302,0
304,289,293,301,0
303,295,292,299,0
303,299,290,299,0
302,301,290,298,0
301,303,289,298,0
301,307,290,298,0
301,313,293,301,0
302,319,297,303,0
303,324,301,306,0
303,327,304,308,0
303,330,307,310,0
303,333,309,311,0
303,334,310,311,0
303,335,309,311,0
303,334,309,312,0
303,332,308,311,0
303,323,308,311,0
304,309,308,310,0
305,294,308,310,0
307,285,309,309,0
308,283,309,309,0
309,283,308,309,0
310,287,307,308,0
309,293,307,306,0
309,298,305,304,0
306,307,303,302,0
304,318,301,300,0
302,325,299,298,0
301,326,299,296,0
300,325,300,296,0
299,323,302,297,0
299,321,304,299,0
300,317,306,301,0
301,314,308,302,0
301,317,309,303,0
303,323,309,303,0
303,329,308,303,0
304,329,308,303,0
304,321,308,302,0
303,308,308,302,0
302,298,309,301,0
301,292,309,300,0
300,288,309,299,0
300,285,308,298,0
300,282,307,297,0
299,280,306,296,0
300,282,307,296,0
300,288,308,297,0
302,299,310,299,0
303,313,311,301,0
305,328,313,303,0
306,338,313,304,0
306,339,313,304,0
306,336,311,304,0
306,333,311,303,0
306,326,310,303,0
306,315,309,304,0
307,302,309,305,0
307,291,308,306,0
305,280,307,306,0
302,273,305,305,0
301,268,304,305,0
300,268,304,305,0
301,272,305,305,0
302,280,306,306,0
303,288,306,306,0
303,294,306,306,0
302,299,305,306,0
302,305,305,306,0
302,315,304,306,0
303,327,305,306,0
303,337,306,306,0
304,334,308,305,0
303,322,310,304,0
303,307,311,304,0
303,298,311,304,0
302,292,310,304,0
302,288,309,304,0
303,289,308,303,0
304,295,308,302,0
304,303,307,302,0
304,308,306,303,0
304,308,305,303,0
303,301,305,303,0
302,292,306,303,0
302,283,305,303,0
303,277,304,303,0
304,275,304,303,0
305,274,303,303,0
306,272,302,303,0
305,267,300,301,0
303,262,298,298,0
302,258,296,296,0
301,258,296,295,0
301,262,296,294,0
301,271,296,294,0
300,282,295,295,0
300,296,295,296,0
301,310,297,299,0
303,322,300,304,0
304,333,303,308,0
305,342,306,313,0
305,347,308,315,0
306,349,309,316,0
306,344,311,316,0
306,333,312,315,0
306,320,313,314,0
306,312,314,314,0
306,310,314,315,0
306,314,313,315,0
306,319,312,315,0
307,324,310,315,0
308,326,308,314,0
308,325,307,314,0
308,325,307,313,0
308,330,308,314,0
309,338,309,315,0
309,346,310,316,0
310,350,311,316,0
310,345,311,315,0
309,331,312,314,0
308,317,312,313,0
307,312,313,313,0
307,316,313,313,0
308,324,313,314,0
309,332,312,316,0
310,335,312,317,0
310,328,311,316,0
307,316,310,315,0
305,308,308,313,0
303,303,308,311,0
302,299,307,309,0
302,292,307,309,0
302,286,308,308,0
303,283,308,308,0
304,282,308,308,0
306,285,307,308,0
306,289,307,308,0
306,294,306,308,0
306,300,305,307,0
306,307,305,308,0
306,313,306,308,0
307,318,306,309,0
308,321,306,310,0
308,319,306,310,0
308,310,308,309,0
309,297,310,310,0
312,286,313,310,0
314,283,315,312,0
316,283,316,313,0
315,283,315,313,0
313,285,313,311,0
310,290,311,310,0
306,295,308,309,0
304,300,306,307,0
303,300,304,306,0
302,296,301,304,0
301,291,301,302,0
302,286,300,300,0
301,282,302,298,0
302,279,303,297,0
302,276,303,297,0
301,276,303,298,0
300,280,302,300,0
300,286,302,302,0
301,293,302,303,0
302,299,302,304,0
304,307,305,307,0
306,315,308,310,0
307,321,311,313,0
308,326,314,315,0
307,328,316,315,0
307,330,316,315,0
307,329,315,315,0
306,328,313,314,0
307,326,311,313,0
307,329,311,313,0
308,339,311,314,0
309,351,312,314,0
310,362,313,314,0
311,369,313,314,0
312,369,312,314,0
312,356,311,313,0
311,336,309,312,0
309,315,308,311,0
308,300,307,310,0
307,290,305,308,0
306,283,303,306,0
305,278,302,304,0
304,276,300,301,0
303,273,300,299,0
303,274,301,298,0
303,280,303,299,0
303,290,306,300,0
303,301,308,302,0
304,312,310,305,0
306,318,313,308,0
308,316,315,311,0
308,308,317,314,0
308,301,318,316,0
307,297,318,317,0
307,295,318,318,0
308,296,317,318,0
308,298,316,318,0
309,300,314,317,0
309,304,312,316,0
309,308,311,317,0
309,308,309,317,0
308,304,306,316,0
308,305,304,316,0
308,313,303,315,0
309,325,303,316,0
311,337,305,316,0
312,344,307,315,0
312,341,309,315,0
310,329,309,314,0
308,313,310,315,0
307,299,310,316,0
306,289,310,317,0
305,284,309,318,0
305,281,310,317,0
305,281,310,317,0
305,282,309,316,0
306,285,309,315,0
308,292,309,315,0
310,300,309,316,0
312,306,309,316,0
313,305,307,315,0
313,300,306,313,0
311,298,304,312,0
310,302,301,309,0
308,311,298,307,0
307,321,295,305,0
306,328,294,303,0
306,326,296,302,0
306,317,298,303,0
308,308,302,305,0
309,303,305,308,0
311,304,308,312,0
312,311,310,315,0
313,322,311,318,0
314,336,312,320,0
315,349,314,321,0
316,358,314,321,0
316,359,314,319,0
315,345,313,317,0
313,322,311,316,0
312,299,308,314,0
309,280,306,313,0
308,265,305,312,0
307,254,304,311,0
306,247,303,310,0
307,244,303,309,0
307,246,302,308,0
307,252,301,307,0
307,267,300,306,0
308,286,299,305,0
308,306,299,304,0
308,322,298,303,0
307,327,296,302,0
305,325,294,302,0
303,320,293,302,0
302,315,294,302,0
302,309,296,303,0
302,302,298,304,0
304,295,301,306,0
306,290,303,308,0
308,289,304,309,0
309,292,305,311,0
311,297,306,312,0
312,302,306,313,0
311,308,307,313,0
311,316,307,314,0
312,328,308,315,0
312,339,309,315,0
313,348,309,315,0
313,353,307,315,0
314,353,307,314,0
313,343,307,313,0
311,329,307,311,0
309,318,307,309,0
308,312,306,309,0
307,311,306,310,0
307,309,305,311,0
306,304,304,311,0
305,301,304,312,0
305,303,304,313,0
306,307,304,313,0
306,311,303,312,0
304,311,302,311,0
303,305,302,310,0
302,296,302,309,0
301,288,302,309,0
301,290,303,309,0
302,299,304,311,0
304,308,305,311,0
305,316,306,311,0
307,322,307,310,0
309,321,308,310,0
311,315,309,311,0
311,305,310,311,0
311,297,309,312,0
310,289,307,313,0
308,282,305,313,0
307,280,305,314,0
307,284,304,315,0
308,291,303,315,0
309,297,301,315,0
308,298,297,313,0
306,295,293,310,0
303,291,291,306,0
302,286,291,302,0
301,286,295,300,0
302,293,300,301,0
304,309,306,305,0
306,328,311,310,0
306,340,314,314,0
305,342,315,317,0
304,335,314,317,0
302,325,313,315,0
300,315,311,313,0
298,309,309,311,0
298,306,308,310,0
299,304,308,312,0
301,303,308,314,0
303,303,308,316,0
305,304,308,317,0
307,305,309,317,0
308,304,309,317,0
307,304,308,315,0
306,308,306,313,0
305,315,304,311,0
304,321,302,308,0
302,325,302,306,0
302,322,302,306,0
302,314,304,305,0
303,305,305,306,0
303,298,305,306,0
303,294,305,306,0
302,293,305,306,0
302,295,306,306,0
301,299,307,307,0
301,301,308,308,0
301,301,308,308,0
302,302,306,308,0
303,305,305,308,0
304,312,303,307,0
306,322,302,307,0
307,333,303,307,0
309,340,304,307,0
310,340,305,308,0
311,336,307,310,0
311,333,309,313,0
312,332,312,315,0
312,336,313,316,0
311,343,313,317,0
311,348,312,317,0
310,351,311,317,0
309,348,310,316,0
308,339,309,315,0
308,324,308,315,0
308,306,308,313,0
307,289,307,313,0
306,277,307,312,0
305,269,307,310,0
304,266,305,308,0
304,265,303,306,0
303,268,302,304,0
303,276,302,303,0
304,286,303,302,0
304,298,303,300,0
305,310,302,297,0
305,315,302,294,0
305,312,302,291,0
306,307,303,290,0
307,306,305,291,0
309,313,308,294,0
310,326,312,299,0
312,339,315,305,0
314,344,317,309,0
314,335,317,312,0
314,317,316,314,0
312,298,315,315,0
311,285,314,315,0
310,278,313,315,0
310,275,312,315,0
309,275,311,315,0
308,275,310,314,0
307,274,309,314,0
307,272,308,313,0
307,272,307,313,0
308,273,308,313,0
308,274,308,312,0
310,273,308,311,0
312,272,308,310,0
312,272,307,308,0
313,273,306,306,0
313,277,307,306,0
313,283,309,307,0
313,291,310,310,0
312,303,309,313,0
310,318,308,315,0
309,330,307,314,0
308,336,306,313,0
306,339,305,311,0
306,341,304,309,0
305,343,304,308,0
306,347,304,308,0
306,350,305,308,0
306,350,305,308,0
306,343,304,307,0
305,330,303,305,0
304,316,301,303,0
304,306,298,300,0
304,302,295,298,0
303,302,292,296,0
302,305,290,296,0
302,309,290,296,0
302,313,292,298,0
303,317,296,300,0
305,321,301,303,0
307,323,307,306,0
307,317,310,308,0
306,307,311,309,0
304,300,311,310,0
303,299,311,310,0
302,304,311,312,0
302,317,311,313,0
303,335,310,313,0
304,353,310,313,0
305,362,309,313,0
305,360,309,312,0
305,345,308,312,0
304,322,307,312,0
304,299,306,313,0
304,283,305,313,0
304,273,304,313,0
303,269,302,312,0
303,272,301,311,0
304,276,300,311,0
304,281,301,311,0
304,287,304,312,0
305,296,307,314,0
306,307,310,317,0
306,320,312,319,0
307,332,313,320,0
307,339,315,319,0
308,340,315,319,0
310,330,315,318,0
311,308,316,318,0
311,284,315,318,0
310,263,314,317,0
310,248,313,316,0
309,240,312,315,0
309,241,311,314,0
308,253,310,314,0
308,272,309,315,0
307,291,307,315,0
305,305,305,316,0
304,312,305,315,0
304,313,306,315,0
304,312,307,314,0
304,312,309,314,0
304,312,310,314,0
305,312,310,314,0
306,317,310,314,0
308,324,310,314,0
309,332,309,315,0
311,342,309,317,0
313,346,309,317,0
313,342,310,316,0
313,327,308,315,0
311,309,306,312,0
308,296,304,309,0
305,287,304,306,0
303,283,303,305,0
301,285,303,304,0
301,292,303,305,0
301,300,304,306,0
301,305,305,306,0
300,306,304,304,0
300,308,303,302,0
299,310,302,301,0
299,312,301,299,0
299,313,301,299,0
299,312,302,302,0
301,310,305,306,0
303,308,307,308,0
305,307,308,310,0
306,309,309,310,0
307,314,308,308,0
308,321,307,306,0
308,327,307,304,0
308,330,307,303,0
307,327,308,300,0
305,323,309,299,0
304,320,309,298,0
303,314,310,299,0
302,305,309,299,0
301,296,309,301,0
301,290,308,302,0
302,289,308,304,0
303,292,308,305,0
304,295,308,307,0
304,298,308,309,0
305,299,308,310,0
306,301,307,311,0
306,304,307,311,0
307,308,307,311,0
308,313,307,310,0
309,317,307,310,0
310,319,308,308,0
309,319,309,307,0
309,315,309,306,0
309,312,309,305,0
309,308,308,303,0
309,305,306,301,0
309,306,305,298,0
309,313,304,296,0
309,322,305,295,0
310,331,307,296,0
311,336,309,298,0
311,334,311,301,0
312,326,311,304,0
312,318,312,307,0
313,313,312,310,0
313,312,313,312,0
313,313,313,313,0
313,314,312,313,0
313,313,311,313,0
312,306,310,312,0
312,291,309,310,0
311,273,308,308,0
310,259,306,306,0
308,254,305,305,0
307,254,304,305,0
307,262,305,305,0
308,273,306,305,0
308,286,307,304,0
307,296,307,304,0
306,305,307,304,0
306,317,306,305,0
306,331,306,306,0
306,345,306,307,0
306,356,306,308,0
306,360,306,310,0
306,354,307,311,0
307,340,307,312,0
307,324,309,311,0
307,309,310,309,0
307,297,311,307,0
306,289,311,306,0
305,286,311,305,0
305,285,310,304,0
305,287,309,304,0
305,289,308,304,0
306,290,307,304,0
306,291,307,304,0
306,292,306,304,0
306,293,306,304,0
306,295,304,303,0
306,298,303,304,0
306,301,301,304,0
306,304,300,305,0
307,307,299,306,0
307,308,300,308,0
307,309,302,310,0
308,308,304,311,0
308,306,306,313,0
308,304,307,313,0
307,303,309,314,0
307,305,310,313,0
306,308,311,312,0
306,309,310,311,0
306,308,309,311,0
306,306,308,310,0
306,303,307,310,0
306,302,306,309,0
306,307,304,308,0
306,316,303,308,0
308,330,303,309,0
309,349,304,311,0
310,367,305,313,0
309,376,307,313,0
307,370,306,312,0
305,352,305,311,0
303,327,306,310,0
302,305,306,311,0
303,293,308,311,0
304,294,308,311,0
304,305,307,309,0
304,316,304,308,0
305,322,302,307,0
306,322,300,306,0
307,311,299,305,0
306,294,299,304,0
307,283,301,306,0
308,283,304,309,0
308,290,307,312,0
309,297,309,314,0
308,299,310,316,0
308,294,311,316,0
308,291,312,316,0
308,291,313,316,0
308,294,313,317,0
308,297,313,318,0
307,299,312,318,0
305,299,310,316,0
303,298,307,314,0
301,297,304,311,0
299,297,301,309,0
298,298,298,307,0
299,297,296,303,0
300,295,295,300,0
302,290,293,296,0
302,285,292,293,0
303,283,291,292,0
303,282,293,295,0
303,283,297,299,0
303,287,302,303,0
303,293,307,306,0
303,303,310,309,0
303,313,312,310,0
304,319,312,310,0
305,319,311,309,0
305,317,310,308,0
305,314,310,306,0
306,313,310,306,0
307,314,311,307,0
306,316,312,308,0
304,316,313,309,0
303,316,313,310,0
303,315,312,311,0
303,316,312,312,0
304,317,312,312,0
305,323,311,312,0
306,332,311,313,0
306,343,310,314,0
307,355,310,315,0
306,363,309,315,0
307,364,310,314,0
308,359,311,314,0
309,352,311,313,0
310,345,310,312,0
309,335,308,312,0
307,325,305,310,0
307,321,303,310,0
308,321,301,309,0
308,321,300,308,0
308,321,300,306,0
308,320,300,303,0
308,318,301,301,0
308,314,302,300,0
308,305,303,300,0
307,294,304,300,0
305,282,305,302,0
305,272,306,304,0
305,266,308,306,0
306,264,311,308,0
308,267,312,311,0
310,274,315,313,0
312,282,317,315,0
313,288,318,316,0
312,294,318,315,0
310,299,315,314,0
308,302,311,312,0
305,302,308,310,0
304,299,307,308,0
303,293,306,307,0
303,284,306,306,0
304,275,305,305,0
305,269,304,304,0
306,269,304,303,0
307,276,305,304,0
309,287,306,305,0
310,302,307,306,0
310,322,309,308,0
310,342,309,309,0
308,354,309,310,0
306,356,309,310,0
305,351,309,312,0
304,343,309,313,0
305,335,309,314,0
305,324,310,314,0
305,312,310,314,0
304,301,310,312,0
304,295,308,310,0
305,296,308,309,0
305,300,307,307,0
305,305,307,306,0
306,308,308,305,0
308,305,308,305,0
309,300,309,304,0
310,296,309,304,0
310,293,307,304,0
309,292,306,305,0
309,296,305,306,0
309,303,305,307,0
308,313,304,307,0
308,324,304,308,0
308,334,304,307,0
307,341,305,307,0
307,344,307,307,0
306,345,308,306,0
305,343,309,306,0
304,339,308,305,0
303,330,306,304,0
302,321,304,304,0
301,313,300,303,0
300,306,298,303,0
300,301,299,303,0
301,299,302,304,0
302,303,306,307,0
302,311,309,310,0
303,322,312,312,0
304,331,313,314,0
305,335,312,313,0
305,336,311,312,0
306,337,310,311,0
306,336,309,310,0
305,323,307,308,0
302,301,306,305,0
300,279,304,301,0
299,264,303,297,0
298,257,301,294,0
299,256,300,293,0
300,257,299,292,0
301,261,298,293,0
301,266,296,295,0
300,271,295,297,0
300,277,295,297,0
300,281,296,296,0
300,284,296,296,0
300,285,295,297,0
299,287,294,298,0
300,291,294,300,0
301,297,295,302,0
304,302,298,304,0
307,307,303,307,0
311,312,309,311,0
313,314,313,315,0
315,311,316,317,0
315,307,316,318,0
314,303,315,317,0
313,300,312,316,0
311,301,310,314,0
309,306,307,312,0
308,312,304,310,0
308,317,303,308,0
308,318,302,307,0
309,317,301,306,0
310,314,301,305,0
311,311,300,305,0
311,306,300,304,0
310,296,300,302,0
309,286,299,300,0
307,281,299,299,0
305,285,299,298,0
305,297,300,299,0
304,310,301,299,0
305,319,302,300,0
305,324,302,301,0
306,330,303,302,0
307,339,304,305,0
308,346,305,307,0
309,350,306,309,0
308,343,307,309,0
306,329,307,309,0
303,315,306,308,0
301,304,305,306,0
299,299,304,305,0
299,300,303,305,0
299,301,303,304,0
300,301,303,303,0
300,299,303,303,0
300,295,303,303,0
299,290,303,302,0
299,283,302,302,0
298,280,301,302,0
298,281,300,302,0
298,285,300,303,0
299,292,299,304,0
299,302,299,305,0
300,314,300,308,0
301,324,302,309,0
301,331,304,310,0
302,338,305,310,0
302,340,305,310,0
302,337,305,310,0
301,327,305,309,0
300,315,305,308,0
299,304,306,308,0
299,296,306,308,0
300,291,305,309,0
300,292,304,310,0
301,293,304,311,0
302,294,305,311,0
303,294,305,310,0
303,296,304,309,0
304,299,304,308,0
305,302,303,308,0
306,302,302,308,0
306,299,301,308,0
306,294,300,308,0
306,287,298,307,0
305,280,297,305,0
306,276,297,303,0
306,280,297,303,0
307,293,299,303,0
308,316,301,303,0
309,345,301,304,0
309,373,300,304,0
309,390,298,304,0
307,389,296,302,0
305,368,294,300,0
303,339,293,299,0
301,312,294,301,0
300,292,298,303,0
301,280,303,305,0
302,274,307,309,0
304,273,312,313,0
306,272,315,317,0
309,271,316,321,0
310,270,318,323,0
311,272,317,324,0
309,277,315,324,0
307,283,312,323,0
304,291,309,321,0
301,303,307,319,0
299,316,306,316,0
298,327,305,314,0
299,334,305,313,0
299,331,305,311,0
299,325,304,309,0
300,320,303,308,0
300,317,302,306,0
300,314,301,305,0
301,311,301,305,0
302,308,302,307,0
303,302,303,310,0
303,294,305,314,0
305,287,307,317,0
306,283,309,320,0
307,283,310,321,0
308,288,311,323,0
308,296,312,323,0
306,303,311,322,0
304,308,308,322,0
301,310,307,320,0
300,308,306,320,0
299,306,306,319,0
300,305,306,319,0
301,305,307,318,0
302,309,307,318,0
303,315,308,317,0
304,323,308,316,0
304,333,308,314,0
305,346,309,313,0
305,356,309,314,0
305,358,310,314,0
305,349,310,314,0
305,330,308,316,0
304,309,307,317,0
303,290,306,318,0
303,275,306,318,0
303,266,307,317,0
304,264,309,316,0
304,266,310,316,0
305,270,310,315,0
305,273,310,315,0
305,277,309,314,0
305,280,310,314,0
305,285,310,313,0
304,289,309,313,0
303,296,307,312,0
301,304,305,312,0
299,312,304,311,0
299,317,302,312,0
299,317,301,312,0
301,317,301,313,0
303,320,302,313,0
304,329,301,313,0
304,340,299,313,0
302,352,299,312,0
301,359,299,312,0
301,356,301,314,0
302,347,303,316,0
304,334,305,317,0
305,321,306,318,0
307,308,307,319,0
307,298,307,319,0
308,290,307,318,0
308,285,307,316,0
309,284,306,314,0
308,287,305,310,0
307,292,303,307,0
305,299,302,304,0
304,306,301,302,0
304,311,301,301,0
304,313,301,302,0
305,311,303,304,0
307,303,303,305,0
309,294,303,306,0
310,286,302,307,0
311,283,300,306,0
311,285,300,305,0
310,291,302,304,0
309,301,303,303,0
307,314,304,304,0
306,330,304,306,0
305,343,305,309,0
305,346,307,311,0
305,340,308,312,0
306,328,309,312,0
306,313,309,313,0
306,300,308,313,0
305,292,307,313,0
304,290,305,313,0
304,291,302,312,0
303,291,302,311,0
303,291,302,310,0
303,291,303,310,0
303,290,305,309,0
304,289,306,309,0
304,291,307,308,0
304,297,309,308,0
305,305,311,307,0
306,315,312,307,0
306,323,313,308,0
306,327,312,308,0
304,327,312,309,0
303,323,311,308,0
302,318,310,307,0
302,314,310,307,0
301,311,310,307,0
300,310,311,306,0
299,309,311,305,0
298,309,312,305,0
299,306,312,304,0
300,297,312,305,0
301,288,311,305,0
303,283,311,306,0
305,283,309,305,0
306,286,308,303,0
306,293,305,302,0
304,301,304,300,0
303,312,303,300,0
303,322,302,300,0
301,330,301,301,0
301,334,301,302,0
300,332,299,302,0
299,323,298,302,0
297,314,298,300,0
297,307,298,299,0
297,302,301,301,0
299,301,304,303,0
302,302,308,306,0
304,305,312,308,0
306,309,314,309,0
308,315,315,310,0
310,324,315,309,0
309,337,313,308,0
309,351,312,307,0
308,366,311,306,0
309,374,310,306,0
309,366,310,306,0
309,345,310,306,0
309,317,310,307,0
308,292,310,307,0
308,275,309,307,0
307,267,308,308,0
307,266,307,309,0
308,269,307,310,0
308,273,307,311,0
308,280,308,311,0
309,288,309,311,0
308,292,309,310,0
307,292,308,308,0
306,290,307,307,0
305,290,306,306,0
305,290,304,305,0
304,288,303,304,0
305,281,303,302,0
306,271,304,300,0
306,260,305,299,0
307,251,306,298,0
307,249,306,297,0
308,255,306,297,0
307,269,305,297,0
307,287,304,297,0
306,307,303,298,0
306,329,302,299,0
306,349,302,301,0
308,364,301,303,0
309,372,302,305,0
309,368,303,306,0
308,353,303,307,0
307,338,304,307,0
306,324,305,308,0
305,311,306,307,0
304,299,307,306,0
304,291,308,305,0
303,289,309,305,0
304,292,310,305,0
305,297,311,305,0
306,303,311,304,0
308,306,310,304,0
309,304,308,304,0
309,300,306,304,0
309,295,306,304,0
309,292,306,304,0
310,292,306,303,0
311,292,307,301,0
311,293,308,300,0
311,294,309,300,0
311,294,309,299,0
310,293,308,298,0
309,292,307,298,0
309,292,306,299,0
309,292,306,300,0
309,297,306,302,0
310,310,306,304,0
310,331,306,305,0
310,354,306,307,0
309,369,306,308,0
307,371,305,308,0
305,361,303,306,0
304,341,300,303,0
302,319,297,301,0
302,298,295,299,0
302,281,294,298,0
302,270,296,299,0
304,262,300,302,0
305,259,304,305,0
306,257,308,308,0
305,258,309,308,0
304,262,310,307,0
304,268,309,306,0
304,276,309,303,0
305,284,309,302,0
306,291,309,302,0
306,297,308,303,0
307,300,308,305,0
307,302,308,308,0
307,301,309,309,0
307,300,308,310,0
307,302,308,310,0
307,307,306,311,0
307,314,305,312,0
307,319,303,313,0
308,322,303,314,0
309,323,305,315,0
310,326,309,315,0
313,331,313,315,0
314,337,314,315,0
313,338,314,313,0
310,329,313,310,0
306,316,311,307,0
302,304,308,304,0
298,296,305,300,0
295,291,302,296,0
293,292,298,294,0
293,294,297,293,0
295,299,298,294,0
298,303,302,297,0
300,303,306,300,0
302,302,309,303,0
304,300,312,304,0
304,299,314,305,0
305,302,315,305,0
306,307,316,305,0
306,315,316,305,0
306,324,315,305,0
308,339,313,306,0
309,361,313,307,0
311,384,313,309,0
313,399,312,310,0
313,399,312,311,0
312,379,311,310,0
311,347,311,311,0
310,316,311,311,0
309,294,312,313,0
309,279,312,313,0
308,271,311,313,0
308,266,310,312,0
306,264,307,310,0
306,262,306,310,0
306,262,305,309,0
307,263,305,309,0
308,264,305,309,0
308,265,305,309,0
309,269,306,310,0
311,274,308,311,0
313,280,310,311,0
314,286,310,311,0
314,293,309,310,0
313,299,307,308,0
312,304,304,306,0
309,310,302,303,0
307,318,300,302,0
306,327,300,301,0
306,333,301,302,0
305,331,304,304,0
305,319,306,305,0
306,302,307,306,0
307,287,307,307,0
307,279,306,307,0
309,281,305,306,0
310,287,304,306,0
310,291,303,306,0
309,292,302,306,0
309,289,301,305,0
308,285,300,305,0
308,284,300,306,0
309,285,301,308,0
310,289,304,310,0
310,299,306,311,0
310,311,307,312,0
310,321,307,313,0
310,327,308,313,0
310,331,309,312,0
308,337,309,310,0
308,344,309,309,0
308,351,309,310,0
310,356,309,311,0
312,353,309,313,0
313,345,309,313,0
314,335,309,314,0
314,329,309,313,0
313,326,309,312,0
312,323,309,311,0
310,314,308,311,0
308,300,308,310,0
306,286,308,311,0
305,277,308,312,0
306,274,308,313,0
306,274,308,313,0
307,276,306,313,0
306,281,304,313,0
306,288,303,314,0
305,296,302,315,0
305,306,301,315,0
305,317,301,314,0
305,329,302,313,0
306,340,304,312,0
306,347,305,310,0
305,344,304,307,0
305,334,303,304,0
303,321,302,301,0
302,307,301,299,0
302,292,302,299,0
302,281,304,299,0
304,275,307,300,0
305,272,309,301,0
306,272,311,302,0
307,273,312,304,0
307,276,313,304,0
308,281,312,304,0
308,287,311,304,0
309,293,310,303,0
309,298,308,302,0
309,303,306,302,0
309,308,304,303,0
308,313,303,304,0
306,313,301,303,0
304,312,300,303,0
302,309,299,302,0
301,307,300,302,0
302,303,302,302,0
303,301,304,304,0
305,300,307,306,0
307,300,309,308,0
309,299,309,309,0
309,298,309,309,0
309,297,309,308,0
309,297,309,307,0
310,300,310,307,0
311,303,311,309,0
312,305,312,310,0
313,304,312,311,0
312,300,312,312,0
312,295,311,313,0
311,294,309,313,0
309,297,306,313,0
306,303,305,312,0
304,310,304,312,0
304,319,303,312,0
305,331,303,312,0
307,345,303,313,0
309,355,305,313,0
310,357,307,314,0
311,349,307,315,0
311,333,307,314,0
310,309,308,314,0
310,286,308,313,0
308,268,308,312,0
306,258,307,311,0
303,255,305,309,0
301,259,304,308,0
300,269,303,307,0
301,279,303,308,0
302,287,304,309,0
304,292,304,309,0
305,294,305,309,0
306,293,304,308,0
307,292,304,308,0
308,292,304,308,0
309,293,305,309,0
309,296,305,309,0
307,300,304,308,0
306,306,304,307,0
304,309,303,306,0
304,309,303,305,0
303,308,302,305,0
302,307,301,304,0
301,304,301,304,0
300,300,301,305,0
301,294,301,305,0
303,287,303,306,0
305,282,304,307,0
306,282,304,308,0
306,286,304,308,0
304,292,303,308,0
303,299,301,309,0
303,307,299,310,0
304,315,296,311,0
306,320,292,310,0
306,323,287,308,0
304,327,282,303,0
300,333,279,297,0
297,342,280,292,0
296,354,284,289,0
297,362,290,290,0
299,362,295,292,0
301,355,300,296,0
304,349,305,300,0
307,348,309,305,0
310,348,313,311,0
312,338,316,314,0
311,318,317,315,0
310,297,318,315,0
308,281,318,315,0
306,270,318,316,0
305,265,318,317,0
303,266,317,318,0
303,271,316,318,0
303,280,315,319,0
304,290,313,319,0
305,299,311,319,0
305,305,309,319,0
306,307,306,318,0
307,310,306,317,0
307,313,306,315,0
306,315,307,314,0
306,317,308,313,0
305,313,309,313,0
304,305,309,313,0
304,291,308,312,0
303,275,307,311,0
302,264,305,310,0
302,263,304,310,0
303,272,303,309,0
303,288,303,309,0
304,306,304,308,0
305,321,304,308,0
305,325,304,308,0
306,318,304,307,0
307,307,304,307,0
308,296,305,305,0
308,288,306,305,0
310,284,306,304,0
311,282,306,304,0
312,285,304,303,0
311,289,302,304,0
310,295,302,305,0
309,302,303,307,0
307,310,303,308,0
305,316,303,310,0
303,323,303,311,0
303,329,302,312,0
303,333,301,313,0
304,335,301,314,0
306,336,302,314,0
308,334,303,314,0
308,328,303,313,0
308,321,303,313,0
308,318,303,312,0
307,324,302,312,0
307,342,303,313,0
307,365,303,314,0
307,386,304,315,0
307,391,304,314,0
305,372,303,312,0
303,337,302,309,0
302,302,301,307,0
302,277,300,305,0
303,263,299,305,0
304,258,300,304,0
306,260,301,303,0
306,263,301,302,0
305,265,302,299,0
304,266,302,297,0
303,266,301,296,0
303,267,300,295,0
302,270,299,295,0
302,275,298,295,0
302,281,298,297,0
304,287,299,300,0
305,293,302,304,0
308,300,305,307,0
309,306,307,310,0
309,310,308,313,0
309,312,309,315,0
309,312,310,317,0
309,308,311,318,0
310,306,312,318,0
310,306,312,317,0
309,310,310,316,0
308,315,309,314,0
306,320,308,313,0
304,323,307,313,0
304,322,306,313,0
304,319,305,313,0
305,314,303,315,0
306,309,302,315,0
306,305,301,316,0
306,304,301,315,0
306,305,301,314,0
307,308,302,312,0
307,312,304,311,0
308,312,305,309,0
307,304,306,307,0
307,292,306,306,0
306,281,306,307,0
305,274,307,308,0
305,271,307,310,0
304,272,307,312,0
304,274,306,313,0
304,278,305,313,0
303,283,303,313,0
304,288,301,312,0
304,294,301,311,0
304,300,301,310,0
304,305,303,311,0
304,312,304,311,0
304,322,305,312,0
305,333,306,313,0
306,343,305,313,0
307,348,304,313,0
308,346,304,312,0
310,340,303,312,0
311,335,304,311,0
312,329,305,310,0
313,321,305,310,0
314,313,306,310,0
315,311,306,309,0
316,318,305,308,0
317,332,305,308,0
317,351,305,309,0
316,369,304,311,0
314,377,302,311,0
308,370,298,308,0
303,350,295,304,0
299,329,295,303,0
297,315,297,302,0
296,304,300,303,0
296,291,303,303,0
297,275,305,303,0
297,260,305,302,0
297,248,304,302,0
298,240,303,301,0
298,235,302,300,0
298,235,302,299,0
299,239,304,300,0
300,250,306,302,0
300,265,309,306,0
301,281,310,310,0
301,295,310,312,0
301,306,310,313,0
301,313,309,314,0
301,317,309,314,0
302,319,308,314,0
303,320,309,314,0
305,321,309,314,0
306,321,308,314,0
307,318,307,314,0
307,315,304,313,0
306,312,302,313,0
305,311,301,313,0
304,311,301,312,0
304,311,301,311,0
303,312,301,310,0
303,311,302,309,0
302,308,301,308,0
301,302,300,306,0
299,294,300,304,0
298,287,301,302,0
298,285,302,300,0
299,294,303,299,0
301,309,304,300,0
303,324,306,301,0
305,332,307,302,0
306,330,309,304,0
306,320,310,306,0
307,309,312,308,0
307,301,313,310,0
308,298,314,312,0
308,301,314,313,0
308,308,313,313,0
307,316,313,313,0
306,324,311,313,0
306,334,311,313,0
306,342,310,314,0
305,340,310,314,0
305,328,310,313,0
304,312,309,312,0
303,298,307,311,0
302,291,306,309,0
301,292,305,308,0
301,299,305,307,0
302,305,306,307,0
303,308,306,308,0
305,308,307,309,0
308,307,307,312,0
310,309,308,315,0
311,316,308,317,0
311,323,309,317,0
310,325,308,316,0
308,318,306,313,0
305,305,304,309,0
302,290,302,305,0
300,280,302,304,0
299,276,303,304,0
299,275,303,304,0
299,276,304,305,0
299,278,304,305,0
300,281,305,306,0
301,283,306,306,0
301,284,306,307,0
302,285,306,307,0
301,286,305,306,0
301,290,303,305,0
301,294,301,303,0
301,302,300,301,0
302,313,302,302,0
304,324,304,303,0
305,332,307,304,0
307,335,310,308,0
308,329,313,310,0
308,314,314,312,0
308,299,314,312,0
307,290,313,313,0
306,287,310,314,0
305,288,309,314,0
304,294,308,315,0
305,300,307,315,0
305,309,306,315,0
306,322,307,314,0
307,337,307,313,0
307,348,308,312,0
308,348,308,311,0
307,338,307,309,0
306,323,305,308,0
305,309,304,308,0
305,298,305,309,0
305,292,307,310,0
305,289,309,311,0
306,291,311,313,0
306,294,313,314,0
307,298,314,315,0
308,304,315,315,0
308,310,315,314,0
309,309,315,314,0
309,303,314,313,0
309,295,314,312,0
308,287,314,311,0
308,282,313,309,0
308,279,313,308,0
308,279,313,307,0
308,284,313,307,0
306,289,312,307,0
305,297,310,306,0
303,311,308,306,0
303,331,307,306,0
304,353,306,306,0
304,373,305,308,0
304,383,305,309,0
303,378,304,308,0
301,361,304,306,0
299,341,304,305,0
298,326,305,305,0
299,317,307,306,0
301,309,308,308,0
303,301,310,309,0
303,295,311,310,0
304,289,312,311,0
303,281,312,312,0
303,274,312,312,0
302,271,312,312,0
301,271,312,313,0
301,273,313,314,0
300,275,314,314,0
299,278,315,314,0
299,282,316,314,0
299,287,316,314,0
300,291,315,314,0
301,291,313,312,0
301,290,309,309,0
301,292,304,305,0
300,294,300,301,0
299,298,298,299,0
300,302,298,298,0
301,305,300,298,0
302,307,303,300,0
302,308,306,300,0
303,310,307,302,0
303,312,308,304,0
303,313,308,306,0
303,315,309,307,0
304,320,309,307,0
305,325,310,308,0
306,331,311,309,0
309,333,313,309,0
309,328,312,310,0
309,318,311,309,0
305,308,309,308,0
303,303,308,308,0
302,303,308,308,0
303,307,308,309,0
304,319,307,310,0
306,336,307,312,0
308,351,307,313,0
310,359,308,313,0
310,358,309,313,0
309,350,307,311,0
307,334,304,309,0
304,317,303,306,0
301,303,301,304,0
300,294,301,304,0
299,287,302,305,0
300,281,304,307,0
300,277,306,308,0
301,273,308,308,0
302,270,309,306,0
302,268,309,304,0
301,267,308,301,0
301,267,307,301,0
302,269,308,303,0
305,276,309,306,0
307,285,310,308,0
309,293,311,310,0
310,299,311,310,0
312,304,311,310,0
312,310,310,309,0
311,318,309,307,0
309,328,309,306,0
307,338,308,305,0
305,341,305,303,0
302,334,303,302,0
300,323,301,302,0
299,315,300,303,0
299,315,301,304,0
301,317,302,305,0
304,320,304,305,0
305,317,305,305,0
306,309,305,303,0
306,299,305,302,0
305,289,304,301,0
305,282,303,300,0
305,279,303,300,0
305,279,302,300,0
305,281,302,300,0
305,285,304,300,0
306,292,306,302,0
308,302,308,303,0
309,315,309,305,0
309,327,310,307,0
309,334,310,308,0
308,340,310,309,0
307,347,310,310,0
307,350,309,310,0
308,348,309,310,0
308,340,306,308,0
307,330,303,306,0
306,315,301,303,0
305,297,300,301,0
304,282,300,299,0
304,272,301,298,0
305,269,303,299,0
307,269,304,301,0
309,274,305,304,0
310,281,305,306,0
309,290,304,308,0
308,299,303,308,0
307,306,302,308,0
306,310,303,307,0
305,311,303,307,0
304,312,304,307,0
303,315,305,308,0
303,316,306,309,0
304,315,307,309,0
305,312,306,309,0
305,309,306,308,0
306,306,306,308,0
306,303,306,307,0
307,300,306,308,0
308,300,307,307,0
309,302,306,307,0
310,307,305,307,0
311,313,304,308,0
312,315,304,307,0
311,313,305,305,0
310,308,305,304,0
310,303,305,302,0
310,298,304,300,0
309,297,303,298,0
308,299,302,298,0
307,305,301,298,0
305,312,301,299,0
304,321,302,300,0
305,333,303,302,0
305,341,304,303,0
306,340,306,304,0
307,328,308,306,0
307,308,310,307,0
307,288,311,308,0
307,276,312,309,0
307,273,312,310,0
308,280,312,310,0
308,292,311,308,0
307,306,308,306,0
304,320,305,302,0
302,330,303,299,0
300,336,302,297,0
300,334,302,297,0
300,329,303,297,0
301,322,304,298,0
301,317,305,299,0
303,314,305,300,0
305,313,305,300,0
306,312,304,302,0
307,310,303,303,0
306,302,301,304,0
305,292,301,306,0
305,285,302,306,0
305,281,303,307,0
305,280,304,307,0
305,282,304,306,0
305,286,304,304,0
304,290,304,304,0
304,293,304,303,0
305,295,305,302,0
306,296,306,302,0
306,299,307,303,0
306,304,307,304,0
305,307,306,304,0
305,310,304,304,0
305,310,301,304,0
305,305,298,304,0
305,297,296,303,0
306,293,296,303,0
307,292,299,305,0
308,296,304,308,0
310,302,307,310,0
309,310,309,311,0
308,317,310,311,0
308,323,311,311,0
308,325,311,310,0
310,329,311,311,0
311,337,310,311,0
312,346,311,312,0
311,350,311,312,0
309,348,311,310,0
307,339,310,307,0
306,327,310,304,0
305,317,309,301,0
305,312,308,299,0
304,313,308,297,0
303,315,308,298,0
303,316,309,299,0
304,309,310,301,0
306,298,310,302,0
307,283,310,304,0
309,267,310,305,0
310,255,310,307,0
310,250,310,308,0
309,254,310,310,0
308,266,310,311,0
307,282,311,312,0
306,299,310,313,0
305,310,311,314,0
303,313,311,314,0
302,309,310,313,0
301,304,309,311,0
300,301,306,309,0
299,301,304,308,0
298,303,303,307,0
298,305,302,306,0
298,304,302,306,0
298,301,303,306,0
298,297,305,306,0
298,296,308,306,0
300,297,310,306,0
301,299,312,306,0
303,304,313,306,0
303,306,313,306,0
304,307,313,306,0
304,306,313,303,0
303,303,311,301,0
303,300,309,299,0
302,298,308,298,0
303,299,306,298,0
302,302,307,299,0
302,311,309,301,0
303,320,312,305,0
304,326,314,307,0
305,329,315,309,0
305,331,315,311,0
304,328,315,311,0
303,320,316,312,0
302,314,316,312,0
301,311,316,312,0
301,309,314,310,0
301,310,312,309,0
300,314,310,307,0
301,318,308,305,0
300,323,307,302,0
299,329,304,299,0
298,333,301,297,0
297,331,299,294,0
296,321,298,292,0
296,307,299,293,0
298,293,302,296,0
301,284,305,300,0
304,282,308,305,0
308,288,310,308,0
310,302,309,311,0
311,320,308,312,0
311,335,306,312,0
310,341,304,312,0
309,335,304,312,0
308,315,306,313,0
307,288,308,314,0
306,266,309,314,0
304,256,309,314,0
304,256,309,314,0
303,262,309,314,0
302,272,308,314,0
301,280,308,313,0
301,289,309,312,0
302,297,310,313,0
303,305,311,313,0
304,314,312,314,0
306,322,313,314,0
307,326,312,313,0
307,322,311,311,0
307,313,309,307,0
306,306,307,304,0
306,302,306,302,0
307,301,305,303,0
307,303,306,304,0
308,304,307,306,0
308,301,308,308,0
309,297,309,311,0
311,299,309,312,0
312,309,309,313,0
312,321,309,313,0
311,330,308,313,0
309,337,306,312,0
307,341,304,310,0
305,342,303,310,0
304,341,303,309,0
303,337,303,308,0
302,326,305,309,0
301,312,306,309,0
302,300,306,309,0
303,293,306,309,0
304,290,306,308,0
305,293,305,308,0
305,298,305,308,0
306,307,306,309,0
307,315,307,310,0
307,321,307,310,0
307,321,305,309,0
307,317,304,307,0
307,311,301,306,0
307,306,299,303,0
306,301,296,302,0
304,298,293,300,0
302,295,292,300,0
301,292,293,301,0
301,291,297,304,0
303,294,302,309,0
305,296,306,313,0
307,294,309,316,0
308,290,310,317,0
308,286,310,316,0
309,285,309,314,0
309,289,308,312,0
309,297,307,311,0
309,306,304,310,0
309,313,302,308,0
309,318,300,306,0
308,328,299,303,0
308,341,298,301,0
308,352,299,300,0
308,352,301,298,0
308,335,304,298,0
308,308,308,298,0
310,286,310,299,0
311,279,311,300,0
313,284,309,301,0
314,297,307,303,0
315,310,306,306,0
315,315,306,309,0
314,312,307,311,0
314,303,308,313,0
313,297,309,315,0
312,294,310,317,0
312,294,310,317,0
311,296,310,317,0
310,296,309,313,0
308,296,307,308,0
305,300,305,303,0
305,307,305,300,0
305,314,306,300,0
307,317,307,304,0
308,312,309,307,0
308,301,309,309,0
308,292,309,311,0
307,291,308,312,0
306,297,307,313,0
305,303,306,312,0
303,306,305,312,0
302,307,306,311,0
302,305,307,312,0
303,301,308,313,0
305,302,310,315,0
306,307,312,317,0
306,314,312,317,0
305,321,312,317,0
304,328,311,317,0
304,332,310,316,0
305,331,310,316,0
305,324,309,316,0
305,315,307,315,0
305,307,305,314,0
305,303,303,313,0
305,305,302,312,0
305,314,303,311,0
306,326,304,310,0
307,336,305,310,0
307,336,304,309,0
307,321,303,309,0
308,300,303,309,0
309,279,304,309,0
310,261,307,311,0
310,248,310,312,0
310,242,312,313,0
309,244,312,313,0
307,252,309,311,0
304,265,303,308,0
301,280,298,304,0
299,293,293,300,0
297,303,292,298,0
297,311,294,299,0
298,316,298,302,0
299,316,304,305,0
301,311,307,307,0
303,307,310,308,0
304,311,310,308,0
305,324,310,307,0
306,340,310,308,0
308,353,309,309,0
308,355,308,311,0
309,344,306,312,0
308,329,305,313,0
309,318,307,315,0
309,312,308,317,0
311,310,310,317,0
311,308,311,317,0
311,302,313,317,0
310,292,314,318,0
309,283,314,317,0
308,279,315,317,0
307,283,316,315,0
307,293,316,314,0
305,307,315,312,0
304,321,312,309,0
303,332,308,306,0
303,337,306,304,0
304,333,305,304,0
305,322,305,305,0
305,307,305,306,0
305,295,304,305,0
305,288,304,305,0
305,287,305,304,0
305,290,305,305,0
305,295,306,306,0
305,298,306,307,0
305,300,307,307,0
306,302,309,307,0
306,301,311,308,0
307,296,312,309,0
307,288,314,308,0
306,281,314,308,0
305,278,314,308,0
306,283,315,309,0
307,295,316,310,0
309,316,317,312,0
312,341,317,314,0
314,361,317,315,0
315,366,316,316,0
314,354,314,317,0
313,337,312,317,0
311,318,309,315,0
308,301,306,311,0
305,289,304,308,0
304,285,303,306,0
304,287,302,305,0
304,294,303,305,0
305,306,305,307,0
305,318,308,308,0
306,324,310,310,0
306,321,312,310,0
307,305,312,310,0
306,284,312,310,0
307,263,313,310,0
308,249,313,311,0
310,240,314,311,0
312,240,315,312,0
314,244,314,312,0
315,251,312,311,0
314,262,311,310,0
312,276,310,310,0
311,291,310,310,0
309,305,309,309,0
306,315,307,308,0
304,321,306,306,0
303,325,306,305,0
302,329,306,305,0
303,330,307,307,0
303,325,308,307,0
303,312,307,307,0
304,298,307,306,0
306,288,307,306,0
308,285,307,305,0
309,287,306,304,0
309,294,304,304,0
309,303,303,306,0
309,314,302,307,0
309,323,302,309,0
308,332,302,310,0
308,338,302,311,0
307,341,303,312,0
305,338,304,312,0
305,331,305,311,0
306,320,307,311,0
307,313,309,311,0
308,308,311,311,0
308,307,310,311,0
308,308,310,311,0
307,311,309,311,0
306,313,308,311,0
305,314,308,310,0
304,319,308,308,0
304,329,306,305,0
304,342,304,302,0
305,353,302,300,0
306,355,300,297,0
304,340,298,294,0
302,313,298,292,0
300,289,300,294,0
300,275,304,296,0
301,272,307,299,0
302,275,310,302,0
303,282,311,305,0
305,290,312,307,0
306,301,311,309,0
307,312,310,310,0
307,320,309,311,0
307,323,307,311,0
306,318,306,310,0
305,307,305,309,0
305,297,305,307,0
306,291,306,306,0
306,288,307,305,0
306,288,308,304,0
307,288,309,305,0
308,288,310,305,0
309,288,311,305,0
310,289,311,305,0
310,293,311,305,0
310,299,310,306,0
309,308,309,307,0
309,319,309,309,0
310,330,308,309,0
311,339,306,309,0
311,345,304,308,0
311,344,302,307,0
309,337,301,306,0
307,331,301,306,0
306,326,304,306,0
305,317,307,309,0
304,308,309,310,0
302,298,310,312,0
301,287,312,312,0
300,279,313,313,0
300,274,313,313,0
301,270,313,313,0
302,268,312,311,0
304,268,311,310,0
306,269,311,309,0
308,273,310,308,0
308,281,309,307,0
308,292,308,307,0
309,304,307,307,0
308,311,306,306,0
307,314,307,306,0
306,316,308,306,0
305,313,309,305,0
304,308,309,305,0
303,303,309,304,0
303,300,308,304,0
303,297,307,303,0
304,295,307,304,0
305,296,307,304,0
306,300,307,304,0
306,303,308,305,0
307,307,308,305,0
307,311,309,305,0
306,313,309,306,0
306,312,310,306,0
306,308,311,307,0
307,304,310,307,0
307,299,310,307,0
307,294,309,306,0
308,295,308,306,0
309,301,309,306,0
310,312,310,307,0
311,329,312,308,0
312,344,312,308,0
311,353,312,308,0
310,355,312,307,0
310,351,311,307,0
310,343,312,307,0
309,332,311,306,0
308,319,311,305,0
308,308,310,304,0
306,297,309,304,0
304,284,307,302,0
302,272,306,300,0
301,268,306,297,0
300,272,306,296,0
300,282,307,295,0
301,293,308,295,0
302,301,308,297,0
302,300,307,299,0
302,295,306,299,0
300,290,304,300,0
299,291,302,300,0
297,296,301,301,0
297,302,301,301,0
297,307,302,302,0
298,309,305,305,0
300,307,308,309,0
302,306,310,311,0
303,308,311,310,0
303,313,310,307,0
302,320,309,304,0
301,325,308,302,0
299,324,308,300,0
298,318,308,299,0
298,312,308,298,0
298,309,309,298,0
299,309,309,300,0
301,307,310,302,0
302,301,310,305,0
304,294,310,307,0
305,289,308,308,0
306,284,305,308,0
306,284,300,307,0
305,289,295,305,0
303,297,292,301,0
299,306,292,299,0
298,315,294,300,0
297,318,297,302,0
297,312,301,303,0
298,303,303,305,0
300,294,305,307,0
302,288,306,309,0
305,285,309,312,0
308,287,312,313,0
310,294,314,313,0
309,302,315,312,0
306,307,314,310,0
305,308,313,309,0
305,307,314,309,0
306,307,315,309,0
307,308,316,311,0
308,311,316,314,0
308,312,317,316,0
308,311,317,317,0
307,311,316,317,0
307,316,314,316,0
307,326,313,317,0
309,340,312,316,0
311,353,311,316,0
312,362,311,316,0
312,363,312,316,0
313,353,313,315,0
312,337,314,313,0
311,324,314,311,0
309,316,313,309,0
307,311,311,306,0
304,307,309,304,0
302,304,307,302,0
300,301,305,301,0
299,296,304,301,0
299,292,304,302,0
299,288,304,302,0
300,288,304,302,0
301,291,303,301,0
303,298,303,301,0
304,307,304,302,0
306,317,306,306,0
308,323,309,311,0
310,325,312,314,0
312,327,312,316,0
312,329,311,317,0
312,330,308,317,0
311,327,307,316,0
310,316,306,315,0
307,297,307,313,0
305,279,308,311,0
303,267,309,309,0
302,263,310,308,0
302,267,310,307,0
302,279,309,306,0
303,293,307,306,0
304,306,306,306,0
304,315,305,307,0
303,317,304,306,0
302,315,304,305,0
300,314,302,304,0
299,313,300,304,0
298,312,297,304,0
296,312,295,306,0
296,311,292,305,0
295,310,291,304,0
295,310,291,304,0
297,313,295,304,0
300,320,300,307,0
303,329,306,309,0
305,336,311,311,0
306,338,313,311,0
308,333,315,311,0
308,322,316,312,0
309,310,317,313,0
309,303,316,314,0
309,300,315,315,0
308,301,313,315,0
307,300,311,314,0
307,294,310,313,0
307,282,310,311,0
306,269,310,309,0
306,263,309,308,0
305,265,308,307,0
304,271,307,306,0
302,281,307,306,0
301,291,307,305,0
299,302,307,305,0
299,312,307,305,0
299,320,308,306,0
299,325,309,306,0
299,329,309,307,0
300,331,309,308,0
302,335,310,310,0
304,338,310,311,0
305,341,309,311,0
305,340,308,311,0
304,339,306,310,0
303,343,306,310,0
303,347,306,310,0
303,347,308,310,0
304,345,309,308,0
305,340,309,306,0
305,330,308,305,0
305,315,308,302,0
305,300,307,300,0
304,286,306,297,0
302,277,305,296,0
302,276,305,296,0
303,283,305,296,0
304,293,305,297,0
305,301,305,299,0
305,302,305,303,0
304,294,306,306,0
304,283,307,309,0
304,275,307,312,0
305,272,308,314,0
307,274,309,315,0
307,279,311,315,0
308,287,312,314,0
307,296,314,314,0
307,301,315,313,0
306,301,315,312,0
305,305,314,310,0
305,314,313,307,0
304,325,312,306,0
303,332,310,304,0
301,333,309,304,0
300,326,310,304,0
299,317,311,306,0
299,310,312,308,0
299,307,314,309,0
300,308,315,310,0
300,308,316,311,0
301,303,315,310,0
301,294,312,309,0
302,285,309,308,0
304,277,305,307,0
305,272,302,307,0
307,271,299,307,0
309,275,299,307,0
310,282,300,308,0
311,292,302,307,0
311,302,304,307,0
311,309,304,306,0
312,315,304,306,0
312,317,304,306,0
311,317,306,308,0
309,315,309,310,0
309,312,314,312,0
308,310,317,313,0
307,310,318,314,0
306,312,317,314,0
305,315,316,313,0
304,318,313,312,0
303,323,311,311,0
303,328,310,309,0
302,332,309,307,0
302,332,308,306,0
303,326,308,306,0
305,319,308,307,0
307,319,308,308,0
309,327,309,310,0
310,340,309,311,0
312,350,310,311,0
312,349,310,310,0
311,340,308,307,0
309,328,306,305,0
307,316,304,303,0
305,304,303,301,0
304,294,303,300,0
303,287,304,299,0
303,283,304,300,0
302,281,305,301,0
302,280,305,303,0
301,278,305,304,0
301,273,305,304,0
302,266,306,305,0
303,260,307,305,0
304,260,307,306,0
305,268,308,307,0
306,278,308,308,0
306,288,307,309,0
307,293,307,309,0
306,295,306,309,0
306,297,305,307,0
306,304,305,307,0
307,317,305,306,0
308,334,305,306,0
307,350,305,306,0
307,358,306,306,0
305,352,305,305,0
304,335,304,303,0
304,315,302,300,0
303,298,301,297,0
303,285,300,296,0
302,277,300,295,0
302,274,300,295,0
303,277,301,295,0
304,283,302,296,0
305,290,303,297,0
307,293,305,299,0
309,294,306,300,0
311,294,308,301,0
312,297,310,302,0
312,300,310,302,0
311,303,310,302,0
310,304,309,302,0
309,303,306,302,0
309,304,304,302,0
308,309,302,303,0
309,320,302,303,0
309,331,302,305,0
310,337,303,307,0
310,336,303,308,0
309,333,304,310,0
309,332,305,312,0
309,334,307,314,0
309,335,309,316,0
310,330,310,317,0
309,322,309,318,0
308,314,307,317,0
305,311,305,316,0
304,311,304,314,0
302,310,302,312,0
301,305,299,309,0
300,297,297,306,0
299,287,295,303,0
299,280,295,302,0
300,279,296,302,0
302,282,300,302,0
302,288,303,304,0
303,291,306,306,0
303,287,308,307,0
304,279,309,308,0
305,272,309,310,0
306,268,309,311,0
307,268,310,313,0
308,272,311,313,0
309,279,311,313,0
311,289,311,313,0
312,306,310,314,0
312,322,308,313,0
311,329,306,311,0
308,328,303,307,0
305,324,301,304,0
303,321,299,301,0
301,321,298,299,0
301,322,299,298,0
301,319,300,299,0
303,310,303,302,0
305,300,305,305,0
307,295,307,308,0
308,294,307,309,0
308,293,307,308,0
307,293,307,308,0
306,293,307,307,0
305,294,307,306,0
305,295,306,304,0
305,296,306,302,0
306,297,305,299,0
307,297,305,298,0
309,297,303,297,0
310,297,301,296,0
310,300,298,295,0
309,306,293,293,0
307,317,290,291,0
306,330,289,292,0
305,338,291,293,0
306,338,295,295,0
306,331,299,298,0
307,318,302,301,0
308,309,306,304,0
309,306,310,307,0
310,308,313,310,0
312,312,316,311,0
313,316,318,311,0
313,317,318,311,0
312,314,317,310,0
311,310,316,310,0
310,305,313,309,0
309,300,312,308,0
307,297,311,306,0
306,295,311,304,0
306,297,310,303,0
305,303,308,303,0
305,313,307,302,0
307,325,306,300,0
307,334,306,298,0
307,337,305,297,0
306,334,302,297,0
305,329,299,298,0
304,325,297,300,0
304,322,299,302,0
305,321,302,305,0
307,320,307,307,0
308,314,309,309,0
308,305,310,309,0
308,300,310,310,0
307,297,309,310,0
307,298,310,310,0
307,303,311,310,0
307,306,312,310,0
307,302,312,310,0
307,291,311,309,0
307,279,310,308,0
307,270,308,307,0
307,265,307,306,0
307,266,306,303,0
306,272,305,302,0
304,284,304,300,0
302,299,303,300,0
300,310,303,301,0
300,312,303,304,0
300,309,304,306,0
302,306,306,309,0
305,305,308,310,0
306,304,308,311,0
306,307,308,309,0
305,314,307,308,0
303,324,307,307,0
302,332,305,306,0
302,334,305,307,0
301,328,305,307,0
301,317,305,308,0
302,305,304,310,0
303,296,303,311,0
304,292,302,312,0
305,293,303,313,0
306,303,304,313,0
308,315,305,313,0
309,325,306,311,0
309,327,304,308,0
309,318,302,304,0
308,300,299,300,0
307,284,296,298,0
307,276,293,297,0
307,278,293,298,0
308,287,295,300,0
307,299,297,302,0
307,314,300,306,0
307,327,301,308,0
306,330,301,308,0
305,325,300,307,0
304,319,301,306,0
304,314,303,306,0
305,310,307,305,0
306,308,310,305,0
307,306,311,304,0
307,306,311,305,0
306,307,310,307,0
306,309,308,308,0
306,314,307,308,0
307,318,306,308,0
307,320,306,307,0
308,321,307,307,0
308,323,307,308,0
309,324,307,310,0
310,325,307,311,0
310,327,305,311,0
309,328,303,309,0
309,325,302,307,0
309,321,300,305,0
309,318,299,305,0
309,314,300,305,0
310,308,301,305,0
310,300,302,305,0
310,293,302,305,0
309,290,303,305,0
309,292,304,306,0
309,302,304,307,0
309,316,304,307,0
309,334,304,308,0
309,349,305,308,0
309,359,307,307,0
310,359,308,306,0
311,349,309,305,0
311,329,308,304,0
310,303,307,302,0
308,276,305,300,0
306,257,304,300,0
305,246,303,299,0
304,247,303,300,0
303,260,303,301,0
303,280,301,303,0
303,301,300,303,0
303,315,299,303,0
301,315,297,302,0
299,303,295,300,0
297,294,295,299,0
297,296,296,301,0
297,307,298,304,0
297,316,301,308,0
297,317,304,310,0
297,311,307,312,0
297,305,308,312,0
298,302,309,311,0
300,300,309,310,0
301,298,308,308,0
301,298,307,307,0
301,298,306,306,0
302,299,306,306,0
302,298,306,306,0
302,298,306,306,0
302,298,306,306,0
302,298,306,307,0
303,299,305,307,0
304,301,304,306,0
304,301,303,305,0
304,303,301,303,0
303,304,300,301,0
302,305,298,299,0
300,308,297,297,0
300,316,298,296,0
301,324,299,297,0
302,330,301,299,0
302,331,303,302,0
303,328,305,306,0
304,319,307,310,0
304,312,309,312,0
304,307,310,312,0
305,305,310,312,0
305,305,309,311,0
304,305,305,310,0
302,302,302,309,0
300,299,299,308,0
299,298,298,307,0
299,299,298,305,0
299,300,300,303,0
299,303,301,301,0
299,309,302,300,0
300,319,303,301,0
302,331,302,302,0
305,341,301,303,0
307,348,300,304,0
309,346,299,304,0
309,336,299,305,0
307,321,299,304,0
305,305,300,303,0
304,298,303,304,0
305,304,307,306,0
306,316,309,308,0
