309,303,306,308,0
311,304,306,309,0
313,303,305,310,0
314,303,305,310,0
313,302,304,310,0
311,302,305,309,0
308,302,306,308,0
306,303,308,307,0
306,303,310,307,0
308,304,312,307,0
310,304,313,306,0
311,304,313,306,0
309,305,312,306,0
307,305,311,306,0
304,304,310,307,0
300,304,309,308,0
296,304,308,308,0
293,304,307,309,0
292,305,306,310,0
293,304,306,310,0
295,304,306,310,0
297,304,306,311,0
299,304,307,311,0
300,303,307,310,0
300,302,308,309,0
300,301,308,308,0
300,301,307,307,0
301,301,306,306,0
302,302,304,305,0
302,303,302,304,0
302,304,299,303,0
301,305,298,303,0
297,305,298,302,0
294,306,299,302,0
294,306,301,303,0
296,306,304,303,0
300,306,306,304,0
304,306,308,305,0
308,306,311,307,0
311,306,312,309,0
313,306,312,311,0
313,306,312,313,0
312,306,311,315,0
311,305,310,316,0
308,305,309,317,0
305,305,308,317,0
303,305,307,316,0
301,305,306,315,0
300,304,305,314,0
300,304,304,313,0
301,303,304,312,0
302,303,304,312,0
303,304,305,312,0
304,305,306,312,0
306,306,307,311,0
306,307,308,311,0
307,307,308,312,0
307,308,308,312,0
307,308,307,313,0
307,308,307,313,0
307,309,306,314,0
306,308,306,315,0
305,308,305,315,0
304,308,305,316,0
303,308,305,315,0
303,308,306,314,0
302,308,306,313,0
303,308,306,312,0
303,308,305,311,0
303,308,304,308,0
303,308,304,306,0
303,308,304,305,0
304,309,304,306,0
304,309,304,306,0
303,309,303,307,0
303,308,303,307,0
303,308,302,308,0
304,308,303,309,0
305,308,304,310,0
305,308,304,311,0
307,307,305,312,0
308,307,305,313,0
310,307,305,314,0
312,306,305,315,0
314,306,304,315,0
315,306,304,315,0
315,306,304,315,0
314,304,303,314,0
313,303,302,314,0
312,303,302,312,0
312,304,302,312,0
311,304,302,311,0
309,304,301,310,0
306,304,300,310,0
304,304,299,309,0
304,304,299,308,0
305,303,299,308,0
306,303,298,308,0
307,303,298,308,0
308,304,298,310,0
310,304,298,310,0
309,304,298,310,0
308,303,297,310,0
306,303,297,311,0
306,303,297,312,0
306,303,297,312,0
306,303,298,311,0
307,302,299,312,0
308,303,300,312,0
308,303,301,312,0
309,304,301,312,0
311,304,301,311,0
312,304,301,311,0
314,304,300,310,0
316,304,300,310,0
317,304,300,309,0
314,304,299,309,0
311,303,299,307,0
308,302,299,307,0
306,302,298,307,0
307,302,299,308,0
308,303,300,308,0
309,303,301,309,0
311,304,303,309,0
311,304,303,309,0
311,304,303,309,0
311,304,303,310,0
311,303,303,310,0
312,303,303,310,0
313,303,303,309,0
315,303,302,309,0
316,303,301,308,0
316,303,301,307,0
315,302,300,307,0
313,301,299,306,0
311,301,298,306,0
310,300,298,305,0
309,300,298,305,0
308,300,298,304,0
305,300,297,304,0
302,301,297,304,0
300,302,297,305,0
298,303,298,306,0
297,304,299,306,0
297,304,299,307,0
298,305,300,307,0
299,305,301,307,0
300,306,302,306,0
301,306,303,306,0
302,306,304,305,0
303,305,304,304,0
305,304,304,304,0
305,304,304,304,0
304,304,304,304,0
303,304,304,304,0
301,303,303,304,0
300,302,304,303,0
301,301,303,302,0
303,300,303,301,0
306,300,303,301,0
307,299,302,301,0
306,297,301,301,0
304,296,300,300,0
305,297,299,301,0
308,299,300,303,0
310,302,301,304,0
311,304,301,305,0
311,305,301,305,0
310,305,301,305,0
309,305,300,305,0
307,307,300,306,0
306,309,300,306,0
305,310,300,306,0
304,310,300,305,0
305,310,300,304,0
305,309,301,304,0
305,309,303,305,0
306,310,305,307,0
305,311,307,308,0
304,312,309,309,0
304,313,309,309,0
304,313,309,308,0
305,312,309,308,0
305,312,308,309,0
306,312,307,309,0
306,312,306,309,0
307,312,305,310,0
308,311,305,309,0
308,311,305,308,0
308,310,305,308,0
309,310,304,308,0
309,309,305,308,0
309,309,305,307,0
308,308,305,307,0
308,309,305,306,0
308,309,306,306,0
308,309,306,306,0
307,309,305,306,0
307,309,304,306,0
307,308,305,306,0
307,308,305,306,0
307,308,306,307,0
306,308,306,306,0
305,308,305,306,0
305,309,305,306,0
305,311,305,306,0
305,312,304,307,0
304,313,305,307,0
304,314,305,308,0
305,315,306,308,0
305,315,305,309,0
306,314,306,310,0
307,314,305,310,0
307,314,305,311,0
308,314,306,311,0
308,314,306,312,0
308,314,307,312,0
309,314,307,311,0
309,313,307,310,0
308,312,306,310,0
307,311,307,310,0
307,310,307,310,0
307,308,308,310,0
306,305,308,310,0
304,303,307,310,0
302,303,307,310,0
301,305,307,310,0
302,306,307,310,0
303,305,306,309,0
303,303,304,307,0
302,301,303,307,0
301,302,304,308,0
300,305,306,310,0
300,308,307,311,0
301,309,308,311,0
302,310,307,311,0
302,311,307,311,0
302,312,306,310,0
303,312,305,310,0
304,314,305,310,0
305,314,306,310,0
306,314,306,310,0
305,313,305,311,0
302,312,304,311,0
297,310,302,311,0
293,309,301,311,0
291,309,300,311,0
293,310,301,312,0
297,311,302,312,0
301,311,304,312,0
304,312,306,312,0
305,311,306,311,0
303,311,306,311,0
301,310,305,310,0
300,309,304,309,0
300,309,304,308,0
301,308,304,308,0
303,308,304,308,0
302,307,305,309,0
302,307,306,310,0
303,307,308,311,0
305,307,309,313,0
306,307,310,314,0
308,307,311,315,0
309,307,312,315,0
311,307,312,315,0
313,306,311,315,0
314,306,310,314,0
314,306,309,313,0
314,305,308,311,0
313,304,307,310,0
310,304,307,309,0
307,304,308,309,0
303,305,308,309,0
301,306,309,309,0
300,307,309,311,0
299,308,310,311,0
298,308,310,311,0
298,309,309,312,0
299,310,308,313,0
299,310,308,312,0
299,309,306,311,0
299,308,304,310,0
299,308,303,310,0
299,308,302,310,0
300,307,301,310,0
300,307,301,310,0
302,306,302,311,0
303,307,303,311,0
305,307,305,311,0
308,306,307,311,0
310,306,308,311,0
312,306,308,312,0
312,306,309,312,0
311,306,309,312,0
310,306,308,312,0
309,305,308,311,0
307,305,309,311,0
306,306,308,311,0
305,306,308,311,0
304,306,308,312,0
304,307,308,312,0
304,307,308,312,0
304,307,307,312,0
305,308,307,312,0
306,309,307,312,0
307,309,306,312,0
308,309,306,311,0
307,309,306,311,0
307,309,305,311,0
305,310,304,312,0
305,311,304,312,0
304,311,302,312,0
303,311,301,311,0
303,310,300,310,0
303,311,300,310,0
304,311,301,311,0
304,312,302,311,0
305,312,303,313,0
305,312,305,313,0
305,311,306,314,0
304,310,307,315,0
304,310,309,316,0
305,310,310,317,0
306,311,311,317,0
307,312,312,317,0
308,312,313,316,0
309,312,313,316,0
309,312,313,315,0
308,312,312,315,0
308,312,312,313,0
307,311,312,312,0
308,311,312,311,0
309,310,312,309,0
309,309,312,309,0
310,309,311,308,0
309,308,311,309,0
308,308,310,309,0
307,308,310,311,0
305,308,309,312,0
304,307,308,312,0
303,306,307,312,0
301,304,305,311,0
301,303,303,310,0
301,302,303,310,0
302,303,303,311,0
303,303,304,311,0
304,304,305,311,0
306,304,306,310,0
307,304,307,309,0
309,303,307,307,0
310,303,306,305,0
310,302,305,304,0
310,302,304,303,0
310,303,304,304,0
310,305,304,305,0
310,306,304,306,0
309,306,305,308,0
309,306,306,309,0
308,306,307,310,0
308,306,308,310,0
308,306,309,311,0
308,305,310,310,0
307,304,310,310,0
306,302,308,309,0
305,301,306,308,0
305,301,305,308,0
307,301,303,308,0
308,300,303,308,0
309,300,304,309,0
310,300,305,311,0
310,299,306,311,0
310,298,307,311,0
312,298,308,310,0
313,298,309,310,0
313,298,309,309,0
310,299,309,309,0
305,300,308,309,0
300,300,307,310,0
295,301,306,310,0
295,300,307,310,0
299,300,307,310,0
306,300,308,311,0
313,301,310,311,0
319,301,312,311,0
321,301,312,311,0
320,301,312,311,0
315,302,311,310,0
308,301,310,310,0
300,301,310,309,0
294,302,310,308,0
290,303,309,308,0
287,303,308,306,0
287,304,307,306,0
289,304,308,305,0
292,304,308,305,0
294,303,310,305,0
297,303,311,305,0
300,303,311,305,0
302,302,311,305,0
304,302,310,304,0
306,302,309,303,0
306,302,307,303,0
306,303,306,303,0
304,303,305,303,0
301,303,305,302,0
298,302,304,302,0
298,303,305,302,0
299,303,306,302,0
300,304,306,302,0
302,304,307,302,0
304,304,307,303,0
305,303,308,303,0
305,302,308,303,0
306,301,309,303,0
306,301,310,304,0
307,300,311,304,0
307,300,311,304,0
307,300,311,304,0
307,301,310,304,0
307,302,310,304,0
307,304,311,305,0
308,304,312,306,0
307,305,312,307,0
307,304,313,307,0
306,304,312,307,0
306,303,312,307,0
305,301,310,306,0
304,301,307,306,0
303,300,305,305,0
303,298,303,303,0
302,297,301,301,0
303,296,301,300,0
304,298,302,301,0
305,300,303,302,0
305,302,304,303,0
303,303,305,304,0
302,304,306,305,0
301,304,307,306,0
301,303,307,305,0
301,303,307,306,0
302,304,308,307,0
302,304,308,308,0
302,304,309,308,0
302,303,309,307,0
302,303,309,306,0
301,303,310,306,0
301,303,310,305,0
301,303,310,305,0
302,302,309,304,0
303,302,308,303,0
304,301,308,302,0
304,302,308,303,0
304,303,308,303,0
303,304,308,303,0
302,305,306,302,0
301,305,304,301,0
301,305,301,300,0
301,306,299,299,0
302,306,296,297,0
302,305,294,295,0
302,305,292,294,0
302,305,291,293,0
302,303,291,291,0
301,302,292,289,0
300,301,293,288,0
300,301,296,289,0
301,302,299,292,0
303,303,302,295,0
304,302,304,298,0
305,302,307,301,0
306,303,311,304,0
308,304,314,307,0
311,304,315,308,0
313,305,315,309,0
314,307,313,310,0
314,309,313,312,0
314,310,312,312,0
313,310,311,312,0
311,310,310,312,0
307,310,310,312,0
305,310,310,312,0
305,310,311,313,0
306,310,312,313,0
306,310,312,313,0
306,310,313,313,0
307,310,313,313,0
307,310,313,313,0
308,312,313,312,0
308,314,312,312,0
308,316,312,311,0
308,316,311,311,0
308,317,310,311,0
309,316,310,310,0
308,314,310,310,0
308,312,310,310,0
308,308,311,309,0
308,304,311,309,0
308,302,311,309,0
308,301,312,309,0
308,301,312,309,0
309,300,311,309,0
309,299,311,310,0
309,299,311,309,0
309,298,311,309,0
310,298,310,308,0
309,297,310,306,0
309,298,309,305,0
308,298,307,304,0
308,299,306,303,0
307,299,305,304,0
307,299,304,304,0
306,298,304,305,0
305,299,303,306,0
304,301,303,307,0
304,303,303,306,0
303,303,302,305,0
303,303,302,303,0
302,303,301,301,0
301,302,301,300,0
300,301,300,299,0
299,299,299,298,0
299,296,299,297,0
299,294,298,297,0
299,293,298,296,0
299,294,298,297,0
298,296,297,297,0
298,298,297,297,0
297,300,296,298,0
298,302,296,298,0
298,302,296,297,0
299,302,296,296,0
299,302,295,296,0
299,302,294,295,0
299,302,293,294,0
300,301,293,294,0
299,301,293,294,0
300,301,293,294,0
300,300,293,295,0
300,300,292,296,0
301,301,291,297,0
302,303,292,300,0
304,306,294,303,0
307,311,296,306,0
309,317,299,309,0
309,322,302,312,0
309,327,304,314,0
308,330,307,316,0
307,329,308,317,0
306,323,308,317,0
304,315,308,314,0
303,306,308,312,0
303,300,307,311,0
304,295,307,310,0
304,293,306,308,0
304,292,306,307,0
304,292,306,305,0
305,293,306,305,0
307,296,307,304,0
309,299,308,303,0
310,302,308,303,0
310,305,306,304,0
309,308,305,306,0
309,310,305,307,0
308,312,306,309,0
308,314,307,310,0
308,315,309,311,0
308,315,309,312,0
308,314,310,313,0
309,314,311,314,0
310,313,312,315,0
311,313,314,316,0
312,313,315,316,0
312,312,315,317,0
311,312,313,319,0
310,313,312,320,0
309,315,311,320,0
308,318,310,321,0
307,321,309,321,0
306,323,308,320,0
305,324,308,320,0
305,324,309,320,0
305,324,309,320,0
305,323,309,320,0
305,321,308,319,0
304,320,308,318,0
303,318,308,317,0
301,315,308,315,0
300,312,309,314,0
299,307,309,312,0
299,302,308,309,0
298,296,307,307,0
298,290,305,304,0
298,285,303,302,0
298,281,301,300,0
298,278,301,298,0
298,278,301,297,0
298,280,302,296,0
299,285,303,296,0
299,292,304,297,0
300,301,306,300,0
301,308,307,303,0
301,315,307,305,0
301,321,307,306,0
301,327,306,307,0
301,333,305,306,0
301,337,304,306,0
301,339,303,305,0
301,340,301,304,0
301,337,301,302,0
300,334,300,301,0
299,330,300,300,0
299,328,300,299,0
299,327,302,301,0
300,330,304,302,0
301,333,305,304,0
302,337,308,307,0
303,343,311,310,0
305,350,314,315,0
307,358,318,320,0
308,363,321,324,0
308,361,321,327,0
306,351,320,327,0
305,339,319,326,0
304,327,319,326,0
304,319,319,326,0
304,313,319,325,0
304,308,319,325,0
305,305,319,325,0
305,304,318,324,0
305,304,319,323,0
305,304,320,321,0
305,303,320,320,0
306,303,320,318,0
305,304,319,317,0
305,308,318,316,0
305,315,317,314,0
305,324,316,313,0
306,332,315,311,0
305,335,314,310,0
305,334,312,308,0
305,329,311,307,0
305,317,310,306,0
303,302,308,305,0
302,287,308,305,0
302,274,309,306,0
304,265,310,307,0
306,259,310,308,0
307,258,309,309,0
307,262,307,310,0
305,269,307,310,0
304,275,308,309,0
303,281,309,307,0
303,285,310,306,0
304,289,310,305,0
303,293,310,304,0
302,296,308,302,0
302,296,307,301,0
301,299,306,300,0
301,305,305,299,0
300,317,305,299,0
299,328,304,300,0
298,334,304,302,0
298,329,305,304,0
297,315,306,307,0
298,295,309,309,0
299,276,312,313,0
302,264,316,315,0
304,259,320,318,0
307,261,323,319,0
310,268,325,321,0
311,282,326,321,0
311,302,324,322,0
311,327,323,324,0
310,343,321,325,0
309,344,320,325,0
307,332,319,323,0
305,309,319,321,0
306,278,319,319,0
306,247,320,318,0
307,215,321,316,0
307,186,321,315,0
307,164,322,313,0
308,155,321,313,0
310,162,321,314,0
311,184,322,316,0
311,218,322,317,0
310,264,321,318,0
306,314,318,319,0
303,362,315,319,0
299,396,312,319,0
295,416,310,318,0
291,425,307,316,0
288,426,306,315,0
286,423,305,314,0
286,417,305,314,0
286,410,305,314,0
287,404,305,315,0
288,401,306,315,0
291,401,307,315,0
293,401,308,316,0
295,398,309,317,0
297,390,309,317,0
299,378,309,316,0
301,367,310,315,0
303,359,311,313,0
304,352,312,312,0
306,341,313,312,0
308,325,314,310,0
310,301,315,309,0
313,274,317,308,0
316,249,318,308,0
320,226,321,308,0
324,204,323,308,0
327,186,324,308,0
329,180,326,308,0
331,191,327,309,0
330,217,327,310,0
328,249,325,310,0
322,277,323,311,0
314,296,319,310,0
305,310,314,308,0
297,326,310,308,0
292,345,308,307,0
289,363,306,307,0
288,377,305,307,0
288,385,304,307,0
289,387,304,307,0
289,383,305,306,0
290,376,305,306,0
290,367,306,306,0
290,357,305,306,0
291,349,305,307,0
293,344,306,307,0
294,340,307,308,0
295,337,307,309,0
297,336,307,311,0
297,336,307,312,0
298,335,307,312,0
299,333,308,313,0
300,330,309,313,0
301,325,309,314,0
302,319,309,314,0
303,312,308,314,0
303,304,308,314,0
303,299,306,313,0
303,296,306,312,0
303,297,305,311,0
304,303,306,311,0
304,316,305,311,0
305,333,305,311,0
306,349,304,312,0
307,360,303,312,0
308,360,303,312,0
309,348,303,311,0
311,331,304,311,0
311,319,304,309,0
311,318,304,308,0
311,333,304,308,0
310,361,304,309,0
311,399,305,311,0
313,436,307,315,0
315,460,309,319,0
316,457,310,321,0
316,431,310,321,0
316,397,310,321,0
316,368,310,320,0
317,348,310,320,0
316,333,310,318,0
314,322,309,316,0
311,314,308,314,0
309,307,306,313,0
307,304,305,312,0
305,306,303,312,0
304,314,302,313,0
304,327,301,315,0
304,341,301,317,0
305,351,302,318,0
306,353,304,318,0
305,345,305,317,0
304,330,305,315,0
302,315,306,314,0
301,302,306,313,0
301,294,306,314,0
301,287,305,313,0
300,282,303,312,0
300,283,302,311,0
300,287,303,310,0
300,291,304,308,0
301,297,305,307,0
301,307,305,306,0
302,319,305,305,0
303,330,305,305,0
304,333,304,306,0
305,325,303,305,0
304,307,303,303,0
304,287,303,302,0
304,271,302,300,0
305,264,302,300,0
306,265,302,300,0
308,280,303,301,0
311,304,303,302,0
313,334,303,304,0
312,360,302,306,0
311,381,301,307,0
311,392,301,308,0
311,389,299,309,0
311,376,297,308,0
312,366,293,306,0
312,365,290,304,0
312,371,289,302,0
312,376,289,299,0
311,369,290,296,0
309,349,293,293,0
307,320,296,292,0
306,291,299,291,0
306,272,303,292,0
308,263,306,295,0
310,264,310,299,0
311,272,313,304,0
313,283,316,309,0
315,290,319,314,0
315,286,320,315,0
314,271,320,315,0
313,254,319,314,0
310,247,318,313,0
308,251,316,312,0
307,265,315,311,0
305,286,314,309,0
304,311,313,308,0
304,337,311,308,0
304,361,309,307,0
304,384,306,307,0
304,408,304,306,0
304,435,303,306,0
306,461,303,305,0
309,483,303,305,0
312,496,305,305,0
314,489,306,303,0
313,461,305,297,0
309,427,301,290,0
305,402,297,286,0
304,396,296,287,0
304,401,298,292,0
305,404,302,297,0
305,396,306,304,0
305,379,310,308,0
305,356,312,310,0
304,334,312,310,0
304,321,307,310,0
306,321,298,308,0
308,335,287,306,0
313,357,278,302,0
317,381,269,297,0
322,407,262,291,0
328,429,258,284,0
333,447,259,281,0
338,455,264,282,0
337,442,272,284,0
331,406,281,286,0
323,362,292,290,0
314,320,303,296,0
307,278,313,301,0
303,247,318,303,0
300,238,322,304,0
298,249,323,306,0
299,275,322,308,0
302,307,315,309,0
304,342,302,310,0
306,369,285,307,0
308,386,269,303,0
309,393,256,299,0
309,385,246,293,0
307,364,239,285,0
303,335,240,278,0
299,305,249,276,0
297,281,264,281,0
298,276,276,290,0
300,294,283,299,0
305,336,283,305,0
310,395,278,309,0
315,453,264,311,0
318,493,246,307,0
316,494,229,297,0
312,456,217,284,0
307,403,213,271,0
300,354,215,258,0
294,317,226,250,0
292,299,247,251,0
296,302,272,261,0
304,326,298,278,0
315,364,318,296,0
326,408,328,309,0
335,451,326,317,0
341,487,315,320,0
342,511,304,320,0
338,498,295,315,0
331,432,286,304,0
321,343,278,290,0
316,270,275,276,0
313,233,273,264,0
310,226,272,255,0
307,232,270,249,0
304,234,266,246,0
302,240,262,247,0
303,260,263,252,0
306,291,271,260,0
310,322,284,271,0
316,332,298,281,0
319,316,314,287,0
320,283,327,290,0
320,248,335,292,0
319,230,339,295,0
315,243,337,299,0
310,286,327,307,0
304,346,314,315,0
300,403,302,322,0
299,448,295,326,0
302,488,294,327,0
305,529,298,326,0
309,560,305,323,0
312,569,316,317,0
317,551,326,312,0
319,500,330,309,0
316,427,329,308,0
311,348,324,309,0
307,282,317,310,0
305,238,311,312,0
306,210,305,312,0
311,191,301,311,0
316,176,298,308,0
319,172,295,304,0
318,183,292,298,0
312,209,288,290,0
305,245,284,282,0
298,284,282,273,0
292,310,282,265,0
288,324,285,258,0
288,341,290,256,0
291,362,295,255,0
296,374,298,256,0
300,366,302,260,0
302,335,306,269,0
303,293,313,284,0
306,266,320,302,0
312,261,327,318,0
316,278,332,328,0
320,314,336,334,0
323,370,337,337,0
324,433,335,339,0
321,483,327,337,0
316,502,316,331,0
308,473,301,321,0
298,406,286,308,0
290,332,274,293,0
285,272,267,281,0
284,228,266,271,0
284,194,269,266,0
287,175,279,265,0
292,177,291,268,0
299,198,305,278,0
307,222,316,288,0
312,245,325,296,0
317,268,329,303,0
318,283,330,307,0
318,285,329,309,0
317,279,329,310,0
316,266,328,312,0
314,247,328,312,0
313,233,327,312,0
313,237,328,313,0
314,260,328,315,0
315,292,329,317,0
315,306,328,316,0
311,294,325,313,0
308,273,321,308,0
307,260,318,304,0
309,263,314,301,0
312,283,311,298,0
314,316,307,297,0
314,351,302,295,0
311,365,299,291,0
306,347,298,289,0
303,312,300,287,0
302,275,302,287,0
303,244,304,286,0
305,218,306,285,0
307,199,306,283,0
307,193,306,282,0
305,196,306,281,0
303,205,308,282,0
300,217,309,283,0
298,230,309,283,0
298,245,310,285,0
300,260,312,286,0
305,275,313,288,0
311,290,314,290,0
315,304,313,291,0
318,319,312,293,0
319,344,313,297,0
320,382,314,302,0
320,424,316,306,0
317,453,315,308,0
312,460,314,309,0
308,442,313,306,0
304,399,311,303,0
303,352,311,300,0
304,319,311,297,0
305,291,312,294,0
306,276,315,291,0
309,287,317,289,0
315,329,320,289,0
322,390,323,292,0
329,444,325,296,0
333,474,324,300,0
334,465,316,302,0
329,422,303,301,0
321,370,287,295,0
311,322,270,286,0
300,277,256,275,0
291,237,248,266,0
284,202,248,261,0
282,175,256,265,0
283,161,268,275,0
286,160,282,287,0
290,173,296,297,0
295,196,310,303,0
300,226,322,307,0
305,253,330,310,0
308,267,332,311,0
311,273,331,313,0
315,274,330,313,0
318,273,330,312,0
319,280,331,311,0
321,303,332,311,0
321,337,331,312,0
320,368,329,310,0
318,381,326,308,0
314,367,322,304,0
309,333,319,300,0
303,296,316,295,0
298,271,314,291,0
295,263,311,289,0
293,263,308,288,0
292,268,305,289,0
293,274,304,293,0
296,284,305,299,0
299,291,305,304,0
300,287,305,307,0
300,271,303,306,0
299,252,302,304,0
298,236,302,301,0
298,226,303,299,0
298,227,304,297,0
298,237,306,297,0
297,250,306,297,0
295,265,305,297,0
292,281,304,296,0
290,298,305,297,0
290,311,307,298,0
291,318,309,301,0
292,317,311,304,0
293,310,314,307,0
294,302,315,308,0
296,297,316,309,0
296,297,317,308,0
297,304,317,308,0
298,314,317,308,0
301,325,317,307,0
304,333,317,307,0
307,337,317,308,0
311,332,318,309,0
313,321,317,309,0
312,307,315,308,0
308,293,312,305,0
303,280,309,301,0
300,269,308,298,0
298,263,307,297,0
297,261,308,297,0
297,263,310,298,0
298,275,311,300,0
299,297,310,302,0
301,324,309,302,0
303,344,307,300,0
306,352,304,298,0
310,347,303,297,0
313,332,302,295,0
312,311,301,293,0
309,291,301,293,0
306,271,303,294,0
303,247,305,295,0
301,220,306,297,0
300,192,305,298,0
301,174,304,299,0
301,175,303,300,0
299,191,302,301,0
298,210,303,302,0
296,232,303,303,0
295,260,302,304,0
295,294,300,304,0
295,330,298,303,0
295,357,296,302,0
297,371,296,303,0
299,376,297,304,0
301,372,297,304,0
302,363,296,302,0
302,348,297,300,0
302,326,298,299,0
301,302,298,299,0
300,282,297,298,0
299,270,294,295,0
298,262,292,292,0
298,256,292,292,0
299,252,295,295,0
302,249,300,299,0
305,250,305,303,0
308,253,309,307,0
309,260,314,309,0
309,272,317,313,0
310,290,319,316,0
310,309,319,319,0
309,321,319,319,0
306,320,318,318,0
304,310,318,316,0
304,302,318,315,0
306,301,319,315,0
309,306,319,315,0
312,314,318,316,0
313,320,318,316,0
313,323,317,316,0
313,330,316,316,0
314,341,315,316,0
313,347,313,316,0
312,345,311,315,0
311,333,310,313,0
312,311,310,312,0
313,283,310,310,0
313,255,311,307,0
313,232,311,305,0
312,214,312,304,0
312,204,314,304,0
312,206,317,304,0
312,216,318,306,0
312,233,318,308,0
310,251,317,309,0
309,265,315,311,0
308,273,313,312,0
307,278,311,313,0
307,282,309,314,0
308,287,308,315,0
311,294,309,316,0
313,305,309,317,0
313,322,309,318,0
313,342,309,318,0
313,356,308,318,0
312,356,306,315,0
311,338,304,312,0
311,317,305,311,0
312,302,306,311,0
314,291,309,313,0
317,282,311,316,0
320,276,312,317,0
319,275,310,315,0
316,276,306,313,0
312,276,302,311,0
308,271,298,309,0
305,261,296,307,0
302,255,296,305,0
300,256,296,304,0
299,264,295,302,0
297,276,293,301,0
298,289,293,301,0
299,302,296,302,0
300,317,300,304,0
302,335,304,306,0
305,354,309,309,0
308,362,312,311,0
311,354,313,313,0
313,333,313,316,0
313,307,312,318,0
313,286,311,321,0
312,272,309,322,0
312,265,310,323,0
312,262,309,322,0
310,266,308,320,0
309,271,306,319,0
309,275,304,317,0
309,275,302,316,0
310,265,299,315,0
311,247,297,315,0
311,229,295,315,0
310,218,295,314,0
309,217,296,314,0
308,229,298,314,0
307,247,302,314,0
307,265,304,313,0
307,282,306,313,0
306,295,306,312,0
304,301,304,311,0
302,299,303,309,0
301,296,303,310,0
301,296,302,311,0
303,303,302,313,0
305,318,301,314,0
308,337,300,315,0
313,353,299,318,0
317,364,301,321,0
321,364,302,324,0
322,350,302,324,0
320,327,301,321,0
317,306,299,316,0
314,296,295,310,0
311,298,290,305,0
308,306,287,301,0
306,308,285,298,0
303,303,285,297,0
302,298,287,298,0
304,303,293,304,0
307,321,301,312,0
311,337,309,320,0
314,339,315,326,0
317,324,318,330,0
319,303,318,331,0
320,288,317,333,0
322,280,316,336,0
322,274,313,337,0
320,269,308,337,0
315,262,304,337,0
312,254,302,335,0
308,249,301,334,0
306,246,302,332,0
305,248,303,332,0
306,252,303,332,0
307,256,304,333,0
308,260,304,333,0
308,262,303,331,0
308,264,301,330,0
308,265,300,328,0
308,265,301,326,0
308,266,303,325,0
308,268,306,324,0
309,269,308,324,0
309,264,310,324,0
308,257,311,324,0
307,254,311,325,0
306,256,310,326,0
306,264,308,327,0
306,276,306,327,0
307,291,303,326,0
307,306,299,325,0
308,319,295,325,0
309,329,292,325,0
310,339,290,326,0
310,346,290,325,0
309,353,294,324,0
308,361,297,324,0
307,367,301,326,0
307,367,303,329,0
308,358,305,332,0
310,344,306,333,0
311,329,306,333,0
311,319,306,333,0
313,319,306,334,0
315,325,306,335,0
316,324,305,333,0
315,310,304,330,0
313,286,303,328,0
311,262,303,324,0
308,246,302,321,0
308,239,302,320,0
308,238,303,319,0
308,241,304,318,0
307,244,304,316,0
307,245,304,315,0
306,244,303,312,0
305,243,301,309,0
303,241,298,307,0
302,244,293,303,0
299,249,288,301,0
298,256,284,301,0
298,263,283,302,0
298,271,286,305,0
301,282,294,310,0
304,295,304,314,0
307,310,312,319,0
310,319,315,321,0
312,322,316,322,0
312,319,314,320,0
310,313,311,319,0
308,307,308,318,0
305,300,305,316,0
303,293,302,314,0
302,293,299,312,0
301,298,298,312,0
303,303,298,312,0
304,308,300,313,0
306,311,302,314,0
307,306,304,313,0
307,298,306,311,0
306,295,307,312,0
306,297,308,314,0
307,298,310,317,0
308,289,314,320,0
309,274,318,324,0
311,267,321,326,0
312,275,323,329,0
313,289,323,331,0
314,297,321,329,0
312,293,317,325,0
309,284,313,321,0
306,280,309,317,0
305,279,305,315,0
304,281,304,313,0
305,287,304,311,0
307,300,305,310,0
307,319,306,310,0
307,340,308,310,0
307,354,310,310,0
307,356,309,309,0
307,342,307,308,0
306,320,304,307,0
306,305,302,306,0
306,301,299,307,0
305,302,297,308,0
303,300,297,310,0
301,292,300,311,0
301,284,304,311,0
302,281,309,311,0
303,281,311,311,0
304,284,311,311,0
306,290,310,310,0
307,297,308,308,0
307,306,306,308,0
309,314,305,311,0
310,314,304,314,0
310,302,303,314,0
309,287,301,313,0
306,276,300,311,0
304,272,300,310,0
301,272,301,310,0
301,276,304,311,0
301,280,307,313,0
301,284,310,314,0
303,289,311,315,0
305,295,311,315,0
307,303,311,315,0
309,313,311,314,0
312,321,311,313,0
314,319,311,311,0
314,312,309,309,0
313,306,307,308,0
311,303,304,306,0
308,300,302,306,0
306,296,302,307,0
304,290,304,310,0
303,284,305,312,0
302,279,307,313,0
302,276,308,313,0
302,276,309,314,0
303,277,312,315,0
304,282,314,316,0
306,292,315,317,0
308,303,315,316,0
309,303,315,315,0
310,288,314,313,0
312,271,314,312,0
314,265,314,312,0
317,274,315,313,0
319,290,315,314,0
319,306,315,314,0
316,316,315,313,0
311,315,315,312,0
307,305,315,311,0
304,293,314,310,0
302,287,313,309,0
299,290,311,309,0
297,299,310,308,0
297,309,309,308,0
297,311,310,308,0
298,305,310,309,0
299,297,310,308,0
299,290,310,308,0
299,287,309,308,0
299,287,308,308,0
300,291,308,309,0
301,300,308,309,0
303,309,308,309,0
305,317,306,308,0
306,320,304,308,0
306,312,301,306,0
305,294,298,304,0
304,277,295,303,0
302,267,296,301,0
301,265,298,299,0
301,266,302,299,0
301,269,308,302,0
301,275,314,305,0
300,280,319,308,0
300,286,322,311,0
301,292,323,313,0
302,299,322,313,0
303,305,319,312,0
305,308,315,312,0
307,313,312,312,0
309,321,311,312,0
309,328,310,311,0
309,327,310,309,0
307,317,311,306,0
306,301,310,304,0
304,285,310,302,0
303,269,309,300,0
302,257,308,299,0
302,250,307,299,0
303,248,306,300,0
304,251,305,302,0
305,257,305,304,0
306,266,305,306,0
306,277,306,308,0
305,288,307,309,0
304,296,307,309,0
301,301,306,309,0
299,306,303,306,0
297,313,300,303,0
297,323,300,300,0
298,332,301,298,0
300,336,303,299,0
303,329,306,304,0
306,312,309,310,0
307,293,311,315,0
308,278,311,317,0
308,270,312,317,0
308,272,311,317,0
307,281,310,316,0
307,293,309,315,0
307,304,308,314,0
308,315,309,313,0
309,321,310,313,0
310,321,311,313,0
310,314,312,312,0
310,301,314,310,0
309,284,317,308,0
308,270,318,307,0
307,265,320,306,0
307,273,320,306,0
309,294,320,308,0
310,322,319,308,0
310,344,317,308,0
308,346,314,306,0
305,331,311,304,0
302,309,308,301,0
299,286,305,298,0
297,267,302,295,0
296,252,300,292,0
297,245,299,291,0
300,249,300,291,0
303,260,301,293,0
306,274,302,297,0
308,286,302,302,0
309,294,302,305,0
309,300,303,307,0
310,306,305,309,0
311,313,308,310,0
311,317,312,310,0
310,318,316,309,0
310,314,317,308,0
308,306,317,306,0
308,300,315,305,0
307,296,312,304,0
307,292,309,302,0
307,288,306,301,0
308,283,304,300,0
310,278,304,299,0
310,274,305,297,0
310,274,306,295,0
309,277,308,294,0
307,284,310,294,0
304,293,310,296,0
303,303,310,299,0
302,313,310,301,0
302,319,309,303,0
302,323,306,303,0
303,323,302,301,0
303,316,298,298,0
301,304,295,294,0
299,289,294,290,0
297,274,293,286,0
296,263,294,285,0
296,256,296,286,0
296,255,299,289,0
297,259,300,292,0
298,264,302,295,0
299,268,302,297,0
300,270,301,295,0
301,268,301,293,0
302,261,302,289,0
302,257,305,290,0
303,263,310,295,0
304,278,315,301,0
306,297,319,306,0
308,310,320,309,0
309,311,319,310,0
309,309,318,309,0
309,312,316,309,0
309,324,315,308,0
309,336,314,307,0
309,343,314,307,0
309,337,314,307,0
309,321,314,307,0
310,306,314,306,0
309,295,313,304,0
309,284,311,302,0
309,276,310,300,0
308,274,310,299,0
307,277,309,300,0
305,288,309,300,0
304,308,309,303,0
303,336,310,305,0
303,366,311,307,0
302,386,310,307,0
301,384,309,306,0
299,361,308,304,0
299,325,307,302,0
300,286,307,299,0
302,257,307,298,0
305,246,305,298,0
309,259,303,299,0
312,286,299,301,0
311,312,294,301,0
309,320,290,299,0
306,303,288,298,0
303,276,289,296,0
301,255,293,296,0
300,244,298,296,0
300,244,301,298,0
301,251,304,299,0
301,262,306,300,0
299,275,308,299,0
298,286,308,298,0
297,296,310,297,0
295,303,310,296,0
293,303,312,295,0
292,294,313,296,0
293,283,312,299,0
295,277,310,302,0
297,278,309,304,0
299,289,309,307,0
302,311,312,309,0
303,341,317,310,0
304,372,323,311,0
304,397,327,311,0
303,410,329,310,0
301,405,327,308,0
299,384,322,305,0
297,363,317,304,0
297,349,312,305,0
297,329,309,305,0
298,301,306,306,0
298,278,303,307,0
299,268,301,306,0
299,267,298,306,0
299,267,297,304,0
298,266,296,303,0
297,264,296,302,0
297,260,296,301,0
297,257,297,300,0
298,256,296,297,0
300,256,296,295,0
303,258,293,293,0
305,261,289,292,0
307,262,287,294,0
309,263,287,298,0
311,271,290,301,0
312,288,294,305,0
315,315,298,307,0
319,348,300,309,0
322,381,300,311,0
324,406,297,312,0
322,409,296,309,0
315,387,300,303,0
307,349,312,300,0
302,313,330,299,0
297,291,346,301,0
295,275,356,304,0
295,257,361,309,0
296,242,360,313,0
297,235,355,317,0
298,241,348,320,0
297,261,341,321,0
296,285,334,322,0
295,306,328,321,0
294,318,323,319,0
294,321,319,317,0
295,323,316,316,0
297,329,314,316,0
299,340,313,317,0
303,352,314,317,0
306,357,314,318,0
309,351,314,319,0
309,336,314,319,0
309,321,315,320,0
308,308,315,319,0
305,298,315,318,0
303,290,314,315,0
301,286,313,312,0
299,284,312,307,0
297,282,311,303,0
297,278,310,300,0
297,274,312,300,0
299,273,313,302,0
300,278,314,304,0
302,287,314,307,0
304,305,313,308,0
305,330,312,309,0
306,354,310,309,0
305,364,309,309,0
304,354,306,307,0
303,325,303,306,0
302,291,301,305,0
302,261,299,303,0
302,240,300,301,0
302,228,302,300,0
302,228,306,298,0
303,241,310,298,0
304,262,311,300,0
305,288,311,303,0
308,315,311,306,0
309,336,310,309,0
310,349,309,310,0
310,355,308,309,0
311,356,308,306,0
311,353,308,303,0
309,341,306,300,0
305,324,303,297,0
301,307,301,296,0
299,296,300,295,0
298,290,301,296,0
300,290,302,299,0
302,292,304,304,0
305,295,304,307,0
307,296,304,308,0
308,294,305,308,0
309,291,306,308,0
309,289,308,308,0
308,286,309,309,0
307,280,308,308,0
306,271,308,308,0
304,266,307,307,0
303,267,306,307,0
303,273,306,307,0
303,283,306,307,0
304,296,306,307,0
304,307,306,308,0
304,314,308,309,0
303,319,310,310,0
303,322,311,309,0
304,331,311,309,0
305,347,310,309,0
307,366,307,309,0
309,378,304,307,0
310,375,299,305,0
309,353,295,302,0
309,323,292,301,0
309,297,293,299,0
310,279,297,299,0
310,270,304,300,0
311,265,314,301,0
313,264,323,300,0
314,272,327,299,0
315,286,328,299,0
314,299,326,299,0
311,302,321,298,0
307,295,316,298,0
303,286,311,297,0
300,275,308,297,0
298,267,306,297,0
297,265,307,297,0
297,274,308,297,0
297,293,309,298,0
297,317,309,300,0
298,340,310,303,0
299,356,310,308,0
299,360,310,310,0
299,353,310,312,0
299,344,311,313,0
300,336,312,313,0
301,328,314,312,0
302,319,314,312,0
304,308,315,311,0
306,299,316,310,0
307,296,316,311,0
308,298,316,312,0
308,302,315,314,0
307,300,313,316,0
306,293,312,316,0
305,286,310,315,0
304,284,308,313,0
303,289,307,311,0
303,302,308,310,0
304,318,311,309,0
304,331,313,308,0
304,340,313,307,0
303,340,311,307,0
302,332,310,307,0
303,317,307,306,0
304,302,303,303,0
303,287,298,299,0
302,278,293,293,0
302,273,289,287,0
301,278,286,281,0
302,292,285,278,0
302,307,286,278,0
304,318,289,283,0
305,319,295,293,0
305,311,301,302,0
305,298,308,309,0
304,284,315,314,0
303,272,320,317,0
303,264,323,317,0
303,260,323,317,0
303,262,320,317,0
304,266,316,316,0
304,271,312,316,0
303,276,309,315,0
302,282,307,314,0
302,289,307,313,0
301,299,307,312,0
301,313,307,310,0
301,330,307,309,0
301,343,308,308,0
301,346,308,307,0
301,340,309,307,0
302,325,309,308,0
302,304,306,307,0
303,281,304,306,0
305,262,301,305,0
306,249,300,304,0
308,245,301,303,0
309,251,303,303,0
308,265,307,303,0
307,283,311,305,0
306,300,314,306,0
305,314,315,308,0
304,329,315,310,0
304,343,313,312,0
303,351,310,312,0
302,347,308,311,0
301,331,308,310,0
301,314,311,308,0
302,304,314,307,0
303,305,316,307,0
304,311,316,306,0
302,314,315,305,0
300,315,313,305,0
299,316,311,304,0
299,312,309,304,0
298,301,309,303,0
299,288,310,303,0
300,278,311,303,0
301,271,312,304,0
303,269,312,305,0
305,271,311,306,0
307,280,309,307,0
310,296,308,308,0
312,319,307,310,0
313,341,307,310,0
312,355,309,309,0
308,357,310,307,0
304,348,311,305,0
301,338,312,304,0
299,329,310,302,0
297,319,307,301,0
296,312,305,301,0
297,304,304,302,0
298,292,304,302,0
299,280,304,302,0
299,273,304,302,0
300,274,305,303,0
301,278,305,305,0
302,283,305,307,0
303,286,305,309,0
304,287,305,311,0
306,290,305,311,0
306,295,305,310,0
306,301,304,309,0
305,304,302,307,0
304,306,298,303,0
303,307,295,299,0
301,308,292,293,0
300,311,292,290,0
300,317,297,291,0
301,329,304,296,0
304,339,310,302,0
306,343,315,308,0
309,341,317,312,0
311,328,317,313,0
311,312,315,314,0
311,301,313,315,0
312,301,314,314,0
314,307,315,314,0
314,306,314,313,0
312,295,312,312,0
311,284,309,311,0
310,280,307,311,0
309,285,305,311,0
310,296,304,313,0
310,307,304,313,0
310,314,305,313,0
311,313,306,312,0
312,309,307,311,0
312,303,306,309,0
311,297,305,308,0
311,293,304,307,0
311,288,304,306,0
312,279,305,305,0
312,269,306,304,0
313,261,307,305,0
312,258,308,306,0
312,261,308,309,0
313,273,309,313,0
314,294,310,315,0
314,316,310,317,0
313,335,310,316,0
310,339,309,313,0
307,329,306,308,0
304,315,302,304,0
303,305,298,300,0
302,301,295,299,0
302,303,295,300,0
301,306,297,302,0
302,309,301,307,0
304,311,304,311,0
305,310,305,314,0
306,309,306,316,0
306,310,309,317,0
307,315,314,317,0
307,323,318,318,0
308,336,322,318,0
309,349,323,317,0
309,359,323,316,0
308,366,321,315,0
308,368,319,314,0
309,360,317,314,0
311,341,316,314,0
313,314,315,316,0
315,292,314,318,0
317,283,314,320,0
318,285,313,320,0
317,291,312,319,0
314,299,310,316,0
311,307,309,314,0
307,311,309,313,0
306,307,311,313,0
305,296,312,313,0
304,282,311,313,0
305,272,309,312,0
304,270,305,312,0
303,276,302,312,0
302,286,301,313,0
301,296,300,314,0
300,302,300,315,0
299,303,299,314,0
299,300,299,312,0
299,295,298,309,0
299,291,297,306,0
301,288,298,304,0
303,290,301,304,0
305,297,305,305,0
307,307,310,307,0
308,312,313,308,0
308,310,313,307,0
308,305,312,305,0
307,299,310,302,0
307,293,309,299,0
307,287,308,297,0
308,282,310,299,0
308,280,312,304,0
309,285,314,311,0
310,296,315,317,0
310,304,316,320,0
309,309,317,322,0
308,310,318,321,0
307,309,318,320,0
306,311,318,318,0
306,315,317,316,0
306,321,316,314,0
307,328,314,313,0
307,334,312,312,0
308,341,309,312,0
308,351,305,313,0
309,363,301,313,0
311,369,298,311,0
313,363,295,308,0
314,346,294,304,0
313,324,294,301,0
310,300,295,298,0
308,279,297,297,0
306,263,298,297,0
304,256,299,298,0
303,257,300,299,0
302,261,302,299,0
302,268,304,299,0
303,277,305,301,0
304,288,305,304,0
305,293,304,306,0
305,291,301,309,0
306,280,299,312,0
308,268,301,314,0
310,260,304,316,0
312,259,305,317,0
311,260,305,316,0
309,264,304,314,0
307,271,304,312,0
305,282,303,311,0
305,294,302,310,0
304,306,300,308,0
303,317,299,306,0
302,327,297,305,0
301,336,296,304,0
302,342,295,304,0
303,342,296,305,0
305,340,298,307,0
307,339,301,310,0
309,338,305,314,0
311,335,309,318,0
312,333,312,321,0
312,328,314,322,0
312,318,314,322,0
311,305,313,320,0
309,293,311,317,0
308,287,309,314,0
307,288,309,312,0
306,292,308,311,0
305,298,309,309,0
305,306,309,309,0
305,314,309,309,0
305,318,309,309,0
306,314,310,308,0
306,304,311,308,0
307,296,310,309,0
307,291,308,309,0
307,290,307,309,0
307,293,305,309,0
307,298,305,309,0
308,306,305,310,0
309,317,305,311,0
310,326,306,311,0
311,330,306,311,0
311,331,308,311,0
312,327,310,311,0
313,316,310,310,0
313,305,308,309,0
312,297,305,308,0
311,291,302,306,0
310,284,300,305,0
310,280,300,304,0
309,278,300,303,0
309,279,302,303,0
309,280,305,301,0
309,280,308,300,0
309,281,311,300,0
310,284,313,301,0
311,291,313,303,0
312,304,310,304,0
314,320,307,305,0
315,337,304,305,0
316,356,302,306,0
316,371,301,305,0
314,381,301,303,0
311,383,303,302,0
309,376,308,303,0
306,359,313,305,0
305,335,315,306,0
304,307,315,306,0
303,284,315,305,0
303,270,314,305,0
302,264,313,305,0
302,264,312,305,0
303,268,311,307,0
305,276,311,308,0
307,288,311,309,0
309,302,310,309,0
309,316,309,310,0
309,326,306,309,0
309,331,304,308,0
308,327,303,305,0
305,311,302,303,0
303,294,303,300,0
302,284,305,300,0
302,279,306,299,0
303,276,306,299,0
304,275,307,302,0
305,274,308,304,0
305,271,308,305,0
305,269,309,304,0
305,274,310,303,0
305,288,310,303,0
305,309,310,303,0
305,324,310,302,0
305,333,310,302,0
306,334,310,302,0
306,331,311,304,0
306,324,310,304,0
306,316,309,302,0
307,307,308,300,0
308,299,307,300,0
307,294,304,300,0
306,290,303,300,0
305,287,303,300,0
304,285,304,301,0
304,286,305,302,0
304,290,305,304,0
304,299,306,305,0
303,309,306,306,0
302,319,307,306,0
301,326,307,305,0
300,331,308,304,0
300,335,309,303,0
302,337,309,304,0
305,339,310,306,0
307,342,309,308,0
307,343,309,308,0
306,339,308,307,0
304,329,308,305,0
301,317,309,302,0
299,301,312,300,0
299,286,315,299,0
301,277,318,301,0
304,273,319,303,0
305,272,318,307,0
306,271,317,309,0
305,273,315,311,0
305,280,313,311,0
305,291,312,311,0
305,299,311,310,0
305,302,308,309,0
303,303,306,308,0
302,302,304,309,0
301,301,305,309,0
302,300,308,310,0
303,299,311,310,0
305,297,314,309,0
308,295,315,309,0
309,293,316,309,0
310,292,314,308,0
309,292,312,307,0
309,293,311,307,0
309,297,311,308,0
309,303,312,309,0
309,313,313,310,0
310,326,313,312,0
311,339,313,313,0
313,348,311,313,0
314,352,309,313,0
315,355,308,312,0
314,353,307,310,0
312,342,306,307,0
308,328,307,304,0
304,313,308,302,0
301,301,309,301,0
299,293,309,301,0
297,286,308,302,0
297,280,307,303,0
297,275,306,304,0
298,273,306,305,0
300,276,305,306,0
302,288,305,306,0
304,306,305,307,0
305,326,305,306,0
306,341,305,305,0
305,344,304,303,0
304,336,303,302,0
303,322,302,300,0
302,307,301,299,0
302,295,299,297,0
302,289,298,296,0
302,286,295,295,0
301,286,292,294,0
301,288,290,294,0
300,291,290,294,0
300,294,292,296,0
301,295,296,300,0
302,300,299,302,0
304,310,301,303,0
306,323,300,304,0
308,336,299,305,0
310,345,299,306,0
311,342,300,306,0
311,328,300,306,0
308,310,299,304,0
305,295,298,303,0
304,285,297,302,0
303,281,298,302,0
303,283,298,302,0
304,288,300,303,0
306,293,303,303,0
307,294,306,303,0
308,292,308,302,0
308,288,310,301,0
308,284,312,302,0
308,283,314,304,0
309,286,314,305,0
310,296,314,307,0
311,310,313,307,0
310,321,310,306,0
308,326,307,304,0
305,327,303,302,0
302,326,302,300,0
301,324,302,301,0
301,318,303,302,0
303,310,305,303,0
305,304,306,304,0
307,303,305,304,0
309,306,304,304,0
309,313,304,304,0
308,322,303,304,0
307,329,301,304,0
307,334,300,305,0
308,339,301,306,0
309,345,302,306,0
311,346,303,306,0
311,343,303,305,0
311,337,303,304,0
310,329,306,304,0
310,321,311,305,0
311,312,315,307,0
311,301,318,308,0
311,295,318,310,0
311,299,315,311,0
311,309,312,312,0
310,318,308,312,0
311,321,305,312,0
310,312,304,311,0
309,294,304,310,0
308,277,305,309,0
307,267,307,308,0
307,266,309,306,0
308,274,310,306,0
309,287,309,305,0
309,298,307,304,0
309,306,304,304,0
308,307,301,303,0
307,302,300,303,0
306,297,300,303,0
305,290,302,303,0
304,284,305,304,0
304,277,307,307,0
305,271,310,309,0
306,267,311,310,0
308,268,313,311,0
309,274,314,311,0
310,281,315,310,0
310,286,315,309,0
310,293,314,308,0
310,304,313,308,0
310,317,313,308,0
310,331,313,309,0
309,341,313,309,0
308,341,312,309,0
307,330,311,309,0
304,313,310,308,0
303,298,309,307,0
302,289,307,307,0
302,285,305,305,0
302,289,302,302,0
302,300,299,300,0
303,313,297,299,0
304,325,296,298,0
305,331,297,298,0
306,327,299,298,0
307,316,301,299,0
309,301,302,299,0
311,286,303,299,0
312,273,302,300,0
312,265,302,300,0
312,262,303,301,0
311,270,307,302,0
311,294,311,303,0
311,332,316,305,0
310,371,319,306,0
309,399,320,307,0
309,404,319,308,0
308,381,317,308,0
307,344,315,309,0
305,310,313,309,0
305,288,312,308,0
305,277,311,308,0
305,275,311,307,0
305,278,310,307,0
306,285,308,307,0
307,293,307,307,0
307,301,305,306,0
308,307,305,305,0
309,307,303,304,0
309,301,301,302,0
309,292,298,301,0
309,283,296,301,0
309,278,297,303,0
311,278,300,305,0
311,283,306,306,0
311,289,311,308,0
310,296,313,309,0
309,299,314,310,0
308,302,315,311,0
308,305,315,312,0
307,310,314,311,0
307,312,312,311,0
306,313,310,310,0
306,314,308,308,0
305,318,307,307,0
304,322,306,306,0
304,326,305,306,0
303,323,305,305,0
303,317,305,304,0
303,313,305,303,0
304,311,304,302,0
306,311,303,302,0
308,308,303,303,0
310,303,303,304,0
311,299,303,305,0
312,304,304,308,0
312,319,306,311,0
312,338,307,314,0
312,354,308,316,0
310,360,307,317,0
307,345,306,315,0
304,317,305,313,0
302,290,305,310,0
300,272,305,308,0
299,264,306,307,0
299,264,305,306,0
300,266,305,305,0
301,271,305,305,0
302,277,305,305,0
303,283,305,305,0
304,288,305,305,0
305,290,305,306,0
306,291,304,305,0
307,291,303,304,0
307,293,302,303,0
307,299,302,303,0
308,311,303,304,0
310,329,305,305,0
312,347,308,306,0
312,355,311,306,0
310,348,313,306,0
308,330,314,307,0
307,312,314,308,0
306,302,313,310,0
306,299,312,310,0
306,300,311,309,0
305,302,308,308,0
304,299,306,304,0
302,291,303,301,0
301,280,300,299,0
300,274,298,299,0
301,274,298,300,0
302,281,300,302,0
304,286,301,303,0
304,288,302,304,0
304,289,301,305,0
304,293,301,305,0
303,300,300,305,0
303,308,300,306,0
303,312,302,308,0
304,306,303,309,0
303,293,303,308,0
303,278,304,308,0
304,266,306,307,0
304,261,308,306,0
305,264,308,305,0
306,274,308,305,0
305,286,305,304,0
303,297,302,303,0
301,305,299,302,0
299,311,298,301,0
298,315,298,300,0
298,320,300,302,0
300,323,303,304,0
301,326,305,306,0
302,329,307,309,0
303,332,307,311,0
305,336,307,312,0
306,340,307,314,0
308,342,306,315,0
310,343,307,315,0
311,339,307,314,0
311,329,308,312,0
311,317,309,312,0
310,308,310,312,0
310,302,311,312,0
309,299,312,313,0
309,302,313,314,0
310,307,313,314,0
310,318,313,314,0
309,332,312,314,0
309,341,310,314,0
309,339,309,312,0
309,328,307,310,0
308,312,305,307,0
307,296,302,304,0
306,284,301,301,0
305,280,301,300,0
304,286,303,299,0
304,299,306,300,0
305,314,308,300,0
305,328,310,301,0
306,336,310,304,0
306,331,309,307,0
306,318,308,309,0
305,305,306,310,0
304,302,306,311,0
304,307,307,312,0
304,314,309,312,0
305,317,310,311,0
307,314,310,310,0
309,304,308,309,0
309,290,306,309,0
308,274,304,309,0
308,261,304,308,0
307,256,306,307,0
306,258,309,308,0
305,267,311,307,0
304,279,311,308,0
303,290,310,307,0
303,299,309,307,0
303,307,308,306,0
304,314,307,306,0
305,319,307,306,0
306,319,308,306,0
307,315,309,306,0
307,313,310,306,0
308,313,311,307,0
308,312,310,308,0
307,310,309,308,0
306,307,308,307,0
306,304,308,308,0
306,301,308,308,0
306,296,308,308,0
305,289,307,308,0
305,280,307,308,0
305,272,307,308,0
307,265,308,309,0
310,263,309,310,0
313,267,311,310,0
314,277,311,309,0
315,292,311,307,0
312,308,308,304,0
309,322,305,301,0
305,337,302,298,0
303,351,300,296,0
303,363,299,295,0
303,367,300,296,0
304,364,302,297,0
304,355,304,299,0
302,342,305,299,0
301,328,306,299,0
300,315,306,299,0
300,304,304,299,0
299,295,303,298,0
300,289,303,297,0
300,286,302,296,0
300,286,302,297,0
300,287,301,297,0
301,290,301,299,0
302,295,303,302,0
303,302,305,306,0
304,309,309,309,0
305,317,311,311,0
306,326,311,312,0
307,334,309,312,0
307,339,307,311,0
307,340,305,310,0
307,337,304,308,0
308,329,302,306,0
307,318,301,305,0
306,306,301,303,0
306,297,302,303,0
306,293,304,303,0
306,292,306,304,0
307,293,307,304,0
308,295,306,305,0
307,299,303,305,0
307,305,302,306,0
306,313,303,307,0
306,315,305,307,0
306,311,306,306,0
305,305,307,305,0
304,299,305,305,0
304,295,302,305,0
304,293,300,305,0
304,293,298,304,0
305,296,298,305,0
306,301,301,306,0
308,309,306,309,0
310,323,311,311,0
312,343,315,313,0
314,364,319,315,0
315,381,321,315,0
314,383,320,314,0
312,362,317,312,0
308,327,313,310,0
305,295,309,308,0
303,273,306,306,0
302,262,304,305,0
301,260,303,304,0
301,264,304,304,0
301,274,306,304,0
302,285,307,305,0
302,296,307,305,0
302,302,305,304,0
302,304,302,302,0
302,305,299,299,0
302,304,297,297,0
302,303,296,296,0
303,301,297,297,0
303,299,299,299,0
305,297,302,303,0
308,296,304,306,0
310,293,306,309,0
311,292,307,309,0
311,288,308,310,0
311,285,309,309,0
311,281,310,308,0
309,282,311,306,0
308,286,311,305,0
308,292,311,304,0
307,298,310,303,0
306,302,309,301,0
305,301,307,300,0
304,301,305,299,0
303,304,305,300,0
303,315,305,301,0
304,330,307,304,0
306,347,310,307,0
307,358,312,309,0
307,360,312,309,0
307,355,312,310,0
308,353,311,311,0
310,352,310,311,0
310,346,309,311,0
309,331,308,309,0
307,312,308,308,0
306,295,308,307,0
306,284,308,306,0
307,280,308,306,0
307,282,308,306,0
307,289,309,307,0
307,296,310,307,0
306,300,312,306,0
305,300,314,305,0
306,299,315,305,0
307,299,315,305,0
308,302,315,306,0
309,306,312,306,0
308,313,308,305,0
307,320,304,303,0
305,321,300,300,0
304,313,296,298,0
302,300,293,297,0
300,287,293,298,0
299,279,295,299,0
299,276,300,301,0
300,278,305,302,0
302,284,309,304,0
302,290,311,305,0
303,297,312,305,0
305,307,312,306,0
306,318,313,307,0
308,327,314,308,0
309,331,315,308,0
309,331,314,307,0
308,326,312,307,0
307,322,310,306,0
307,321,308,305,0
307,325,306,304,0
306,325,303,302,0
305,320,299,299,0
303,314,295,297,0
302,309,292,294,0
300,308,291,293,0
299,311,292,293,0
299,315,293,294,0
300,318,295,296,0
301,318,298,298,0
302,315,302,300,0
303,312,305,301,0
303,309,307,303,0
303,305,308,303,0
303,302,309,303,0
303,297,311,303,0
303,292,312,303,0
304,289,313,305,0
305,288,314,306,0
306,290,315,307,0
307,294,315,307,0
307,301,315,307,0
306,309,314,306,0
305,319,312,306,0
305,331,311,307,0
305,338,310,308,0
305,338,309,310,0
305,334,308,311,0
305,325,308,311,0
305,313,308,310,0
305,302,306,308,0
305,292,303,306,0
304,286,300,305,0
304,282,298,304,0
305,282,297,304,0
306,288,296,304,0
307,300,296,304,0
309,315,297,305,0
310,324,299,306,0
310,325,301,306,0
310,316,302,307,0
310,306,303,307,0
312,297,304,309,0
314,291,305,310,0
315,287,305,312,0
316,286,304,313,0
315,286,304,313,0
314,288,303,314,0
313,292,304,315,0
311,297,305,315,0
308,303,307,315,0
306,308,310,314,0
303,312,314,312,0
301,314,316,311,0
301,317,317,311,0
302,322,315,311,0
304,325,312,311,0
306,325,309,311,0
309,325,307,311,0
311,320,306,308,0
311,311,306,306,0
310,305,305,303,0
308,306,305,300,0
306,308,304,297,0
305,310,303,296,0
304,311,302,297,0
303,311,302,298,0
302,311,302,299,0
302,310,302,299,0
301,310,303,299,0
302,312,303,299,0
302,313,302,298,0
303,315,299,298,0
304,320,296,298,0
304,325,293,298,0
306,331,292,300,0
308,339,296,304,0
310,342,302,308,0
310,337,308,313,0
309,327,311,317,0
308,317,312,319,0
307,308,312,319,0
306,302,310,319,0
306,296,309,318,0
307,289,310,317,0
308,280,310,316,0
309,272,312,315,0
310,267,313,315,0
311,266,314,315,0
311,269,314,314,0
311,274,314,313,0
311,281,314,313,0
311,287,314,312,0
310,289,313,312,0
309,292,310,312,0
307,297,308,312,0
306,302,307,313,0
305,306,305,313,0
304,307,303,314,0
303,309,302,314,0
303,310,301,314,0
302,313,301,313,0
302,318,302,314,0
303,325,302,316,0
304,330,303,317,0
304,331,303,318,0
304,329,303,318,0
305,324,303,318,0
305,316,302,317,0
305,307,302,317,0
305,299,302,316,0
305,293,303,316,0
305,289,306,314,0
304,286,311,313,0
303,286,315,313,0
302,285,318,313,0
302,284,318,313,0
302,282,317,313,0
302,280,314,313,0
301,279,311,312,0
302,288,308,312,0
303,311,308,312,0
306,347,309,313,0
308,385,310,315,0
310,409,311,316,0
309,408,310,317,0
306,384,309,317,0
303,350,307,317,0
300,320,306,318,0
298,297,303,319,0
298,283,302,320,0
298,275,300,319,0
298,269,297,317,0
299,260,296,314,0
299,251,296,312,0
300,245,298,310,0
300,242,298,309,0
300,244,298,308,0
299,247,298,307,0
299,253,299,307,0
298,260,300,307,0
299,269,302,309,0
300,277,303,313,0
301,285,304,315,0
302,292,306,317,0
303,297,307,317,0
304,304,308,318,0
304,311,308,319,0
304,318,308,319,0
305,323,308,319,0
306,328,309,319,0
306,332,309,318,0
306,335,308,318,0
306,338,308,317,0
308,340,308,316,0
308,338,309,315,0
308,333,310,313,0
307,328,310,312,0
306,324,309,310,0
305,320,309,309,0
304,318,309,308,0
304,316,309,308,0
304,315,309,307,0
303,311,307,306,0
303,305,305,306,0
302,298,303,306,0
303,293,301,307,0
303,290,300,310,0
305,291,302,313,0
306,294,304,316,0
309,300,306,319,0
312,309,306,321,0
315,323,306,323,0
317,336,306,323,0
316,346,306,322,0
313,348,306,321,0
308,338,306,320,0
302,323,306,319,0
298,312,305,318,0
295,304,306,317,0
294,297,306,316,0
294,286,306,315,0
295,275,307,316,0
296,270,306,315,0
297,270,305,316,0
299,275,303,316,0
301,281,301,318,0
303,288,300,319,0
304,295,300,320,0
303,300,303,319,0
303,301,306,316,0
303,300,310,313,0
304,304,313,311,0
307,309,313,310,0
309,313,312,309,0
310,310,309,309,0
308,302,304,308,0
305,295,300,309,0
303,295,297,311,0
302,298,296,311,0
302,297,297,311,0
301,294,298,311,0
301,291,300,311,0
300,288,303,311,0
300,283,305,311,0
300,279,307,310,0
300,279,308,310,0
300,284,308,309,0
299,293,307,308,0
298,304,304,307,0
297,315,300,306,0
296,324,296,306,0
296,329,294,306,0
296,329,293,306,0
297,328,296,306,0
298,326,300,308,0
301,325,303,311,0
302,324,303,313,0
303,324,302,313,0
303,325,301,314,0
303,325,300,313,0
303,324,300,312,0
302,324,300,310,0
302,330,302,309,0
302,336,305,308,0
302,339,309,307,0
303,333,311,307,0
304,321,312,307,0
305,305,312,308,0
307,293,312,310,0
308,285,310,312,0
309,281,309,313,0
309,279,309,313,0
310,280,310,313,0
311,281,309,312,0
311,284,308,310,0
311,289,306,309,0
311,295,303,307,0
310,300,301,306,0
310,305,300,305,0
310,310,300,304,0
310,310,299,302,0
309,304,298,301,0
307,298,299,301,0
306,295,301,302,0
306,295,304,304,0
306,296,307,306,0
306,296,309,307,0
305,296,309,308,0
304,296,310,308,0
304,297,309,308,0
305,298,310,308,0
306,300,310,308,0
307,302,311,308,0
307,305,311,309,0
306,310,311,309,0
306,318,312,310,0
307,330,313,310,0
308,342,312,310,0
309,351,309,308,0
309,349,306,306,0
308,338,302,302,0
307,323,299,299,0
306,312,297,297,0
306,307,298,297,0
307,310,301,299,0
309,324,306,304,0
311,342,310,310,0
312,358,312,314,0
312,364,313,315,0
311,356,314,316,0
310,334,314,316,0
309,309,314,317,0
309,287,313,317,0
307,271,313,316,0
306,261,313,314,0
304,256,313,311,0
302,254,313,309,0
302,256,313,309,0
303,260,313,309,0
305,266,313,310,0
306,272,314,311,0
306,280,313,311,0
306,289,312,312,0
306,299,310,312,0
307,309,309,312,0
307,316,308,311,0
307,315,307,311,0
307,307,306,310,0
306,297,304,309,0
305,289,303,308,0
304,283,303,307,0
304,280,303,307,0
303,279,303,307,0
303,282,304,309,0
302,288,305,309,0
301,295,306,309,0
300,302,307,309,0
298,308,310,308,0
298,311,312,307,0
299,313,313,307,0
300,312,313,306,0
301,311,312,306,0
303,309,311,306,0
306,306,311,306,0
309,305,311,306,0
311,305,310,307,0
312,308,310,306,0
312,314,309,305,0
310,322,306,303,0
308,328,303,302,0
306,333,302,301,0
305,333,302,301,0
305,330,305,303,0
304,325,308,304,0
304,323,311,305,0
304,324,313,306,0
304,326,315,307,0
304,325,315,307,0
304,316,313,306,0
302,306,312,306,0
302,298,310,306,0
301,294,308,305,0
301,292,306,305,0
300,293,305,306,0
300,294,305,307,0
300,294,305,308,0
300,294,305,310,0
301,296,306,312,0
301,302,306,314,0
301,307,306,314,0
301,312,308,313,0
301,315,309,313,0
301,319,311,312,0
302,323,312,310,0
302,328,312,308,0
303,332,310,305,0
303,333,307,301,0
302,329,304,297,0
303,319,302,294,0
302,305,299,291,0
303,290,298,291,0
304,278,300,293,0
305,271,303,296,0
305,269,307,297,0
305,269,310,299,0
305,273,312,299,0
305,277,313,300,0
305,285,314,302,0
305,296,314,303,0
306,308,313,304,0
307,320,312,305,0
307,327,311,306,0
307,326,309,306,0
305,321,308,306,0
304,316,307,306,0
303,312,308,306,0
302,309,309,307,0
302,307,309,307,0
302,308,308,307,0
302,311,307,306,0
303,315,305,306,0
304,319,303,306,0
304,324,300,305,0
303,328,299,305,0
303,333,300,304,0
302,337,303,305,0
301,338,308,306,0
301,334,310,305,0
300,325,312,305,0
300,314,314,304,0
301,306,314,305,0
302,303,313,306,0
303,305,311,306,0
304,315,309,306,0
305,327,309,306,0
305,338,308,304,0
306,344,308,304,0
307,342,309,304,0
307,330,310,305,0
307,314,311,305,0
307,302,312,305,0
307,294,312,304,0
306,295,312,303,0
305,302,313,303,0
305,312,314,303,0
305,319,315,305,0
305,322,315,306,0
305,316,315,306,0
304,303,314,306,0
303,289,313,306,0
302,279,311,304,0
302,272,308,303,0
301,270,306,300,0
301,271,303,297,0
300,275,301,294,0
301,282,301,293,0
303,290,304,295,0
306,297,307,298,0
309,301,310,302,0
312,301,312,306,0
315,301,314,310,0
318,302,314,312,0
320,303,314,313,0
321,304,312,314,0
321,307,310,315,0
320,314,307,316,0
318,319,305,317,0
315,322,304,316,0
313,328,304,315,0
312,341,304,315,0
311,358,304,314,0
310,370,305,313,0
308,370,306,312,0
305,363,306,311,0
306,357,307,311,0
306,351,309,311,0
307,344,310,310,0
308,333,310,309,0
309,318,310,308,0
309,297,310,307,0
310,276,309,307,0
310,264,309,306,0
309,264,308,307,0
308,268,306,306,0
306,271,302,305,0
305,271,299,304,0
304,274,295,304,0
304,278,294,304,0
304,284,294,303,0
303,290,295,304,0
303,292,299,304,0
304,292,304,303,0
305,290,309,303,0
306,290,311,302,0
307,292,310,301,0
308,293,308,300,0
307,295,306,299,0
307,298,305,297,0
307,303,304,297,0
307,305,303,298,0
306,306,305,300,0
306,309,306,302,0
306,314,308,304,0
306,321,308,306,0
306,326,307,308,0
307,327,306,309,0
307,324,304,309,0
305,316,302,309,0
305,308,301,309,0
305,302,301,310,0
307,299,301,311,0
308,298,301,311,0
310,301,300,311,0
312,305,300,311,0
313,310,299,309,0
313,314,298,308,0
313,317,298,306,0
313,317,297,304,0
313,317,297,304,0
313,318,297,304,0
313,324,299,304,0
312,333,302,304,0
311,344,304,305,0
312,352,307,306,0
312,348,309,308,0
311,326,311,308,0
310,299,312,308,0
309,280,314,308,0
309,274,316,309,0
309,277,316,309,0
309,286,316,308,0
308,296,314,307,0
306,301,310,305,0
304,303,306,303,0
304,302,302,303,0
302,300,298,302,0
302,296,295,302,0
301,292,294,301,0
302,290,295,300,0
304,290,297,301,0
305,291,300,302,0
306,295,302,304,0
306,300,302,306,0
306,306,301,308,0
306,314,300,310,0
306,323,301,312,0
307,332,303,312,0
307,338,304,312,0
308,342,304,310,0
308,345,304,308,0
309,345,305,307,0
311,337,307,307,0
313,317,309,307,0
312,292,308,306,0
310,272,307,304,0
308,261,304,303,0
306,259,302,303,0
307,264,300,304,0
307,275,300,305,0
307,290,300,306,0
305,304,304,305,0
303,316,308,304,0
301,321,313,303,0
300,320,315,302,0
300,313,315,302,0
300,305,313,303,0
302,299,311,304,0
303,297,310,305,0
305,298,309,306,0
305,301,309,306,0
305,310,310,307,0
305,324,311,307,0
306,336,312,306,0
307,344,312,306,0
309,344,312,306,0
310,334,311,306,0
310,319,310,305,0
309,302,309,304,0
309,291,308,302,0
309,290,307,302,0
309,295,306,301,0
309,300,305,300,0
308,300,305,297,0
306,294,305,295,0
305,289,304,294,0
304,287,303,295,0
303,287,302,297,0
302,287,302,298,0
302,284,302,298,0
301,279,301,298,0
301,273,301,297,0
301,268,299,295,0
300,266,297,294,0
300,269,295,293,0
299,276,295,292,0
300,284,295,292,0
301,292,297,293,0
302,300,299,296,0
303,306,302,299,0
304,310,303,302,0
304,311,304,304,0
304,310,306,307,0
305,308,308,310,0
306,307,311,312,0
308,304,313,313,0
309,301,314,314,0
311,297,316,314,0
312,297,318,314,0
313,298,319,314,0
314,300,319,314,0
313,304,318,315,0
312,311,316,316,0
311,323,315,316,0
310,338,313,315,0
308,354,312,313,0
306,365,311,312,0
305,369,311,312,0
304,363,310,311,0
303,347,309,310,0
302,328,308,309,0
301,312,306,308,0
301,299,305,307,0
301,293,305,307,0
302,294,306,307,0
303,303,306,307,0
303,314,305,308,0
304,323,306,309,0
304,323,306,308,0
304,312,306,308,0
304,299,307,309,0
304,290,306,310,0
305,286,306,311,0
306,289,306,312,0
307,299,306,313,0
309,309,305,313,0
310,317,303,312,0
310,317,300,311,0
308,304,298,309,0
306,288,296,307,0
305,276,296,305,0
303,271,298,304,0
302,273,301,303,0
303,280,306,302,0
303,291,309,302,0
304,299,310,303,0
304,304,310,304,0
304,308,310,304,0
304,312,310,305,0
304,312,309,305,0
303,311,309,304,0
303,311,309,302,0
301,311,308,301,0
301,311,307,300,0
301,312,307,300,0
301,309,307,302,0
303,302,308,305,0
304,293,309,307,0
304,286,309,307,0
303,283,308,307,0
303,286,307,305,0
303,293,306,304,0
303,302,306,304,0
303,308,306,303,0
303,311,305,303,0
304,312,304,304,0
305,311,305,304,0
306,307,305,305,0
307,303,305,304,0
307,300,305,304,0
307,299,306,304,0
308,297,306,305,0
309,294,307,307,0
310,291,308,308,0
310,287,308,310,0
309,283,307,311,0
310,280,306,312,0
310,284,308,313,0
311,294,308,314,0
311,307,308,314,0
311,318,308,313,0
311,323,308,312,0
311,323,310,311,0
312,321,311,310,0
312,324,311,309,0
312,331,309,309,0
310,339,307,309,0
308,342,307,309,0
306,340,308,307,0
305,335,309,306,0
305,331,309,305,0
305,327,309,305,0
306,324,307,304,0
307,320,306,304,0
308,317,305,304,0
310,315,305,305,0
309,316,305,305,0
309,321,304,305,0
307,325,304,306,0
305,324,304,306,0
305,317,303,306,0
305,309,303,306,0
307,300,302,307,0
307,293,299,307,0
308,289,296,307,0
307,288,293,305,0
306,289,291,304,0
304,291,291,303,0
303,291,292,302,0
303,290,295,304,0
304,289,299,305,0
304,290,303,307,0
304,292,307,308,0
305,294,311,310,0
306,294,313,310,0
306,292,314,310,0
307,289,314,310,0
308,285,314,309,0
307,280,314,308,0
307,276,315,308,0
306,275,316,309,0
306,281,316,309,0
306,293,314,309,0
306,306,312,310,0
306,313,310,309,0
307,313,308,308,0
308,304,305,306,0
308,289,301,304,0
308,275,298,302,0
309,267,297,302,0
309,266,297,301,0
309,272,299,301,0
309,284,300,302,0
308,296,301,303,0
307,305,300,304,0
306,314,300,304,0
306,325,300,305,0
307,337,301,305,0
308,348,303,305,0
307,355,306,305,0
306,354,308,303,0
305,347,309,302,0
303,337,310,301,0
303,326,310,301,0
304,317,311,302,0
305,313,312,304,0
307,314,313,307,0
308,317,313,308,0
308,320,313,309,0
309,320,312,310,0
309,317,311,311,0
310,312,311,312,0
312,309,311,313,0
313,307,311,314,0
314,305,311,314,0
312,302,311,313,0
311,300,311,313,0
309,305,310,312,0
307,317,310,311,0
306,332,310,311,0
306,343,310,310,0
306,346,308,309,0
306,340,307,308,0
307,328,307,308,0
309,320,308,309,0
311,320,309,311,0
312,322,309,311,0
311,320,308,310,0
309,312,307,308,0
307,300,306,306,0
307,289,307,306,0
307,283,307,307,0
308,282,307,307,0
308,282,306,307,0
306,281,307,306,0
305,281,309,305,0
303,281,311,305,0
303,280,313,306,0
303,278,315,307,0
303,273,315,307,0
303,266,314,307,0
304,261,312,307,0
304,257,311,306,0
305,256,310,306,0
306,257,309,307,0
307,262,309,307,0
308,273,309,307,0
309,290,310,307,0
309,311,309,306,0
309,329,308,306,0
309,345,307,306,0
309,356,306,306,0
309,361,303,306,0
308,353,300,306,0
308,336,298,305,0
307,318,297,304,0
307,305,295,303,0
306,299,292,301,0
305,297,289,298,0
306,296,287,297,0
306,295,288,295,0
306,295,292,296,0
306,296,297,297,0
306,297,304,300,0
306,298,312,301,0
306,297,318,302,0
306,299,321,303,0
306,307,323,305,0
306,322,323,307,0
307,339,321,309,0
307,354,319,312,0
305,362,316,313,0
304,360,314,314,0
304,351,313,315,0
305,343,313,316,0
307,339,314,317,0
308,340,314,317,0
309,342,314,315,0
308,340,313,311,0
307,335,311,308,0
307,322,311,305,0
306,304,309,303,0
305,285,308,302,0
304,269,308,302,0
303,258,308,301,0
304,253,310,302,0
304,251,311,303,0
304,253,311,303,0
304,256,312,304,0
305,262,314,305,0
307,268,315,306,0
310,273,317,307,0
311,279,318,308,0
313,287,318,309,0
313,295,317,310,0
312,301,315,309,0
311,307,312,308,0
310,311,309,307,0
307,312,306,305,0
305,312,304,303,0
304,310,303,301,0
303,308,303,300,0
303,306,303,300,0
304,306,302,300,0
305,306,303,300,0
306,308,303,301,0
307,311,304,302,0
307,317,306,303,0
308,322,309,305,0
308,323,312,306,0
308,317,315,306,0
309,308,316,307,0
310,299,315,308,0
311,291,314,309,0
311,287,312,309,0
311,286,311,310,0
311,288,310,310,0
312,292,309,309,0
311,296,308,308,0
309,298,306,306,0
306,300,304,305,0
304,303,303,305,0
302,306,303,306,0
301,314,303,306,0
302,327,305,307,0
304,346,305,308,0
306,364,305,308,0
308,370,306,308,0
308,359,305,307,0
307,335,303,306,0
307,310,301,304,0
305,293,299,302,0
305,288,298,299,0
303,297,297,297,0
303,317,297,297,0
302,339,298,298,0
302,348,300,300,0
302,344,302,302,0
301,331,302,304,0
302,315,303,304,0
301,299,302,303,0
301,286,302,303,0
301,279,302,302,0
301,275,301,303,0
302,276,299,303,0
303,279,299,304,0
304,286,299,306,0
305,293,299,307,0
305,296,299,308,0
305,298,299,308,0
305,302,300,309,0
305,308,302,310,0
305,315,304,311,0
305,321,304,313,0
305,326,303,314,0
305,330,300,314,0
305,335,296,313,0
304,339,292,310,0
304,342,287,306,0
303,337,284,303,0
303,324,284,302,0
305,307,287,302,0
307,296,291,303,0
309,298,297,304,0
310,314,302,305,0
310,336,305,307,0
310,351,308,309,0
311,352,310,310,0
311,339,312,311,0
311,316,314,312,0
311,292,316,313,0
310,276,318,313,0
309,268,318,313,0
307,266,317,313,0
307,268,316,314,0
307,272,314,314,0
308,275,313,313,0
309,276,310,312,0
310,277,309,311,0
313,282,308,312,0
315,294,308,313,0
318,312,308,314,0
317,326,306,313,0
314,328,304,310,0
308,326,302,307,0
304,324,303,305,0
301,322,305,306,0
300,319,308,307,0
300,312,310,308,0
300,304,310,308,0
301,298,309,309,0
301,295,307,310,0
302,299,306,311,0
302,312,306,312,0
303,330,307,311,0
304,350,306,311,0
305,367,305,310,0
306,375,303,308,0
306,366,302,307,0
305,346,301,306,0
304,323,299,305,0
303,303,299,305,0
302,290,298,305,0
303,284,299,306,0
304,282,300,307,0
304,283,300,309,0
304,284,300,311,0
303,289,301,312,0
302,296,303,311,0
301,302,304,311,0
300,307,306,310,0
300,312,307,309,0
301,317,308,309,0
303,324,309,310,0
305,335,309,312,0
307,347,309,313,0
309,353,309,313,0
311,358,308,314,0
312,359,307,315,0
312,355,306,314,0
310,345,305,313,0
308,329,305,311,0
305,311,305,309,0
303,295,305,306,0
301,283,304,304,0
301,277,302,303,0
302,277,301,303,0
304,280,299,304,0
306,285,298,305,0
306,292,299,307,0
306,294,301,309,0
305,289,303,310,0
303,280,304,309,0
302,272,304,308,0
302,269,305,307,0
303,269,306,307,0
303,273,307,307,0
303,279,307,308,0
302,289,307,307,0
301,297,307,306,0
300,303,308,303,0
301,306,308,301,0
302,308,307,299,0
304,308,307,298,0
306,306,307,299,0
307,301,308,299,0
307,297,311,301,0
307,296,316,302,0
307,300,321,305,0
308,306,323,309,0
308,313,323,313,0
308,318,320,314,0
307,319,317,314,0
307,321,315,314,0
306,325,316,313,0
304,330,318,311,0
303,334,320,310,0
303,343,321,309,0
304,358,321,309,0
305,376,319,309,0
307,395,318,310,0
309,410,317,311,0
311,416,316,311,0
312,404,314,310,0
310,374,312,309,0
308,339,309,308,0
305,308,308,308,0
303,284,308,308,0
301,268,309,308,0
300,258,310,308,0
300,251,310,308,0
300,247,311,308,0
302,245,312,308,0
303,245,313,307,0
305,246,314,306,0
306,250,315,306,0
308,258,316,307,0
308,272,316,308,0
308,289,315,309,0
308,308,313,310,0
308,323,312,311,0
307,335,310,311,0
307,344,309,311,0
307,350,308,311,0
307,352,307,311,0
306,348,306,311,0
305,339,305,311,0
305,328,304,312,0
304,318,304,312,0
304,308,304,312,0
304,300,306,311,0
304,295,306,309,0
304,293,305,307,0
304,293,303,305,0
304,292,303,302,0
303,291,303,300,0
302,295,303,298,0
301,304,303,298,0
300,314,302,299,0
300,317,303,300,0
300,312,303,302,0
301,306,304,304,0
302,304,306,306,0
302,304,307,308,0
303,308,310,309,0
304,311,313,310,0
305,316,316,312,0
307,324,319,313,0
308,334,320,315,0
308,336,319,315,0
307,329,316,313,0
305,317,313,310,0
303,304,310,306,0
303,295,308,303,0
304,289,308,302,0
305,286,309,302,0
308,288,311,305,0
310,292,312,309,0
312,298,311,313,0
311,302,309,315,0
310,300,306,316,0
310,296,303,316,0
309,289,301,316,0
308,285,300,315,0
307,285,304,315,0
306,289,310,314,0
305,296,316,314,0
304,306,322,314,0
303,315,325,314,0
302,317,325,314,0
301,314,323,313,0
301,312,319,313,0
302,313,314,313,0
302,314,310,312,0
303,312,306,311,0
303,304,304,309,0
303,293,304,308,0
302,282,305,308,0
303,275,307,308,0
304,276,310,308,0
304,284,311,308,0
305,297,312,309,0
306,314,313,310,0
308,334,312,311,0
307,347,309,311,0
305,347,306,309,0
303,337,303,308,0
301,321,301,307,0
300,306,301,308,0
300,296,302,309,0
300,296,304,309,0
301,304,307,309,0
302,317,308,309,0
303,328,309,309,0
303,334,309,309,0
304,333,309,310,0
304,330,309,309,0
305,325,310,309,0
306,323,311,309,0
308,322,312,309,0
309,319,311,308,0
309,311,310,307,0
309,300,308,307,0
309,290,305,307,0
309,284,303,307,0
308,278,301,306,0
307,275,301,304,0
306,275,301,303,0
304,277,301,303,0
304,278,300,304,0
304,278,300,305,0
304,278,300,306,0
306,276,301,307,0
309,270,304,309,0
311,264,308,312,0
313,257,311,314,0
315,255,315,316,0
316,255,317,318,0
318,260,319,319,0
318,272,320,320,0
317,290,318,319,0
315,309,314,317,0
312,323,311,316,0
311,328,308,316,0
312,325,307,316,0
315,318,308,317,0
317,314,309,318,0
317,314,309,318,0
316,316,310,318,0
314,317,310,316,0
311,316,309,314,0
308,316,307,313,0
307,316,305,312,0
305,316,304,312,0
304,318,304,311,0
305,327,305,310,0
305,342,306,309,0
306,362,308,309,0
308,376,311,310,0
308,373,314,310,0
308,357,316,310,0
307,341,316,310,0
308,330,315,310,0
308,321,313,310,0
307,314,309,309,0
306,307,306,309,0
304,300,304,308,0
304,293,303,308,0
304,288,302,308,0
305,281,303,309,0
306,279,304,310,0
306,283,305,312,0
306,289,306,313,0
306,291,306,314,0
305,287,307,314,0
304,281,307,314,0
304,279,308,313,0
304,281,308,312,0
304,284,306,311,0
304,287,305,310,0
304,289,304,310,0
304,291,305,310,0
304,289,306,309,0
305,283,307,309,0
305,277,307,308,0
305,273,306,307,0
305,276,304,305,0
305,286,300,304,0
304,301,296,302,0
304,321,295,301,0
304,339,295,302,0
304,350,295,302,0
304,353,296,305,0
304,352,297,308,0
304,346,297,311,0
303,338,298,313,0
303,329,299,313,0
303,320,301,313,0
303,314,303,313,0
304,310,305,313,0
305,307,307,312,0
306,305,309,312,0
307,304,311,312,0
309,304,312,312,0
310,303,312,312,0
310,304,311,313,0
310,310,310,314,0
310,322,310,315,0
310,336,310,315,0
310,351,309,316,0
311,363,307,316,0
311,367,305,315,0
312,362,304,315,0
314,351,304,315,0
316,338,304,315,0
318,331,304,315,0
319,325,305,314,0
319,321,305,313,0
318,317,305,311,0
316,308,306,308,0
312,294,307,305,0
309,280,310,303,0
306,266,312,301,0
304,258,313,301,0
304,256,312,303,0
304,260,310,304,0
304,269,308,304,0
304,280,306,304,0
304,293,305,305,0
304,304,306,305,0
303,309,308,305,0
303,308,310,306,0
304,303,310,307,0
304,299,310,307,0
304,296,310,307,0
305,295,310,308,0
307,297,311,309,0
308,300,312,311,0
310,306,312,312,0
311,316,313,312,0
311,330,313,311,0
312,342,313,311,0
312,347,312,311,0
312,344,312,311,0
311,335,312,311,0
310,321,311,310,0
307,303,310,308,0
305,286,309,305,0
303,273,309,303,0
303,266,307,302,0
303,265,306,303,0
303,267,306,305,0
303,268,306,306,0
303,263,307,307,0
303,255,307,308,0
303,250,307,308,0
303,251,307,309,0
304,261,307,310,0
305,278,308,310,0
305,298,309,310,0
306,315,310,310,0
308,325,310,309,0
309,327,310,309,0
309,328,309,308,0
309,327,309,308,0
309,326,308,307,0
308,324,307,307,0
308,324,306,306,0
308,325,303,305,0
307,329,300,303,0
306,334,298,301,0
305,340,296,300,0
305,345,294,299,0
305,347,294,300,0
305,347,296,303,0
306,345,297,306,0
307,341,299,308,0
309,334,300,310,0
311,321,301,310,0
312,304,300,309,0
310,289,300,308,0
309,280,299,307,0
308,275,298,307,0
307,276,298,307,0
306,281,298,308,0
306,289,300,309,0
307,298,303,310,0
307,305,305,311,0
306,307,306,312,0
305,306,308,312,0
303,307,310,311,0
302,308,313,309,0
302,310,316,308,0
302,309,316,308,0
302,306,314,308,0
301,304,310,308,0
301,304,307,307,0
301,304,305,307,0
303,305,303,306,0
304,304,302,306,0
305,301,301,304,0
305,295,301,302,0
305,292,300,301,0
305,295,299,300,0
306,302,298,299,0
306,312,296,299,0
306,320,294,299,0
305,322,292,299,0
304,316,290,298,0
303,308,289,298,0
302,301,289,296,0
301,294,289,295,0
300,290,290,294,0
301,289,292,295,0
301,291,296,296,0
301,295,301,298,0
301,299,307,300,0
302,302,312,301,0
303,306,317,304,0
305,314,319,307,0
307,327,320,311,0
308,343,318,313,0
310,358,316,314,0
310,368,312,315,0
310,369,309,314,0
309,360,306,313,0
308,343,303,312,0
307,323,302,310,0
305,309,301,307,0
305,299,300,306,0
304,291,301,304,0
304,285,302,304,0
304,284,304,305,0
305,286,308,309,0
307,288,311,312,0
308,287,312,313,0
309,282,312,313,0
308,277,309,310,0
306,276,307,306,0
303,278,305,302,0
301,282,304,298,0
300,285,303,296,0
301,285,300,295,0
302,284,298,296,0
303,280,298,298,0
305,276,299,300,0
307,272,303,302,0
308,272,307,305,0
309,278,310,307,0
309,288,312,309,0
309,300,312,311,0
309,313,312,313,0
309,326,311,315,0
310,342,310,316,0
311,355,309,316,0
311,362,308,316,0
311,361,308,315,0
310,354,309,316,0
309,347,312,315,0
309,341,314,314,0
308,337,316,312,0
307,334,316,310,0
307,327,314,308,0
307,316,309,307,0
306,305,305,307,0
305,299,300,307,0
303,296,298,308,0
301,298,298,309,0
302,301,300,310,0
303,305,302,310,0
305,305,303,310,0
305,301,304,309,0
306,296,303,308,0
304,293,302,306,0
303,294,300,304,0
301,299,300,303,0
299,305,301,301,0
298,310,303,300,0
297,316,304,299,0
298,324,304,300,0
299,332,304,301,0
300,333,303,302,0
301,324,301,304,0
301,308,300,304,0
301,296,299,305,0
301,291,298,305,0
301,295,296,304,0
302,304,295,303,0
303,318,294,302,0
304,337,294,300,0
306,356,294,299,0
306,365,294,299,0
305,362,294,300,0
305,349,296,302,0
305,330,298,304,0
305,312,301,306,0
305,299,304,308,0
306,291,305,309,0
306,284,307,310,0
305,276,308,312,0
305,268,308,313,0
305,259,305,313,0
304,249,302,312,0
304,239,300,311,0
305,231,301,311,0
306,226,303,310,0
308,224,305,309,0
309,227,307,307,0
308,238,308,305,0
307,257,308,304,0
306,283,307,305,0
306,309,306,306,0
306,333,305,308,0
305,349,305,309,0
305,354,304,309,0
305,351,302,309,0
306,346,301,309,0
308,346,299,310,0
309,349,297,310,0
309,355,297,310,0
309,359,298,308,0
308,358,300,308,0
308,351,304,306,0
307,338,308,306,0
307,320,311,305,0
309,302,313,306,0
310,291,314,308,0
312,289,314,311,0
312,292,314,313,0
312,297,314,315,0
311,303,311,316,0
311,309,309,317,0
311,316,307,317,0
311,320,305,315,0
310,319,302,313,0
308,314,300,309,0
306,313,299,308,0
305,315,299,307,0
305,320,300,308,0
306,326,300,309,0
307,331,300,310,0
306,331,300,311,0
306,325,300,310,0
304,319,299,308,0
303,318,298,306,0
302,321,298,304,0
301,322,299,304,0
302,316,300,304,0
303,301,301,304,0
304,285,302,306,0
305,274,303,306,0
305,267,304,307,0
305,264,304,307,0
305,265,304,306,0
304,269,303,305,0
304,275,301,304,0
305,281,298,304,0
304,286,295,304,0
304,289,294,303,0
304,292,296,302,0
304,296,298,301,0
304,299,300,301,0
303,301,301,300,0
301,303,300,297,0
298,306,299,295,0
296,308,298,293,0
294,310,297,292,0
293,313,298,293,0
293,317,300,294,0
294,318,303,297,0
296,318,307,300,0
299,317,310,303,0
302,316,313,306,0
305,321,315,307,0
308,336,317,309,0
310,355,315,310,0
311,369,311,309,0
311,370,306,309,0
311,359,303,308,0
312,343,301,308,0
313,332,300,309,0
313,327,304,309,0
311,327,310,310,0
308,326,317,309,0
305,319,321,308,0
302,311,322,306,0
299,306,320,305,0
297,301,315,304,0
296,293,311,304,0
296,282,307,305,0
297,273,305,305,0
298,271,303,305,0
299,271,300,305,0
299,272,296,304,0
299,272,294,302,0
299,273,293,300,0
299,274,294,298,0
298,276,297,298,0
298,279,299,299,0
299,283,301,300,0
300,287,302,302,0
301,291,302,303,0
302,299,301,304,0
303,313,301,305,0
304,334,301,305,0
305,356,301,306,0
305,372,303,306,0
304,373,304,305,0
302,361,305,304,0
301,342,306,304,0
301,325,307,307,0
302,311,307,312,0
303,301,307,314,0
304,295,307,315,0
305,295,307,315,0
306,300,307,315,0
307,308,309,315,0
309,316,311,316,0
310,323,312,317,0
310,324,313,316,0
309,318,311,314,0
307,312,309,311,0
306,308,306,309,0
304,305,303,307,0
303,299,299,305,0
301,293,296,304,0
301,286,295,304,0
302,282,297,306,0
304,279,300,309,0
306,275,305,311,0
306,272,310,312,0
306,275,314,310,0
305,290,317,309,0
305,317,317,308,0
306,347,315,307,0
307,372,311,308,0
308,382,306,308,0
308,374,303,307,0
307,354,301,306,0
305,334,300,306,0
304,315,300,306,0
303,299,300,307,0
302,285,300,308,0
303,274,299,308,0
305,267,298,308,0
307,264,297,309,0
309,265,297,310,0
310,268,296,310,0
309,272,296,311,0
308,276,297,312,0
307,284,299,314,0
306,293,302,315,0
307,301,304,316,0
308,305,304,316,0
309,308,304,315,0
309,309,304,314,0
310,309,304,312,0
309,312,305,311,0
309,316,306,310,0
309,322,306,310,0
309,328,305,310,0
310,334,303,311,0
310,341,300,311,0
311,346,298,312,0
312,350,298,313,0
312,358,298,313,0
312,368,301,313,0
312,374,302,312,0
312,374,303,312,0
313,367,304,312,0
313,350,305,312,0
312,325,304,313,0
311,299,304,314,0
310,277,302,314,0
308,263,300,313,0
307,258,297,312,0
305,259,294,311,0
303,269,292,310,0
302,283,292,309,0
302,299,295,308,0
303,311,298,307,0
304,318,302,307,0
306,317,306,307,0
307,310,308,307,0
307,300,309,306,0
307,292,309,306,0
307,287,308,305,0
307,286,308,305,0
307,289,307,305,0
307,292,306,305,0
307,293,305,306,0
309,292,305,308,0
310,291,307,310,0
312,292,308,311,0
313,295,309,311,0
312,297,306,308,0
309,300,303,304,0
306,303,299,300,0
304,308,296,297,0
303,313,294,297,0
303,317,293,298,0
304,319,293,299,0
304,317,294,301,0
303,310,294,302,0
302,301,296,303,0
302,295,299,303,0
302,294,302,304,0
303,297,305,306,0
304,301,308,308,0
304,304,309,309,0
304,300,310,310,0
305,294,311,311,0
307,288,312,312,0
308,284,312,312,0
309,284,312,313,0
310,285,312,313,0
310,285,311,313,0
309,284,309,313,0
309,283,308,313,0
309,281,307,313,0
311,282,305,312,0
312,285,304,312,0
314,295,304,313,0
316,310,304,314,0
317,328,304,314,0
318,342,304,314,0
317,351,304,312,0
314,353,305,310,0
310,350,305,307,0
306,342,305,305,0
305,332,305,304,0
304,322,303,303,0
303,315,300,303,0
304,310,297,303,0
305,309,295,303,0
307,313,295,305,0
309,322,298,307,0
310,334,304,309,0
311,344,310,309,0
311,347,314,309,0
310,340,316,308,0
307,326,315,308,0
306,310,313,308,0
305,298,311,309,0
304,290,308,308,0
303,285,305,307,0
303,281,303,305,0
302,279,303,303,0
301,279,303,301,0
301,279,303,300,0
302,281,304,299,0
302,284,305,299,0
303,289,306,300,0
304,294,305,301,0
305,298,304,302,0
304,299,305,304,0
304,299,305,305,0
304,299,305,306,0
304,300,305,305,0
304,302,305,305,0
304,306,304,304,0
305,310,304,304,0
305,311,303,305,0
306,308,305,308,0
307,301,308,312,0
308,291,310,314,0
307,283,311,316,0
308,280,312,318,0
308,285,313,319,0
309,299,313,319,0
308,321,311,318,0
306,343,308,315,0
305,362,305,311,0
304,373,303,306,0
304,374,303,303,0
305,366,304,302,0
306,354,306,303,0
306,339,307,305,0
305,323,307,307,0
303,309,307,307,0
302,298,305,307,0
302,287,304,307,0
302,275,303,306,0
303,263,302,307,0
303,255,302,308,0
304,257,302,309,0
304,267,302,311,0
304,281,301,313,0
303,293,301,315,0
302,302,302,317,0
302,309,304,319,0
304,312,307,319,0
306,314,309,318,0
309,317,310,317,0
311,320,311,316,0
312,319,310,314,0
311,316,309,312,0
309,310,307,309,0
307,306,305,307,0
306,301,303,305,0
306,298,302,304,0
305,295,302,305,0
304,295,302,306,0
304,296,301,307,0
304,296,301,308,0
304,296,301,308,0
304,296,302,308,0
305,295,302,307,0
305,292,302,305,0
306,288,299,304,0
306,286,297,304,0
306,287,297,304,0
307,293,300,305,0
308,305,304,307,0
309,320,309,310,0
309,334,312,311,0
308,343,313,312,0
307,348,313,312,0
306,348,310,311,0
306,345,308,309,0
305,340,307,308,0
305,330,306,308,0
305,314,305,309,0
306,300,305,310,0
306,293,306,311,0
307,293,307,312,0
307,296,309,312,0
307,294,309,311,0
308,286,309,310,0
308,275,309,309,0
308,268,307,307,0
308,265,306,305,0
307,266,305,304,0
307,274,305,305,0
307,287,306,306,0
308,299,308,308,0
308,310,310,309,0
309,321,310,310,0
309,331,310,310,0
308,339,308,309,0
309,342,307,308,0
309,339,307,307,0
309,332,306,307,0
308,326,305,306,0
307,325,305,305,0
307,325,304,305,0
306,317,303,304,0
305,303,301,302,0
305,291,299,302,0
306,286,298,302,0
308,289,299,303,0
310,294,301,304,0
311,299,303,307,0
311,303,304,309,0
311,304,305,311,0
309,303,305,311,0
308,303,306,311,0
307,304,306,309,0
306,305,306,308,0
305,304,306,306,0
305,302,305,306,0
306,299,305,305,0
307,296,305,305,0
308,294,305,306,0
308,293,304,307,0
309,292,304,308,0
310,291,305,309,0
310,291,306,310,0
312,292,307,312,0
313,294,309,313,0
314,298,310,313,0
314,304,311,312,0
313,308,309,309,0
313,310,309,307,0
315,311,308,306,0
316,311,308,306,0
317,308,309,306,0
316,303,308,308,0
315,301,308,309,0
314,306,308,311,0
313,318,307,313,0
312,331,305,314,0
310,340,305,314,0
309,345,307,315,0
307,344,310,315,0
306,342,314,315,0
306,340,318,314,0
306,341,320,313,0
308,345,320,313,0
309,344,318,313,0
309,333,314,311,0
307,314,311,309,0
305,296,308,308,0
303,286,309,307,0
301,282,311,306,0
300,281,313,306,0
300,282,314,308,0
300,285,314,309,0
301,289,315,310,0
302,295,315,311,0
302,305,314,311,0
301,319,313,311,0
300,332,312,311,0
300,338,312,311,0
300,335,311,310,0
300,321,311,309,0
299,302,310,308,0
299,286,308,306,0
299,275,306,304,0
300,271,303,301,0
300,273,300,299,0
301,279,297,299,0
302,287,296,299,0
303,297,296,301,0
304,304,298,305,0
306,308,303,310,0
307,309,308,314,0
308,307,312,316,0
310,305,315,317,0
310,304,317,317,0
311,307,318,317,0
312,314,319,318,0
312,325,319,318,0
312,335,318,319,0
312,339,317,318,0
311,337,316,318,0
312,331,315,318,0
312,322,315,318,0
312,313,315,318,0
312,305,316,316,0
312,302,316,315,0
312,304,316,315,0
313,309,315,315,0
314,315,315,315,0
315,320,315,316,0
316,322,315,315,0
317,321,314,314,0
317,316,314,313,0
317,310,313,312,0
318,305,312,312,0
319,304,311,312,0
320,306,312,313,0
321,308,312,314,0
320,309,312,314,0
317,304,311,313,0
314,296,310,312,0
311,288,309,310,0
308,281,309,308,0
306,277,309,307,0
305,276,309,308,0
305,281,309,309,0
304,290,309,311,0
304,300,309,312,0
304,307,310,312,0
303,312,310,312,0
304,316,310,312,0
306,315,309,312,0
308,310,309,311,0
309,302,309,310,0
309,294,309,308,0
309,288,309,306,0
310,289,309,306,0
313,299,309,307,0
316,318,310,309,0
321,342,312,312,0
324,365,312,315,0
324,381,311,315,0
320,383,309,314,0
313,373,306,312,0
307,357,305,310,0
302,338,305,308,0
298,317,307,307,0
295,300,308,306,0
294,288,308,305,0
293,282,307,303,0
293,279,306,301,0
294,278,303,300,0
294,279,300,299,0
295,281,296,299,0
295,283,293,299,0
296,285,290,300,0
297,285,289,302,0
298,286,291,305,0
299,288,295,308,0
300,294,298,309,0
301,306,302,310,0
302,322,304,311,0
303,334,304,310,0
302,335,304,308,0
301,324,302,306,0
300,304,301,304,0
299,281,299,304,0
300,263,298,304,0
301,252,298,305,0
303,250,299,306,0
304,256,300,307,0
305,268,300,308,0
305,282,301,309,0
306,294,301,310,0
305,303,300,311,0
305,308,300,311,0
305,310,299,311,0
306,310,299,311,0
308,310,300,312,0
311,315,302,313,0
313,325,305,313,0
314,338,306,315,0
314,351,307,318,0
314,362,305,320,0
313,364,303,321,0
311,358,298,320,0
307,344,292,320,0
303,327,288,318,0
300,312,286,316,0
298,300,288,315,0
298,293,292,314,0
298,291,298,314,0
300,294,303,315,0
302,300,307,317,0
304,309,309,318,0
306,318,310,320,0
308,325,310,321,0
310,327,310,321,0
310,324,310,321,0
310,321,311,322,0
309,322,313,322,0
309,326,314,321,0
308,329,314,320,0
306,329,314,318,0
305,325,313,316,0
305,314,312,315,0
305,302,311,314,0
306,294,312,315,0
308,293,312,317,0
308,296,312,318,0
307,298,311,317,0
305,299,309,316,0
303,300,307,314,0
303,304,306,312,0
304,316,305,310,0
306,330,305,309,0
309,344,305,310,0
310,353,305,310,0
311,353,307,311,0
310,345,309,310,0
307,331,310,308,0
304,318,310,308,0
301,307,310,308,0
299,297,308,308,0
298,285,307,307,0
297,274,306,305,0
297,266,308,304,0
298,262,309,302,0
300,260,310,299,0
302,263,307,298,0
303,270,303,296,0
303,278,298,295,0
303,286,294,294,0
302,291,292,293,0
302,293,293,294,0
302,295,297,295,0
303,295,302,299,0
306,295,305,302,0
308,293,308,305,0
309,290,308,307,0
311,289,309,308,0
311,290,309,308,0
312,296,308,308,0
312,304,307,308,0
311,314,306,307,0
311,322,306,306,0
310,323,307,304,0
310,320,309,304,0
310,317,311,303,0
311,317,311,304,0
311,316,310,305,0
310,312,308,305,0
308,304,305,306,0
306,297,302,306,0
305,294,300,307,0
304,295,299,307,0
303,298,300,308,0
305,304,302,309,0
307,311,305,311,0
309,317,307,313,0
309,315,306,314,0
308,307,306,313,0
306,298,305,311,0
303,294,305,309,0
301,294,306,306,0
300,300,307,305,0
300,304,309,303,0
300,306,310,301,0
299,309,310,300,0
299,312,309,301,0
301,316,307,302,0
302,317,305,303,0
303,316,303,304,0
303,318,302,305,0
303,324,303,306,0
304,332,305,308,0
306,339,307,309,0
307,344,309,310,0
308,341,308,310,0
308,331,306,310,0
307,318,305,309,0
308,304,305,307,0
307,296,305,306,0
307,291,305,307,0
307,290,304,307,0
306,291,304,309,0
307,293,303,310,0
308,295,302,312,0
308,298,301,312,0
308,297,300,311,0
306,293,299,310,0
304,291,299,308,0
302,295,301,306,0
300,303,303,304,0
300,313,305,304,0
299,320,307,303,0
300,323,309,304,0
301,318,310,303,0
302,310,310,304,0
304,301,309,304,0
306,292,307,305,0
308,288,304,306,0
310,286,303,307,0
311,288,304,309,0
312,292,307,309,0
313,294,311,309,0
312,288,314,307,0
309,281,316,306,0
305,277,315,305,0
303,281,312,304,0
302,289,309,304,0
302,299,305,304,0
302,308,302,305,0
303,313,302,306,0
304,315,303,308,0
306,313,306,308,0
308,308,309,306,0
309,306,312,305,0
309,312,314,303,0
307,326,313,300,0
304,342,311,299,0
302,356,309,297,0
300,363,307,297,0
299,360,307,297,0
299,349,307,298,0
300,334,307,300,0
300,320,306,301,0
300,312,305,301,0
301,309,304,302,0
302,313,303,304,0
304,320,304,305,0
305,328,305,306,0
305,333,306,306,0
304,337,307,305,0
303,337,308,303,0
302,331,310,301,0
302,323,310,299,0
301,314,310,297,0
301,306,309,297,0
302,303,308,297,0
304,306,306,297,0
304,312,302,297,0
302,318,299,296,0
300,320,297,295,0
298,315,296,295,0
299,303,297,297,0
300,289,297,297,0
302,278,298,298,0
302,271,297,299,0
302,270,298,299,0
302,272,302,300,0
303,277,307,299,0
304,281,310,299,0
303,285,311,299,0
303,289,311,300,0
303,292,309,301,0
303,295,308,301,0
302,295,307,302,0
301,294,306,302,0
300,294,306,302,0
301,299,306,302,0
302,308,308,302,0
305,317,309,302,0
307,323,309,302,0
308,321,307,301,0
308,313,304,299,0
307,303,301,298,0
306,298,298,298,0
306,298,297,298,0
306,301,297,300,0
305,305,298,302,0
303,307,301,304,0
301,305,305,306,0
300,301,306,308,0
299,298,306,310,0
298,295,306,311,0
299,292,308,313,0
300,290,311,314,0
302,288,314,315,0
303,286,315,316,0
304,287,316,318,0
305,290,318,318,0
306,294,319,318,0
306,299,321,317,0
306,310,321,317,0
307,324,321,317,0
307,337,319,316,0
307,343,316,315,0
306,341,315,313,0
305,330,313,311,0
305,316,311,308,0
303,306,308,306,0
302,300,306,304,0
300,298,304,302,0
298,298,302,301,0
296,298,300,300,0
295,298,299,300,0
295,300,298,301,0
295,305,297,302,0
296,313,297,303,0
296,319,298,303,0
297,323,299,303,0
299,326,301,304,0
301,331,301,305,0
304,337,302,306,0
306,347,303,307,0
308,355,305,308,0
310,357,304,307,0
310,346,303,303,0
309,325,302,300,0
308,300,301,297,0
306,280,300,295,0
305,269,297,293,0
302,268,295,291,0
300,273,293,289,0
299,283,293,287,0
299,293,294,287,0
300,300,296,287,0
301,304,298,289,0
304,309,302,292,0
307,319,307,298,0
312,336,312,304,0
317,356,316,311,0
320,371,318,317,0
321,373,317,321,0
320,364,315,324,0
316,346,311,323,0
311,325,309,322,0
306,304,308,319,0
301,288,310,316,0
300,281,313,315,0
301,282,316,314,0
303,291,317,313,0
306,306,317,313,0
308,321,316,312,0
307,325,314,309,0
303,314,311,305,0
299,293,307,303,0
295,272,304,302,0
293,257,303,302,0
293,249,301,304,0
293,248,300,305,0
294,251,297,305,0
295,258,296,303,0
295,269,294,301,0
296,282,294,298,0
297,296,293,297,0
299,308,293,296,0
300,319,293,296,0
301,327,293,295,0
302,331,294,295,0
302,329,295,296,0
302,322,297,298,0
302,309,301,299,0
302,297,305,299,0
301,289,309,299,0
301,285,311,300,0
302,284,311,300,0
302,284,310,300,0
302,284,307,302,0
302,285,305,304,0
303,288,304,306,0
303,292,305,309,0
304,298,306,312,0
303,302,308,313,0
303,302,309,314,0
303,300,309,315,0
303,296,308,314,0
304,291,307,312,0
305,287,306,309,0
306,285,306,305,0
307,288,305,302,0
307,294,302,300,0
307,301,299,299,0
308,311,297,300,0
309,324,298,301,0
310,336,301,304,0
310,346,304,306,0
309,350,306,307,0
308,348,307,308,0
306,341,308,309,0
305,332,307,311,0
303,323,307,312,0
302,317,307,313,0
301,314,308,313,0
302,314,308,312,0
304,320,305,312,0
305,330,303,312,0
308,341,303,313,0
310,344,304,313,0
312,335,307,313,0
314,318,310,313,0
315,303,311,313,0
316,294,311,313,0
314,286,307,312,0
310,280,302,310,0
307,278,299,308,0
304,280,297,307,0
303,285,296,306,0
302,290,296,306,0
303,294,297,307,0
305,295,298,308,0
307,293,298,308,0
309,288,296,306,0
308,284,294,304,0
307,280,293,302,0
306,279,292,301,0
305,280,294,301,0
305,283,297,301,0
306,288,301,302,0
307,297,304,302,0
308,310,307,304,0
309,325,309,306,0
309,333,308,307,0
308,335,306,308,0
307,334,305,309,0
307,330,305,309,0
307,324,304,309,0
306,318,303,309,0
304,313,303,307,0
302,307,303,306,0
300,303,304,304,0
301,299,307,304,0
303,297,309,304,0
307,296,311,306,0
311,298,313,310,0
312,301,314,312,0
311,302,312,312,0
308,300,310,310,0
305,299,307,308,0
304,300,304,306,0
303,304,301,304,0
302,308,299,302,0
302,312,298,301,0
303,316,297,299,0
303,320,298,298,0
304,325,299,298,0
305,331,302,299,0
307,332,304,300,0
309,322,306,302,0
310,306,307,303,0
312,294,309,305,0
313,291,310,306,0
313,295,311,307,0
310,302,310,307,0
308,311,308,306,0
306,321,308,306,0
306,329,308,307,0
306,331,310,307,0
305,325,312,307,0
305,312,314,307,0
304,298,316,307,0
304,288,319,309,0
304,286,321,310,0
304,288,321,312,0
304,292,321,312,0
304,297,319,312,0
304,300,316,311,0
304,303,312,310,0
304,309,310,309,0
304,318,308,307,0
303,326,305,305,0
303,331,304,304,0
303,330,303,302,0
303,321,302,302,0
304,310,301,303,0
305,301,301,304,0
306,297,303,306,0
308,298,306,308,0
310,302,308,308,0
311,303,309,308,0
310,302,308,306,0
309,299,306,305,0
308,297,304,305,0
309,299,303,305,0
310,304,302,305,0
310,310,300,305,0
310,316,297,305,0
309,321,296,306,0
308,320,297,308,0
307,316,303,309,0
306,310,310,309,0
305,306,315,310,0
306,306,317,310,0
306,309,316,309,0
307,311,312,306,0
307,310,306,302,0
307,306,299,297,0
306,303,292,293,0
304,299,288,290,0
302,294,287,287,0
301,291,289,287,0
301,293,293,291,0
304,302,299,297,0
307,315,305,303,0
309,328,309,309,0
309,335,312,314,0
309,335,314,316,0
309,336,316,317,0
309,341,317,317,0
309,351,316,316,0
308,358,315,315,0
306,353,314,315,0
304,339,314,315,0
304,321,313,316,0
304,303,313,317,0
305,287,313,317,0
306,277,313,317,0
307,272,313,317,0
307,273,313,317,0
307,280,312,317,0
307,289,311,317,0
307,302,311,316,0
307,319,311,316,0
309,333,311,316,0
309,337,311,315,0
310,330,310,314,0
309,320,309,313,0
307,309,309,310,0
305,298,308,308,0
304,287,308,306,0
303,279,310,305,0
304,273,311,305,0
306,271,313,306,0
308,270,316,308,0
309,271,318,308,0
311,274,319,309,0
311,277,317,309,0
310,284,313,308,0
309,295,310,307,0
308,308,308,307,0
308,324,308,307,0
309,340,308,306,0
308,346,306,304,0
307,341,305,302,0
306,331,305,299,0
305,318,305,297,0
304,303,305,297,0
304,289,306,296,0
305,277,307,298,0
308,273,309,300,0
311,275,312,303,0
313,281,315,305,0
315,287,317,307,0
315,288,318,308,0
313,284,317,309,0
312,277,315,309,0
311,273,312,309,0
309,277,309,307,0
308,285,305,306,0
306,294,302,305,0
306,305,301,305,0
306,318,301,307,0
307,330,303,308,0
307,337,305,309,0
308,338,309,310,0
309,332,312,310,0
311,325,314,310,0
311,319,312,309,0
311,315,308,307,0
309,310,303,304,0
308,307,299,303,0
307,305,296,301,0
306,305,295,299,0
304,303,296,298,0
303,301,299,298,0
303,299,304,300,0
303,297,308,304,0
304,294,313,308,0
304,291,315,311,0
304,288,316,314,0
306,287,316,316,0
307,286,316,317,0
308,287,314,317,0
309,288,312,315,0
309,290,307,314,0
309,293,303,312,0
309,296,300,311,0
310,301,300,311,0
312,307,301,311,0
313,313,302,312,0
314,319,303,314,0
317,327,304,316,0
319,333,305,317,0
319,337,304,315,0
317,336,301,311,0
312,335,298,305,0
306,331,296,301,0
301,323,297,300,0
298,311,301,301,0
298,299,306,303,0
299,289,310,305,0
301,285,313,307,0
303,284,315,309,0
305,285,316,310,0
307,285,316,313,0
308,285,317,315,0
310,283,318,316,0
311,282,319,317,0
311,283,319,317,0
311,286,320,317,0
311,292,320,318,0
311,299,321,320,0
312,308,321,321,0
313,316,322,323,0
315,322,322,325,0
317,329,322,326,0
318,337,321,325,0
318,347,317,322,0
316,357,313,319,0
315,360,312,316,0
314,351,312,315,0
313,333,312,314,0
311,314,310,313,0
309,298,308,312,0
307,287,308,311,0
304,280,308,309,0
302,278,309,307,0
301,281,310,306,0
301,291,310,305,0
302,304,309,305,0
302,317,306,305,0
301,321,304,304,0
300,316,302,302,0
300,305,301,301,0
300,293,300,299,0
301,285,299,298,0
304,282,298,297,0
306,285,298,297,0
308,292,298,297,0
309,301,298,296,0
309,310,298,295,0
306,315,298,293,0
303,317,298,292,0
301,314,299,291,0
300,309,301,291,0
301,303,304,292,0
303,302,308,295,0
307,305,312,301,0
311,312,315,307,0
314,319,316,312,0
315,324,316,316,0
315,329,314,318,0
315,334,312,319,0
314,338,309,319,0
312,334,305,318,0
309,321,301,315,0
307,305,299,312,0
306,292,299,310,0
306,283,300,307,0
305,280,301,305,0
305,281,304,305,0
305,285,306,305,0
306,292,308,304,0
305,299,310,304,0
305,304,309,304,0
304,307,306,303,0
303,310,302,303,0
303,313,298,304,0
303,320,296,305,0
303,329,295,306,0
303,339,295,307,0
303,342,297,306,0
301,335,299,306,0
298,321,302,305,0
297,306,305,304,0
296,294,306,303,0
295,287,306,303,0
296,286,305,303,0
296,289,302,303,0
297,296,297,302,0
297,306,295,301,0
298,315,296,301,0
299,317,299,300,0
300,315,304,300,0
302,312,308,300,0
304,308,310,300,0
306,304,311,301,0
307,301,311,303,0
307,299,310,305,0
307,297,311,307,0
307,295,311,308,0
307,292,311,309,0
309,291,311,311,0
310,294,310,312,0
311,302,310,313,0
311,313,309,313,0
311,324,310,314,0
310,328,309,313,0
308,325,309,313,0
306,319,308,313,0
304,315,307,313,0
303,315,306,312,0
302,317,305,310,0
302,317,304,307,0
301,313,302,304,0
301,307,300,302,0
301,302,298,299,0
301,299,296,297,0
302,298,296,296,0
304,300,298,296,0
307,304,303,298,0
308,311,307,301,0
309,317,312,302,0
309,322,316,302,0
307,325,318,302,0
306,323,318,301,0
306,318,318,300,0
306,308,316,300,0
306,297,314,301,0
306,290,310,303,0
306,290,308,305,0
306,295,305,308,0
305,297,303,309,0
303,292,302,308,0
301,284,301,306,0
298,278,300,305,0
296,275,301,304,0
295,275,302,305,0
295,277,304,306,0
296,280,304,308,0
297,287,305,309,0
298,298,305,311,0
300,313,305,313,0
302,330,304,314,0
303,346,302,313,0
303,356,301,312,0
303,362,300,309,0
302,364,300,306,0
302,366,299,304,0
303,363,297,302,0
302,348,295,302,0
300,322,293,300,0
299,294,293,299,0
299,273,293,298,0
300,260,293,298,0
300,255,294,299,0
301,257,294,299,0
302,265,295,301,0
304,280,296,302,0
308,294,297,304,0
310,302,297,305,0
312,303,296,304,0
314,302,296,302,0
314,303,295,299,0
313,302,293,297,0
311,297,291,294,0
308,291,288,292,0
306,289,286,290,0
304,293,285,290,0
302,300,288,290,0
302,309,292,291,0
302,316,297,293,0
303,316,301,297,0
303,311,303,300,0
304,303,303,304,0
305,292,304,306,0
306,281,303,307,0
307,272,303,308,0
307,267,303,309,0
306,269,304,308,0
307,276,303,307,0
306,285,301,305,0
306,292,301,304,0
307,300,303,303,0
310,309,305,304,0
312,318,308,305,0
315,327,308,307,0
318,342,308,308,0
321,363,308,309,0
324,387,307,311,0
327,407,308,311,0
328,415,310,311,0
328,403,311,310,0
325,373,311,309,0
322,337,310,307,0
319,307,309,307,0
317,288,308,306,0
315,280,306,305,0
312,277,303,303,0
307,277,299,300,0
301,276,294,298,0
297,277,291,297,0
293,275,288,296,0
291,272,286,295,0
290,268,285,295,0
291,265,287,297,0
292,265,288,299,0
294,266,289,300,0
295,271,290,300,0
296,283,292,299,0
295,300,294,298,0
296,321,298,299,0
297,345,302,300,0
298,365,304,302,0
300,371,305,304,0
300,371,305,306,0
301,372,306,308,0
302,368,306,309,0
302,348,305,309,0
301,323,304,308,0
301,303,304,308,0
302,292,303,309,0
302,286,302,308,0
302,278,300,306,0
301,273,298,304,0
300,270,296,302,0
299,269,295,300,0
299,270,296,299,0
300,279,299,300,0
302,296,302,302,0
303,319,304,304,0
304,338,304,306,0
304,353,302,308,0
304,360,300,308,0
303,356,296,307,0
301,341,292,305,0
299,318,289,303,0
297,295,288,301,0
298,273,289,301,0
298,254,292,300,0
299,237,295,299,0
299,225,300,300,0
301,217,304,301,0
303,215,307,304,0
305,217,309,306,0
308,223,310,310,0
310,236,311,314,0
313,260,313,317,0
314,291,314,319,0
313,320,315,319,0
310,343,316,318,0
307,357,316,316,0
303,359,315,313,0
300,354,313,310,0
299,346,312,307,0
298,337,310,306,0
298,330,309,306,0
299,323,308,306,0
300,315,308,307,0
301,308,308,307,0
302,307,308,306,0
303,313,308,305,0
305,322,307,304,0
308,330,307,303,0
310,331,307,302,0
312,326,308,302,0
312,319,310,301,0
311,319,313,303,0
309,322,315,305,0
307,325,316,306,0
305,325,315,306,0
303,325,313,306,0
301,324,311,305,0
300,323,309,305,0
300,321,309,304,0
301,317,309,302,0
302,313,309,301,0
304,313,310,302,0
306,318,312,304,0
307,324,313,304,0
308,327,313,304,0
308,325,310,305,0
306,323,306,305,0
306,321,303,306,0
304,319,301,305,0
304,318,301,304,0
304,313,300,303,0
306,307,300,302,0
307,302,301,303,0
307,301,300,304,0
306,299,298,306,0
304,293,297,305,0
304,286,296,305,0
304,279,296,303,0
305,276,297,303,0
307,278,299,304,0
308,284,301,305,0
309,295,303,306,0
310,310,305,307,0
309,326,307,307,0
308,344,309,307,0
306,356,310,306,0
304,358,311,305,0
304,353,311,304,0
305,347,311,304,0
306,341,311,304,0
308,338,310,306,0
310,337,309,307,0
311,337,306,307,0
310,331,304,306,0
308,319,301,305,0
308,307,300,305,0
308,298,301,306,0
310,295,303,308,0
312,295,305,310,0
312,292,305,311,0
311,284,304,310,0
309,275,304,308,0
307,269,305,307,0
306,264,307,305,0
305,259,310,304,0
304,257,311,302,0
304,262,312,301,0
303,272,311,301,0
304,284,308,303,0
305,296,306,305,0
306,309,304,307,0
306,320,303,307,0
305,330,303,306,0
304,338,302,305,0
303,345,302,303,0
304,348,302,301,0
304,348,303,299,0
305,346,304,299,0
306,337,303,298,0
305,321,301,298,0
303,303,300,297,0
302,288,301,298,0
303,279,303,300,0
304,277,306,304,0
306,280,310,309,0
308,281,313,314,0
309,280,315,317,0
311,278,316,318,0
312,277,316,319,0
311,280,313,318,0
310,287,309,319,0
310,297,306,318,0
309,304,306,317,0
308,312,306,315,0
307,320,306,314,0
307,329,306,312,0
307,338,305,310,0
308,352,304,307,0
308,365,303,305,0
308,369,301,303,0
308,362,301,302,0
308,346,301,303,0
308,322,304,307,0
308,298,308,311,0
308,277,312,313,0
307,265,315,314,0
304,262,316,314,0
303,265,314,314,0
301,273,310,313,0
300,283,306,313,0
299,293,306,313,0
300,302,308,314,0
302,309,312,315,0
302,315,314,314,0
302,316,314,313,0
301,312,314,312,0
301,307,313,310,0
301,306,313,309,0
301,311,311,308,0
301,316,310,306,0
301,318,309,303,0
302,315,308,301,0
304,311,308,301,0
306,310,307,302,0
307,312,306,303,0
308,321,304,306,0
310,334,302,309,0
311,345,302,311,0
311,346,301,311,0
311,334,300,310,0
309,315,301,308,0
308,299,302,305,0
307,290,303,302,0
307,289,302,301,0
309,295,302,300,0
311,306,302,302,0
313,318,304,305,0
313,327,305,307,0
310,325,305,307,0
307,313,303,305,0
304,296,301,304,0
303,283,299,305,0
302,279,298,305,0
301,286,297,307,0
301,303,296,308,0
302,322,296,310,0
303,336,297,313,0
303,338,298,314,0
303,331,301,316,0
304,324,305,318,0
305,324,310,319,0
307,325,315,320,0
307,323,319,318,0
306,315,322,315,0
306,307,323,312,0
308,306,321,310,0
309,314,320,309,0
311,322,318,309,0
313,325,315,309,0
314,326,313,309,0
313,322,311,307,0
311,316,311,304,0
309,316,311,303,0
309,323,312,304,0
309,335,312,304,0
310,340,310,303,0
310,332,307,302,0
308,313,304,302,0
306,293,303,302,0
305,278,303,303,0
304,271,304,304,0
304,275,306,306,0
305,288,309,307,0
306,302,311,307,0
306,312,313,307,0
306,319,313,308,0
307,323,313,310,0
308,327,312,312,0
309,329,311,313,0
310,326,310,314,0
311,324,310,314,0
312,325,310,315,0
312,326,309,315,0
312,324,309,314,0
312,316,309,313,0
312,302,308,312,0
313,291,309,313,0
314,293,310,313,0
315,304,309,313,0
315,315,309,312,0
315,323,309,312,0
313,323,311,312,0
311,314,313,311,0
308,305,314,311,0
306,304,314,312,0
304,309,313,313,0
305,319,311,314,0
306,329,309,315,0
309,337,308,315,0
310,341,306,313,0
308,339,303,308,0
304,333,299,301,0
299,325,296,296,0
296,321,294,292,0
293,313,291,289,0
292,299,290,286,0
290,283,289,284,0
290,270,290,284,0
290,262,293,287,0
292,258,298,293,0
296,262,302,297,0
300,276,304,302,0
304,300,303,305,0
308,331,302,308,0
312,362,302,310,0
313,376,301,310,0
312,366,298,308,0
310,342,295,305,0
306,318,292,301,0
302,301,294,297,0
299,295,298,297,0
298,297,303,298,0
298,300,308,302,0
300,303,311,306,0
302,308,314,311,0
304,312,314,316,0
305,308,313,318,0
306,295,311,317,0
309,281,311,315,0
312,275,311,314,0
317,278,311,312,0
321,284,311,311,0
325,292,310,309,0
327,295,310,306,0
326,287,311,304,0
324,270,312,302,0
321,253,314,303,0
318,241,315,304,0
314,234,314,305,0
310,237,313,305,0
306,254,313,305,0
304,282,316,306,0
303,313,318,307,0
304,342,318,309,0
303,362,316,310,0
302,371,312,309,0
300,369,308,307,0
299,361,305,305,0
299,351,304,305,0
301,341,304,306,0
304,330,305,307,0
307,316,308,308,0
310,305,309,308,0
312,302,310,308,0
313,301,311,307,0
313,298,311,304,0
312,294,310,301,0
312,289,310,299,0
313,285,309,296,0
315,280,309,294,0
315,275,308,294,0
315,275,306,295,0
314,278,303,297,0
312,283,299,298,0
310,286,296,300,0
308,288,294,301,0
306,289,295,301,0
305,292,297,300,0
304,296,301,299,0
304,300,304,298,0
305,305,306,297,0
306,312,307,297,0
308,320,307,299,0
309,325,306,302,0
309,330,304,304,0
309,339,300,306,0
309,355,294,306,0
309,375,289,304,0
309,393,288,302,0
309,399,292,300,0
308,384,302,300,0
307,357,315,301,0
308,332,329,305,0
311,317,338,308,0
313,306,341,310,0
311,295,338,309,0
308,284,332,307,0
305,279,326,304,0
303,281,321,302,0
301,287,317,301,0
301,293,315,302,0
301,293,313,301,0
301,284,311,299,0
300,275,307,297,0
299,270,304,294,0
298,272,300,291,0
298,280,297,290,0
298,289,296,290,0
299,295,298,292,0
300,297,300,292,0
302,295,303,293,0
304,297,305,294,0
307,303,307,297,0
308,310,307,298,0
309,313,307,298,0
307,312,307,299,0
307,308,309,301,0
306,305,312,303,0
306,305,313,305,0
307,307,314,307,0
307,310,315,310,0
308,310,316,311,0
309,307,317,312,0
309,303,317,311,0
309,301,317,311,0
310,305,316,312,0
311,314,316,313,0
311,320,314,313,0
309,311,311,312,0
307,294,310,311,0
306,282,310,311,0
306,281,310,312,0
306,295,310,313,0
308,323,310,314,0
307,354,308,312,0
306,382,305,310,0
304,397,302,307,0
301,385,300,304,0
298,354,299,302,0
295,319,299,300,0
292,290,298,299,0
291,270,298,299,0
291,259,299,298,0
293,260,300,299,0
297,269,303,302,0
303,282,307,305,0
307,292,309,308,0
310,299,311,309,0
311,304,311,309,0
309,307,309,308,0
307,305,307,308,0
304,303,306,308,0
303,302,307,309,0
303,305,309,311,0
304,307,310,314,0
306,308,310,316,0
308,308,310,317,0
311,309,310,318,0
313,311,310,319,0
313,314,309,319,0
312,317,307,318,0
311,315,305,316,0
307,306,303,312,0
304,292,302,308,0
301,283,303,306,0
300,277,304,305,0
300,276,305,303,0
301,280,306,301,0
303,288,307,302,0
304,295,307,303,0
304,296,307,304,0
304,289,308,304,0
305,280,309,304,0
307,275,312,304,0
309,277,313,305,0
311,286,313,305,0
311,300,312,306,0
311,314,310,307,0
311,326,309,307,0
310,336,309,307,0
309,343,308,306,0
307,343,305,305,0
304,334,301,301,0
302,321,298,298,0
301,308,295,296,0
301,298,293,294,0
302,290,292,293,0
304,293,291,295,0
305,305,290,298,0
307,321,288,301,0
309,332,288,303,0
309,331,288,305,0
308,321,291,305,0
308,308,295,305,0
307,296,300,304,0
306,288,304,304,0
305,286,306,303,0
304,285,308,302,0
303,286,308,301,0
303,287,308,299,0
303,289,307,300,0
304,293,307,301,0
307,297,306,302,0
309,301,304,303,0
310,304,302,303,0
312,305,299,303,0
312,302,295,300,0
311,299,289,297,0
309,297,284,294,0
308,298,282,292,0
307,298,284,291,0
307,297,291,293,0
306,297,301,295,0
307,298,312,298,0
307,298,321,302,0
307,297,327,306,0
308,299,329,309,0
310,306,329,313,0
312,312,327,316,0
314,316,325,316,0
315,315,321,316,0
314,313,319,315,0
314,312,316,315,0
312,313,313,315,0
310,312,310,314,0
306,308,308,312,0
302,304,307,311,0
299,300,307,310,0
297,295,306,309,0
296,291,306,307,0
296,293,306,306,0
296,302,305,306,0
298,314,305,306,0
300,327,305,307,0
301,334,307,307,0
303,335,308,306,0
306,331,309,307,0
307,322,311,307,0
308,306,311,307,0
308,289,310,306,0
306,277,309,306,0
305,271,307,305,0
305,271,307,305,0
307,280,306,306,0
309,296,306,308,0
311,317,305,308,0
311,340,306,309,0
311,358,306,308,0
310,361,305,307,0
308,345,304,304,0
305,321,304,302,0
303,299,303,301,0
302,285,302,300,0
301,277,301,299,0
300,274,299,299,0
300,271,299,300,0
301,271,299,301,0
303,273,301,302,0
306,279,302,303,0
308,287,302,306,0
310,294,301,309,0
312,297,301,311,0
314,302,302,312,0
317,309,304,314,0
317,311,305,314,0
313,301,304,311,0
305,286,302,307,0
299,275,300,304,0
295,270,300,302,0
293,272,302,302,0
295,278,306,304,0
299,287,311,307,0
305,299,317,311,0
311,312,321,314,0
316,319,322,316,0
316,312,320,313,0
311,294,316,307,0
304,275,310,300,0
298,264,304,295,0
294,262,299,290,0
291,269,293,287,0
289,282,289,285,0
288,300,288,285,0
287,319,288,286,0
287,334,292,289,0
289,341,297,293,0
292,337,302,298,0
295,325,307,303,0
299,311,311,308,0
302,301,314,312,0
305,299,315,313,0
307,306,314,314,0
309,315,313,313,0
310,322,310,312,0
312,325,308,309,0
313,319,305,307,0
313,308,304,306,0
313,298,301,308,0
312,293,299,309,0
311,294,296,310,0
311,297,295,310,0
311,298,294,310,0
310,295,295,309,0
309,287,298,307,0
307,276,304,306,0
306,267,310,305,0
306,262,314,306,0
306,260,316,307,0
307,260,314,308,0
307,263,312,309,0
308,272,309,309,0
309,286,306,309,0
309,301,305,309,0
309,313,304,308,0
309,320,304,307,0
309,318,304,306,0
309,315,306,307,0
310,314,308,309,0
310,313,311,311,0
310,309,312,313,0
310,297,310,313,0
309,284,307,312,0
309,275,304,312,0
309,272,303,312,0
310,272,303,312,0
311,274,304,311,0
311,276,305,311,0
311,277,306,310,0
310,278,306,310,0
311,282,306,310,0
311,286,304,311,0
310,287,303,312,0
307,285,301,312,0
305,283,301,311,0
303,284,301,311,0
302,288,302,311,0
301,292,301,311,0
301,297,301,311,0
301,304,302,311,0
301,314,302,311,0
302,323,301,309,0
301,330,299,308,0
300,331,297,306,0
300,329,297,305,0
301,330,299,306,0
301,332,302,308,0
300,331,305,310,0
300,322,308,311,0
300,304,309,311,0
300,285,308,309,0
300,271,305,306,0
301,265,303,303,0
302,269,302,301,0
304,283,302,301,0
305,300,302,302,0
305,313,301,302,0
305,314,300,304,0
305,305,299,307,0
303,288,298,309,0
303,269,298,310,0
302,253,298,311,0
302,244,298,311,0
303,243,301,313,0
306,253,303,315,0
309,272,305,319,0
313,296,306,322,0
317,321,308,325,0
318,338,310,326,0
316,337,312,324,0
313,324,312,320,0
308,310,313,317,0
305,300,313,314,0
304,297,314,314,0
306,303,316,316,0
310,313,319,319,0
312,325,320,323,0
312,336,319,326,0
311,341,317,329,0
307,338,315,329,0
303,330,313,328,0
301,318,311,326,0
299,302,309,322,0
300,287,308,318,0
302,278,307,316,0
303,276,307,314,0
304,278,306,312,0
305,282,304,309,0
305,285,301,307,0
305,288,297,305,0
304,292,293,305,0
304,297,289,306,0
303,300,287,307,0
303,300,286,306,0
302,301,289,306,0
302,306,295,305,0
302,315,299,304,0
302,327,303,302,0
303,336,302,300,0
302,332,300,299,0
301,317,297,297,0
301,299,296,298,0
301,284,297,300,0
303,275,301,305,0
306,271,304,310,0
308,269,307,315,0
309,268,310,318,0
309,270,313,320,0
310,275,315,321,0
311,285,318,322,0
312,299,320,323,0
313,316,322,323,0
314,337,323,324,0
314,355,324,325,0
313,363,323,325,0
309,357,321,321,0
305,343,317,316,0
302,328,314,312,0
301,317,312,310,0
301,310,309,308,0
302,306,307,307,0
303,301,306,309,0
306,296,305,312,0
309,290,305,314,0
311,289,305,316,0
312,290,306,316,0
313,296,305,315,0
313,303,306,314,0
313,307,306,312,0
312,310,308,312,0
311,309,312,311,0
310,302,316,311,0
309,296,320,312,0
309,291,322,313,0
310,287,321,314,0
309,285,318,314,0
307,285,313,312,0
305,284,307,311,0
303,283,304,310,0
301,282,302,309,0
300,281,301,309,0
298,280,301,309,0
298,279,301,308,0
298,280,302,308,0
298,280,304,309,0
300,281,305,310,0
302,286,307,311,0
304,300,308,312,0
306,321,307,312,0
307,345,306,312,0
309,368,305,312,0
311,381,304,313,0
311,378,303,313,0
310,361,302,313,0
309,341,304,313,0
310,327,306,314,0
310,316,309,315,0
311,308,311,317,0
311,299,311,318,0
310,290,309,317,0
309,281,306,317,0
309,276,305,317,0
308,275,306,316,0
308,280,309,316,0
307,286,312,317,0
307,289,314,316,0
305,292,316,315,0
305,298,316,314,0
305,308,316,314,0
306,320,314,314,0
306,332,313,315,0
308,341,312,317,0
311,343,312,318,0
313,339,311,319,0
316,334,311,319,0
318,333,311,318,0
318,334,310,317,0
316,329,308,313,0
311,317,306,308,0
308,301,304,304,0
306,285,304,302,0
305,273,305,302,0
304,268,307,303,0
303,268,308,304,0
302,272,307,305,0
301,276,305,306,0
301,279,304,307,0
301,282,304,308,0
303,289,306,310,0
305,302,309,314,0
308,318,312,318,0
309,336,312,320,0
309,353,310,320,0
308,368,309,319,0
305,377,308,319,0
303,373,308,317,0
300,354,307,316,0
299,333,307,315,0
299,319,308,315,0
300,317,308,315,0
303,327,310,317,0
306,344,310,319,0
310,356,310,320,0
313,357,309,319,0
314,350,306,317,0
314,338,304,316,0
314,322,301,314,0
314,306,300,313,0
314,293,300,314,0
314,283,299,314,0
314,277,300,314,0
312,277,303,313,0
309,280,307,311,0
306,281,309,309,0
302,282,310,308,0
300,285,309,308,0
299,289,308,307,0
298,296,308,307,0
298,305,309,307,0
299,313,310,307,0
301,320,311,308,0
303,320,312,308,0
305,318,311,306,0
305,315,309,305,0
304,315,308,305,0
303,318,308,306,0
303,323,308,308,0
303,328,309,311,0
303,332,310,313,0
305,337,309,313,0
308,347,307,313,0
311,357,305,314,0
313,362,303,314,0
312,359,301,312,0
310,348,297,308,0
307,331,294,303,0
305,310,292,300,0
303,291,292,298,0
302,276,295,298,0
302,264,301,299,0
303,255,308,300,0
305,248,312,300,0
308,247,314,300,0
310,252,312,300,0
311,257,309,300,0
312,262,305,301,0
313,268,304,304,0
313,278,304,307,0
310,284,305,309,0
306,288,306,309,0
301,292,307,309,0
298,296,309,308,0
298,299,311,308,0
299,304,313,309,0
302,316,314,309,0
306,332,315,309,0
309,348,316,309,0
313,356,316,310,0
314,347,315,309,0
315,326,314,309,0
314,303,312,308,0
313,284,309,308,0
311,270,306,307,0
309,260,306,306,0
308,257,307,305,0
308,265,309,306,0
307,283,311,308,0
306,307,314,311,0
304,327,316,312,0
304,341,317,313,0
304,346,316,313,0
306,349,315,313,0
308,352,313,313,0
310,357,313,314,0
311,362,313,313,0
311,362,313,312,0
310,358,313,311,0
310,356,314,311,0
309,351,313,310,0
306,339,311,307,0
303,321,307,305,0
301,305,303,303,0
299,289,299,301,0
299,274,296,298,0
299,265,292,296,0
299,263,288,294,0
299,266,287,294,0
300,272,288,296,0
301,279,291,297,0
304,284,295,299,0
307,289,299,301,0
310,296,304,302,0
313,309,309,304,0
315,325,313,306,0
315,335,315,308,0
313,339,315,309,0
311,338,314,309,0
309,335,312,308,0
308,328,309,308,0
308,320,306,308,0
307,311,305,308,0
306,303,306,307,0
305,298,309,307,0
304,294,311,307,0
304,295,312,307,0
304,303,311,306,0
305,319,309,305,0
306,344,309,305,0
308,371,309,306,0
309,389,309,306,0
308,392,309,307,0
306,381,309,306,0
302,357,307,305,0
297,329,306,303,0
294,306,305,301,0
294,289,304,301,0
296,276,304,301,0
298,265,305,303,0
301,254,305,305,0
303,247,305,306,0
305,247,306,308,0
308,253,308,308,0
309,266,308,309,0
310,279,308,309,0
310,286,308,309,0
310,287,307,308,0
309,283,306,307,0
308,278,305,306,0
307,275,305,306,0
306,277,306,306,0
305,283,308,305,0
305,293,310,305,0
305,303,310,305,0
305,309,310,305,0
305,308,309,305,0
305,304,308,305,0
305,301,307,306,0
305,301,306,307,0
306,302,306,307,0
308,304,307,307,0
308,305,309,306,0
308,304,309,305,0
307,304,307,305,0
306,304,305,305,0
305,308,303,303,0
305,317,299,300,0
303,327,295,296,0
302,332,293,292,0
302,327,292,290,0
303,313,292,292,0
305,297,296,295,0
306,288,300,298,0
308,292,307,302,0
311,313,313,307,0
315,341,317,310,0
317,358,318,312,0
316,363,317,312,0
313,359,314,311,0
309,351,310,310,0
303,339,307,307,0
298,319,305,304,0
296,296,303,300,0
295,277,302,297,0
296,265,303,295,0
298,261,304,294,0
302,261,307,295,0
306,264,310,298,0
311,269,311,301,0
314,277,312,303,0
316,288,311,305,0
317,299,310,307,0
315,306,308,307,0
311,308,306,306,0
307,310,305,304,0
303,315,306,303,0
301,321,309,302,0
300,322,311,302,0
300,316,312,301,0
301,308,311,301,0
302,303,309,300,0
302,299,307,299,0
301,295,304,298,0
300,291,304,298,0
301,289,305,298,0
303,287,307,301,0
306,289,309,303,0
308,294,310,306,0
310,296,310,309,0
313,296,311,311,0
316,295,312,314,0
319,295,313,315,0
319,291,313,315,0
317,282,311,312,0
314,269,309,309,0
310,261,308,306,0
307,259,309,305,0
304,266,313,305,0
304,284,317,307,0
304,304,320,309,0
303,320,321,309,0
304,329,320,309,0
305,332,318,308,0
306,331,315,307,0
306,327,312,306,0
306,328,309,305,0
305,334,307,305,0
304,340,307,303,0
304,341,306,301,0
304,338,306,297,0
304,330,304,292,0
303,319,302,288,0
301,312,299,284,0
299,311,298,282,0
298,313,301,283,0
299,318,307,288,0
301,322,312,296,0
303,324,317,304,0
306,322,320,311,0
309,319,321,315,0
310,314,320,317,0
311,310,318,317,0
312,304,316,316,0
313,300,315,314,0
312,294,315,312,0
310,286,315,309,0
308,279,314,306,0
307,276,313,304,0
306,276,311,302,0
305,279,307,301,0
304,284,304,299,0
304,289,300,298,0
304,293,298,297,0
304,298,298,297,0
303,304,300,298,0
303,312,303,299,0
301,319,305,301,0
300,327,307,305,0
300,338,309,309,0
301,346,310,311,0
301,345,309,311,0
302,337,307,310,0
303,324,306,307,0
304,307,304,304,0
305,293,301,301,0
306,283,300,301,0
307,279,302,302,0
306,278,305,303,0
306,281,307,305,0
306,288,308,308,0
306,294,308,312,0
306,296,309,314,0
306,293,310,316,0
306,288,310,316,0
306,285,310,316,0
307,282,310,316,0
309,285,310,316,0
311,295,310,315,0
314,314,310,315,0
317,334,311,316,0
321,349,312,316,0
323,353,313,317,0
323,346,314,317,0
322,335,314,318,0
319,323,312,319,0
316,311,311,319,0
312,297,310,318,0
310,282,310,317,0
308,272,309,316,0
307,270,307,315,0
305,278,304,314,0
302,291,302,312,0
298,303,299,309,0
296,315,299,306,0
296,324,301,304,0
296,325,304,303,0
296,314,306,301,0
295,295,309,299,0
293,280,311,299,0
292,275,312,299,0
292,278,313,300,0
292,285,313,301,0
293,292,313,301,0
293,298,313,304,0
294,304,313,306,0
297,313,313,310,0
302,322,314,314,0
308,335,316,317,0
314,349,317,319,0
318,359,317,320,0
320,361,316,321,0
320,356,315,321,0
318,347,312,319,0
313,333,307,317,0
308,320,304,315,0
304,309,302,314,0
302,299,302,313,0
299,290,306,313,0
297,284,309,312,0
295,284,311,312,0
294,289,312,312,0
296,302,313,313,0
298,324,314,314,0
301,349,315,315,0
305,369,314,316,0
308,375,312,316,0
307,355,310,315,0
304,319,308,312,0
301,284,306,311,0
299,260,306,310,0
298,245,305,310,0
298,237,304,308,0
298,233,302,305,0
298,235,300,303,0
298,244,299,302,0
300,258,301,304,0
304,274,305,306,0
309,288,308,308,0
312,298,310,310,0
313,302,310,309,0
313,300,308,309,0
313,297,306,309,0
313,295,304,310,0
312,297,302,311,0
311,304,298,311,0
308,313,295,311,0
305,323,293,310,0
303,330,294,311,0
302,336,299,311,0
302,339,303,312,0
302,339,306,313,0
302,333,308,312,0
302,320,309,311,0
302,309,310,308,0
301,303,308,306,0
299,303,305,303,0
297,305,302,302,0
295,307,301,301,0
295,307,301,301,0
297,309,304,304,0
299,313,308,307,0
302,319,312,312,0
304,328,316,315,0
307,333,318,317,0
309,333,318,318,0
310,330,317,318,0
310,327,316,319,0
310,320,315,320,0
309,308,314,319,0
308,295,313,317,0
307,283,311,314,0
307,273,309,312,0
307,269,306,309,0
307,274,303,307,0
308,288,301,305,0
308,307,301,305,0
308,324,303,306,0
308,333,305,309,0
307,333,305,311,0
307,328,304,312,0
306,321,303,313,0
306,313,304,311,0
306,307,305,309,0
308,304,306,307,0
311,307,307,305,0
315,315,308,304,0
317,324,308,304,0
318,325,309,304,0
316,321,309,304,0
313,321,310,305,0
310,330,312,308,0
308,341,314,311,0
306,342,316,312,0
305,328,316,312,0
306,305,315,313,0
309,287,314,314,0
312,276,313,316,0
313,272,311,317,0
313,273,311,317,0
313,280,310,317,0
312,292,311,318,0
311,306,310,317,0
308,315,310,315,0
304,316,309,312,0
300,311,310,310,0
297,305,310,308,0
296,305,311,307,0
297,313,312,306,0
299,324,313,306,0
301,336,312,306,0
303,346,309,306,0
304,347,307,307,0
304,343,306,306,0
304,334,305,306,0
304,321,304,305,0
303,302,303,303,0
303,283,301,303,0
305,270,300,302,0
307,264,300,301,0
308,262,300,301,0
308,270,300,301,0
308,283,299,300,0
307,298,297,299,0
306,308,296,299,0
306,310,295,299,0
307,301,296,299,0
309,289,299,300,0
311,280,301,302,0
313,280,303,304,0
314,288,305,306,0
314,302,307,308,0
314,317,309,310,0
314,328,312,311,0
315,331,314,311,0
316,333,316,312,0
317,335,317,313,0
318,332,316,314,0
317,324,315,314,0
318,318,313,314,0
317,317,311,314,0
315,316,309,313,0
310,313,306,311,0
305,308,303,308,0
300,302,303,306,0
297,299,303,304,0
295,300,304,304,0
295,303,305,303,0
296,308,305,303,0
297,313,305,303,0
300,316,305,303,0
302,316,305,305,0
305,312,306,307,0
308,304,309,309,0
309,297,310,310,0
310,291,310,310,0
311,288,310,309,0
310,287,309,308,0
310,286,307,304,0
309,286,306,302,0
308,287,304,302,0
308,290,303,305,0
307,292,303,309,0
307,296,303,312,0
306,299,302,313,0
305,300,302,313,0
302,298,302,311,0
300,297,302,309,0
300,296,303,308,0
302,298,303,307,0
306,303,304,307,0
309,308,305,308,0
311,312,307,309,0
312,315,310,310,0
312,319,310,312,0
312,327,311,312,0
311,336,311,312,0
309,341,311,312,0
306,341,310,311,0
303,341,309,311,0
300,345,308,312,0
303,354,308,313,0
309,363,308,313,0
316,367,307,313,0
320,358,306,312,0
320,337,307,310,0
316,309,307,307,0
311,282,308,304,0
307,264,307,303,0
304,256,306,302,0
302,253,305,302,0
301,251,304,303,0
299,251,302,302,0
297,255,299,302,0
296,265,296,302,0
295,276,293,303,0
295,287,293,306,0
296,296,296,308,0
297,305,298,310,0
300,313,300,310,0
301,319,300,310,0
303,322,300,308,0
303,322,300,307,0
304,323,301,306,0
305,324,304,306,0
307,324,308,309,0
309,316,310,311,0
311,301,311,312,0
313,285,311,313,0
315,276,312,315,0
319,274,312,316,0
322,278,311,317,0
323,282,307,317,0
321,284,303,315,0
315,282,298,313,0
307,282,294,311,0
301,283,293,310,0
297,284,295,310,0
295,286,298,309,0
295,291,301,309,0
296,299,302,310,0
298,311,303,310,0
302,326,302,310,0
305,342,301,310,0
307,350,300,308,0
309,348,302,307,0
310,339,303,306,0
310,329,304,305,0
308,321,305,304,0
307,320,306,305,0
306,322,308,306,0
305,323,310,308,0
305,321,311,310,0
303,317,312,311,0
302,312,310,311,0
301,305,309,311,0
301,300,307,311,0
300,294,305,310,0
299,288,302,310,0
298,284,301,310,0
299,283,300,309,0
299,288,299,308,0
302,301,299,307,0
303,316,299,307,0
304,330,299,306,0
306,337,298,305,0
306,330,297,304,0
305,312,295,303,0
304,293,294,302,0
303,279,294,303,0
303,272,296,304,0
302,270,298,305,0
301,267,299,304,0
301,263,301,304,0
301,260,304,306,0
301,262,307,310,0
301,268,311,315,0
301,277,314,319,0
303,288,316,320,0
304,300,316,320,0
303,310,313,317,0
302,317,309,315,0
301,324,305,313,0
301,333,304,311,0
303,342,304,310,0
307,349,307,311,0
310,352,309,312,0
312,347,313,313,0
313,335,316,312,0
311,317,317,310,0
306,298,317,308,0
303,285,316,306,0
302,281,314,306,0
302,286,313,307,0
304,299,311,308,0
305,315,310,310,0
305,328,309,311,0
303,339,307,312,0
301,342,306,311,0
299,335,304,310,0
298,324,302,310,0
298,315,299,310,0
298,310,297,310,0
298,305,295,308,0
298,300,295,306,0
297,294,297,304,0
297,289,300,302,0
297,290,303,302,0
298,297,305,303,0
299,306,306,303,0
300,314,305,303,0
301,315,305,303,0
302,309,305,303,0
304,300,306,304,0
307,292,307,304,0
309,288,307,305,0
311,286,307,306,0
313,286,307,305,0
313,288,307,305,0
311,292,307,304,0
310,301,307,304,0
308,314,308,305,0
307,326,309,305,0
305,334,309,304,0
302,338,307,303,0
301,336,305,302,0
299,332,302,301,0
298,326,300,301,0
298,317,299,301,0
297,305,299,301,0
297,295,301,302,0
298,291,304,304,0
300,292,307,308,0
302,294,308,311,0
303,290,308,313,0
304,283,307,314,0
305,275,305,314,0
305,270,303,312,0
305,271,302,310,0
304,276,302,308,0
303,282,305,306,0
301,288,308,304,0
300,292,310,303,0
300,296,311,301,0
300,299,311,300,0
300,306,310,299,0
301,317,310,299,0
302,329,310,300,0
303,340,310,299,0
304,344,309,299,0
304,337,308,299,0
303,323,306,298,0
302,310,304,298,0
302,302,302,299,0
302,300,300,300,0
302,301,300,301,0
303,305,301,303,0
304,310,302,305,0
306,317,304,308,0
309,325,306,310,0
311,333,307,313,0
310,338,305,314,0
308,337,302,313,0
305,331,300,312,0
303,321,299,310,0
303,312,299,309,0
303,306,299,306,0
302,301,301,304,0
299,297,303,303,0
296,292,305,302,0
293,289,307,302,0
291,286,308,301,0
291,285,308,301,0
292,283,307,301,0
294,283,306,301,0
297,284,306,302,0
301,285,307,303,0
303,286,307,303,0
305,287,305,303,0
307,288,303,303,0
309,291,302,303,0
310,293,303,302,0
309,297,303,300,0
307,307,306,300,0
306,323,309,300,0
305,340,312,301,0
306,354,313,302,0
305,356,312,302,0
304,343,309,301,0
303,323,306,301,0
302,304,304,301,0
303,292,303,301,0
304,288,303,302,0
306,290,303,303,0
307,293,303,304,0
307,296,304,304,0
308,300,304,304,0
309,303,304,304,0
311,304,303,304,0
312,303,304,304,0
313,303,306,303,0
312,301,308,301,0
310,294,308,299,0
307,289,309,298,0
305,288,308,297,0
304,294,306,296,0
304,306,304,295,0
303,325,302,294,0
301,346,300,294,0
300,362,299,295,0
300,371,301,298,0
301,373,304,303,0
301,363,305,308,0
301,344,307,311,0
300,321,308,312,0
299,301,309,313,0
298,289,310,314,0
297,285,310,313,0
296,284,310,313,0
296,283,310,313,0
297,278,310,313,0
297,271,309,312,0
297,266,308,311,0
299,265,307,311,0
301,265,307,310,0
303,267,306,309,0
305,270,306,308,0
306,274,305,306,0
306,280,305,306,0
307,286,303,306,0
307,291,302,307,0
307,297,303,306,0
307,303,305,307,0
308,305,307,308,0
307,296,307,308,0
305,282,306,307,0
303,268,304,305,0
302,258,302,302,0
302,257,299,300,0
303,266,297,299,0
304,283,297,298,0
305,306,298,300,0
307,333,299,301,0
308,353,301,304,0
310,360,303,307,0
311,357,307,310,0
310,343,310,312,0
307,325,312,312,0
303,308,314,312,0
300,297,314,312,0
299,294,314,311,0
299,296,312,309,0
300,300,308,308,0
300,305,303,307,0
300,309,299,307,0
301,310,296,306,0
302,313,296,306,0
303,319,296,305,0
305,331,296,304,0
305,341,296,303,0
305,345,296,303,0
306,344,297,304,0
308,340,299,306,0
310,338,302,308,0
311,340,306,311,0
311,345,309,312,0
310,343,312,313,0
310,329,312,312,0
309,313,311,311,0
307,303,308,310,0
305,297,305,309,0
304,292,303,308,0
304,286,301,307,0
303,283,300,307,0
304,282,299,308,0
305,281,299,309,0
307,280,300,310,0
309,284,301,311,0
312,292,302,312,0
312,303,302,311,0
311,310,302,310,0
309,314,303,307,0
306,318,302,305,0
304,322,301,305,0
301,324,300,305,0
299,322,300,305,0
297,318,300,306,0
298,314,301,307,0
299,311,303,307,0
301,306,304,307,0
303,302,304,305,0
304,303,305,304,0
305,313,306,302,0
306,330,308,303,0
306,345,311,304,0
305,353,312,305,0
303,346,312,305,0
301,325,312,304,0
300,300,311,304,0
301,283,310,304,0
304,274,309,306,0
307,275,308,308,0
309,280,306,310,0
309,288,303,312,0
307,297,299,313,0
305,304,295,313,0
303,311,291,311,0
302,318,286,309,0
301,323,285,305,0
300,322,287,302,0
299,315,292,299,0
299,310,300,297,0
298,312,307,297,0
299,320,312,298,0
299,328,316,299,0
301,333,318,302,0
303,335,319,305,0
306,337,319,308,0
309,346,319,310,0
312,360,320,312,0
315,370,321,314,0
314,366,320,316,0
313,347,319,317,0
313,323,318,318,0
313,304,317,320,0
314,289,315,321,0
312,276,310,319,0
309,266,305,316,0
306,263,302,312,0
304,263,299,309,0
303,266,297,307,0
302,270,296,306,0
303,273,297,306,0
304,274,298,305,0
305,274,301,304,0
306,275,305,304,0
308,279,310,304,0
310,288,313,306,0
312,301,315,309,0
313,315,315,311,0
313,324,313,312,0
313,328,312,310,0
313,331,309,309,0
311,338,308,308,0
311,345,306,308,0
310,347,305,309,0
309,341,305,310,0
308,328,305,311,0
308,314,305,312,0
309,302,305,312,0
310,295,306,311,0
313,291,307,310,0
315,296,309,310,0
318,310,310,311,0
318,327,311,310,0
317,338,308,309,0
315,334,305,307,0
312,316,303,303,0
310,291,302,301,0
307,272,302,300,0
305,264,304,300,0
304,266,307,301,0
304,271,310,304,0
304,271,312,305,0
304,264,313,306,0
304,257,313,306,0
304,255,312,306,0
304,256,311,306,0
306,263,310,307,0
307,275,310,309,0
309,291,310,310,0
309,310,309,311,0
310,326,308,311,0
312,334,307,312,0
314,340,307,314,0
316,346,307,315,0
317,350,306,316,0
315,350,304,316,0
311,343,303,314,0
307,332,305,312,0
304,322,307,310,0
303,315,309,308,0
302,309,309,307,0
302,302,308,306,0
302,297,306,303,0
301,292,302,300,0
300,289,299,297,0
299,289,296,296,0
298,289,296,296,0
299,288,298,298,0
300,287,301,300,0
302,287,304,304,0
305,289,307,306,0
308,293,310,308,0
312,297,313,309,0
315,302,313,310,0
317,309,313,311,0
319,316,312,312,0
320,326,309,311,0
321,334,306,310,0
321,338,303,308,0
319,342,301,306,0
317,346,302,305,0
316,349,305,303,0
314,354,307,302,0
312,354,307,301,0
308,339,306,301,0
305,314,305,301,0
302,292,305,302,0
301,278,305,302,0
301,271,303,302,0
300,270,301,301,0
300,273,299,300,0
300,278,299,299,0
301,282,300,300,0
301,285,302,303,0
303,288,305,305,0
304,290,308,309,0
306,292,311,312,0
307,295,312,315,0
308,299,313,316,0
309,302,312,316,0
309,306,309,315,0
308,308,306,314,0
307,311,302,313,0
306,314,300,312,0
305,318,298,311,0
305,320,298,310,0
305,323,299,309,0
305,328,299,309,0
306,332,300,309,0
307,329,300,308,0
306,322,300,307,0
305,314,301,305,0
304,309,303,303,0
304,310,305,302,0
304,314,306,301,0
305,319,307,300,0
305,322,306,299,0
305,321,304,300,0
306,317,303,302,0
307,313,302,304,0
307,304,302,306,0
308,291,304,308,0
307,278,305,309,0
306,271,305,309,0
305,267,303,308,0
303,266,301,306,0
302,267,299,305,0
302,269,297,304,0
303,272,297,303,0
304,275,299,303,0
306,279,301,306,0
309,284,304,309,0
311,290,308,312,0
313,295,312,314,0
313,297,317,316,0
314,299,321,317,0
315,301,323,317,0
316,305,323,317,0
315,308,322,316,0
313,309,321,313,0
310,309,319,311,0
