293,281,299,294,1
291,281,296,292,1
291,282,293,288,1
291,287,292,286,1
293,292,293,283,1
295,298,296,284,1
297,304,299,286,1
299,307,303,289,1
300,306,305,292,1
301,303,306,298,1
303,299,308,304,1
304,297,311,310,1
304,297,313,314,1
303,299,313,318,1
301,302,312,320,1
300,305,311,321,1
300,307,311,320,1
301,307,312,318,1
302,307,313,314,1
304,305,312,310,1
305,304,312,306,1
305,303,311,303,1
304,303,311,300,1
303,303,310,300,1
302,304,310,302,1
302,306,311,305,1
303,309,312,308,1
305,313,314,312,1
308,317,317,314,1
310,320,319,315,1
310,322,319,315,1
309,324,318,315,1
309,326,316,314,1
308,327,314,313,1
307,326,312,312,1
308,322,311,311,1
308,317,310,310,1
307,310,310,310,1
306,304,310,309,1
305,298,310,308,1
304,294,310,305,1
303,292,309,302,1
302,290,308,300,1
302,291,310,298,1
303,293,311,298,1
305,296,311,296,1
306,299,309,295,1
306,301,306,295,1
306,302,303,297,1
306,304,302,300,1
305,306,303,304,1
306,307,304,307,1
305,309,305,309,1
306,312,306,310,1
306,315,308,308,1
306,319,309,306,1
308,323,311,304,1
309,325,311,302,1
310,325,311,302,1
310,324,311,302,1
311,322,312,302,1
311,316,312,300,1
312,311,312,298,1
313,305,311,294,1
312,301,310,291,1
311,297,308,289,1
310,296,307,289,1
309,294,305,290,1
307,293,305,293,1
306,295,307,296,1
305,298,310,299,1
307,303,313,303,1
308,307,314,306,1
311,310,314,307,1
312,310,312,307,1
312,309,310,305,1
312,309,309,303,1
311,308,308,302,1
310,307,306,303,1
309,306,307,305,1
309,306,308,308,1
311,307,309,311,1
314,309,310,313,1
318,310,310,312,1
320,310,311,310,1
322,310,310,308,1
322,307,309,307,1
320,304,307,307,1
318,301,306,308,1
316,300,306,309,1
313,301,308,310,1
311,304,309,309,1
308,310,308,309,1
307,317,308,309,1
308,324,307,310,1
310,327,307,311,1
311,327,307,312,1
311,325,308,314,1
311,321,310,315,1
310,313,311,316,1
309,304,311,315,1
308,297,311,313,1
308,292,310,310,1
307,291,308,307,1
307,291,306,306,1
307,292,304,304,1
306,293,304,304,1
306,296,304,305,1
307,300,304,309,1
308,303,304,313,1
310,305,305,316,1
311,306,306,319,1
311,305,307,321,1
311,304,308,321,1
310,305,308,321,1
309,308,309,318,1
308,314,310,315,1
308,320,310,313,1
309,324,311,312,1
310,327,310,311,1
309,325,309,310,1
308,321,306,309,1
307,314,302,309,1
306,305,299,310,1
305,298,296,310,1
305,294,295,310,1
304,293,294,308,1
304,294,295,307,1
305,297,297,306,1
306,300,300,305,1
308,304,305,305,1
309,308,309,303,1
310,309,311,301,1
310,306,312,299,1
310,302,311,298,1
311,298,309,298,1
311,295,306,297,1
310,292,303,296,1
309,292,301,295,1
307,294,301,294,1
306,298,303,296,1
306,301,306,299,1
306,304,309,302,1
307,304,311,306,1
307,301,313,310,1
308,299,313,313,1
309,297,312,316,1
310,295,311,316,1
310,292,310,315,1
310,290,309,313,1
309,289,308,311,1
308,290,306,309,1
306,291,303,305,1
304,291,301,302,1
304,291,300,300,1
305,292,300,302,1
309,294,301,305,1
313,296,304,309,1
317,297,306,313,1
319,299,307,315,1
320,300,307,315,1
318,301,307,314,1
315,304,307,313,1
313,308,307,313,1
311,312,308,312,1
310,315,308,311,1
310,317,309,310,1
312,319,310,310,1
314,319,310,311,1
315,317,310,311,1
316,311,310,310,1
314,304,310,309,1
311,297,309,307,1
309,290,307,304,1
305,286,304,300,1
302,283,300,298,1
299,283,298,299,1
298,286,297,302,1
298,290,298,305,1
298,293,301,306,1
298,295,304,306,1
299,296,306,308,1
299,296,308,309,1
299,296,308,310,1
299,297,307,311,1
300,298,306,311,1
301,302,306,312,1
304,305,307,313,1
307,308,308,314,1
310,310,310,315,1
312,312,310,316,1
314,313,309,315,1
314,314,306,314,1
313,316,304,314,1
313,318,302,314,1
313,319,302,314,1
312,319,304,315,1
313,319,307,317,1
313,319,309,318,1
314,318,311,318,1
314,316,311,318,1
314,313,311,317,1
315,308,311,318,1
315,302,311,318,1
315,296,312,318,1
314,290,313,315,1
312,288,311,312,1
310,287,309,307,1
309,287,306,303,1
308,289,304,301,1
308,291,304,300,1
308,295,305,301,1
308,300,306,302,1
308,302,307,304,1
307,302,306,304,1
306,301,304,303,1
305,302,301,302,1
304,305,299,301,1
304,310,298,300,1
305,317,298,299,1
306,322,300,299,1
308,326,303,301,1
310,327,307,303,1
312,325,310,306,1
314,319,313,307,1
314,311,313,307,1
312,305,312,307,1
310,301,310,306,1
308,299,309,305,1
308,300,307,304,1
309,302,305,303,1
309,304,304,302,1
310,306,303,300,1
311,308,304,300,1
313,311,305,302,1
313,313,306,303,1
312,312,306,305,1
311,308,306,305,1
311,303,303,304,1
310,299,300,304,1
311,297,297,306,1
311,298,295,310,1
311,300,293,314,1
309,300,291,315,1
306,300,292,315,1
304,301,296,313,1
303,301,302,310,1
303,303,306,307,1
303,305,309,305,1
302,309,312,305,1
302,314,314,308,1
303,318,317,311,1
305,319,320,315,1
305,317,320,318,1
305,311,318,318,1
304,304,315,316,1
303,299,311,313,1
302,296,306,311,1
301,295,302,309,1
301,294,299,308,1
302,295,299,307,1
304,297,299,307,1
306,299,301,307,1
308,302,304,309,1
310,308,308,312,1
311,315,310,315,1
310,321,311,318,1
310,327,311,320,1
310,331,311,322,1
311,332,311,324,1
311,331,310,323,1
311,328,308,320,1
309,324,305,316,1
307,319,302,311,1
303,315,299,307,1
300,315,298,304,1
298,315,297,302,1
298,314,298,299,1
298,308,299,298,1
297,301,300,298,1
297,294,300,299,1
298,290,301,301,1
299,289,302,301,1
300,289,304,301,1
302,291,306,300,1
304,295,308,301,1
305,299,308,303,1
305,302,308,304,1
305,304,306,305,1
305,305,305,305,1
305,308,304,307,1
305,311,304,311,1
305,314,306,314,1
307,317,309,318,1
308,320,312,321,1
310,321,314,323,1
310,319,316,324,1
310,316,316,323,1
308,311,314,321,1
306,306,312,318,1
305,303,310,315,1
304,300,309,312,1
304,299,308,309,1
305,299,306,307,1
306,299,304,305,1
305,299,302,302,1
305,300,300,300,1
305,301,299,299,1
304,302,297,298,1
304,306,297,298,1
304,311,297,298,1
304,315,298,300,1
305,320,300,303,1
307,323,302,304,1
308,324,304,306,1
309,323,305,305,1
309,316,305,303,1
307,307,305,301,1
305,300,305,302,1
304,297,305,304,1
306,297,306,306,1
309,299,305,308,1
312,303,303,309,1
316,308,301,311,1
319,312,299,312,1
319,314,297,310,1
316,313,297,309,1
313,310,302,310,1
310,306,306,310,1
307,303,310,308,1
306,300,311,306,1
305,298,310,304,1
305,297,308,303,1
305,297,305,301,1
306,297,303,301,1
307,299,301,301,1
307,301,300,303,1
308,303,300,305,1
310,305,301,305,1
311,305,302,304,1
310,305,304,303,1
311,304,305,301,1
311,303,306,301,1
310,303,306,302,1
309,304,306,302,1
308,303,305,302,1
308,303,304,302,1
308,303,304,302,1
308,304,304,301,1
308,306,305,301,1
309,308,306,301,1
311,311,307,301,1
312,314,307,301,1
313,317,307,301,1
313,317,306,301,1
312,317,305,301,1
311,316,305,303,1
310,314,305,305,1
310,312,305,307,1
309,311,305,309,1
308,308,305,310,1
307,305,305,309,1
307,304,304,309,1
307,305,304,309,1
307,307,304,307,1
305,310,302,304,1
303,312,301,301,1
303,313,301,299,1
303,315,301,298,1
305,318,302,298,1
307,321,303,298,1
308,321,304,300,1
308,319,304,301,1
308,313,305,301,1
307,307,304,300,1
306,303,304,302,1
306,303,304,304,1
305,305,304,306,1
305,307,302,305,1
304,307,302,303,1
304,308,302,302,1
305,310,303,302,1
305,312,303,302,1
307,313,303,302,1
309,313,302,302,1
311,312,301,302,1
313,311,300,302,1
314,309,301,302,1
315,308,302,302,1
314,310,303,301,1
311,315,303,300,1
307,323,303,302,1
304,333,304,306,1
303,342,305,310,1
301,347,305,312,1
299,345,303,313,1
296,334,300,311,1
293,320,297,309,1
291,306,295,306,1
290,296,295,304,1
292,290,295,303,1
294,287,296,304,1
297,285,299,307,1
300,284,302,310,1
302,283,305,310,1
302,283,307,308,1
301,283,307,304,1
299,283,307,301,1
297,283,305,296,1
296,285,305,293,1
296,290,305,291,1
297,297,306,291,1
299,307,309,294,1
302,317,313,300,1
307,326,317,306,1
309,330,318,310,1
309,329,316,311,1
307,322,313,310,1
303,314,309,309,1
302,306,306,308,1
301,300,305,309,1
301,297,304,309,1
301,294,305,308,1
300,292,305,305,1
299,290,304,302,1
299,290,304,299,1
299,290,304,297,1
298,290,304,297,1
299,293,304,299,1
302,297,305,305,1
305,300,306,309,1
307,303,307,312,1
310,305,308,312,1
312,305,309,312,1
312,306,310,311,1
313,306,310,310,1
312,306,311,309,1
310,305,312,308,1
308,304,312,307,1
306,304,311,305,1
305,303,311,304,1
305,303,310,304,1
306,303,311,305,1
307,305,312,307,1
308,307,313,310,1
309,307,313,312,1
310,308,313,313,1
311,308,314,313,1
312,308,314,311,1
313,307,313,308,1
313,307,312,306,1
313,307,312,304,1
313,308,313,303,1
313,309,312,303,1
311,310,311,303,1
309,309,310,304,1
308,310,311,305,1
308,311,311,306,1
308,312,311,306,1
307,313,310,305,1
305,315,308,302,1
305,318,305,300,1
305,320,303,298,1
306,320,299,297,1
307,318,297,297,1
308,313,295,298,1
309,308,295,300,1
310,303,296,304,1
311,299,299,307,1
310,295,301,307,1
307,293,303,307,1
304,291,304,305,1
302,292,305,303,1
303,294,308,303,1
305,299,309,306,1
309,303,310,308,1
312,306,311,311,1
315,309,311,313,1
318,310,310,314,1
319,310,311,314,1
318,310,313,315,1
315,309,315,315,1
312,310,316,315,1
310,311,315,313,1
306,313,313,311,1
303,316,310,307,1
300,318,308,302,1
298,322,306,299,1
298,325,305,298,1
299,327,307,298,1
302,328,308,299,1
306,326,311,301,1
310,324,312,305,1
313,320,314,309,1
314,317,313,312,1
314,315,312,314,1
313,314,310,314,1
312,316,309,314,1
311,320,308,313,1
308,322,308,311,1
306,320,307,309,1
303,316,307,308,1
300,311,305,308,1
298,305,303,309,1
296,297,301,310,1
295,290,299,310,1
295,285,297,309,1
296,283,295,307,1
297,285,295,306,1
298,291,296,306,1
299,300,298,307,1
300,309,300,307,1
300,317,302,306,1
301,322,303,305,1
302,324,302,305,1
302,321,301,304,1
302,313,300,303,1
302,303,300,302,1
302,295,301,300,1
304,289,302,298,1
306,286,303,299,1
307,286,305,300,1
309,289,307,303,1
310,291,309,305,1
309,294,311,307,1
307,296,312,310,1
305,299,311,312,1
303,301,311,315,1
302,302,311,317,1
302,301,312,318,1
302,299,313,318,1
302,296,312,317,1
302,294,311,315,1
302,294,310,312,1
302,295,308,312,1
302,297,308,311,1
302,298,308,310,1
301,298,307,309,1
300,299,305,309,1
299,300,303,310,1
299,303,300,310,1
299,305,298,311,1
300,307,298,311,1
301,308,300,311,1
303,308,302,311,1
305,310,304,311,1
307,311,305,310,1
308,311,307,310,1
309,312,307,311,1
310,312,306,310,1
311,313,304,309,1
311,313,299,306,1
309,313,294,304,1
307,311,289,303,1
305,308,287,303,1
302,305,286,304,1
300,303,287,304,1
297,303,290,305,1
297,304,296,305,1
298,306,301,307,1
299,309,306,308,1
299,310,310,311,1
300,311,313,313,1
300,309,315,313,1
300,306,315,313,1
301,301,313,313,1
303,297,311,313,1
304,295,309,312,1
305,294,309,311,1
307,295,309,311,1
308,297,310,311,1
308,301,312,310,1
309,303,312,310,1
310,305,313,309,1
310,307,313,309,1
311,308,313,309,1
312,308,313,310,1
312,308,312,311,1
312,306,312,310,1
312,304,311,310,1
311,303,310,308,1
309,302,308,308,1
308,301,307,307,1
307,302,306,306,1
307,304,305,306,1
306,307,304,306,1
305,310,304,307,1
304,313,304,307,1
303,314,303,307,1
303,316,301,305,1
303,318,299,302,1
303,318,296,298,1
303,316,294,293,1
302,312,292,288,1
301,307,292,284,1
301,304,293,284,1
301,305,295,287,1
302,308,296,294,1
303,312,297,302,1
304,315,299,311,1
306,318,301,319,1
308,318,304,325,1
310,316,307,329,1
310,313,308,332,1
311,310,309,334,1
311,308,309,333,1
311,306,310,332,1
311,306,311,330,1
310,307,312,329,1
309,308,312,327,1
307,309,311,324,1
307,310,310,322,1
308,309,309,320,1
310,305,309,318,1
310,299,309,316,1
311,294,308,314,1
311,290,307,313,1
310,287,306,311,1
308,286,304,309,1
306,287,304,308,1
305,290,304,307,1
306,293,304,305,1
307,297,304,305,1
309,301,303,304,1
311,304,302,304,1
311,304,301,304,1
309,303,300,304,1
307,301,299,304,1
305,299,300,306,1
306,298,303,309,1
309,296,307,312,1
313,295,309,314,1
318,295,310,316,1
321,296,309,317,1
323,297,309,316,1
323,298,309,314,1
320,298,309,314,1
314,298,309,314,1
308,299,309,314,1
303,302,307,315,1
300,304,304,315,1
298,305,299,314,1
295,304,294,312,1
294,303,290,310,1
293,301,289,309,1
294,297,289,308,1
295,294,291,307,1
295,292,294,306,1
296,292,299,305,1
297,292,304,305,1
298,294,308,306,1
299,294,311,305,1
298,293,312,304,1
298,293,312,302,1
298,294,312,302,1
298,296,311,303,1
300,299,309,303,1
301,302,307,302,1
303,306,306,301,1
305,309,306,300,1
305,313,306,300,1
305,315,307,302,1
305,313,309,304,1
305,310,309,307,1
303,307,309,309,1
302,305,308,311,1
301,303,307,312,1
300,302,306,313,1
300,301,305,315,1
301,299,304,317,1
302,298,303,316,1
301,299,302,316,1
299,301,300,316,1
298,304,300,317,1
298,308,300,319,1
299,313,301,321,1
300,319,303,324,1
301,325,305,325,1
303,330,306,326,1
305,333,306,325,1
305,334,306,322,1
305,334,305,319,1
304,331,304,316,1
302,329,305,315,1
301,329,306,317,1
301,328,307,319,1
301,323,308,321,1
302,316,308,322,1
305,308,310,323,1
308,301,311,321,1
308,295,311,318,1
306,289,309,313,1
303,283,307,308,1
300,279,305,304,1
299,276,304,302,1
299,276,305,299,1
299,276,305,297,1
300,279,304,295,1
300,282,303,292,1
301,286,302,289,1
300,289,302,288,1
299,293,303,289,1
298,295,305,292,1
298,296,307,296,1
299,298,308,301,1
302,300,308,306,1
306,306,309,311,1
310,314,310,316,1
312,324,312,320,1
313,333,313,322,1
312,337,313,323,1
308,337,312,322,1
304,333,310,321,1
300,325,308,322,1
298,315,307,322,1
296,304,306,322,1
295,293,305,320,1
295,287,303,318,1
296,284,302,315,1
298,283,302,313,1
300,283,302,309,1
301,284,302,307,1
302,287,300,304,1
302,288,299,303,1
301,291,298,302,1
300,294,296,303,1
299,298,295,303,1
299,301,294,304,1
298,304,294,303,1
298,308,297,303,1
300,314,301,305,1
301,322,304,308,1
302,326,305,309,1
302,326,305,310,1
301,325,303,309,1
300,325,302,308,1
300,324,301,306,1
300,324,299,304,1
300,323,298,302,1
300,321,298,302,1
302,317,300,303,1
304,311,302,307,1
307,304,306,311,1
309,299,309,314,1
310,295,312,315,1
309,293,312,315,1
308,290,311,314,1
306,288,309,313,1
303,286,306,312,1
299,285,302,311,1
297,285,299,310,1
297,287,298,309,1
296,288,298,305,1
296,289,299,302,1
296,289,302,297,1
294,287,304,291,1
293,286,305,286,1
293,287,306,284,1
295,288,308,284,1
299,291,309,287,1
303,295,310,292,1
306,300,311,298,1
307,305,312,303,1
308,309,312,305,1
307,311,312,306,1
306,311,311,306,1
305,311,311,306,1
305,311,311,306,1
305,313,311,306,1
306,316,311,306,1
306,317,310,306,1
307,318,310,306,1
307,317,309,306,1
307,315,308,305,1
306,314,306,304,1
306,313,305,303,1
306,313,304,302,1
306,314,304,302,1
306,315,303,301,1
306,315,301,301,1
306,314,300,300,1
307,311,299,300,1
307,310,300,301,1
308,308,301,303,1
310,306,303,305,1
312,304,305,306,1
313,301,306,307,1
312,300,307,308,1
309,301,306,308,1
305,304,305,306,1
303,307,304,303,1
302,311,305,301,1
302,315,306,300,1
303,320,306,301,1
304,323,307,302,1
305,325,306,304,1
305,324,306,307,1
305,321,305,309,1
306,318,306,312,1
308,317,308,315,1
311,317,308,318,1
313,318,309,318,1
315,318,308,319,1
315,318,307,318,1
313,315,305,315,1
309,310,304,311,1
305,303,303,307,1
300,296,302,302,1
297,293,301,298,1
296,292,302,297,1
296,294,305,297,1
297,297,309,299,1
299,300,312,303,1
300,302,313,307,1
300,303,314,311,1
300,304,315,313,1
300,302,314,315,1
302,299,312,315,1
302,297,310,313,1
304,297,308,310,1
305,298,307,309,1
306,300,308,309,1
306,302,309,310,1
306,306,310,312,1
306,309,310,313,1
305,311,307,315,1
303,311,304,315,1
301,309,302,314,1
301,306,301,312,1
301,303,300,309,1
302,301,301,307,1
303,300,300,304,1
303,299,300,303,1
303,299,301,304,1
304,301,304,306,1
303,303,305,309,1
302,305,306,311,1
301,308,308,313,1
302,310,308,315,1
303,311,309,315,1
304,310,307,316,1
304,310,305,315,1
304,310,303,314,1
305,311,302,312,1
306,313,302,310,1
307,315,303,308,1
308,317,303,308,1
308,318,305,309,1
308,317,306,311,1
307,315,307,313,1
306,312,308,314,1
305,308,308,313,1
304,305,307,311,1
304,304,307,310,1
305,304,307,310,1
306,306,307,311,1
307,307,308,311,1
305,307,306,311,1
304,306,305,311,1
302,307,304,310,1
301,309,302,309,1
301,312,301,307,1
302,316,299,305,1
303,321,297,303,1
304,325,296,300,1
304,326,296,299,1
303,324,296,299,1
303,319,296,301,1
303,315,298,303,1
305,311,301,306,1
309,307,304,307,1
314,305,306,307,1
317,302,308,305,1
319,299,308,303,1
319,296,307,299,1
317,294,306,295,1
314,292,304,290,1
309,292,303,287,1
304,294,303,287,1
300,297,302,289,1
298,300,303,293,1
298,302,304,298,1
299,303,305,305,1
300,305,306,311,1
302,309,307,316,1
304,316,308,320,1
305,324,309,322,1
306,329,310,323,1
306,331,311,321,1
306,331,310,319,1
305,326,308,316,1
304,317,306,313,1
303,310,306,312,1
305,305,306,313,1
307,304,305,314,1
308,303,307,313,1
311,304,310,312,1
313,305,313,311,1
314,306,314,307,1
313,305,313,304,1
311,304,310,300,1
310,302,307,299,1
308,304,306,300,1
306,307,305,303,1
305,310,306,305,1
306,311,307,307,1
308,311,307,308,1
309,310,306,309,1
310,309,304,311,1
310,307,301,311,1
310,305,298,311,1
310,307,296,311,1
310,312,295,310,1
311,318,295,311,1
313,326,298,311,1
315,330,302,311,1
316,332,306,311,1
317,330,308,311,1
316,325,309,310,1
314,317,309,307,1
312,308,309,305,1
311,303,309,304,1
311,298,309,303,1
311,295,307,301,1
311,293,305,300,1
311,292,305,299,1
311,292,305,300,1
311,294,305,299,1
309,296,304,296,1
307,296,303,292,1
305,297,303,290,1
305,298,303,291,1
307,301,304,295,1
309,304,306,299,1
311,307,307,303,1
313,308,308,306,1
313,308,308,307,1
314,310,308,308,1
315,314,308,309,1
316,319,309,311,1
318,326,309,313,1
318,332,309,315,1
315,335,308,316,1
311,331,305,315,1
305,324,302,312,1
302,315,300,308,1
300,306,298,304,1
300,298,298,302,1
301,292,299,300,1
303,287,299,298,1
304,283,301,296,1
305,282,304,296,1
305,283,305,299,1
308,286,306,302,1
310,288,306,305,1
313,290,306,307,1
314,292,305,308,1
314,296,305,309,1
315,299,304,309,1
313,300,304,307,1
310,300,304,306,1
306,299,305,305,1
303,300,306,306,1
301,300,307,307,1
300,300,307,309,1
300,302,305,312,1
301,305,304,314,1
303,310,303,315,1
305,316,303,315,1
307,322,304,315,1
309,324,305,313,1
311,325,308,312,1
313,324,311,311,1
314,320,313,310,1
314,315,314,309,1
314,310,315,309,1
313,306,314,308,1
310,304,312,307,1
308,304,310,305,1
306,304,308,303,1
305,305,306,300,1
304,306,304,298,1
304,305,303,298,1
304,305,303,300,1
306,305,305,302,1
307,305,307,304,1
308,305,308,306,1
309,306,310,307,1
310,306,311,310,1
309,305,311,311,1
307,304,310,311,1
305,303,309,310,1
304,303,308,307,1
303,305,308,305,1
303,308,307,301,1
304,311,306,298,1
305,314,307,298,1
307,318,310,300,1
309,320,313,304,1
311,322,316,307,1
312,323,318,310,1
312,324,319,312,1
311,325,318,313,1
310,325,317,313,1
309,323,316,311,1
307,318,315,309,1
305,312,315,307,1
304,305,315,308,1
303,300,315,309,1
303,297,314,311,1
304,295,312,311,1
304,294,308,311,1
305,294,305,311,1
307,295,303,311,1
308,297,303,309,1
309,298,303,307,1
308,299,303,306,1
307,300,303,305,1
305,300,303,304,1
302,298,302,302,1
299,298,300,301,1
296,298,301,301,1
295,297,302,302,1
295,296,304,302,1
295,296,303,300,1
295,297,303,299,1
297,303,305,301,1
299,310,307,304,1
301,316,309,308,1
304,318,311,311,1
305,317,312,314,1
306,313,313,315,1
307,307,313,315,1
306,301,313,315,1
306,296,313,314,1
307,295,313,313,1
308,295,312,311,1
309,297,311,309,1
310,299,309,307,1
310,301,307,305,1
310,302,305,303,1
310,301,303,301,1
311,301,303,301,1
311,304,303,304,1
310,311,305,306,1
310,320,307,307,1
310,330,308,308,1
312,338,310,309,1
314,343,312,309,1
315,344,313,310,1
315,340,313,310,1
313,330,312,309,1
310,317,311,308,1
306,304,310,308,1
303,294,309,307,1
302,289,309,308,1
300,289,309,310,1
299,290,310,313,1
298,292,310,316,1
297,292,309,316,1
297,291,307,313,1
297,287,304,308,1
296,284,301,303,1
296,284,299,299,1
297,288,299,298,1
298,296,299,298,1
300,303,300,300,1
301,308,300,303,1
303,310,302,307,1
304,310,304,311,1
304,309,305,314,1
304,306,304,314,1
303,303,302,313,1
302,300,300,312,1
302,299,299,310,1
302,299,299,311,1
302,301,300,314,1
303,304,303,317,1
304,305,304,320,1
304,305,305,322,1
304,303,306,323,1
303,302,307,322,1
303,303,307,322,1
303,304,306,321,1
304,305,306,321,1
305,307,306,320,1
307,309,306,318,1
309,311,306,316,1
310,315,306,315,1
310,319,306,314,1
309,322,305,313,1
307,325,303,312,1
304,327,299,310,1
302,326,296,308,1
300,321,293,306,1
298,315,292,305,1
297,309,293,304,1
297,307,298,304,1
300,306,302,305,1
301,307,305,305,1
301,308,304,305,1
301,310,303,305,1
301,311,300,305,1
301,311,298,305,1
302,309,297,304,1
304,308,298,304,1
306,307,298,304,1
307,305,298,304,1
307,305,299,305,1
308,307,301,308,1
310,310,303,312,1
312,314,305,316,1
315,319,307,319,1
317,325,310,320,1
320,333,311,322,1
321,340,311,322,1
319,346,310,320,1
314,347,308,317,1
308,344,306,312,1
304,337,306,308,1
303,326,305,305,1
303,313,305,302,1
304,298,305,299,1
305,284,305,297,1
307,275,305,298,1
308,271,305,303,1
309,272,306,307,1
307,274,305,310,1
304,278,305,312,1
302,283,305,314,1
303,288,306,317,1
304,292,307,318,1
305,293,308,319,1
306,292,308,318,1
307,291,308,318,1
310,291,307,316,1
313,291,305,315,1
316,293,304,312,1
318,296,302,309,1
320,299,301,305,1
320,302,298,299,1
317,303,295,293,1
313,306,293,290,1
312,310,296,289,1
311,314,300,291,1
312,317,304,294,1
310,319,307,298,1
308,318,309,302,1
306,313,310,305,1
305,307,311,310,1
304,303,311,313,1
303,301,310,315,1
304,302,309,315,1
305,306,308,313,1
307,311,307,312,1
309,313,308,310,1
310,312,308,308,1
310,309,308,307,1
311,306,309,306,1
311,302,310,305,1
310,298,310,304,1
309,295,310,305,1
307,292,310,305,1
305,291,310,307,1
304,293,310,310,1
305,295,311,313,1
305,297,311,315,1
304,299,310,317,1
304,300,308,318,1
304,301,308,319,1
304,302,307,318,1
304,303,307,317,1
304,305,306,315,1
304,308,306,315,1
304,312,305,315,1
304,316,303,315,1
304,318,302,314,1
304,318,302,313,1
304,316,303,311,1
304,313,303,310,1
304,310,304,307,1
303,309,304,304,1
304,311,304,301,1
304,317,303,296,1
305,325,303,291,1
306,333,302,286,1
307,341,299,281,1
309,347,295,279,1
311,350,291,279,1
312,347,288,282,1
310,337,289,287,1
306,328,293,294,1
302,319,299,302,1
300,312,305,307,1
300,306,310,311,1
300,299,312,313,1
301,291,314,313,1
301,285,314,311,1
301,280,313,310,1
301,276,312,308,1
303,273,310,306,1
304,273,309,304,1
305,275,307,302,1
304,277,306,299,1
304,279,305,298,1
303,281,305,298,1
303,284,305,298,1
303,286,306,299,1
303,289,308,301,1
304,292,310,304,1
306,295,311,307,1
307,297,312,308,1
308,297,311,306,1
308,298,310,304,1
309,299,309,300,1
309,300,308,297,1
308,302,307,293,1
307,303,306,289,1
306,306,306,287,1
306,310,306,290,1
307,315,308,296,1
310,319,308,303,1
313,322,307,309,1
316,324,306,313,1
320,324,304,316,1
323,324,304,316,1
324,324,306,316,1
323,325,308,317,1
319,326,311,319,1
315,326,312,320,1
309,323,314,320,1
305,316,315,318,1
301,309,316,315,1
300,303,317,311,1
300,300,317,310,1
300,301,317,309,1
301,302,317,309,1
302,302,316,309,1
302,302,316,310,1
303,302,315,310,1
303,302,313,310,1
302,302,312,310,1
302,303,311,308,1
302,304,311,307,1
302,305,310,305,1
302,305,309,304,1
303,305,309,304,1
303,306,308,304,1
304,306,308,303,1
305,305,307,303,1
304,304,307,302,1
304,302,307,302,1
304,302,308,302,1
305,303,309,304,1
306,304,310,304,1
306,306,311,304,1
306,307,311,304,1
305,307,310,301,1
305,307,309,298,1
305,308,310,295,1
305,308,309,293,1
304,309,308,292,1
303,308,307,292,1
303,307,306,293,1
302,306,305,295,1
302,306,305,299,1
303,307,304,303,1
303,310,303,307,1
304,314,303,311,1
304,321,302,315,1
306,330,302,318,1
307,341,302,321,1
308,351,301,323,1
308,358,300,324,1
308,361,298,323,1
307,359,297,322,1
307,352,296,321,1
307,343,298,321,1
307,335,301,320,1
309,326,305,321,1
310,317,309,320,1
310,306,312,319,1
309,297,314,317,1
307,288,314,315,1
306,283,314,313,1
304,279,314,313,1
304,278,313,314,1
304,278,313,315,1
306,279,314,314,1
307,280,314,313,1
307,281,315,312,1
307,283,315,310,1
306,284,314,309,1
305,285,314,308,1
304,286,313,307,1
304,287,312,307,1
304,288,313,307,1
305,291,313,307,1
306,293,314,306,1
307,296,313,305,1
307,298,312,303,1
307,300,311,300,1
307,302,309,298,1
306,304,306,296,1
306,304,303,294,1
304,303,302,295,1
305,303,302,297,1
306,303,303,299,1
307,302,304,300,1
306,302,304,300,1
307,303,306,299,1
309,304,307,297,1
311,305,306,295,1
314,308,306,294,1
317,312,305,296,1
320,316,304,299,1
320,318,303,303,1
317,317,301,306,1
314,316,298,309,1
310,315,297,312,1
308,314,297,315,1
306,313,299,315,1
304,311,301,314,1
303,308,302,312,1
303,306,304,310,1
304,306,306,310,1
305,308,310,313,1
307,309,313,316,1
308,310,314,318,1
309,311,314,319,1
310,311,314,320,1
311,312,313,320,1
311,313,312,318,1
309,313,310,314,1
306,311,308,309,1
302,307,306,305,1
300,304,304,302,1
299,302,303,301,1
300,301,303,301,1
301,302,302,302,1
303,304,301,305,1
306,308,300,308,1
308,311,300,311,1
310,312,300,312,1
311,309,299,312,1
311,307,298,310,1
311,306,298,309,1
312,307,299,307,1
312,310,299,305,1
312,315,299,303,1
311,321,299,302,1
312,326,301,304,1
312,327,302,305,1
312,323,303,306,1
309,318,303,305,1
307,316,304,304,1
305,317,305,304,1
304,320,305,304,1
303,322,303,303,1
304,321,302,303,1
305,319,301,303,1
306,315,301,305,1
310,310,302,308,1
314,304,304,311,1
316,298,306,313,1
314,294,307,314,1
312,293,307,313,1
310,294,307,312,1
310,295,309,311,1
310,296,309,311,1
310,294,310,310,1
309,291,308,310,1
307,291,307,310,1
307,291,305,310,1
307,290,303,308,1
306,290,301,307,1
305,290,300,306,1
305,291,300,306,1
307,293,302,306,1
311,296,304,305,1
313,298,305,304,1
314,301,305,303,1
313,303,304,302,1
310,303,302,301,1
307,302,301,299,1
303,298,299,297,1
300,294,296,297,1
297,292,296,300,1
298,293,297,304,1
299,296,299,308,1
300,299,301,310,1
302,301,302,310,1
303,302,302,309,1
303,303,301,309,1
304,306,301,310,1
304,308,300,311,1
303,310,301,312,1
303,310,303,311,1
305,309,307,310,1
306,309,310,309,1
308,310,311,310,1
310,313,311,311,1
312,316,310,312,1
314,319,308,313,1
315,320,306,314,1
317,321,304,315,1
317,319,301,314,1
315,317,299,312,1
312,314,299,310,1
307,312,300,308,1
304,309,302,307,1
303,306,305,306,1
304,305,308,307,1
306,306,311,309,1
308,310,314,312,1
309,315,316,313,1
310,318,317,313,1
308,321,316,312,1
305,324,314,310,1
303,326,312,308,1
300,328,309,305,1
298,327,306,302,1
295,323,304,299,1
294,313,302,299,1
294,298,301,298,1
294,283,300,296,1
295,273,300,294,1
297,269,301,291,1
299,268,302,289,1
301,269,303,288,1
302,272,305,289,1
302,275,306,291,1
302,280,307,295,1
302,286,307,299,1
302,291,307,301,1
303,294,304,301,1
304,295,301,299,1
304,295,298,296,1
305,295,295,295,1
305,296,295,294,1
306,298,295,295,1
306,296,298,295,1
306,294,301,296,1
305,292,305,297,1
305,292,308,300,1
306,294,310,304,1
306,298,312,307,1
307,305,312,308,1
308,310,312,307,1
307,315,311,306,1
306,320,311,307,1
306,324,312,308,1
306,325,312,308,1
306,323,311,307,1
305,318,310,307,1
304,311,308,308,1
304,305,305,309,1
303,300,304,310,1
303,298,302,310,1
303,298,301,309,1
303,299,299,307,1
305,302,297,303,1
308,306,298,299,1
313,309,301,296,1
316,311,305,295,1
319,311,308,295,1
321,308,311,297,1
321,305,314,299,1
319,301,315,302,1
316,299,315,305,1
313,298,313,306,1
310,299,309,307,1
307,302,305,306,1
304,306,300,305,1
301,312,297,304,1
300,318,296,305,1
301,322,297,308,1
303,324,300,312,1
305,323,302,316,1
306,320,305,317,1
308,315,306,317,1
308,312,307,316,1
308,312,310,315,1
309,315,313,314,1
310,320,314,311,1
312,326,314,308,1
313,334,312,306,1
312,338,310,304,1
311,333,308,301,1
308,324,307,297,1
306,313,307,295,1
305,303,307,294,1
304,296,306,294,1
303,290,306,294,1
302,286,306,296,1
302,283,306,299,1
301,283,308,302,1
301,285,309,303,1
301,288,310,304,1
301,292,310,305,1
302,296,310,306,1
303,299,309,306,1
304,302,308,307,1
305,304,307,307,1
306,305,307,307,1
307,304,307,307,1
307,302,308,307,1
305,298,308,305,1
302,295,308,303,1
300,294,308,301,1
299,294,308,300,1
299,295,309,299,1
298,297,308,299,1
298,299,307,300,1
298,300,306,303,1
299,302,307,306,1
300,301,307,308,1
301,299,307,308,1
303,298,307,309,1
304,298,307,310,1
305,300,306,310,1
306,301,306,310,1
307,302,305,308,1
307,303,305,307,1
307,304,305,308,1
307,305,305,310,1
306,306,307,311,1
304,308,307,312,1
303,310,308,313,1
302,313,308,313,1
301,315,309,312,1
299,318,309,311,1
298,320,309,308,1
299,321,309,306,1
302,321,309,303,1
303,318,307,301,1
304,313,305,299,1
304,307,302,297,1
304,303,300,295,1
305,299,297,294,1
307,299,296,294,1
307,301,294,296,1
305,305,294,298,1
305,313,296,300,1
305,324,299,303,1
305,336,302,307,1
305,348,304,312,1
305,357,307,316,1
304,363,310,319,1
304,361,311,320,1
302,348,311,317,1
300,329,309,313,1
299,308,306,309,1
298,291,304,305,1
298,279,305,303,1
299,274,306,303,1
300,273,308,304,1
301,278,309,304,1
302,287,311,305,1
304,297,312,307,1
305,308,313,308,1
305,318,313,308,1
306,323,313,308,1
306,324,312,307,1
306,319,309,304,1
306,311,305,302,1
305,301,303,301,1
304,294,301,302,1
305,287,301,304,1
307,283,301,305,1
310,284,301,306,1
313,288,299,308,1
314,294,298,309,1
315,300,297,309,1
314,305,297,309,1
313,310,298,308,1
312,313,299,306,1
309,315,301,305,1
307,315,302,305,1
306,313,303,306,1
305,309,304,307,1
306,304,305,308,1
307,299,307,308,1
308,294,307,308,1
309,292,306,307,1
309,292,303,305,1
307,292,299,301,1
306,290,297,299,1
304,291,297,297,1
304,293,299,296,1
304,299,302,295,1
302,306,304,295,1
300,313,307,296,1
299,319,308,298,1
298,321,308,300,1
298,321,308,301,1
299,322,307,302,1
299,326,305,302,1
299,331,304,303,1
300,334,302,303,1
302,334,301,304,1
303,332,301,304,1
305,325,301,305,1
306,314,302,306,1
305,301,303,307,1
303,291,303,309,1
301,285,303,310,1
300,283,303,310,1
300,284,305,310,1
303,287,307,310,1
307,290,310,312,1
310,293,310,313,1
310,294,309,312,1
308,294,305,310,1
306,296,302,309,1
303,300,299,309,1
302,304,297,310,1
302,308,299,309,1
303,310,301,307,1
304,312,304,306,1
306,314,306,307,1
309,315,307,310,1
311,314,308,312,1
313,312,307,313,1
313,308,305,314,1
312,305,303,314,1
310,301,301,314,1
308,296,300,313,1
306,292,301,313,1
305,290,303,313,1
304,289,305,313,1
303,290,307,314,1
303,293,307,314,1
302,294,306,312,1
301,296,305,310,1
301,298,304,308,1
300,301,304,307,1
301,302,305,307,1
300,303,307,307,1
299,304,309,308,1
299,304,311,310,1
299,305,312,312,1
299,305,314,313,1
300,307,316,311,1
301,312,317,310,1
302,319,317,309,1
305,326,317,308,1
307,329,317,306,1
309,328,316,304,1
310,323,314,302,1
311,317,312,300,1
310,311,309,300,1
309,309,307,301,1
309,309,306,302,1
309,312,306,305,1
309,317,306,306,1
309,320,307,308,1
309,323,308,309,1
309,327,309,309,1
311,332,311,312,1
312,333,313,314,1
314,329,314,315,1
314,321,316,315,1
314,312,317,313,1
315,306,318,311,1
314,304,316,309,1
313,305,314,307,1
310,308,310,306,1
308,310,305,304,1
306,312,300,303,1
304,313,296,302,1
301,311,295,300,1
298,305,296,300,1
297,299,298,301,1
297,297,301,303,1
299,299,304,307,1
301,307,306,310,1
302,318,307,312,1
303,329,307,312,1
304,339,306,312,1
307,347,305,311,1
309,351,305,311,1
310,350,306,313,1
311,339,305,314,1
310,320,303,314,1
310,301,303,313,1
308,284,302,310,1
305,272,301,308,1
303,266,301,304,1
302,263,301,301,1
301,263,302,298,1
300,265,302,295,1
299,268,302,292,1
299,271,303,289,1
298,275,304,288,1
298,280,305,290,1
299,286,306,294,1
300,291,308,301,1
302,295,310,309,1
305,298,311,316,1
307,299,312,322,1
310,299,311,324,1
311,301,310,323,1
313,303,308,322,1
315,306,306,319,1
315,309,304,317,1
313,312,303,315,1
310,314,301,313,1
307,316,299,310,1
305,316,298,307,1
304,314,296,304,1
303,312,296,303,1
302,312,296,302,1
302,311,297,302,1
302,311,298,303,1
303,312,299,305,1
303,314,300,306,1
304,315,301,305,1
305,315,300,305,1
305,313,300,303,1
305,308,302,303,1
305,302,305,304,1
307,298,309,307,1
308,298,312,311,1
310,302,314,315,1
312,312,316,318,1
312,324,315,320,1
312,335,314,321,1
310,343,313,323,1
309,348,314,324,1
309,347,314,325,1
309,338,315,323,1
308,321,313,320,1
306,304,312,317,1
304,291,311,313,1
303,284,310,312,1
303,283,310,311,1
303,284,310,312,1
304,287,309,312,1
304,288,306,313,1
304,288,304,314,1
305,287,303,314,1
306,287,301,313,1
306,287,300,312,1
304,287,299,311,1
302,287,298,311,1
300,287,298,310,1
298,289,298,310,1
297,292,298,311,1
298,297,300,312,1
300,302,302,312,1
302,307,304,311,1
304,312,305,311,1
304,314,305,310,1
304,314,304,309,1
305,312,303,308,1
306,310,304,308,1
308,312,304,308,1
310,315,305,310,1
313,317,305,312,1
314,318,305,311,1
316,317,304,309,1
315,317,302,306,1
315,315,299,303,1
314,313,299,301,1
313,310,300,299,1
312,307,303,300,1
309,304,306,302,1
308,301,308,304,1
306,299,309,307,1
304,299,308,308,1
303,300,307,309,1
303,304,305,309,1
305,311,305,311,1
307,316,306,312,1
307,319,308,312,1
305,317,309,311,1
303,314,310,311,1
301,310,310,313,1
300,306,309,314,1
299,302,307,313,1
299,302,304,312,1
300,304,303,311,1
301,306,304,309,1
303,308,306,307,1
305,307,309,307,1
307,306,312,309,1
309,303,314,310,1
311,301,315,310,1
314,299,315,310,1
316,299,315,308,1
316,303,315,305,1
316,310,315,304,1
314,318,314,303,1
311,327,313,303,1
309,335,313,303,1
309,340,312,302,1
308,339,311,301,1
306,331,309,300,1
303,320,307,299,1
302,308,307,298,1
301,295,307,299,1
301,284,308,300,1
300,275,309,300,1
298,269,309,301,1
296,265,310,301,1
295,264,310,302,1
294,267,311,305,1
295,272,312,308,1
296,277,312,310,1
297,282,311,310,1
298,287,310,310,1
300,293,309,309,1
301,299,308,308,1
302,304,306,307,1
302,305,303,306,1
302,303,300,305,1
302,301,298,306,1
302,301,297,307,1
302,303,298,309,1
303,306,301,310,1
304,310,307,311,1
306,312,312,310,1
307,313,315,309,1
307,313,316,307,1
307,312,315,306,1
307,310,314,304,1
307,307,313,304,1
305,304,312,304,1
304,300,313,303,1
303,297,312,302,1
303,296,311,301,1
302,297,309,301,1
303,300,307,302,1
303,303,306,302,1
304,305,303,302,1
304,306,301,302,1
304,306,300,302,1
305,307,300,304,1
306,310,301,305,1
307,316,303,306,1
308,321,305,306,1
308,326,307,306,1
307,329,307,306,1
305,329,306,307,1
302,326,304,308,1
300,321,304,308,1
300,314,305,308,1
302,308,306,309,1
305,307,307,310,1
309,311,308,313,1
313,317,310,314,1
318,323,311,315,1
321,327,312,314,1
322,328,313,312,1
317,325,312,312,1
312,317,312,312,1
306,308,313,313,1
303,301,314,313,1
302,296,314,314,1
300,292,313,314,1
299,288,311,315,1
297,286,310,315,1
296,285,311,315,1
296,286,311,314,1
297,285,311,313,1
298,284,310,312,1
300,283,309,310,1
303,283,308,309,1
307,285,306,309,1
312,289,305,308,1
315,294,302,306,1
316,298,300,304,1
315,302,299,301,1
313,304,300,298,1
309,305,303,295,1
304,305,305,293,1
299,303,306,292,1
297,300,307,292,1
297,299,308,294,1
297,300,307,297,1
297,303,306,301,1
297,309,306,304,1
297,316,306,307,1
298,322,306,308,1
299,323,306,307,1
300,320,306,306,1
300,315,304,302,1
299,311,302,300,1
297,310,299,297,1
296,307,297,297,1
296,303,296,296,1
296,302,295,296,1
298,303,295,297,1
300,305,297,300,1
302,308,301,303,1
304,309,306,306,1
306,309,309,309,1
308,307,310,310,1
307,304,310,309,1
306,302,310,309,1
306,302,310,309,1
305,307,310,307,1
305,313,309,306,1
305,318,308,304,1
303,320,306,302,1
302,320,305,300,1
302,318,306,299,1
301,310,307,298,1
301,299,308,299,1
301,288,309,300,1
302,282,309,302,1
304,282,309,302,1
305,286,308,303,1
305,292,307,305,1
307,298,306,306,1
309,304,308,306,1
309,309,309,307,1
310,311,310,309,1
310,311,312,310,1
309,310,312,310,1
308,309,312,309,1
307,308,310,308,1
307,309,310,307,1
307,314,308,308,1
307,318,307,308,1
307,322,306,308,1
309,324,304,308,1
310,323,304,307,1
310,321,304,306,1
310,318,304,306,1
308,314,304,305,1
305,308,302,304,1
303,302,302,301,1
302,297,302,298,1
303,296,304,297,1
306,298,305,298,1
309,302,305,300,1
311,307,304,302,1
312,311,302,303,1
311,316,302,304,1
312,320,302,307,1
309,320,302,309,1
306,320,302,311,1
304,319,303,313,1
303,318,305,314,1
303,315,307,315,1
304,311,309,317,1
305,306,310,316,1
305,301,310,315,1
305,298,310,314,1
304,293,310,312,1
303,289,311,311,1
301,286,312,312,1
301,285,312,312,1
300,286,311,311,1
299,287,309,308,1
299,288,306,305,1
299,291,303,303,1
301,295,301,301,1
303,299,300,300,1
304,304,299,299,1
306,311,300,300,1
308,319,301,302,1
310,329,302,304,1
310,338,303,307,1
310,345,304,309,1
309,348,304,309,1
307,346,303,309,1
305,339,301,307,1
304,327,299,304,1
303,313,298,300,1
303,301,298,298,1
302,291,299,297,1
302,286,300,297,1
301,284,301,298,1
301,284,302,299,1
302,285,305,300,1
303,288,308,302,1
303,290,309,303,1
302,292,308,303,1
301,293,308,303,1
298,294,306,303,1
296,296,305,303,1
295,298,303,303,1
295,299,302,304,1
297,303,301,304,1
300,308,300,304,1
303,313,301,304,1
307,319,302,305,1
310,323,304,306,1
312,327,305,305,1
312,328,303,303,1
311,327,302,301,1
309,322,302,300,1
307,318,303,300,1
308,317,306,303,1
310,318,308,306,1
310,318,310,308,1
309,317,309,308,1
307,315,307,307,1
305,314,305,305,1
304,314,303,303,1
304,315,301,300,1
305,316,299,297,1
309,316,299,294,1
313,317,302,294,1
319,318,305,298,1
321,318,308,305,1
322,318,311,312,1
320,316,313,318,1
317,312,313,320,1
312,307,313,321,1
308,306,313,321,1
305,306,311,320,1
304,304,309,318,1
303,301,306,315,1
304,298,305,314,1
306,299,305,314,1
308,300,305,314,1
309,302,305,313,1
309,302,304,312,1
310,301,303,311,1
309,301,302,311,1
307,301,301,312,1
306,302,300,313,1
306,304,300,315,1
306,306,302,317,1
306,310,304,318,1
305,314,305,318,1
304,319,306,317,1
303,324,307,316,1
303,329,307,315,1
304,332,306,315,1
305,333,305,315,1
306,331,304,315,1
307,326,305,316,1
308,320,305,316,1
308,313,304,315,1
306,306,301,312,1
302,299,298,308,1
299,291,294,303,1
296,285,291,298,1
294,281,288,294,1
294,279,288,291,1
296,281,290,290,1
299,284,293,292,1
302,289,295,297,1
305,295,296,301,1
306,300,296,304,1
305,305,297,305,1
305,310,298,304,1
304,315,302,303,1
305,321,305,302,1
305,326,308,303,1
306,329,311,305,1
307,330,312,307,1
307,327,314,310,1
307,322,315,313,1
307,315,316,315,1
307,309,316,316,1
308,303,317,317,1
309,300,317,318,1
310,298,316,319,1
310,298,316,318,1
310,298,315,316,1
310,297,314,314,1
310,295,313,311,1
310,292,313,309,1
309,290,312,309,1
307,289,311,310,1
305,290,308,311,1
303,292,304,311,1
301,294,300,310,1
300,295,298,308,1
300,298,297,306,1
301,301,299,303,1
302,307,301,302,1
305,312,305,304,1
307,317,308,305,1
308,318,310,304,1
309,317,310,304,1
309,314,309,305,1
309,309,310,308,1
310,304,310,310,1
311,297,311,310,1
312,291,310,308,1
313,287,310,308,1
312,287,309,308,1
311,289,308,308,1
309,295,308,307,1
306,302,308,306,1
304,312,308,305,1
304,324,309,308,1
305,337,311,314,1
307,348,313,320,1
308,354,313,324,1
308,351,312,324,1
307,340,311,322,1
307,325,310,319,1
306,311,310,316,1
307,299,310,313,1
308,290,312,310,1
311,285,314,308,1
314,284,315,308,1
317,286,316,309,1
318,289,317,309,1
318,291,316,310,1
316,291,313,310,1
312,292,309,309,1
307,292,304,309,1
302,294,301,309,1
299,297,299,310,1
299,300,299,310,1
299,302,299,310,1
299,302,299,308,1
300,302,299,305,1
299,305,300,303,1
299,309,302,301,1
301,314,304,301,1
303,319,305,302,1
304,321,305,303,1
305,320,304,304,1
306,315,303,304,1
305,308,302,304,1
306,302,302,304,1
307,301,304,305,1
309,303,306,306,1
311,309,308,307,1
311,315,310,308,1
312,319,311,309,1
313,321,313,310,1
314,320,314,310,1
313,316,314,310,1
313,312,315,311,1
312,310,315,311,1
310,308,315,312,1
309,306,313,313,1
307,302,313,313,1
305,296,311,312,1
303,292,310,310,1
302,289,310,306,1
301,286,310,302,1
301,284,309,297,1
301,282,306,293,1
301,285,304,292,1
303,291,302,292,1
305,299,302,294,1
309,308,304,297,1
312,314,308,301,1
315,316,312,304,1
316,313,315,304,1
314,305,316,302,1
310,296,315,300,1
306,288,314,299,1
304,284,314,299,1
303,284,313,298,1
303,286,312,298,1
305,291,312,298,1
307,296,311,300,1
309,299,309,301,1
310,299,306,302,1
309,297,302,302,1
306,294,299,302,1
303,293,299,302,1
300,293,300,302,1
300,295,303,302,1
300,297,306,303,1
301,300,310,306,1
303,304,313,310,1
306,307,315,315,1
310,308,316,318,1
311,308,315,319,1
311,306,314,317,1
310,302,313,314,1
310,299,313,311,1
309,297,312,306,1
308,297,310,300,1
307,297,308,295,1
305,300,307,292,1
303,302,307,289,1
303,304,307,289,1
302,308,308,291,1
302,310,308,292,1
303,313,308,296,1
305,315,308,298,1
306,317,308,301,1
309,317,307,303,1
310,318,305,304,1
311,319,303,305,1
311,322,303,307,1
311,327,305,308,1
312,332,307,308,1
313,335,309,307,1
314,336,309,305,1
314,338,309,303,1
314,340,308,301,1
314,341,309,300,1
313,337,309,300,1
310,329,310,299,1
307,317,310,299,1
304,307,310,301,1
304,302,309,303,1
303,299,308,304,1
302,298,304,306,1
300,299,303,307,1
299,301,303,308,1
300,303,304,308,1
301,304,306,306,1
303,301,307,305,1
305,295,307,303,1
305,289,306,299,1
304,284,305,297,1
303,282,306,298,1
303,284,309,302,1
304,286,312,306,1
306,288,314,308,1
308,288,315,309,1
310,290,314,308,1
311,292,312,305,1
309,295,309,302,1
307,297,307,300,1
304,299,305,299,1
302,300,304,302,1
303,301,306,307,1
304,303,308,313,1
307,304,309,318,1
310,304,308,320,1
312,305,307,319,1
313,305,306,317,1
313,305,306,313,1
312,304,307,309,1
311,304,309,305,1
309,304,309,301,1
307,306,309,300,1
306,308,309,300,1
305,310,309,301,1
305,311,309,302,1
306,312,309,304,1
307,312,309,305,1
307,311,308,307,1
307,309,307,307,1
307,306,305,304,1
306,303,303,301,1
306,301,303,298,1
307,301,302,298,1
308,304,303,300,1
308,306,304,302,1
308,306,305,304,1
307,306,307,305,1
307,306,308,305,1
307,307,309,305,1
306,308,308,303,1
305,307,305,300,1
305,305,302,298,1
305,304,300,297,1
305,307,301,299,1
306,313,303,301,1
307,321,307,304,1
306,327,310,305,1
305,332,310,304,1
304,336,309,304,1
304,340,307,304,1
304,342,305,305,1
305,341,301,304,1
304,334,298,304,1
304,323,297,303,1
303,314,298,303,1
303,308,301,304,1
305,305,305,305,1
308,304,310,308,1
311,303,313,310,1
312,301,314,311,1
312,297,313,309,1
312,291,310,306,1
311,285,308,304,1
310,281,306,304,1
310,280,305,307,1
310,281,306,309,1
310,281,306,310,1
311,282,308,310,1
312,283,309,310,1
314,287,310,310,1
315,294,309,309,1
316,299,307,307,1
316,304,304,304,1
313,306,300,301,1
308,305,298,300,1
304,303,300,302,1
302,302,305,305,1
304,302,310,310,1
306,303,313,313,1
307,305,316,315,1
308,308,317,316,1
309,309,317,317,1
308,307,315,317,1
308,306,315,316,1
308,305,314,314,1
308,305,313,311,1
307,305,311,308,1
307,304,308,304,1
305,301,304,301,1
304,299,301,299,1
304,299,299,299,1
305,300,298,301,1
305,302,299,302,1
306,303,299,304,1
307,305,301,305,1
308,308,302,308,1
309,310,304,310,1
311,311,307,310,1
312,311,308,309,1
312,314,309,305,1
311,317,308,303,1
310,320,307,300,1
310,323,306,297,1
312,327,305,296,1
312,329,304,298,1
312,329,304,301,1
311,325,304,306,1
310,319,305,309,1
309,312,304,309,1
308,304,302,306,1
308,297,299,303,1
307,291,297,300,1
307,287,297,299,1
308,286,296,298,1
309,288,295,297,1
309,291,295,298,1
309,295,296,299,1
308,300,297,301,1
307,304,297,302,1
307,306,296,302,1
308,306,295,302,1
309,304,295,302,1
309,301,296,303,1
310,301,297,305,1
310,305,300,309,1
310,310,303,313,1
310,316,304,315,1
310,321,305,316,1
309,323,304,317,1
309,322,304,317,1
308,319,303,318,1
307,313,303,318,1
307,308,305,317,1
307,304,306,314,1
307,302,305,310,1
307,300,304,306,1
307,298,301,301,1
305,297,299,296,1
304,296,297,292,1
302,296,297,291,1
302,298,299,293,1
304,302,302,298,1
307,309,306,305,1
309,317,309,313,1
311,324,312,318,1
312,330,315,321,1
314,332,316,323,1
316,330,316,324,1
319,326,315,323,1
321,322,313,320,1
321,319,311,317,1
321,318,308,314,1
319,318,306,312,1
317,321,304,310,1
315,324,304,311,1
313,329,307,313,1
312,332,311,315,1
310,333,313,316,1
309,331,313,313,1
306,327,311,308,1
302,324,309,303,1
298,322,306,299,1
295,323,304,298,1
294,322,302,297,1
294,315,301,298,1
295,304,301,299,1
297,293,302,302,1
299,285,303,302,1
301,283,304,303,1
302,288,306,303,1
303,297,307,304,1
304,307,307,306,1
304,315,307,308,1
304,319,306,311,1
304,318,304,312,1
303,315,301,312,1
300,309,300,309,1
298,300,299,305,1
297,292,300,301,1
297,288,303,297,1
298,286,306,294,1
300,288,309,293,1
303,290,311,294,1
305,294,313,296,1
306,300,313,298,1
306,306,313,300,1
307,311,314,303,1
307,315,313,305,1
307,318,313,308,1
306,315,312,311,1
304,309,311,313,1
303,302,311,315,1
302,297,312,316,1
302,295,312,315,1
302,294,310,313,1
302,296,307,310,1
301,297,303,306,1
299,299,299,303,1
299,302,295,299,1
299,306,293,296,1
299,307,291,293,1
298,307,292,291,1
298,306,294,291,1
299,305,298,291,1
301,306,301,295,1
303,309,304,300,1
305,313,306,305,1
307,317,307,309,1
307,320,307,312,1
307,322,306,315,1
308,322,306,318,1
307,320,306,319,1
305,316,306,319,1
303,311,306,319,1
301,307,306,318,1
300,306,307,316,1
300,305,308,314,1
301,305,309,312,1
302,307,310,311,1
304,310,311,311,1
305,313,311,309,1
305,316,309,307,1
304,318,305,304,1
303,320,302,304,1
303,324,300,306,1
304,327,299,309,1
306,331,299,311,1
306,335,298,312,1
305,338,299,313,1
306,341,302,313,1
307,342,305,312,1
309,344,307,311,1
311,348,307,309,1
313,349,307,306,1
314,346,304,303,1
312,338,301,300,1
309,326,298,297,1
305,310,296,294,1
302,292,297,293,1
299,278,298,293,1
296,270,300,296,1
293,267,303,300,1
291,266,305,303,1
291,265,305,304,1
290,265,305,304,1
291,265,305,303,1
293,268,306,302,1
296,272,306,302,1
300,276,307,302,1
304,281,307,301,1
307,287,307,300,1
309,294,305,301,1
308,300,304,302,1
308,306,303,303,1
308,311,303,303,1
307,313,303,304,1
306,312,303,304,1
304,308,302,304,1
302,302,301,305,1
301,295,301,306,1
301,290,302,308,1
302,288,303,310,1
303,291,304,312,1
305,296,305,315,1
307,303,306,317,1
308,309,306,319,1
309,313,305,320,1
308,314,304,319,1
308,312,302,317,1
306,310,301,315,1
305,308,300,313,1
305,307,300,312,1
304,308,300,312,1
305,308,301,312,1
306,309,302,313,1
308,309,302,314,1
310,309,303,315,1
310,309,303,316,1
309,310,302,316,1
308,309,302,314,1
307,308,301,313,1
306,307,300,312,1
306,306,300,310,1
306,305,300,308,1
307,305,299,306,1
307,307,300,304,1
307,310,301,304,1
306,314,303,305,1
305,320,304,307,1
305,326,305,310,1
304,332,306,313,1
305,336,308,314,1
305,335,308,313,1
305,333,306,310,1
305,331,303,306,1
305,330,300,304,1
304,328,298,302,1
304,324,297,300,1
306,319,299,301,1
308,313,301,302,1
310,308,303,304,1
310,304,304,308,1
311,303,303,310,1
311,302,300,311,1
311,300,298,311,1
312,298,298,311,1
313,298,298,311,1
314,301,301,313,1
316,305,305,315,1
317,310,307,315,1
316,313,308,314,1
315,314,309,312,1
312,311,308,309,1
308,307,308,307,1
305,303,307,306,1
303,298,306,305,1
302,291,306,304,1
302,285,306,303,1
302,280,306,302,1
303,278,305,303,1
303,279,304,306,1
305,284,306,308,1
306,292,306,309,1
306,299,306,309,1
305,303,305,306,1
302,307,302,303,1
300,310,299,299,1
299,310,297,296,1
300,307,297,294,1
301,303,298,294,1
303,300,299,294,1
308,298,301,295,1
312,299,301,296,1
318,301,300,298,1
321,302,299,298,1
322,303,298,297,1
319,303,298,295,1
314,302,299,294,1
310,304,301,293,1
306,307,304,296,1
305,311,309,300,1
305,313,314,304,1
306,316,318,310,1
307,318,319,317,1
307,318,319,321,1
306,317,318,323,1
306,314,315,322,1
305,309,312,319,1
305,307,310,317,1
306,305,309,315,1
307,304,309,313,1
307,303,310,311,1
308,302,313,309,1
309,302,316,307,1
309,301,317,304,1
308,300,315,300,1
306,298,312,296,1
304,297,309,292,1
303,297,307,291,1
304,299,307,292,1
305,303,308,295,1
306,309,308,300,1
308,316,308,304,1
308,323,308,307,1
308,329,307,309,1
306,332,306,308,1
304,332,305,307,1
302,330,304,308,1
302,325,304,309,1
301,319,304,310,1
302,314,304,310,1
303,312,304,309,1
304,313,303,307,1
305,315,302,305,1
305,316,301,303,1
305,315,302,301,1
305,312,303,299,1
307,309,304,297,1
308,309,305,295,1
311,309,306,295,1
312,309,307,296,1
315,310,308,297,1
316,313,307,298,1
317,314,306,298,1
317,312,307,301,1
315,306,308,305,1
314,299,309,309,1
314,294,309,313,1
314,293,308,315,1
313,295,308,318,1
311,298,308,319,1
308,302,308,320,1
307,305,308,321,1
307,307,308,320,1
306,307,310,318,1
306,306,311,315,1
305,303,312,313,1
306,301,313,310,1
307,299,315,309,1
307,297,315,306,1
305,295,313,304,1
304,294,312,301,1
304,294,310,299,1
304,295,310,298,1
306,297,309,299,1
309,300,309,300,1
312,303,309,300,1
314,306,309,301,1
315,311,309,303,1
315,316,309,306,1
313,321,308,310,1
312,325,309,313,1
311,327,310,314,1
311,328,311,316,1
310,325,312,316,1
310,321,312,315,1
310,316,310,311,1
308,311,309,306,1
306,308,307,300,1
305,308,306,297,1
304,309,306,295,1
304,309,306,296,1
304,309,308,296,1
305,305,310,297,1
307,303,314,298,1
309,303,316,300,1
312,304,317,304,1
314,306,315,306,1
315,308,314,308,1
315,310,313,308,1
315,312,314,309,1
313,313,315,309,1
310,314,313,309,1
306,314,310,307,1
303,316,305,306,1
300,323,302,305,1
299,330,299,304,1
298,334,298,301,1
298,336,299,299,1
299,337,300,298,1
301,336,302,300,1
303,334,303,303,1
304,325,303,307,1
305,311,303,308,1
305,295,302,309,1
305,282,303,308,1
306,276,304,308,1
307,274,307,308,1
308,274,310,308,1
307,275,312,307,1
306,276,312,307,1
306,278,313,306,1
306,281,313,307,1
306,283,313,309,1
307,285,312,311,1
306,289,311,315,1
306,294,311,318,1
307,299,312,320,1
308,303,312,320,1
307,305,312,319,1
306,307,313,319,1
305,308,315,318,1
304,307,316,316,1
303,306,316,314,1
304,306,315,314,1
306,307,316,315,1
309,309,316,316,1
310,309,317,318,1
310,309,316,319,1
309,308,315,319,1
307,306,313,318,1
306,304,310,315,1
304,303,308,312,1
303,303,305,309,1
301,303,303,307,1
301,303,300,305,1
301,305,298,304,1
301,310,297,305,1
303,318,298,306,1
304,325,299,306,1
306,330,302,308,1
307,332,304,310,1
306,325,304,311,1
303,314,303,310,1
301,301,302,307,1
301,292,302,304,1
302,286,303,303,1
303,284,305,303,1
304,284,306,303,1
304,287,307,302,1
304,290,307,302,1
305,294,307,302,1
306,297,309,302,1
308,299,310,302,1
309,300,311,302,1
309,302,309,303,1
310,305,309,305,1
310,311,307,309,1
310,316,305,313,1
309,321,305,317,1
309,325,305,320,1
309,328,307,321,1
309,328,309,321,1
309,325,308,320,1
308,320,306,317,1
306,312,304,314,1
304,304,302,310,1
303,297,301,306,1
301,293,301,304,1
302,292,302,306,1
303,292,304,311,1
305,293,305,316,1
307,294,305,319,1
309,293,303,319,1
308,293,301,316,1
307,294,300,313,1
305,294,300,309,1
304,295,303,306,1
303,297,307,306,1
303,299,310,307,1
304,300,313,308,1
304,301,315,310,1
304,301,316,311,1
302,303,317,312,1
301,307,316,313,1
301,311,315,312,1
300,314,312,310,1
300,313,309,307,1
300,310,306,304,1
300,305,304,302,1
300,301,303,304,1
301,299,303,308,1
302,299,306,313,1
304,298,310,318,1
306,298,315,321,1
307,298,317,323,1
308,296,317,322,1
308,295,317,320,1
309,294,316,317,1
309,294,315,313,1
311,294,314,310,1
312,295,313,306,1
312,297,312,305,1
313,301,312,305,1
314,307,311,306,1
312,312,310,307,1
311,317,309,309,1
309,319,308,310,1
308,321,307,311,1
308,320,307,312,1
308,316,306,312,1
309,310,306,313,1
309,304,307,313,1
308,299,308,313,1
308,294,309,312,1
308,292,310,312,1
309,293,310,312,1
309,294,308,313,1
309,295,306,312,1
309,295,303,312,1
309,295,303,312,1
309,298,305,314,1
310,304,307,315,1
311,315,310,317,1
312,328,311,317,1
313,340,312,316,1
313,350,314,315,1
312,353,315,313,1
310,344,315,309,1
307,327,315,306,1
303,309,315,303,1
300,294,313,301,1
297,284,309,301,1
294,277,303,300,1
291,275,299,301,1
289,276,297,303,1
289,280,299,306,1
292,288,304,312,1
296,298,309,317,1
299,308,313,320,1
302,316,314,322,1
302,321,314,322,1
303,323,314,320,1
304,324,313,318,1
305,321,312,315,1
305,315,310,312,1
306,307,310,310,1
308,302,310,309,1
309,300,311,309,1
310,300,311,309,1
309,300,310,309,1
307,302,309,308,1
304,303,307,307,1
302,304,306,306,1
299,304,304,305,1
297,302,302,303,1
295,299,299,300,1
293,296,298,298,1
292,295,297,296,1
293,295,298,295,1
294,297,299,294,1
297,298,301,294,1
298,300,301,293,1
299,302,300,292,1
299,304,298,291,1
300,307,296,290,1
300,310,295,290,1
301,312,297,291,1
302,314,299,294,1
304,316,303,297,1
308,316,304,301,1
311,314,304,304,1
313,312,304,305,1
313,311,304,306,1
313,310,303,308,1
313,308,303,309,1
312,305,303,311,1
310,301,304,312,1
310,299,305,313,1
310,297,306,314,1
311,296,308,313,1
312,297,310,314,1
313,300,312,315,1
313,305,314,316,1
313,310,315,316,1
311,316,316,317,1
310,322,317,317,1
308,326,317,318,1
306,327,316,319,1
303,326,315,319,1
302,323,314,319,1
300,321,314,318,1
300,316,313,317,1
301,309,311,315,1
301,302,308,312,1
301,298,306,308,1
302,298,305,304,1
303,299,303,299,1
304,301,301,293,1
305,304,299,289,1
305,307,299,288,1
306,312,300,290,1
307,316,302,295,1
308,319,303,300,1
308,319,306,306,1
308,320,309,312,1
309,321,312,315,1
311,324,315,318,1
312,327,319,319,1
314,331,323,320,1
314,333,325,320,1
313,332,323,319,1
311,325,320,317,1
308,317,316,314,1
306,308,311,311,1
304,300,308,308,1
303,295,307,306,1
303,291,307,304,1
303,288,308,302,1
302,286,309,302,1
302,285,309,303,1
302,284,310,304,1
302,284,311,305,1
304,285,312,306,1
305,286,312,306,1
306,289,312,306,1
307,293,311,306,1
307,297,310,307,1
307,302,308,306,1
307,305,306,305,1
306,309,304,303,1
306,311,301,301,1
306,313,299,299,1
308,314,299,296,1
312,316,300,294,1
315,319,304,293,1
318,321,308,294,1
320,323,313,298,1
318,323,316,301,1
314,322,317,304,1
308,320,318,307,1
302,314,316,309,1
299,307,315,310,1
299,301,314,312,1
299,299,312,314,1
300,299,310,315,1
300,302,309,315,1
300,308,307,313,1
301,315,305,313,1
301,320,305,313,1
302,324,305,314,1
303,325,305,315,1
304,322,304,315,1
303,319,303,314,1
303,315,304,314,1
304,310,308,313,1
306,302,311,312,1
308,293,313,310,1
309,288,314,310,1
310,285,313,311,1
309,286,312,312,1
309,288,310,312,1
308,291,307,309,1
307,293,304,305,1
308,295,301,300,1
309,297,298,295,1
308,297,295,291,1
306,297,292,287,1
303,298,292,284,1
302,301,295,284,1
304,307,301,290,1
306,314,308,299,1
309,321,314,308,1
311,326,317,315,1
312,329,317,318,1
312,329,314,319,1
312,326,312,318,1
311,321,310,317,1
310,318,310,315,1
309,317,309,315,1
309,316,309,315,1
309,315,309,316,1
308,309,309,317,1
307,303,308,318,1
306,299,308,319,1
305,299,309,320,1
305,299,310,322,1
305,299,313,322,1
306,299,315,322,1
308,298,317,321,1
310,299,319,320,1
313,301,319,318,1
315,304,317,315,1
316,306,315,312,1
316,309,313,310,1
315,311,312,309,1
314,313,311,309,1
313,316,310,308,1
312,318,309,307,1
310,320,308,304,1
309,320,306,300,1
307,319,305,298,1
306,316,304,296,1
305,312,304,294,1
303,305,304,292,1
301,295,304,292,1
299,286,304,293,1
297,281,304,294,1
296,278,302,295,1
295,280,300,299,1
296,283,299,304,1
298,286,300,309,1
300,289,301,313,1
300,291,303,315,1
300,292,305,316,1
300,294,306,315,1
300,295,306,313,1
300,297,306,312,1
301,300,306,310,1
302,302,305,309,1
302,305,305,307,1
303,309,305,306,1
303,314,305,305,1
304,317,306,305,1
304,320,305,305,1
305,322,305,306,1
306,325,305,306,1
308,326,306,306,1
311,322,306,306,1
314,317,307,307,1
318,312,309,309,1
321,309,310,313,1
323,308,311,316,1
322,308,311,317,1
318,310,307,316,1
310,313,302,314,1
302,318,297,313,1
296,322,293,312,1
290,324,290,311,1
288,325,289,310,1
287,321,291,309,1
289,312,294,307,1
290,299,298,306,1
291,286,299,305,1
292,276,298,307,1
293,273,299,310,1
295,274,299,313,1
297,278,301,315,1
298,284,304,317,1
299,292,308,318,1
299,300,312,318,1
300,308,315,319,1
302,314,318,319,1
303,316,319,317,1
303,316,317,315,1
301,314,313,312,1
300,312,308,309,1
298,308,305,307,1
298,303,303,304,1
298,299,303,303,1
298,295,303,302,1
298,293,302,301,1
297,291,302,300,1
297,290,301,298,1
297,291,302,297,1
297,293,304,297,1
298,297,305,297,1
301,301,307,297,1
304,305,307,295,1
307,308,308,292,1
309,310,307,287,1
310,311,305,284,1
311,312,304,282,1
312,314,304,284,1
311,317,304,287,1
310,324,305,293,1
308,333,307,301,1
307,342,309,309,1
307,350,311,314,1
306,355,311,316,1
306,354,311,317,1
304,344,310,317,1
301,324,308,316,1
298,303,307,315,1
296,289,307,315,1
296,281,306,315,1
296,279,306,314,1
296,281,307,313,1
296,283,307,312,1
297,285,307,309,1
297,286,307,306,1
298,284,307,303,1
299,282,306,301,1
300,281,305,299,1
301,281,304,300,1
302,284,305,302,1
302,287,306,304,1
303,289,309,305,1
303,291,311,306,1
302,292,312,307,1
302,294,312,307,1
301,295,312,306,1
302,297,311,304,1
302,299,310,302,1
303,302,309,302,1
304,305,308,302,1
306,310,309,303,1
308,318,309,304,1
311,327,310,305,1
313,337,311,308,1
315,344,311,310,1
317,348,309,312,1
318,347,306,313,1
318,340,303,313,1
315,331,301,313,1
312,325,302,314,1
311,321,305,316,1
311,319,310,315,1
310,314,313,313,1
307,309,314,307,1
303,304,312,302,1
298,302,309,299,1
297,301,309,298,1
296,300,310,299,1
296,297,310,300,1
297,292,310,300,1
298,288,309,300,1
298,286,309,301,1
300,286,308,303,1
302,287,307,307,1
303,289,307,310,1
304,291,306,312,1
303,293,306,313,1
302,295,307,315,1
301,297,308,315,1
302,300,310,314,1
304,303,312,312,1
306,305,314,311,1
307,306,315,309,1
308,308,315,308,1
308,309,314,306,1
308,309,312,305,1
308,309,310,304,1
307,308,307,303,1
305,305,304,302,1
304,303,302,299,1
303,303,301,298,1
304,304,301,296,1
305,307,302,295,1
306,312,303,294,1
308,320,304,293,1
311,330,306,293,1
314,337,308,296,1
317,341,309,300,1
319,339,310,304,1
320,330,309,307,1
319,317,308,308,1
316,304,306,307,1
312,294,304,306,1
309,288,303,304,1
307,285,302,302,1
305,283,301,300,1
304,283,300,300,1
304,285,299,303,1
304,287,300,306,1
304,289,301,308,1
304,291,301,311,1
303,294,301,313,1
303,296,301,315,1
302,299,302,316,1
302,303,303,317,1
302,308,305,317,1
302,315,306,315,1
302,322,306,313,1
303,330,304,312,1
305,338,303,311,1
307,346,302,311,1
309,352,303,312,1
310,354,303,314,1
311,347,304,315,1
311,334,304,313,1
311,318,304,312,1
310,302,304,310,1
310,290,304,312,1
310,282,305,314,1
311,279,305,316,1
311,279,305,317,1
310,281,303,316,1
308,284,301,315,1
305,285,300,315,1
304,285,300,314,1
305,282,302,313,1
305,279,304,311,1
307,277,306,309,1
308,277,308,307,1
310,278,309,306,1
310,281,309,307,1
310,285,308,309,1
310,290,307,312,1
310,294,306,314,1
309,296,306,315,1
309,297,305,315,1
310,297,306,313,1
312,298,305,311,1
316,299,304,308,1
319,299,303,305,1
322,300,302,303,1
324,303,302,301,1
324,306,302,302,1
322,308,303,303,1
317,310,304,304,1
312,312,306,306,1
307,313,306,307,1
303,314,306,308,1
302,316,306,308,1
302,320,307,310,1
303,325,306,310,1
304,329,304,308,1
304,329,302,305,1
304,328,299,302,1
304,326,299,300,1
304,324,298,299,1
304,319,297,297,1
303,313,294,295,1
302,307,291,293,1
301,302,288,293,1
301,299,287,294,1
302,298,288,297,1
304,298,290,301,1
305,298,294,306,1
305,299,298,310,1
305,302,302,313,1
306,306,306,316,1
306,311,310,318,1
305,317,312,321,1
305,321,311,323,1
304,323,310,324,1
303,322,307,324,1
302,316,305,323,1
303,309,304,321,1
303,302,303,319,1
302,298,303,316,1
303,297,302,313,1
302,297,301,309,1
303,298,298,305,1
302,299,295,301,1
302,299,292,297,1
303,300,292,295,1
305,302,293,294,1
307,305,296,295,1
309,310,300,296,1
312,315,302,300,1
313,320,304,303,1
312,323,303,305,1
310,324,301,307,1
308,323,299,309,1
307,326,295,312,1
307,329,293,314,1
307,334,294,315,1
306,339,296,315,1
306,342,298,315,1
307,342,299,314,1
309,339,301,314,1
311,333,302,314,1
313,324,302,312,1
312,315,302,310,1
309,307,304,308,1
304,302,306,308,1
300,299,308,310,1
298,298,310,311,1
298,298,311,312,1
299,298,311,314,1
301,296,312,315,1
303,294,311,314,1
303,291,310,313,1
303,290,308,312,1
304,288,308,310,1
304,289,308,310,1
304,290,305,309,1
303,291,302,307,1
302,290,298,305,1
300,292,296,302,1
300,297,295,301,1
301,307,296,302,1
303,321,297,304,1
306,336,297,308,1
307,349,298,313,1
309,357,299,317,1
312,359,301,319,1
313,353,302,319,1
312,338,302,316,1
308,320,300,311,1
303,301,298,307,1
299,285,297,305,1
298,275,299,304,1
299,269,300,305,1
300,268,302,306,1
301,268,303,308,1
302,270,305,309,1
304,273,306,310,1
305,278,306,311,1
306,282,305,311,1
305,286,304,310,1
304,287,303,308,1
302,287,302,305,1
301,288,303,303,1
300,288,305,303,1
301,290,306,303,1
302,292,308,303,1
304,295,310,305,1
307,298,312,307,1
310,302,312,308,1
310,304,311,308,1
309,306,310,307,1
310,308,310,308,1
311,311,311,309,1
312,313,311,310,1
311,316,310,309,1
310,317,307,308,1
308,320,306,307,1
307,322,305,305,1
306,324,304,305,1
306,324,305,305,1
307,324,305,305,1
307,325,306,307,1
307,327,305,308,1
307,329,304,310,1
306,327,303,310,1
306,322,300,309,1
305,313,297,307,1
304,304,295,305,1
303,298,293,302,1
303,292,291,300,1
303,287,292,299,1
303,284,295,298,1
304,282,300,298,1
304,281,305,298,1
304,282,308,300,1
303,284,310,303,1
303,286,311,306,1
303,288,312,308,1
303,291,312,310,1
303,294,312,312,1
304,298,312,314,1
304,301,312,316,1
304,304,310,316,1
304,307,309,315,1
305,309,307,312,1
307,312,306,307,1
310,315,305,301,1
312,320,303,297,1
313,325,301,294,1
313,330,298,293,1
310,333,297,296,1
308,333,299,301,1
307,334,302,308,1
307,334,306,313,1
308,329,307,315,1
307,322,308,315,1
306,317,309,315,1
306,316,308,315,1
305,314,308,314,1
304,311,307,313,1
304,307,307,311,1
303,302,305,309,1
301,296,304,307,1
301,288,302,304,1
300,282,301,303,1
300,279,300,301,1
301,278,299,298,1
301,280,297,294,1
301,281,295,291,1
301,283,293,289,1
303,285,293,291,1
304,288,294,295,1
305,292,296,299,1
307,295,298,304,1
307,298,301,306,1
308,300,303,307,1
308,301,304,305,1
307,302,304,302,1
306,305,303,299,1
304,308,301,296,1
302,312,300,295,1
303,318,301,297,1
305,324,302,301,1
307,328,303,305,1
308,328,304,309,1
309,325,304,312,1
310,318,304,313,1
309,310,302,313,1
307,302,301,311,1
306,296,300,309,1
305,292,300,307,1
305,291,300,307,1
305,292,302,309,1
306,295,305,312,1
308,297,307,314,1
310,301,310,316,1
311,305,311,315,1
310,307,311,312,1
308,309,309,307,1
305,312,306,303,1
302,315,304,298,1
301,318,302,295,1
301,318,302,293,1
303,317,303,294,1
305,316,303,296,1
306,313,303,298,1
307,307,304,298,1
307,300,306,298,1
307,296,308,298,1
308,293,310,299,1
308,292,311,299,1
307,292,311,300,1
307,294,311,303,1
306,299,310,307,1
306,304,310,311,1
306,311,311,314,1
308,318,311,316,1
310,324,311,317,1
311,329,312,317,1
313,331,313,318,1
314,331,314,318,1
315,326,314,319,1
314,317,313,318,1
311,309,311,315,1
307,304,309,313,1
304,301,308,310,1
304,301,307,308,1
305,306,307,307,1
307,313,306,307,1
307,318,305,306,1
305,320,304,305,1
303,319,303,305,1
300,315,302,306,1
298,310,302,309,1
298,303,304,311,1
299,298,307,314,1
301,296,311,317,1
305,295,314,319,1
309,297,318,319,1
312,299,321,318,1
313,299,321,316,1
313,299,320,312,1
313,299,318,309,1
311,302,316,306,1
309,306,314,305,1
305,309,313,303,1
303,312,312,300,1
301,314,313,298,1
300,314,313,296,1
301,312,314,295,1
303,309,314,295,1
305,305,313,296,1
307,303,312,298,1
309,303,311,301,1
310,302,310,303,1
310,303,308,304,1
311,304,307,305,1
310,304,307,303,1
310,304,308,302,1
309,305,309,303,1
309,307,310,305,1
308,308,309,306,1
306,310,308,308,1
305,311,306,309,1
305,311,305,310,1
306,309,305,310,1
307,306,305,310,1
308,304,306,310,1
308,302,309,309,1
309,302,312,307,1
309,302,313,305,1
309,304,313,305,1
309,306,312,306,1
307,309,309,307,1
306,310,307,309,1
304,309,305,309,1
303,309,304,310,1
302,309,304,312,1
301,310,304,313,1
301,310,304,314,1
301,311,304,314,1
302,312,305,313,1
303,313,307,311,1
305,314,310,310,1
307,314,312,308,1
307,315,313,306,1
306,316,313,304,1
304,317,312,304,1
303,318,310,303,1
302,319,309,304,1
302,319,309,304,1
303,315,310,304,1
303,309,311,303,1
303,305,311,303,1
303,304,311,302,1
304,305,311,301,1
304,307,310,298,1
305,309,308,296,1
306,311,307,296,1
309,314,308,298,1
311,318,311,305,1
314,324,315,313,1
317,328,317,320,1
318,330,318,323,1
318,331,316,322,1
318,331,313,318,1
318,332,311,313,1
318,334,310,309,1
319,336,308,305,1
320,339,307,302,1
320,343,306,300,1
318,344,304,298,1
315,340,302,297,1
311,331,301,298,1
308,321,300,301,1
305,311,299,303,1
301,302,297,303,1
298,292,296,302,1
296,283,298,301,1
296,276,302,302,1
298,273,307,304,1
301,272,311,308,1
304,275,314,313,1
307,280,315,316,1
308,287,315,316,1
309,296,313,316,1
308,304,311,314,1
307,311,308,311,1
306,316,306,310,1
306,318,304,311,1
308,318,304,312,1
309,314,304,313,1
308,308,304,311,1
307,300,304,307,1
305,296,305,303,1
305,296,308,302,1
308,300,312,301,1
310,305,314,301,1
311,307,315,301,1
311,308,315,302,1
310,307,315,304,1
310,305,314,305,1
308,304,313,305,1
308,303,311,305,1
307,303,310,305,1
305,302,307,304,1
304,301,305,303,1
302,299,303,302,1
302,298,301,302,1
303,298,304,302,1
305,301,308,302,1
306,305,311,302,1
306,311,312,303,1
307,318,311,305,1
306,325,310,307,1
305,329,307,308,1
303,332,304,310,1
303,333,303,312,1
303,332,304,315,1
304,330,306,316,1
306,327,308,316,1
308,326,309,316,1
311,323,309,314,1
311,317,308,311,1
310,307,307,307,1
308,299,306,303,1
308,293,306,299,1
308,290,306,295,1
306,288,305,292,1
305,288,305,291,1
304,292,306,295,1
304,299,307,299,1
306,307,309,303,1
307,314,310,307,1
308,319,311,312,1
309,323,312,316,1
309,322,310,319,1
308,318,309,320,1
307,311,308,319,1
307,301,308,319,1
307,294,309,317,1
305,288,309,316,1
302,287,308,314,1
300,288,308,313,1
299,292,309,313,1
299,297,310,313,1
299,301,311,313,1
300,306,312,313,1
301,311,312,313,1
305,313,311,313,1
308,312,310,313,1
310,310,308,312,1
313,310,306,312,1
314,311,304,312,1
316,314,302,312,1
314,315,301,311,1
310,314,300,310,1
304,309,300,308,1
299,303,299,306,1
294,298,297,305,1
292,295,295,304,1
290,292,292,303,1
289,290,290,303,1
288,290,287,301,1
288,291,288,297,1
291,294,290,294,1
294,297,296,292,1
299,303,303,294,1
304,308,309,298,1
307,312,314,303,1
311,314,316,307,1
313,315,315,311,1
314,316,311,315,1
315,318,308,319,1
315,320,306,322,1
313,321,304,324,1
311,321,304,323,1
309,320,306,321,1
308,320,309,319,1
308,321,312,318,1
310,325,315,317,1
311,327,316,316,1
311,326,316,315,1
309,322,315,314,1
307,317,314,313,1
306,313,313,312,1
306,311,313,311,1
306,312,314,311,1
308,315,313,310,1
308,319,311,310,1
308,322,308,311,1
308,323,306,310,1
307,320,304,309,1
306,317,302,307,1
307,314,303,306,1
307,314,304,306,1
309,315,305,306,1
309,316,306,306,1
310,317,307,305,1
311,316,309,306,1
311,313,310,305,1
311,310,310,305,1
310,310,309,303,1
310,314,309,302,1
311,322,309,301,1
311,329,308,298,1
312,335,307,297,1
312,338,306,295,1
311,334,305,295,1
309,324,304,296,1
307,312,302,299,1
304,299,301,301,1
302,288,298,303,1
301,282,298,306,1
301,281,299,308,1
302,283,301,309,1
303,285,304,308,1
304,286,306,305,1
304,286,306,300,1
305,285,307,297,1
304,284,306,293,1
303,283,304,292,1
301,283,303,293,1
299,283,301,295,1
298,285,300,298,1
299,289,302,300,1
303,296,305,302,1
308,304,309,303,1
313,311,311,304,1
318,317,311,303,1
320,322,311,302,1
319,323,310,301,1
315,321,308,300,1
309,319,306,300,1
304,319,304,302,1
299,320,303,305,1
296,320,302,308,1
294,322,303,311,1
294,324,305,314,1
294,326,306,317,1
296,329,307,319,1
297,329,308,320,1
298,328,308,319,1
299,326,307,318,1
300,321,307,315,1
301,314,306,312,1
302,307,306,310,1
303,300,304,308,1
303,295,303,307,1
302,291,301,306,1
302,290,300,304,1
301,291,297,302,1
300,292,294,302,1
301,294,292,304,1
301,297,292,307,1
302,301,296,311,1
304,305,300,314,1
305,307,303,317,1
306,308,304,317,1
306,307,305,316,1
305,305,305,314,1
305,301,306,312,1
305,297,305,310,1
304,293,305,307,1
303,293,306,306,1
303,295,306,305,1
304,299,307,304,1
306,304,308,302,1
308,309,308,300,1
309,314,309,298,1
311,316,310,297,1
312,315,310,297,1
312,312,310,300,1
311,309,309,303,1
310,306,308,307,1
309,305,308,312,1
309,306,308,314,1
308,306,308,316,1
307,306,307,315,1
305,305,305,313,1
304,305,303,311,1
303,308,301,309,1
302,313,302,308,1
302,320,302,307,1
302,325,303,306,1
302,328,302,306,1
303,327,302,305,1
303,321,303,305,1
303,312,303,305,1
302,304,303,305,1
302,297,303,304,1
303,294,304,304,1
305,293,305,303,1
308,295,306,303,1
311,297,307,303,1
313,298,308,304,1
313,299,310,304,1
314,301,311,304,1
313,302,311,304,1
311,302,311,303,1
308,302,311,303,1
306,304,311,305,1
304,306,311,306,1
303,306,310,305,1
302,304,309,302,1
299,302,307,298,1
296,300,305,295,1
293,298,304,292,1
293,297,305,291,1
294,298,306,293,1
297,302,308,297,1
300,306,310,304,1
302,311,312,310,1
304,314,313,315,1
305,316,313,319,1
306,317,312,320,1
306,317,310,320,1
307,318,308,321,1
309,317,307,322,1
311,316,309,322,1
313,314,310,322,1
313,312,309,321,1
312,311,308,320,1
309,310,306,318,1
307,311,304,315,1
305,312,302,312,1
304,313,299,308,1
302,313,296,304,1
301,313,297,301,1
301,313,300,302,1
303,315,304,304,1
304,318,307,306,1
303,319,307,306,1
302,319,306,305,1
301,319,306,304,1
302,320,306,302,1
302,321,305,299,1
302,322,303,296,1
301,321,301,294,1
301,319,300,295,1
302,316,300,296,1
303,311,300,297,1
303,305,300,298,1
303,301,299,300,1
305,297,298,301,1
307,294,296,303,1
308,292,296,303,1
309,292,297,304,1
310,292,300,306,1
309,294,304,308,1
309,297,306,310,1
308,302,308,311,1
309,308,309,310,1
311,315,310,309,1
313,322,309,308,1
314,326,310,308,1
315,328,310,310,1
316,329,310,313,1
315,326,311,316,1
314,319,313,316,1
313,307,314,316,1
311,297,316,314,1
310,290,316,311,1
308,291,314,308,1
308,295,312,305,1
308,301,310,301,1
307,306,308,299,1
306,310,307,300,1
306,311,306,303,1
305,308,306,306,1
304,301,306,307,1
304,293,305,307,1
304,287,305,308,1
306,282,306,310,1
308,281,307,313,1
311,282,308,316,1
313,284,307,317,1
315,287,305,318,1
317,290,301,317,1
317,295,297,316,1
314,301,294,315,1
311,306,292,314,1
307,308,293,313,1
304,309,295,313,1
301,308,297,313,1
299,308,300,312,1
298,309,302,310,1
298,308,302,307,1
298,308,300,303,1
300,307,298,300,1
302,305,297,299,1
305,303,296,299,1
307,299,297,300,1
308,295,297,301,1
308,292,298,303,1
307,291,300,307,1
305,293,302,309,1
303,295,303,310,1
302,299,303,310,1
302,302,302,309,1
301,308,302,310,1
301,315,304,312,1
302,321,307,315,1
303,325,308,317,1
304,323,308,317,1
304,320,309,317,1
304,315,309,316,1
303,311,308,313,1
302,308,306,308,1
302,307,303,304,1
302,312,302,301,1
303,318,302,300,1
303,326,303,301,1
304,332,303,303,1
305,333,305,305,1
306,327,306,306,1
306,315,306,307,1
307,300,305,307,1
306,288,304,305,1
306,279,302,304,1
306,275,301,303,1
306,275,303,304,1
307,278,304,305,1
307,282,306,308,1
307,285,306,309,1
305,287,305,311,1
304,288,305,312,1
302,290,306,313,1
301,293,309,314,1
301,295,311,314,1
302,297,312,313,1
302,299,312,312,1
303,301,310,312,1
304,302,307,311,1
303,302,305,309,1
302,300,303,308,1
301,300,303,308,1
302,300,304,307,1
304,302,307,307,1
307,304,310,306,1
308,307,312,304,1
310,310,314,301,1
311,311,315,299,1
311,310,314,296,1
311,307,312,294,1
310,305,310,294,1
309,306,310,298,1
310,307,311,303,1
311,309,312,309,1
313,311,313,313,1
314,313,313,317,1
313,313,312,319,1
312,313,312,321,1
311,314,312,322,1
310,316,313,322,1
311,318,315,321,1
313,320,316,318,1
314,319,315,314,1
313,319,314,310,1
312,316,311,304,1
309,312,307,297,1
306,305,304,291,1
304,299,302,289,1
303,295,302,289,1
304,294,303,293,1
306,294,304,298,1
307,294,307,303,1
307,294,309,307,1
306,294,310,310,1
307,295,311,313,1
308,298,311,314,1
309,302,311,314,1
309,307,309,314,1
310,312,308,313,1
311,315,307,312,1
311,315,305,309,1
310,310,303,306,1
307,304,300,305,1
306,299,298,305,1
305,299,297,306,1
305,303,296,307,1
305,309,296,308,1
304,314,297,305,1
304,317,299,302,1
304,319,301,299,1
304,317,305,297,1
305,311,307,298,1
307,303,308,300,1
310,297,309,304,1
313,293,310,309,1
316,294,311,314,1
319,296,312,318,1
320,298,314,321,1
320,300,316,322,1
317,301,317,322,1
314,301,317,322,1
312,301,317,321,1
311,301,316,320,1
312,301,316,320,1
313,303,315,319,1
313,306,313,317,1
312,311,311,316,1
309,315,308,314,1
309,320,306,312,1
308,323,305,310,1
309,326,305,307,1
309,328,306,304,1
309,326,307,302,1
309,321,308,301,1
310,316,309,302,1
310,313,309,302,1
311,308,308,301,1
310,302,306,301,1
308,295,303,302,1
305,290,300,302,1
302,287,297,303,1
299,285,296,303,1
298,283,296,302,1
298,282,298,301,1
300,280,301,299,1
302,279,303,297,1
304,279,304,297,1
306,280,304,297,1
307,280,304,297,1
308,282,304,298,1
310,284,306,299,1
312,286,308,302,1
313,291,309,308,1
314,296,311,315,1
313,300,311,320,1
313,300,311,323,1
311,300,310,323,1
310,301,310,322,1
309,303,310,320,1
309,304,309,316,1
308,303,308,312,1
307,301,307,308,1
305,299,307,303,1
303,297,306,300,1
301,297,306,298,1
300,299,307,298,1
301,303,309,301,1
303,308,309,304,1
305,312,309,308,1
308,315,309,312,1
311,316,309,315,1
312,313,308,317,1
310,309,306,316,1
309,306,304,316,1
308,305,303,315,1
306,304,303,315,1
305,303,303,315,1
305,303,303,315,1
306,305,303,316,1
307,307,302,317,1
310,307,302,317,1
312,307,302,315,1
314,308,301,311,1
314,308,301,306,1
313,309,300,302,1
312,310,302,300,1
312,310,306,298,1
310,306,309,297,1
306,301,311,295,1
303,296,311,295,1
300,296,312,296,1
299,300,312,300,1
300,306,314,305,1
303,313,315,311,1
305,318,315,315,1
307,320,315,318,1
308,317,314,319,1
308,312,313,318,1
307,308,312,316,1
307,307,313,314,1
307,307,313,311,1
307,307,311,307,1
306,307,308,303,1
305,307,305,302,1
305,305,304,302,1
305,302,303,302,1
306,299,304,302,1
307,298,305,304,1
309,297,308,309,1
310,297,311,313,1
311,295,314,317,1
311,294,317,318,1
311,293,319,317,1
310,294,320,315,1
308,295,319,313,1
306,297,317,310,1
304,298,315,308,1
303,301,313,306,1
302,304,312,305,1
301,307,312,305,1
300,307,310,305,1
299,304,309,305,1
298,302,308,307,1
298,302,308,310,1
298,303,308,314,1
300,305,308,317,1
302,308,309,320,1
305,312,311,323,1
309,316,313,325,1
311,320,314,325,1
309,324,313,325,1
306,326,313,324,1
304,325,314,322,1
304,321,314,321,1
304,315,315,320,1
304,309,315,319,1
303,304,315,317,1
303,300,315,315,1
304,298,315,313,1
305,299,315,312,1
305,301,314,309,1
304,302,313,306,1
302,304,311,304,1
301,306,310,303,1
299,309,309,303,1
299,310,310,305,1
299,311,313,307,1
299,312,316,313,1
300,314,319,319,1
302,313,320,324,1
304,312,321,327,1
306,310,320,328,1
308,309,319,327,1
310,310,318,326,1
312,311,317,325,1
313,313,315,323,1
314,314,312,320,1
313,315,309,316,1
311,315,307,313,1
309,313,306,311,1
308,311,306,310,1
306,308,306,308,1
304,305,307,306,1
303,300,308,303,1
304,297,309,301,1
306,295,309,299,1
308,296,310,297,1
311,299,310,297,1
313,302,310,296,1
314,305,307,295,1
313,304,304,295,1
308,301,301,296,1
302,297,301,300,1
299,294,304,308,1
299,293,308,315,1
299,294,312,320,1
300,295,316,323,1
300,296,317,324,1
301,297,318,322,1
302,300,317,322,1
304,304,318,321,1
307,307,319,321,1
308,308,321,319,1
309,308,321,317,1
308,308,321,315,1
307,308,320,313,1
307,307,319,311,1
306,304,318,307,1
306,300,316,305,1
306,297,315,302,1
305,294,315,299,1
303,292,314,297,1
302,292,314,297,1
302,294,314,297,1
303,297,315,298,1
304,300,314,299,1
305,303,314,300,1
306,306,314,303,1
307,309,314,306,1
308,312,314,309,1
309,313,312,310,1
309,314,310,310,1
310,316,309,309,1
310,318,307,308,1
311,319,306,305,1
312,317,303,302,1
311,312,300,298,1
311,305,298,293,1
310,297,298,288,1
310,292,298,285,1
310,291,300,286,1
311,293,302,289,1
311,294,302,293,1
310,295,300,298,1
309,295,298,305,1
309,295,297,311,1
307,293,297,316,1
304,290,297,319,1
301,288,296,319,1
299,288,296,319,1
299,290,297,318,1
299,292,297,317,1
300,294,299,315,1
303,297,303,315,1
306,300,309,315,1
309,305,312,314,1
310,310,313,312,1
311,317,312,309,1
310,325,310,305,1
309,333,308,302,1
309,340,308,300,1
308,345,307,299,1
308,346,307,299,1
309,343,308,299,1
310,334,309,300,1
310,322,310,302,1
310,311,311,305,1
311,302,311,308,1
311,300,310,309,1
310,301,309,309,1
310,305,308,309,1
310,309,307,308,1
310,310,304,307,1
309,309,302,305,1
309,304,301,305,1
309,299,302,305,1
310,293,303,305,1
313,289,305,303,1
315,286,306,301,1
316,286,306,298,1
319,289,306,297,1
320,293,306,297,1
320,297,305,298,1
318,301,304,300,1
316,305,303,304,1
315,308,303,308,1
314,311,305,313,1
313,314,307,317,1
311,317,307,320,1
309,318,307,321,1
306,317,305,321,1
301,314,302,319,1
296,310,298,317,1
293,305,295,314,1
291,300,293,311,1
291,297,294,308,1
292,294,296,308,1
294,294,301,308,1
297,296,305,309,1
299,297,308,307,1
299,297,310,306,1
299,295,311,304,1
300,292,312,304,1
300,291,314,305,1
301,290,314,306,1
301,289,313,306,1
300,290,312,306,1
300,291,312,306,1
300,295,312,307,1
301,299,312,307,1
301,303,311,306,1
301,304,311,305,1
302,306,310,304,1
303,308,308,303,1
303,311,306,302,1
304,316,304,302,1
304,319,303,301,1
304,322,303,300,1
304,321,303,300,1
304,317,302,300,1
304,312,300,300,1
305,310,300,301,1
307,311,301,302,1
308,314,303,304,1
310,317,305,305,1
310,318,306,305,1
309,317,307,305,1
308,313,307,305,1
307,307,305,304,1
305,301,303,303,1
305,297,301,303,1
305,297,301,303,1
305,300,302,301,1
304,306,303,299,1
303,312,305,298,1
302,315,307,298,1
302,316,308,297,1
302,312,307,298,1
303,303,305,298,1
304,294,303,300,1
304,288,302,303,1
306,286,303,308,1
308,288,305,311,1
308,289,307,312,1
307,291,308,311,1
307,292,309,310,1
307,293,310,307,1
308,294,308,304,1
309,295,307,301,1
310,296,304,296,1
310,297,301,292,1
310,299,298,289,1
309,302,297,287,1
309,306,297,287,1
307,310,298,290,1
304,314,300,297,1
302,319,302,305,1
302,324,304,313,1
303,327,305,317,1
304,326,306,318,1
306,324,308,317,1
307,319,309,315,1
307,313,310,314,1
307,309,310,313,1
306,308,310,313,1
305,308,310,312,1
304,308,311,311,1
304,308,311,311,1
304,311,312,311,1
303,315,312,312,1
303,319,310,312,1
303,321,308,312,1
305,322,306,312,1
306,322,304,313,1
307,321,302,314,1
307,318,301,316,1
309,314,302,317,1
310,308,303,317,1
310,302,303,316,1
308,298,302,315,1
307,294,302,312,1
306,290,303,310,1
305,289,305,307,1
304,288,305,305,1
302,288,305,304,1
301,289,304,302,1
299,292,304,302,1
299,295,304,302,1
299,298,304,301,1
299,300,304,300,1
299,302,306,299,1
299,304,307,299,1
300,309,308,300,1
302,316,308,300,1
304,325,307,300,1
306,336,306,300,1
309,345,307,301,1
311,351,308,303,1
312,349,309,305,1
311,339,308,306,1
310,325,307,305,1
308,310,306,303,1
308,298,307,302,1
308,289,307,301,1
309,285,307,301,1
309,286,306,301,1
310,288,303,302,1
312,292,301,302,1
314,295,298,302,1
314,297,296,301,1
313,299,295,300,1
312,300,296,301,1
312,300,298,301,1
312,300,299,300,1
312,299,299,299,1
311,298,299,300,1
310,300,300,302,1
308,303,301,305,1
307,307,303,307,1
307,310,305,307,1
308,312,308,305,1
308,314,310,301,1
307,316,309,298,1
305,318,309,297,1
305,322,311,297,1
307,326,312,300,1
310,331,313,303,1
313,335,313,307,1
314,339,312,310,1
314,338,311,313,1
312,331,308,313,1
310,320,306,313,1
307,309,305,313,1
305,300,304,313,1
303,294,305,312,1
301,290,305,310,1
300,285,304,306,1
299,282,303,303,1
298,280,302,300,1
297,280,301,297,1
297,280,299,294,1
297,282,299,292,1
298,285,298,291,1
300,289,299,291,1
303,293,300,293,1
308,297,302,297,1
313,301,306,303,1
318,305,310,308,1
321,310,313,313,1
322,313,315,314,1
319,317,314,314,1
313,321,313,313,1
308,323,310,311,1
304,323,309,309,1
301,322,307,308,1
300,318,307,308,1
299,313,309,307,1
299,307,309,306,1
299,301,309,305,1
299,296,308,304,1
299,293,306,304,1
299,291,303,305,1
298,291,300,307,1
299,295,299,308,1
300,301,300,308,1
302,309,303,306,1
303,318,305,305,1
305,329,308,305,1
307,340,311,304,1
311,347,313,305,1
314,348,314,307,1
315,343,315,310,1
314,332,315,314,1
313,317,314,316,1
311,304,311,315,1
309,295,307,313,1
308,290,304,311,1
308,288,303,311,1
310,290,303,311,1
310,294,303,312,1
309,297,302,313,1
306,299,300,314,1
303,300,298,316,1
301,299,297,316,1
300,297,297,316,1
299,294,298,315,1
300,292,301,313,1
301,290,303,311,1
300,288,304,310,1
299,289,303,308,1
300,291,305,308,1
300,295,308,308,1
300,299,311,308,1
301,303,312,308,1
301,305,312,308,1
301,306,311,306,1
301,306,310,306,1
302,306,308,306,1
303,304,306,306,1
302,302,306,307,1
303,302,306,309,1
302,303,307,310,1
303,305,307,312,1
304,309,307,313,1
305,313,307,312,1
306,314,307,311,1
306,314,307,309,1
306,314,308,307,1
306,316,310,306,1
307,320,311,304,1
307,324,311,303,1
306,326,311,301,1
304,329,310,300,1
303,332,309,302,1
303,334,310,305,1
303,332,310,308,1
302,326,310,311,1
302,319,310,312,1
303,311,309,313,1
302,306,308,313,1
302,302,307,313,1
301,299,307,312,1
302,297,307,311,1
303,294,309,310,1
305,290,310,308,1
305,287,310,307,1
304,284,309,304,1
302,283,307,301,1
301,282,305,300,1
300,283,304,300,1
300,287,303,300,1
300,290,302,300,1
301,295,301,299,1
302,301,300,298,1
303,310,301,297,1
304,320,302,297,1
304,329,304,298,1
306,336,306,302,1
307,339,308,307,1
308,336,311,312,1
308,328,312,314,1
307,316,313,316,1
307,304,315,316,1
307,296,316,317,1
309,289,316,319,1
311,284,315,319,1
313,280,314,318,1
315,279,312,315,1
316,281,310,312,1
316,286,308,309,1
314,293,307,305,1
311,300,309,303,1
309,308,312,302,1
309,313,315,301,1
309,314,317,302,1
309,315,318,303,1
310,315,319,304,1
309,314,318,305,1
309,311,317,305,1
308,307,315,304,1
308,303,313,303,1
308,299,311,303,1
308,297,309,303,1
307,296,307,303,1
305,296,304,303,1
303,296,301,301,1
301,296,299,300,1
302,298,301,300,1
303,300,304,298,1
304,302,306,296,1
305,303,308,294,1
304,305,308,293,1
303,306,308,293,1
303,304,309,294,1
303,303,309,299,1
304,305,308,304,1
306,308,308,309,1
307,313,308,311,1
306,318,307,312,1
304,323,306,313,1
302,324,305,312,1
298,319,304,310,1
296,311,302,309,1
294,303,302,307,1
294,297,301,305,1
295,295,301,303,1
297,295,302,300,1
298,295,302,298,1
299,295,300,295,1
299,295,298,293,1
298,294,297,293,1
297,295,297,296,1
298,298,299,301,1
301,301,300,304,1
303,303,302,307,1
303,305,303,310,1
304,307,305,312,1
305,310,307,312,1
305,312,307,312,1
304,313,307,310,1
303,315,307,307,1
302,316,307,305,1
301,317,306,302,1
301,320,306,301,1
301,323,306,300,1
301,327,306,300,1
302,332,308,302,1
302,338,309,305,1
305,345,311,309,1
307,349,313,313,1
307,346,314,317,1
307,338,314,320,1
305,328,314,322,1
303,320,313,323,1
303,315,312,322,1
303,311,311,319,1
304,307,309,316,1
306,304,307,313,1
307,304,305,312,1
307,303,305,312,1
306,301,304,312,1
306,296,304,312,1
305,288,304,311,1
304,280,303,308,1
302,274,300,305,1
300,271,297,302,1
300,271,296,300,1
300,274,297,299,1
301,278,299,299,1
302,282,301,300,1
301,285,302,300,1
300,288,302,300,1
300,290,302,300,1
301,292,303,300,1
304,294,305,299,1
307,297,307,297,1
312,300,309,298,1
315,304,310,300,1
316,310,310,301,1
316,317,310,301,1
315,322,310,300,1
313,323,309,298,1
310,320,306,295,1
307,315,304,295,1
304,310,302,297,1
302,306,301,301,1
300,305,300,304,1
298,306,300,307,1
299,309,300,309,1
299,312,301,307,1
301,314,301,304,1
302,314,301,299,1
303,315,301,295,1
303,316,301,295,1
304,319,302,298,1
304,319,303,304,1
305,319,304,310,1
304,316,303,314,1
303,312,302,317,1
302,307,300,316,1
301,302,300,315,1
301,297,302,314,1
303,294,306,315,1
305,294,310,317,1
307,295,313,318,1
308,297,314,318,1
309,299,314,317,1
309,303,314,314,1
308,308,313,312,1
306,313,311,311,1
305,317,308,309,1
305,319,306,309,1
306,319,304,309,1
308,317,305,310,1
311,312,307,311,1
315,306,309,313,1
317,303,311,313,1
318,301,311,312,1
317,299,311,310,1
314,299,310,307,1
310,299,308,305,1
307,300,306,302,1
304,300,305,299,1
303,299,305,298,1
303,298,305,298,1
303,298,306,299,1
303,299,306,301,1
303,301,306,304,1
303,305,305,308,1
302,310,304,312,1
300,317,302,315,1
298,326,298,317,1
296,333,295,319,1
295,339,293,319,1
295,342,291,318,1
296,342,291,316,1
298,338,291,314,1
300,332,292,311,1
302,327,292,308,1
303,325,292,306,1
305,325,294,306,1
307,323,297,307,1
309,318,300,307,1
308,309,304,308,1
306,301,307,308,1
304,294,310,308,1
302,290,311,307,1
301,287,311,306,1
300,286,310,304,1
299,284,308,301,1
299,282,307,298,1
301,282,307,295,1
303,284,307,295,1
305,287,307,296,1
306,290,306,297,1
306,293,305,296,1
307,296,303,295,1
306,298,303,294,1
307,301,303,292,1
308,303,302,291,1
308,305,303,292,1
310,308,304,295,1
310,312,305,299,1
310,316,306,303,1
311,318,306,305,1
311,320,307,306,1
311,320,307,307,1
310,321,308,307,1
310,319,308,308,1
309,314,309,309,1
309,309,308,309,1
308,304,307,310,1
307,300,305,310,1
306,296,303,311,1
306,294,302,310,1
306,293,303,310,1
306,295,306,310,1
306,296,308,309,1
305,298,310,307,1
305,300,310,305,1
305,302,310,304,1
306,304,309,303,1
306,305,308,302,1
307,305,307,300,1
307,305,305,298,1
306,305,302,296,1
305,306,299,295,1
304,311,297,293,1
304,320,298,293,1
305,332,300,296,1
307,346,304,300,1
309,358,308,306,1
312,368,313,314,1
315,374,317,320,1
317,373,319,324,1
318,363,319,325,1
317,344,317,322,1
316,318,315,319,1
315,294,313,316,1
314,277,310,314,1
313,267,309,312,1
312,262,308,310,1
310,261,308,308,1
306,263,308,307,1
304,266,307,306,1
301,269,307,306,1
300,271,307,306,1
299,273,307,306,1
299,276,307,306,1
299,281,307,307,1
300,285,308,307,1
301,289,307,307,1
301,293,306,306,1
301,296,306,306,1
302,299,305,305,1
304,301,306,306,1
306,304,307,307,1
309,307,308,308,1
311,308,307,309,1
310,308,306,309,1
308,309,306,310,1
307,309,307,311,1
307,309,308,310,1
307,309,309,308,1
306,308,307,304,1
304,307,304,300,1
302,306,303,297,1
300,305,303,295,1
300,303,305,295,1
300,301,306,296,1
299,299,306,298,1
298,299,306,302,1
297,300,306,307,1
296,302,305,311,1
296,302,303,311,1
295,299,300,307,1
295,296,297,304,1
295,294,297,301,1
297,295,297,299,1
298,299,297,297,1
298,303,297,296,1
297,306,298,295,1
297,310,299,294,1
298,314,300,295,1
301,318,302,297,1
304,319,305,299,1
307,318,308,302,1
309,316,311,304,1
309,314,315,305,1
309,312,318,305,1
309,309,318,305,1
308,307,318,304,1
308,307,317,304,1
308,308,316,303,1
308,310,316,301,1
309,312,317,300,1
309,314,317,299,1
309,317,318,299,1
309,319,317,300,1
308,319,317,302,1
307,317,315,303,1
305,315,314,304,1
304,315,312,305,1
304,318,311,307,1
305,325,311,308,1
306,333,310,308,1
308,340,310,308,1
309,342,309,307,1
310,340,309,307,1
311,335,310,309,1
310,327,310,310,1
308,317,309,310,1
305,306,307,308,1
302,296,306,306,1
298,287,305,303,1
296,280,305,301,1
296,278,304,300,1
296,278,303,299,1
297,281,302,298,1
300,286,302,298,1
302,292,303,298,1
305,297,304,298,1
306,301,305,300,1
307,304,305,302,1
307,304,305,305,1
305,302,306,307,1
304,301,307,309,1
302,303,308,309,1
302,305,308,310,1
302,307,308,311,1
302,311,309,311,1
302,312,309,311,1
303,311,310,310,1
303,307,311,310,1
304,306,311,312,1
304,305,311,313,1
304,306,311,314,1
304,309,311,314,1
304,311,310,313,1
304,312,309,311,1
304,310,308,308,1
304,307,307,305,1
304,304,306,303,1
305,301,305,302,1
306,301,305,303,1
306,302,305,305,1
305,303,304,307,1
304,303,302,308,1
303,305,300,309,1
305,307,299,311,1
309,311,301,313,1
314,315,303,316,1
317,316,305,318,1
318,315,309,320,1
316,313,312,322,1
312,312,313,322,1
306,310,311,321,1
299,309,309,319,1
295,310,306,318,1
292,312,303,316,1
291,314,301,314,1
292,316,301,313,1
293,320,301,312,1
295,325,301,312,1
296,330,302,312,1
297,333,303,310,1
298,333,305,308,1
299,329,308,304,1
300,318,309,300,1
302,305,310,296,1
302,292,309,292,1
303,283,306,289,1
302,278,303,288,1
301,276,303,287,1
301,278,304,287,1
302,281,306,289,1
304,283,308,291,1
307,288,311,294,1
309,294,313,296,1
311,301,313,297,1
312,308,312,299,1
312,316,309,302,1
311,322,306,306,1
311,326,304,310,1
310,324,303,313,1
309,317,303,313,1
308,308,306,312,1
308,301,308,309,1
309,296,311,306,1
308,294,312,301,1
307,294,311,298,1
306,297,309,296,1
306,301,305,295,1
306,305,303,296,1
307,310,303,299,1
309,314,305,305,1
310,315,306,309,1
312,314,307,311,1
311,312,308,312,1
310,310,309,311,1
309,305,309,310,1
307,300,309,308,1
305,296,309,308,1
306,295,310,310,1
306,295,310,312,1
307,296,311,314,1
307,297,312,315,1
308,299,312,315,1
308,299,312,314,1
308,299,310,312,1
307,298,309,310,1
306,297,308,309,1
306,297,308,307,1
305,299,309,307,1
306,302,309,306,1
307,307,310,306,1
308,313,310,305,1
309,319,309,305,1
310,323,309,305,1
310,324,309,307,1
310,321,308,308,1
310,315,308,310,1
311,311,308,311,1
311,307,309,311,1
311,305,308,311,1
311,304,305,309,1
312,304,302,309,1
313,304,299,309,1
316,305,298,310,1
317,306,298,310,1
317,306,299,310,1
315,306,300,309,1
311,308,302,308,1
308,313,303,307,1
306,320,303,305,1
304,328,304,301,1
304,334,306,299,1
304,340,307,296,1
302,341,306,294,1
301,335,305,293,1
301,327,305,295,1
301,320,305,300,1
303,316,306,306,1
305,313,308,312,1
306,312,310,317,1
307,313,311,321,1
306,314,311,324,1
303,315,311,325,1
300,314,309,323,1
297,310,307,319,1
297,304,305,314,1
298,299,303,309,1
300,295,301,304,1
300,292,300,300,1
301,290,298,296,1
301,289,297,294,1
301,289,297,294,1
303,291,297,296,1
303,293,297,297,1
302,296,295,299,1
303,302,295,302,1
305,311,296,305,1
308,320,297,310,1
307,326,298,314,1
307,329,299,316,1
306,329,301,317,1
306,326,304,316,1
307,318,308,315,1
308,310,310,313,1
308,303,312,310,1
307,297,312,307,1
306,290,312,304,1
304,286,312,302,1
303,285,312,302,1
303,286,312,303,1
303,289,312,305,1
304,294,312,307,1
304,298,310,308,1
305,302,308,308,1
305,304,307,306,1
304,306,306,304,1
304,307,305,301,1
303,306,306,298,1
302,304,307,295,1
302,303,308,293,1
303,302,308,292,1
303,301,308,291,1
303,301,307,292,1
304,303,307,294,1
304,305,308,297,1
305,306,309,300,1
305,308,309,303,1
305,311,310,305,1
306,313,309,308,1
307,316,309,309,1
309,320,309,309,1
310,326,308,310,1
312,333,307,308,1
311,339,305,306,1
310,342,303,304,1
308,345,301,301,1
307,345,298,301,1
306,343,297,304,1
306,340,296,310,1
305,333,297,317,1
306,323,300,323,1
306,311,304,326,1
306,302,308,327,1
306,297,309,326,1
306,296,309,324,1
309,296,309,320,1
311,294,310,317,1
314,292,310,313,1
316,291,310,312,1
316,290,310,310,1
315,290,310,310,1
314,292,310,309,1
313,295,310,309,1
309,297,309,306,1
305,298,307,303,1
302,299,305,300,1
300,301,303,297,1
299,303,301,296,1
300,306,300,295,1
301,310,301,296,1
302,313,303,296,1
305,315,305,298,1
306,316,307,300,1
308,315,308,301,1
309,313,308,302,1
309,311,309,303,1
309,307,308,305,1
309,303,305,307,1
309,300,302,309,1
309,299,298,309,1
309,299,294,310,1
307,298,293,309,1
306,298,292,309,1
303,297,293,308,1
302,297,295,306,1
302,297,297,304,1
303,296,297,301,1
304,293,296,298,1
305,291,295,295,1
305,290,295,293,1
306,291,297,294,1
308,294,300,297,1
309,299,304,304,1
311,304,308,311,1
313,307,310,316,1
314,310,312,318,1
315,310,311,318,1
316,311,311,317,1
318,311,311,316,1
317,311,311,315,1
317,309,311,312,1
315,305,311,309,1
314,302,310,306,1
311,299,309,305,1
308,296,309,305,1
306,294,308,307,1
304,294,306,309,1
301,297,303,312,1
298,302,299,313,1
296,308,296,312,1
294,313,294,309,1
294,317,293,304,1
295,316,292,297,1
297,309,292,288,1
298,298,292,280,1
298,288,292,274,1
300,282,293,273,1
301,280,294,276,1
304,282,295,281,1
308,288,297,287,1
312,294,300,294,1
316,299,302,299,1
317,303,303,303,1
316,305,301,306,1
314,306,300,308,1
312,307,301,311,1
310,309,303,313,1
308,310,305,315,1
308,311,307,317,1
308,311,308,318,1
308,309,309,318,1
308,305,310,318,1
308,301,311,317,1
307,299,311,315,1
306,303,312,315,1
306,311,313,317,1
306,320,313,318,1
305,330,312,318,1
306,338,310,315,1
305,342,308,313,1
305,339,306,311,1
304,330,306,309,1
304,317,307,308,1
307,306,309,307,1
310,297,310,307,1
312,291,310,307,1
313,286,310,307,1
314,284,309,307,1
314,284,308,308,1
313,285,307,309,1
311,287,306,309,1
309,289,304,309,1
305,292,302,308,1
303,296,299,306,1
301,300,298,303,1
300,305,297,301,1
301,311,297,303,1
302,315,298,307,1
303,315,299,311,1
305,312,300,314,1
308,308,300,314,1
312,304,301,314,1
315,303,303,311,1
317,305,305,306,1
316,308,305,302,1
315,311,305,301,1
314,315,307,303,1
313,314,310,306,1
310,308,311,309,1
307,299,312,312,1
303,291,313,315,1
300,286,313,317,1
299,285,314,319,1
299,287,314,319,1
300,291,313,317,1
301,296,312,314,1
302,301,309,310,1
301,305,307,305,1
301,308,304,302,1
301,309,303,301,1
302,309,304,302,1
304,308,307,304,1
305,308,310,308,1
308,308,313,313,1
309,310,315,316,1
310,312,316,318,1
311,312,317,318,1
311,309,317,315,1
311,305,316,312,1
311,301,316,310,1
312,297,315,308,1
311,294,314,307,1
309,292,312,306,1
306,290,310,306,1
303,289,309,308,1
300,291,307,310,1
299,295,306,313,1
300,300,305,317,1
301,304,304,320,1
303,308,303,322,1
305,311,302,323,1
306,312,301,322,1
304,311,297,320,1
302,308,294,316,1
298,304,292,312,1
296,302,291,307,1
295,302,289,304,1
296,305,288,301,1
299,307,290,302,1
303,313,293,306,1
308,320,298,313,1
312,326,303,318,1
315,327,306,323,1
315,324,309,325,1
313,319,311,325,1
311,316,312,325,1
310,314,313,323,1
308,314,313,321,1
307,312,312,319,1
305,309,310,316,1
304,307,309,314,1
303,305,308,312,1
303,306,309,311,1
305,307,310,311,1
308,308,311,311,1
311,308,312,311,1
313,306,311,310,1
313,304,311,310,1
313,303,312,311,1
313,303,312,311,1
311,305,312,310,1
309,311,312,308,1
307,320,311,306,1
306,331,308,305,1
306,343,305,305,1
305,352,303,303,1
305,356,301,300,1
304,355,299,297,1
304,346,297,294,1
302,330,296,293,1
302,315,296,295,1
302,302,295,297,1
303,293,295,298,1
303,285,294,300,1
303,280,293,301,1
304,277,294,303,1
305,277,294,304,1
306,277,296,305,1
308,279,298,304,1
311,280,300,304,1
313,281,302,305,1
314,282,304,305,1
314,284,304,305,1
312,286,302,304,1
309,287,299,302,1
307,288,298,300,1
306,290,297,298,1
307,294,298,296,1
308,298,299,295,1
309,301,300,294,1
310,302,303,293,1
310,304,305,295,1
312,307,308,301,1
313,310,309,307,1
313,312,309,311,1
310,312,307,313,1
307,310,305,313,1
305,307,303,312,1
304,306,302,311,1
304,308,300,309,1
303,311,299,307,1
303,315,298,306,1
303,319,298,305,1
304,322,300,305,1
306,326,301,305,1
307,327,301,304,1
309,324,300,303,1
310,322,300,303,1
310,321,299,304,1
310,324,300,307,1
310,327,301,310,1
311,329,302,312,1
311,329,302,314,1
309,326,301,314,1
308,322,301,313,1
307,317,300,310,1
306,312,300,307,1
306,306,300,305,1
305,300,299,305,1
305,297,298,305,1
304,297,296,304,1
304,301,296,304,1
303,307,297,304,1
303,311,297,304,1
304,314,296,303,1
305,311,295,301,1
306,305,294,299,1
307,298,294,299,1
308,295,295,297,1
310,295,297,296,1
310,300,299,295,1
309,308,302,294,1
308,315,304,294,1
305,318,306,294,1
303,315,305,295,1
300,307,303,295,1
300,299,301,295,1
301,294,299,296,1
305,291,297,296,1
310,291,296,296,1
315,292,297,296,1
319,295,298,296,1
322,300,300,299,1
324,304,301,304,1
323,306,301,309,1
319,305,298,311,1
314,303,296,312,1
309,300,293,311,1
307,299,292,311,1
307,300,293,311,1
308,301,294,311,1
308,302,295,310,1
308,302,297,308,1
306,300,297,305,1
305,299,298,304,1
303,299,299,303,1
302,299,300,302,1
303,300,300,303,1
303,303,300,304,1
304,305,299,305,1
305,307,297,305,1
305,310,296,305,1
306,312,296,304,1
306,313,296,301,1
305,313,295,299,1
304,313,294,297,1
303,313,291,297,1
302,315,290,298,1
303,317,289,299,1
304,319,290,301,1
306,322,292,304,1
309,327,296,308,1
312,333,298,312,1
315,335,300,316,1
316,332,301,316,1
316,327,300,316,1
315,320,298,315,1
313,314,297,314,1
310,308,295,313,1
307,302,295,312,1
304,298,295,311,1
303,295,296,310,1
303,293,297,309,1
303,293,297,308,1
303,293,297,309,1
303,294,297,310,1
302,296,297,310,1
302,297,297,309,1
302,297,297,306,1
303,297,297,302,1
305,299,297,299,1
306,303,297,299,1
306,307,296,300,1
305,315,294,302,1
305,325,293,306,1
304,335,292,311,1
303,343,291,315,1
304,348,291,317,1
304,347,291,316,1
304,339,292,314,1
303,327,293,311,1
303,315,295,308,1
302,306,298,305,1
302,301,299,302,1
301,299,300,299,1
301,301,301,298,1
301,304,302,298,1
302,305,303,298,1
302,305,303,299,1
302,306,302,301,1
303,309,302,304,1
306,311,303,306,1
308,311,304,309,1
310,307,303,311,1
311,302,303,312,1
312,297,303,314,1
313,294,304,317,1
313,294,303,319,1
313,295,302,320,1
311,296,300,319,1
308,296,298,317,1
305,296,295,314,1
304,297,295,312,1
305,298,295,310,1
307,298,298,309,1
309,298,301,308,1
312,298,303,306,1
312,297,304,303,1
311,298,304,301,1
308,300,304,301,1
306,303,305,303,1
305,307,306,305,1
303,311,305,307,1
301,312,304,308,1
301,313,303,309,1
302,312,301,308,1
302,310,300,307,1
302,308,300,307,1
302,307,301,309,1
302,307,301,312,1
303,309,302,314,1
305,310,303,316,1
306,309,303,317,1
307,305,301,316,1
307,298,298,314,1
306,293,296,312,1
305,291,293,310,1
304,290,291,309,1
301,290,290,309,1
300,290,290,311,1
299,293,292,313,1
300,297,294,315,1
302,302,297,316,1
305,308,299,316,1
308,312,301,316,1
310,317,300,314,1
310,323,298,311,1
309,328,296,307,1
308,332,293,301,1
306,334,290,297,1
304,334,289,295,1
303,331,290,294,1
302,323,292,294,1
302,312,294,296,1
302,302,297,299,1
301,295,299,302,1
299,291,301,306,1
299,288,302,308,1
299,286,303,308,1
299,285,304,306,1
298,285,305,304,1
298,288,306,303,1
300,291,306,304,1
301,295,306,306,1
302,299,306,308,1
303,303,306,310,1
304,306,305,312,1
303,310,305,312,1
302,314,305,312,1
301,320,306,311,1
302,327,308,310,1
303,332,309,309,1
304,333,309,306,1
303,329,307,304,1
302,321,305,302,1
301,310,304,302,1
301,303,302,305,1
301,300,301,310,1
302,298,301,315,1
304,298,302,317,1
306,298,305,318,1
307,298,306,315,1
307,297,307,312,1
305,297,307,310,1
304,299,306,308,1
303,300,306,309,1
303,302,305,309,1
302,303,304,308,1
301,303,302,306,1
299,303,301,305,1
297,304,301,304,1
297,305,301,302,1
298,305,302,300,1
300,305,303,299,1
302,305,305,299,1
305,306,306,299,1
309,308,307,299,1
312,308,306,300,1
314,309,306,300,1
315,310,305,300,1
315,313,303,301,1
313,316,303,303,1
309,318,304,304,1
305,319,306,307,1
303,319,308,309,1
303,318,310,311,1
303,316,312,313,1
304,313,311,314,1
305,310,310,314,1
304,307,307,313,1
303,307,303,311,1
301,309,300,310,1
299,314,299,310,1
297,320,299,312,1
296,325,301,312,1
297,326,304,311,1
297,325,308,310,1
298,319,310,307,1
298,310,311,303,1
298,304,309,299,1
296,301,306,296,1
296,302,304,291,1
294,303,303,287,1
293,304,302,286,1
294,304,302,287,1
294,305,301,289,1
294,305,300,293,1
295,304,300,297,1
296,302,299,302,1
297,299,300,306,1
299,296,300,309,1
299,292,299,311,1
300,289,297,311,1
299,287,295,309,1
299,287,294,307,1
297,289,294,306,1
297,292,296,305,1
299,295,299,304,1
300,298,302,303,1
303,302,304,301,1
304,306,306,299,1
306,310,306,297,1
307,314,307,295,1
308,318,307,294,1
308,320,307,295,1
307,320,306,296,1
305,321,306,298,1
304,323,306,302,1
304,326,307,306,1
305,329,308,310,1
307,328,307,313,1
310,326,305,315,1
312,324,304,316,1
314,318,302,316,1
313,312,302,314,1
311,305,303,312,1
306,299,304,310,1
302,295,304,310,1
299,294,305,311,1
297,295,306,312,1
297,295,307,314,1
297,295,306,315,1
297,295,306,315,1
298,299,305,316,1
299,304,304,317,1
302,309,303,318,1
305,314,301,317,1
309,319,299,316,1
311,323,298,314,1
311,324,297,313,1
309,320,298,311,1
306,313,299,311,1
303,308,301,312,1
301,309,303,313,1
301,314,305,313,1
302,320,307,311,1
303,327,307,309,1
304,332,306,308,1
305,332,305,308,1
307,325,305,309,1
308,313,304,310,1
308,300,304,310,1
308,291,304,309,1
307,285,304,309,1
306,283,305,311,1
305,282,305,313,1
304,282,306,313,1
302,282,305,313,1
301,282,303,313,1
300,284,301,312,1
299,287,300,311,1
299,291,301,311,1
299,297,302,312,1
300,303,303,312,1
301,309,304,313,1
301,315,305,312,1
302,319,306,312,1
302,319,307,313,1
302,316,308,313,1
303,312,308,315,1
303,308,308,316,1
302,305,306,318,1
302,303,303,319,1
301,303,301,319,1
301,303,299,319,1
300,304,298,318,1
299,304,299,317,1
299,304,300,315,1
300,304,302,313,1
300,302,303,311,1
300,299,302,309,1
300,296,300,306,1
300,294,298,304,1
300,294,297,303,1
301,297,297,304,1
302,301,298,306,1
304,306,299,309,1
305,312,301,310,1
305,314,302,310,1
305,315,302,309,1
304,316,301,308,1
303,316,300,306,1
303,315,298,304,1
303,312,299,303,1
304,310,301,302,1
306,310,304,303,1
309,313,307,307,1
310,319,309,312,1
311,324,310,313,1
311,325,309,311,1
311,321,307,306,1
312,319,306,302,1
313,317,305,299,1
313,316,305,298,1
315,315,308,299,1
316,315,311,300,1
317,316,313,302,1
316,318,312,304,1
313,320,310,306,1
310,322,309,310,1
308,322,309,316,1
308,319,310,321,1
308,313,310,324,1
309,302,310,326,1
309,290,309,325,1
308,280,308,324,1
306,274,304,321,1
306,270,301,319,1
307,270,297,317,1
309,272,294,316,1
311,276,293,313,1
314,280,293,309,1
315,284,295,305,1
314,286,295,302,1
309,287,295,300,1
304,288,295,300,1
301,291,296,302,1
298,294,296,305,1
299,298,298,309,1
301,302,300,313,1
303,306,302,316,1
304,308,303,317,1
304,308,304,317,1
304,308,304,315,1
303,308,304,312,1
304,309,304,311,1
305,310,305,311,1
306,312,304,312,1
306,314,304,314,1
307,317,305,316,1
308,319,305,318,1
309,320,306,320,1
309,321,306,320,1
309,322,306,320,1
309,323,307,320,1
309,323,306,320,1
309,321,305,319,1
309,319,302,319,1
308,317,300,318,1
308,316,297,317,1
307,315,294,314,1
306,315,292,311,1
306,317,288,309,1
306,319,288,307,1
306,321,289,307,1
307,321,291,307,1
308,318,294,306,1
308,312,297,306,1
308,304,299,306,1
308,297,301,306,1
308,292,302,305,1
306,288,302,304,1
305,288,301,305,1
305,290,301,307,1
305,292,301,308,1
306,294,300,309,1
306,297,301,310,1
308,302,303,312,1
309,308,304,314,1
310,312,305,314,1
310,314,305,312,1
310,313,305,309,1
310,310,304,305,1
309,307,303,302,1
309,306,301,300,1
308,307,299,299,1
308,310,298,298,1
307,314,298,299,1
308,323,299,303,1
310,334,300,307,1
311,345,302,309,1
311,352,302,308,1
311,354,301,306,1
310,348,300,303,1
308,337,298,299,1
306,324,296,296,1
305,310,295,293,1
305,297,293,293,1
305,286,291,295,1
305,278,290,297,1
306,274,292,299,1
307,274,297,300,1
309,276,302,300,1
311,280,307,302,1
312,284,310,304,1
312,288,311,307,1
311,291,311,309,1
310,294,310,310,1
310,295,310,311,1
309,296,309,311,1
308,296,308,311,1
307,297,307,312,1
308,300,306,314,1
308,303,304,317,1
308,304,302,319,1
306,305,300,319,1
304,304,300,317,1
304,304,302,316,1
305,305,304,315,1
306,307,306,315,1
308,311,308,315,1
310,314,309,315,1
311,317,309,314,1
311,319,308,312,1
310,322,306,311,1
309,324,304,310,1
308,327,303,310,1
308,331,303,312,1
309,333,305,313,1
311,333,307,315,1
312,331,308,316,1
312,331,309,317,1
309,331,308,318,1
307,331,308,317,1
306,330,308,315,1
305,329,307,312,1
305,325,305,309,1
304,320,304,307,1
304,311,303,305,1
303,299,302,303,1
303,288,301,302,1
303,281,301,303,1
304,278,302,305,1
304,278,303,306,1
304,280,303,306,1
304,282,303,306,1
304,285,302,306,1
303,287,300,306,1
303,288,299,307,1
304,289,300,308,1
304,291,301,307,1
305,293,304,307,1
307,297,307,306,1
309,303,309,306,1
311,309,310,305,1
311,316,310,303,1
311,323,309,302,1
311,330,308,301,1
311,333,309,301,1
311,333,309,300,1
311,329,308,299,1
311,323,309,297,1
310,317,309,296,1
309,313,308,298,1
308,311,307,300,1
306,305,305,303,1
305,299,302,303,1
304,296,299,304,1
303,298,297,304,1
304,305,296,304,1
304,312,297,305,1
304,318,298,307,1
304,319,299,308,1
305,312,300,309,1
305,301,301,308,1
306,290,304,307,1
307,282,306,306,1
309,278,307,305,1
310,278,307,306,1
312,281,306,308,1
313,283,305,308,1
314,286,304,308,1
314,288,304,308,1
314,290,304,306,1
313,290,304,302,1
311,289,303,298,1
308,289,302,295,1
307,290,302,295,1
307,294,303,298,1
308,300,306,303,1
309,307,309,309,1
311,314,313,314,1
313,320,314,319,1
314,324,316,323,1
315,328,316,326,1
316,330,317,328,1
316,330,317,326,1
315,328,316,324,1
314,324,316,322,1
314,322,315,319,1
313,320,314,318,1
314,319,312,315,1
313,316,310,313,1
311,312,308,310,1
309,309,305,308,1
308,305,303,307,1
308,304,302,306,1
308,303,302,306,1
307,301,302,304,1
305,300,303,303,1
305,300,305,302,1
307,303,307,304,1
309,308,309,307,1
311,311,310,309,1
311,309,309,308,1
310,302,306,306,1
308,297,305,305,1
307,294,306,304,1
307,294,306,303,1
307,297,307,302,1
308,301,308,301,1
309,309,308,301,1
311,319,308,302,1
314,331,309,305,1
317,341,311,308,1
319,346,313,311,1
319,342,314,313,1
319,331,314,314,1
315,317,313,314,1
311,305,312,314,1
308,295,312,313,1
306,290,311,313,1
305,288,310,312,1
303,289,308,311,1
301,294,306,310,1
300,300,305,308,1
299,306,305,307,1
300,311,304,306,1
303,313,303,305,1
307,312,304,305,1
309,309,303,303,1
310,305,303,303,1
310,301,304,302,1
310,299,304,302,1
308,298,304,300,1
306,298,304,299,1
303,298,303,297,1
302,299,302,297,1
300,299,299,298,1
299,298,296,299,1
298,298,294,301,1
297,298,293,305,1
297,298,295,308,1
298,299,299,309,1
300,300,302,310,1
301,300,304,310,1
302,301,304,310,1
303,302,305,310,1
303,304,306,311,1
304,306,307,312,1
305,308,309,314,1
306,308,311,314,1
307,308,313,313,1
308,308,316,314,1
309,310,318,314,1
310,312,320,315,1
311,314,320,316,1
312,314,319,317,1
313,311,319,316,1
315,309,317,314,1
316,306,316,309,1
316,305,312,303,1
315,305,308,297,1
314,307,304,292,1
312,308,302,288,1
311,308,300,286,1
310,309,301,289,1
308,312,304,296,1
307,315,306,304,1
306,317,309,312,1
306,315,311,315,1
305,313,310,316,1
305,309,308,315,1
305,307,307,313,1
306,306,306,311,1
308,306,306,309,1
309,308,307,308,1
311,311,309,309,1
312,313,311,309,1
311,315,312,311,1
310,317,312,313,1
309,319,311,316,1
309,323,310,319,1
309,329,307,323,1
309,334,304,326,1
310,337,301,326,1
312,338,300,325,1
316,337,300,323,1
319,335,301,320,1
320,329,302,317,1
318,320,303,313,1
314,311,302,310,1
309,303,301,306,1
303,298,301,303,1
298,296,301,300,1
295,297,302,298,1
294,299,302,297,1
294,303,302,297,1
296,306,302,297,1
299,309,302,299,1
300,310,301,300,1
301,309,300,301,1
301,305,300,299,1
301,300,300,299,1
301,291,301,298,1
301,283,303,297,1
302,277,304,296,1
303,275,304,296,1
304,275,304,298,1
305,278,303,301,1
305,282,303,304,1
307,288,304,307,1
308,292,306,310,1
309,296,307,312,1
308,297,308,314,1
307,299,309,317,1
307,301,309,318,1
306,303,309,319,1
305,306,309,319,1
304,311,308,320,1
304,316,307,321,1
303,318,308,322,1
303,319,309,323,1
305,316,310,323,1
306,310,311,321,1
308,304,310,319,1
309,302,310,316,1
310,303,309,313,1
309,304,306,311,1
307,304,303,308,1
305,302,299,307,1
303,302,297,306,1
303,303,298,306,1
303,303,301,306,1
304,304,303,305,1
305,306,305,305,1
307,309,307,306,1
309,311,309,307,1
311,313,312,309,1
311,314,313,311,1
311,313,315,311,1
310,313,315,310,1
309,313,314,309,1
308,314,313,307,1
306,315,310,306,1
304,315,307,306,1
302,314,303,305,1
299,312,300,304,1
297,310,298,304,1
296,308,297,304,1
297,309,298,303,1
298,313,300,303,1
299,320,302,302,1
301,327,304,302,1
302,332,306,304,1
304,334,306,306,1
306,332,306,308,1
306,324,305,308,1
305,311,304,307,1
302,298,303,306,1
300,286,301,306,1
299,278,300,307,1
298,273,301,308,1
298,271,302,310,1
299,272,305,313,1
299,276,308,316,1
300,281,311,318,1
301,286,314,319,1
303,291,317,318,1
305,295,319,316,1
308,299,320,313,1
310,302,320,312,1
311,303,319,311,1
312,300,317,310,1
311,295,313,308,1
308,290,308,306,1
306,287,303,304,1
304,284,300,303,1
301,283,298,301,1
300,283,298,301,1
301,285,299,301,1
303,288,301,301,1
307,291,302,299,1
312,295,303,296,1
317,298,304,293,1
320,300,305,289,1
321,301,305,288,1
319,303,306,289,1
315,306,307,295,1
310,311,309,301,1
305,315,310,306,1
302,321,310,310,1
301,327,309,313,1
301,331,310,315,1
302,331,311,317,1
303,326,312,318,1
302,320,312,319,1
301,315,312,320,1
300,310,312,321,1
299,304,310,320,1
297,299,309,319,1
296,296,308,318,1
295,294,308,318,1
295,294,308,317,1
294,295,308,317,1
294,297,308,315,1
294,301,308,312,1
295,304,308,309,1
295,309,308,306,1
295,312,308,303,1
295,314,308,300,1
295,314,309,298,1
296,312,309,296,1
296,309,309,292,1
296,306,308,289,1
298,305,307,286,1
300,305,306,285,1
301,308,305,286,1
303,311,304,290,1
306,315,305,295,1
308,319,305,301,1
309,325,306,308,1
308,332,306,313,1
305,337,306,315,1
302,340,305,317,1
299,341,305,319,1
297,336,304,320,1
295,327,304,320,1
296,313,305,320,1
298,298,308,320,1
300,287,309,319,1
301,280,309,316,1
301,278,308,313,1
300,278,307,308,1
299,280,307,304,1
299,282,307,302,1
300,283,308,301,1
301,282,309,301,1
302,281,310,301,1
303,281,309,301,1
304,281,307,300,1
304,282,304,299,1
304,284,300,298,1
304,286,298,296,1
301,290,296,295,1
299,293,295,292,1
297,296,296,290,1
296,298,298,289,1
296,300,301,288,1
296,302,302,289,1
297,304,304,291,1
300,307,304,295,1
302,309,303,298,1
303,311,300,299,1
302,312,298,300,1
301,315,296,301,1
302,316,296,303,1
303,315,298,304,1
304,314,301,306,1
305,313,305,311,1
306,311,308,316,1
306,310,311,319,1
306,309,313,322,1
306,310,314,323,1
306,312,316,323,1
307,312,316,322,1
307,310,316,321,1
307,308,316,319,1
307,306,315,316,1
307,306,315,314,1
307,306,314,312,1
308,305,313,310,1
309,305,311,308,1
310,307,309,306,1
312,308,306,304,1
315,308,305,303,1
316,310,305,305,1
316,314,305,307,1
315,318,304,309,1
313,322,304,310,1
310,327,305,308,1
308,333,306,307,1
306,339,307,306,1
304,343,306,304,1
303,347,305,303,1
302,350,306,304,1
303,352,308,307,1
305,351,311,310,1
306,343,312,313,1
305,330,312,313,1
302,314,309,310,1
300,302,306,307,1
299,294,304,303,1
300,291,303,300,1
303,288,304,299,1
306,286,306,300,1
309,284,306,303,1
310,282,307,305,1
312,280,307,307,1
313,277,307,309,1
314,276,306,310,1
314,277,304,313,1
313,278,303,315,1
312,280,300,316,1
308,282,299,315,1
305,284,300,314,1
302,288,303,313,1
300,292,305,312,1
299,293,305,312,1
299,291,304,312,1
299,289,303,312,1
301,288,304,311,1
303,289,306,310,1
304,291,309,308,1
306,292,310,306,1
306,293,310,303,1
306,294,309,301,1
305,293,307,299,1
304,292,306,297,1
302,292,305,293,1
301,291,304,290,1
301,292,305,289,1
302,294,306,288,1
302,295,308,289,1
303,296,309,291,1
304,297,309,295,1
306,301,309,300,1
308,307,307,304,1
309,312,306,306,1
310,314,305,306,1
310,316,305,305,1
310,319,305,305,1
310,322,306,306,1
310,325,308,308,1
310,326,308,312,1
309,326,308,318,1
308,322,308,322,1
305,316,309,326,1
302,311,309,329,1
301,305,310,330,1
302,303,311,329,1
305,302,312,327,1
309,303,313,324,1
312,305,313,321,1
313,306,313,318,1
314,304,311,313,1
312,302,307,309,1
309,303,304,306,1
307,307,303,306,1
305,315,304,306,1
305,324,306,309,1
306,333,309,314,1
308,341,311,318,1
311,345,312,319,1
313,343,312,318,1
315,338,312,315,1
317,331,312,312,1
317,323,311,309,1
316,313,309,305,1
312,303,307,302,1
307,294,305,299,1
304,290,304,299,1
304,290,304,302,1
303,293,303,306,1
304,297,302,310,1
304,301,301,313,1
303,303,301,316,1
303,303,303,317,1
302,302,304,317,1
303,299,305,316,1
305,294,307,315,1
307,290,309,313,1
310,288,311,312,1
311,287,313,310,1
311,288,314,308,1
311,289,315,306,1
311,291,314,304,1
311,292,314,304,1
311,295,313,304,1
311,297,312,305,1
310,297,310,307,1
308,297,308,309,1
307,297,306,312,1
305,299,305,314,1
303,303,303,315,1
302,309,304,316,1
301,315,307,316,1
302,320,311,314,1
302,323,313,311,1
302,322,313,308,1
301,317,314,306,1
301,308,313,304,1
300,301,312,302,1
300,297,309,302,1
300,298,305,304,1
302,302,303,304,1
304,305,303,306,1
305,307,303,308,1
306,308,306,310,1
307,308,310,312,1
307,307,312,313,1
308,305,313,312,1
307,303,312,311,1
306,302,311,311,1
305,300,311,310,1
306,297,311,310,1
307,295,312,309,1
308,295,313,309,1
309,296,315,310,1
309,298,315,311,1
309,301,314,310,1
307,304,312,307,1
306,308,309,303,1
305,316,307,298,1
303,326,306,296,1
302,338,307,297,1
303,349,309,299,1
305,356,312,304,1
306,357,314,309,1
307,350,315,314,1
306,332,314,316,1
305,311,313,314,1
304,292,311,311,1
304,279,310,307,1
304,271,309,303,1
303,269,308,301,1
303,270,309,300,1
303,273,311,301,1
303,277,312,303,1
304,282,312,304,1
305,286,312,307,1
306,288,311,308,1
306,289,310,307,1
306,289,309,305,1
306,288,308,302,1
308,290,308,301,1
311,293,309,301,1
313,297,310,303,1
315,301,311,304,1
313,306,312,307,1
309,309,312,310,1
305,310,311,311,1
302,310,309,310,1
300,308,307,308,1
299,305,306,306,1
299,305,305,303,1
300,309,305,302,1
302,314,306,301,1
304,319,307,301,1
304,323,307,302,1
305,326,308,304,1
304,326,309,306,1
303,325,311,308,1
304,324,313,311,1
307,324,316,314,1
311,325,317,317,1
313,322,318,318,1
314,315,317,316,1
312,305,314,313,1
309,296,311,310,1
305,289,309,308,1
302,286,308,305,1
299,285,310,304,1
298,286,312,304,1
297,290,312,305,1
297,295,311,308,1
298,299,309,312,1
298,301,308,315,1
298,299,306,315,1
298,297,306,314,1
299,296,306,312,1
300,295,307,310,1
301,297,311,309,1
303,300,316,309,1
305,302,319,309,1
306,305,321,308,1
306,310,322,306,1
305,316,321,303,1
305,322,320,300,1
305,327,319,296,1
305,333,317,293,1
306,339,316,293,1
306,345,315,293,1
307,347,315,293,1
306,345,315,294,1
305,343,314,296,1
305,340,314,300,1
305,333,315,305,1
305,321,314,309,1
304,306,314,311,1
303,295,313,313,1
302,290,313,315,1
303,288,313,317,1
303,288,313,317,1
303,287,312,317,1
304,287,311,317,1
306,287,311,317,1
306,288,311,317,1
307,290,310,318,1
307,291,310,319,1
308,293,310,320,1
309,295,310,321,1
307,295,309,320,1
303,295,306,317,1
300,294,305,314,1
299,295,304,311,1
298,295,305,307,1
298,295,306,304,1
299,298,307,305,1
300,303,309,308,1
301,309,310,311,1
302,316,312,313,1
302,322,314,314,1
301,325,315,314,1
300,323,315,314,1
300,318,316,312,1
301,311,317,310,1
304,305,316,309,1
305,302,316,309,1
307,300,315,309,1
308,301,315,309,1
308,303,314,310,1
307,307,313,312,1
307,312,312,315,1
306,314,312,316,1
305,315,312,316,1
305,313,311,314,1
305,311,311,310,1
306,306,311,306,1
306,301,311,303,1
305,296,310,300,1
304,293,309,297,1
305,292,309,296,1
307,294,309,295,1
311,298,311,296,1
314,303,312,298,1
317,309,312,301,1
318,314,311,303,1
315,317,309,303,1
312,319,307,303,1
309,320,305,303,1
308,320,305,303,1
307,321,306,302,1
306,324,308,302,1
306,326,309,301,1
305,328,310,300,1
305,330,310,299,1
305,332,308,298,1
305,331,306,298,1
304,327,304,300,1
301,319,303,302,1
299,312,303,306,1
297,309,303,310,1
298,308,304,311,1
297,308,303,311,1
297,310,302,311,1
297,314,301,310,1
298,317,299,309,1
299,317,299,308,1
301,314,301,306,1
303,309,305,304,1
306,305,309,303,1
309,303,314,305,1
311,302,317,308,1
312,300,319,310,1
313,296,318,309,1
312,292,317,307,1
311,288,314,304,1
310,287,311,304,1
310,289,310,306,1
312,292,311,307,1
313,296,313,307,1
314,301,316,309,1
315,307,317,310,1
316,312,317,312,1
316,314,317,313,1
315,317,316,313,1
315,320,316,313,1
314,322,315,312,1
312,321,313,309,1
310,317,310,305,1
307,312,306,302,1
305,309,305,301,1
304,308,304,302,1
304,308,305,303,1
306,308,306,304,1
308,307,308,305,1
310,305,310,306,1
313,303,311,307,1
314,301,312,306,1
313,300,311,305,1
311,298,309,304,1
308,295,308,303,1
305,291,306,300,1
304,288,305,298,1
303,287,303,297,1
303,289,303,297,1
303,292,303,297,1
304,294,305,298,1
307,297,307,300,1
309,301,308,302,1
311,305,308,303,1
312,312,307,305,1
312,321,305,308,1
311,332,303,310,1
309,342,302,311,1
307,351,301,312,1
307,358,302,313,1
308,359,303,312,1
310,353,303,309,1
312,342,303,305,1
312,328,302,300,1
312,311,301,295,1
311,296,300,291,1
308,284,300,290,1
305,277,301,293,1
303,277,303,298,1
302,279,306,303,1
301,282,306,308,1
301,283,306,310,1
300,282,305,309,1
300,282,306,305,1
300,283,307,301,1
301,286,308,298,1
304,290,308,297,1
306,295,308,299,1
309,297,308,303,1
310,299,309,307,1
311,299,310,311,1
311,298,310,313,1
310,298,309,315,1
310,298,308,316,1
309,300,307,315,1
308,301,308,314,1
308,304,309,312,1
307,306,309,311,1
305,309,309,308,1
304,311,307,307,1
303,314,307,306,1
304,316,306,306,1
306,316,306,307,1
307,315,308,308,1
309,312,310,310,1
309,308,311,312,1
308,305,312,313,1
307,302,312,313,1
305,299,311,312,1
303,296,310,309,1
301,295,309,308,1
301,296,308,309,1
302,301,309,311,1
305,308,312,314,1
308,316,315,316,1
310,323,317,317,1
310,328,316,318,1
310,330,316,319,1
310,326,316,320,1
310,319,316,320,1
311,312,316,319,1
312,305,317,318,1
313,301,318,317,1
312,298,318,315,1
310,297,318,313,1
307,296,318,311,1
305,297,318,309,1
302,299,317,309,1
300,303,315,309,1
299,311,314,310,1
300,319,312,309,1
301,327,311,306,1
303,331,309,303,1
304,331,308,302,1
305,331,308,303,1
306,328,309,307,1
307,323,311,310,1
306,317,313,313,1
305,311,314,314,1
304,307,315,314,1
303,303,315,312,1
303,298,314,310,1
302,293,313,308,1
302,290,312,306,1
303,288,312,305,1
304,288,312,304,1
304,290,309,306,1
304,294,306,307,1
304,297,304,308,1
305,299,303,309,1
305,299,303,310,1
305,298,304,311,1
305,297,306,311,1
305,295,308,309,1
304,294,309,306,1
303,291,309,301,1
303,290,310,296,1
303,289,311,292,1
303,290,311,289,1
303,293,310,288,1
302,297,309,289,1
302,301,309,293,1
301,305,309,297,1
302,310,310,302,1
302,313,313,306,1
303,316,315,310,1
304,318,317,315,1
303,319,316,319,1
303,319,315,321,1
302,317,314,321,1
302,315,312,320,1
303,313,310,318,1
304,312,308,315,1
305,310,307,312,1
308,309,308,309,1
310,310,309,307,1
313,312,311,307,1
316,316,312,308,1
316,318,312,308,1
314,319,312,309,1
311,321,311,311,1
307,325,309,313,1
304,327,308,313,1
303,329,307,312,1
302,331,307,310,1
302,334,307,307,1
303,336,308,304,1
305,335,308,301,1
306,330,308,299,1
307,323,307,299,1
307,318,304,301,1
305,310,303,306,1
303,303,305,312,1
304,299,309,317,1
305,298,314,320,1
307,299,316,321,1
307,301,317,322,1
305,302,317,321,1
303,304,315,319,1
301,306,312,317,1
301,309,310,315,1
302,313,309,314,1
305,318,309,313,1
307,319,309,313,1
309,317,309,313,1
310,313,309,312,1
310,309,309,309,1
311,305,309,307,1
311,300,308,304,1
311,295,307,301,1
310,290,307,298,1
308,288,307,298,1
306,287,308,298,1
304,287,307,300,1
303,289,307,303,1
304,292,306,306,1
305,297,306,307,1
308,301,306,307,1
310,304,306,305,1
312,304,306,305,1
313,305,307,305,1
313,305,307,308,1
311,306,308,310,1
310,307,309,312,1
309,307,309,313,1
309,307,309,313,1
308,307,308,311,1
306,306,308,309,1
304,306,308,307,1
303,306,306,305,1
302,307,304,304,1
301,307,302,303,1
300,307,300,301,1
300,306,299,298,1
300,305,300,297,1
300,305,301,296,1
302,305,305,297,1
304,307,309,298,1
307,310,314,301,1
308,314,317,305,1
309,318,318,309,1
310,323,319,313,1
309,326,318,314,1
308,327,315,314,1
306,331,313,313,1
304,338,312,313,1
303,345,313,313,1
303,349,312,313,1
304,347,312,312,1
304,341,311,309,1
304,329,309,305,1
302,312,307,300,1
300,294,305,297,1
300,281,305,296,1
302,273,307,297,1
304,270,310,300,1
306,270,313,303,1
307,272,314,307,1
307,275,315,309,1
307,279,315,310,1
308,282,315,310,1
309,285,313,308,1
311,288,311,306,1
312,293,308,305,1
314,299,306,305,1
314,306,304,305,1
313,313,302,305,1
311,318,300,305,1
307,321,299,303,1
304,321,300,301,1
303,323,303,300,1
303,327,305,300,1
304,330,308,303,1
306,330,311,305,1
310,328,314,308,1
313,326,317,310,1
315,320,317,312,1
316,310,317,311,1
316,299,316,310,1
315,291,314,309,1
313,287,312,308,1
311,287,311,308,1
307,289,310,307,1
305,293,309,306,1
304,298,308,305,1
304,302,308,305,1
305,305,308,305,1
305,306,309,305,1
305,304,310,305,1
304,301,312,306,1
304,299,313,306,1
304,298,313,305,1
306,297,313,304,1
309,296,312,304,1
310,294,310,305,1
312,292,308,307,1
312,293,306,310,1
311,293,304,311,1
309,294,299,310,1
306,296,296,308,1
304,298,294,305,1
303,300,294,302,1
302,302,296,298,1
303,304,298,295,1
306,307,303,293,1
308,310,307,293,1
311,313,311,297,1
312,317,314,302,1
313,319,316,308,1
313,319,317,312,1
312,317,317,314,1
310,315,315,314,1
308,313,314,312,1
306,312,313,310,1
305,312,313,309,1
304,312,312,306,1
303,311,310,304,1
303,311,310,303,1
304,311,310,303,1
304,313,310,302,1
305,317,311,302,1
305,323,311,302,1
305,329,312,303,1
306,335,311,305,1
308,338,311,308,1
309,336,310,311,1
309,329,309,314,1
309,321,309,315,1
308,315,308,315,1
306,311,306,312,1
304,308,303,308,1
303,307,301,305,1
303,308,300,302,1
304,312,299,300,1
306,317,300,298,1
309,319,303,296,1
311,315,305,294,1
313,307,308,293,1
314,300,310,295,1
314,296,311,297,1
315,292,312,300,1
316,289,311,301,1
316,286,311,302,1
316,286,311,302,1
314,287,312,301,1
312,289,312,301,1
308,291,312,302,1
305,292,312,303,1
303,294,312,304,1
302,296,311,307,1
303,298,308,309,1
304,299,304,309,1
304,301,300,308,1
304,302,298,307,1
303,302,298,305,1
303,301,301,304,1
303,300,304,305,1
302,298,306,306,1
302,297,308,308,1
303,298,310,310,1
305,300,311,310,1
306,301,312,310,1
306,301,312,308,1
307,301,312,308,1
307,301,311,309,1
307,302,309,311,1
308,302,309,311,1
310,304,310,309,1
312,305,310,306,1
313,305,312,303,1
313,305,312,299,1
311,305,312,298,1
312,307,312,300,1
313,311,311,304,1
313,317,310,309,1
314,324,309,315,1
314,330,309,318,1
313,335,309,319,1
311,338,308,318,1
309,339,307,315,1
308,333,306,312,1
307,321,306,308,1
306,306,306,305,1
304,293,305,303,1
302,285,305,301,1
301,282,305,299,1
300,283,305,297,1
298,286,305,295,1
297,290,304,294,1
296,295,304,295,1
296,300,304,298,1
297,303,306,303,1
298,304,307,307,1
299,303,309,312,1
302,302,312,317,1
305,303,314,320,1
308,306,315,320,1
310,308,315,319,1
311,309,316,316,1
311,308,316,313,1
309,306,315,311,1
307,307,314,310,1
305,309,314,309,1
304,313,315,309,1
303,320,315,310,1
302,326,316,311,1
303,331,316,311,1
304,332,317,311,1
305,330,317,311,1
306,323,316,311,1
306,312,314,311,1
306,302,312,309,1
305,293,311,308,1
304,287,310,305,1
303,285,310,305,1
301,285,311,304,1
300,285,312,304,1
300,286,312,304,1
301,286,313,304,1
302,289,313,305,1
304,294,313,309,1
306,299,314,312,1
309,302,313,314,1
309,303,311,313,1
308,303,309,311,1
306,301,308,309,1
303,299,307,305,1
300,299,307,304,1
299,300,307,303,1
299,303,307,303,1
299,307,306,304,1
300,310,306,304,1
300,314,305,303,1
301,316,304,301,1
303,319,302,299,1
304,323,300,298,1
306,331,299,298,1
308,338,298,299,1
311,342,299,301,1
313,340,302,305,1
315,330,306,310,1
314,317,310,315,1
311,302,312,318,1
308,291,313,319,1
306,283,313,319,1
306,281,313,319,1
307,281,314,318,1
307,285,313,317,1
307,289,311,315,1
307,294,310,313,1
307,299,309,313,1
307,303,309,313,1
307,304,309,313,1
306,305,307,314,1
304,304,305,315,1
302,301,303,314,1
300,300,300,311,1
299,300,298,307,1
300,303,297,303,1
301,309,296,298,1
302,316,296,294,1
302,324,297,292,1
303,330,300,293,1
304,336,304,297,1
305,338,309,302,1
305,334,313,307,1
304,326,314,310,1
303,315,313,310,1
303,305,313,310,1
305,300,313,311,1
308,298,314,313,1
308,297,313,313,1
306,296,311,313,1
304,295,309,313,1
301,291,309,315,1
300,286,310,317,1
300,281,311,317,1
302,280,313,316,1
304,282,314,314,1
305,285,313,312,1
304,288,312,309,1
303,291,311,306,1
302,294,309,303,1
302,296,308,301,1
302,298,308,301,1
303,300,309,301,1
304,301,308,302,1
304,302,308,303,1
305,302,308,303,1
306,302,308,303,1
307,305,309,305,1
309,310,310,308,1
310,317,312,313,1
308,324,313,317,1
306,329,313,320,1
305,333,314,321,1
305,333,315,321,1
305,328,315,319,1
305,320,315,317,1
304,313,314,315,1
304,308,313,313,1
304,305,312,310,1
