310,321,304,318,1
309,321,304,318,1
309,319,305,317,1
307,315,305,313,1
304,312,304,310,1
303,310,302,307,1
303,309,301,306,1
303,309,302,307,1
304,308,302,309,1
305,307,303,309,1
307,304,306,309,1
307,301,309,309,1
307,298,311,310,1
306,297,311,312,1
306,297,311,313,1
306,296,310,313,1
305,294,308,313,1
305,293,306,313,1
305,294,306,313,1
306,298,306,314,1
307,303,307,314,1
307,308,306,312,1
307,310,305,310,1
306,310,304,309,1
305,309,301,310,1
303,307,299,311,1
302,304,296,311,1
301,301,294,310,1
300,298,292,309,1
299,296,292,307,1
300,295,294,306,1
302,297,297,306,1
304,300,301,307,1
308,303,304,309,1
311,305,306,310,1
312,305,307,310,1
312,305,307,310,1
310,303,305,308,1
307,300,303,307,1
303,298,301,305,1
301,297,299,305,1
300,297,297,305,1
299,299,297,305,1
299,301,299,306,1
300,303,301,305,1
301,304,303,305,1
303,306,304,304,1
306,310,306,304,1
308,314,307,303,1
310,317,308,303,1
311,318,309,304,1
311,319,308,306,1
311,317,307,309,1
308,313,306,310,1
305,309,305,311,1
303,305,304,312,1
302,304,305,312,1
302,305,307,311,1
303,306,309,311,1
303,308,310,311,1
303,307,311,310,1
302,305,310,309,1
301,304,307,307,1
301,303,304,305,1
300,302,300,302,1
300,300,298,300,1
299,299,296,298,1
300,299,296,299,1
301,299,296,301,1
302,300,296,303,1
301,300,295,304,1
300,300,294,306,1
298,300,292,307,1
298,301,292,309,1
299,304,295,309,1
301,305,299,310,1
303,306,302,310,1
307,307,303,311,1
312,308,305,311,1
316,309,309,310,1
319,310,311,308,1
321,310,312,305,1
320,310,311,303,1
317,311,310,303,1
314,310,307,303,1
310,308,307,303,1
307,306,307,304,1
305,305,308,305,1
305,305,310,306,1
305,306,313,306,1
306,308,314,306,1
306,308,315,305,1
307,309,315,305,1
308,311,315,306,1
308,314,315,308,1
308,316,315,311,1
308,317,315,313,1
308,318,314,315,1
309,318,313,315,1
308,318,312,314,1
306,318,310,312,1
304,316,309,309,1
302,311,307,305,1
301,307,305,303,1
302,304,305,301,1
304,303,305,302,1
309,303,306,303,1
313,302,308,306,1
317,301,310,309,1
321,301,313,313,1
321,301,314,316,1
317,300,313,317,1
310,299,312,317,1
303,298,310,315,1
299,296,309,312,1
297,295,308,309,1
296,294,307,306,1
296,294,305,302,1
297,295,305,302,1
299,296,306,303,1
302,297,307,305,1
304,299,308,309,1
305,301,308,313,1
305,302,307,315,1
304,303,306,315,1
302,302,304,315,1
300,301,301,312,1
298,300,299,309,1
296,299,298,308,1
297,300,298,307,1
297,302,298,307,1
298,304,299,306,1
300,305,301,305,1
302,307,303,304,1
302,309,306,304,1
303,309,308,305,1
303,309,311,307,1
304,309,313,310,1
305,310,314,313,1
307,311,314,316,1
307,312,313,318,1
308,314,311,320,1
308,315,309,319,1
308,316,306,317,1
308,315,303,314,1
308,314,301,311,1
308,312,301,308,1
309,312,304,306,1
309,314,307,306,1
310,314,310,306,1
310,315,311,306,1
310,315,311,308,1
310,316,311,310,1
310,317,312,312,1
310,317,312,312,1
308,317,312,313,1
308,318,312,317,1
308,319,312,320,1
308,319,311,322,1
307,316,311,321,1
306,312,310,318,1
305,308,309,315,1
303,304,308,313,1
303,302,307,311,1
303,301,306,310,1
304,301,306,310,1
305,300,307,311,1
306,299,307,312,1
305,297,307,312,1
305,297,307,311,1
304,300,307,311,1
304,305,308,312,1
304,309,309,312,1
304,310,310,314,1
304,310,311,316,1
304,309,312,318,1
305,307,313,320,1
306,306,313,321,1
307,306,313,321,1
307,306,312,320,1
308,307,310,318,1
307,308,308,314,1
305,309,306,311,1
304,309,305,307,1
303,309,303,305,1
302,306,302,303,1
300,302,300,303,1
299,298,298,303,1
299,295,296,304,1
299,294,294,305,1
300,296,293,307,1
301,299,293,310,1
303,303,293,313,1
306,307,294,315,1
307,311,295,317,1
309,315,297,319,1
312,317,300,319,1
316,319,304,318,1
319,319,306,315,1
320,317,306,312,1
318,313,306,309,1
314,310,305,306,1
310,307,306,304,1
303,304,308,303,1
298,302,309,302,1
294,302,309,302,1
293,303,312,304,1
294,304,314,305,1
294,305,314,307,1
293,305,314,308,1
294,304,313,309,1
295,303,314,310,1
297,304,315,312,1
299,304,316,313,1
301,304,316,315,1
303,303,317,316,1
304,303,316,316,1
304,304,316,316,1
305,306,316,316,1
306,309,316,317,1
307,312,317,317,1
307,313,316,316,1
306,314,316,316,1
305,315,315,315,1
305,315,313,313,1
304,315,312,310,1
303,314,310,308,1
301,311,308,305,1
299,307,306,303,1
298,305,304,302,1
298,304,303,302,1
299,306,303,304,1
301,310,303,304,1
303,313,303,304,1
304,317,303,304,1
306,319,303,305,1
307,320,303,309,1
307,320,303,312,1
305,317,303,314,1
304,313,303,314,1
302,311,305,314,1
302,310,307,315,1
301,308,309,315,1
301,309,310,315,1
302,309,311,316,1
303,309,312,317,1
303,306,311,316,1
302,302,308,314,1
301,298,305,312,1
300,295,303,309,1
300,294,301,307,1
301,292,300,304,1
301,291,300,301,1
301,291,301,299,1
301,291,302,296,1
302,292,303,295,1
303,293,304,295,1
305,296,304,296,1
306,298,306,299,1
308,301,307,303,1
309,304,307,307,1
310,305,306,310,1
310,305,306,312,1
310,304,306,313,1
310,301,306,312,1
311,298,305,310,1
312,297,304,308,1
314,298,304,309,1
316,301,305,309,1
317,304,305,311,1
318,305,304,311,1
318,307,304,311,1
318,308,304,312,1
318,308,303,313,1
316,308,303,314,1
313,308,304,314,1
308,308,304,313,1
304,307,303,313,1
300,306,301,312,1
296,304,300,310,1
295,304,301,309,1
295,304,302,308,1
296,304,302,308,1
298,304,302,308,1
301,304,301,309,1
304,305,301,309,1
307,305,303,310,1
309,305,304,310,1
310,305,306,309,1
308,305,308,308,1
307,304,310,307,1
305,304,311,307,1
304,302,311,308,1
303,300,310,308,1
302,297,309,308,1
301,291,308,306,1
301,284,308,305,1
303,276,307,304,1
305,270,308,304,1
306,264,308,304,1
308,260,309,306,1
309,259,310,308,1
309,262,309,309,1
307,266,308,309,1
305,273,306,308,1
304,283,305,307,1
304,295,304,305,1
305,307,305,303,1
307,319,305,300,1
308,330,305,298,1
308,339,303,297,1
307,345,301,296,1
305,347,299,297,1
303,347,297,298,1
302,346,297,300,1
302,345,299,302,1
303,346,302,305,1
304,345,304,307,1
305,343,305,309,1
305,339,306,311,1
305,335,307,314,1
306,329,309,317,1
306,321,311,319,1
305,312,311,317,1
304,299,310,314,1
303,286,308,310,1
304,274,307,307,1
305,263,306,303,1
307,254,307,300,1
308,246,307,297,1
308,238,310,295,1
309,231,313,295,1
311,225,316,298,1
313,221,320,303,1
316,219,322,308,1
318,219,322,313,1
320,222,322,317,1
321,230,320,318,1
320,242,317,318,1
317,258,313,314,1
313,278,310,310,1
309,299,306,307,1
304,317,304,304,1
300,333,301,302,1
297,347,298,300,1
296,360,298,299,1
298,371,299,300,1
300,380,302,301,1
303,385,305,303,1
304,385,307,304,1
305,382,307,305,1
306,379,306,305,1
306,376,305,305,1
306,372,303,305,1
304,369,303,306,1
303,365,304,307,1
301,360,306,311,1
300,354,309,314,1
300,348,309,316,1
300,343,310,317,1
302,340,311,318,1
305,338,312,318,1
307,337,312,316,1
310,336,311,314,1
311,334,310,312,1
309,332,308,311,1
306,331,306,310,1
302,331,305,308,1
300,330,303,306,1
298,329,302,306,1
299,330,302,307,1
301,332,303,308,1
302,333,304,308,1
304,333,305,309,1
305,329,306,308,1
304,322,306,306,1
303,317,307,305,1
304,314,307,305,1
308,313,308,306,1
311,314,309,307,1
312,315,308,307,1
311,314,307,306,1
308,312,306,303,1
305,309,304,300,1
303,307,303,297,1
301,305,302,295,1
300,305,302,294,1
300,306,301,294,1
300,306,300,295,1
302,306,300,298,1
303,307,300,302,1
304,308,301,306,1
305,310,301,309,1
304,312,301,311,1
303,314,299,311,1
302,316,298,310,1
303,316,297,308,1
304,316,297,306,1
307,315,299,305,1
312,313,303,305,1
315,310,307,306,1
317,307,312,307,1
318,307,314,309,1
317,310,314,308,1
316,312,313,307,1
314,312,311,304,1
312,310,308,300,1
309,308,306,299,1
306,306,304,298,1
304,306,304,300,1
304,305,304,302,1
305,302,306,304,1
306,298,307,305,1
306,296,308,306,1
307,292,309,305,1
308,289,308,305,1
308,287,308,305,1
309,287,307,306,1
310,290,308,310,1
313,295,308,313,1
314,300,308,315,1
316,307,308,316,1
316,313,309,316,1
316,318,310,315,1
316,321,309,314,1
314,320,308,312,1
313,316,307,310,1
312,312,305,308,1
310,310,304,308,1
308,308,301,308,1
306,306,299,308,1
304,304,298,308,1
302,302,296,308,1
302,301,296,309,1
302,302,297,309,1
303,303,298,309,1
303,305,299,308,1
302,304,298,307,1
301,302,297,305,1
299,299,294,303,1
298,297,292,302,1
299,298,293,301,1
300,300,295,301,1
303,303,299,302,1
305,307,303,303,1
307,310,305,305,1
308,311,307,305,1
309,313,308,306,1
310,314,308,308,1
310,315,307,309,1
310,316,306,309,1
310,317,304,310,1
311,318,303,312,1
312,319,303,313,1
313,318,303,313,1
315,316,302,311,1
314,314,300,308,1
313,311,299,304,1
310,309,298,299,1
307,307,296,296,1
305,305,294,293,1
304,304,293,292,1
303,304,293,291,1
301,303,293,291,1
301,304,294,291,1
303,306,297,292,1
304,310,300,293,1
306,314,301,295,1
308,314,302,295,1
309,312,301,296,1
309,307,300,298,1
310,304,300,300,1
311,301,300,302,1
311,300,298,303,1
309,299,297,301,1
308,299,295,299,1
307,300,296,298,1
306,301,299,297,1
306,303,301,298,1
307,304,303,301,1
308,306,304,304,1
309,309,304,306,1
311,312,304,309,1
313,314,304,311,1
314,314,304,311,1
314,312,304,312,1
314,313,304,314,1
315,317,306,316,1
315,322,307,316,1
315,327,307,316,1
315,330,307,314,1
314,331,306,311,1
314,330,304,308,1
313,326,302,305,1
312,319,300,302,1
310,311,297,298,1
307,305,295,297,1
304,301,295,298,1
302,301,297,302,1
301,302,301,306,1
300,303,304,309,1
301,305,306,312,1
302,308,306,315,1
304,310,307,318,1
305,312,307,320,1
306,311,307,320,1
306,310,305,319,1
306,308,303,319,1
306,306,302,318,1
306,304,300,316,1
305,304,298,314,1
305,303,298,312,1
305,304,299,309,1
304,303,301,306,1
305,302,303,303,1
305,302,305,302,1
305,303,306,302,1
306,304,306,302,1
307,303,305,302,1
306,302,304,301,1
306,301,304,301,1
306,301,303,301,1
307,301,304,301,1
307,300,305,302,1
307,299,307,303,1
307,300,309,305,1
308,301,312,309,1
309,304,314,312,1
309,306,315,313,1
308,308,314,313,1
308,308,312,312,1
307,307,310,311,1
307,307,309,311,1
307,307,308,313,1
309,308,307,315,1
312,310,310,318,1
313,311,313,321,1
315,313,315,322,1
316,314,317,324,1
317,315,318,326,1
317,317,317,326,1
317,316,316,326,1
317,315,313,324,1
316,312,311,321,1
315,310,309,317,1
314,307,307,312,1
312,304,306,308,1
310,301,305,304,1
308,300,304,302,1
306,301,303,301,1
304,303,303,301,1
302,305,303,301,1
300,306,303,299,1
299,306,302,299,1
299,305,302,299,1
300,306,302,300,1
302,306,302,301,1
305,307,301,302,1
309,307,301,304,1
312,306,301,305,1
315,304,300,305,1
317,302,299,304,1
318,302,299,303,1
317,302,300,303,1
314,303,301,303,1
310,301,301,304,1
305,296,302,306,1
303,291,303,307,1
302,287,304,306,1
302,287,305,303,1
302,287,304,299,1
301,287,303,296,1
301,289,302,294,1
303,292,300,294,1
304,294,298,295,1
306,296,296,297,1
307,299,296,302,1
308,305,298,309,1
309,312,301,317,1
309,316,304,323,1
308,316,309,326,1
306,313,314,328,1
304,308,317,328,1
303,303,319,327,1
303,300,318,325,1
304,299,316,325,1
305,300,315,324,1
306,301,313,321,1
306,302,313,317,1
305,303,312,314,1
303,303,312,309,1
302,303,312,304,1
300,301,311,299,1
300,300,309,295,1
301,299,309,293,1
303,300,310,294,1
306,304,312,299,1
308,308,313,305,1
311,311,313,311,1
312,310,313,316,1
313,307,311,317,1
312,304,309,317,1
310,304,307,315,1
309,305,305,314,1
308,310,304,315,1
307,317,304,318,1
308,322,306,320,1
308,324,306,321,1
308,320,305,318,1
307,314,305,312,1
306,306,306,305,1
305,299,307,297,1
303,294,306,289,1
301,290,305,282,1
299,290,304,280,1
299,292,304,281,1
301,294,305,284,1
302,296,306,289,1
304,296,307,295,1
304,296,306,301,1
304,296,304,307,1
303,296,303,311,1
303,295,301,314,1
304,294,301,317,1
307,293,302,320,1
311,294,305,322,1
316,296,307,322,1
319,300,309,318,1
319,304,309,311,1
317,306,310,303,1
312,309,310,296,1
308,312,310,292,1
306,315,311,291,1
306,321,312,296,1
307,325,313,303,1
306,324,312,309,1
303,318,310,313,1
301,310,306,314,1
299,303,303,314,1
298,297,299,313,1
298,292,295,310,1
298,289,294,307,1
299,288,295,305,1
301,290,298,306,1
304,294,301,306,1
305,297,304,306,1
305,301,305,304,1
305,302,306,302,1
304,303,306,303,1
304,304,306,307,1
303,305,306,312,1
303,308,307,318,1
305,310,308,325,1
308,312,309,329,1
311,312,308,332,1
313,312,307,332,1
313,311,308,332,1
312,311,309,331,1
310,310,307,329,1
307,307,305,325,1
305,305,303,321,1
306,305,303,315,1
308,305,304,310,1
310,308,306,305,1
312,310,308,301,1
312,313,310,299,1
312,317,314,299,1
312,320,317,302,1
312,319,319,305,1
311,314,319,308,1
310,306,319,311,1
309,300,317,314,1
308,296,316,315,1
307,295,313,315,1
306,293,312,315,1
304,292,310,313,1
303,292,309,311,1
303,292,308,310,1
303,293,308,310,1
305,294,308,309,1
306,294,308,308,1
306,294,308,307,1
305,295,309,306,1
305,296,309,305,1
304,296,309,304,1
303,294,309,302,1
302,292,309,301,1
302,291,310,300,1
302,291,310,300,1
303,292,310,301,1
302,293,309,303,1
301,295,308,304,1
300,295,307,305,1
300,297,306,305,1
300,300,306,305,1
301,303,305,305,1
303,304,305,305,1
305,304,305,304,1
307,305,304,304,1
309,305,303,303,1
311,306,301,301,1
312,308,299,298,1
312,309,298,294,1
311,309,298,290,1
309,308,300,287,1
306,306,301,286,1
304,305,302,287,1
303,304,303,290,1
303,304,304,294,1
302,306,304,297,1
302,311,304,301,1
303,316,304,303,1
304,321,303,303,1
304,324,302,302,1
304,325,301,300,1
304,323,300,299,1
305,320,302,300,1
306,316,304,301,1
305,311,305,301,1
304,305,304,300,1
302,300,305,298,1
301,298,306,298,1
300,298,308,299,1
301,302,311,303,1
303,305,313,307,1
304,304,314,309,1
305,303,313,310,1
305,301,312,311,1
305,301,311,312,1
306,302,310,312,1
306,302,310,311,1
307,304,311,310,1
307,305,312,309,1
308,307,312,307,1
309,310,313,306,1
310,312,314,306,1
310,311,313,306,1
310,309,313,306,1
309,307,312,307,1
307,304,311,307,1
305,304,310,306,1
304,304,309,306,1
303,305,308,303,1
303,306,308,301,1
303,307,307,298,1
304,307,306,297,1
305,306,306,295,1
305,304,305,295,1
307,304,306,296,1
309,303,305,298,1
310,303,305,301,1
311,305,303,306,1
312,308,303,312,1
313,315,302,316,1
316,320,301,319,1
315,325,300,320,1
314,326,297,319,1
310,325,296,317,1
306,323,296,316,1
304,321,298,315,1
302,317,300,315,1
302,312,302,315,1
302,306,304,313,1
302,302,306,312,1
303,300,308,310,1
304,301,312,309,1
305,301,315,307,1
306,301,318,306,1
307,299,319,306,1
307,297,320,307,1
309,295,320,310,1
310,296,319,313,1
310,297,316,315,1
310,298,313,313,1
310,299,309,308,1
310,301,307,304,1
310,303,308,299,1
309,304,310,297,1
309,305,312,297,1
310,305,314,300,1
310,307,315,302,1
312,308,314,304,1
313,310,314,305,1
313,312,313,307,1
313,317,312,309,1
313,322,312,312,1
311,326,311,315,1
308,325,310,316,1
306,322,309,315,1
307,315,308,315,1
309,307,309,316,1
311,301,310,317,1
314,299,312,319,1
317,297,314,319,1
317,296,315,318,1
315,296,314,315,1
312,296,313,311,1
309,297,312,306,1
307,300,312,303,1
306,301,311,301,1
305,301,310,300,1
303,300,309,300,1
301,299,309,300,1
299,299,308,299,1
297,298,307,299,1
296,298,307,299,1
297,301,309,300,1
299,303,312,303,1
301,306,314,306,1
302,308,315,310,1
302,310,316,314,1
303,312,316,319,1
304,313,315,322,1
305,312,316,325,1
306,310,315,325,1
307,310,315,325,1
308,310,315,325,1
309,310,314,324,1
309,309,313,322,1
307,309,310,319,1
304,308,307,316,1
302,309,305,313,1
301,310,303,310,1
300,309,303,308,1
300,309,303,306,1
302,312,305,304,1
305,316,306,301,1
307,321,306,298,1
309,326,306,297,1
309,329,306,296,1
308,329,307,296,1
307,328,309,298,1
307,325,311,302,1
306,321,313,308,1
306,315,314,313,1
306,309,314,318,1
306,304,312,320,1
306,300,309,321,1
305,297,304,320,1
304,295,301,319,1
303,294,301,318,1
303,294,303,317,1
303,296,306,317,1
305,297,308,315,1
305,296,309,313,1
306,293,309,311,1
306,292,310,311,1
308,294,311,312,1
312,298,313,313,1
316,303,315,315,1
319,307,317,317,1
322,312,318,318,1
323,315,318,318,1
323,316,318,317,1
320,315,316,315,1
316,314,314,313,1
311,311,312,310,1
306,308,309,306,1
302,304,307,301,1
299,301,304,298,1
297,298,301,296,1
295,296,299,295,1
292,294,298,296,1
291,295,299,299,1
293,299,301,304,1
296,302,303,310,1
299,306,305,315,1
301,308,308,319,1
302,311,309,322,1
302,314,310,323,1
301,317,310,323,1
300,319,310,322,1
300,321,310,321,1
300,322,310,321,1
301,322,309,320,1
302,320,309,319,1
303,316,308,316,1
303,310,308,314,1
304,305,309,311,1
304,300,309,309,1
305,299,309,306,1
304,298,309,304,1
304,300,308,304,1
305,304,308,306,1
305,308,308,310,1
305,309,308,313,1
303,308,307,314,1
303,305,306,313,1
303,304,306,313,1
303,304,306,313,1
304,305,306,313,1
305,305,306,312,1
305,304,305,311,1
304,304,303,310,1
302,304,300,308,1
301,303,296,306,1
301,302,293,304,1
302,302,292,302,1
302,303,291,303,1
302,305,292,305,1
303,307,295,307,1
302,305,297,307,1
300,302,298,307,1
299,300,300,306,1
300,301,303,305,1
301,303,305,304,1
302,306,306,304,1
304,311,308,306,1
306,315,310,307,1
307,316,312,309,1
309,314,313,311,1
310,312,316,312,1
311,309,316,313,1
311,305,316,314,1
310,302,315,315,1
309,299,313,315,1
307,298,311,314,1
307,298,310,315,1
307,300,308,315,1
307,301,307,315,1
307,302,305,313,1
306,303,303,311,1
306,304,301,309,1
306,305,299,308,1
307,305,298,308,1
308,305,298,306,1
309,305,297,304,1
310,303,298,303,1
310,302,300,304,1
311,303,303,306,1
310,304,305,307,1
310,307,307,308,1
310,310,309,310,1
311,313,310,311,1
309,314,310,311,1
309,315,312,310,1
312,315,313,313,1
315,315,314,316,1
317,313,314,319,1
317,309,313,320,1
316,304,313,319,1
314,300,312,318,1
309,298,310,316,1
305,296,307,314,1
301,295,304,311,1
300,296,301,308,1
299,297,300,305,1
300,299,300,303,1
301,299,302,303,1
301,298,303,302,1
301,296,304,302,1
301,295,305,300,1
301,295,306,299,1
301,294,306,297,1
301,294,305,295,1
300,297,304,294,1
300,301,303,295,1
301,306,302,296,1
301,309,302,297,1
301,309,302,297,1
301,307,303,298,1
303,306,304,299,1
305,305,305,300,1
307,306,307,303,1
308,307,308,306,1
309,309,310,310,1
310,311,313,313,1
310,314,315,315,1
310,317,317,316,1
308,321,318,315,1
307,324,317,314,1
307,326,315,313,1
307,326,313,313,1
307,326,311,315,1
307,324,310,318,1
306,318,309,321,1
305,310,310,323,1
304,300,311,323,1
303,291,311,322,1
303,285,311,320,1
303,281,311,318,1
304,279,310,315,1
304,279,309,313,1
305,281,308,311,1
305,284,307,310,1
305,287,308,311,1
306,291,309,313,1
306,296,310,315,1
307,299,310,317,1
307,300,310,317,1
306,301,309,314,1
306,301,307,311,1
305,301,306,306,1
303,302,305,302,1
301,301,303,298,1
299,302,303,297,1
299,302,303,297,1
300,303,304,300,1
301,304,306,303,1
301,304,308,308,1
301,304,309,313,1
302,303,310,317,1
303,302,311,320,1
304,301,310,321,1
304,300,308,319,1
304,300,307,315,1
303,300,305,312,1
303,302,304,311,1
303,303,305,310,1
303,304,304,310,1
302,305,302,310,1
300,306,300,310,1
300,308,297,312,1
300,310,297,313,1
301,309,296,313,1
302,305,297,312,1
304,302,298,311,1
305,300,300,311,1
305,299,300,310,1
304,299,299,309,1
304,300,297,306,1
304,300,295,303,1
303,300,294,301,1
303,300,292,302,1
303,300,293,304,1
305,301,295,308,1
307,302,299,310,1
308,305,303,312,1
310,307,306,312,1
309,305,307,311,1
306,302,305,308,1
303,298,303,305,1
301,296,301,302,1
301,296,300,300,1
301,296,299,299,1
301,298,300,298,1
302,302,302,298,1
303,307,303,299,1
304,314,304,301,1
305,320,304,305,1
304,325,303,310,1
304,328,303,314,1
304,329,303,318,1
306,327,304,320,1
309,322,306,321,1
312,317,309,322,1
313,313,313,321,1
314,310,315,321,1
312,307,315,319,1
308,304,314,317,1
303,303,313,316,1
300,302,312,316,1
298,302,312,316,1
298,301,311,315,1
299,299,309,313,1
300,299,308,310,1
301,300,307,309,1
303,301,307,308,1
304,301,307,306,1
305,302,307,304,1
305,303,307,301,1
305,305,306,299,1
304,306,305,297,1
303,307,304,296,1
302,306,304,297,1
301,307,303,301,1
301,309,303,306,1
302,312,302,309,1
303,314,300,311,1
304,314,300,312,1
304,313,300,311,1
304,310,301,311,1
305,306,303,311,1
306,304,306,313,1
307,305,307,314,1
307,306,308,315,1
306,307,308,313,1
305,306,307,309,1
304,304,307,305,1
305,303,307,304,1
306,305,308,305,1
307,307,309,306,1
309,311,309,307,1
311,316,308,305,1
311,320,307,303,1
311,322,305,301,1
311,320,302,300,1
310,314,300,300,1
309,307,299,301,1
308,302,298,303,1
308,299,298,303,1
307,298,298,303,1
306,299,299,303,1
306,300,301,303,1
305,302,303,303,1
303,302,304,303,1
302,302,306,304,1
301,302,308,307,1
300,303,309,312,1
300,304,309,316,1
301,304,309,318,1
302,303,308,319,1
305,304,307,319,1
309,306,306,319,1
314,310,305,319,1
318,315,305,320,1
320,321,304,320,1
319,327,303,319,1
315,332,302,316,1
309,333,300,313,1
304,329,299,310,1
300,320,297,307,1
299,312,296,305,1
299,305,295,305,1
300,301,293,305,1
301,300,292,305,1
302,299,294,305,1
302,300,297,305,1
301,299,301,304,1
300,298,304,304,1
300,296,306,304,1
300,295,308,304,1
302,297,311,305,1
304,303,313,305,1
306,308,313,305,1
307,311,314,304,1
307,312,314,303,1
306,311,314,303,1
307,309,314,304,1
305,307,314,304,1
304,305,312,303,1
303,302,311,303,1
302,301,309,302,1
302,299,309,304,1
301,299,310,305,1
301,300,310,307,1
301,301,310,307,1
302,302,310,305,1
302,303,309,303,1
302,305,307,300,1
302,308,307,298,1
304,311,308,297,1
306,312,309,298,1
306,312,310,299,1
306,311,311,301,1
306,309,312,302,1
307,306,313,305,1
308,305,314,309,1
311,306,314,313,1
312,309,314,317,1
311,313,312,319,1
310,318,310,321,1
309,323,309,322,1
308,326,308,322,1
308,324,307,321,1
307,321,307,320,1
307,318,307,319,1
307,315,308,318,1
307,311,310,317,1
307,306,311,316,1
309,302,311,315,1
310,300,311,314,1
312,298,310,313,1
313,298,310,312,1
313,299,309,310,1
312,301,309,308,1
311,305,309,306,1
310,309,309,306,1
310,312,309,307,1
309,313,308,307,1
307,310,306,308,1
304,305,304,307,1
302,299,301,306,1
300,295,299,303,1
301,292,298,301,1
302,291,297,299,1
306,292,297,300,1
311,295,299,302,1
316,298,302,305,1
318,302,304,309,1
319,306,304,312,1
318,308,303,312,1
316,308,301,308,1
312,307,298,304,1
308,306,297,300,1
305,306,297,298,1
303,306,297,296,1
303,307,298,297,1
303,308,302,300,1
304,308,307,306,1
305,307,312,313,1
307,306,316,320,1
308,306,318,324,1
309,308,318,326,1
309,309,316,326,1
309,309,314,324,1
309,308,312,319,1
309,306,310,314,1
308,303,308,309,1
308,302,306,306,1
309,302,306,304,1
310,303,307,303,1
311,305,307,304,1
312,307,308,307,1
313,310,308,311,1
313,312,308,314,1
313,314,307,317,1
313,314,306,319,1
314,313,306,319,1
314,310,306,319,1
314,308,307,319,1
313,305,307,318,1
313,304,308,317,1
313,303,309,316,1
312,303,310,316,1
310,305,310,317,1
307,307,310,317,1
304,309,310,317,1
302,310,309,317,1
301,310,308,317,1
300,309,307,319,1
300,309,306,319,1
300,311,304,319,1
300,316,302,317,1
300,321,301,315,1
300,326,301,314,1
301,326,301,314,1
301,323,303,313,1
301,316,304,312,1
301,310,305,312,1
302,304,305,311,1
303,299,304,310,1
304,296,302,309,1
303,293,300,309,1
302,292,299,309,1
301,291,298,309,1
300,292,300,310,1
300,294,302,310,1
301,296,302,311,1
302,298,300,310,1
302,298,300,310,1
303,298,301,310,1
305,300,302,310,1
307,302,302,310,1
308,302,302,309,1
309,302,303,307,1
309,302,304,304,1
309,302,306,301,1
308,302,306,298,1
308,304,307,296,1
308,307,308,294,1
310,311,309,295,1
310,316,310,298,1
310,318,310,303,1
308,317,309,307,1
305,314,307,310,1
304,310,306,311,1
302,307,307,311,1
303,306,307,312,1
303,304,307,313,1
305,304,307,314,1
306,303,307,315,1
308,303,307,315,1
308,305,308,315,1
309,306,308,313,1
310,308,308,310,1
310,309,309,310,1
309,310,310,311,1
309,312,310,313,1
310,313,310,314,1
311,313,310,315,1
312,314,309,314,1
313,315,308,314,1
314,314,307,314,1
315,314,307,313,1
314,311,307,311,1
312,308,307,310,1
310,305,306,309,1
308,306,306,309,1
307,309,305,310,1
307,314,304,312,1
306,316,303,313,1
305,317,302,314,1
304,314,302,315,1
303,310,301,316,1
302,306,302,317,1
302,303,304,317,1
303,300,306,318,1
304,297,307,318,1
305,294,307,319,1
305,293,307,319,1
304,293,308,319,1
303,293,308,318,1
302,293,307,317,1
301,293,307,315,1
300,292,306,314,1
300,293,305,311,1
300,293,303,309,1
301,293,302,307,1
302,294,300,306,1
302,295,298,304,1
301,295,295,303,1
300,296,295,303,1
300,299,295,304,1
301,303,297,306,1
302,308,300,311,1
302,311,302,315,1
302,311,304,318,1
302,309,304,320,1
302,306,303,320,1
302,305,302,320,1
301,304,300,319,1
300,304,300,318,1
300,304,300,319,1
300,304,301,319,1
302,305,304,321,1
303,305,308,322,1
305,304,311,322,1
305,303,314,320,1
306,301,314,318,1
306,300,314,315,1
307,299,314,313,1
308,300,314,311,1
309,301,313,310,1
310,303,313,310,1
310,305,312,309,1
310,307,310,307,1
309,311,308,306,1
309,315,308,305,1
307,318,307,306,1
306,319,307,309,1
306,316,307,312,1
305,310,307,314,1
306,303,307,315,1
306,297,308,314,1
306,294,308,312,1
305,292,307,309,1
304,291,307,304,1
303,291,306,301,1
302,291,307,300,1
302,293,308,300,1
302,295,310,301,1
303,296,311,301,1
304,298,312,300,1
305,299,312,298,1
306,302,311,298,1
305,305,308,299,1
305,308,305,302,1
304,310,302,305,1
304,309,299,307,1
304,307,298,309,1
305,305,298,308,1
308,307,299,307,1
313,310,303,304,1
317,314,308,302,1
321,317,312,302,1
324,318,314,303,1
325,318,315,304,1
324,315,315,306,1
320,311,314,307,1
314,308,311,307,1
308,306,309,308,1
304,307,307,310,1
302,308,306,312,1
300,308,306,312,1
298,305,307,312,1
297,303,308,312,1
297,301,309,314,1
298,301,310,315,1
300,301,311,316,1
301,301,311,315,1
303,301,311,313,1
303,302,310,311,1
305,304,310,308,1
306,304,309,306,1
307,305,309,305,1
310,305,309,306,1
311,307,309,307,1
312,308,308,308,1
312,307,306,308,1
311,306,303,308,1
310,308,300,307,1
308,310,298,306,1
306,312,299,306,1
304,311,302,306,1
302,307,305,305,1
300,302,308,305,1
299,299,310,305,1
299,297,311,305,1
299,297,311,305,1
300,296,312,305,1
301,295,311,305,1
303,295,311,306,1
305,296,312,307,1
307,296,313,310,1
308,297,313,312,1
309,300,315,313,1
309,303,315,314,1
309,308,315,314,1
309,313,314,315,1
309,318,314,316,1
308,322,313,318,1
308,324,312,322,1
307,323,312,325,1
305,321,310,325,1
304,318,309,324,1
304,316,308,321,1
305,313,308,319,1
305,310,307,316,1
307,305,307,314,1
308,301,308,312,1
309,299,308,311,1
309,301,308,311,1
309,303,307,312,1
309,304,307,314,1
308,302,307,314,1
307,300,306,314,1
306,297,306,314,1
305,296,308,314,1
306,298,310,314,1
307,301,312,313,1
308,304,313,311,1
308,306,313,307,1
307,306,312,303,1
305,303,310,298,1
304,302,307,294,1
302,302,305,290,1
301,303,304,289,1
302,306,303,290,1
304,307,304,292,1
307,306,305,295,1
309,305,307,298,1
311,306,307,301,1
313,306,308,304,1
313,308,308,307,1
311,308,308,309,1
310,308,307,310,1
309,308,308,310,1
308,307,307,308,1
305,306,306,305,1
303,304,304,301,1
301,304,302,298,1
302,304,301,296,1
304,306,300,296,1
305,310,300,297,1
307,312,301,299,1
309,313,303,300,1
309,313,304,302,1
308,312,303,304,1
306,313,302,307,1
304,313,301,309,1
304,314,302,310,1
306,314,304,311,1
308,314,306,312,1
310,315,307,311,1
312,315,307,310,1
313,315,307,308,1
312,313,306,304,1
311,313,304,301,1
311,313,303,300,1
310,316,302,302,1
309,321,300,304,1
310,326,299,306,1
310,332,299,307,1
310,336,299,308,1
309,336,300,308,1
307,333,301,307,1
305,327,303,307,1
304,321,305,307,1
303,314,307,308,1
302,308,309,307,1
300,303,311,305,1
298,299,312,304,1
296,296,311,303,1
295,294,311,303,1
297,294,310,303,1
300,296,310,304,1
303,298,311,305,1
306,299,311,305,1
309,301,311,306,1
312,305,311,309,1
313,311,312,311,1
311,314,311,311,1
308,315,310,310,1
304,314,308,308,1
302,313,308,306,1
302,311,310,304,1
301,308,311,303,1
301,306,311,304,1
301,305,311,305,1
302,305,310,306,1
302,306,310,306,1
302,307,309,307,1
302,308,308,308,1
302,311,309,308,1
303,313,310,308,1
304,315,311,307,1
306,317,311,305,1
307,317,311,305,1
309,316,311,303,1
310,314,311,301,1
311,312,309,299,1
311,311,309,299,1
313,311,310,301,1
314,310,311,303,1
315,309,311,304,1
314,308,310,305,1
311,308,310,307,1
309,309,309,310,1
307,309,309,313,1
305,309,309,315,1
304,308,308,316,1
303,307,307,316,1
303,307,306,314,1
304,308,305,312,1
306,311,306,311,1
308,316,308,312,1
310,321,310,312,1
311,326,311,312,1
312,330,312,312,1
312,332,313,310,1
311,328,313,307,1
308,321,311,303,1
306,314,308,300,1
304,309,306,297,1
303,304,304,295,1
301,300,304,294,1
301,297,305,295,1
304,297,306,296,1
308,297,306,297,1
311,296,305,296,1
311,294,303,292,1
310,292,301,289,1
307,290,300,286,1
304,289,301,287,1
301,290,303,290,1
298,292,305,293,1
297,295,307,299,1
296,299,308,306,1
296,302,309,315,1
298,304,309,322,1
300,306,309,326,1
302,307,310,327,1
305,308,310,324,1
306,309,309,319,1
306,310,307,312,1
307,311,305,306,1
306,313,304,302,1
307,314,305,299,1
309,316,307,300,1
310,318,309,303,1
312,320,309,306,1
311,320,308,308,1
309,316,305,308,1
306,312,303,306,1
304,310,302,306,1
304,309,302,307,1
305,309,303,308,1
306,309,304,309,1
307,309,304,309,1
308,309,303,309,1
308,311,302,308,1
307,313,301,304,1
307,313,300,297,1
307,313,299,292,1
307,310,299,288,1
307,304,300,286,1
305,298,300,287,1
304,294,301,290,1
302,294,302,294,1
302,295,302,300,1
302,297,302,305,1
303,299,302,310,1
304,302,302,314,1
306,307,302,317,1
307,314,303,319,1
309,322,304,321,1
310,329,305,320,1
310,332,305,319,1
309,329,305,317,1
307,323,305,317,1
306,317,305,317,1
305,312,305,316,1
305,306,305,313,1
305,302,304,309,1
305,300,302,306,1
304,298,301,303,1
304,298,300,298,1
303,298,298,293,1
303,297,297,287,1
302,297,295,282,1
302,298,295,281,1
303,302,296,283,1
306,307,297,288,1
308,310,299,294,1
307,309,303,301,1
307,308,306,309,1
306,307,310,316,1
307,306,312,322,1
307,305,313,326,1
307,304,312,327,1
305,304,309,326,1
304,304,305,323,1
303,304,303,319,1
302,303,302,315,1
303,302,303,311,1
305,301,305,308,1
307,302,307,307,1
309,304,309,308,1
310,308,309,310,1
310,312,309,311,1
310,314,309,313,1
310,316,308,315,1
309,317,307,317,1
308,317,305,317,1
307,315,304,316,1
306,315,303,314,1
306,315,302,312,1
306,316,301,311,1
307,316,301,309,1
306,314,300,307,1
305,311,300,305,1
303,307,300,302,1
302,303,300,300,1
301,300,299,298,1
301,299,299,295,1
301,297,298,293,1
301,297,297,290,1
302,297,297,288,1
303,298,299,288,1
304,301,301,288,1
306,305,302,289,1
308,309,303,292,1
310,313,305,298,1
312,317,307,305,1
312,318,309,313,1
312,317,310,318,1
311,315,310,320,1
310,313,309,320,1
308,311,307,319,1
307,310,305,318,1
306,309,305,316,1
306,307,305,315,1
306,306,305,315,1
308,307,306,315,1
308,307,307,313,1
309,308,307,311,1
309,308,308,309,1
308,309,308,306,1
309,309,308,304,1
310,310,309,302,1
311,310,309,301,1
310,312,309,301,1
310,314,309,303,1
311,315,309,306,1
311,314,310,308,1
311,313,310,309,1
308,310,309,307,1
305,307,308,305,1
303,305,308,302,1
301,302,307,298,1
302,300,307,295,1
304,301,307,295,1
308,304,307,296,1
312,308,307,298,1
315,312,305,301,1
314,314,304,304,1
313,315,303,305,1
309,313,301,305,1
304,311,299,304,1
301,308,297,303,1
298,306,297,303,1
298,306,300,304,1
299,307,304,306,1
300,308,308,306,1
300,307,310,304,1
299,306,311,301,1
299,305,311,299,1
299,305,311,298,1
299,304,310,298,1
300,303,311,298,1
302,305,312,299,1
305,310,312,303,1
307,316,314,308,1
309,323,314,314,1
310,326,314,319,1
309,324,313,321,1
307,319,311,321,1
305,312,309,320,1
303,306,308,318,1
301,303,308,318,1
300,303,309,316,1
299,305,310,313,1
299,308,311,308,1
301,309,312,304,1
302,312,313,301,1
304,315,313,300,1
303,317,312,299,1
303,319,311,298,1
303,318,310,297,1
302,317,309,297,1
302,318,310,300,1
303,319,312,303,1
303,321,313,306,1
304,324,314,308,1
304,327,315,310,1
306,329,316,312,1
307,331,316,313,1
308,330,316,314,1
308,326,316,314,1
308,319,315,313,1
308,312,314,311,1
307,305,313,309,1
306,299,312,308,1
306,295,311,306,1
305,291,310,304,1
302,288,308,301,1
298,285,306,299,1
297,285,306,298,1
297,287,305,299,1
297,289,304,300,1
297,291,303,301,1
297,292,300,301,1
297,293,298,300,1
298,295,297,299,1
299,297,297,299,1
301,298,301,299,1
304,300,305,299,1
306,301,309,301,1
308,302,311,304,1
309,302,313,307,1
309,303,315,310,1
310,306,316,312,1
311,309,317,313,1
311,312,317,311,1
309,312,317,310,1
305,310,315,309,1
302,308,313,308,1
299,307,311,307,1
298,305,309,307,1
297,304,306,305,1
298,301,303,304,1
298,299,301,300,1
299,297,299,297,1
301,298,297,294,1
304,300,296,293,1
306,304,297,294,1
309,309,298,296,1
311,314,299,299,1
312,314,300,301,1
310,310,299,301,1
304,306,298,301,1
300,303,298,301,1
297,301,299,301,1
296,300,300,301,1
295,299,303,301,1
295,298,306,302,1
296,298,308,304,1
297,298,310,306,1
298,299,310,309,1
298,300,310,309,1
299,300,311,309,1
301,301,311,307,1
302,303,310,306,1
304,303,310,305,1
305,304,309,305,1
306,304,308,304,1
306,305,306,304,1
305,306,305,305,1
304,306,305,307,1
304,307,306,308,1
303,309,307,309,1
303,311,307,308,1
302,312,306,307,1
300,313,306,306,1
299,314,306,306,1
299,314,306,306,1
299,313,308,305,1
300,313,310,307,1
301,314,313,310,1
303,317,315,314,1
304,319,315,316,1
304,321,314,318,1
304,321,312,320,1
305,320,310,321,1
307,319,307,321,1
308,318,305,320,1
310,315,301,317,1
310,311,298,314,1
308,306,294,310,1
306,302,293,308,1
306,302,297,309,1
307,305,301,310,1
307,311,304,311,1
306,319,306,311,1
306,326,307,310,1
305,329,308,307,1
304,325,308,302,1
302,317,307,298,1
302,309,307,297,1
302,303,308,298,1
303,300,309,301,1
304,297,310,304,1
304,296,310,305,1
303,295,309,307,1
302,297,308,308,1
303,299,308,310,1
303,301,307,311,1
304,302,307,312,1
304,303,306,311,1
305,303,306,310,1
305,303,305,309,1
305,304,304,309,1
305,303,302,308,1
305,302,301,305,1
304,300,299,303,1
304,300,299,304,1
305,304,300,308,1
307,309,302,313,1
308,312,302,318,1
307,312,303,320,1
306,308,302,319,1
306,304,302,315,1
307,300,302,311,1
308,297,303,307,1
307,295,304,304,1
306,295,305,302,1
304,296,306,301,1
301,297,307,302,1
297,300,307,304,1
295,303,307,307,1
296,307,308,311,1
297,312,309,313,1
300,315,310,314,1
303,316,311,315,1
306,316,312,314,1
308,315,312,313,1
310,314,311,313,1
311,312,308,313,1
311,309,307,312,1
310,306,306,313,1
310,302,306,313,1
311,298,309,314,1
311,296,311,314,1
312,294,312,313,1
312,293,312,312,1
311,292,312,311,1
309,292,311,311,1
306,293,310,312,1
304,294,309,311,1
301,294,307,311,1
300,294,305,311,1
300,296,302,311,1
301,297,300,311,1
301,297,297,310,1
302,295,295,307,1
301,293,296,307,1
302,293,298,308,1
304,293,302,310,1
305,292,304,312,1
305,291,304,314,1
304,289,304,314,1
303,288,303,313,1
304,289,303,312,1
305,289,302,309,1
306,289,301,306,1
306,289,299,302,1
305,290,297,299,1
305,292,296,297,1
306,296,296,298,1
306,300,295,297,1
306,303,295,296,1
305,304,296,293,1
305,305,296,291,1
305,304,297,288,1
304,304,298,287,1
304,305,300,287,1
304,307,302,290,1
305,310,305,296,1
307,311,307,301,1
308,311,308,304,1
307,310,309,306,1
306,310,308,308,1
305,310,307,311,1
307,311,307,312,1
308,311,306,312,1
308,311,306,311,1
308,309,306,311,1
307,308,306,311,1
306,308,307,312,1
305,309,308,313,1
303,309,309,315,1
302,309,309,317,1
300,308,308,318,1
299,307,306,318,1
298,306,303,317,1
299,306,301,315,1
299,306,299,312,1
299,305,298,308,1
300,306,299,304,1
302,308,302,301,1
306,309,307,299,1
309,310,310,297,1
312,310,312,295,1
313,310,313,294,1
313,308,312,294,1
310,305,312,294,1
307,303,311,296,1
306,303,311,299,1
306,305,311,300,1
307,306,311,301,1
307,308,311,302,1
308,309,311,305,1
307,310,310,306,1
307,308,309,305,1
306,305,308,303,1
304,303,306,300,1
302,301,306,297,1
301,300,306,295,1
301,297,306,292,1
301,295,306,289,1
302,294,306,290,1
304,296,308,293,1
307,300,308,297,1
308,303,308,299,1
308,306,307,300,1
308,306,306,300,1
308,307,306,302,1
308,308,305,306,1
307,310,305,310,1
306,312,305,314,1
306,315,306,319,1
305,316,310,322,1
305,317,312,324,1
305,317,314,324,1
305,316,315,323,1
305,314,314,322,1
306,313,313,320,1
306,311,312,319,1
307,310,310,319,1
306,308,308,318,1
305,306,308,316,1
306,305,309,313,1
308,305,310,310,1
312,306,312,307,1
315,309,313,306,1
318,314,313,307,1
318,318,312,307,1
315,319,311,307,1
310,319,309,307,1
304,318,307,308,1
300,319,307,308,1
298,320,307,309,1
297,322,308,309,1
297,322,307,308,1
296,318,306,308,1
297,310,305,307,1
297,301,306,308,1
298,293,307,308,1
298,288,309,308,1
300,285,310,306,1
301,285,310,304,1
301,289,310,303,1
302,293,309,302,1
303,298,309,301,1
305,302,309,301,1
305,305,310,301,1
304,307,310,301,1
304,307,311,300,1
303,305,310,297,1
302,301,309,295,1
301,298,308,295,1
302,296,309,298,1
304,295,311,301,1
305,296,313,304,1
305,298,313,306,1
306,301,313,306,1
306,302,311,303,1
305,301,309,297,1
303,300,307,292,1
302,300,306,288,1
302,301,306,289,1
302,303,307,293,1
303,306,308,298,1
305,309,309,303,1
308,312,310,309,1
309,313,310,313,1
309,313,311,317,1
309,312,311,320,1
309,311,312,321,1
309,309,311,321,1
309,307,310,319,1
308,304,309,316,1
307,303,308,313,1
306,302,309,310,1
306,301,310,309,1
306,301,311,309,1
306,300,311,309,1
306,301,310,309,1
306,303,307,309,1
306,304,305,309,1
306,305,303,307,1
305,306,300,305,1
306,307,300,304,1
306,308,302,304,1
307,308,304,305,1
306,308,307,306,1
306,306,310,307,1
306,305,312,309,1
306,305,314,310,1
307,305,314,311,1
307,305,312,311,1
306,304,309,310,1
306,303,306,308,1
306,304,304,305,1
307,306,302,300,1
307,307,300,296,1
307,309,299,290,1
306,310,300,286,1
307,313,301,284,1
308,314,304,285,1
310,315,306,288,1
313,316,307,292,1
316,316,306,297,1
317,316,305,300,1
316,313,305,300,1
315,311,305,299,1
311,306,305,297,1
308,302,305,294,1
305,296,305,292,1
303,292,303,289,1
302,288,301,289,1
301,287,300,291,1
300,288,300,294,1
301,291,300,299,1
302,296,302,303,1
302,300,303,307,1
301,304,304,309,1
300,306,305,310,1
299,309,307,313,1
300,312,309,317,1
301,314,311,322,1
302,315,313,325,1
304,316,313,326,1
305,319,313,325,1
305,321,312,323,1
306,323,311,321,1
307,324,310,320,1
307,320,309,320,1
307,313,307,318,1
305,305,306,316,1
303,298,305,313,1
301,294,303,310,1
300,293,302,309,1
299,293,302,307,1
298,293,300,305,1
296,292,300,304,1
296,291,302,303,1
297,291,305,304,1
299,292,308,304,1
302,294,311,304,1
304,296,313,302,1
305,297,313,300,1
306,297,311,298,1
305,300,310,297,1
304,304,309,299,1
303,308,309,300,1
301,311,307,301,1
300,312,307,303,1
301,312,307,305,1
302,311,308,308,1
303,312,309,309,1
304,313,308,308,1
305,316,308,308,1
306,321,307,308,1
308,325,306,308,1
309,327,304,308,1
310,323,302,306,1
309,316,299,304,1
309,309,299,303,1
307,306,299,302,1
306,305,301,301,1
305,305,303,299,1
303,305,306,296,1
302,306,308,293,1
300,308,309,291,1
300,309,310,289,1
300,308,310,287,1
300,306,308,284,1
301,303,307,284,1
303,302,306,287,1
305,303,307,292,1
307,304,306,298,1
308,304,305,303,1
307,303,304,306,1
306,304,304,308,1
304,305,304,309,1
303,308,306,308,1
303,309,307,305,1
303,310,308,301,1
304,310,308,299,1
305,309,308,297,1
308,308,309,298,1
309,306,309,299,1
310,303,308,300,1
311,302,308,304,1
314,305,309,310,1
317,310,311,316,1
318,314,311,319,1
318,314,310,319,1
317,310,308,318,1
315,306,305,316,1
311,301,303,312,1
308,298,301,308,1
305,296,300,304,1
303,297,299,299,1
302,299,297,297,1
301,303,297,296,1
301,306,297,297,1
301,307,298,299,1
302,309,300,301,1
303,310,302,304,1
305,311,303,304,1
306,312,304,304,1
307,313,307,304,1
309,314,309,304,1
309,315,310,305,1
310,315,310,306,1
310,313,310,307,1
310,312,308,308,1
310,310,306,309,1
309,309,304,308,1
309,307,302,306,1
309,305,301,305,1
310,304,301,303,1
310,305,302,303,1
310,305,303,303,1
308,306,304,304,1
307,306,304,306,1
306,306,304,308,1
306,305,304,309,1
307,305,304,311,1
310,307,305,313,1
312,310,304,314,1
314,313,302,314,1
316,319,301,315,1
317,326,301,315,1
317,330,301,314,1
314,332,301,311,1
311,332,301,308,1
308,330,301,306,1
306,326,302,305,1
305,320,303,306,1
304,312,304,306,1
304,306,305,308,1
305,301,306,310,1
307,298,307,311,1
309,296,306,312,1
311,295,304,312,1
309,293,302,311,1
308,293,301,310,1
306,293,301,310,1
306,295,303,310,1
306,296,303,310,1
304,297,304,310,1
303,298,304,308,1
303,299,303,306,1
303,300,302,302,1
304,301,302,297,1
304,301,300,294,1
305,300,299,292,1
305,299,299,290,1
306,299,300,290,1
307,298,302,292,1
308,298,305,298,1
308,297,308,304,1
308,296,310,309,1
308,298,312,314,1
308,300,312,318,1
307,302,312,320,1
306,303,311,320,1
304,304,310,319,1
304,304,311,317,1
304,305,311,316,1
305,308,311,316,1
306,312,310,318,1
306,314,309,320,1
306,314,306,320,1
307,314,304,320,1
307,313,301,319,1
309,313,299,317,1
310,314,299,315,1
312,315,302,312,1
315,317,307,309,1
315,317,310,306,1
314,317,312,304,1
312,316,313,305,1
310,316,312,307,1
308,315,312,310,1
306,314,312,311,1
303,314,312,313,1
301,313,311,313,1
299,312,310,314,1
299,310,310,313,1
301,309,310,312,1
302,310,309,311,1
305,314,309,309,1
307,317,309,308,1
309,321,309,306,1
310,322,308,303,1
310,320,307,299,1
309,318,306,296,1
308,317,305,295,1
308,316,305,296,1
307,312,305,297,1
306,305,304,295,1
304,299,304,295,1
303,295,304,294,1
303,292,304,294,1
304,291,304,294,1
305,292,303,296,1
306,294,302,297,1
306,297,303,297,1
306,298,302,297,1
305,299,302,296,1
304,299,301,298,1
304,301,301,301,1
304,306,302,304,1
305,311,303,306,1
305,315,302,305,1
304,318,299,303,1
304,318,297,300,1
303,316,296,299,1
303,317,297,301,1
305,319,300,305,1
306,320,304,310,1
306,319,308,314,1
307,316,310,316,1
307,311,311,317,1
308,307,311,317,1
309,305,310,317,1
310,302,309,314,1
310,299,308,311,1
309,297,308,310,1
309,296,308,310,1
307,297,308,310,1
306,298,310,311,1
306,300,311,311,1
305,303,311,310,1
305,305,311,308,1
303,306,309,305,1
301,307,308,303,1
300,308,306,301,1
298,307,304,298,1
298,306,301,297,1
298,305,299,296,1
299,302,298,297,1
300,300,300,297,1
302,299,303,299,1
304,299,306,300,1
305,300,307,302,1
305,302,308,305,1
305,304,307,306,1
305,303,306,306,1
305,301,305,305,1
305,300,305,303,1
304,299,305,302,1
304,300,306,301,1
305,300,308,301,1
305,301,310,301,1
306,303,311,303,1
308,306,313,305,1
311,311,314,306,1
314,315,314,305,1
318,318,315,304,1
321,320,314,302,1
321,319,313,300,1
320,314,312,298,1
317,310,310,296,1
313,306,309,296,1
308,303,308,296,1
304,300,307,296,1
302,298,307,296,1
301,298,307,295,1
301,300,307,295,1
302,303,307,296,1
303,306,308,297,1
304,307,308,299,1
305,305,306,299,1
304,301,304,297,1
303,295,301,293,1
301,291,298,290,1
301,290,295,287,1
300,290,293,284,1
299,290,291,282,1
298,291,291,282,1
298,295,293,287,1
300,299,298,293,1
301,301,301,298,1
300,301,302,300,1
298,300,302,300,1
298,298,301,301,1
298,296,302,301,1
299,296,302,302,1
299,296,303,303,1
299,298,304,306,1
299,300,306,309,1
300,302,308,311,1
302,302,308,313,1
303,302,308,313,1
303,302,307,313,1
303,303,305,312,1
304,305,304,312,1
304,307,302,312,1
304,310,301,311,1
306,312,303,311,1
308,311,306,312,1
311,310,308,312,1
312,308,310,311,1
311,305,311,310,1
309,304,311,310,1
307,304,311,310,1
304,304,311,310,1
301,303,311,309,1
300,303,310,309,1
299,302,310,307,1
300,302,309,306,1
300,303,307,304,1
301,303,306,300,1
301,302,305,296,1
300,301,302,291,1
298,301,300,286,1
297,301,299,282,1
297,304,299,281,1
297,311,302,286,1
300,318,306,292,1
302,322,310,299,1
302,323,313,304,1
302,323,313,308,1
303,323,313,310,1
303,322,312,311,1
304,321,311,312,1
306,320,311,313,1
309,318,311,312,1
311,315,310,310,1
311,310,308,308,1
311,304,306,306,1
309,299,306,305,1
306,294,306,306,1
304,292,308,308,1
303,291,309,310,1
302,291,309,313,1
302,293,307,313,1
301,296,306,312,1
300,298,304,309,1
299,299,304,307,1
299,299,305,304,1
299,299,305,302,1
300,299,305,298,1
300,298,304,296,1
301,297,303,295,1
302,299,302,297,1
303,302,302,301,1
304,304,302,302,1
304,303,301,301,1
304,302,300,298,1
304,301,300,297,1
306,304,300,297,1
307,308,301,297,1
307,313,300,296,1
305,315,299,296,1
302,318,300,298,1
300,322,302,303,1
301,324,305,310,1
302,321,307,314,1
302,316,307,316,1
301,309,307,316,1
302,304,306,315,1
303,301,307,314,1
304,299,307,312,1
305,298,307,309,1
307,298,308,306,1
308,300,310,304,1
309,303,311,303,1
310,305,311,302,1
308,307,310,301,1
306,307,309,299,1
304,307,308,297,1
302,306,308,295,1
301,305,307,295,1
300,304,307,296,1
299,303,307,300,1
299,304,309,306,1
300,306,311,312,1
301,308,313,317,1
301,309,315,320,1
302,309,316,320,1
303,308,316,319,1
303,308,314,317,1
303,307,313,315,1
304,308,311,313,1
304,308,309,311,1
304,309,307,309,1
304,311,306,308,1
305,314,306,308,1
305,316,308,309,1
305,318,309,311,1
306,318,309,311,1
307,316,309,311,1
308,313,308,311,1
309,311,307,311,1
309,311,306,312,1
310,311,305,314,1
308,312,303,316,1
307,312,301,317,1
305,310,299,317,1
304,307,296,315,1
303,305,294,312,1
303,304,294,310,1
303,303,296,310,1
304,303,298,311,1
305,304,300,313,1
305,304,303,316,1
306,305,304,317,1
306,305,305,317,1
305,306,305,316,1
304,307,304,315,1
303,308,304,314,1
303,308,303,314,1
304,308,304,313,1
305,308,305,312,1
307,310,306,310,1
308,310,306,308,1
308,310,307,307,1
307,309,306,305,1
306,306,305,305,1
305,303,304,304,1
306,302,303,304,1
306,303,303,304,1
307,305,303,304,1
308,307,301,304,1
308,311,301,304,1
310,315,303,307,1
312,320,308,312,1
313,324,311,317,1
313,325,313,320,1
311,325,313,323,1
309,323,313,324,1
307,319,313,324,1
305,315,312,324,1
304,309,311,323,1
305,305,310,322,1
306,300,309,320,1
308,296,309,317,1
310,293,309,314,1
311,292,308,311,1
313,291,307,310,1
313,292,308,310,1
311,293,309,311,1
310,294,308,310,1
309,293,307,308,1
309,293,307,306,1
311,294,307,303,1
312,295,307,300,1
314,297,308,297,1
315,299,309,294,1
315,302,310,293,1
314,305,311,295,1
314,309,312,298,1
312,309,311,302,1
310,308,310,305,1
308,305,309,307,1
307,303,308,308,1
307,303,307,308,1
307,304,306,307,1
307,306,305,305,1
307,308,306,305,1
307,309,306,306,1
306,309,307,309,1
305,307,306,311,1
305,306,306,313,1
304,306,306,313,1
304,307,304,312,1
304,308,300,309,1
304,307,295,305,1
304,305,291,301,1
304,303,289,299,1
304,302,291,299,1
305,304,297,302,1
306,307,302,306,1
307,308,305,310,1
308,307,306,311,1
308,303,304,309,1
306,299,302,305,1
305,297,301,302,1
307,297,301,300,1
307,300,301,300,1
306,304,302,303,1
304,311,303,307,1
304,319,303,310,1
304,326,303,313,1
304,331,304,314,1
305,332,303,314,1
304,327,303,313,1
304,319,303,313,1
303,309,303,313,1
303,300,303,313,1
303,295,304,313,1
303,291,305,313,1
303,290,306,312,1
304,289,306,310,1
303,289,306,308,1
302,290,306,306,1
301,290,305,304,1
303,292,304,301,1
305,294,302,298,1
308,297,301,297,1
312,302,301,299,1
316,307,302,303,1
318,309,302,305,1
318,308,302,307,1
316,309,302,309,1
312,310,302,310,1
307,312,302,311,1
304,314,301,312,1
301,317,301,312,1
299,319,301,312,1
299,320,303,312,1
299,319,306,312,1
300,317,308,310,1
300,314,310,308,1
300,312,312,305,1
300,311,313,305,1
301,310,314,305,1
302,309,314,307,1
303,307,314,309,1
304,304,313,311,1
305,303,313,313,1
306,302,311,314,1
305,300,309,313,1
305,297,305,310,1
304,293,303,308,1
306,290,301,306,1
308,290,302,305,1
312,292,304,306,1
315,295,307,308,1
317,300,309,309,1
319,305,311,310,1
318,307,311,309,1
314,307,311,308,1
310,306,311,309,1
305,303,310,310,1
301,299,308,310,1
298,297,307,309,1
297,296,306,306,1
297,296,304,304,1
297,297,302,302,1
298,299,303,301,1
299,301,305,301,1
300,303,309,302,1
302,306,311,302,1
303,307,312,302,1
303,307,312,300,1
303,306,312,298,1
303,305,311,297,1
303,304,311,298,1
303,304,311,301,1
303,306,311,306,1
304,309,312,310,1
305,311,312,313,1
306,312,312,314,1
306,313,311,313,1
305,314,310,310,1
303,316,309,307,1
302,316,307,304,1
302,315,306,302,1
302,313,304,301,1
304,310,302,300,1
306,308,301,299,1
307,307,302,299,1
309,307,303,300,1
311,307,304,301,1
313,307,305,303,1
315,308,307,305,1
315,309,308,307,1
314,312,310,309,1
312,313,310,310,1
309,313,310,310,1
306,310,310,310,1
304,307,310,310,1
304,305,312,311,1
305,305,312,315,1
306,307,311,318,1
308,311,308,320,1
308,314,305,321,1
308,316,303,320,1
308,316,301,318,1
308,315,300,314,1
306,311,301,310,1
305,307,301,307,1
305,305,302,305,1
306,306,303,303,1
308,311,305,304,1
308,315,304,305,1
306,319,304,305,1
304,320,303,305,1
303,320,303,306,1
302,321,303,308,1
302,320,304,309,1
302,317,304,309,1
302,314,305,309,1
302,311,304,309,1
302,308,302,308,1
301,306,298,308,1
300,304,295,308,1
300,301,291,310,1
301,298,290,312,1
302,296,289,313,1
304,296,291,313,1
306,297,296,314,1
307,299,302,314,1
307,302,305,312,1
306,305,308,311,1
305,308,309,310,1
304,309,309,309,1
303,309,310,310,1
302,305,311,310,1
301,301,311,310,1
300,298,311,310,1
300,297,312,309,1
300,296,312,307,1
299,297,312,305,1
299,299,311,305,1
298,301,310,304,1
299,303,309,304,1
300,305,307,303,1
300,305,306,302,1
301,307,306,303,1
302,308,307,303,1
304,308,308,304,1
306,308,308,304,1
309,308,308,304,1
310,308,308,304,1
310,308,308,304,1
310,308,307,303,1
309,307,306,299,1
307,306,305,294,1
306,304,304,290,1
305,302,304,288,1
304,299,304,287,1
303,298,305,288,1
302,299,305,294,1
301,304,306,302,1
303,311,307,310,1
305,315,308,316,1
307,315,309,319,1
309,313,310,320,1
311,311,311,321,1
314,308,313,320,1
317,307,315,318,1
321,306,316,316,1
323,307,317,313,1
324,311,316,311,1
324,315,315,310,1
324,319,313,311,1
321,319,312,310,1
318,317,311,311,1
314,314,310,311,1
311,311,309,310,1
310,310,309,309,1
312,309,309,309,1
314,309,310,310,1
317,309,310,310,1
318,308,310,311,1
319,307,309,311,1
319,305,308,311,1
317,303,306,310,1
314,300,303,309,1
310,299,300,307,1
306,298,298,306,1
303,300,296,305,1
303,301,296,304,1
303,303,297,303,1
305,304,300,303,1
307,305,304,305,1
309,304,307,306,1
310,303,308,308,1
310,301,308,308,1
310,300,308,307,1
310,299,308,307,1
311,300,308,307,1
312,304,310,308,1
313,311,310,311,1
315,318,311,314,1
314,323,311,316,1
311,324,310,314,1
307,321,309,311,1
304,316,308,306,1
302,310,308,302,1
303,306,308,300,1
304,303,309,301,1
305,301,310,303,1
307,302,312,307,1
309,303,313,310,1
311,304,314,313,1
310,303,314,316,1
308,301,313,317,1
306,298,311,318,1
304,296,310,318,1
304,294,308,318,1
304,291,306,316,1
304,289,304,313,1
303,287,304,311,1
303,286,304,310,1
304,286,305,309,1
305,288,307,309,1
307,292,310,310,1
308,298,312,312,1
310,306,315,315,1
311,312,316,318,1
311,315,315,319,1
310,315,313,319,1
309,313,311,318,1
307,311,309,317,1
306,310,307,316,1
305,309,306,315,1
304,307,304,313,1
304,305,302,312,1
305,304,301,312,1
305,302,299,310,1
305,302,299,307,1
304,303,299,303,1
304,303,300,300,1
304,303,302,298,1
306,303,304,297,1
308,302,306,297,1
310,302,307,299,1
312,304,309,303,1
313,307,311,308,1
312,309,311,311,1
309,310,309,312,1
305,312,307,313,1
301,317,305,312,1
298,323,303,312,1
297,331,301,313,1
297,338,300,315,1
297,342,298,316,1
298,344,296,315,1
298,342,295,314,1
299,341,296,313,1
301,340,300,312,1
304,341,305,309,1
306,343,309,306,1
308,344,310,302,1
308,338,311,299,1
308,330,312,297,1
308,321,313,299,1
308,313,313,304,1
309,304,313,310,1
308,295,313,314,1
307,283,312,315,1
305,271,311,313,1
304,261,310,312,1
303,254,310,309,1
302,252,309,308,1
302,253,308,308,1
302,255,308,308,1
302,259,307,308,1
302,262,306,307,1
303,265,305,305,1
304,269,305,305,1
306,272,306,307,1
308,277,306,309,1
309,282,307,311,1
309,286,307,314,1
309,289,307,315,1
307,292,306,315,1
306,293,305,316,1
306,294,305,314,1
306,295,304,313,1
305,297,302,311,1
305,298,302,311,1
305,300,302,310,1
305,301,302,309,1
306,301,303,309,1
308,300,304,308,1
309,299,305,308,1
310,299,304,307,1
310,299,304,306,1
311,301,305,306,1
311,303,305,307,1
312,307,306,310,1
313,312,308,313,1
314,318,310,316,1
315,324,311,318,1
315,327,311,319,1
314,327,310,318,1
313,324,309,318,1
313,322,307,317,1
312,321,306,316,1
311,322,306,315,1
311,325,306,315,1
310,330,307,315,1
310,339,309,315,1
311,350,310,315,1
310,359,310,315,1
309,361,309,315,1
309,355,308,314,1
308,342,307,312,1
306,328,306,310,1
305,316,305,308,1
303,303,304,306,1
301,293,303,303,1
301,284,303,300,1
301,276,302,298,1
301,269,302,295,1
302,263,302,293,1
303,260,303,292,1
305,264,303,293,1
307,274,303,296,1
310,288,303,298,1
311,298,302,300,1
310,302,303,301,1
307,300,304,303,1
304,298,305,305,1
303,297,307,307,1
303,297,308,309,1
304,297,310,311,1
304,296,311,313,1
305,297,311,315,1
305,299,310,316,1
305,302,308,317,1
305,305,307,317,1
306,306,306,316,1
307,305,305,314,1
308,302,303,312,1
307,296,301,308,1
305,290,298,306,1
302,286,296,304,1
300,285,296,304,1
300,286,298,304,1
301,288,301,305,1
302,291,304,305,1
305,295,308,305,1
307,300,311,305,1
309,304,313,305,1
310,307,314,305,1
311,305,313,304,1
309,302,312,303,1
308,298,311,302,1
307,297,310,303,1
306,297,309,303,1
306,299,308,303,1
304,300,307,304,1
303,300,306,304,1
302,301,305,304,1
303,303,305,302,1
303,305,304,301,1
304,308,303,300,1
304,310,302,301,1
303,311,302,302,1
303,311,302,302,1
302,311,302,302,1
302,311,302,302,1
302,311,303,304,1
302,314,304,307,1
303,319,304,310,1
305,322,304,311,1
306,323,304,310,1
307,323,302,309,1
307,322,301,307,1
307,320,299,306,1
306,316,298,304,1
305,310,298,302,1
304,302,299,300,1
304,296,300,299,1
304,292,301,299,1
303,291,303,301,1
303,292,305,304,1
303,293,307,308,1
304,295,310,309,1
305,296,312,310,1
305,297,313,309,1
306,297,312,308,1
307,299,311,307,1
308,301,310,307,1
310,304,309,307,1
311,309,306,309,1
311,316,304,311,1
312,323,303,314,1
312,330,305,317,1
312,333,309,319,1
312,334,312,319,1
312,334,314,318,1
312,333,315,318,1
313,330,316,318,1
314,324,315,317,1
315,317,312,316,1
315,309,308,313,1
314,302,305,311,1
312,298,303,309,1
310,294,302,307,1
308,294,303,306,1
306,294,306,305,1
306,296,308,305,1
305,298,309,306,1
306,300,310,306,1
307,302,310,306,1
307,301,310,305,1
307,300,310,304,1
306,298,309,304,1
306,297,308,304,1
306,299,308,306,1
305,301,307,307,1
305,303,307,308,1
305,305,307,307,1
305,309,307,306,1
306,314,307,305,1
306,320,308,304,1
307,325,309,302,1
307,328,310,301,1
308,327,309,302,1
308,324,309,304,1
308,321,309,307,1
309,318,308,310,1
309,314,307,312,1
309,310,306,312,1
309,308,305,312,1
310,308,306,311,1
310,308,306,310,1
310,306,307,310,1
310,304,307,310,1
309,301,307,310,1
308,299,307,310,1
308,299,308,309,1
308,301,309,308,1
308,303,310,307,1
308,308,311,306,1
308,312,313,305,1
308,315,314,305,1
307,321,315,307,1
307,329,315,310,1
308,341,315,311,1
309,352,315,311,1
308,359,314,309,1
307,358,313,306,1
306,351,312,304,1
305,339,312,302,1
305,324,312,300,1
304,311,313,300,1
304,302,313,301,1
304,295,313,302,1
304,291,313,303,1
304,289,312,304,1
304,287,310,305,1
304,285,309,307,1
304,284,308,308,1
303,281,307,308,1
302,280,304,307,1
302,282,302,304,1
301,288,299,299,1
300,295,296,294,1
298,303,294,290,1
297,309,293,287,1
296,312,294,286,1
296,312,296,285,1
297,314,298,287,1
298,316,301,290,1
301,317,304,294,1
303,317,308,300,1
305,315,312,304,1
306,308,314,307,1
307,299,316,309,1
309,291,317,310,1
310,287,318,310,1
310,285,317,311,1
310,284,317,312,1
309,285,316,312,1
308,286,315,312,1
307,287,314,310,1
307,288,313,308,1
307,291,313,306,1
307,296,313,304,1
309,303,312,303,1
309,310,312,302,1
310,319,312,304,1
310,325,312,307,1
310,326,312,309,1
309,321,312,311,1
309,315,312,312,1
309,310,311,312,1
309,308,311,311,1
311,307,312,310,1
312,306,312,309,1
313,304,313,307,1
313,303,313,306,1
313,302,313,304,1
313,301,313,303,1
313,298,311,301,1
311,296,310,298,1
309,295,308,297,1
308,296,308,298,1
308,297,308,300,1
308,296,308,302,1
308,294,307,302,1
307,293,306,303,1
307,294,303,303,1
307,294,301,304,1
307,297,300,306,1
308,301,300,308,1
310,308,302,310,1
311,316,303,311,1
313,324,305,312,1
314,329,307,311,1
315,331,309,310,1
314,329,310,309,1
314,323,311,309,1
313,317,312,309,1
312,311,311,310,1
309,305,310,309,1
305,301,309,308,1
301,298,308,307,1
299,295,307,307,1
298,293,305,307,1
297,292,303,306,1
297,291,299,306,1
297,290,296,305,1
296,289,294,304,1
296,288,292,302,1
296,285,292,301,1
298,283,294,300,1
300,283,298,300,1
302,286,302,300,1
304,290,305,302,1
306,296,307,305,1
308,305,309,311,1
310,315,309,316,1
311,321,310,318,1
311,325,309,319,1
309,325,308,318,1
308,323,308,316,1
306,319,307,316,1
305,313,307,314,1
304,305,308,313,1
303,298,309,313,1
303,294,311,315,1
304,293,312,317,1
305,295,314,318,1
307,300,315,318,1
309,309,316,318,1
311,321,318,318,1
313,334,319,317,1
313,341,318,316,1
311,342,316,314,1
309,339,313,310,1
308,334,311,307,1
307,329,309,304,1
306,321,307,301,1
305,310,306,298,1
305,299,305,295,1
303,290,305,295,1
302,286,306,295,1
302,286,308,297,1
304,289,310,300,1
306,293,312,305,1
308,296,313,309,1
309,298,313,313,1
309,300,314,316,1
310,300,315,320,1
310,298,315,321,1
308,295,315,322,1
307,292,314,323,1
306,290,313,323,1
306,290,313,323,1
306,294,312,321,1
306,301,311,319,1
307,310,310,318,1
306,318,310,316,1
307,324,311,314,1
306,325,311,313,1
304,319,311,312,1
303,310,310,312,1
302,300,310,312,1
302,292,308,312,1
302,290,307,310,1
303,292,305,307,1
303,295,303,303,1
304,299,302,300,1
305,304,302,300,1
306,310,303,301,1
306,312,302,302,1
305,311,299,302,1
304,309,296,302,1
303,305,294,303,1
301,301,293,303,1
300,295,291,303,1
300,290,292,303,1
301,288,295,304,1
303,286,299,304,1
305,286,303,307,1
307,287,307,311,1
309,289,311,315,1
310,292,312,316,1
309,297,313,317,1
308,301,313,318,1
307,305,313,318,1
306,306,313,317,1
306,307,314,317,1
307,307,315,318,1
309,310,317,319,1
310,313,318,321,1
310,317,317,321,1
309,321,316,321,1
309,324,314,319,1
308,324,312,316,1
307,323,311,313,1
306,322,310,311,1
304,320,309,309,1
303,317,307,307,1
303,312,305,306,1
302,309,304,305,1
302,311,303,304,1
302,316,303,305,1
303,323,304,308,1
304,327,306,312,1
305,327,308,314,1
306,324,310,315,1
307,320,311,316,1
309,317,312,316,1
310,316,312,316,1
311,317,312,316,1
312,321,312,315,1
312,325,312,314,1
311,326,312,313,1
310,324,311,314,1
308,318,310,313,1
306,309,309,312,1
305,299,309,310,1
305,293,308,309,1
307,291,308,309,1
308,291,308,308,1
310,292,308,308,1
311,294,307,308,1
312,295,307,308,1
312,295,307,308,1
311,294,306,307,1
309,294,307,305,1
306,294,307,303,1
305,296,306,302,1
304,298,306,303,1
304,300,305,302,1
305,301,302,301,1
305,301,300,299,1
305,299,299,297,1
306,297,299,295,1
306,294,299,293,1
305,292,301,291,1
304,290,302,291,1
303,290,302,293,1
303,291,301,297,1
302,293,299,302,1
300,295,298,305,1
297,297,296,307,1
296,300,296,306,1
297,303,297,305,1
298,306,299,304,1
300,310,300,303,1
301,315,300,303,1
302,318,300,304,1
304,318,301,306,1
305,317,303,308,1
307,316,305,312,1
308,315,308,316,1
309,314,311,317,1
310,314,312,316,1
310,316,312,314,1
310,319,310,312,1
310,324,309,309,1
310,327,307,304,1
309,327,305,298,1
309,325,304,292,1
309,323,303,287,1
309,321,302,284,1
309,321,302,281,1
309,324,304,281,1
309,327,304,284,1
309,328,305,289,1
309,329,305,296,1
308,330,305,302,1
307,331,305,304,1
306,330,304,305,1
306,330,303,305,1
307,332,302,305,1
308,333,303,307,1
309,333,304,309,1
309,334,304,311,1
308,334,305,315,1
308,335,307,320,1
308,334,308,323,1
308,328,309,324,1
307,317,310,323,1
306,302,311,323,1
306,288,312,321,1
305,278,312,320,1
304,274,311,320,1
304,275,310,320,1
304,278,308,319,1
303,282,307,318,1
303,287,306,316,1
304,290,306,314,1
304,293,305,310,1
304,295,303,306,1
303,296,301,301,1
302,295,300,297,1
303,296,302,295,1
305,301,304,295,1
308,309,308,295,1
311,318,310,296,1
312,324,311,296,1
311,327,310,297,1
309,329,308,300,1
307,327,306,304,1
303,322,303,306,1
300,317,301,308,1
298,313,302,312,1
297,311,305,315,1
298,307,308,318,1
300,300,310,318,1
302,292,311,316,1
305,287,311,314,1
306,283,311,313,1
307,282,311,313,1
306,283,311,313,1
305,287,311,312,1
305,291,310,312,1
306,295,309,311,1
306,298,309,310,1
307,302,309,310,1
308,304,309,310,1
309,304,309,311,1
310,303,309,310,1
309,300,308,308,1
308,299,306,304,1
306,298,303,299,1
305,300,301,294,1
304,302,299,289,1
303,305,297,284,1
302,307,297,283,1
303,309,298,286,1
304,313,301,292,1
306,318,304,300,1
308,323,306,306,1
309,327,307,309,1
309,330,305,309,1
309,332,303,309,1
309,335,300,308,1
309,337,297,308,1
309,336,295,308,1
310,328,295,308,1
311,318,297,307,1
312,309,300,308,1
312,303,302,308,1
313,297,304,309,1
313,295,306,311,1
313,298,307,314,1
314,304,309,317,1
313,310,310,319,1
312,315,311,320,1
310,320,311,320,1
308,321,311,319,1
307,319,310,319,1
306,314,310,320,1
306,306,310,321,1
306,299,310,321,1
307,295,309,320,1
307,293,309,319,1
307,293,310,319,1
307,295,311,318,1
308,296,311,317,1
308,297,311,315,1
307,298,311,312,1
307,299,309,309,1
306,299,306,306,1
306,299,303,305,1
305,302,302,304,1
306,309,301,304,1
306,317,301,305,1
307,325,302,307,1
308,328,304,309,1
308,324,304,311,1
308,317,303,313,1
308,310,305,314,1
310,305,307,314,1
311,302,309,313,1
312,302,311,312,1
314,304,313,312,1
314,310,315,311,1
313,316,316,310,1
312,320,317,309,1
310,319,316,308,1
308,315,314,306,1
306,310,312,303,1
305,306,309,301,1
304,303,307,298,1
304,301,306,296,1
304,301,306,295,1
304,301,304,294,1
303,301,303,294,1
303,302,301,296,1
303,305,300,302,1
304,310,299,308,1
306,315,300,315,1
307,318,301,318,1
308,318,301,317,1
306,316,302,315,1
304,311,303,311,1
302,307,303,308,1
302,308,304,307,1
303,313,304,307,1
305,322,306,309,1
308,333,307,310,1
309,344,307,312,1
309,353,307,312,1
308,358,307,311,1
307,354,307,310,1
306,343,308,309,1
304,327,308,308,1
303,310,309,308,1
303,296,309,309,1
303,289,309,310,1
303,288,309,313,1
304,294,309,315,1
306,301,308,316,1
308,306,307,315,1
309,305,306,312,1
310,301,305,308,1
310,297,306,303,1
309,295,304,298,1
307,294,302,293,1
305,295,299,288,1
303,295,297,285,1
301,296,294,283,1
300,295,293,283,1
300,293,294,284,1
301,292,296,286,1
303,292,298,288,1
305,294,299,291,1
307,297,300,297,1
308,301,300,303,1
308,305,301,309,1
308,308,302,315,1
308,310,305,320,1
309,310,309,324,1
311,309,312,326,1
312,307,314,326,1
314,303,314,324,1
315,300,314,322,1
316,297,313,319,1
316,295,311,318,1
316,294,310,316,1
315,295,308,316,1
314,297,307,316,1
314,302,307,317,1
313,307,307,318,1
314,311,307,318,1
313,314,308,318,1
313,314,309,316,1
313,313,309,314,1
312,313,308,310,1
312,313,306,306,1
312,314,305,302,1
312,316,304,299,1
313,318,304,296,1
313,324,304,294,1
313,332,304,294,1
312,340,305,296,1
310,345,305,297,1
308,343,305,298,1
307,335,305,299,1
306,320,304,299,1
304,303,302,299,1
305,290,300,298,1
305,281,299,298,1
304,276,298,297,1
303,277,297,296,1
303,282,298,296,1
304,292,299,300,1
305,301,300,304,1
306,310,300,307,1
306,318,300,311,1
307,325,301,313,1
308,329,302,313,1
306,329,303,312,1
306,326,305,311,1
305,320,307,310,1
303,315,308,307,1
302,309,307,304,1
302,302,306,302,1
302,293,305,300,1
302,284,304,300,1
302,279,303,303,1
302,278,303,307,1
303,279,304,310,1
303,281,305,312,1
302,284,306,312,1
302,287,307,312,1
302,291,307,313,1
303,296,308,314,1
303,299,309,314,1
302,300,309,314,1
301,301,309,311,1
300,302,308,308,1
300,305,306,303,1
299,309,304,298,1
299,314,301,293,1
299,320,299,289,1
300,328,299,289,1
303,339,300,293,1
306,348,300,299,1
307,351,300,304,1
307,346,298,308,1
305,336,296,311,1
303,325,295,313,1
302,314,295,314,1
302,303,298,314,1
302,292,301,313,1
301,284,304,311,1
300,278,306,310,1
300,276,308,312,1
302,277,310,314,1
304,281,313,316,1
305,284,313,317,1
306,287,313,317,1
306,290,312,316,1
305,293,309,315,1
304,297,307,313,1
305,299,306,311,1
305,299,306,309,1
306,298,306,309,1
306,298,306,309,1
306,300,306,310,1
307,307,307,311,1
307,315,308,312,1
308,323,308,313,1
307,329,308,313,1
306,333,306,311,1
305,335,303,309,1
305,333,301,307,1
305,324,299,305,1
304,312,298,304,1
305,302,298,303,1
306,295,298,302,1
306,291,299,301,1
307,289,299,302,1
307,289,301,303,1
306,291,302,304,1
305,297,303,306,1
305,305,303,307,1
305,311,303,308,1
305,316,303,309,1
305,319,303,311,1
305,319,303,312,1
305,316,303,314,1
306,312,304,315,1
306,307,303,314,1
306,302,301,311,1
306,300,298,306,1
305,300,297,304,1
305,300,298,303,1
306,300,300,304,1
307,297,302,306,1
308,292,304,307,1
308,289,305,308,1
308,287,305,308,1
307,288,305,308,1
306,291,304,308,1
304,294,302,307,1
302,298,300,306,1
300,302,297,305,1
298,304,295,302,1
298,305,292,300,1
298,302,290,300,1
298,299,290,302,1
299,298,291,306,1
301,299,293,312,1
305,303,296,318,1
308,307,300,323,1
311,311,304,327,1
312,316,306,329,1
311,321,305,328,1
308,327,303,326,1
305,334,301,324,1
303,339,298,319,1
300,340,295,313,1
298,337,293,308,1
297,329,292,302,1
296,318,292,299,1
298,307,294,297,1
299,296,297,297,1
301,286,300,297,1
302,278,302,297,1
303,272,303,297,1
303,268,303,297,1
304,267,302,297,1
305,269,303,299,1
306,273,303,302,1
308,278,304,305,1
310,284,303,307,1
311,288,303,309,1
311,292,302,310,1
310,294,302,311,1
310,295,302,312,1
310,297,303,313,1
310,300,303,314,1
311,302,303,314,1
310,303,303,314,1
309,302,303,313,1
308,303,304,312,1
308,306,305,312,1
309,312,305,312,1
311,319,306,310,1
313,329,306,308,1
314,338,307,306,1
315,347,308,304,1
315,351,307,303,1
313,346,306,301,1
309,334,304,300,1
305,320,303,299,1
302,309,303,300,1
301,302,303,303,1
301,298,305,305,1
301,293,305,307,1
301,287,304,306,1
301,282,305,306,1
301,278,305,306,1
302,277,305,305,1
302,277,305,303,1
302,278,305,301,1
303,280,305,298,1
304,283,306,297,1
306,287,307,297,1
309,292,308,299,1
311,296,309,303,1
314,301,310,307,1
315,304,311,310,1
315,306,311,312,1
313,306,310,312,1
310,307,309,309,1
307,307,307,307,1
303,308,305,304,1
300,308,302,302,1
297,309,301,300,1
296,314,299,300,1
297,323,300,302,1
300,336,304,306,1
303,348,309,309,1
306,356,314,312,1
308,357,317,312,1
309,347,318,311,1
308,330,318,309,1
306,313,317,306,1
305,300,316,303,1
303,293,315,299,1
301,289,314,296,1
300,287,313,294,1
300,287,313,294,1
303,289,313,295,1
305,291,313,297,1
308,293,313,299,1
310,291,312,301,1
310,289,312,302,1
310,286,311,303,1
310,285,311,303,1
310,284,311,304,1
311,285,311,303,1
311,287,311,303,1
311,289,311,302,1
310,292,311,300,1
309,294,310,299,1
309,297,308,297,1
309,298,306,295,1
308,298,304,293,1
308,299,303,293,1
307,301,303,292,1
307,302,303,293,1
306,304,304,293,1
307,307,305,294,1
307,309,307,295,1
306,311,308,296,1
305,312,309,297,1
303,310,309,297,1
302,308,308,298,1
302,307,308,299,1
302,306,308,301,1
303,305,307,303,1
303,302,307,303,1
303,299,307,302,1
303,298,306,300,1
303,298,306,298,1
304,299,306,297,1
305,300,306,296,1
306,301,305,295,1
306,303,305,295,1
306,304,304,295,1
305,305,305,295,1
305,305,306,296,1
305,304,307,296,1
305,304,308,296,1
306,305,308,296,1
306,305,308,295,1
305,304,308,294,1
304,306,307,293,1
304,311,306,294,1
303,318,305,296,1
303,327,304,298,1
303,336,303,301,1
304,343,303,303,1
304,344,303,305,1
304,342,303,306,1
303,335,303,307,1
302,324,301,306,1
302,313,298,304,1
301,304,295,301,1
302,298,293,299,1
302,295,292,297,1
303,295,291,297,1
304,297,292,298,1
304,302,294,300,1
304,310,298,303,1
303,317,302,305,1
303,324,306,307,1
304,328,309,310,1
305,329,312,313,1
306,326,313,315,1
306,318,313,315,1
306,307,313,312,1
306,297,311,307,1
305,289,310,302,1
305,284,309,299,1
305,283,308,295,1
305,286,306,292,1
306,290,304,290,1
307,296,303,289,1
307,301,301,289,1
308,304,301,288,1
308,305,301,287,1
309,306,301,289,1
308,307,302,292,1
307,307,303,299,1
306,307,305,307,1
306,306,307,314,1
306,304,309,320,1
306,302,310,322,1
305,299,311,322,1
304,297,310,321,1
304,297,310,320,1
304,298,309,319,1
305,300,307,315,1
306,302,306,311,1
307,303,304,307,1
306,302,303,302,1
304,300,301,298,1
303,298,301,294,1
301,298,300,293,1
300,299,300,293,1
299,300,301,293,1
299,300,301,292,1
298,299,302,291,1
298,299,302,289,1
299,299,303,290,1
302,301,304,294,1
304,305,305,300,1
307,311,305,307,1
309,316,304,313,1
310,320,303,317,1
310,322,302,318,1
309,320,300,316,1
307,318,298,312,1
306,315,298,307,1
304,312,297,302,1
302,307,296,297,1
299,304,295,294,1
298,304,295,295,1
298,311,296,299,1
299,322,299,306,1
299,331,300,312,1
298,336,302,317,1
299,339,306,319,1
300,340,309,320,1
302,341,311,319,1
304,340,312,315,1
305,339,313,313,1
306,342,314,312,1
307,344,314,313,1
308,338,314,314,1
308,323,313,313,1
307,305,312,311,1
307,290,312,309,1
309,281,311,308,1
310,274,310,309,1
311,268,309,311,1
310,263,308,312,1
307,259,306,312,1
304,258,303,310,1
301,259,302,310,1
300,262,302,310,1
302,265,302,310,1
304,269,303,311,1
307,274,304,312,1
309,278,305,313,1
309,281,305,312,1
308,283,305,312,1
308,287,306,312,1
309,291,307,312,1
309,295,308,311,1
309,299,307,310,1
307,300,306,308,1
304,300,304,306,1
303,299,304,307,1
303,299,304,309,1
303,297,304,310,1
303,294,305,311,1
304,294,305,312,1
304,296,307,314,1
305,301,308,314,1
304,307,309,313,1
303,311,308,312,1
301,311,308,312,1
300,308,307,310,1
300,303,305,309,1
300,298,303,310,1
301,297,302,312,1
302,298,300,314,1
303,302,300,316,1
303,306,300,317,1
304,311,301,315,1
304,314,304,313,1
304,315,306,309,1
303,315,307,306,1
301,319,308,306,1
301,326,308,308,1
301,333,307,309,1
300,341,306,310,1
300,344,304,309,1
301,337,302,307,1
301,324,301,304,1
302,309,300,301,1
302,297,299,298,1
303,289,299,296,1
303,284,299,295,1
304,281,300,296,1
304,279,302,298,1
305,278,302,299,1
303,278,302,301,1
302,280,301,302,1
300,284,300,304,1
299,292,299,305,1
298,302,298,305,1
298,312,298,305,1
298,321,299,305,1
299,329,300,304,1
299,336,302,302,1
300,337,303,299,1
301,331,304,294,1
301,318,303,287,1
300,303,303,282,1
300,291,303,280,1
302,285,305,283,1
302,284,306,291,1
302,286,306,301,1
301,287,306,310,1
301,287,306,316,1
300,286,306,320,1
300,286,306,321,1
300,287,307,321,1
301,288,308,321,1
302,290,310,320,1
304,292,311,318,1
306,295,312,317,1
308,298,313,316,1
309,302,312,316,1
309,306,311,317,1
310,313,310,317,1
310,324,310,316,1
311,336,309,314,1
311,343,308,312,1
310,341,307,311,1
308,334,305,310,1
305,323,304,309,1
303,314,304,308,1
302,307,305,309,1
300,301,304,309,1
298,295,302,310,1
298,290,301,311,1
298,289,302,312,1
298,291,302,312,1
299,296,302,312,1
299,302,301,311,1
299,309,300,308,1
299,316,300,306,1
300,322,301,305,1
302,326,303,305,1
304,328,306,304,1
305,324,307,304,1
306,317,308,305,1
307,311,308,306,1
309,306,309,309,1
312,305,310,313,1
314,308,310,316,1
316,314,311,319,1
318,319,309,320,1
318,322,308,319,1
315,320,306,317,1
310,316,304,313,1
305,314,301,309,1
301,316,299,305,1
298,316,297,303,1
296,312,297,302,1
295,304,297,302,1
295,295,298,303,1
295,288,299,307,1
295,284,301,310,1
297,282,302,311,1
298,281,301,309,1
299,280,299,307,1
300,281,298,305,1
302,282,297,303,1
303,285,296,303,1
304,289,296,302,1
305,294,296,301,1
306,299,297,300,1
306,302,299,299,1
307,304,301,299,1
308,304,303,302,1
308,304,303,304,1
308,303,304,307,1
308,303,303,309,1
307,302,303,309,1
305,303,302,307,1
304,304,301,306,1
303,304,301,304,1
303,303,300,302,1
302,303,300,301,1
302,302,300,300,1
304,303,300,300,1
305,305,302,302,1
306,307,303,303,1
308,310,304,304,1
309,313,304,305,1
310,314,304,308,1
310,315,303,309,1
309,315,302,310,1
308,314,300,310,1
307,313,299,311,1
307,313,299,311,1
307,312,297,309,1
306,312,296,306,1
306,314,295,303,1
305,318,295,300,1
306,322,296,300,1
308,324,299,302,1
308,324,302,305,1
308,321,304,307,1
307,316,305,307,1
307,310,304,305,1
306,304,303,301,1
305,299,301,295,1
303,295,299,291,1
301,295,298,287,1
301,295,299,285,1
302,296,301,285,1
304,297,304,287,1
306,298,308,294,1
309,300,311,303,1
310,303,314,311,1
312,306,315,318,1
313,311,315,323,1
314,316,315,325,1
315,321,314,325,1
315,326,312,324,1
315,328,310,322,1
314,327,308,319,1
314,324,305,316,1
312,320,304,313,1
311,319,302,311,1
311,322,302,307,1
310,327,302,305,1
311,332,302,304,1
312,336,304,306,1
313,337,305,309,1
314,332,306,313,1
314,325,307,317,1
315,318,308,321,1
317,312,309,323,1
319,308,311,325,1
320,307,311,325,1
321,307,311,326,1
319,307,310,325,1
316,304,308,324,1
312,302,306,322,1
307,300,304,319,1
303,300,302,315,1
300,300,299,311,1
298,301,298,308,1
298,302,299,305,1
299,302,301,302,1
300,300,303,300,1
302,297,305,299,1
304,294,306,299,1
305,289,307,301,1
306,287,307,304,1
308,290,309,309,1
310,298,309,312,1
313,308,309,313,1
314,317,308,313,1
314,324,307,312,1
313,328,305,312,1
312,329,304,312,1
312,325,303,313,1
310,316,303,313,1
307,305,304,312,1
305,294,304,312,1
306,288,305,311,1
307,287,307,310,1
309,291,308,310,1
311,297,309,309,1
312,304,310,308,1
312,307,310,307,1
311,307,311,307,1
311,303,312,308,1
309,299,312,310,1
308,296,312,311,1
305,293,312,312,1
303,291,310,311,1
301,289,308,311,1
299,288,305,309,1
299,288,304,308,1
299,289,302,307,1
300,291,301,306,1
301,295,301,305,1
303,300,301,305,1
304,306,301,307,1
306,309,301,308,1
307,309,301,308,1
307,310,302,307,1
308,311,304,306,1
309,314,306,305,1
310,318,308,303,1
310,321,308,300,1
309,322,308,297,1
308,322,306,296,1
307,322,306,297,1
308,322,306,299,1
308,318,306,301,1
308,312,306,304,1
308,306,307,306,1
308,302,307,309,1
308,302,308,311,1
309,304,309,313,1
310,307,310,314,1
311,311,311,313,1
311,316,310,310,1
311,321,309,308,1
312,326,309,308,1
312,332,308,310,1
313,337,307,313,1
313,340,305,315,1
314,338,303,316,1
313,333,300,316,1
312,326,298,314,1
311,321,295,312,1
310,313,294,310,1
310,302,296,307,1
309,292,299,304,1
308,284,302,301,1
307,279,303,299,1
304,278,303,299,1
303,280,304,299,1
302,284,305,301,1
301,289,304,302,1
302,295,303,304,1
303,302,301,305,1
304,310,300,306,1
306,319,300,307,1
307,325,300,307,1
307,328,300,305,1
307,327,300,303,1
307,321,299,301,1
306,313,299,298,1
305,303,299,297,1
304,296,300,298,1
304,293,302,300,1
305,293,305,303,1
306,295,308,306,1
306,297,311,308,1
307,300,312,309,1
307,304,312,308,1
308,309,312,306,1
308,312,311,304,1
307,316,310,302,1
307,317,309,300,1
306,317,309,300,1
306,315,309,300,1
305,311,309,300,1
305,307,309,301,1
306,305,308,302,1
307,305,308,305,1
307,308,308,310,1
308,313,309,315,1
310,316,310,318,1
312,317,312,319,1
313,314,313,318,1
314,311,313,316,1
315,305,314,314,1
316,302,313,311,1
316,301,313,309,1
316,301,312,307,1
315,303,311,306,1
314,307,311,305,1
313,313,310,305,1
312,319,309,305,1
310,322,309,304,1
309,324,308,303,1
307,321,308,302,1
306,318,308,302,1
306,317,308,304,1
306,317,307,308,1
305,320,307,312,1
305,329,307,316,1
305,340,308,319,1
305,349,309,323,1
305,351,310,326,1
305,347,310,326,1
304,335,308,324,1
303,318,307,321,1
303,300,305,318,1
302,281,303,315,1
302,265,301,311,1
301,257,300,309,1
302,254,301,307,1
303,256,302,305,1
304,260,302,304,1
305,265,302,302,1
306,269,302,301,1
307,274,302,299,1
309,279,303,299,1
310,282,304,299,1
310,286,304,298,1
310,291,305,298,1
309,299,305,300,1
309,308,306,303,1
309,317,307,305,1
310,325,308,307,1
310,331,309,308,1
310,335,310,309,1
309,332,311,307,1
309,323,311,302,1
308,313,310,298,1
307,303,309,296,1
305,297,307,296,1
303,293,306,299,1
301,291,305,303,1
300,292,305,305,1
299,294,304,306,1
299,297,302,304,1
299,301,302,304,1
299,305,302,304,1
301,309,303,304,1
302,311,305,305,1
301,312,306,306,1
300,311,307,307,1
300,310,307,308,1
301,310,307,309,1
302,310,307,311,1
304,310,307,312,1
305,309,307,312,1
305,307,306,311,1
305,307,304,311,1
307,311,303,311,1
308,318,303,311,1
309,325,304,312,1
309,329,305,311,1
309,332,307,311,1
309,332,308,311,1
309,329,309,310,1
309,324,308,308,1
308,319,307,305,1
307,317,305,301,1
303,318,302,297,1
300,322,299,294,1
298,327,298,293,1
297,329,297,294,1
297,323,297,295,1
298,312,298,297,1
300,300,300,300,1
302,290,303,305,1
303,282,306,310,1
302,278,307,314,1
300,276,308,317,1
298,278,306,319,1
297,280,304,320,1
296,282,304,321,1
296,284,306,322,1
298,285,309,322,1
300,287,313,322,1
303,289,316,323,1
305,290,318,323,1
307,292,319,321,1
309,293,319,319,1
311,297,318,317,1
312,301,318,316,1
311,309,318,314,1
310,317,318,314,1
308,324,317,314,1
306,326,316,315,1
304,324,315,315,1
302,318,313,315,1
302,310,311,314,1
301,302,310,312,1
301,297,307,309,1
299,293,305,305,1
299,292,302,301,1
298,292,300,297,1
299,294,299,293,1
301,296,299,292,1
303,300,300,291,1
305,303,301,292,1
306,306,303,292,1
306,308,303,292,1
307,310,302,291,1
307,313,302,289,1
305,315,301,287,1
303,320,301,288,1
300,325,301,294,1
299,328,303,301,1
299,329,305,308,1
300,327,307,314,1
301,325,309,318,1
302,322,310,320,1
303,322,311,321,1
304,321,310,321,1
304,321,309,323,1
304,319,310,325,1
304,315,310,325,1
304,309,309,324,1
303,303,309,322,1
303,298,308,319,1
304,295,308,317,1
304,296,309,317,1
305,300,309,318,1
307,307,310,319,1
309,316,311,321,1
311,324,311,322,1
312,331,312,322,1
313,337,311,321,1
313,342,310,319,1
313,346,308,317,1
312,349,307,315,1
311,348,306,313,1
310,342,305,311,1
309,329,304,309,1
306,312,303,306,1
304,297,302,304,1
304,288,300,302,1
304,284,300,302,1
306,283,300,302,1
307,282,300,300,1
308,283,301,299,1
308,284,302,298,1
308,286,304,297,1
308,288,305,297,1
307,290,305,297,1
305,293,305,299,1
303,293,306,301,1
302,294,309,304,1
302,296,311,308,1
302,301,313,311,1
304,307,313,314,1
305,311,312,316,1
305,310,310,316,1
306,307,307,314,1
305,303,304,312,1
305,300,301,310,1
304,300,299,308,1
305,302,300,308,1
305,305,303,307,1
306,309,306,306,1
306,313,309,305,1
306,314,311,305,1
306,315,313,304,1
307,315,315,304,1
307,313,315,302,1
307,312,314,301,1
308,310,312,300,1
309,309,310,300,1
309,309,309,301,1
308,310,309,302,1
307,312,308,302,1
306,314,307,302,1
306,316,307,302,1
306,319,307,302,1
306,324,306,303,1
307,328,305,304,1
307,333,304,304,1
305,337,304,304,1
304,340,303,304,1
303,341,303,303,1
302,334,302,301,1
300,319,301,301,1
298,302,299,301,1
297,289,298,302,1
296,281,298,305,1
297,279,299,309,1
298,282,301,314,1
299,289,304,318,1
300,296,305,320,1
301,305,306,321,1
302,312,304,320,1
302,319,303,318,1
303,322,301,316,1
304,320,301,314,1
304,315,301,312,1
304,308,302,310,1
303,303,304,309,1
303,300,306,310,1
304,300,308,311,1
306,300,310,312,1
306,299,311,312,1
306,298,311,312,1
305,297,312,312,1
305,298,311,312,1
304,301,310,312,1
304,306,310,311,1
304,310,309,310,1
304,314,309,310,1
304,316,308,310,1
304,318,306,311,1
304,319,305,311,1
305,319,304,312,1
306,318,303,312,1
306,314,302,312,1
306,307,301,310,1
304,300,300,308,1
303,297,300,306,1
302,298,302,307,1
302,304,306,308,1
303,314,309,311,1
306,326,312,312,1
307,333,312,312,1
307,334,312,312,1
307,332,311,311,1
308,327,310,310,1
309,319,310,309,1
310,309,310,306,1
310,300,310,304,1
311,294,310,301,1
310,290,309,300,1
309,288,308,299,1
307,287,307,300,1
306,288,306,303,1
305,289,306,306,1
304,292,305,308,1
304,294,304,310,1
304,297,303,310,1
304,299,301,310,1
303,300,300,309,1
303,301,299,307,1
303,304,299,306,1
303,309,300,303,1
303,316,302,301,1
304,325,303,300,1
306,334,304,301,1
308,341,305,303,1
310,345,305,307,1
312,343,305,312,1
314,337,305,316,1
314,327,303,318,1
312,314,302,318,1
310,304,302,318,1
307,299,302,318,1
304,297,302,319,1
302,298,303,319,1
302,299,304,321,1
303,298,304,322,1
304,295,305,321,1
304,292,305,322,1
306,294,307,322,1
309,299,309,321,1
311,307,311,321,1
312,314,312,321,1
313,318,314,321,1
313,318,314,321,1
313,313,313,320,1
312,307,312,319,1
312,302,311,317,1
312,300,310,316,1
313,299,310,314,1
314,300,310,313,1
314,301,309,313,1
313,301,308,312,1
312,299,307,311,1
310,296,305,309,1
308,294,303,307,1
306,291,302,307,1
304,291,302,308,1
303,293,302,309,1
303,296,302,311,1
304,299,302,314,1
304,303,302,316,1
304,306,301,316,1
304,311,301,314,1
303,318,300,311,1
302,326,300,309,1
302,335,300,308,1
304,343,302,307,1
307,348,304,308,1
309,344,305,308,1
310,332,305,308,1
309,316,303,308,1
309,302,301,307,1
307,292,299,307,1
307,286,299,308,1
307,286,300,310,1
310,287,304,313,1
313,289,307,314,1
314,291,309,314,1
315,296,309,313,1
315,303,309,312,1
315,313,309,312,1
314,320,309,312,1
313,323,308,312,1
312,323,307,311,1
311,320,307,311,1
309,316,306,311,1
309,314,305,311,1
308,311,304,311,1
310,309,303,311,1
311,309,303,311,1
312,309,302,311,1
313,308,301,311,1
313,306,300,311,1
313,307,300,310,1
313,309,300,308,1
314,310,299,305,1
314,309,298,301,1
312,308,297,298,1
310,307,297,295,1
308,305,298,293,1
308,302,301,294,1
309,300,305,299,1
310,299,310,304,1
311,297,313,308,1
310,295,315,311,1
309,293,315,312,1
310,293,314,313,1
310,297,314,313,1
311,304,314,312,1
311,311,313,311,1
310,317,313,309,1
308,319,312,309,1
306,317,311,308,1
306,313,311,308,1
307,309,312,308,1
308,305,313,308,1
308,303,313,307,1
308,302,314,307,1
307,302,313,307,1
306,303,312,308,1
306,303,310,309,1
305,304,309,309,1
305,303,307,309,1
304,301,305,308,1
304,298,305,306,1
306,297,305,304,1
307,300,306,303,1
309,303,307,301,1
311,305,308,302,1
312,305,308,301,1
311,304,308,301,1
310,302,309,303,1
308,303,310,308,1
308,307,311,313,1
308,313,311,317,1
307,319,311,319,1
305,322,310,320,1
303,322,308,320,1
302,320,307,318,1
301,316,307,315,1
301,308,307,310,1
299,298,307,306,1
299,291,306,303,1
300,288,306,302,1
301,292,307,303,1
303,300,308,305,1
305,309,309,307,1
305,316,308,310,1
305,320,308,313,1
304,320,306,314,1
303,313,305,313,1
301,303,304,311,1
300,293,304,310,1
299,285,305,311,1
300,281,307,312,1
300,279,308,313,1
302,281,309,315,1
304,284,311,318,1
305,286,312,319,1
306,288,312,319,1
306,289,311,318,1
305,291,310,318,1
305,293,309,318,1
305,294,308,317,1
303,294,305,315,1
302,294,301,312,1
301,295,298,309,1
301,297,297,307,1
302,300,299,305,1
304,306,301,304,1
307,313,303,303,1
309,320,306,302,1
309,325,308,301,1
310,327,310,302,1
311,326,313,303,1
312,323,314,305,1
312,318,314,306,1
311,310,312,307,1
309,302,311,305,1
308,295,309,304,1
307,291,308,300,1
305,290,306,297,1
305,292,306,294,1
305,297,307,294,1
306,301,309,295,1
307,304,310,297,1
309,304,311,299,1
310,303,311,300,1
310,302,310,301,1
307,301,310,300,1
303,300,308,299,1
300,301,307,298,1
299,304,306,298,1
299,309,306,299,1
299,314,305,302,1
298,316,305,306,1
297,313,305,311,1
297,308,306,313,1
299,304,305,314,1
301,303,305,314,1
304,306,305,314,1
307,312,305,315,1
309,319,306,316,1
310,321,306,316,1
311,318,306,316,1
310,313,305,316,1
309,307,305,316,1
308,301,304,315,1
306,295,303,314,1
303,291,302,311,1
299,288,300,307,1
296,290,298,303,1
294,295,298,301,1
294,304,299,301,1
296,313,301,302,1
298,321,304,304,1
301,330,306,307,1
303,334,308,311,1
305,332,309,314,1
305,325,309,316,1
304,317,308,318,1
303,309,306,319,1
302,303,305,319,1
301,298,304,318,1
301,295,304,317,1
301,293,303,314,1
301,290,301,311,1
301,289,300,307,1
302,288,298,303,1
302,287,297,301,1
302,288,296,300,1
302,290,296,302,1
303,294,297,305,1
305,297,299,309,1
307,300,299,312,1
308,301,299,313,1
309,302,300,314,1
310,302,304,315,1
311,304,308,314,1
310,306,310,312,1
309,310,309,309,1
308,316,307,308,1
307,324,305,305,1
307,330,303,304,1
307,336,303,303,1
308,338,303,303,1
308,336,304,305,1
308,327,306,306,1
307,315,307,308,1
305,304,308,308,1
303,297,307,309,1
301,291,307,310,1
300,288,306,312,1
299,287,306,313,1
298,289,306,312,1
299,293,305,312,1
301,296,305,310,1
304,301,304,308,1
306,304,303,306,1
308,307,302,305,1
310,312,302,306,1
311,316,302,307,1
311,319,302,307,1
310,319,303,307,1
308,317,305,307,1
307,314,305,306,1
306,312,306,306,1
306,311,305,305,1
305,313,304,304,1
305,316,302,304,1
306,320,303,306,1
307,322,303,309,1
307,322,304,312,1
306,319,305,313,1
306,317,306,312,1
307,319,308,312,1
309,323,311,313,1
312,327,313,313,1
314,327,315,314,1
315,320,316,313,1
315,307,315,311,1
314,295,313,308,1
312,286,310,305,1
309,279,306,302,1
307,276,303,298,1
305,274,301,295,1
305,276,299,292,1
305,278,299,290,1
305,283,299,290,1
306,290,300,293,1
307,296,302,297,1
306,298,304,300,1
305,297,304,303,1
304,294,305,305,1
304,293,306,308,1
304,294,308,312,1
305,296,310,315,1
306,297,311,318,1
306,298,311,320,1
308,299,310,322,1
308,301,309,323,1
308,303,308,321,1
307,304,307,318,1
307,304,306,315,1
307,305,306,312,1
307,305,306,310,1
309,306,305,308,1
310,307,305,306,1
310,310,305,306,1
309,313,304,307,1
308,316,304,308,1
307,317,305,309,1
306,318,308,310,1
305,318,311,310,1
305,318,314,310,1
304,318,315,310,1
305,318,316,310,1
305,320,317,310,1
307,323,318,311,1
308,326,319,315,1
309,328,319,318,1
308,327,317,320,1
308,323,315,320,1
307,316,312,318,1
306,310,311,316,1
306,305,309,314,1
305,304,309,311,1
304,306,308,307,1
304,308,307,306,1
305,309,308,306,1
305,309,308,309,1
304,307,309,311,1
302,305,310,313,1
302,303,311,314,1
303,302,312,313,1
303,303,312,312,1
303,302,312,311,1
302,300,312,309,1
302,299,311,306,1
302,302,311,304,1
303,310,311,302,1
304,321,312,301,1
305,331,312,303,1
305,338,313,305,1
304,340,313,308,1
304,335,313,310,1
305,323,313,312,1
306,309,313,314,1
305,296,311,315,1
304,287,311,317,1
303,282,310,317,1
302,281,309,317,1
301,282,308,315,1
300,286,308,313,1
301,289,308,311,1
301,290,309,309,1
302,291,309,307,1
304,295,308,307,1
306,302,307,307,1
309,311,307,308,1
312,319,307,307,1
313,321,306,307,1
314,320,306,306,1
313,316,307,304,1
310,312,306,303,1
306,307,305,301,1
303,301,303,298,1
301,296,301,294,1
301,292,301,292,1
302,290,302,291,1
304,291,304,293,1
305,293,305,295,1
306,296,305,296,1
305,297,305,297,1
304,298,304,299,1
303,300,303,301,1
303,302,303,304,1
302,304,304,307,1
304,306,307,310,1
305,305,310,313,1
305,305,312,316,1
304,305,312,318,1
303,304,310,318,1
302,304,309,316,1
301,305,308,314,1
300,306,306,311,1
300,307,306,309,1
300,307,307,307,1
301,306,307,304,1
302,305,308,303,1
303,304,308,301,1
304,303,308,299,1
305,303,308,297,1
305,304,309,295,1
305,307,309,293,1
305,309,310,290,1
305,310,310,287,1
305,312,309,288,1
307,315,307,292,1
309,318,307,296,1
310,319,307,302,1
310,318,308,309,1
312,317,309,313,1
312,318,310,316,1
313,318,311,316,1
312,318,311,315,1
311,316,310,312,1
308,314,310,310,1
307,313,311,308,1
308,313,312,308,1
309,314,313,309,1
310,318,313,310,1
309,323,313,311,1
308,330,313,311,1
307,337,312,310,1
306,346,311,308,1
305,352,310,305,1
304,353,309,302,1
303,347,309,300,1
301,338,309,300,1
300,328,309,302,1
300,318,310,305,1
301,309,309,307,1
301,302,308,307,1
300,296,307,306,1
300,292,305,305,1
301,289,304,303,1
301,286,304,302,1
301,284,303,301,1
301,282,303,301,1
301,282,302,302,1
301,283,302,302,1
302,286,303,302,1
302,288,304,302,1
303,289,307,303,1
304,291,308,304,1
304,293,309,306,1
304,296,310,306,1
305,297,310,307,1
305,300,310,307,1
306,302,311,305,1
305,304,311,304,1
304,305,310,302,1
304,305,309,300,1
304,301,309,298,1
305,295,308,297,1
307,290,308,296,1
308,288,308,297,1
310,289,309,299,1
310,293,310,303,1
308,299,310,306,1
305,303,310,308,1
301,306,310,309,1
297,308,309,308,1
296,308,307,307,1
296,310,305,306,1
298,311,304,307,1
301,312,303,309,1
304,312,302,310,1
305,311,303,311,1
306,311,304,312,1
306,310,308,312,1
304,309,311,310,1
302,308,313,310,1
301,308,313,309,1
300,308,313,309,1
300,310,312,311,1
302,312,312,312,1
304,313,311,310,1
305,315,309,306,1
305,317,306,300,1
305,317,303,295,1
303,318,300,290,1
301,319,297,287,1
300,321,296,287,1
299,321,296,288,1
300,320,297,291,1
302,317,300,295,1
305,313,302,299,1
307,311,303,304,1
309,311,304,307,1
310,313,305,309,1
310,317,303,309,1
309,321,301,309,1
310,325,299,309,1
309,327,299,308,1
310,326,300,307,1
311,323,302,306,1
312,319,305,305,1
313,314,308,305,1
312,310,309,304,1
312,307,309,304,1
310,306,309,305,1
308,303,308,306,1
306,296,306,306,1
304,287,305,305,1
303,280,305,305,1
303,279,304,304,1
303,282,304,304,1
303,288,304,302,1
303,293,303,299,1
302,295,302,296,1
303,294,300,293,1
304,295,299,292,1
305,299,299,293,1
306,303,299,295,1
307,308,300,301,1
308,310,302,307,1
307,308,304,312,1
305,301,305,314,1
304,295,305,314,1
303,292,306,314,1
304,293,307,315,1
305,297,307,317,1
307,299,307,318,1
308,299,305,317,1
308,299,303,315,1
308,298,302,314,1
308,299,303,314,1
307,302,304,315,1
307,304,304,316,1
307,306,303,317,1
307,306,301,317,1
307,306,298,315,1
307,306,295,313,1
306,305,294,311,1
306,306,294,310,1
306,308,297,308,1
307,312,300,307,1
308,315,302,305,1
308,318,303,304,1
308,317,303,303,1
307,313,304,301,1
306,308,304,299,1
304,302,304,298,1
303,300,304,299,1
303,304,305,302,1
303,313,306,305,1
303,324,308,309,1
303,331,309,313,1
301,333,309,314,1
300,329,308,315,1
298,319,307,315,1
297,306,306,315,1
297,294,307,315,1
299,285,308,315,1
301,280,308,313,1
303,278,308,310,1
303,279,307,306,1
302,280,305,301,1
302,283,304,297,1
302,288,303,294,1
303,294,302,294,1
304,302,301,296,1
305,309,300,301,1
306,314,302,307,1
308,318,304,313,1
310,319,307,318,1
312,316,309,321,1
314,313,311,322,1
315,311,311,321,1
315,312,311,320,1
315,316,311,319,1
315,321,311,320,1
316,324,310,320,1
315,324,308,319,1
313,322,307,319,1
311,317,307,318,1
309,309,307,317,1
308,300,307,315,1
307,292,307,311,1
304,286,306,305,1
302,283,306,301,1
301,282,306,298,1
301,283,307,297,1
300,284,307,296,1
300,286,308,297,1
300,289,309,299,1
300,294,310,302,1
301,298,311,304,1
302,302,312,306,1
301,305,312,307,1
301,306,311,307,1
302,306,310,306,1
302,306,309,304,1
303,307,308,302,1
304,310,306,300,1
306,316,304,297,1
307,326,303,295,1
309,335,302,294,1
309,340,300,294,1
309,340,300,295,1
309,338,300,298,1
308,334,301,301,1
307,331,301,305,1
305,331,301,309,1
303,333,301,312,1
302,333,300,315,1
300,329,301,315,1
299,326,303,315,1
299,324,304,314,1
297,320,305,312,1
296,310,306,310,1
295,297,307,308,1
296,284,309,306,1
298,275,312,306,1
300,269,314,306,1
303,268,315,306,1
306,268,314,306,1
308,271,314,304,1
309,276,313,302,1
309,283,310,299,1
309,291,308,296,1
309,299,306,295,1
308,306,306,295,1
308,309,306,298,1
308,309,307,301,1
306,304,308,303,1
305,299,309,307,1
305,297,310,311,1
306,297,311,314,1
307,299,311,316,1
307,301,311,315,1
306,304,310,314,1
304,306,309,312,1
302,307,308,310,1
301,309,308,309,1
301,310,307,308,1
301,308,306,307,1
303,302,305,306,1
305,294,304,305,1
307,289,303,304,1
309,287,302,303,1
311,288,302,302,1
311,292,301,300,1
310,294,302,299,1
308,293,303,299,1
306,291,305,300,1
304,290,307,301,1
302,289,308,302,1
302,291,310,305,1
303,298,311,309,1
304,309,313,314,1
306,321,314,319,1
307,330,315,322,1
308,337,315,324,1
308,340,314,324,1
307,338,313,323,1
307,331,312,322,1
307,321,311,321,1
307,312,309,319,1
307,303,308,318,1
306,296,307,316,1
305,290,304,314,1
304,287,303,312,1
302,286,300,311,1
301,287,297,310,1
300,288,295,309,1
300,289,294,309,1
300,290,293,309,1
302,292,293,308,1
303,294,295,308,1
304,297,298,307,1
306,300,301,308,1
307,303,304,308,1
308,307,306,308,1
308,310,307,308,1
307,314,309,311,1
305,317,312,314,1
304,320,314,317,1
303,324,315,317,1
303,332,316,316,1
303,344,316,314,1
304,356,315,313,1
304,363,314,311,1
304,361,311,310,1
303,351,309,309,1
302,335,307,309,1
302,318,306,310,1
301,302,306,311,1
301,289,307,312,1
301,280,309,311,1
301,275,309,310,1
301,272,309,308,1
302,271,309,306,1
302,273,308,306,1
302,275,306,304,1
302,280,304,304,1
304,286,303,304,1
306,293,303,304,1
307,300,303,303,1
308,305,303,301,1
307,310,303,300,1
307,311,304,299,1
307,310,304,298,1
306,308,303,296,1
304,307,302,296,1
303,306,302,296,1
302,305,302,298,1
301,304,301,299,1
301,305,301,299,1
300,310,300,298,1
300,317,301,298,1
301,322,301,295,1
301,325,301,292,1
302,327,301,290,1
302,327,301,290,1
303,325,302,294,1
305,324,304,303,1
308,321,306,312,1
310,318,309,318,1
311,311,311,321,1
311,302,312,320,1
311,294,312,317,1
310,289,312,314,1
309,287,311,312,1
310,286,311,310,1
311,287,312,309,1
311,288,312,310,1
312,290,313,311,1
312,292,314,312,1
311,294,315,312,1
309,296,315,312,1
308,298,315,311,1
307,301,314,309,1
307,305,312,306,1
307,308,309,302,1
307,313,307,298,1
309,319,305,294,1
309,328,304,292,1
310,335,302,292,1
310,338,301,294,1
310,335,300,295,1
308,328,299,296,1
307,318,298,298,1
306,309,297,302,1
305,300,296,305,1
305,294,297,307,1
305,290,299,308,1
305,289,301,308,1
305,288,303,308,1
306,289,305,307,1
306,291,307,306,1
307,293,309,305,1
308,296,310,306,1
310,302,311,309,1
311,308,312,311,1
312,315,312,311,1
312,321,312,311,1
313,323,312,311,1
313,320,313,311,1
313,312,313,309,1
312,304,313,306,1
312,299,313,304,1
313,299,313,304,1
313,302,313,304,1
313,308,313,306,1
313,315,314,308,1
313,322,314,309,1
313,327,314,310,1
313,329,314,311,1
312,330,313,311,1
312,329,312,312,1
312,331,311,312,1
311,334,311,312,1
312,338,311,311,1
312,342,311,308,1
312,347,310,305,1
312,350,309,302,1
312,347,308,298,1
311,335,306,294,1
309,318,305,291,1
307,301,305,291,1
305,288,305,293,1
304,279,305,297,1
303,274,306,303,1
302,273,305,310,1
302,273,304,314,1
301,274,302,317,1
300,275,301,318,1
299,276,300,318,1
298,278,300,316,1
298,280,301,315,1
298,283,302,313,1
299,287,302,312,1
301,293,303,309,1
303,297,304,307,1
305,301,304,305,1
306,305,305,304,1
307,307,305,305,1
307,307,305,307,1
308,307,305,308,1
309,307,304,309,1
310,309,304,311,1
310,311,304,311,1
309,312,304,309,1
307,311,303,307,1
306,311,301,305,1
306,312,301,303,1
306,314,301,301,1
307,319,303,300,1
309,326,305,301,1
311,332,307,304,1
313,336,309,307,1
315,337,312,310,1
316,334,315,313,1
315,328,316,314,1
312,318,315,314,1
307,305,313,313,1
303,296,311,311,1
301,293,310,310,1
301,296,310,310,1
301,301,309,310,1
302,306,309,310,1
302,310,308,309,1
303,312,305,307,1
302,309,302,304,1
301,302,299,302,1
300,294,297,300,1
299,288,297,299,1
298,286,298,299,1
299,286,301,300,1
300,289,303,302,1
301,294,305,303,1
301,298,306,303,1
302,300,305,303,1
301,301,304,302,1
301,302,303,301,1
303,303,303,302,1
305,304,303,303,1
307,305,303,304,1
309,305,304,304,1
310,307,305,304,1
310,310,306,304,1
310,313,306,302,1
311,318,307,300,1
311,322,306,296,1
310,326,305,293,1
310,330,303,290,1
309,332,301,289,1
306,331,299,288,1
304,329,297,289,1
303,327,297,291,1
303,331,297,294,1
304,337,299,299,1
307,341,302,303,1
308,335,304,304,1
307,319,305,303,1
306,300,305,302,1
305,286,305,301,1
304,279,303,301,1
303,278,302,302,1
302,280,302,304,1
303,284,301,306,1
304,287,299,307,1
304,289,299,308,1
305,289,300,308,1
305,289,302,306,1
306,290,304,303,1
306,290,307,301,1
307,292,311,301,1
307,295,312,304,1
308,299,313,307,1
309,303,313,311,1
310,308,313,316,1
311,316,313,321,1
312,327,311,322,1
313,338,310,322,1
314,348,309,320,1
316,353,308,318,1
316,352,308,315,1
315,342,306,312,1
313,325,306,310,1
310,305,305,309,1
307,290,305,309,1
305,281,305,311,1
305,278,307,312,1
306,278,308,313,1
307,281,309,314,1
309,283,309,315,1
308,284,309,316,1
307,284,307,316,1
305,285,306,314,1
303,284,304,311,1
300,283,302,309,1
299,284,300,307,1
299,287,299,305,1
301,291,300,303,1
304,298,301,301,1
307,305,303,301,1
309,312,303,300,1
308,314,304,299,1
306,312,304,299,1
304,308,305,298,1
302,305,305,298,1
299,304,305,298,1
299,306,307,297,1
300,308,308,297,1
301,308,309,297,1
303,308,310,298,1
304,310,311,302,1
305,311,311,305,1
306,312,312,308,1
307,311,311,310,1
308,309,310,311,1
308,306,311,312,1
309,304,310,313,1
309,304,310,314,1
309,306,310,315,1
308,308,309,315,1
308,312,308,313,1
307,316,307,312,1
307,318,305,309,1
307,318,304,307,1
307,316,304,306,1
307,315,303,307,1
308,315,302,308,1
308,317,302,309,1
309,318,301,310,1
309,316,298,310,1
309,315,296,310,1
309,319,295,311,1
310,325,295,313,1
312,330,297,315,1
313,331,299,315,1
313,329,300,313,1
313,324,299,310,1
312,317,299,307,1
313,310,300,305,1
314,303,303,305,1
314,297,306,305,1
313,294,308,304,1
313,292,309,304,1
312,294,311,304,1
312,295,312,303,1
311,295,312,301,1
310,295,312,299,1
308,297,311,297,1
307,299,309,295,1
307,300,308,295,1
308,301,307,295,1
309,298,307,294,1
311,297,306,294,1
312,296,306,294,1
314,296,307,296,1
315,299,308,299,1
316,301,309,301,1
314,300,310,303,1
311,297,311,307,1
309,295,313,311,1
309,293,314,316,1
310,290,314,319,1
311,290,313,320,1
312,293,313,322,1
313,297,312,324,1
314,302,312,325,1
315,304,311,323,1
313,304,310,318,1
308,301,306,313,1
303,299,304,308,1
300,297,304,303,1
299,295,304,298,1
300,293,305,293,1
299,292,306,290,1
299,293,307,290,1
298,296,309,295,1
298,299,310,302,1
297,302,311,307,1
296,302,311,311,1
296,304,312,314,1
297,306,313,317,1
298,309,314,320,1
300,313,315,321,1
302,320,315,320,1
305,330,315,318,1
307,339,313,313,1
309,346,311,306,1
309,345,308,299,1
307,336,305,292,1
306,327,304,287,1
306,320,305,286,1
307,317,308,288,1
308,319,311,295,1
308,320,313,303,1
308,320,313,310,1
308,317,315,316,1
308,313,317,320,1
309,307,318,323,1
310,299,319,323,1
311,290,319,323,1
311,284,319,322,1
311,281,319,321,1
311,281,319,321,1
310,283,318,319,1
309,286,315,318,1
308,290,313,316,1
308,295,310,314,1
308,302,308,312,1
309,309,306,311,1
310,315,304,310,1
311,321,305,310,1
312,326,309,310,1
313,328,312,309,1
312,327,313,309,1
311,321,313,308,1
310,313,311,308,1
309,305,309,306,1
309,298,308,306,1
310,292,307,307,1
311,286,307,308,1
313,282,307,309,1
314,280,307,309,1
313,281,307,309,1
312,282,307,308,1
311,284,308,307,1
311,286,308,307,1
310,288,308,308,1
310,289,308,309,1
309,290,308,308,1
307,289,306,308,1
306,289,305,307,1
304,290,303,307,1
304,292,301,306,1
303,294,300,304,1
304,296,299,302,1
305,299,299,300,1
306,303,300,301,1
309,309,303,302,1
312,316,305,305,1
315,323,308,308,1
317,326,311,311,1
319,325,312,313,1
319,320,313,314,1
317,316,311,313,1
314,312,308,311,1
310,308,304,307,1
306,305,300,304,1
303,302,297,300,1
301,298,295,297,1
300,297,296,295,1
301,300,299,296,1
303,308,303,300,1
305,317,307,305,1
306,323,309,307,1
305,324,310,306,1
304,321,309,305,1
303,316,308,304,1
304,308,309,304,1
304,303,310,306,1
306,302,312,310,1
307,304,313,312,1
307,308,313,315,1
308,310,313,316,1
309,309,313,316,1
309,305,313,316,1
308,303,312,317,1
307,302,311,319,1
307,300,312,320,1
307,298,311,320,1
308,295,312,319,1
309,292,311,318,1
310,289,310,316,1
310,289,309,314,1
309,290,307,313,1
309,292,304,312,1
308,296,303,310,1
307,300,302,308,1
306,302,304,306,1
304,302,305,304,1
302,303,308,303,1
300,306,309,303,1
300,311,311,304,1
300,318,312,307,1
301,324,314,309,1
301,329,314,312,1
302,331,315,315,1
304,328,316,316,1
304,322,317,317,1
305,314,317,316,1
305,305,317,315,1
305,298,315,313,1
305,291,314,312,1
305,286,313,312,1
306,281,312,313,1
305,278,312,314,1
305,276,312,315,1
304,277,313,316,1
305,279,314,317,1
305,281,315,315,1
305,284,314,312,1
304,286,312,309,1
304,289,309,306,1
304,291,305,305,1
303,293,303,304,1
304,295,301,303,1
304,298,302,302,1
306,302,303,302,1
307,309,306,303,1
308,316,308,303,1
310,320,311,304,1
311,323,313,305,1
313,325,315,308,1
316,323,317,312,1
317,319,317,314,1
318,317,317,316,1
319,319,317,316,1
320,323,315,316,1
320,325,314,316,1
318,322,312,314,1
316,316,311,313,1
314,310,310,312,1
312,306,309,311,1
309,305,309,309,1
307,305,309,307,1
304,305,310,306,1
301,305,310,305,1
298,303,310,304,1
296,301,310,304,1
296,298,311,303,1
297,293,311,302,1
297,287,310,301,1
298,283,308,299,1
299,281,307,298,1
299,281,305,296,1
299,283,303,296,1
300,285,303,296,1
302,289,304,297,1
303,293,305,299,1
305,298,306,302,1
306,304,307,307,1
308,310,306,310,1
309,315,305,313,1
309,321,304,314,1
309,325,302,313,1
309,328,300,312,1
309,329,300,310,1
311,331,301,309,1
311,330,303,309,1
311,326,305,311,1
310,318,308,312,1
309,307,311,312,1
309,296,313,312,1
310,288,313,311,1
309,283,312,309,1
307,282,311,306,1
305,285,311,304,1
304,288,312,304,1
304,292,312,304,1
303,295,310,303,1
304,296,309,300,1
305,296,308,299,1
306,297,308,301,1
307,299,308,308,1
310,304,309,314,1
311,311,310,318,1
312,319,309,319,1
312,325,308,318,1
312,330,308,316,1
311,331,308,315,1
311,326,309,314,1
310,316,309,313,1
308,305,310,313,1
307,298,310,311,1
307,294,310,310,1
306,295,310,310,1
306,298,310,309,1
306,301,309,309,1
306,303,309,308,1
306,303,309,308,1
307,303,308,308,1
307,300,308,307,1
307,297,307,307,1
307,295,307,307,1
308,295,308,307,1
310,297,309,308,1
311,299,310,309,1
311,300,310,310,1
311,301,309,311,1
310,302,309,311,1
309,305,309,310,1
309,309,309,308,1
309,312,308,305,1
310,315,308,302,1
310,317,307,298,1
311,319,306,297,1
312,321,305,296,1
313,321,304,297,1
314,320,303,299,1
315,316,301,301,1
314,309,300,302,1
313,302,298,302,1
312,296,297,301,1
312,292,298,301,1
310,290,299,303,1
307,290,302,306,1
303,291,304,309,1
299,292,305,310,1
296,292,305,310,1
295,291,306,309,1
295,292,306,307,1
296,293,307,306,1
297,294,306,305,1
297,296,305,305,1
297,299,306,307,1
298,304,308,309,1
299,310,310,309,1
301,316,310,310,1
302,320,311,311,1
304,322,313,312,1
305,318,314,313,1
305,312,315,313,1
306,306,315,314,1
306,302,315,312,1
306,300,314,311,1
306,299,313,309,1
307,302,312,307,1
306,309,311,306,1
306,318,310,305,1
307,329,309,305,1
308,340,308,305,1
310,351,307,306,1
312,356,307,307,1
311,354,307,306,1
309,348,306,305,1
306,339,305,304,1
303,329,304,303,1
301,319,302,302,1
300,309,301,299,1
300,301,300,298,1
301,297,299,298,1
303,295,299,300,1
305,294,301,303,1
306,291,302,305,1
306,288,303,307,1
307,286,305,311,1
307,284,306,314,1
308,284,307,316,1
308,283,308,316,1
308,284,309,313,1
307,287,309,311,1
305,292,309,309,1
304,299,310,307,1
303,305,310,307,1
303,308,311,306,1
303,306,311,306,1
303,301,310,304,1
303,298,309,304,1
303,297,308,303,1
303,298,306,304,1
302,301,305,304,1
302,305,304,305,1
302,307,304,306,1
303,308,303,306,1
304,307,301,306,1
305,305,300,304,1
307,302,300,303,1
308,301,300,302,1
308,299,300,301,1
307,301,300,300,1
306,306,301,300,1
306,315,302,302,1
306,323,302,303,1
306,327,302,303,1
306,330,300,304,1
306,334,298,305,1
307,337,298,307,1
307,336,297,307,1
307,331,297,306,1
306,322,299,304,1
307,311,304,304,1
307,300,309,305,1
308,294,313,307,1
309,293,315,308,1
311,295,316,309,1
312,298,316,310,1
314,302,316,311,1
315,303,316,310,1
315,302,315,307,1
313,300,313,304,1
310,300,312,301,1
307,305,310,301,1
306,312,310,303,1
305,319,311,307,1
305,325,311,313,1
306,327,312,317,1
307,322,311,318,1
307,312,310,317,1
306,302,309,315,1
304,298,307,314,1
304,297,306,313,1
304,296,305,313,1
304,294,303,310,1
304,292,303,310,1
304,291,304,310,1
305,292,306,313,1
305,294,308,315,1
304,297,310,317,1
304,299,311,319,1
303,301,311,320,1
301,301,310,321,1
300,301,309,321,1
299,300,309,321,1
299,300,310,320,1
300,298,310,318,1
302,295,311,315,1
303,293,310,312,1
304,293,309,310,1
305,293,308,308,1
306,295,307,307,1
306,296,306,306,1
305,298,305,306,1
305,301,305,307,1
306,304,306,309,1
307,308,308,311,1
308,312,309,313,1
308,316,310,314,1
309,323,311,316,1
310,332,312,317,1
310,345,312,318,1
310,357,312,318,1
310,368,312,319,1
309,376,313,320,1
308,375,313,319,1
307,363,311,316,1
304,343,308,312,1
302,322,303,308,1
302,306,301,307,1
303,295,300,306,1
305,287,301,305,1
306,280,303,304,1
307,274,304,303,1
307,269,305,302,1
306,267,304,301,1
304,265,302,299,1
302,265,302,299,1
300,267,304,300,1
300,270,305,302,1
299,275,307,304,1
300,282,307,306,1
301,292,307,307,1
300,302,308,308,1
300,310,308,308,1
300,316,308,307,1
301,317,307,306,1
301,314,305,304,1
301,307,303,300,1
301,300,301,297,1
301,293,301,293,1
300,289,301,289,1
300,288,302,286,1
301,290,304,286,1
303,294,305,289,1
305,298,308,295,1
307,302,310,302,1
308,305,311,310,1
309,307,311,317,1
309,310,310,320,1
310,314,311,322,1
313,319,311,322,1
315,322,311,322,1
316,325,312,321,1
315,325,313,320,1
313,325,314,319,1
311,322,315,318,1
309,317,315,314,1
305,312,315,310,1
302,307,313,306,1
298,303,311,304,1
296,301,311,303,1
295,301,311,303,1
295,303,311,303,1
296,306,312,302,1
297,309,312,302,1
298,313,312,302,1
299,316,312,303,1
301,318,312,305,1
302,316,312,307,1
303,314,311,309,1
303,313,310,309,1
303,315,309,310,1
304,318,310,312,1
304,322,310,313,1
304,324,310,315,1
304,325,310,316,1
304,325,310,316,1
304,322,310,316,1
304,320,311,315,1
304,316,311,313,1
304,314,311,309,1
304,313,311,306,1
304,310,311,303,1
304,306,310,300,1
302,302,310,296,1
301,298,308,292,1
299,296,305,287,1
298,295,303,283,1
298,298,302,282,1
299,304,301,283,1
299,309,301,285,1
299,316,300,288,1
301,323,300,291,1
303,330,303,296,1
305,338,307,303,1
308,343,311,312,1
311,346,315,320,1
313,346,316,326,1
312,341,316,328,1
310,337,314,328,1
308,335,313,327,1
307,335,313,325,1
308,335,313,322,1
309,330,313,320,1
309,319,312,317,1
307,303,310,314,1
304,288,308,312,1
303,278,306,310,1
302,272,305,309,1
302,269,304,309,1
303,269,304,308,1
302,269,303,306,1
301,271,302,304,1
299,273,300,302,1
297,276,298,299,1
296,280,297,297,1
297,286,297,296,1
297,292,298,296,1
298,298,300,296,1
299,303,302,297,1
300,305,304,299,1
302,306,306,301,1
304,308,308,304,1
304,312,310,305,1
305,316,311,307,1
306,319,313,307,1
307,321,313,305,1
308,320,312,303,1
309,320,312,300,1
311,323,311,299,1
313,329,312,302,1
314,334,313,305,1
313,335,314,309,1
309,331,314,311,1
304,322,313,311,1
302,314,313,311,1
301,309,314,311,1
302,307,313,311,1
304,308,311,310,1
305,310,307,309,1
304,310,304,307,1
303,309,303,307,1
301,309,303,308,1
300,309,304,309,1
299,308,306,310,1
299,305,306,309,1
298,300,306,308,1
299,297,307,307,1
301,294,307,304,1
303,294,308,302,1
304,296,309,300,1
305,299,309,298,1
305,302,309,296,1
305,303,308,295,1
305,304,308,296,1
307,306,308,298,1
308,308,308,301,1
309,309,306,304,1
310,308,305,304,1
308,306,302,302,1
305,304,299,300,1
301,304,297,298,1
299,304,298,298,1
299,305,302,300,1
302,306,304,302,1
304,308,306,305,1
306,308,308,308,1
306,307,309,310,1
306,305,310,311,1
304,304,311,312,1
302,302,311,311,1
301,301,311,310,1
301,300,310,307,1
300,299,309,303,1
300,299,307,300,1
301,299,306,298,1
302,299,307,297,1
303,301,307,297,1
304,303,307,297,1
306,304,306,296,1
307,305,306,296,1
308,305,306,296,1
308,306,307,297,1
308,308,307,298,1
309,311,309,299,1
309,314,310,301,1
308,319,310,301,1
307,322,309,300,1
305,323,307,298,1
304,325,307,296,1
304,326,306,295,1
305,328,307,295,1
305,329,308,295,1
306,329,308,293,1
306,328,308,293,1
307,326,308,293,1
308,322,308,295,1
308,314,308,297,1
308,304,308,298,1
308,295,307,297,1
308,289,304,297,1
308,287,302,297,1
308,287,300,296,1
307,289,300,295,1
307,293,300,297,1
308,298,301,300,1
309,305,303,303,1
311,312,305,306,1
313,317,305,307,1
315,319,305,307,1
315,317,305,306,1
313,312,305,306,1
311,308,305,306,1
310,305,305,306,1
309,304,305,306,1
307,303,305,305,1
306,301,305,306,1
305,301,304,308,1
305,302,305,309,1
305,307,305,310,1
306,316,304,311,1
307,326,304,311,1
307,336,305,310,1
309,343,306,309,1
309,346,306,308,1
309,345,306,306,1
308,337,305,304,1
308,327,305,304,1
309,317,307,304,1
310,309,309,303,1
311,305,310,302,1
311,305,310,302,1
312,308,310,305,1
313,313,311,310,1
314,318,311,313,1
314,319,311,315,1
313,316,310,315,1
309,310,308,315,1
305,303,306,315,1
302,298,305,315,1
301,294,304,316,1
302,290,304,316,1
302,288,304,316,1
302,287,303,315,1
303,287,304,314,1
304,289,304,314,1
305,291,306,314,1
305,294,308,314,1
306,295,309,314,1
307,296,309,314,1
308,296,309,313,1
309,295,308,311,1
309,292,306,309,1
308,291,305,307,1
307,293,304,305,1
306,300,304,304,1
305,309,304,304,1
304,319,303,306,1
302,324,303,305,1
300,326,302,304,1
299,323,303,304,1
300,315,303,304,1
301,304,305,305,1
301,295,306,307,1
301,289,306,309,1
302,288,307,310,1
302,290,309,310,1
303,293,310,308,1
303,295,311,306,1
303,298,312,305,1
303,298,312,304,1
302,298,311,303,1
302,296,310,302,1
302,294,308,302,1
303,292,307,302,1
303,292,306,303,1
302,294,304,303,1
303,296,304,304,1
304,298,303,305,1
305,300,303,306,1
306,300,304,306,1
307,300,304,306,1
308,299,305,306,1
309,298,304,305,1
308,299,303,303,1
306,302,300,301,1
303,305,298,300,1
301,309,296,302,1
299,314,294,304,1
299,317,294,306,1
300,319,297,308,1
302,321,301,310,1
304,323,303,311,1
306,323,304,314,1
307,322,305,315,1
306,319,305,317,1
305,315,305,317,1
305,314,305,316,1
304,315,305,313,1
302,318,304,308,1
300,319,302,304,1
297,320,302,302,1
296,320,303,300,1
297,319,304,299,1
298,315,304,298,1
301,311,305,298,1
304,310,306,298,1
307,310,307,298,1
309,311,306,300,1
311,311,306,302,1
312,311,307,305,1
313,315,307,308,1
314,321,308,312,1
314,328,311,314,1
314,333,312,314,1
314,333,312,313,1
314,328,312,310,1
314,321,310,308,1
313,313,308,305,1
312,303,306,302,1
311,297,304,300,1
310,299,303,299,1
309,304,302,299,1
308,311,302,299,1
306,317,304,300,1
304,320,306,301,1
302,319,308,303,1
301,312,309,304,1
300,303,309,303,1
299,293,308,302,1
298,283,306,300,1
297,276,305,299,1
297,272,305,299,1
298,272,306,300,1
299,275,307,302,1
302,280,308,305,1
303,285,310,308,1
305,291,310,311,1
305,299,310,315,1
307,308,310,317,1
308,316,309,319,1
310,321,308,319,1
311,323,306,318,1
311,324,303,317,1
310,325,301,316,1
310,325,299,315,1
311,323,299,314,1
312,321,302,312,1
312,318,305,310,1
312,316,307,310,1
312,312,309,310,1
311,303,309,310,1
308,295,309,308,1
304,287,308,307,1
299,282,306,304,1
295,279,305,302,1
292,278,304,301,1
290,276,303,301,1
289,275,303,301,1
290,276,303,301,1
292,279,303,301,1
295,284,304,302,1
298,290,304,305,1
300,295,304,306,1
302,299,304,306,1
303,302,304,306,1
303,304,306,304,1
303,304,307,303,1
302,304,309,303,1
302,306,311,304,1
300,308,312,305,1
299,311,312,307,1
300,312,312,310,1
302,312,312,311,1
304,310,312,312,1
304,309,311,310,1
304,307,309,308,1
302,306,308,306,1
301,306,307,304,1
300,306,306,303,1
300,304,306,302,1
300,303,306,302,1
302,303,307,302,1
305,307,308,303,1
307,315,310,307,1
309,323,310,311,1
310,331,311,314,1
310,336,311,315,1
310,337,310,315,1
308,333,309,314,1
306,325,309,313,1
305,317,309,312,1
305,310,309,312,1
304,306,309,311,1
303,300,309,311,1
303,294,308,312,1
302,289,308,313,1
301,286,308,314,1
300,285,308,315,1
300,287,307,316,1
301,289,305,316,1
302,291,304,316,1
303,294,304,315,1
303,297,304,313,1
305,301,305,311,1
306,307,306,309,1
309,312,307,308,1
311,317,309,308,1
314,320,310,307,1
315,321,310,307,1
315,319,308,305,1
314,314,306,304,1
313,307,305,303,1
310,303,305,303,1
307,300,305,304,1
304,300,305,306,1
302,300,305,308,1
300,300,304,309,1
299,301,303,309,1
299,300,302,310,1
299,298,302,310,1
300,298,302,311,1
302,299,303,312,1
303,301,303,312,1
304,302,304,312,1
305,303,305,312,1
305,304,307,312,1
306,304,307,312,1
305,305,306,312,1
306,307,307,312,1
307,311,309,313,1
308,313,311,312,1
308,315,312,311,1
307,316,312,309,1
307,317,312,308,1
308,317,311,306,1
308,315,311,304,1
308,314,312,304,1
308,313,313,305,1
308,313,314,306,1
307,312,314,306,1
307,308,313,306,1
306,303,312,305,1
305,299,310,304,1
304,298,308,301,1
304,297,304,298,1
304,296,302,295,1
304,295,300,293,1
305,293,300,292,1
305,293,301,293,1
304,294,304,295,1
305,296,306,298,1
305,299,308,300,1
305,303,310,301,1
306,308,311,302,1
307,310,312,303,1
309,312,313,305,1
309,313,314,307,1
310,315,314,311,1
311,317,315,314,1
311,318,315,316,1
311,315,313,316,1
309,310,311,315,1
307,304,309,312,1
306,299,307,310,1
306,296,306,307,1
307,295,305,306,1
307,298,307,306,1
308,304,308,308,1
309,310,309,309,1
309,317,309,309,1
309,321,309,309,1
309,324,308,309,1
309,324,306,308,1
308,320,305,308,1
308,315,304,310,1
307,312,303,312,1
307,311,302,312,1
306,311,301,312,1
306,312,299,310,1
305,313,298,308,1
304,312,298,307,1
304,310,299,306,1
305,307,301,307,1
307,305,303,308,1
309,305,306,309,1
311,307,307,310,1
312,309,308,311,1
314,311,308,311,1
314,314,307,310,1
314,319,306,309,1
315,323,304,309,1
314,327,302,310,1
313,334,300,310,1
311,340,298,309,1
309,341,299,307,1
306,334,301,305,1
305,324,303,303,1
304,317,306,303,1
304,314,308,304,1
304,314,311,305,1
304,313,313,305,1
303,310,314,304,1
304,306,313,302,1
305,302,312,300,1
307,296,309,298,1
308,291,308,299,1
308,288,307,301,1
308,285,308,305,1
308,283,309,309,1
309,281,311,312,1
309,281,311,313,1
310,283,312,314,1
311,289,312,314,1
313,297,313,314,1
315,304,314,313,1
315,308,315,312,1
313,309,315,311,1
312,309,315,312,1
310,307,315,311,1
309,302,313,309,1
307,297,311,304,1
306,295,309,299,1
305,296,307,294,1
304,299,305,291,1
302,301,305,292,1
302,303,305,295,1
303,304,306,300,1
304,305,307,306,1
305,307,308,312,1
305,306,308,315,1
305,306,307,317,1
305,304,307,317,1
305,302,307,317,1
306,299,307,315,1
306,296,307,314,1
308,296,307,313,1
309,298,308,310,1
310,301,307,306,1
311,305,307,304,1
311,310,306,303,1
311,316,306,304,1
310,320,306,306,1
309,321,305,307,1
307,317,306,309,1
305,310,306,312,1
304,303,306,314,1
303,298,307,316,1
304,297,307,318,1
305,301,309,319,1
306,309,310,320,1
308,317,311,320,1
310,325,313,320,1
312,331,314,319,1
313,332,314,318,1
312,329,313,317,1
311,322,312,315,1
309,313,311,313,1
307,304,310,310,1
306,296,308,307,1
307,293,306,305,1
308,293,304,304,1
310,296,303,304,1
312,300,303,305,1
312,304,302,305,1
311,307,301,305,1
310,309,301,306,1
308,310,302,306,1
306,310,303,307,1
306,307,304,307,1
305,305,304,306,1
305,302,304,304,1
305,300,305,303,1
305,299,306,305,1
305,299,308,307,1
304,300,311,311,1
304,300,313,314,1
304,302,314,315,1
303,304,314,315,1
302,309,313,314,1
302,315,311,313,1
300,319,308,311,1
298,320,306,310,1
297,321,303,309,1
297,321,302,309,1
298,321,302,310,1
299,321,303,312,1
300,320,304,313,1
301,318,306,313,1
301,316,308,312,1
301,315,310,311,1
300,317,311,308,1
300,320,312,307,1
301,320,312,305,1
302,318,312,302,1
303,313,311,300,1
304,308,310,299,1
305,303,309,298,1
307,297,309,299,1
309,296,310,303,1
311,297,311,308,1
313,302,312,314,1
314,304,313,318,1
313,305,312,321,1
312,304,312,322,1
311,303,310,322,1
310,301,308,321,1
310,300,307,319,1
309,301,306,318,1
309,304,306,316,1
307,311,305,313,1
306,318,304,309,1
304,325,304,305,1
304,330,304,303,1
303,331,304,302,1
302,325,304,302,1
303,314,305,303,1
305,304,306,305,1
307,298,307,309,1
309,297,308,313,1
310,295,309,315,1
309,293,307,315,1
306,292,305,315,1
304,292,304,314,1
303,294,303,314,1
304,296,303,314,1
305,296,304,313,1
305,294,304,311,1
304,291,304,309,1
304,291,303,309,1
304,291,303,309,1
305,292,302,309,1
306,292,303,310,1
307,292,303,311,1
307,292,304,311,1
308,292,304,311,1
308,295,306,311,1
309,299,307,311,1
309,303,308,310,1
308,306,309,309,1
307,307,310,309,1
307,308,312,308,1
308,309,312,307,1
308,310,312,304,1
308,311,310,299,1
307,312,307,296,1
307,312,305,293,1
308,313,303,293,1
311,312,305,296,1
313,311,307,301,1
315,309,310,305,1
315,306,311,310,1
313,304,312,315,1
312,303,311,319,1
309,301,311,321,1
307,303,311,322,1
306,308,311,321,1
304,315,309,318,1
303,322,308,314,1
301,328,306,310,1
300,332,304,308,1
299,334,304,306,1
298,333,304,306,1
298,328,304,306,1
298,318,305,305,1
298,309,305,304,1
299,300,306,304,1
301,295,306,303,1
303,293,307,304,1
304,293,308,305,1
304,293,309,306,1
304,293,309,305,1
304,291,308,305,1
304,290,307,304,1
305,293,306,304,1
305,298,306,304,1
306,306,305,305,1
307,313,305,307,1
307,317,306,310,1
308,320,306,313,1
308,320,306,314,1
308,318,306,314,1
308,316,307,313,1
308,316,307,311,1
309,318,307,309,1
309,321,307,306,1
310,322,307,302,1
308,316,304,298,1
305,304,301,294,1
303,292,298,291,1
302,283,297,288,1
302,278,298,288,1
301,278,300,291,1
301,280,304,295,1
302,282,307,298,1
303,281,309,300,1
303,281,312,303,1
305,285,313,309,1
308,292,314,316,1
311,300,315,321,1
312,305,315,323,1
312,306,314,321,1
310,304,312,316,1
307,301,310,311,1
304,299,308,308,1
303,298,308,307,1
303,300,307,308,1
304,304,307,311,1
307,308,308,313,1
309,312,308,314,1
312,315,309,315,1
314,317,308,314,1
316,318,309,312,1
317,319,309,310,1
317,320,309,308,1
315,320,309,307,1
314,318,307,305,1
312,313,304,304,1
311,308,300,304,1
310,303,297,304,1
308,301,295,305,1
306,300,293,306,1
305,301,295,306,1
304,304,298,306,1
305,307,303,306,1
307,307,305,306,1
307,306,306,305,1
307,306,306,307,1
306,308,306,311,1
306,310,306,315,1
305,312,305,318,1
305,315,306,321,1
304,318,307,323,1
305,317,308,324,1
306,313,309,322,1
307,309,309,320,1
308,308,309,318,1
310,311,308,317,1
312,319,308,317,1
313,330,307,316,1
312,340,306,314,1
311,346,306,313,1
309,348,304,310,1
308,345,302,306,1
308,338,301,303,1
309,327,301,301,1
309,315,301,301,1
310,303,302,302,1
309,296,302,305,1
307,294,302,309,1
304,294,302,312,1
303,294,302,314,1
302,294,302,315,1
303,294,303,315,1
303,293,303,315,1
303,290,303,315,1
303,286,303,317,1
303,283,302,317,1
303,282,302,317,1
302,283,301,316,1
302,286,299,315,1
301,289,297,314,1
301,291,295,311,1
301,291,292,307,1
301,290,290,303,1
302,290,290,300,1
304,291,292,299,1
306,294,295,298,1
308,296,298,296,1
309,297,301,293,1
309,300,303,291,1
308,303,304,291,1
307,308,306,297,1
308,314,308,304,1
309,318,310,310,1
309,320,312,313,1
309,322,313,314,1
310,325,313,316,1
312,329,314,317,1
312,332,313,317,1
311,333,311,315,1
309,330,308,314,1
307,325,306,313,1
304,319,304,313,1
303,314,303,314,1
301,310,302,314,1
300,306,302,314,1
300,304,302,314,1
300,302,301,313,1
300,299,301,312,1
301,297,300,310,1
302,296,300,308,1
304,296,300,306,1
305,297,303,305,1
307,299,306,305,1
308,302,308,305,1
308,305,309,306,1
308,307,309,307,1
307,309,309,310,1
307,311,309,312,1
307,312,308,313,1
308,311,307,314,1
309,310,306,314,1
309,310,307,312,1
310,315,307,312,1
310,324,307,312,1
309,336,307,312,1
308,346,307,312,1
306,350,306,311,1
305,347,305,310,1
304,340,304,309,1
304,331,302,306,1
303,318,302,303,1
302,303,302,301,1
302,289,302,299,1
301,280,303,298,1
300,275,302,297,1
298,272,302,296,1
297,270,300,296,1
296,271,300,297,1
297,274,300,300,1
298,279,302,304,1
300,284,302,308,1
301,288,301,312,1
303,290,300,314,1
304,291,298,317,1
306,293,297,319,1
308,296,297,320,1
309,298,297,317,1
310,301,299,314,1
310,305,301,312,1
309,310,302,311,1
307,315,303,311,1
306,321,304,311,1
305,326,303,311,1
305,330,302,312,1
304,334,301,312,1
304,337,300,311,1
305,339,300,310,1
307,338,300,309,1
308,334,299,306,1
307,330,298,302,1
306,325,297,299,1
306,322,296,298,1
308,318,295,301,1
308,316,295,307,1
307,312,295,315,1
307,304,295,321,1
306,295,296,325,1
305,287,297,326,1
304,282,298,323,1
303,280,299,321,1
303,280,300,319,1
304,281,301,316,1
305,282,302,314,1
305,284,302,312,1
305,289,302,309,1
305,296,301,307,1
304,306,301,305,1
305,316,302,304,1
305,323,304,303,1
307,328,305,302,1
307,331,306,301,1
306,331,306,300,1
304,329,305,301,1
302,322,305,303,1
300,313,304,303,1
298,301,302,303,1
297,291,300,303,1
295,284,298,305,1
294,280,297,307,1
294,279,297,310,1
295,278,297,312,1
297,279,298,313,1
299,283,301,314,1
302,287,302,315,1
304,289,302,315,1
304,292,302,315,1
303,294,301,313,1
303,295,300,309,1
302,297,298,303,1
301,297,295,298,1
302,297,293,295,1
303,298,294,295,1
306,300,296,298,1
308,303,300,303,1
310,307,304,309,1
312,310,307,314,1
313,313,309,317,1
313,315,311,319,1
311,314,311,320,1
309,313,309,320,1
306,312,308,320,1
305,313,307,320,1
305,317,307,320,1
305,321,307,321,1
305,325,307,321,1
306,327,306,319,1
306,325,305,318,1
306,322,304,316,1
305,321,303,313,1
305,324,301,310,1
306,331,300,307,1
307,340,300,304,1
309,350,299,302,1
309,354,298,300,1
309,353,298,300,1
308,347,298,302,1
305,335,297,305,1
302,319,297,310,1
300,303,296,314,1
299,287,296,316,1
299,276,297,317,1
301,271,298,318,1
303,271,302,320,1
305,272,304,321,1
308,275,306,320,1
309,278,306,319,1
310,281,306,318,1
310,284,306,316,1
309,287,304,315,1
309,293,304,314,1
308,302,303,313,1
307,313,302,312,1
307,324,302,311,1
307,332,302,310,1
308,336,302,309,1
309,334,302,307,1
309,324,302,305,1
307,310,300,302,1
306,297,299,299,1
304,289,298,297,1
304,287,298,297,1
304,290,300,297,1
303,293,300,297,1
301,296,300,298,1
301,299,300,301,1
301,301,300,304,1
301,302,300,306,1
301,300,300,308,1
303,297,301,307,1
303,294,302,305,1
303,292,302,304,1
303,290,302,304,1
304,291,301,303,1
304,293,299,303,1
303,297,298,303,1
302,301,297,303,1
300,307,297,302,1
300,313,298,300,1
300,318,301,299,1
300,322,305,299,1
301,321,309,299,1
302,318,313,299,1
303,313,314,300,1
304,309,315,302,1
305,306,314,304,1
304,304,313,305,1
303,302,311,304,1
302,302,309,304,1
302,303,307,304,1
301,304,305,303,1
300,307,303,302,1
300,312,302,302,1
300,317,302,303,1
302,322,302,303,1
303,327,303,302,1
306,329,304,301,1
308,330,306,301,1
310,326,308,301,1
310,320,308,301,1
310,314,309,303,1
310,309,310,305,1
310,305,310,307,1
309,301,311,308,1
308,301,311,309,1
306,304,311,310,1
305,315,311,309,1
304,331,309,307,1
302,349,308,306,1
300,366,307,306,1
300,377,307,308,1
300,376,307,310,1
300,363,308,313,1
301,341,307,315,1
301,317,307,315,1
301,296,307,313,1
301,280,307,312,1
301,269,308,311,1
301,262,307,309,1
301,257,306,307,1
301,255,305,305,1
301,256,304,303,1
302,258,303,302,1
302,263,303,303,1
304,267,302,304,1
305,271,303,304,1
305,276,303,305,1
306,281,303,306,1
306,287,303,307,1
307,292,303,308,1
307,297,304,310,1
308,301,305,314,1
308,303,306,316,1
307,302,307,318,1
306,301,307,319,1
305,301,307,318,1
304,302,306,317,1
304,304,305,315,1
303,305,304,312,1
303,305,302,310,1
303,305,301,309,1
303,305,299,308,1
304,306,297,306,1
306,307,297,304,1
308,309,298,302,1
310,311,301,300,1
311,313,304,300,1
312,316,307,300,1
313,319,309,301,1
313,322,310,301,1
313,321,309,302,1
312,318,309,302,1
312,317,310,303,1
311,320,310,305,1
311,327,310,306,1
309,333,310,306,1
308,337,310,306,1
307,337,309,306,1
305,333,309,307,1
304,325,309,309,1
303,317,310,312,1
302,310,312,315,1
301,306,312,317,1
302,303,312,318,1
301,300,311,316,1
300,297,310,314,1
299,294,309,311,1
297,294,308,310,1
296,296,308,308,1
296,300,309,308,1
298,305,311,308,1
300,310,313,308,1
303,313,314,309,1
304,313,315,309,1
306,310,315,310,1
308,306,315,311,1
311,303,313,312,1
312,302,310,313,1
313,303,307,312,1
311,302,303,311,1
309,300,300,309,1
307,294,300,307,1
305,287,300,306,1
304,284,302,305,1
302,284,304,305,1
301,287,305,305,1
301,292,305,307,1
301,295,304,309,1
301,295,302,310,1
302,294,301,309,1
302,292,300,306,1
301,291,299,301,1
301,291,299,297,1
300,290,300,295,1
299,291,302,293,1
297,291,304,294,1
297,290,306,296,1
298,290,307,299,1
299,293,308,304,1
301,298,309,309,1
303,305,310,313,1
304,313,311,316,1
305,317,313,318,1
306,319,315,318,1
307,318,316,316,1
308,318,316,314,1
308,320,315,311,1
307,325,314,308,1
306,330,313,306,1
305,334,312,304,1
303,332,310,304,1
302,326,309,303,1
301,316,308,304,1
300,306,307,306,1
301,297,306,308,1
301,291,304,310,1
303,289,303,309,1
303,289,302,307,1
303,294,300,305,1
302,302,298,304,1
300,311,299,305,1
300,319,302,306,1
301,326,306,307,1
303,331,309,307,1
305,330,312,308,1
307,324,313,308,1
307,315,313,310,1
308,306,312,311,1
307,297,311,311,1
305,289,311,309,1
302,281,310,306,1
298,277,310,303,1
295,277,311,302,1
293,282,312,301,1
294,289,313,301,1
296,294,313,300,1
298,297,313,300,1
301,300,312,300,1
303,301,311,302,1
