299,321,310,300,0
298,320,310,301,0
299,320,309,301,0
301,318,309,301,0
302,316,309,300,0
303,314,310,300,0
303,314,310,301,0
304,315,309,302,0
304,315,310,303,0
307,315,311,304,0
309,313,312,305,0
311,308,312,305,0
311,298,311,304,0
310,286,310,303,0
307,275,309,302,0
305,269,308,301,0
303,269,308,300,0
303,277,308,300,0
305,290,307,300,0
306,303,306,300,0
305,314,306,301,0
303,322,305,301,0
302,328,306,301,0
303,332,306,301,0
305,334,307,302,0
307,332,307,303,0
307,324,306,304,0
304,314,306,305,0
301,308,306,307,0
298,306,308,308,0
297,306,309,311,0
300,308,311,313,0
305,308,312,314,0
308,307,312,314,0
309,304,311,313,0
309,299,311,311,0
308,294,310,309,0
308,291,309,308,0
306,290,308,307,0
305,290,307,306,0
305,290,307,305,0
305,289,307,304,0
305,288,307,303,0
306,287,306,302,0
305,289,307,302,0
306,291,307,302,0
306,295,308,303,0
306,300,308,304,0
307,305,307,306,0
308,312,308,308,0
309,319,308,310,0
309,323,308,312,0
308,326,309,313,0
306,327,309,313,0
305,326,309,313,0
303,323,308,312,0
301,320,308,312,0
301,316,307,312,0
302,312,307,312,0
303,306,306,311,0
302,298,305,309,0
301,293,304,307,0
301,292,303,305,0
301,296,302,304,0
302,301,302,304,0
304,305,302,305,0
304,310,302,306,0
305,315,302,308,0
306,323,303,309,0
307,328,303,309,0
307,331,304,308,0
308,330,303,308,0
307,325,303,308,0
307,318,302,307,0
306,309,301,306,0
305,300,302,305,0
306,293,303,305,0
308,287,305,305,0
309,278,306,305,0
310,268,306,304,0
309,260,306,304,0
308,259,305,305,0
306,262,305,306,0
305,266,304,307,0
306,271,304,308,0
307,277,305,310,0
307,283,305,311,0
307,290,305,311,0
306,302,305,311,0
306,315,304,311,0
304,326,304,311,0
302,333,303,311,0
302,336,303,311,0
303,336,303,311,0
305,334,304,311,0
305,329,303,310,0
304,324,303,310,0
304,322,303,310,0
303,320,304,311,0
304,316,304,312,0
304,310,304,312,0
306,302,304,312,0
306,296,305,311,0
305,293,304,309,0
304,297,303,308,0
304,304,303,307,0
303,312,302,305,0
303,318,302,303,0
304,322,301,303,0
306,326,302,305,0
307,330,303,308,0
309,332,304,310,0
310,333,305,311,0
309,332,304,311,0
308,330,304,311,0
305,326,302,311,0
302,322,302,310,0
299,319,302,309,0
299,317,303,308,0
301,315,304,308,0
304,316,306,308,0
306,317,307,308,0
305,317,306,308,0
301,317,304,306,0
298,317,303,305,0
295,317,303,305,0
295,315,303,306,0
294,313,303,307,0
293,309,303,310,0
293,307,304,313,0
294,306,304,315,0
295,306,305,317,0
296,305,306,318,0
297,305,307,318,0
297,306,308,318,0
297,307,308,318,0
297,307,307,317,0
297,308,307,317,0
298,308,307,317,0
298,307,306,315,0
297,305,306,313,0
296,305,306,311,0
297,305,306,309,0
297,305,306,307,0
297,302,305,306,0
297,295,304,306,0
297,285,302,306,0
297,274,301,306,0
296,263,301,305,0
293,255,301,305,0
292,257,300,304,0
293,267,301,305,0
297,284,302,306,0
301,299,302,308,0
305,309,303,309,0
308,313,303,310,0
311,317,303,310,0
313,321,302,312,0
314,327,302,314,0
314,332,301,314,0
314,335,300,313,0
310,334,299,311,0
304,331,299,308,0
298,329,298,306,0
294,328,298,305,0
294,330,299,305,0
296,334,299,306,0
299,338,300,308,0
302,342,301,309,0
304,342,302,309,0
305,339,303,309,0
305,333,303,308,0
304,328,303,308,0
304,324,303,308,0
303,321,303,309,0
303,319,304,309,0
304,316,305,310,0
303,312,306,310,0
303,308,307,311,0
303,303,307,310,0
303,300,307,308,0
302,298,307,304,0
301,297,306,301,0
300,295,306,299,0
300,293,305,298,0
300,290,306,298,0
300,286,306,301,0
300,281,307,303,0
300,277,308,306,0
300,275,308,308,0
302,276,309,310,0
303,278,309,312,0
304,281,310,312,0
304,282,310,312,0
304,286,310,311,0
304,290,310,310,0
303,293,310,309,0
302,295,309,309,0
301,297,309,309,0
301,299,308,307,0
301,302,308,307,0
302,307,308,308,0
303,314,308,309,0
304,321,308,310,0
305,327,309,311,0
308,331,311,313,0
309,328,311,313,0
308,318,310,312,0
307,308,308,311,0
305,303,305,309,0
304,300,304,307,0
304,302,303,306,0
304,309,303,304,0
306,317,304,304,0
308,323,304,305,0
308,325,304,306,0
307,325,304,307,0
306,322,305,310,0
306,319,306,312,0
306,314,308,315,0
307,308,309,317,0
307,302,308,318,0
305,298,308,317,0
303,299,307,316,0
302,304,307,315,0
300,313,306,315,0
299,320,305,314,0
299,324,305,314,0
300,327,305,315,0
302,329,305,316,0
305,330,305,316,0
308,328,305,317,0
311,326,305,317,0
313,325,306,317,0
314,327,306,316,0
313,332,305,314,0
312,334,303,312,0
309,335,302,308,0
307,330,300,305,0
306,320,301,302,0
307,310,302,300,0
309,301,303,300,0
312,299,305,300,0
313,301,306,301,0
311,308,307,302,0
308,317,308,303,0
305,325,310,305,0
304,328,311,306,0
302,326,312,308,0
301,320,312,308,0
301,314,313,309,0
302,311,313,311,0
304,310,314,312,0
306,310,314,314,0
307,310,314,314,0
309,310,314,315,0
310,308,314,316,0
310,307,313,316,0
310,305,312,315,0
309,303,311,315,0
308,301,310,314,0
305,299,309,312,0
304,296,307,311,0
304,290,306,310,0
305,283,306,309,0
307,273,306,307,0
309,264,307,306,0
311,258,308,305,0
312,257,307,305,0
312,262,306,304,0
312,271,306,304,0
312,285,306,305,0
313,302,306,307,0
313,318,306,307,0
312,331,306,308,0
311,336,306,309,0
311,336,304,310,0
310,331,302,311,0
308,324,301,311,0
304,318,300,312,0
299,314,300,311,0
296,312,300,310,0
297,313,300,309,0
300,314,301,308,0
302,313,302,307,0
304,311,303,307,0
306,308,304,307,0
307,306,305,308,0
309,307,307,308,0
310,310,309,310,0
312,313,310,312,0
313,316,310,313,0
314,316,310,313,0
313,312,309,312,0
311,309,308,310,0
308,309,307,309,0
307,311,306,307,0
306,315,306,307,0
306,319,307,307,0
306,321,307,307,0
305,320,308,307,0
305,318,308,307,0
306,315,308,306,0
306,311,309,304,0
306,307,309,303,0
306,304,310,300,0
306,302,310,299,0
306,301,309,300,0
305,304,309,303,0
305,308,310,307,0
305,313,311,309,0
305,317,311,311,0
304,322,312,311,0
303,326,312,311,0
303,328,311,310,0
303,330,310,310,0
303,327,310,310,0
303,322,310,311,0
301,315,309,311,0
300,309,308,311,0
299,303,307,311,0
298,298,307,310,0
298,294,306,309,0
298,291,306,308,0
299,287,306,307,0
300,284,307,306,0
302,282,309,305,0
304,283,310,304,0
305,285,310,303,0
305,285,310,301,0
306,286,308,300,0
306,287,307,299,0
305,286,306,299,0
303,287,304,299,0
302,290,304,300,0
302,294,305,300,0
303,297,306,300,0
305,299,307,300,0
306,302,307,300,0
305,306,307,301,0
304,311,307,302,0
302,315,308,302,0
302,317,309,303,0
304,316,309,303,0
306,319,310,304,0
309,327,311,306,0
311,336,311,308,0
312,344,311,309,0
312,349,310,310,0
314,350,309,311,0
315,348,309,311,0
316,340,308,311,0
315,323,307,310,0
313,303,306,307,0
311,287,305,305,0
309,278,305,303,0
308,283,305,303,0
308,299,306,302,0
309,315,306,302,0
308,324,307,304,0
308,324,306,305,0
307,320,306,306,0
305,315,305,306,0
304,309,304,307,0
304,304,304,306,0
304,302,303,305,0
304,302,302,304,0
305,302,302,303,0
306,302,303,303,0
307,304,304,303,0
309,308,305,304,0
311,311,306,305,0
314,311,307,307,0
316,311,308,309,0
317,312,308,311,0
317,314,308,312,0
315,316,307,313,0
312,313,306,313,0
310,308,306,312,0
307,302,306,310,0
305,299,305,308,0
304,300,304,307,0
303,304,304,307,0
303,308,305,307,0
303,311,305,308,0
304,314,305,308,0
306,316,307,309,0
307,320,307,309,0
308,324,307,309,0
309,327,307,308,0
310,329,307,307,0
310,326,307,306,0
310,320,307,305,0
310,313,307,304,0
310,305,307,302,0
309,299,307,301,0
308,298,307,301,0
308,299,308,301,0
307,299,307,301,0
306,297,306,301,0
305,293,305,301,0
304,290,305,302,0
305,291,304,303,0
304,294,304,302,0
304,298,303,301,0
303,300,302,301,0
303,303,302,301,0
302,306,302,302,0
302,311,303,304,0
302,314,304,305,0
303,316,305,307,0
305,316,306,308,0
308,315,307,307,0
308,312,307,305,0
308,308,306,302,0
307,304,305,301,0
307,304,304,299,0
306,304,302,300,0
306,305,302,301,0
306,307,302,302,0
306,311,302,304,0
305,314,302,303,0
303,313,301,302,0
300,308,300,300,0
298,303,300,298,0
298,302,300,296,0
300,302,299,295,0
304,303,300,295,0
309,306,300,297,0
314,308,300,299,0
315,308,301,300,0
312,307,301,303,0
307,306,302,306,0
302,307,304,309,0
299,307,305,312,0
298,309,306,314,0
298,310,306,316,0
299,310,307,316,0
300,309,307,316,0
299,309,306,315,0
298,310,306,314,0
299,311,305,313,0
301,310,305,311,0
302,308,304,309,0
304,305,304,309,0
305,306,305,310,0
306,308,306,310,0
306,310,307,310,0
306,310,308,310,0
306,310,309,310,0
307,307,310,310,0
306,301,310,310,0
307,294,310,310,0
307,285,311,310,0
307,277,310,309,0
306,274,310,308,0
305,281,310,307,0
304,293,309,307,0
304,307,309,308,0
305,318,308,309,0
304,326,308,310,0
303,332,308,310,0
303,334,308,310,0
303,332,307,309,0
304,327,306,309,0
303,320,304,308,0
301,311,302,306,0
299,305,302,305,0
299,303,302,305,0
300,303,302,305,0
302,302,302,306,0
304,301,304,307,0
305,300,304,308,0
304,299,304,309,0
302,298,304,309,0
300,297,304,309,0
298,298,305,309,0
298,303,305,309,0
299,311,306,309,0
300,317,307,310,0
301,321,307,310,0
301,322,306,311,0
302,322,305,311,0
302,324,305,312,0
301,324,305,312,0
300,325,306,312,0
300,323,307,311,0
300,320,306,309,0
301,317,304,307,0
303,314,303,305,0
305,314,303,305,0
305,316,303,305,0
305,319,304,307,0
305,321,304,309,0
305,321,304,310,0
303,316,303,311,0
302,311,303,312,0
303,309,303,312,0
305,305,303,312,0
308,298,303,311,0
309,287,303,310,0
310,278,303,310,0
309,274,303,310,0
307,279,304,309,0
304,288,304,308,0
303,299,305,309,0
303,309,306,311,0
304,315,306,312,0
305,315,307,312,0
304,314,306,312,0
305,316,307,312,0
305,322,307,313,0
306,328,307,313,0
306,330,307,313,0
305,329,306,312,0
305,325,305,312,0
305,318,305,310,0
305,309,305,310,0
306,297,306,310,0
307,286,306,310,0
310,277,305,310,0
312,271,305,310,0
314,273,304,310,0
314,285,304,311,0
312,301,304,312,0
310,314,304,312,0
308,323,304,311,0
306,328,304,310,0
304,328,304,308,0
303,326,305,308,0
302,323,305,308,0
301,320,305,309,0
300,315,305,311,0
299,311,304,312,0
296,308,303,312,0
296,311,302,311,0
297,313,302,311,0
301,314,303,312,0
305,312,304,313,0
308,308,304,313,0
308,303,304,311,0
307,299,303,308,0
307,299,301,304,0
308,306,300,302,0
309,316,300,300,0
309,323,300,299,0
310,325,300,299,0
309,324,301,299,0
308,321,301,300,0
306,319,301,301,0
307,319,302,301,0
307,318,303,302,0
307,317,303,302,0
308,318,302,302,0
308,316,302,302,0
305,312,300,300,0
303,305,299,299,0
300,298,299,298,0
298,295,299,298,0
297,297,300,299,0
298,303,301,301,0
300,309,302,303,0
301,315,303,304,0
303,319,303,305,0
304,321,304,305,0
304,319,304,306,0
304,318,305,306,0
304,318,306,306,0
303,316,306,305,0
302,313,305,304,0
300,308,305,303,0
299,305,304,301,0
299,301,303,300,0
299,297,303,299,0
302,297,302,299,0
305,299,302,299,0
307,297,300,299,0
309,296,300,299,0
309,295,300,300,0
308,297,300,302,0
305,296,300,304,0
303,293,299,305,0
301,289,299,304,0
299,288,299,304,0
299,293,299,304,0
300,300,299,305,0
301,308,300,306,0
302,314,301,307,0
303,317,302,308,0
303,316,303,307,0
303,316,304,308,0
304,317,305,309,0
305,319,305,309,0
307,318,305,310,0
308,317,304,311,0
308,316,304,311,0
307,314,304,310,0
305,311,304,308,0
304,311,303,306,0
305,315,302,304,0
307,318,300,304,0
309,319,300,305,0
309,318,299,304,0
306,311,299,304,0
302,298,300,303,0
298,280,301,301,0
296,266,303,300,0
295,259,304,299,0
295,258,304,299,0
296,265,305,300,0
300,279,305,303,0
306,294,306,305,0
311,304,306,306,0
311,307,306,306,0
308,308,305,307,0
305,311,304,307,0
301,317,303,306,0
299,325,302,305,0
297,332,302,304,0
297,336,302,303,0
299,336,303,303,0
302,333,303,303,0
305,331,303,303,0
306,329,303,304,0
307,328,303,305,0
308,327,303,306,0
309,325,303,306,0
309,324,303,307,0
309,323,304,309,0
308,324,305,311,0
307,322,305,312,0
305,320,305,313,0
303,318,306,314,0
300,316,306,314,0
298,314,305,314,0
297,312,305,312,0
298,311,305,310,0
300,310,305,309,0
302,306,304,306,0
301,300,303,303,0
301,298,302,300,0
301,300,302,297,0
301,304,302,296,0
301,307,301,295,0
300,311,301,296,0
299,315,301,299,0
299,317,301,302,0
300,317,302,306,0
302,314,303,308,0
303,310,304,308,0
305,307,305,308,0
306,305,307,308,0
305,305,307,307,0
304,308,307,307,0
303,311,307,307,0
303,314,307,308,0
302,317,307,308,0
303,319,307,307,0
304,319,306,307,0
305,317,305,306,0
305,317,303,306,0
305,318,303,307,0
306,320,303,308,0
306,320,303,309,0
307,321,302,309,0
308,321,302,309,0
309,322,302,309,0
311,324,302,307,0
312,325,302,307,0
312,323,302,306,0
311,320,303,306,0
308,316,304,306,0
304,312,304,305,0
302,308,303,304,0
300,305,303,303,0
300,300,303,302,0
301,293,303,302,0
303,286,304,303,0
304,281,305,304,0
305,276,306,304,0
305,275,308,303,0
305,277,308,303,0
306,283,308,303,0
307,288,308,303,0
307,290,308,304,0
307,290,308,305,0
305,288,308,307,0
303,287,308,307,0
300,288,308,307,0
299,293,307,307,0
302,303,307,306,0
306,315,307,305,0
308,329,306,303,0
309,339,306,301,0
310,347,305,299,0
310,352,305,298,0
310,353,305,296,0
310,350,306,296,0
311,344,306,296,0
311,337,307,296,0
311,330,308,297,0
311,323,309,299,0
311,313,310,301,0
310,307,310,304,0
309,306,311,308,0
310,310,311,311,0
310,316,311,314,0
311,319,312,316,0
311,319,312,316,0
310,317,312,316,0
310,313,312,315,0
309,310,313,315,0
309,306,312,313,0
308,302,311,312,0
307,302,310,310,0
306,305,309,309,0
306,310,308,308,0
306,316,308,309,0
308,322,309,309,0
310,328,309,310,0
312,331,308,311,0
313,331,308,311,0
312,327,307,312,0
309,320,307,312,0
307,310,308,312,0
305,299,309,312,0
304,291,309,311,0
304,286,309,310,0
305,288,308,308,0
306,296,307,307,0
307,307,306,306,0
309,317,306,306,0
310,324,307,308,0
312,328,307,310,0
313,329,308,311,0
314,327,309,313,0
315,322,309,314,0
315,315,309,314,0
313,308,309,313,0
310,304,308,312,0
307,303,307,311,0
306,304,306,310,0
305,303,305,308,0
304,301,305,306,0
304,295,305,303,0
303,291,305,301,0
302,288,305,300,0
302,289,305,298,0
302,291,304,297,0
301,294,304,296,0
301,297,304,296,0
302,302,304,297,0
303,307,304,298,0
303,312,304,300,0
303,318,305,301,0
305,324,307,303,0
308,329,308,305,0
310,329,310,307,0
312,325,310,308,0
311,319,309,308,0
309,316,309,307,0
306,319,309,306,0
306,324,310,306,0
306,329,310,306,0
308,331,311,307,0
310,332,311,307,0
310,332,312,306,0
307,331,311,305,0
302,329,310,304,0
297,327,309,303,0
294,322,309,303,0
295,318,309,303,0
299,313,310,304,0
304,310,312,306,0
309,307,313,307,0
312,306,313,308,0
313,304,313,309,0
310,302,313,309,0
307,300,314,310,0
305,298,314,310,0
304,298,315,310,0
304,300,315,310,0
305,305,314,308,0
306,311,314,307,0
306,315,313,307,0
306,317,313,308,0
307,318,313,309,0
307,320,314,309,0
305,321,313,309,0
303,320,312,308,0
301,314,310,308,0
300,305,308,307,0
300,298,308,307,0
302,296,308,308,0
305,295,308,308,0
307,294,307,309,0
308,293,307,310,0
310,296,307,310,0
310,299,307,310,0
307,302,307,310,0
305,304,306,308,0
303,307,306,306,0
302,313,307,305,0
302,319,307,304,0
303,324,309,304,0
306,328,310,304,0
308,330,311,304,0
310,330,311,305,0
311,328,310,304,0
312,324,308,304,0
311,320,307,304,0
311,314,305,303,0
310,307,305,303,0
309,302,305,304,0
310,300,305,304,0
309,301,305,304,0
308,302,304,303,0
307,304,303,302,0
306,307,302,302,0
305,307,301,303,0
304,304,300,303,0
304,299,300,304,0
303,298,301,304,0
303,299,302,305,0
303,301,303,305,0
303,304,304,306,0
304,309,305,309,0
305,314,306,310,0
307,320,307,311,0
309,323,308,312,0
309,322,307,312,0
310,316,307,312,0
310,310,306,311,0
310,307,306,310,0
310,306,305,310,0
310,307,304,309,0
311,308,303,307,0
312,309,302,306,0
312,311,302,305,0
311,315,302,304,0
310,320,302,305,0
309,322,302,306,0
307,322,302,307,0
307,319,301,307,0
307,316,302,308,0
308,313,302,308,0
310,309,303,310,0
312,304,304,312,0
313,301,304,313,0
315,301,305,315,0
316,303,305,315,0
317,304,305,316,0
316,304,305,317,0
313,305,305,317,0
310,304,305,316,0
305,302,304,314,0
301,301,303,311,0
299,303,302,309,0
297,306,301,308,0
296,307,301,309,0
297,304,301,310,0
298,298,302,311,0
301,294,303,312,0
305,293,303,313,0
309,297,302,314,0
311,302,302,314,0
309,308,302,314,0
307,312,303,314,0
303,316,303,312,0
300,318,303,310,0
297,318,303,308,0
296,316,303,307,0
296,311,303,307,0
296,304,304,307,0
298,298,304,308,0
299,297,303,307,0
301,300,303,307,0
302,308,303,305,0
303,313,303,304,0
303,313,303,304,0
302,311,303,304,0
301,312,302,304,0
301,315,300,304,0
302,320,299,305,0
303,326,298,307,0
304,332,298,309,0
305,334,299,310,0
303,328,299,311,0
302,322,300,311,0
301,319,301,312,0
302,318,302,314,0
304,316,303,316,0
305,314,304,317,0
306,313,303,317,0
305,309,302,316,0
306,305,302,315,0
307,302,302,314,0
308,304,302,314,0
307,306,302,313,0
306,305,302,313,0
305,300,302,312,0
304,295,301,310,0
303,290,301,308,0
303,289,302,307,0
304,293,303,306,0
307,303,304,308,0
310,313,305,309,0
312,318,305,310,0
312,316,306,310,0
311,310,306,310,0
310,305,307,309,0
308,304,307,308,0
307,305,306,306,0
307,310,306,306,0
309,315,305,306,0
312,318,305,306,0
314,315,305,307,0
316,310,306,308,0
316,303,307,309,0
315,297,308,310,0
313,295,309,310,0
310,296,310,310,0
308,296,309,310,0
309,298,309,310,0
311,302,309,310,0
312,307,308,310,0
312,313,308,310,0
313,320,307,309,0
314,327,307,309,0
315,336,307,309,0
315,344,308,309,0
316,350,308,309,0
315,352,309,310,0
314,348,309,311,0
313,343,308,311,0
313,339,307,311,0
312,336,306,311,0
312,334,306,311,0
312,333,305,312,0
313,330,305,312,0
313,325,306,312,0
314,320,307,312,0
315,315,309,311,0
314,307,310,311,0
311,299,310,310,0
307,294,310,310,0
305,292,310,309,0
303,292,309,309,0
302,292,308,308,0
301,293,307,306,0
299,295,306,305,0
299,298,305,306,0
299,302,305,307,0
299,305,305,308,0
299,306,304,309,0
300,307,303,310,0
302,310,303,311,0
304,315,303,311,0
307,320,304,312,0
310,325,305,313,0
311,329,306,314,0
312,330,306,315,0
311,328,307,314,0
309,322,307,312,0
307,313,306,310,0
307,303,305,308,0
306,294,305,306,0
305,287,305,305,0
304,283,304,304,0
303,285,303,303,0
303,291,303,303,0
305,299,303,303,0
308,307,304,305,0
310,315,304,306,0
312,320,303,307,0
312,323,302,308,0
312,325,302,309,0
312,324,302,310,0
311,323,302,311,0
311,321,302,312,0
312,321,301,312,0
312,320,301,312,0
313,319,301,311,0
313,315,302,310,0
313,311,303,309,0
313,305,303,308,0
313,300,304,308,0
312,295,304,309,0
311,293,304,310,0
310,296,304,312,0
311,302,304,314,0
312,309,304,314,0
311,315,303,314,0
311,319,303,312,0
310,322,303,311,0
309,322,303,309,0
307,321,303,307,0
305,320,303,306,0
304,319,302,304,0
304,317,302,304,0
304,313,303,303,0
305,310,303,303,0
304,306,304,302,0
304,302,304,302,0
305,301,305,302,0
306,303,306,302,0
307,305,307,304,0
307,308,307,305,0
309,311,308,306,0
310,315,308,307,0
311,318,308,306,0
311,319,308,305,0
310,318,308,304,0
309,316,307,302,0
309,312,307,300,0
308,307,306,299,0
307,302,305,297,0
304,300,304,296,0
303,300,304,296,0
302,302,304,296,0
302,304,304,297,0
303,304,305,299,0
303,302,305,299,0
304,299,305,300,0
305,298,306,300,0
306,299,306,300,0
305,299,305,301,0
303,300,304,303,0
299,302,304,305,0
296,307,305,307,0
295,311,306,310,0
295,314,308,311,0
298,316,308,311,0
301,317,310,312,0
304,316,311,312,0
306,313,312,310,0
307,311,313,308,0
308,310,313,307,0
308,310,313,306,0
307,311,312,305,0
306,314,311,305,0
306,321,310,305,0
306,329,309,307,0
305,333,307,308,0
303,333,306,309,0
301,328,306,311,0
299,317,306,312,0
298,306,307,312,0
298,299,308,313,0
299,298,309,312,0
300,300,309,312,0
301,306,309,310,0
303,314,308,310,0
304,320,309,310,0
305,324,309,311,0
306,322,309,311,0
306,318,309,312,0
306,312,308,312,0
305,308,308,312,0
304,305,307,311,0
304,308,306,309,0
303,311,305,307,0
301,313,304,305,0
299,315,304,304,0
298,316,305,303,0
297,317,306,303,0
298,319,307,303,0
300,320,308,304,0
302,321,308,304,0
304,320,308,305,0
306,317,308,305,0
307,314,309,306,0
307,310,309,306,0
307,305,309,305,0
307,301,308,304,0
306,298,307,303,0
306,296,306,302,0
305,293,306,301,0
304,289,305,301,0
303,288,304,302,0
302,291,305,303,0
301,296,306,305,0
301,302,306,306,0
301,307,307,309,0
302,308,307,311,0
304,305,308,313,0
305,299,309,312,0
306,293,309,312,0
307,288,308,310,0
306,285,307,309,0
306,286,306,308,0
306,292,305,308,0
303,295,303,307,0
300,293,302,306,0
297,292,302,306,0
296,297,303,307,0
296,306,304,309,0
298,315,305,310,0
300,322,305,310,0
301,326,305,309,0
301,327,304,307,0
302,327,303,306,0
303,326,302,305,0
305,325,302,305,0
306,323,302,305,0
307,322,302,304,0
309,320,302,303,0
310,318,302,302,0
311,312,302,301,0
311,306,302,302,0
310,303,302,303,0
309,304,302,305,0
308,306,303,307,0
307,310,304,309,0
307,313,305,311,0
308,314,306,312,0
310,315,306,313,0
310,317,306,311,0
308,320,305,309,0
305,324,304,307,0
303,328,304,305,0
301,330,304,304,0
300,328,304,304,0
299,324,304,303,0
300,319,303,303,0
301,315,305,304,0
302,313,306,305,0
303,313,306,306,0
303,315,307,308,0
303,317,308,309,0
303,320,308,310,0
304,323,307,310,0
304,325,306,310,0
303,324,305,309,0
301,323,304,309,0
300,322,303,309,0
300,324,303,310,0
301,327,302,310,0
303,329,302,310,0
303,327,303,310,0
303,322,305,310,0
303,318,308,311,0
302,314,310,310,0
302,312,311,309,0
303,314,312,310,0
303,317,312,310,0
304,320,312,310,0
304,319,312,311,0
304,315,311,312,0
304,308,311,312,0
304,301,310,312,0
304,297,310,311,0
305,297,310,311,0
307,297,310,311,0
308,296,310,312,0
309,295,309,311,0
309,296,310,310,0
308,298,309,308,0
307,299,308,307,0
306,298,308,305,0
305,297,307,304,0
305,296,307,304,0
306,297,307,304,0
308,298,308,305,0
309,298,309,307,0
309,297,309,309,0
308,298,310,309,0
307,300,309,310,0
305,305,309,311,0
304,311,308,311,0
304,317,308,313,0
304,322,308,314,0
304,325,309,315,0
304,327,309,314,0
306,326,309,313,0
307,323,308,311,0
308,319,308,309,0
309,315,307,308,0
309,313,307,306,0
309,313,306,305,0
309,315,306,304,0
310,317,305,303,0
311,318,305,305,0
311,319,305,305,0
311,318,305,306,0
310,315,305,307,0
310,313,305,307,0
309,311,305,308,0
309,308,305,308,0
308,304,304,307,0
307,303,304,307,0
308,304,304,306,0
308,304,303,305,0
308,302,303,305,0
308,301,303,305,0
308,303,304,306,0
309,306,305,307,0
310,311,305,308,0
311,315,305,309,0
312,316,305,310,0
313,317,305,311,0
313,319,305,311,0
315,324,306,310,0
317,328,306,308,0
319,329,307,308,0
321,326,308,307,0
322,322,309,307,0
321,318,309,307,0
318,314,308,307,0
313,311,308,307,0
309,310,309,308,0
306,308,309,309,0
305,305,310,310,0
305,303,310,312,0
307,301,310,313,0
309,298,310,313,0
310,294,310,314,0
311,291,309,314,0
310,287,308,313,0
308,282,308,312,0
306,277,307,310,0
305,273,307,308,0
305,273,307,307,0
304,278,307,305,0
305,285,307,305,0
305,295,306,305,0
306,308,306,305,0
306,320,305,305,0
307,327,305,305,0
307,329,304,304,0
307,328,304,303,0
310,326,305,304,0
314,326,306,305,0
318,325,307,306,0
320,319,308,306,0
318,309,308,306,0
314,298,307,305,0
308,291,306,304,0
303,288,305,302,0
300,290,304,301,0
300,295,305,301,0
301,302,305,301,0
303,306,305,302,0
304,309,305,303,0
305,312,305,304,0
306,316,305,306,0
307,322,304,306,0
307,326,305,305,0
307,329,306,305,0
307,331,307,305,0
307,332,306,304,0
307,333,306,303,0
307,332,306,302,0
308,329,306,301,0
308,325,305,300,0
308,321,304,300,0
308,316,304,300,0
307,308,304,301,0
307,300,304,302,0
306,294,304,304,0
306,291,304,305,0
306,292,305,306,0
306,294,304,306,0
307,298,304,307,0
308,302,304,307,0
309,305,305,306,0
309,305,306,305,0
308,301,306,305,0
307,294,305,304,0
306,294,304,303,0
305,303,304,303,0
305,316,303,304,0
306,329,303,305,0
306,337,302,306,0
306,337,302,305,0
306,328,301,305,0
307,318,300,304,0
305,311,300,304,0
302,306,300,303,0
300,305,301,302,0
299,304,301,302,0
300,305,302,302,0
302,307,303,303,0
306,312,304,305,0
311,316,305,307,0
312,317,305,308,0
312,317,303,307,0
310,317,302,306,0
308,317,300,305,0
306,314,300,303,0
307,312,301,304,0
309,310,302,305,0
313,305,304,307,0
316,300,305,307,0
319,297,306,307,0
321,295,306,306,0
319,295,305,305,0
313,296,304,303,0
307,303,303,302,0
303,313,303,301,0
302,323,303,302,0
302,330,303,304,0
303,332,304,304,0
305,331,304,305,0
307,327,304,305,0
309,320,305,304,0
309,312,305,304,0
310,305,305,301,0
309,302,304,299,0
308,305,303,298,0
308,310,303,297,0
308,316,302,297,0
309,320,302,298,0
310,325,303,300,0
311,326,305,302,0
311,324,306,304,0
310,320,306,306,0
309,318,306,308,0
308,317,305,310,0
308,315,304,310,0
308,313,304,310,0
308,311,305,310,0
309,309,305,309,0
311,307,306,308,0
312,305,306,308,0
314,302,306,307,0
314,298,306,307,0
313,294,306,305,0
310,293,306,304,0
308,297,305,303,0
306,304,305,302,0
305,310,306,302,0
305,315,306,303,0
305,317,306,303,0
305,317,306,302,0
306,316,306,302,0
307,314,306,302,0
308,312,306,302,0
309,310,306,303,0
310,307,306,305,0
310,303,306,306,0
310,297,305,307,0
309,291,304,307,0
308,286,303,306,0
306,284,302,305,0
305,287,303,305,0
306,294,303,306,0
307,302,303,306,0
308,309,303,306,0
308,314,303,307,0
309,316,303,308,0
309,315,303,309,0
309,313,302,309,0
308,313,301,308,0
307,316,299,307,0
307,319,299,307,0
309,321,300,308,0
312,321,302,310,0
316,319,304,312,0
317,313,306,314,0
316,305,307,314,0
314,296,307,314,0
311,290,306,313,0
307,285,306,312,0
303,284,305,310,0
301,289,305,309,0
300,295,306,308,0
299,299,307,307,0
299,303,307,307,0
302,305,307,307,0
307,307,306,308,0
310,308,306,308,0
313,311,305,310,0
314,314,305,311,0
312,318,304,311,0
310,320,304,311,0
307,321,303,311,0
306,321,303,310,0
303,320,303,309,0
303,316,303,307,0
302,312,303,306,0
302,307,304,304,0
301,299,304,303,0
301,290,304,302,0
299,284,303,301,0
298,282,301,299,0
298,284,300,298,0
300,292,300,299,0
304,302,301,301,0
307,312,303,304,0
309,318,304,307,0
310,320,304,311,0
310,320,305,313,0
309,320,306,315,0
308,319,306,315,0
307,319,305,315,0
305,317,305,315,0
305,315,305,314,0
305,314,305,313,0
305,314,305,312,0
306,315,306,311,0
307,317,307,310,0
309,318,307,310,0
311,315,308,310,0
313,312,307,309,0
313,309,306,309,0
313,308,305,309,0
312,312,304,309,0
311,318,303,309,0
309,323,303,309,0
309,322,303,309,0
307,318,303,308,0
307,314,303,307,0
306,312,304,306,0
307,312,304,305,0
308,315,304,305,0
308,319,304,305,0
308,320,304,305,0
308,319,304,305,0
309,319,305,305,0
310,320,305,306,0
310,321,305,307,0
311,324,305,309,0
311,328,306,312,0
312,330,306,312,0
312,329,307,312,0
312,326,309,312,0
312,321,309,312,0
312,317,309,312,0
311,315,309,311,0
311,313,309,310,0
310,313,309,309,0
309,313,309,308,0
308,312,308,307,0
307,309,307,306,0
306,306,307,305,0
305,303,306,303,0
304,300,306,301,0
305,297,305,299,0
306,295,304,300,0
308,295,304,301,0
310,295,304,303,0
311,293,304,305,0
312,290,304,307,0
312,288,304,308,0
312,289,303,309,0
311,292,302,308,0
310,295,301,307,0
309,297,300,306,0
307,298,300,306,0
306,294,301,307,0
304,287,302,307,0
303,280,303,309,0
303,274,305,310,0
304,273,308,311,0
307,280,308,311,0
310,290,309,311,0
313,302,308,310,0
314,314,307,308,0
313,325,305,307,0
312,333,305,305,0
311,335,304,305,0
310,333,304,305,0
309,328,305,305,0
309,321,305,306,0
308,314,305,304,0
308,308,306,303,0
309,305,306,302,0
311,304,305,302,0
314,305,304,303,0
315,307,303,303,0
312,308,302,302,0
309,311,302,301,0
306,314,304,301,0
304,314,306,300,0
303,312,307,300,0
302,309,308,299,0
301,309,307,298,0
301,309,308,298,0
302,312,309,299,0
304,314,310,301,0
304,315,311,303,0
304,315,311,304,0
302,315,311,305,0
302,313,310,305,0
304,312,309,306,0
306,311,307,305,0
308,312,307,305,0
308,311,307,305,0
307,309,307,305,0
305,305,307,306,0
303,300,308,306,0
301,297,308,306,0
300,300,307,306,0
301,307,306,306,0
303,314,305,305,0
306,318,305,306,0
309,319,306,307,0
311,316,307,307,0
311,312,307,308,0
309,310,307,307,0
308,310,307,307,0
307,311,307,307,0
307,313,307,307,0
307,316,308,307,0
307,318,309,307,0
308,319,310,308,0
307,317,310,306,0
305,314,309,304,0
303,308,307,303,0
301,302,306,301,0
300,298,304,300,0
300,299,304,300,0
300,301,305,300,0
301,304,305,303,0
303,307,306,305,0
306,310,307,308,0
307,308,308,310,0
307,303,307,310,0
305,299,307,310,0
303,296,306,309,0
302,292,306,309,0
301,289,306,308,0
301,288,307,307,0
302,290,307,306,0
303,291,308,307,0
303,291,309,308,0
303,294,309,309,0
303,300,311,310,0
303,308,312,310,0
304,315,313,309,0
305,321,314,309,0
306,325,315,308,0
306,327,316,308,0
306,328,316,308,0
306,327,315,308,0
304,324,315,309,0
302,320,313,308,0
301,319,312,307,0
302,319,311,306,0
304,318,311,306,0
306,316,311,305,0
306,315,311,304,0
306,315,312,304,0
306,318,312,304,0
306,320,312,304,0
308,320,313,304,0
309,315,313,304,0
310,306,313,304,0
311,296,312,304,0
311,291,312,305,0
312,290,312,307,0
313,292,313,308,0
314,297,313,310,0
315,305,314,311,0
317,313,314,313,0
318,320,313,313,0
319,325,312,313,0
318,328,310,311,0
315,332,309,309,0
311,335,308,307,0
308,337,308,306,0
305,334,309,306,0
304,328,309,306,0
305,319,310,307,0
305,309,310,307,0
305,297,310,307,0
304,288,309,306,0
304,285,309,305,0
305,286,309,304,0
306,286,310,304,0
305,285,310,304,0
303,288,309,304,0
301,296,308,305,0
301,306,308,306,0
302,315,308,307,0
304,322,307,307,0
306,323,306,308,0
307,323,305,309,0
307,321,304,308,0
305,318,304,308,0
304,315,303,307,0
302,311,302,307,0
302,309,302,307,0
303,306,302,306,0
303,302,302,306,0
302,297,302,305,0
302,292,301,304,0
302,287,301,304,0
303,285,301,305,0
304,284,301,306,0
306,287,302,306,0
306,291,302,305,0
306,296,302,305,0
306,304,302,305,0
307,313,303,305,0
309,319,305,305,0
309,319,306,305,0
308,314,305,304,0
307,312,303,303,0
308,316,303,303,0
310,323,303,304,0
312,329,304,305,0
313,329,305,305,0
312,323,306,305,0
311,315,306,305,0
311,311,306,305,0
310,309,306,304,0
310,311,305,303,0
310,312,304,302,0
309,314,302,301,0
307,317,300,299,0
307,318,299,298,0
308,316,299,296,0
309,312,299,296,0
312,307,299,296,0
313,303,299,297,0
311,300,300,300,0
306,299,301,304,0
302,300,303,308,0
302,303,305,311,0
303,307,305,312,0
303,311,305,311,0
302,313,305,309,0
301,314,305,306,0
301,314,305,304,0
302,310,305,303,0
303,304,305,303,0
303,301,305,303,0
303,305,305,302,0
304,312,305,302,0
305,318,306,303,0
307,322,306,304,0
310,323,306,305,0
311,321,306,306,0
311,317,305,306,0
310,315,305,307,0
309,316,304,308,0
307,317,303,309,0
306,317,303,309,0
305,317,304,309,0
306,317,305,309,0
307,319,305,310,0
310,319,306,311,0
311,318,307,311,0
312,311,308,310,0
311,301,308,309,0
311,295,307,308,0
310,293,306,307,0
310,293,305,308,0
311,296,304,309,0
311,297,305,310,0
311,296,305,310,0
310,296,306,311,0
311,298,307,311,0
312,303,307,311,0
314,309,307,310,0
314,314,307,309,0
311,317,306,309,0
308,321,305,308,0
305,324,305,307,0
304,325,305,307,0
303,324,305,306,0
303,323,305,306,0
304,322,306,307,0
305,319,307,308,0
305,313,308,310,0
306,308,308,312,0
305,302,309,313,0
304,298,308,313,0
303,298,308,313,0
304,304,308,312,0
306,313,308,312,0
308,321,308,312,0
308,322,308,312,0
307,316,306,313,0
305,307,304,312,0
305,303,303,311,0
306,303,303,310,0
307,305,303,309,0
308,308,304,308,0
309,311,303,306,0
309,311,302,306,0
309,312,301,305,0
308,315,300,306,0
307,317,301,307,0
307,318,301,308,0
307,319,302,309,0
307,318,304,311,0
307,318,305,313,0
307,316,306,315,0
307,315,307,317,0
307,313,307,318,0
308,311,307,318,0
308,309,308,318,0
310,309,309,317,0
311,308,309,316,0
311,308,309,316,0
311,307,308,315,0
310,307,309,314,0
309,308,308,313,0
308,308,307,312,0
307,309,307,311,0
306,311,307,311,0
306,311,307,311,0
305,308,307,310,0
306,303,307,308,0
307,297,307,307,0
308,292,308,306,0
308,288,308,305,0
307,289,307,306,0
305,291,307,307,0
305,297,309,307,0
305,305,310,308,0
306,315,311,308,0
307,326,310,307,0
306,334,310,305,0
305,337,309,303,0
303,335,308,302,0
303,332,309,302,0
303,326,309,303,0
303,320,310,304,0
303,314,309,305,0
303,308,308,306,0
303,303,307,305,0
302,300,306,305,0
302,300,306,304,0
302,302,306,305,0
303,305,307,306,0
305,306,307,307,0
305,307,307,307,0
305,305,307,306,0
306,301,307,306,0
306,298,308,305,0
307,299,308,305,0
307,302,308,304,0
307,307,308,303,0
305,311,307,303,0
303,313,307,304,0
301,313,307,305,0
300,310,307,307,0
300,305,307,307,0
301,298,307,307,0
302,290,308,306,0
303,281,308,305,0
304,272,308,305,0
305,267,307,303,0
304,268,306,302,0
304,276,305,301,0
306,291,304,302,0
310,308,305,304,0
316,321,305,307,0
320,328,305,307,0
320,331,304,306,0
318,329,303,306,0
315,323,303,305,0
311,316,303,304,0
308,307,302,304,0
306,298,302,304,0
304,294,302,304,0
303,297,302,304,0
303,304,301,304,0
302,311,301,305,0
303,316,302,307,0
303,320,303,309,0
304,320,304,311,0
304,318,304,311,0
303,314,303,312,0
303,308,303,312,0
304,301,303,312,0
303,291,304,310,0
300,282,303,309,0
300,283,304,309,0
302,296,304,310,0
307,314,305,312,0
310,331,304,313,0
312,343,304,313,0
313,351,304,313,0
314,354,304,313,0
314,356,305,312,0
314,357,306,310,0
314,354,307,308,0
312,348,307,307,0
311,338,306,306,0
310,329,306,307,0
308,324,306,308,0
307,321,306,310,0
306,318,306,310,0
304,313,306,309,0
301,306,305,307,0
301,303,304,306,0
301,306,304,305,0
303,311,304,305,0
306,313,305,306,0
308,315,306,307,0
311,318,307,308,0
311,320,308,309,0
312,322,308,309,0
312,323,307,310,0
312,321,307,310,0
313,320,306,311,0
313,321,305,311,0
314,324,305,310,0
314,326,304,309,0
314,328,304,309,0
313,329,303,309,0
311,329,303,310,0
310,326,304,310,0
309,320,305,309,0
308,313,305,308,0
308,307,305,307,0
307,305,305,305,0
306,304,305,304,0
305,301,305,305,0
304,299,305,305,0
304,299,305,305,0
303,303,305,305,0
304,307,305,306,0
304,310,305,305,0
305,311,305,305,0
305,313,304,306,0
306,315,304,308,0
306,316,305,309,0
307,318,305,310,0
308,318,307,311,0
308,316,308,312,0
308,309,309,311,0
307,300,309,311,0
306,290,309,310,0
306,285,309,309,0
308,283,310,307,0
310,284,311,306,0
312,288,312,305,0
313,295,311,305,0
312,303,310,305,0
310,313,310,306,0
310,323,310,308,0
310,332,310,308,0
310,336,309,307,0
310,336,308,306,0
310,335,307,305,0
310,332,304,305,0
308,328,303,306,0
308,325,302,307,0
307,322,303,309,0
307,317,303,311,0
308,315,304,313,0
309,317,305,315,0
310,320,307,316,0
310,323,307,316,0
309,324,307,316,0
308,324,307,316,0
308,323,306,315,0
309,322,306,315,0
309,319,306,315,0
310,315,306,314,0
309,310,305,313,0
308,304,305,313,0
308,300,304,311,0
307,299,303,309,0
306,303,303,307,0
307,308,302,306,0
309,311,302,303,0
312,314,302,301,0
315,315,304,300,0
318,314,305,301,0
319,311,306,303,0
317,309,307,305,0
313,306,307,307,0
309,305,308,308,0
306,307,308,309,0
303,309,308,310,0
302,311,307,311,0
301,311,307,312,0
300,311,306,313,0
302,311,305,315,0
304,307,305,316,0
304,300,304,316,0
304,290,303,314,0
304,282,302,312,0
303,282,302,310,0
303,291,302,309,0
304,304,302,308,0
306,315,302,307,0
307,321,302,307,0
307,322,302,306,0
306,323,303,305,0
306,324,303,305,0
306,328,304,305,0
306,332,304,305,0
307,335,304,305,0
308,334,304,305,0
309,330,303,304,0
310,325,303,305,0
311,319,304,306,0
312,312,304,307,0
311,303,304,307,0
309,295,303,306,0
308,291,302,305,0
308,293,301,303,0
309,301,301,301,0
311,310,300,300,0
311,316,299,300,0
310,320,299,300,0
308,320,299,301,0
308,318,299,302,0
307,316,300,304,0
306,315,301,306,0
304,314,301,307,0
303,314,301,309,0
303,315,301,309,0
304,317,301,309,0
306,315,302,309,0
307,309,301,308,0
307,299,300,306,0
307,288,300,304,0
307,280,301,303,0
308,277,301,302,0
308,281,301,301,0
305,290,301,301,0
303,301,301,301,0
302,312,302,301,0
303,319,303,301,0
303,321,304,301,0
304,320,305,301,0
305,317,306,303,0
305,315,307,304,0
304,314,307,304,0
304,317,306,306,0
303,320,306,307,0
303,325,306,309,0
304,327,308,312,0
306,324,310,314,0
308,321,311,315,0
309,318,312,317,0
310,313,313,317,0
311,305,312,317,0
310,298,312,315,0
309,294,311,313,0
308,291,310,312,0
306,291,310,311,0
306,292,308,308,0
305,293,307,304,0
304,295,305,300,0
304,299,305,298,0
305,306,305,297,0
307,312,305,297,0
310,314,307,298,0
312,310,308,300,0
314,306,310,302,0
315,305,311,303,0
315,311,311,305,0
314,320,311,305,0
312,330,310,306,0
310,337,309,305,0
309,339,308,305,0
308,337,307,304,0
308,335,306,303,0
308,333,306,302,0
308,332,305,300,0
310,331,305,299,0
312,331,304,298,0
314,329,304,298,0
317,327,304,298,0
317,323,304,298,0
315,319,304,297,0
311,314,304,298,0
306,310,305,299,0
301,306,306,301,0
298,303,305,303,0
295,298,304,303,0
293,293,304,303,0
292,292,304,302,0
294,299,304,302,0
297,308,304,301,0
300,316,305,302,0
303,321,307,302,0
305,326,308,302,0
306,327,309,303,0
308,327,309,303,0
310,325,310,304,0
313,321,310,305,0
314,316,311,305,0
314,310,310,305,0
313,304,309,304,0
310,299,308,303,0
308,297,307,303,0
305,298,307,303,0
304,304,308,304,0
305,313,309,305,0
306,322,310,307,0
307,327,311,307,0
307,328,311,307,0
307,326,311,307,0
307,323,310,308,0
308,321,309,308,0
309,317,309,308,0
308,312,308,307,0
307,309,309,307,0
306,308,309,307,0
307,309,310,307,0
309,312,311,307,0
311,314,312,308,0
311,314,313,308,0
311,315,312,309,0
310,314,313,309,0
309,314,313,308,0
308,315,312,308,0
307,317,312,307,0
305,319,311,307,0
304,321,310,307,0
303,322,308,307,0
303,322,307,307,0
301,321,307,307,0
301,318,307,307,0
301,316,307,305,0
301,314,307,305,0
303,312,307,304,0
304,309,307,304,0
305,303,307,304,0
306,296,307,305,0
307,289,308,305,0
306,281,308,304,0
306,276,308,304,0
306,275,309,303,0
306,280,310,303,0
307,290,311,303,0
309,300,312,303,0
310,307,313,304,0
311,310,313,303,0
310,310,312,301,0
310,308,312,299,0
309,307,311,299,0
308,307,310,299,0
307,309,309,300,0
306,310,308,301,0
306,308,308,301,0
307,306,308,302,0
307,304,309,302,0
307,301,309,303,0
306,298,308,304,0
305,298,308,304,0
304,302,308,304,0
305,308,309,305,0
307,313,309,307,0
308,313,309,308,0
309,307,310,309,0
309,294,311,310,0
309,281,312,309,0
309,268,313,309,0
307,255,313,309,0
305,243,313,308,0
303,237,313,307,0
301,241,312,304,0
300,253,310,302,0
300,272,309,300,0
302,295,308,298,0
305,318,308,297,0
308,333,309,298,0
311,342,309,300,0
311,345,309,301,0
310,347,309,303,0
310,347,309,304,0
310,346,310,304,0
310,343,310,306,0
311,341,311,307,0
313,338,311,309,0
315,335,311,310,0
317,331,309,311,0
317,327,308,311,0
315,322,306,311,0
312,319,304,312,0
308,320,304,311,0
306,324,304,310,0
304,328,306,308,0
304,330,308,306,0
306,330,309,306,0
308,330,310,306,0
309,329,310,306,0
309,324,310,307,0
308,319,311,309,0
307,315,310,309,0
305,313,310,310,0
304,313,309,310,0
304,314,308,312,0
305,314,308,312,0
305,314,308,312,0
304,313,308,312,0
303,311,308,313,0
301,308,308,313,0
300,303,308,314,0
299,298,309,315,0
299,296,309,316,0
301,296,310,318,0
302,301,312,319,0
304,310,312,318,0
305,316,310,316,0
306,316,308,313,0
305,311,307,311,0
304,305,307,308,0
303,298,307,307,0
302,292,308,306,0
302,285,308,305,0
302,279,309,305,0
303,279,309,305,0
304,285,310,305,0
305,295,310,305,0
306,306,311,304,0
306,315,312,305,0
305,321,311,307,0
304,324,311,309,0
302,324,311,311,0
302,322,310,313,0
301,319,310,314,0
301,317,309,314,0
303,316,309,314,0
305,316,308,313,0
307,317,309,311,0
308,319,308,309,0
308,322,308,306,0
308,320,308,305,0
308,314,307,304,0
306,305,306,304,0
305,291,305,303,0
303,278,305,303,0
301,270,305,303,0
300,267,305,302,0
300,271,306,301,0
301,281,307,301,0
303,293,308,301,0
306,305,308,302,0
309,315,309,304,0
313,324,309,307,0
315,330,308,308,0
313,334,307,308,0
311,336,306,307,0
307,337,306,306,0
305,339,306,305,0
305,340,306,305,0
305,340,306,305,0
305,337,306,305,0
305,333,306,304,0
303,326,306,304,0
302,320,305,304,0
301,315,304,304,0
300,314,304,304,0
300,315,304,303,0
300,316,304,302,0
300,315,304,300,0
299,315,304,299,0
299,318,303,299,0
301,324,304,301,0
302,329,305,303,0
302,330,306,307,0
302,325,307,311,0
302,318,308,314,0
303,313,309,314,0
304,311,310,314,0
305,310,309,313,0
306,310,308,310,0
307,308,308,307,0
308,305,307,305,0
309,302,306,303,0
309,298,306,302,0
309,296,305,301,0
309,294,305,301,0
311,293,304,301,0
314,293,305,302,0
317,294,306,304,0
318,296,306,307,0
316,298,306,310,0
312,299,306,312,0
309,302,306,313,0
308,306,307,312,0
307,309,307,311,0
307,312,307,310,0
308,311,308,310,0
308,308,309,309,0
309,305,309,309,0
308,305,309,308,0
309,304,309,307,0
309,303,309,307,0
309,299,308,306,0
309,292,308,306,0
308,287,307,305,0
308,289,307,306,0
308,297,307,307,0
306,304,306,306,0
302,301,304,304,0
297,295,302,301,0
293,289,301,299,0
293,287,301,298,0
295,290,303,298,0
297,295,305,298,0
298,300,307,299,0
299,306,307,301,0
301,314,308,301,0
303,320,309,301,0
304,324,309,301,0
304,327,309,300,0
305,328,309,300,0
306,327,309,301,0
307,324,310,302,0
308,318,310,303,0
306,311,309,303,0
304,307,308,302,0
303,307,308,303,0
303,309,309,304,0
304,310,311,305,0
305,310,313,307,0
307,310,314,308,0
307,312,314,310,0
307,314,314,310,0
306,315,314,309,0
304,316,313,307,0
303,317,311,306,0
303,316,311,305,0
304,316,310,306,0
305,315,310,305,0
305,309,310,305,0
303,302,309,303,0
301,297,308,302,0
299,297,307,302,0
299,302,307,303,0
300,311,308,306,0
301,320,308,307,0
302,324,308,308,0
304,327,309,310,0
307,327,309,311,0
308,324,309,311,0
307,317,309,310,0
305,311,309,310,0
304,310,310,311,0
305,312,310,311,0
304,315,310,311,0
303,318,309,311,0
303,320,308,310,0
303,321,307,309,0
305,321,307,308,0
306,319,307,308,0
307,318,307,308,0
307,316,306,308,0
308,313,305,307,0
308,312,304,306,0
308,311,302,305,0
309,313,302,304,0
308,318,301,304,0
309,323,302,304,0
309,325,302,305,0
310,323,303,306,0
311,316,304,307,0
313,309,304,309,0
317,306,305,312,0
322,304,305,314,0
326,302,305,316,0
327,299,305,316,0
322,295,303,315,0
314,292,303,314,0
308,294,303,314,0
304,301,304,314,0
302,307,304,313,0
300,307,304,310,0
298,304,304,308,0
296,301,303,306,0
296,301,303,306,0
297,302,304,307,0
299,302,305,307,0
301,300,306,306,0
302,296,306,305,0
304,290,307,304,0
305,286,307,304,0
306,284,307,304,0
306,284,307,303,0
307,286,306,302,0
308,287,305,301,0
309,290,305,300,0
311,294,305,300,0
312,298,306,300,0
312,304,306,302,0
312,313,307,304,0
312,323,308,306,0
312,329,309,308,0
313,331,309,308,0
313,330,309,309,0
315,329,309,309,0
316,329,308,310,0
317,328,308,309,0
316,328,307,307,0
315,330,307,306,0
314,332,307,305,0
313,332,308,305,0
313,329,309,307,0
314,324,309,309,0
314,318,310,310,0
315,314,309,310,0
314,311,309,310,0
313,306,308,309,0
311,302,307,308,0
309,299,307,307,0
308,299,306,306,0
308,299,306,306,0
309,300,306,307,0
310,303,306,308,0
311,307,306,310,0
311,310,306,310,0
310,311,306,309,0
310,310,307,307,0
311,309,307,307,0
311,307,307,308,0
312,303,308,309,0
313,298,308,310,0
314,290,309,311,0
313,284,308,312,0
312,280,307,312,0
311,280,305,311,0
310,285,304,310,0
309,294,304,309,0
307,306,304,307,0
306,317,305,305,0
305,324,305,304,0
306,330,305,303,0
306,332,306,302,0
306,330,307,300,0
306,326,307,299,0
305,322,308,299,0
306,318,310,300,0
306,314,311,302,0
306,310,311,305,0
305,306,311,307,0
304,306,311,310,0
304,307,310,312,0
303,306,311,313,0
305,305,311,313,0
307,305,312,313,0
310,309,313,313,0
314,313,313,313,0
317,315,313,313,0
318,314,311,313,0
317,311,310,313,0
313,305,309,311,0
308,300,308,310,0
305,297,307,309,0
302,297,307,308,0
301,300,305,308,0
302,306,304,308,0
304,311,304,308,0
307,315,305,307,0
310,317,306,307,0
311,317,307,307,0
311,313,308,307,0
310,310,309,307,0
310,310,310,308,0
310,314,310,310,0
309,316,310,311,0
309,315,310,312,0
310,311,310,312,0
311,306,309,312,0
312,303,308,311,0
312,304,308,310,0
311,306,307,309,0
309,305,306,307,0
307,307,305,305,0
307,311,305,305,0
308,315,305,305,0
309,318,307,305,0
309,320,308,305,0
309,321,309,304,0
308,320,309,304,0
308,316,308,302,0
309,308,308,302,0
310,300,308,302,0
310,293,308,304,0
308,289,309,306,0
306,290,309,308,0
305,296,310,309,0
304,304,310,308,0
303,308,309,307,0
302,308,309,305,0
302,307,308,303,0
301,305,308,301,0
300,304,306,298,0
299,307,305,298,0
298,308,304,298,0
298,302,305,300,0
299,295,307,302,0
301,291,308,305,0
302,291,308,306,0
302,294,309,308,0
303,299,310,309,0
304,304,312,309,0
304,306,312,308,0
303,310,312,307,0
303,315,311,305,0
303,320,311,304,0
304,325,311,305,0
306,327,312,306,0
309,327,313,308,0
312,323,314,310,0
313,316,315,311,0
312,307,316,312,0
312,300,315,314,0
312,296,315,314,0
313,296,314,314,0
312,299,314,313,0
312,305,313,313,0
311,314,312,313,0
311,320,312,313,0
310,321,312,313,0
308,319,312,311,0
306,318,312,310,0
305,318,312,310,0
306,322,312,310,0
307,329,313,310,0
309,335,313,310,0
310,338,314,309,0
309,336,314,308,0
306,332,313,306,0
304,329,312,306,0
303,325,312,307,0
304,320,312,308,0
307,313,311,308,0
308,309,310,308,0
310,308,311,309,0
310,311,311,310,0
310,314,311,311,0
309,316,311,311,0
309,317,311,311,0
310,317,311,312,0
311,321,311,312,0
312,327,311,312,0
312,328,310,312,0
308,322,309,312,0
304,314,309,310,0
300,311,308,308,0
298,312,308,307,0
297,316,309,306,0
297,320,309,306,0
298,322,310,305,0
300,324,310,304,0
301,321,310,303,0
299,316,309,303,0
297,315,308,303,0
297,316,309,304,0
298,316,310,304,0
299,315,310,304,0
300,316,311,305,0
301,316,311,305,0
302,316,312,306,0
302,313,312,307,0
303,307,313,309,0
304,301,314,311,0
305,297,316,315,0
307,294,316,317,0
308,295,315,319,0
309,296,314,319,0
309,297,313,319,0
310,300,312,318,0
310,304,311,317,0
308,307,309,315,0
306,307,307,313,0
305,306,306,312,0
303,303,307,311,0
303,299,308,311,0
302,294,309,311,0
302,291,309,310,0
302,292,310,308,0
302,295,310,307,0
305,297,311,308,0
308,298,311,309,0
311,298,311,309,0
312,298,309,308,0
311,296,307,307,0
309,293,307,306,0
307,289,307,305,0
307,290,307,304,0
307,295,307,305,0
307,302,307,305,0
306,310,307,305,0
305,313,306,305,0
303,311,305,305,0
303,307,306,305,0
304,303,307,306,0
305,301,307,305,0
306,302,308,305,0
307,307,309,303,0
308,314,310,302,0
309,320,310,301,0
310,323,311,301,0
310,321,312,301,0
309,316,312,300,0
309,311,312,301,0
310,307,312,302,0
310,306,312,304,0
310,305,312,306,0
310,300,312,309,0
310,293,312,311,0
309,285,312,312,0
306,276,310,311,0
302,269,308,308,0
300,273,307,306,0
299,288,306,305,0
301,309,306,305,0
303,328,306,305,0
305,338,306,305,0
305,339,306,305,0
304,338,306,306,0
305,338,307,306,0
306,340,307,307,0
307,341,308,308,0
307,341,309,309,0
307,336,309,310,0
306,327,309,310,0
304,318,307,309,0
304,312,306,308,0
303,308,305,306,0
303,305,303,304,0
303,303,302,303,0
304,303,302,303,0
306,305,302,303,0
308,308,302,304,0
310,311,303,304,0
312,314,305,304,0
313,316,305,304,0
314,316,304,304,0
314,314,304,304,0
313,311,303,304,0
312,308,303,304,0
312,305,304,304,0
313,302,305,304,0
314,299,305,305,0
316,295,306,306,0
318,290,307,307,0
318,283,307,306,0
316,278,306,305,0
313,279,306,304,0
310,284,305,302,0
310,291,306,301,0
310,298,306,301,0
310,303,306,300,0
308,305,306,301,0
305,305,304,302,0
304,304,303,304,0
303,304,303,306,0
303,302,305,308,0
305,298,307,308,0
306,291,310,309,0
306,283,311,309,0
306,278,312,308,0
306,280,311,308,0
307,290,310,308,0
308,305,309,308,0
309,319,308,308,0
309,330,307,308,0
309,338,307,308,0
310,342,306,307,0
310,343,307,305,0
311,338,307,304,0
311,330,307,304,0
310,318,308,304,0
309,300,308,305,0
307,280,308,307,0
304,261,307,307,0
301,251,306,307,0
300,254,305,306,0
302,265,305,306,0
303,279,306,306,0
305,294,306,306,0
306,309,306,306,0
308,322,306,305,0
309,332,306,304,0
310,338,306,304,0
309,341,306,304,0
309,341,306,304,0
308,339,306,304,0
306,338,307,304,0
306,338,307,304,0
307,338,308,305,0
307,336,309,307,0
308,333,310,309,0
308,331,310,310,0
307,327,308,311,0
306,325,307,312,0
307,324,307,312,0
308,323,307,314,0
309,322,308,315,0
310,318,309,316,0
311,311,309,316,0
310,304,309,315,0
310,300,308,314,0
310,301,307,313,0
311,304,307,312,0
312,306,307,311,0
314,305,308,310,0
314,301,308,310,0
314,295,307,309,0
311,291,307,310,0
307,290,306,310,0
304,289,306,309,0
302,286,307,309,0
301,281,308,307,0
302,278,309,306,0
303,282,309,305,0
304,294,309,304,0
307,313,309,305,0
310,328,309,306,0
313,333,309,308,0
314,330,308,310,0
316,324,309,312,0
318,320,308,313,0
319,316,308,313,0
320,312,308,312,0
320,309,307,311,0
317,308,306,309,0
313,307,305,307,0
309,307,305,305,0
306,311,306,304,0
304,315,306,303,0
303,319,307,302,0
301,320,307,302,0
302,319,308,302,0
303,317,308,303,0
305,314,308,304,0
306,310,308,304,0
307,307,308,306,0
309,303,308,307,0
310,296,307,308,0
310,287,307,308,0
310,284,307,308,0
310,285,307,307,0
309,289,307,307,0
307,293,307,306,0
305,295,307,306,0
303,296,307,306,0
301,302,307,306,0
301,312,308,307,0
302,321,308,308,0
303,327,307,307,0
305,330,306,308,0
307,332,305,308,0
307,332,305,309,0
306,331,305,309,0
306,329,305,309,0
305,327,305,308,0
305,325,306,308,0
306,325,308,307,0
306,324,309,307,0
307,323,310,307,0
309,323,310,308,0
310,322,310,309,0
311,320,309,310,0
311,319,309,311,0
310,318,309,312,0
310,316,309,313,0
310,316,310,315,0
311,317,311,316,0
312,317,311,316,0
312,314,311,316,0
312,310,312,315,0
311,305,311,314,0
309,298,311,312,0
307,292,310,311,0
306,288,309,311,0
306,287,308,312,0
306,288,309,314,0
305,288,309,316,0
303,288,310,317,0
301,289,310,319,0
302,290,310,320,0
302,289,310,319,0
303,285,309,318,0
304,281,309,317,0
304,279,308,316,0
303,277,308,314,0
302,275,307,311,0
302,278,306,310,0
302,283,306,309,0
302,288,306,309,0
303,294,306,308,0
302,302,305,307,0
301,313,305,306,0
300,324,304,305,0
300,333,303,305,0
300,336,303,304,0
302,332,303,303,0
303,321,304,301,0
303,308,305,300,0
303,299,305,300,0
302,294,306,301,0
302,297,307,304,0
304,303,308,307,0
305,309,309,310,0
306,312,310,312,0
306,313,310,312,0
307,312,310,312,0
308,313,310,312,0
310,316,311,313,0
312,319,310,313,0
313,322,310,314,0
314,324,309,313,0
314,325,308,312,0
314,325,306,311,0
314,322,306,310,0
314,317,305,309,0
315,311,304,307,0
317,306,304,306,0
319,302,304,306,0
321,296,305,306,0
320,290,305,305,0
316,288,304,305,0
311,292,304,305,0
307,303,304,305,0
305,317,304,305,0
305,329,303,306,0
305,339,303,307,0
306,343,303,308,0
309,342,303,308,0
311,338,304,308,0
313,333,303,307,0
312,328,303,307,0
308,322,302,305,0
303,317,303,304,0
300,313,304,303,0
299,310,304,303,0
300,306,304,302,0
302,302,304,302,0
304,298,304,303,0
305,293,304,305,0
306,287,304,307,0
305,281,304,309,0
303,275,304,310,0
301,271,302,310,0
299,271,302,309,0
298,276,302,308,0
298,283,302,308,0
300,291,303,309,0
301,297,304,309,0
301,299,305,310,0
302,300,306,311,0
303,303,306,311,0
304,307,305,310,0
304,312,305,310,0
306,316,306,310,0
306,317,305,310,0
306,316,305,309,0
304,313,305,309,0
302,309,305,310,0
300,303,305,311,0
298,294,304,311,0
296,290,303,310,0
296,292,303,309,0
298,300,304,309,0
301,313,305,309,0
304,325,306,309,0
307,334,307,311,0
310,341,307,311,0
311,344,307,311,0
311,344,307,311,0
310,340,307,311,0
309,335,307,311,0
308,331,307,311,0
308,329,308,310,0
309,330,309,310,0
310,332,308,311,0
309,335,308,310,0
309,334,307,310,0
307,328,306,311,0
305,314,306,312,0
302,299,305,312,0
301,292,305,312,0
303,291,305,311,0
305,293,306,310,0
307,296,306,309,0
309,298,305,308,0
310,297,304,307,0
308,298,303,305,0
307,300,303,303,0
306,303,302,301,0
306,302,301,301,0
305,297,301,302,0
305,290,301,303,0
304,286,301,305,0
305,285,302,308,0
306,286,302,310,0
308,290,303,312,0
309,296,303,313,0
310,303,304,313,0
309,308,303,311,0
306,311,302,308,0
303,312,302,305,0
300,311,301,303,0
299,307,302,302,0
299,302,303,303,0
300,296,303,303,0
301,291,303,303,0
303,293,302,303,0
304,302,301,303,0
304,313,300,303,0
304,324,300,304,0
303,333,301,306,0
303,338,302,308,0
303,339,304,309,0
301,338,304,309,0
300,335,305,308,0
299,329,304,307,0
299,319,304,306,0
300,309,303,307,0
301,299,302,306,0
302,290,302,305,0
302,285,301,305,0
302,286,301,306,0
301,292,301,308,0
301,297,302,310,0
300,299,304,312,0
300,300,305,314,0
300,300,306,314,0
301,304,305,313,0
302,312,303,312,0
302,322,302,312,0
302,330,301,311,0
302,335,301,310,0
302,338,302,309,0
302,339,303,307,0
301,338,303,306,0
301,335,303,305,0
300,328,303,305,0
299,319,302,306,0
299,310,302,306,0
302,307,302,307,0
304,308,302,307,0
307,312,303,308,0
307,316,304,308,0
306,318,304,307,0
305,318,305,307,0
304,317,305,308,0
303,316,305,310,0
303,316,305,313,0
303,316,305,315,0
304,316,306,317,0
304,314,306,317,0
304,313,306,316,0
303,312,306,315,0
302,309,305,312,0
302,306,305,310,0
301,305,305,308,0
302,307,305,308,0
302,311,306,308,0
303,313,306,309,0
304,315,308,309,0
305,315,309,310,0
306,314,310,310,0
306,310,310,311,0
307,303,311,311,0
306,297,311,311,0
306,293,311,311,0
306,293,310,310,0
306,292,308,308,0
306,294,306,305,0
305,298,304,302,0
304,305,304,301,0
305,312,305,301,0
306,317,305,302,0
306,317,304,301,0
305,315,303,301,0
304,312,302,301,0
302,309,300,300,0
300,309,299,300,0
298,313,300,300,0
299,320,302,303,0
300,327,304,306,0
302,333,305,310,0
305,334,307,312,0
306,330,308,313,0
307,323,308,312,0
306,313,308,312,0
305,303,307,312,0
304,297,306,313,0
304,298,305,312,0
304,301,303,312,0
305,306,303,311,0
307,310,304,311,0
308,314,304,310,0
310,318,304,308,0
311,321,305,305,0
313,321,305,302,0
314,319,305,301,0
313,318,305,301,0
312,318,305,303,0
309,313,306,303,0
305,301,306,302,0
301,288,306,301,0
299,282,305,301,0
299,284,305,303,0
301,293,306,305,0
304,302,306,307,0
306,309,307,308,0
307,310,306,308,0
308,309,305,308,0
308,308,304,306,0
309,310,303,304,0
308,313,303,302,0
306,318,302,300,0
306,323,302,299,0
307,328,303,299,0
308,332,303,298,0
309,332,304,297,0
310,328,304,297,0
311,319,304,298,0
312,303,304,299,0
312,286,304,300,0
309,272,303,301,0
305,266,301,301,0
300,266,300,301,0
297,274,300,303,0
296,291,300,304,0
298,310,301,306,0
300,323,303,307,0
301,328,304,308,0
301,328,306,309,0
302,325,307,308,0
303,324,307,308,0
303,321,308,308,0
304,318,308,308,0
304,312,307,307,0
305,304,307,306,0
304,298,307,305,0
304,294,307,305,0
302,295,306,304,0
303,301,305,304,0
303,307,304,306,0
305,310,303,306,0
306,309,302,306,0
307,307,302,307,0
308,305,304,308,0
308,306,306,307,0
309,308,307,306,0
308,310,307,303,0
308,309,306,299,0
306,308,306,297,0
306,309,305,296,0
305,312,305,296,0
306,315,305,297,0
306,316,305,299,0
307,315,305,301,0
308,313,305,303,0
309,314,306,305,0
310,317,306,305,0
310,319,305,306,0
311,318,305,306,0
311,315,304,306,0
311,310,304,306,0
310,304,304,306,0
309,299,304,307,0
308,298,304,307,0
309,300,304,308,0
309,303,304,307,0
309,300,303,307,0
307,291,302,306,0
305,285,302,305,0
304,284,302,304,0
305,287,302,304,0
307,293,303,304,0
309,300,303,305,0
311,307,303,306,0
312,312,303,305,0
311,315,302,304,0
310,315,301,302,0
308,315,300,300,0
307,315,299,298,0
308,317,299,296,0
309,320,298,295,0
311,321,299,294,0
312,321,299,293,0
313,322,299,292,0
314,324,300,292,0
314,325,300,293,0
314,327,300,294,0
314,329,300,296,0
315,329,301,298,0
315,326,301,300,0
315,322,302,302,0
315,318,302,304,0
314,312,303,305,0
313,304,303,305,0
312,296,303,305,0
313,292,304,306,0
316,291,305,308,0
318,290,305,309,0
319,289,305,309,0
317,286,304,309,0
315,284,305,309,0
312,281,305,308,0
310,281,305,306,0
308,284,305,305,0
307,291,306,304,0
306,298,306,303,0
306,305,306,302,0
306,311,306,302,0
307,315,306,303,0
307,314,306,305,0
307,312,305,306,0
307,308,305,308,0
308,305,305,309,0
308,307,305,309,0
308,312,304,309,0
308,319,304,309,0
308,323,304,308,0
308,322,304,308,0
307,314,305,307,0
306,305,306,307,0
305,300,308,308,0
304,300,310,309,0
303,301,310,311,0
301,304,311,312,0
301,306,312,312,0
301,305,312,312,0
304,305,312,312,0
307,305,311,311,0
310,308,311,311,0
310,308,309,310,0
308,305,308,310,0
306,302,307,308,0
304,303,307,307,0
303,307,307,306,0
303,313,308,305,0
305,320,309,305,0
306,324,309,305,0
308,324,309,304,0
309,322,308,305,0
309,320,308,306,0
310,317,308,308,0
309,315,307,310,0
308,312,307,311,0
307,310,307,312,0
308,309,307,313,0
309,312,308,313,0
310,316,308,313,0
309,320,308,312,0
309,323,308,311,0
308,324,306,311,0
307,320,305,310,0
306,313,304,311,0
306,306,304,311,0
305,300,304,311,0
305,297,304,310,0
306,295,304,309,0
307,295,305,308,0
307,296,304,306,0
305,296,304,305,0
303,299,303,304,0
302,305,303,303,0
301,315,304,302,0
303,323,304,302,0
304,329,306,303,0
307,333,307,303,0
309,332,307,303,0
311,328,306,303,0
312,322,305,303,0
311,315,304,304,0
310,310,304,305,0
307,309,305,306,0
305,310,305,306,0
304,310,304,306,0
303,310,305,306,0
305,309,305,308,0
306,308,306,309,0
308,306,307,311,0
308,302,307,311,0
308,298,307,312,0
308,296,308,312,0
307,293,308,313,0
307,288,309,313,0
307,283,309,313,0
307,281,309,313,0
307,282,308,312,0
305,287,307,311,0
305,301,306,310,0
307,317,306,311,0
310,329,307,310,0
312,335,308,310,0
314,335,308,309,0
314,333,308,308,0
311,330,308,307,0
307,324,308,305,0
302,319,309,305,0
299,314,309,306,0
297,310,310,307,0
297,309,311,308,0
298,309,312,309,0
301,312,311,309,0
304,317,312,310,0
307,321,312,310,0
308,323,312,310,0
309,323,311,310,0
311,322,311,310,0
312,318,309,311,0
311,312,307,313,0
308,304,306,313,0
304,297,305,312,0
300,293,303,311,0
297,292,302,308,0
298,295,302,308,0
301,298,302,308,0
304,303,303,309,0
307,307,304,309,0
310,307,304,309,0
310,305,304,309,0
311,304,304,309,0
311,306,305,310,0
311,308,306,310,0
312,308,307,310,0
312,307,307,310,0
314,309,307,311,0
317,313,308,311,0
318,314,308,312,0
316,313,307,311,0
314,312,306,310,0
312,312,305,309,0
311,312,304,309,0
310,310,304,308,0
309,306,303,308,0
309,301,303,308,0
308,297,303,308,0
308,296,302,308,0
307,294,302,308,0
305,287,302,308,0
304,277,302,309,0
303,270,302,311,0
304,267,303,312,0
305,268,305,313,0
306,274,305,313,0
306,285,304,313,0
305,300,303,312,0
304,313,303,311,0
303,320,303,311,0
302,321,305,312,0
303,317,307,313,0
303,308,307,313,0
304,302,307,311,0
303,303,306,308,0
302,309,304,306,0
303,318,303,306,0
303,329,303,307,0
304,337,304,309,0
306,343,305,311,0
309,343,306,313,0
310,338,306,315,0
312,332,307,317,0
311,326,308,318,0
308,321,307,319,0
306,318,307,321,0
306,315,307,322,0
304,310,308,323,0
303,305,307,322,0
300,300,307,321,0
297,295,306,319,0
295,291,305,316,0
295,293,304,312,0
297,301,304,309,0
300,312,304,306,0
304,323,304,306,0
306,331,305,307,0
309,336,307,308,0
309,339,308,309,0
310,341,308,310,0
309,343,309,310,0
310,340,309,310,0
311,334,309,310,0
311,326,309,310,0
311,319,309,310,0
311,316,310,310,0
312,312,311,311,0
312,308,311,312,0
312,302,311,313,0
312,297,310,314,0
312,296,309,315,0
315,298,309,317,0
317,300,309,318,0
318,301,309,318,0
316,303,309,317,0
312,308,309,317,0
308,313,309,316,0
305,317,309,315,0
303,318,309,314,0
302,319,309,312,0
302,320,309,310,0
303,322,310,310,0
303,321,311,310,0
302,319,312,311,0
300,316,313,311,0
298,313,314,312,0
298,309,314,312,0
298,303,314,312,0
298,296,313,312,0
298,290,312,311,0
298,284,311,312,0
297,279,311,312,0
296,272,310,311,0
294,270,309,310,0
295,273,309,310,0
298,282,310,310,0
302,290,310,309,0
303,295,310,309,0
304,300,310,310,0
303,305,311,311,0
303,312,312,312,0
303,319,311,311,0
304,324,311,311,0
305,327,310,310,0
306,328,310,309,0
306,329,309,309,0
306,328,309,309,0
305,324,308,309,0
305,316,307,308,0
303,304,306,306,0
300,293,305,303,0
297,285,304,300,0
295,285,303,300,0
296,294,303,302,0
298,307,304,305,0
299,316,306,308,0
301,321,307,311,0
303,324,309,314,0
304,325,310,315,0
305,324,311,316,0
305,323,311,316,0
307,326,312,316,0
308,331,312,316,0
309,335,312,316,0
309,337,312,316,0
309,338,312,317,0
309,335,311,318,0
307,326,310,317,0
305,314,309,317,0
304,303,308,316,0
304,295,308,315,0
305,289,307,314,0
307,284,308,314,0
308,285,309,314,0
309,292,308,314,0
311,305,308,313,0
312,319,306,311,0
314,329,304,309,0
313,332,304,307,0
311,332,303,306,0
309,328,303,306,0
307,324,304,305,0
305,318,305,304,0
304,310,307,304,0
303,305,307,305,0
303,305,308,307,0
304,307,309,310,0
304,311,309,313,0
305,315,310,316,0
306,317,310,318,0
306,315,309,319,0
304,310,308,318,0
304,305,307,316,0
303,302,306,315,0
304,298,306,314,0
304,296,305,314,0
304,294,305,314,0
305,290,306,313,0
304,284,306,310,0
303,280,305,308,0
301,279,304,306,0
300,285,303,306,0
301,295,303,306,0
301,305,304,306,0
301,312,304,306,0
300,316,304,307,0
300,319,305,307,0
300,321,305,309,0
302,324,306,312,0
303,327,306,316,0
305,329,306,318,0
305,325,306,320,0
305,318,306,320,0
305,309,307,320,0
305,300,307,319,0
305,294,306,316,0
304,290,305,314,0
306,289,304,314,0
308,291,303,314,0
309,295,303,313,0
308,299,302,311,0
304,300,300,308,0
299,299,298,305,0
295,303,297,303,0
294,307,298,303,0
295,309,300,304,0
297,308,302,306,0
299,308,303,308,0
301,313,303,310,0
302,318,304,312,0
303,322,304,312,0
303,321,303,310,0
302,317,303,308,0
301,315,302,307,0
301,314,301,308,0
301,316,301,308,0
302,320,301,310,0
302,325,300,311,0
303,329,300,313,0
304,330,301,314,0
305,328,301,314,0
306,325,300,314,0
305,321,301,314,0
305,316,301,315,0
306,312,303,315,0
306,310,305,315,0
307,309,306,315,0
307,309,308,314,0
306,306,308,312,0
306,303,309,310,0
305,301,308,308,0
305,299,308,308,0
305,298,308,307,0
305,297,308,308,0
305,297,307,308,0
304,300,307,308,0
304,304,306,308,0
303,306,306,307,0
302,306,306,307,0
303,305,306,307,0
303,301,307,307,0
303,296,307,307,0
303,290,308,307,0
303,284,308,307,0
303,280,309,306,0
302,279,309,306,0
302,280,308,306,0
301,284,308,306,0
300,293,307,305,0
299,307,306,305,0
298,323,305,305,0
299,332,304,305,0
301,336,304,306,0
305,336,304,308,0
309,332,305,309,0
312,328,306,310,0
313,322,307,310,0
311,317,307,309,0
308,314,307,308,0
305,314,307,307,0
303,317,306,307,0
303,319,305,307,0
303,319,304,306,0
304,316,303,304,0
305,311,302,303,0
306,309,303,302,0
307,309,303,301,0
307,312,303,300,0
306,313,304,300,0
303,310,304,299,0
300,305,303,299,0
298,299,303,301,0
299,297,303,304,0
301,294,303,306,0
302,289,303,308,0
303,286,304,309,0
304,288,305,310,0
305,294,306,310,0
306,302,307,310,0
307,308,308,310,0
307,312,309,309,0
307,313,309,309,0
308,311,309,310,0
310,308,309,311,0
311,304,308,311,0
313,302,307,311,0
315,300,306,310,0
315,300,305,308,0
315,301,303,306,0
314,300,303,305,0
311,297,302,304,0
307,295,302,303,0
305,296,302,303,0
305,301,304,304,0
306,305,306,305,0
306,305,307,305,0
304,306,307,305,0
303,310,307,304,0
302,317,306,303,0
301,324,305,302,0
302,331,305,302,0
303,335,305,302,0
305,335,305,303,0
306,330,306,304,0
308,323,306,304,0
309,318,307,305,0
310,317,306,306,0
311,316,306,306,0
311,317,306,306,0
312,317,306,306,0
312,317,307,305,0
313,315,308,304,0
313,312,307,302,0
312,307,307,299,0
310,302,306,297,0
308,296,306,295,0
306,292,306,295,0
305,291,306,297,0
305,294,307,298,0
305,300,307,300,0
305,305,307,302,0
305,305,307,303,0
305,301,308,304,0
305,297,309,307,0
305,295,310,309,0
305,296,310,312,0
305,300,311,314,0
304,305,311,315,0
304,307,311,315,0
305,306,310,315,0
307,304,309,314,0
310,300,309,313,0
312,296,309,313,0
313,291,308,312,0
312,288,308,310,0
310,290,308,309,0
310,295,309,309,0
309,302,309,309,0
307,307,309,309,0
305,311,308,308,0
304,317,308,308,0
304,324,307,307,0
304,329,305,306,0
305,330,304,306,0
306,327,305,306,0
306,322,306,306,0
307,316,307,307,0
309,312,309,309,0
310,307,310,311,0
311,301,310,312,0
311,294,309,312,0
310,287,309,311,0
308,283,308,310,0
308,282,308,310,0
309,285,308,310,0
310,288,309,311,0
312,290,309,312,0
314,294,310,313,0
314,300,310,313,0
315,308,311,312,0
315,316,311,313,0
314,320,311,313,0
314,319,311,312,0
312,311,310,311,0
310,301,308,308,0
308,291,307,305,0
306,285,305,304,0
306,282,304,304,0
307,280,304,305,0
306,277,305,306,0
305,276,304,307,0
303,280,304,308,0
302,287,304,308,0
302,297,304,308,0
303,308,303,308,0
305,317,303,308,0
307,324,305,310,0
310,327,306,311,0
313,328,307,313,0
315,326,307,313,0
316,323,306,313,0
314,320,305,312,0
313,318,305,310,0
313,318,304,309,0
311,317,304,308,0
307,315,304,308,0
304,313,304,308,0
303,305,305,308,0
303,295,305,308,0
302,289,306,308,0
304,294,306,308,0
305,308,307,308,0
306,323,307,308,0
307,334,307,308,0
306,341,307,307,0
305,343,307,308,0
305,341,306,308,0
305,338,307,309,0
304,335,307,310,0
305,331,307,311,0
306,326,308,311,0
306,321,307,312,0
306,315,306,313,0
305,309,304,313,0
305,303,303,312,0
304,301,301,310,0
305,301,299,308,0
305,304,299,305,0
306,308,298,304,0
308,317,298,304,0
310,329,299,304,0
313,340,300,305,0
316,347,301,306,0
316,345,301,306,0
313,334,299,306,0
309,320,298,305,0
306,305,299,303,0
303,292,300,302,0
301,281,301,301,0
300,275,303,303,0
300,272,304,305,0
302,272,305,307,0
305,275,305,309,0
307,280,305,308,0
307,284,303,307,0
306,289,303,306,0
305,293,302,305,0
304,295,301,305,0
305,297,301,304,0
305,301,301,303,0
306,307,302,302,0
307,316,303,302,0
308,323,304,302,0
309,326,306,303,0
309,325,307,304,0
309,321,308,305,0
308,314,308,306,0
306,306,308,306,0
305,300,308,307,0
304,295,306,308,0
304,294,306,308,0
305,299,305,307,0
304,306,303,306,0
305,314,302,305,0
306,319,302,304,0
307,323,302,304,0
306,323,302,302,0
305,322,302,302,0
304,322,302,303,0
303,322,303,305,0
302,321,305,308,0
301,318,306,310,0
302,316,307,311,0
302,314,306,312,0
301,311,306,312,0
300,308,305,311,0
299,308,305,311,0
300,310,306,311,0
302,314,306,312,0
304,318,307,311,0
307,322,308,311,0
308,326,309,310,0
308,326,310,309,0
308,324,311,308,0
308,320,311,308,0
307,316,311,308,0
305,312,311,307,0
304,310,311,307,0
304,310,311,307,0
305,309,311,307,0
304,307,310,305,0
304,305,308,304,0
304,306,307,302,0
303,311,306,302,0
304,319,305,302,0
304,324,305,303,0
305,326,306,304,0
306,323,306,306,0
307,321,307,308,0
307,320,307,309,0
307,318,308,310,0
305,316,308,311,0
303,310,308,312,0
302,301,309,313,0
302,293,310,315,0
304,289,312,316,0
306,287,313,317,0
308,284,312,316,0
309,280,311,315,0
310,278,309,314,0
310,276,308,311,0
308,279,306,309,0
306,286,304,307,0
303,293,303,306,0
300,299,303,306,0
298,304,304,306,0
298,305,305,306,0
297,302,306,307,0
296,295,307,309,0
295,290,308,311,0
295,286,309,313,0
296,285,308,314,0
297,287,308,313,0
298,294,307,312,0
299,306,306,311,0
302,320,306,311,0
304,332,307,310,0
306,338,308,309,0
307,339,308,307,0
306,339,308,304,0
306,339,307,303,0
305,338,306,301,0
305,336,306,301,0
306,333,307,301,0
306,332,308,301,0
306,331,308,302,0
306,328,308,304,0
306,320,308,306,0
306,310,307,307,0
305,301,307,307,0
305,293,306,308,0
304,287,305,308,0
303,284,305,307,0
302,285,305,307,0
302,287,306,307,0
302,291,306,306,0
302,295,306,306,0
304,302,306,306,0
306,310,306,306,0
308,318,305,305,0
309,324,305,305,0
310,325,305,306,0
312,323,306,307,0
313,321,307,308,0
312,319,307,308,0
311,318,308,308,0
311,317,308,307,0
310,315,308,306,0
311,312,308,305,0
311,311,308,304,0
311,312,308,302,0
310,312,308,301,0
309,313,308,301,0
309,316,308,302,0
309,320,308,303,0
310,323,309,305,0
311,322,310,308,0
312,319,311,310,0
313,313,311,312,0
314,307,311,312,0
313,301,310,312,0
311,296,308,310,0
307,293,306,307,0
304,292,306,306,0
302,292,305,304,0
301,292,304,302,0
301,292,304,302,0
302,290,304,303,0
303,288,305,303,0
303,287,305,303,0
303,289,305,303,0
302,294,305,303,0
301,301,306,304,0
301,308,307,304,0
303,312,309,304,0
305,314,311,305,0
306,314,313,305,0
306,314,313,305,0
306,313,312,304,0
305,312,310,303,0
305,311,310,302,0
306,309,309,301,0
306,306,307,300,0
306,306,305,300,0
305,305,304,299,0
303,304,303,298,0
303,303,302,298,0
303,301,301,298,0
304,298,301,299,0
304,293,301,301,0
303,288,301,303,0
299,283,300,303,0
295,281,298,302,0
292,286,298,303,0
294,297,299,305,0
299,307,301,306,0
304,313,304,307,0
307,314,306,306,0
309,313,307,306,0
309,311,308,306,0
308,308,308,306,0
308,306,308,307,0
307,304,307,308,0
305,305,306,309,0
304,309,305,309,0
304,316,304,310,0
305,325,305,310,0
306,334,306,311,0
308,339,306,312,0
309,341,306,313,0
310,339,306,314,0
309,334,305,315,0
308,329,305,314,0
307,326,304,314,0
306,325,304,314,0
306,323,304,313,0
305,319,304,312,0
304,318,304,310,0
303,316,303,309,0
302,314,302,307,0
302,312,302,305,0
303,308,302,305,0
305,304,302,305,0
306,303,303,307,0
308,304,304,309,0
308,307,305,309,0
307,311,304,309,0
307,314,304,309,0
306,317,304,308,0
306,317,303,307,0
306,315,303,306,0
308,311,304,306,0
310,308,304,306,0
312,307,303,306,0
313,307,303,306,0
313,306,301,306,0
312,301,301,305,0
311,296,300,306,0
310,293,301,306,0
310,293,302,307,0
311,295,302,309,0
312,294,304,309,0
312,288,304,310,0
311,280,304,311,0
311,271,304,312,0
310,266,304,311,0
308,263,303,311,0
306,266,302,310,0
306,273,302,310,0
307,284,302,309,0
308,295,302,309,0
309,304,302,308,0
310,313,303,307,0
311,321,304,306,0
312,329,304,306,0
313,333,304,307,0
313,335,304,307,0
312,333,304,308,0
311,330,304,308,0
310,327,304,308,0
308,324,303,308,0
307,324,302,308,0
307,324,301,307,0
307,325,301,307,0
307,326,301,306,0
309,327,302,306,0
311,327,304,306,0
313,326,305,307,0
314,320,306,307,0
314,315,306,306,0
312,312,307,306,0
312,309,307,306,0
310,305,307,304,0
309,300,307,304,0
307,296,305,303,0
305,293,304,302,0
304,293,303,303,0
304,296,303,304,0
304,301,303,306,0
303,304,302,308,0
303,304,302,309,0
303,303,302,310,0
303,305,302,309,0
304,309,302,308,0
305,313,302,308,0
306,315,302,307,0
307,316,301,306,0
307,317,302,305,0
306,319,302,306,0
305,318,301,307,0
303,316,302,309,0
301,313,302,310,0
301,311,303,311,0
304,310,304,310,0
308,312,305,310,0
312,314,305,309,0
314,313,305,309,0
314,311,305,308,0
314,309,304,308,0
313,307,304,307,0
312,306,303,307,0
309,306,303,306,0
305,308,303,306,0
303,309,304,305,0
301,309,304,305,0
300,308,304,305,0
300,304,304,305,0
300,297,304,306,0
300,287,306,305,0
301,274,306,305,0
301,264,308,305,0
302,258,309,306,0
302,257,309,306,0
302,260,309,306,0
301,270,309,306,0
303,284,308,306,0
304,295,308,306,0
306,306,308,307,0
309,316,309,308,0
312,325,309,310,0
312,332,309,310,0
311,336,309,310,0
309,339,308,309,0
308,336,308,307,0
305,327,307,306,0
303,318,307,305,0
303,310,308,305,0
305,306,308,306,0
307,304,308,305,0
309,303,308,304,0
310,304,307,302,0
311,308,307,300,0
311,315,306,298,0
311,323,306,298,0
311,329,306,298,0
311,332,306,300,0
311,332,307,302,0
311,331,308,303,0
312,332,309,305,0
312,335,309,306,0
312,336,309,304,0
311,336,307,302,0
308,332,306,300,0
306,325,304,298,0
304,318,302,297,0
304,312,301,297,0
304,310,301,299,0
305,308,301,302,0
306,307,302,305,0
306,304,304,307,0
306,301,305,309,0
304,298,306,311,0
305,297,306,312,0
306,300,307,313,0
308,306,306,314,0
311,311,305,314,0
312,314,304,312,0
312,314,303,311,0
310,312,302,310,0
308,311,301,309,0
306,312,300,310,0
305,314,301,310,0
305,317,301,310,0
306,319,302,309,0
306,319,302,308,0
307,317,303,307,0
308,313,304,307,0
309,306,304,308,0
308,297,305,309,0
308,287,305,311,0
307,281,305,311,0
306,279,305,309,0
305,284,305,306,0
305,294,305,304,0
306,306,304,302,0
308,318,304,300,0
309,326,304,299,0
309,327,304,300,0
308,325,304,302,0
308,319,305,303,0
307,314,305,305,0
307,310,305,307,0
305,308,305,308,0
305,307,305,310,0
306,308,304,310,0
307,311,304,310,0
309,313,304,310,0
310,310,304,308,0
309,303,304,307,0
310,300,303,306,0
310,300,305,306,0
311,298,306,307,0
312,296,306,309,0
312,292,307,310,0
311,288,306,310,0
310,286,305,309,0
309,287,304,306,0
308,291,303,304,0
309,300,302,303,0
311,310,302,303,0
311,320,301,303,0
309,327,301,302,0
305,332,301,302,0
300,334,302,301,0
296,332,302,301,0
293,328,302,302,0
293,323,301,301,0
294,320,301,301,0
298,319,301,301,0
301,318,301,300,0
303,317,300,300,0
303,314,300,301,0
303,311,301,303,0
302,307,302,306,0
303,303,303,308,0
303,299,304,310,0
303,295,306,312,0
305,296,307,313,0
306,299,308,314,0
307,303,309,314,0
308,306,310,315,0
308,308,309,314,0
307,308,309,313,0
306,308,308,312,0
306,309,308,311,0
306,310,309,311,0
307,310,309,310,0
307,308,309,309,0
307,303,309,308,0
306,295,308,307,0
304,285,307,305,0
302,278,306,303,0
300,277,306,301,0
298,284,307,300,0
298,297,308,301,0
300,309,309,302,0
301,318,310,304,0
303,322,311,304,0
305,320,311,305,0
307,316,311,306,0
309,313,311,308,0
309,310,310,310,0
309,309,310,311,0
309,310,309,313,0
309,313,308,312,0
309,317,307,312,0
308,320,307,310,0
305,318,306,307,0
302,314,306,305,0
299,310,305,303,0
295,304,303,302,0
292,299,302,300,0
291,298,300,299,0
294,303,301,301,0
300,315,303,302,0
306,329,305,304,0
311,339,307,306,0
314,341,308,306,0
313,336,308,305,0
312,329,307,305,0
310,322,306,306,0
308,318,305,306,0
306,316,303,305,0
305,314,302,305,0
304,310,302,304,0
304,304,302,304,0
305,300,303,303,0
306,296,303,302,0
306,290,303,301,0
305,289,303,299,0
305,292,303,299,0
305,299,303,300,0
306,306,303,300,0
305,311,302,302,0
305,314,303,302,0
304,316,303,303,0
304,319,303,304,0
304,321,304,305,0
305,321,304,305,0
306,320,304,306,0
306,320,304,307,0
307,320,304,308,0
307,321,304,308,0
307,321,304,306,0
307,320,303,306,0
306,317,302,305,0
305,312,300,303,0
304,306,300,301,0
304,301,300,300,0
304,297,301,300,0
304,297,301,300,0
304,302,301,301,0
305,304,302,301,0
304,302,302,301,0
302,299,302,302,0
300,298,302,303,0
299,299,302,303,0
301,302,303,304,0
305,307,304,305,0
309,311,304,306,0
311,311,304,306,0
309,308,305,305,0
305,302,305,305,0
302,294,305,306,0
300,286,306,306,0
298,282,305,306,0
298,284,305,305,0
298,292,305,304,0
298,303,304,302,0
299,311,304,301,0
300,315,303,301,0
302,317,303,302,0
303,320,304,304,0
305,323,306,308,0
305,325,308,310,0
304,326,309,311,0
303,322,308,311,0
301,315,308,311,0
300,307,309,311,0
298,296,309,312,0
296,282,308,311,0
294,270,308,309,0
293,269,308,308,0
294,277,308,308,0
296,287,309,309,0
299,300,310,310,0
303,312,311,313,0
306,322,311,314,0
307,328,311,314,0
307,330,309,314,0
305,330,308,314,0
304,332,307,313,0
303,335,307,313,0
302,336,306,312,0
301,335,307,310,0
301,332,307,309,0
302,328,307,308,0
303,322,306,307,0
304,313,306,307,0
303,307,305,306,0
303,303,304,306,0
303,302,304,307,0
303,302,304,307,0
302,303,304,307,0
300,308,304,307,0
299,315,304,307,0
299,321,303,306,0
300,321,303,305,0
300,314,304,305,0
299,302,303,305,0
299,288,303,306,0
299,279,304,306,0
299,278,304,307,0
301,285,305,307,0
302,292,305,308,0
303,297,306,310,0
304,299,306,311,0
305,302,306,312,0
306,307,306,312,0
308,312,305,313,0
310,315,305,313,0
310,314,304,313,0
307,310,304,311,0
303,304,304,311,0
300,297,303,309,0
298,288,303,308,0
298,283,302,306,0
300,282,303,305,0
301,287,304,304,0
303,295,305,304,0
303,303,306,304,0
304,309,307,305,0
305,310,307,306,0
305,312,308,307,0
305,316,308,308,0
306,320,309,310,0
305,324,309,311,0
304,324,310,311,0
302,324,310,311,0
301,326,310,311,0
300,329,309,310,0
300,331,309,309,0
300,331,308,308,0
300,325,308,307,0
301,318,307,306,0
302,314,306,306,0
303,313,306,306,0
305,311,306,307,0
306,309,306,307,0
308,305,305,307,0
309,304,304,306,0
310,303,302,305,0
313,303,301,302,0
315,302,301,301,0
316,304,302,301,0
317,305,302,301,0
315,306,303,302,0
312,307,304,303,0
309,308,304,305,0
306,309,305,306,0
304,309,304,307,0
302,311,304,309,0
301,315,303,310,0
300,317,303,310,0
300,317,304,310,0
300,316,306,311,0
300,313,307,310,0
299,308,308,310,0
298,304,309,310,0
298,300,310,311,0
299,297,311,311,0
299,293,311,310,0
300,291,312,309,0
301,293,311,307,0
301,299,311,306,0
302,303,309,306,0
303,307,308,306,0
303,309,307,306,0
303,311,307,306,0
304,314,307,307,0
305,315,307,308,0
304,313,306,308,0
303,307,306,307,0
302,302,305,307,0
301,297,305,306,0
300,295,306,305,0
301,297,306,306,0
301,304,307,306,0
303,313,308,305,0
304,321,307,305,0
305,326,307,304,0
307,330,307,305,0
308,332,307,306,0
310,333,308,306,0
310,329,309,307,0
308,322,309,307,0
305,313,309,307,0
303,305,310,308,0
302,300,310,309,0
301,298,310,310,0
301,301,310,311,0
301,306,310,312,0
301,310,310,313,0
300,309,310,312,0
299,302,309,312,0
298,290,309,310,0
297,275,309,309,0
295,267,309,307,0
295,267,310,307,0
298,273,311,306,0
302,280,311,305,0
306,287,311,304,0
308,292,310,303,0
309,294,309,302,0
309,295,309,301,0
310,294,310,302,0
311,291,310,303,0
311,289,312,306,0
312,290,313,307,0
312,293,313,310,0
311,298,313,311,0
310,306,313,312,0
309,316,313,312,0
308,323,313,313,0
307,326,313,314,0
307,325,314,314,0
307,323,314,314,0
308,322,313,315,0
309,321,312,315,0
310,318,312,315,0
311,313,312,314,0
313,305,312,313,0
313,298,311,313,0
311,290,310,311,0
308,288,309,309,0
305,292,307,308,0
303,301,306,309,0
302,310,307,311,0
302,320,308,312,0
302,328,307,312,0
302,333,306,310,0
302,337,305,309,0
303,337,304,309,0
303,336,303,308,0
305,333,303,308,0
307,327,304,308,0
309,320,305,309,0
310,313,306,310,0
311,306,308,310,0
311,303,308,311,0
309,306,309,310,0
308,313,309,311,0
306,319,309,312,0
306,324,309,311,0
308,324,308,311,0
309,322,308,311,0
310,321,308,310,0
309,321,308,309,0
307,320,308,306,0
304,319,308,304,0
303,313,308,301,0
302,305,307,299,0
301,297,307,299,0
301,292,307,300,0
301,289,307,301,0
300,285,308,303,0
301,283,309,303,0
302,283,309,303,0
302,288,308,304,0
302,295,307,305,0
303,303,307,307,0
304,313,307,308,0
305,319,307,308,0
303,319,306,305,0
301,315,305,302,0
299,309,305,300,0
298,304,306,297,0
299,303,306,296,0
301,302,307,295,0
303,301,308,296,0
304,303,310,298,0
305,307,311,300,0
306,312,311,301,0
307,315,310,303,0
308,318,310,303,0
309,320,309,303,0
310,320,310,304,0
310,321,309,305,0
310,321,309,306,0
309,319,308,307,0
308,315,309,308,0
306,309,310,310,0
304,305,312,311,0
304,303,313,313,0
304,302,314,314,0
306,302,314,315,0
305,300,313,313,0
302,299,312,311,0
301,296,311,310,0
300,294,311,309,0
301,292,310,309,0
302,291,309,308,0
302,290,308,306,0
301,292,307,305,0
300,297,306,304,0
299,298,305,303,0
298,295,306,302,0
298,288,307,302,0
299,281,307,302,0
300,275,308,303,0
300,275,307,303,0
300,280,307,305,0
301,291,308,307,0
303,305,309,309,0
305,319,310,311,0
306,331,310,311,0
307,337,310,311,0
308,339,311,310,0
308,337,311,310,0
308,334,311,309,0
309,331,310,308,0
309,328,310,307,0
309,326,310,305,0
308,323,310,304,0
307,318,309,302,0
306,311,309,300,0
305,303,309,299,0
305,298,308,298,0
305,295,307,298,0
306,293,307,298,0
307,294,307,299,0
308,297,308,301,0
309,300,309,304,0
309,303,309,306,0
309,305,309,307,0
308,306,309,307,0
307,306,309,307,0
306,305,308,305,0
305,306,307,304,0
305,310,306,305,0
306,313,307,305,0
308,316,307,305,0
308,317,307,305,0
307,317,306,304,0
305,317,306,303,0
304,316,305,303,0
302,314,305,303,0
301,313,304,303,0
300,313,304,303,0
300,313,306,303,0
300,312,307,304,0
300,310,308,307,0
301,308,309,309,0
303,305,310,312,0
304,298,311,313,0
305,288,312,314,0
305,279,312,314,0
305,275,313,312,0
306,274,313,311,0
307,277,313,309,0
307,286,312,308,0
307,298,311,306,0
307,307,311,306,0
306,313,310,305,0
304,317,308,304,0
302,318,305,303,0
302,319,303,304,0
303,320,302,306,0
304,320,302,308,0
305,318,301,308,0
306,315,301,307,0
306,312,301,306,0
305,306,302,305,0
306,301,302,304,0
307,296,303,304,0
309,294,303,303,0
311,294,304,304,0
313,297,306,305,0
315,300,307,306,0
315,305,307,306,0
313,310,306,306,0
310,311,304,306,0
307,312,303,306,0
304,313,303,306,0
302,314,303,306,0
302,315,304,306,0
302,314,305,306,0
301,312,306,305,0
301,311,306,304,0
300,309,306,303,0
299,310,305,301,0
299,310,304,300,0
299,310,304,298,0
302,309,305,298,0
305,312,305,298,0
307,315,305,299,0
308,317,305,301,0
309,317,306,303,0
308,315,307,306,0
307,313,308,308,0
306,313,309,309,0
306,318,309,310,0
308,324,309,311,0
309,328,308,311,0
309,329,307,310,0
310,325,306,310,0
310,317,306,309,0
310,310,306,308,0
309,306,305,307,0
308,303,304,305,0
305,298,304,304,0
303,295,304,303,0
303,293,305,304,0
304,292,306,305,0
307,291,307,306,0
310,289,308,308,0
312,284,308,309,0
311,276,308,310,0
310,269,308,309,0
309,268,308,310,0
310,275,309,312,0
311,283,309,313,0
311,290,309,313,0
310,294,309,314,0
309,298,309,313,0
308,301,308,313,0
307,306,309,312,0
307,310,309,312,0
308,314,310,311,0
308,319,311,310,0
309,325,312,309,0
310,328,312,308,0
311,327,312,307,0
311,323,312,306,0
311,319,311,305,0
310,314,311,305,0
309,310,310,305,0
307,309,309,305,0
306,308,308,304,0
306,309,307,305,0
305,310,306,306,0
306,311,307,309,0
308,310,308,311,0
308,304,310,312,0
307,297,309,312,0
306,290,310,311,0
304,287,309,310,0
302,287,308,308,0
302,290,307,307,0
303,297,306,307,0
305,303,305,308,0
307,307,304,308,0
308,313,304,308,0
309,318,304,308,0
308,319,304,307,0
307,318,304,305,0
307,318,303,303,0
308,318,304,301,0
310,317,303,299,0
311,316,303,298,0
311,314,303,299,0
311,312,304,301,0
311,309,305,303,0
312,306,306,305,0
312,305,306,307,0
313,305,307,308,0
312,306,307,308,0
311,310,307,309,0
309,315,307,310,0
308,319,307,311,0
306,319,306,312,0
305,315,306,313,0
304,308,307,313,0
302,297,308,313,0
301,288,309,312,0
299,286,309,313,0
298,289,309,313,0
297,296,309,312,0
297,304,309,312,0
297,309,308,312,0
299,313,308,312,0
303,316,308,314,0
308,316,308,316,0
313,311,308,317,0
316,301,307,316,0
314,290,306,315,0
306,282,304,312,0
297,281,303,308,0
291,287,303,306,0
291,297,305,305,0
293,308,306,305,0
297,318,307,305,0
300,326,307,304,0
302,332,306,304,0
303,336,305,306,0
304,337,304,309,0
305,333,305,311,0
306,327,306,312,0
308,319,307,313,0
310,314,308,313,0
310,313,307,314,0
309,316,307,314,0
308,322,307,314,0
307,327,307,313,0
307,330,307,313,0
308,330,306,313,0
308,327,307,312,0
309,321,307,311,0
308,314,307,311,0
309,307,308,311,0
308,301,308,310,0
308,296,306,309,0
308,293,305,308,0
308,294,305,307,0
309,297,304,306,0
308,300,304,306,0
307,301,304,305,0
305,297,304,304,0
303,291,303,304,0
302,283,304,304,0
302,281,304,303,0
302,286,304,303,0
303,297,304,304,0
304,308,303,304,0
304,316,303,304,0
304,321,303,304,0
303,326,303,304,0
303,329,304,305,0
304,332,305,306,0
306,332,307,307,0
309,330,308,309,0
311,327,310,310,0
312,325,310,311,0
312,322,309,311,0
311,320,308,311,0
308,317,308,310,0
307,315,308,311,0
305,312,309,311,0
305,310,309,312,0
305,308,309,313,0
305,306,308,313,0
304,303,307,313,0
303,302,306,313,0
303,302,305,314,0
303,300,304,314,0
303,297,303,313,0
304,292,303,312,0
303,287,303,312,0
303,284,303,311,0
303,285,303,312,0
303,288,302,312,0
303,292,302,310,0
304,300,302,309,0
305,309,302,308,0
305,316,302,306,0
305,318,301,305,0
304,315,300,303,0
304,312,299,302,0
303,308,299,301,0
304,305,299,301,0
304,302,299,301,0
305,299,300,302,0
305,298,302,304,0
306,300,302,306,0
306,300,302,308,0
305,298,303,310,0
303,296,302,311,0
301,295,303,312,0
300,296,304,314,0
301,298,305,315,0
302,301,305,316,0
303,303,306,316,0
305,302,306,315,0
306,296,307,313,0
306,287,308,311,0
304,277,308,308,0
303,273,307,306,0
303,277,306,306,0
304,288,305,307,0
305,301,303,306,0
305,313,301,304,0
304,322,299,301,0
303,328,297,299,0
302,332,297,298,0
303,333,298,298,0
302,332,299,298,0
302,328,301,299,0
302,323,302,302,0
303,320,303,304,0
306,318,303,307,0
310,314,304,308,0
313,309,303,309,0
315,305,302,309,0
313,300,300,308,0
310,295,301,308,0
306,293,302,309,0
305,297,304,309,0
306,304,305,309,0
307,311,306,309,0
307,314,306,309,0
306,315,306,309,0
305,314,307,309,0
304,315,307,310,0
305,316,307,310,0
305,318,306,310,0
304,320,305,309,0
304,322,304,309,0
303,324,304,308,0
303,327,304,308,0
304,328,304,309,0
305,326,304,309,0
305,320,303,309,0
305,313,303,309,0
305,308,303,310,0
306,307,304,311,0
306,308,304,312,0
306,311,305,313,0
306,314,307,314,0
306,317,307,315,0
306,317,309,315,0
307,317,309,315,0
307,318,308,314,0
308,317,307,313,0
308,314,306,312,0
307,311,305,311,0
306,307,305,311,0
306,305,306,311,0
307,305,306,311,0
307,305,307,310,0
307,305,307,309,0
307,305,306,308,0
306,305,306,307,0
306,305,306,306,0
305,306,306,306,0
305,308,306,306,0
304,310,305,307,0
304,312,305,306,0
304,310,304,306,0
304,305,304,305,0
305,300,303,304,0
307,297,302,304,0
309,296,302,303,0
310,295,301,302,0
311,296,300,300,0
311,297,299,299,0
311,298,299,299,0
311,298,299,299,0
309,297,299,298,0
308,294,299,299,0
307,289,300,300,0
305,282,301,301,0
303,275,301,302,0
300,269,301,302,0
298,267,301,303,0
297,272,301,303,0
298,281,302,303,0
300,287,302,304,0
301,287,303,305,0
302,286,303,306,0
303,289,303,307,0
303,295,302,308,0
304,303,302,308,0
305,310,302,308,0
307,311,302,307,0
308,305,303,305,0
308,297,302,304,0
308,293,303,304,0
309,298,304,304,0
310,309,305,305,0
310,318,306,305,0
308,324,307,305,0
307,326,307,306,0
307,326,308,307,0
308,327,310,309,0
308,328,312,310,0
309,329,312,311,0
309,329,312,311,0
309,326,312,311,0
308,325,311,311,0
307,327,311,310,0
307,329,311,309,0
307,329,310,308,0
306,328,309,307,0
305,325,308,305,0
304,321,307,305,0
304,316,306,306,0
303,307,306,305,0
302,299,306,305,0
303,297,306,305,0
304,300,306,304,0
303,305,306,303,0
300,312,306,302,0
298,319,305,300,0
296,322,305,300,0
296,324,305,302,0
298,324,305,304,0
300,322,305,307,0
302,320,305,309,0
304,316,307,311,0
305,309,308,313,0
305,298,309,313,0
304,286,309,314,0
301,276,308,313,0
299,273,307,311,0
297,276,306,310,0
297,285,306,308,0
298,298,306,308,0
300,310,307,308,0
303,319,308,308,0
305,323,309,308,0
307,322,309,307,0
307,317,309,305,0
308,315,310,304,0
310,317,310,303,0
311,318,310,302,0
311,319,310,301,0
310,318,309,302,0
309,315,309,302,0
308,310,308,303,0
306,304,307,305,0
307,299,308,308,0
309,297,310,310,0
312,296,312,312,0
314,292,313,313,0
314,285,313,313,0
312,282,311,311,0
307,283,309,310,0
303,290,309,309,0
301,302,308,309,0
301,311,309,310,0
301,316,310,310,0
302,318,311,310,0
303,319,311,311,0
304,320,311,311,0
305,321,310,310,0
305,323,310,310,0
305,323,309,309,0
304,321,308,308,0
304,315,307,306,0
305,314,306,306,0
307,317,306,305,0
310,321,306,305,0
313,320,306,307,0
315,315,306,309,0
314,308,306,311,0
311,302,305,313,0
308,297,305,314,0
304,292,304,315,0
300,292,303,317,0
298,294,303,318,0
297,295,303,319,0
297,298,303,319,0
298,304,304,318,0
300,311,305,318,0
301,316,305,318,0
302,318,305,316,0
302,317,305,315,0
304,318,306,313,0
306,321,306,311,0
308,325,306,309,0
309,326,306,307,0
309,323,305,305,0
308,317,304,303,0
307,306,304,302,0
305,294,303,301,0
304,283,303,301,0
304,278,304,302,0
304,278,305,303,0
304,281,305,305,0
304,286,306,306,0
303,291,306,307,0
302,299,306,308,0
303,310,306,309,0
304,321,306,309,0
305,328,306,309,0
306,332,305,308,0
308,332,304,307,0
308,326,303,306,0
308,315,302,305,0
307,306,302,305,0
307,300,303,304,0
307,300,303,304,0
306,305,303,304,0
306,312,303,302,0
306,318,303,301,0
306,322,304,300,0
307,325,304,300,0
307,329,305,301,0
307,332,305,300,0
307,335,304,299,0
306,334,303,298,0
306,330,302,298,0
307,323,302,298,0
309,314,303,301,0
311,309,305,304,0
313,306,306,307,0
313,304,306,311,0
312,305,305,314,0
311,307,305,315,0
310,309,305,316,0
311,309,306,316,0
312,310,307,316,0
313,310,308,316,0
315,311,308,316,0
316,311,308,315,0
315,308,308,312,0
313,301,307,310,0
310,293,306,308,0
306,288,305,307,0
304,290,304,307,0
304,296,304,306,0
305,304,305,306,0
307,309,306,307,0
308,313,307,307,0
309,315,307,307,0
310,315,309,307,0
310,316,310,308,0
310,318,311,309,0
309,317,311,309,0
307,314,310,309,0
305,307,309,309,0
303,299,309,309,0
301,290,309,309,0
299,283,309,309,0
298,280,310,308,0
299,282,310,308,0
301,288,310,308,0
304,294,310,308,0
307,300,310,308,0
309,306,309,307,0
309,311,307,306,0
308,313,305,304,0
307,313,303,304,0
305,311,302,303,0
303,309,302,302,0
302,307,303,302,0
303,305,304,302,0
303,305,304,302,0
303,308,305,303,0
303,308,305,304,0
303,304,306,305,0
303,303,306,304,0
306,308,308,305,0
309,316,309,305,0
313,322,310,306,0
317,322,310,306,0
318,317,310,306,0
316,311,309,306,0
313,306,308,305,0
309,304,307,304,0
307,304,306,303,0
307,305,306,303,0
307,304,306,304,0
308,298,306,304,0
308,292,306,303,0
307,286,306,302,0
305,285,306,301,0
305,288,305,301,0
305,297,305,301,0
307,306,305,302,0
309,315,305,302,0
311,320,305,302,0
312,322,303,301,0
311,319,302,301,0
310,315,299,300,0
308,312,298,300,0
306,310,297,300,0
305,311,297,299,0
305,312,298,299,0
305,313,300,299,0
305,314,301,299,0
306,310,302,301,0
306,304,303,302,0
306,299,303,303,0
306,296,304,306,0
306,297,306,309,0
306,302,307,312,0
307,307,308,312,0
308,311,308,310,0
308,312,307,307,0
309,310,305,303,0
309,309,304,301,0
312,310,303,300,0
314,311,303,301,0
314,312,303,302,0
312,312,302,303,0
308,311,301,303,0
304,310,301,303,0
303,308,302,303,0
303,303,304,304,0
302,297,305,305,0
301,291,306,306,0
300,290,307,308,0
300,293,308,309,0
300,297,309,309,0
300,300,308,309,0
300,304,308,309,0
301,308,307,308,0
301,310,307,308,0
303,309,307,308,0
304,307,307,308,0
304,302,306,307,0
302,296,304,305,0
300,293,303,304,0
300,296,303,304,0
300,304,303,305,0
302,314,303,306,0
303,320,304,306,0
302,318,305,306,0
301,314,306,305,0
301,312,305,303,0
301,311,305,303,0
300,311,306,302,0
299,309,306,302,0
298,306,307,302,0
298,306,307,304,0
298,308,308,307,0
298,307,310,311,0
298,303,310,314,0
298,298,311,316,0
298,295,310,317,0
299,291,308,317,0
301,290,308,317,0
302,292,307,316,0
302,296,306,313,0
302,301,306,311,0
303,304,307,309,0
304,305,308,307,0
304,304,309,305,0
305,304,309,304,0
305,305,309,302,0
305,307,308,300,0
305,310,306,298,0
305,312,305,298,0
306,313,306,298,0
307,314,306,299,0
308,313,308,302,0
309,310,309,305,0
311,304,311,307,0
311,294,311,309,0
310,284,312,309,0
309,277,311,309,0
306,274,311,309,0
304,278,310,309,0
302,289,311,310,0
302,301,311,311,0
303,308,311,311,0
303,309,311,310,0
303,306,310,309,0
303,305,311,308,0
305,310,311,308,0
306,316,310,307,0
308,319,310,307,0
309,319,309,307,0
309,319,310,308,0
309,320,309,307,0
308,322,310,307,0
308,325,311,308,0
309,326,311,309,0
311,325,311,311,0
314,320,312,311,0
318,313,312,312,0
321,308,313,312,0
325,304,314,312,0
326,300,313,312,0
326,298,312,311,0
323,299,311,311,0
319,301,310,310,0
316,302,309,309,0
312,301,309,308,0
308,295,307,306,0
304,289,307,305,0
302,287,307,304,0
301,291,308,305,0
302,300,309,306,0
303,308,309,306,0
305,316,309,306,0
307,322,309,307,0
308,325,308,307,0
309,326,307,307,0
310,326,306,306,0
310,324,306,305,0
310,320,306,305,0
311,315,306,306,0
312,310,306,306,0
313,308,306,307,0
313,308,306,307,0
312,311,305,308,0
310,313,304,309,0
310,315,305,310,0
310,317,306,312,0
310,319,307,313,0
310,320,307,314,0
309,321,307,314,0
309,320,306,314,0
309,320,306,314,0
309,319,306,314,0
309,319,306,313,0
309,317,307,312,0
308,316,307,311,0
308,316,308,310,0
309,313,308,310,0
309,309,308,309,0
308,303,308,309,0
307,295,308,308,0
306,288,307,307,0
306,283,306,307,0
306,277,305,306,0
306,275,306,306,0
307,279,306,307,0
307,287,306,307,0
308,296,306,307,0
309,299,307,309,0
312,297,308,310,0
313,291,309,311,0
311,284,310,311,0
309,284,310,310,0
307,290,310,310,0
305,298,309,309,0
304,302,307,308,0
304,306,307,308,0
304,311,307,308,0
305,317,307,309,0
305,323,307,309,0
304,327,306,308,0
304,330,305,306,0
302,335,304,304,0
302,338,303,301,0
302,337,303,298,0
303,333,302,296,0
305,328,303,296,0
308,323,304,298,0
311,315,306,302,0
313,306,308,305,0
312,300,309,309,0
310,298,309,312,0
309,301,310,315,0
308,303,309,316,0
307,307,309,316,0
309,311,308,315,0
310,315,307,314,0
311,318,305,313,0
311,317,304,311,0
310,315,303,310,0
308,312,303,310,0
307,306,304,310,0
306,299,304,308,0
306,293,305,307,0
306,288,305,305,0
308,286,305,305,0
310,287,305,304,0
311,286,305,303,0
310,286,304,303,0
307,288,304,303,0
304,293,303,304,0
301,302,303,305,0
300,311,303,307,0
301,319,303,309,0
302,319,304,312,0
302,312,304,314,0
302,302,304,315,0
302,296,304,316,0
304,293,304,317,0
306,292,305,319,0
308,293,305,318,0
309,292,305,317,0
307,292,305,315,0
305,297,304,313,0
305,305,304,313,0
306,313,305,313,0
308,318,307,313,0
309,322,307,314,0
311,324,306,315,0
312,325,305,315,0
312,324,305,315,0
311,321,304,314,0
308,320,303,312,0
305,321,302,310,0
304,327,302,309,0
303,335,302,307,0
303,338,302,307,0
302,332,301,307,0
302,318,301,307,0
302,304,301,307,0
302,293,301,306,0
303,289,301,306,0
304,289,300,306,0
305,294,300,306,0
306,300,300,306,0
306,303,301,307,0
306,304,302,307,0
307,305,303,309,0
306,307,303,309,0
305,310,303,308,0
304,314,302,309,0
304,320,302,309,0
304,327,302,310,0
304,331,303,310,0
304,335,304,311,0
304,337,303,312,0
304,336,303,311,0
305,334,303,311,0
305,332,303,311,0
305,330,303,311,0
306,326,303,310,0
306,322,302,308,0
305,317,302,306,0
304,313,301,305,0
304,309,301,304,0
303,305,302,304,0
302,300,304,305,0
301,295,305,307,0
302,289,306,309,0
304,285,307,310,0
307,283,308,312,0
311,283,309,313,0
314,286,309,314,0
315,290,309,314,0
315,295,308,314,0
314,299,306,313,0
312,302,304,312,0
308,303,302,310,0
305,303,300,308,0
304,303,300,307,0
305,302,300,306,0
306,299,300,305,0
307,296,301,305,0
308,295,302,306,0
310,299,303,306,0
313,304,304,309,0
314,307,305,310,0
314,308,305,312,0
314,306,305,313,0
312,301,305,314,0
310,292,304,314,0
307,285,302,312,0
305,283,301,310,0
306,286,302,310,0
308,294,303,309,0
311,302,304,310,0
315,311,304,310,0
319,319,304,310,0
323,326,304,310,0
326,330,304,310,0
327,334,304,310,0
326,340,304,309,0
323,345,304,309,0
317,347,303,308,0
311,343,303,308,0
305,336,302,306,0
300,331,301,305,0
298,328,301,306,0
299,326,301,306,0
301,324,302,307,0
304,323,302,308,0
307,321,302,308,0
309,319,303,307,0
309,317,302,307,0
307,311,301,305,0
304,305,300,303,0
302,300,300,302,0
301,298,301,303,0
301,298,302,304,0
302,299,303,306,0
304,299,303,307,0
306,298,303,309,0
307,300,303,310,0
309,301,304,311,0
310,303,304,311,0
310,305,304,311,0
309,306,304,311,0
308,305,304,310,0
308,303,305,311,0
309,299,305,312,0
308,293,306,313,0
308,286,307,313,0
307,282,309,313,0
306,284,310,314,0
306,288,309,314,0
306,292,309,313,0
307,296,307,312,0
307,300,307,311,0
307,305,306,310,0
307,308,305,310,0
306,307,305,309,0
307,305,305,308,0
307,303,305,308,0
308,301,305,307,0
308,299,304,306,0
306,298,303,304,0
303,297,302,301,0
301,297,301,299,0
299,300,301,298,0
299,304,301,299,0
300,308,302,300,0
301,311,303,301,0
302,313,304,302,0
303,312,305,304,0
303,305,306,305,0
302,292,306,306,0
301,277,307,305,0
299,267,306,305,0
297,264,305,304,0
296,269,303,303,0
296,282,302,302,0
298,298,302,302,0
299,312,302,302,0
301,320,302,302,0
304,324,303,302,0
307,323,305,302,0
310,320,306,303,0
311,316,306,304,0
311,313,307,306,0
312,312,308,310,0
313,313,309,312,0
312,317,309,313,0
311,319,309,314,0
309,320,308,315,0
308,319,307,315,0
309,318,305,314,0
310,319,305,313,0
310,321,304,312,0
309,324,304,311,0
308,324,303,309,0
307,323,302,307,0
306,320,301,306,0
306,316,300,305,0
305,311,299,304,0
304,306,299,304,0
304,302,299,304,0
305,299,300,304,0
305,295,300,304,0
305,291,301,305,0
305,291,301,306,0
305,294,301,305,0
305,302,301,304,0
306,308,301,302,0
307,313,301,301,0
308,313,300,300,0
309,309,299,299,0
310,307,298,300,0
310,310,299,302,0
310,315,300,304,0
309,319,302,306,0
307,321,303,307,0
304,322,304,307,0
303,322,305,306,0
303,320,305,305,0
305,317,305,304,0
308,310,306,304,0
311,299,307,303,0
313,286,307,302,0
312,276,307,302,0
310,273,307,302,0
306,277,308,302,0
304,285,310,302,0
304,297,311,303,0
305,309,312,303,0
307,320,312,304,0
308,328,313,304,0
309,332,313,305,0
310,334,313,306,0
309,331,313,306,0
308,324,314,307,0
307,314,313,306,0
305,306,313,306,0
303,301,312,305,0
302,300,311,303,0
302,301,310,302,0
304,301,309,302,0
306,299,310,303,0
309,301,312,305,0
312,307,313,307,0
314,312,314,309,0
315,314,314,310,0
315,316,315,310,0
315,316,315,310,0
316,315,315,310,0
317,314,316,311,0
318,314,315,310,0
317,315,314,309,0
316,319,313,307,0
313,324,311,307,0
309,329,309,306,0
305,334,308,306,0
302,336,307,307,0
300,336,307,307,0
301,335,308,306,0
301,330,308,305,0
301,324,309,304,0
301,316,310,304,0
301,311,310,304,0
300,307,310,306,0
301,306,311,306,0
301,304,311,307,0
301,302,311,308,0
302,300,311,308,0
302,297,311,308,0
302,293,312,308,0
302,288,312,307,0
303,287,312,306,0
303,288,311,305,0
302,284,310,303,0
299,279,310,303,0
298,277,310,304,0
298,280,310,306,0
300,284,311,307,0
302,289,312,308,0
302,298,312,309,0
302,308,312,310,0
302,315,312,311,0
301,317,311,311,0
302,317,311,310,0
304,316,310,310,0
306,314,310,310,0
308,311,310,311,0
308,307,310,313,0
307,303,309,313,0
304,298,307,313,0
302,292,306,313,0
302,287,305,311,0
302,287,305,310,0
304,292,305,308,0
306,302,306,307,0
307,312,307,307,0
308,320,307,307,0
309,326,308,306,0
310,331,308,305,0
313,336,308,306,0
314,338,308,306,0
316,336,307,305,0
314,333,307,303,0
311,331,306,303,0
309,330,306,302,0
309,330,306,304,0
310,329,307,305,0
311,328,307,306,0
310,326,308,307,0
308,325,308,307,0
304,324,308,308,0
302,323,308,307,0
300,320,308,306,0
299,315,308,305,0
299,312,307,305,0
299,310,307,306,0
300,311,306,307,0
301,313,307,309,0
302,314,307,310,0
304,312,307,311,0
304,306,307,311,0
303,300,306,311,0
302,294,305,310,0
301,289,305,307,0
299,286,305,305,0
298,286,305,303,0
299,286,305,303,0
300,286,306,304,0
301,286,307,306,0
302,285,307,307,0
303,284,306,308,0
302,282,305,309,0
302,278,304,309,0
302,274,302,308,0
302,271,301,306,0
303,271,300,305,0
303,273,300,303,0
304,275,299,303,0
305,278,301,304,0
307,282,303,306,0
310,286,306,307,0
312,287,307,308,0
312,288,306,307,0
310,291,305,305,0
308,300,304,303,0
306,315,304,303,0
306,329,304,303,0
306,337,304,303,0
306,341,304,303,0
306,341,303,303,0
306,338,303,303,0
305,337,302,303,0
306,335,301,303,0
307,333,302,303,0
307,329,303,303,0
307,324,303,303,0
307,319,304,304,0
308,315,304,304,0
308,311,304,305,0
309,307,305,306,0
310,300,307,308,0
311,289,308,308,0
312,275,309,308,0
312,259,308,307,0
311,248,308,305,0
309,245,307,304,0
307,249,307,304,0
307,260,307,306,0
308,276,309,308,0
311,295,311,311,0
313,314,311,312,0
315,329,311,313,0
314,337,310,312,0
310,336,308,311,0
305,333,306,310,0
303,329,306,310,0
302,326,306,310,0
303,323,307,310,0
304,321,308,310,0
305,319,308,310,0
306,316,308,309,0
308,312,307,308,0
308,308,306,306,0
307,306,306,306,0
307,306,306,306,0
307,308,306,306,0
307,311,307,307,0
309,313,307,309,0
311,316,308,309,0
312,319,307,310,0
313,322,306,310,0
313,325,304,310,0
311,325,303,309,0
307,320,302,308,0
305,313,303,307,0
304,307,304,305,0
304,301,305,304,0
304,294,306,303,0
304,287,305,301,0
303,283,305,300,0
304,283,304,301,0
305,287,304,301,0
307,292,304,303,0
307,293,305,304,0
308,291,305,306,0
308,287,306,307,0
306,283,306,308,0
306,284,306,309,0
305,291,306,308,0
306,299,306,308,0
306,306,306,307,0
307,312,305,305,0
307,318,305,304,0
308,325,305,304,0
309,330,304,304,0
311,334,304,304,0
312,334,304,304,0
313,334,305,305,0
314,332,305,305,0
314,332,306,305,0
314,333,306,306,0
314,332,307,306,0
313,330,306,307,0
311,323,306,306,0
308,312,305,305,0
306,298,306,304,0
304,289,306,305,0
304,286,307,306,0
304,288,307,306,0
305,291,308,307,0
306,294,308,308,0
308,295,308,308,0
308,296,309,310,0
309,299,310,311,0
308,302,311,312,0
309,305,312,313,0
308,309,312,314,0
307,311,311,314,0
304,308,310,312,0
301,298,309,309,0
299,285,308,306,0
298,273,308,305,0
299,265,308,305,0
300,262,308,306,0
303,262,309,308,0
305,267,309,310,0
306,277,309,311,0
307,290,309,312,0
307,305,307,313,0
305,317,306,313,0
304,325,305,312,0
305,329,304,311,0
306,329,304,311,0
308,328,305,311,0
310,323,306,309,0
311,315,307,307,0
311,308,306,306,0
310,308,305,306,0
311,314,305,306,0
313,319,305,308,0
314,322,306,309,0
313,324,306,310,0
312,325,306,310,0
310,326,306,310,0
309,326,306,311,0
309,324,306,312,0
308,321,307,313,0
308,318,308,314,0
308,314,308,314,0
307,309,308,314,0
306,304,307,314,0
306,300,306,313,0
306,297,306,312,0
306,293,305,311,0
305,291,305,309,0
305,291,304,308,0
305,293,303,307,0
304,295,302,305,0
304,296,301,304,0
304,300,300,304,0
305,306,300,304,0
306,311,299,304,0
309,311,299,304,0
313,309,299,304,0
316,309,298,303,0
320,313,298,304,0
320,317,298,306,0
317,320,297,308,0
311,320,296,309,0
306,320,296,311,0
302,318,297,313,0
300,317,299,314,0
299,312,301,315,0
299,307,302,317,0
299,301,302,317,0
299,296,302,317,0
298,292,302,316,0
299,290,301,314,0
299,288,300,311,0
300,286,300,308,0
301,284,300,305,0
301,282,300,302,0
302,283,301,299,0
302,289,302,298,0
303,297,303,297,0
304,302,304,297,0
304,303,305,298,0
303,305,306,301,0
303,308,308,304,0
302,312,309,306,0
302,316,309,308,0
303,318,309,309,0
305,317,308,309,0
306,314,307,307,0
305,312,306,305,0
304,311,305,304,0
304,314,305,303,0
303,317,304,303,0
302,318,304,303,0
302,319,304,303,0
302,322,303,302,0
303,326,303,302,0
304,332,303,302,0
305,335,304,303,0
307,335,305,303,0
307,332,306,304,0
307,330,307,305,0
308,327,307,306,0
309,323,308,307,0
309,315,308,308,0
309,305,307,309,0
307,293,306,309,0
306,285,305,310,0
306,279,304,309,0
306,279,304,309,0
307,284,304,308,0
308,290,303,307,0
308,292,302,307,0
306,291,301,305,0
304,291,300,305,0
303,296,300,304,0
302,301,300,304,0
303,307,300,305,0
304,311,300,304,0
305,314,301,304,0
305,318,302,304,0
306,320,303,304,0
307,321,304,305,0
308,320,305,306,0
310,318,306,309,0
311,316,308,311,0
312,312,309,312,0
312,310,308,312,0
311,308,309,311,0
310,308,309,310,0
309,308,308,309,0
307,305,306,308,0
304,298,305,305,0
302,293,304,304,0
301,289,304,302,0
301,290,305,302,0
301,292,306,302,0
301,294,307,303,0
302,299,308,305,0
303,305,309,307,0
304,310,311,309,0
305,314,311,310,0
306,316,311,311,0
306,318,311,310,0
307,319,310,309,0
307,318,309,307,0
307,314,308,305,0
307,309,308,303,0
307,304,307,303,0
307,298,307,303,0
308,293,307,303,0
309,286,307,304,0
311,277,307,305,0
310,267,306,305,0
305,259,305,304,0
299,259,303,305,0
294,269,303,306,0
292,281,304,307,0
294,292,306,306,0
298,298,308,305,0
303,304,308,304,0
306,308,308,303,0
308,313,307,302,0
308,318,306,302,0
307,321,306,303,0
308,321,306,306,0
308,320,307,309,0
309,320,308,313,0
309,324,309,316,0
309,329,310,319,0
309,331,310,321,0
309,331,310,321,0
309,328,310,320,0
307,324,310,319,0
306,320,310,318,0
304,315,309,317,0
302,311,309,315,0
301,308,309,312,0
301,306,308,310,0
302,306,307,308,0
303,305,307,308,0
304,302,307,310,0
306,297,307,311,0
305,294,307,312,0
303,293,308,313,0
301,293,308,313,0
300,293,308,312,0
299,291,308,311,0
300,286,307,309,0
300,279,307,307,0
301,273,306,305,0
302,270,305,303,0
302,268,305,302,0
301,267,305,302,0
300,268,305,302,0
298,276,305,300,0
296,286,304,299,0
296,296,304,297,0
297,308,304,296,0
300,317,304,296,0
302,323,305,297,0
304,323,306,298,0
305,319,307,299,0
305,314,307,301,0
305,310,307,303,0
304,309,307,306,0
303,308,307,307,0
303,309,306,309,0
303,309,306,309,0
303,308,306,309,0
304,309,306,309,0
306,311,307,310,0
307,314,308,311,0
307,316,310,312,0
306,317,311,313,0
305,317,311,313,0
304,318,311,312,0
304,319,310,312,0
303,319,310,312,0
303,321,309,312,0
304,322,309,313,0
305,322,310,313,0
305,320,310,311,0
304,314,310,309,0
304,307,310,308,0
306,302,309,308,0
307,300,308,307,0
307,300,307,306,0
306,299,306,305,0
305,298,306,306,0
306,299,307,308,0
306,302,308,309,0
307,304,309,309,0
307,303,309,309,0
306,300,309,308,0
306,296,308,308,0
305,293,308,308,0
303,291,308,307,0
301,290,307,306,0
299,293,305,305,0
299,300,305,305,0
301,309,305,308,0
305,317,307,310,0
309,320,308,313,0
311,317,310,314,0
311,312,311,314,0
308,308,310,314,0
305,309,310,313,0
303,312,310,312,0
303,316,310,311,0
304,318,310,311,0
305,317,310,310,0
306,315,309,309,0
306,312,309,309,0
306,312,308,309,0
305,312,308,308,0
304,311,308,307,0
303,307,308,308,0
302,303,309,307,0
302,300,309,308,0
303,299,309,308,0
304,299,309,307,0
304,302,309,306,0
304,304,308,305,0
303,307,307,305,0
302,308,306,305,0
302,306,306,304,0
303,304,305,304,0
304,299,305,304,0
306,297,305,305,0
308,300,306,306,0
308,306,306,309,0
309,309,307,311,0
308,307,308,311,0
306,302,308,311,0
305,298,308,309,0
304,297,308,308,0
303,297,308,307,0
302,298,308,306,0
303,300,308,306,0
304,299,309,304,0
306,300,309,304,0
307,303,309,303,0
307,307,308,303,0
306,313,308,302,0
305,319,307,302,0
305,326,306,302,0
307,332,306,304,0
307,335,306,306,0
308,334,306,309,0
308,327,307,312,0
306,316,307,314,0
306,307,308,315,0
305,300,309,315,0
304,292,308,313,0
302,282,306,311,0
301,278,305,308,0
300,280,305,307,0
301,286,306,306,0
303,293,307,305,0
305,302,308,304,0
307,313,308,303,0
310,322,309,303,0
311,329,310,302,0
311,332,310,301,0
309,333,310,300,0
309,333,310,300,0
310,335,310,300,0
313,338,310,302,0
313,340,309,303,0
311,336,308,305,0
306,328,307,305,0
302,320,307,306,0
299,314,307,307,0
299,312,307,307,0
300,310,309,308,0
302,308,311,309,0
304,308,311,309,0
305,309,312,309,0
306,312,312,309,0
307,316,312,309,0
307,318,312,310,0
307,317,311,311,0
305,314,311,311,0
305,309,312,312,0
306,303,312,312,0
307,299,312,313,0
308,295,312,313,0
308,291,311,313,0
306,288,310,311,0
304,287,308,308,0
302,287,307,306,0
301,288,308,305,0
302,291,308,306,0
302,294,309,306,0
302,298,309,307,0
302,302,309,307,0
301,306,308,308,0
301,309,308,308,0
301,310,307,308,0
302,310,306,307,0
302,310,305,306,0
303,309,305,305,0
304,310,305,305,0
306,314,306,306,0
308,321,306,307,0
309,326,306,308,0
309,328,306,307,0
309,326,305,307,0
308,321,305,307,0
308,317,305,306,0
309,314,304,307,0
311,311,304,307,0
314,306,304,309,0
316,300,304,309,0
315,292,303,308,0
310,282,302,307,0
305,275,301,307,0
301,277,301,308,0
299,286,302,310,0
298,296,303,311,0
298,302,304,310,0
299,304,305,308,0
302,304,306,307,0
304,302,307,307,0
306,301,308,308,0
307,304,308,309,0
307,313,308,311,0
309,322,309,312,0
310,329,309,312,0
310,333,310,313,0
310,335,309,314,0
309,334,309,315,0
308,331,309,315,0
307,326,310,315,0
306,318,310,314,0
305,310,310,313,0
305,307,311,312,0
306,310,310,311,0
308,313,310,310,0
310,316,310,307,0
311,317,310,306,0
312,318,310,305,0
312,317,310,304,0
312,313,310,304,0
311,307,310,303,0
309,303,309,303,0
308,297,308,302,0
306,290,307,302,0
304,287,306,301,0
302,290,305,302,0
300,297,305,303,0
299,306,305,305,0
299,314,305,308,0
300,319,305,310,0
303,320,306,310,0
307,318,307,309,0
311,315,308,308,0
312,312,309,308,0
311,310,309,309,0
311,308,309,310,0
309,306,309,312,0
308,306,309,314,0
307,306,310,316,0
306,304,310,316,0
305,300,311,316,0
305,293,312,315,0
305,288,312,315,0
306,283,312,315,0
306,281,311,313,0
304,281,309,310,0
303,281,306,308,0
301,283,304,305,0
300,286,303,305,0
300,291,303,305,0
301,297,303,306,0
301,305,304,307,0
301,312,303,307,0
302,313,303,306,0
302,309,302,306,0
303,302,302,305,0
304,299,302,305,0
306,302,303,306,0
307,308,303,309,0
308,315,305,311,0
309,319,305,312,0
309,321,305,312,0
308,321,305,311,0
309,322,306,312,0
311,323,306,311,0
313,324,306,310,0
314,322,305,309,0
313,319,303,308,0
312,310,302,307,0
310,300,301,307,0
309,293,301,308,0
309,291,302,309,0
308,292,301,309,0
306,298,301,309,0
305,306,301,310,0
305,312,301,311,0
305,317,301,313,0
305,318,302,314,0
305,317,303,313,0
305,314,304,312,0
306,314,304,310,0
308,316,305,309,0
309,319,305,308,0
309,321,306,309,0
308,321,306,310,0
307,320,305,310,0
304,318,306,310,0
303,317,306,309,0
302,317,307,309,0
303,318,307,309,0
306,316,308,309,0
309,316,308,309,0
314,316,309,310,0
316,316,310,310,0
315,316,309,311,0
312,314,310,311,0
309,312,310,312,0
306,310,311,313,0
304,307,311,313,0
304,305,311,314,0
305,302,312,315,0
307,297,313,315,0
307,293,312,314,0
307,289,311,313,0
307,285,309,312,0
308,281,308,309,0
308,281,306,305,0
308,281,305,300,0
306,283,303,298,0
304,289,302,298,0
303,294,302,299,0
303,299,302,302,0
303,304,302,303,0
303,307,302,305,0
304,311,303,308,0
306,313,303,309,0
306,314,304,308,0
307,313,305,307,0
307,315,306,307,0
307,320,306,307,0
308,326,306,307,0
309,330,306,305,0
310,329,307,305,0
310,322,308,305,0
311,311,308,305,0
311,301,308,305,0
310,293,307,306,0
310,291,307,307,0
310,294,308,308,0
310,297,308,308,0
309,296,307,307,0
308,292,305,306,0
307,289,304,304,0
307,290,303,303,0
308,297,304,303,0
312,307,305,303,0
315,313,307,303,0
315,314,307,304,0
313,309,307,304,0
311,302,307,306,0
309,295,307,307,0
307,289,307,308,0
304,284,306,307,0
303,285,304,305,0
303,294,303,304,0
304,307,303,304,0
306,320,303,305,0
308,330,305,306,0
309,336,306,307,0
309,337,306,308,0
308,334,307,309,0
308,328,308,310,0
309,322,309,311,0
309,318,310,313,0
310,316,311,314,0
311,317,311,314,0
310,318,311,314,0
309,318,310,314,0
307,317,309,313,0
305,316,308,312,0
304,312,307,311,0
303,307,306,310,0
304,303,306,309,0
305,302,305,308,0
306,302,305,307,0
308,302,306,306,0
309,301,306,304,0
308,299,306,302,0
307,298,305,299,0
305,299,303,296,0
304,303,302,295,0
304,306,302,294,0
305,308,302,296,0
306,311,304,298,0
307,311,305,302,0
306,310,306,305,0
306,312,307,309,0
307,316,308,312,0
310,316,308,315,0
311,313,308,317,0
312,306,308,319,0
311,299,307,319,0
308,295,307,318,0
306,291,306,316,0
304,289,305,313,0
302,290,303,309,0
303,292,301,308,0
303,297,301,307,0
305,304,301,307,0
306,308,303,307,0
308,308,306,307,0
308,303,307,307,0
308,294,309,307,0
307,284,309,306,0
306,277,309,305,0
306,276,308,303,0
305,282,307,302,0
306,293,305,302,0
306,307,304,303,0
307,317,304,304,0
308,324,303,306,0
309,330,304,308,0
311,334,304,310,0
314,333,304,311,0
317,329,305,312,0
319,319,307,312,0
319,309,308,311,0
318,303,309,309,0
315,305,310,309,0
313,312,311,310,0
310,318,311,310,0
307,323,310,310,0
306,324,308,310,0
304,323,308,310,0
304,323,308,311,0
304,324,309,312,0
304,324,310,312,0
303,323,311,312,0
302,321,311,311,0
302,318,311,310,0
303,316,311,309,0
303,314,311,309,0
303,313,309,310,0
304,313,308,310,0
304,312,308,308,0
304,311,308,306,0
304,309,308,303,0
304,309,307,301,0
305,309,306,301,0
306,311,306,300,0
308,313,307,301,0
309,314,307,301,0
309,312,307,301,0
308,308,306,301,0
307,305,307,302,0
307,301,307,305,0
308,297,309,309,0
308,294,310,313,0
308,293,311,316,0
308,295,311,316,0
308,297,310,315,0
306,297,308,313,0
304,297,306,311,0
304,299,305,310,0
304,302,303,309,0
304,305,301,308,0
306,309,301,307,0
306,311,301,307,0
306,310,302,307,0
305,306,303,307,0
303,299,305,308,0
303,289,306,309,0
303,283,307,310,0
304,283,307,310,0
306,284,308,311,0
306,278,308,312,0
304,270,308,312,0
303,265,308,312,0
303,265,307,312,0
303,272,306,310,0
304,287,306,310,0
307,305,306,310,0
311,319,306,310,0
313,327,306,309,0
314,330,305,309,0
314,330,304,308,0
314,328,304,309,0
312,322,303,308,0
308,315,303,307,0
304,310,304,306,0
301,311,304,306,0
300,316,303,305,0
301,322,304,306,0
303,328,306,306,0
307,330,307,306,0
309,328,308,306,0
310,326,308,304,0
310,322,308,303,0
309,317,308,302,0
309,314,308,302,0
310,314,307,302,0
312,316,307,302,0
313,316,306,302,0
313,316,305,302,0
311,311,303,301,0
308,301,301,300,0
306,291,300,300,0
307,289,301,300,0
309,294,302,303,0
312,303,303,307,0
313,315,304,309,0
312,323,304,310,0
311,325,304,311,0
310,323,305,310,0
309,320,305,309,0
309,318,305,307,0
309,318,305,305,0
309,319,304,305,0
309,319,304,304,0
308,318,304,303,0
308,316,305,303,0
307,313,305,303,0
307,310,305,303,0
306,309,306,303,0
305,306,306,303,0
304,301,307,302,0
303,294,307,302,0
303,286,306,303,0
306,279,307,303,0
310,275,308,303,0
315,270,307,302,0
319,265,306,301,0
321,262,304,300,0
321,267,302,301,0
319,282,301,304,0
314,302,301,307,0
309,320,302,310,0
304,331,303,312,0
300,334,304,313,0
298,331,304,314,0
297,327,305,313,0
298,324,305,311,0
300,325,304,310,0
302,329,303,309,0
303,334,303,308,0
303,338,303,308,0
303,339,303,307,0
303,335,304,306,0
302,327,304,305,0
301,317,304,304,0
300,308,303,303,0
299,303,303,302,0
300,300,303,301,0
302,297,303,300,0
304,295,303,299,0
306,295,304,299,0
308,297,304,299,0
310,301,304,300,0
311,306,304,301,0
312,311,304,303,0
314,316,304,303,0
314,319,305,304,0
315,320,305,305,0
315,320,306,307,0
314,316,307,306,0
314,309,307,305,0
313,302,306,304,0
312,299,306,303,0
311,295,305,302,0
310,290,305,301,0
310,286,305,301,0
310,282,306,302,0
309,282,306,301,0
307,285,306,301,0
307,294,306,302,0
308,305,306,302,0
309,316,306,303,0
310,324,306,303,0
310,328,305,303,0
310,330,304,302,0
310,332,303,303,0
311,331,303,304,0
311,326,303,303,0
308,313,303,301,0
304,298,303,299,0
301,281,303,298,0
298,264,302,298,0
297,251,302,298,0
297,243,303,298,0
299,238,303,297,0
300,237,303,296,0
301,250,304,295,0
304,273,304,295,0
307,300,306,296,0
310,323,307,297,0
312,338,308,298,0
313,349,308,299,0
312,356,307,301,0
311,360,306,302,0
310,362,306,303,0
309,362,305,303,0
309,358,304,303,0
308,351,302,303,0
307,344,302,303,0
306,338,301,303,0
307,332,302,303,0
308,327,302,304,0
308,322,302,304,0
309,318,303,303,0
309,314,303,304,0
309,311,303,304,0
309,308,303,305,0
309,306,303,306,0
309,304,303,307,0
308,302,303,308,0
307,302,303,309,0
307,302,303,309,0
306,303,304,308,0
306,304,304,308,0
306,304,305,305,0
307,305,305,303,0
307,304,305,303,0
307,302,303,302,0
306,298,302,302,0
306,294,303,302,0
305,292,304,303,0
305,294,306,305,0
306,297,307,307,0
306,299,308,309,0
306,302,309,311,0
307,303,309,312,0
308,305,309,313,0
309,305,310,314,0
310,301,311,315,0
311,297,311,315,0
311,294,310,314,0
310,290,309,312,0
309,286,307,310,0
311,285,307,310,0
314,284,307,310,0
314,280,307,310,0
311,275,307,310,0
308,274,308,309,0
306,275,307,307,0
305,279,307,304,0
305,287,305,301,0
305,297,303,299,0
304,307,302,299,0
301,315,302,299,0
299,322,302,300,0
298,326,304,302,0
300,329,305,304,0
301,331,307,305,0
304,332,308,307,0
306,334,309,307,0
307,337,309,308,0
308,338,309,308,0
309,336,309,308,0
308,329,309,310,0
308,322,309,311,0
307,316,310,312,0
306,315,309,313,0
307,316,309,313,0
307,317,307,312,0
307,314,305,310,0
307,309,304,308,0
306,303,303,306,0
304,298,303,304,0
304,298,303,303,0
304,303,302,303,0
305,309,302,304,0
306,313,302,304,0
308,313,303,305,0
309,310,304,307,0
310,309,305,308,0
311,308,306,309,0
311,308,305,309,0
309,308,304,309,0
306,309,303,309,0
304,312,302,308,0
302,317,301,307,0
302,323,301,307,0
304,325,302,306,0
307,323,303,307,0
310,321,304,307,0
312,319,304,306,0
314,316,304,307,0
314,311,304,307,0
313,307,303,307,0
312,303,303,307,0
311,302,304,306,0
311,301,305,307,0
310,303,305,307,0
310,305,305,308,0
310,308,305,309,0
310,309,305,309,0
310,309,306,309,0
311,306,306,309,0
312,304,307,310,0
312,304,308,310,0
312,305,309,311,0
310,307,309,312,0
309,306,309,312,0
307,304,308,312,0
307,300,308,312,0
307,295,307,311,0
307,289,307,309,0
307,283,306,308,0
306,280,304,305,0
303,281,302,302,0
301,288,301,300,0
301,299,301,300,0
303,309,302,301,0
305,316,304,301,0
306,319,305,301,0
308,318,306,301,0
308,311,306,301,0
307,304,306,299,0
306,301,305,299,0
306,302,305,300,0
307,307,306,302,0
308,313,307,305,0
309,319,309,307,0
310,324,310,308,0
309,326,311,308,0
309,328,312,308,0
308,327,311,308,0
306,322,310,307,0
304,317,309,307,0
304,312,309,307,0
305,307,309,306,0
306,302,310,306,0
307,299,310,307,0
309,294,311,308,0
310,289,313,309,0
312,283,314,309,0
313,277,315,309,0
312,275,315,309,0
311,279,315,311,0
310,286,314,313,0
308,294,313,314,0
307,302,312,315,0
306,307,311,315,0
305,310,309,316,0
304,314,308,315,0
306,323,307,316,0
309,331,308,316,0
313,336,308,317,0
317,338,308,316,0
318,336,307,315,0
316,331,306,313,0
311,322,304,310,0
305,313,304,308,0
301,308,304,306,0
298,306,305,305,0
298,308,306,306,0
299,311,307,308,0
301,312,308,310,0
302,310,307,312,0
304,305,307,314,0
304,299,307,315,0
303,292,307,315,0
302,289,306,314,0
301,290,305,312,0
300,292,304,310,0
299,294,304,308,0
299,293,304,306,0
299,290,305,306,0
300,286,305,305,0
301,287,305,304,0
302,289,306,304,0
304,292,306,304,0
306,295,306,303,0
307,300,306,303,0
308,305,306,302,0
308,308,305,302,0
307,310,304,302,0
306,310,304,303,0
306,309,304,305,0
306,306,305,308,0
305,302,307,310,0
304,299,308,311,0
303,294,308,312,0
304,289,309,312,0
305,285,309,313,0
304,282,308,312,0
303,284,307,310,0
302,290,306,308,0
302,300,305,306,0
302,310,306,306,0
302,316,306,305,0
303,318,306,305,0
305,321,305,305,0
306,323,304,305,0
305,324,302,304,0
304,325,301,304,0
303,324,300,304,0
301,322,301,303,0
301,320,302,303,0
302,317,304,304,0
304,315,306,304,0
307,314,307,306,0
309,313,308,308,0
311,316,308,310,0
311,321,308,311,0
310,326,308,312,0
309,326,307,313,0
309,325,306,313,0
309,323,305,313,0
308,320,305,314,0
308,316,306,314,0
308,311,306,314,0
308,308,306,313,0
306,307,306,311,0
305,307,306,310,0
304,307,304,309,0
302,306,303,307,0
302,305,302,306,0
302,305,302,305,0
303,303,302,305,0
304,301,302,306,0
303,302,302,307,0
303,302,302,308,0
303,301,302,308,0
304,299,302,309,0
305,296,301,309,0
307,296,300,309,0
308,298,300,310,0
310,304,301,311,0
311,308,302,310,0
311,312,303,310,0
310,312,303,309,0
309,308,304,309,0
308,302,304,309,0
307,296,304,310,0
306,290,304,310,0
305,286,305,311,0
304,285,305,311,0
304,287,305,310,0
303,291,306,309,0
304,297,305,308,0
304,304,305,307,0
305,309,305,306,0
307,313,306,306,0
309,314,306,306,0
311,313,307,306,0
311,309,308,307,0
311,309,308,308,0
310,311,309,309,0
309,312,309,311,0
309,314,310,312,0
310,317,311,313,0
311,318,310,314,0
312,317,310,314,0
313,313,310,315,0
313,308,311,315,0
312,302,310,314,0
309,295,309,313,0
306,288,308,312,0
303,281,307,310,0
301,277,307,309,0
300,277,307,309,0
300,283,306,308,0
302,294,306,308,0
304,308,306,309,0
305,322,304,309,0
307,333,303,308,0
308,339,303,307,0
308,339,303,305,0
308,334,304,304,0
306,327,306,304,0
307,322,308,305,0
308,316,310,306,0
310,311,313,309,0
312,306,315,311,0
314,303,316,312,0
315,301,316,313,0
315,301,316,313,0
314,302,314,311,0
313,303,313,310,0
311,305,311,309,0
310,307,310,309,0
311,309,309,308,0
312,312,307,308,0
314,315,306,308,0
316,316,305,307,0
316,316,304,305,0
312,316,303,303,0
308,316,301,301,0
303,314,300,300,0
300,312,299,299,0
299,308,299,299,0
299,304,299,299,0
299,301,300,300,0
301,298,301,301,0
302,296,301,303,0
303,293,302,304,0
304,290,303,306,0
306,285,305,308,0
308,280,306,309,0
309,277,307,309,0
308,275,306,309,0
306,274,306,308,0
303,275,305,306,0
301,277,304,305,0
299,279,304,303,0
297,280,304,302,0
297,280,305,303,0
297,279,306,305,0
298,280,307,307,0
298,282,308,307,0
299,285,308,307,0
301,288,308,306,0
304,292,310,305,0
308,300,310,305,0
310,311,311,305,0
312,324,311,305,0
314,333,310,306,0
314,340,310,307,0
314,345,310,309,0
313,348,309,312,0
312,350,308,314,0
311,350,309,315,0
312,350,308,314,0
313,349,307,313,0
314,347,307,312,0
313,343,306,310,0
312,340,305,309,0
312,338,305,308,0
311,333,304,307,0
309,326,304,306,0
309,318,304,305,0
308,310,304,305,0
307,306,303,305,0
308,303,303,306,0
309,302,302,306,0
310,299,302,307,0
311,297,302,308,0
312,294,303,309,0
313,290,304,309,0
314,287,304,309,0
315,281,305,309,0
316,274,305,308,0
315,269,305,308,0
313,269,304,306,0
311,277,303,306,0
310,289,304,305,0
309,298,304,304,0
309,305,304,302,0
308,310,304,301,0
308,314,305,301,0
309,318,306,302,0
309,319,308,304,0
309,319,309,305,0
310,317,310,305,0
309,312,310,304,0
309,308,309,304,0
310,309,309,306,0
310,315,308,307,0
309,320,308,307,0
305,322,306,307,0
301,321,305,305,0
297,316,304,302,0
294,308,303,300,0
293,302,303,299,0
295,301,304,300,0
298,304,304,302,0
300,306,305,303,0
301,305,304,303,0
301,302,304,303,0
302,297,304,303,0
302,296,304,303,0
303,298,305,304,0
304,302,306,305,0
305,307,308,306,0
307,311,309,307,0
307,312,309,307,0
308,309,308,308,0
307,306,308,308,0
307,304,308,309,0
306,305,309,310,0
307,308,309,311,0
307,310,310,311,0
307,312,310,311,0
307,312,309,310,0
304,310,308,307,0
302,308,307,305,0
302,304,306,305,0
303,297,306,304,0
303,286,305,303,0
303,273,305,302,0
303,267,304,302,0
304,269,304,301,0
305,277,304,300,0
305,285,304,299,0
305,294,303,297,0
304,302,304,297,0
304,307,304,296,0
304,309,306,298,0
304,309,307,300,0
304,309,308,302,0
304,307,309,303,0
304,302,310,304,0
304,296,311,305,0
305,292,310,305,0
306,291,310,306,0
307,288,310,306,0
309,286,309,305,0
311,284,309,304,0
312,284,309,302,0
312,286,309,302,0
311,291,309,302,0
308,297,309,303,0
305,303,308,304,0
303,307,308,304,0
302,311,309,304,0
303,314,310,305,0
305,313,310,305,0
307,310,309,305,0
309,309,308,305,0
310,312,308,304,0
310,319,307,304,0
309,326,306,302,0
308,334,306,301,0
308,340,305,300,0
306,344,304,298,0
306,345,304,296,0
306,343,303,294,0
306,337,303,294,0
307,330,303,295,0
307,324,304,298,0
307,318,304,301,0
306,314,304,304,0
304,313,305,307,0
302,314,305,309,0
299,315,306,310,0
297,314,307,311,0
296,314,308,312,0
296,312,309,311,0
296,308,310,310,0
296,302,309,309,0
298,298,310,308,0
300,299,310,308,0
302,302,310,308,0
303,303,311,308,0
304,302,310,308,0
304,300,309,309,0
302,298,309,310,0
301,299,309,311,0
301,304,309,313,0
302,310,310,314,0
301,315,309,315,0
300,317,307,315,0
299,314,305,314,0
298,308,304,311,0
298,302,303,310,0
300,301,304,308,0
302,304,305,308,0
304,306,305,308,0
305,309,305,309,0
305,311,306,311,0
305,313,307,313,0
306,314,308,315,0
306,314,308,316,0
306,314,308,317,0
306,313,308,318,0
306,312,308,317,0
306,310,308,317,0
306,308,309,316,0
307,308,309,315,0
309,307,309,315,0
309,303,310,314,0
309,298,310,313,0
307,295,310,312,0
305,294,309,311,0
304,294,309,311,0
304,293,308,310,0
304,293,308,309,0
305,293,307,308,0
305,295,305,307,0
306,298,304,306,0
307,303,304,305,0
308,308,304,305,0
309,312,304,305,0
309,313,304,305,0
309,311,304,304,0
309,307,304,304,0
309,302,304,304,0
309,299,305,304,0
308,298,304,303,0
307,300,304,302,0
307,304,303,301,0
307,309,303,302,0
307,309,304,303,0
305,303,303,304,0
303,296,303,304,0
303,294,302,304,0
303,296,301,304,0
306,302,302,304,0
310,310,302,304,0
314,317,303,304,0
316,320,303,304,0
318,322,303,303,0
318,322,302,304,0
315,322,301,305,0
313,324,301,306,0
314,326,302,307,0
315,324,302,308,0
316,317,302,306,0
315,308,301,305,0
312,302,300,303,0
307,301,300,303,0
304,306,301,303,0
303,314,302,304,0
303,321,303,305,0
303,324,305,304,0
304,325,305,305,0
304,324,305,306,0
304,325,305,308,0
305,324,305,310,0
305,320,306,310,0
304,313,306,310,0
304,306,306,310,0
305,302,306,310,0
306,301,306,311,0
306,304,305,310,0
306,307,304,310,0
305,311,303,310,0
305,316,302,310,0
306,318,302,311,0
307,317,302,311,0
308,316,302,312,0
310,315,303,313,0
312,314,303,314,0
313,313,303,314,0
313,308,303,314,0
312,302,303,313,0
310,297,304,312,0
309,292,306,312,0
308,289,307,312,0
308,289,308,311,0
308,291,308,310,0
308,295,308,308,0
307,300,307,306,0
306,306,306,305,0
305,312,306,306,0
305,316,305,307,0
305,316,303,308,0
304,314,302,309,0
304,313,301,310,0
305,310,302,310,0
305,307,302,310,0
306,304,302,310,0
