302,304,303,294,2
299,301,302,297,2
297,300,301,300,2
296,299,302,303,2
296,297,303,306,2
296,296,303,308,2
296,295,302,309,2
295,294,303,309,2
294,294,304,310,2
294,297,305,310,2
294,300,306,310,2
294,304,307,310,2
295,306,308,311,2
296,308,309,312,2
296,308,310,313,2
296,310,311,314,2
296,310,312,314,2
296,312,312,314,2
296,314,311,313,2
296,314,308,312,2
294,312,306,310,2
293,308,305,310,2
293,305,306,310,2
293,302,307,310,2
293,300,307,310,2
294,298,308,309,2
294,297,310,308,2
295,298,311,307,2
294,299,310,304,2
292,299,310,303,2
290,300,310,304,2
290,299,311,305,2
290,299,312,307,2
289,297,312,308,2
289,296,310,308,2
290,293,310,308,2
291,294,310,307,2
292,296,309,306,2
294,300,310,306,2
295,304,310,306,2
294,308,309,307,2
293,311,308,308,2
292,313,307,309,2
290,314,308,310,2
289,312,309,309,2
287,308,309,307,2
287,306,307,307,2
289,308,307,308,2
291,310,306,311,2
292,312,307,314,2
293,313,308,316,2
294,315,310,317,2
293,315,311,317,2
292,315,311,316,2
292,314,311,315,2
291,313,312,314,2
291,312,312,312,2
290,310,312,310,2
289,307,311,308,2
289,304,310,305,2
287,302,309,303,2
286,301,308,303,2
287,302,307,303,2
288,303,307,303,2
289,305,306,304,2
289,307,306,303,2
289,310,306,303,2
289,313,307,303,2
290,315,307,303,2
290,314,308,304,2
290,312,309,305,2
290,308,310,305,2
289,304,310,305,2
289,301,308,305,2
289,299,307,306,2
289,298,305,307,2
288,298,303,310,2
287,297,300,310,2
285,297,297,310,2
283,299,299,309,2
284,302,304,309,2
285,306,308,309,2
287,310,309,308,2
288,312,310,307,2
290,314,308,305,2
290,314,307,305,2
288,313,306,304,2
286,311,304,304,2
285,308,302,304,2
285,305,300,303,2
285,303,298,301,2
285,301,296,298,2
285,299,293,295,2
285,298,292,292,2
287,297,293,292,2
288,296,297,295,2
290,295,301,298,2
291,297,305,303,2
293,299,308,307,2
294,302,309,310,2
295,305,309,312,2
295,306,309,312,2
295,307,310,311,2
295,310,309,309,2
295,313,309,308,2
294,317,309,307,2
294,321,307,307,2
293,324,307,306,2
292,326,308,304,2
293,327,309,302,2
294,325,310,300,2
294,323,308,298,2
294,320,307,296,2
293,317,306,295,2
293,314,306,294,2
293,312,305,294,2
293,312,304,295,2
294,313,304,297,2
295,317,304,299,2
296,323,304,303,2
296,328,304,305,2
296,329,303,307,2
296,325,303,309,2
295,320,304,311,2
294,315,306,313,2
294,312,308,316,2
294,309,308,318,2
294,307,307,319,2
295,307,307,319,2
297,307,309,319,2
298,307,312,317,2
299,306,313,314,2
299,305,313,313,2
298,304,313,311,2
298,303,313,311,2
297,301,314,312,2
296,301,315,312,2
296,299,314,313,2
296,299,314,313,2
297,299,313,313,2
298,299,312,313,2
298,299,311,312,2
298,297,311,311,2
297,297,310,309,2
297,298,309,308,2
297,299,309,308,2
298,300,309,307,2
299,302,310,308,2
299,304,309,308,2
299,305,309,307,2
298,306,308,305,2
298,307,308,304,2
297,309,307,303,2
298,310,307,303,2
299,309,307,304,2
300,308,306,303,2
301,305,303,303,2
302,305,301,303,2
303,308,298,303,2
304,310,297,302,2
305,312,297,302,2
305,310,298,302,2
304,306,301,300,2
304,303,304,300,2
305,303,307,301,2
307,305,308,302,2
306,310,308,304,2
303,315,309,305,2
301,321,309,304,2
301,327,309,303,2
301,328,307,302,2
301,327,305,301,2
302,323,303,299,2
303,318,302,298,2
303,312,303,296,2
303,306,305,296,2
302,301,306,295,2
301,297,307,295,2
300,294,309,296,2
300,295,310,297,2
301,298,311,300,2
302,301,310,304,2
303,302,309,308,2
303,302,309,311,2
304,301,309,313,2
305,300,309,314,2
307,300,310,315,2
307,301,310,316,2
308,304,310,316,2
309,306,309,316,2
308,308,308,315,2
306,309,308,314,2
306,310,308,313,2
305,310,309,312,2
305,311,309,312,2
304,311,309,311,2
304,311,309,311,2
304,309,308,310,2
304,308,307,309,2
304,307,304,308,2
304,306,302,306,2
304,304,300,306,2
304,304,300,307,2
304,304,301,307,2
305,306,302,307,2
305,311,301,306,2
305,314,302,306,2
305,315,302,306,2
304,313,303,306,2
303,308,303,307,2
302,303,302,307,2
301,299,303,306,2
301,299,305,305,2
302,303,308,304,2
303,309,310,304,2
304,314,309,305,2
305,319,306,307,2
307,322,304,309,2
307,323,304,310,2
307,322,305,311,2
307,320,306,311,2
307,319,309,311,2
307,318,310,312,2
307,315,310,313,2
307,313,310,313,2
308,310,309,313,2
309,308,309,312,2
309,306,309,312,2
309,303,309,313,2
310,303,309,314,2
310,304,307,314,2
309,306,304,313,2
309,309,299,311,2
309,311,296,310,2
309,313,295,309,2
310,312,296,309,2
310,311,299,310,2
309,308,302,311,2
308,304,305,311,2
307,301,308,311,2
307,299,310,309,2
307,299,311,307,2
306,300,310,304,2
305,301,310,302,2
304,301,309,301,2
303,302,310,301,2
303,305,309,300,2
302,306,308,300,2
301,306,306,300,2
300,304,302,301,2
299,301,299,301,2
299,298,297,302,2
299,297,297,302,2
300,298,301,303,2
302,302,306,304,2
303,307,311,305,2
306,311,314,307,2
308,315,317,310,2
308,317,318,312,2
307,320,318,314,2
307,320,318,316,2
306,319,316,317,2
307,318,314,318,2
308,318,311,317,2
307,317,306,314,2
306,316,302,311,2
304,314,299,308,2
303,311,298,306,2
301,307,298,305,2
300,304,300,304,2
299,303,304,306,2
300,303,310,308,2
301,303,314,310,2
303,305,317,313,2
305,305,318,315,2
306,305,319,315,2
306,305,321,313,2
306,304,322,311,2
305,303,320,309,2
305,303,315,307,2
306,302,310,305,2
305,299,305,304,2
304,297,304,304,2
303,298,305,305,2
303,299,307,307,2
303,301,308,308,2
304,301,310,309,2
305,301,311,309,2
305,300,311,310,2
304,299,312,309,2
303,300,312,309,2
303,303,313,308,2
304,307,313,308,2
304,309,313,309,2
305,311,312,309,2
305,311,311,309,2
305,311,311,309,2
305,311,310,309,2
306,310,309,307,2
306,309,307,306,2
307,307,305,306,2
306,306,303,305,2
305,304,303,306,2
305,302,305,306,2
304,301,306,307,2
303,304,307,307,2
303,308,307,306,2
304,310,307,305,2
303,312,307,304,2
303,311,307,303,2
303,309,306,302,2
303,306,305,301,2
302,302,304,300,2
302,299,302,299,2
301,297,300,299,2
302,297,298,299,2
302,301,298,301,2
302,307,297,302,2
302,312,299,304,2
302,315,303,305,2
302,317,306,308,2
302,318,309,310,2
302,318,310,311,2
301,316,311,312,2
301,315,311,313,2
302,314,311,313,2
302,313,308,312,2
302,313,305,311,2
303,311,303,308,2
303,310,302,306,2
303,308,302,303,2
303,304,304,302,2
302,299,307,301,2
302,293,309,303,2
301,288,310,304,2
300,285,311,305,2
299,286,311,305,2
299,288,310,306,2
299,292,309,305,2
301,296,307,305,2
303,301,303,304,2
306,305,299,302,2
305,311,295,302,2
305,315,295,302,2
305,317,299,303,2
305,319,303,304,2
305,318,308,304,2
305,317,312,304,2
305,316,315,306,2
306,314,317,308,2
306,312,318,310,2
305,308,318,312,2
305,304,318,313,2
304,300,317,313,2
304,299,317,311,2
304,299,316,309,2
305,300,317,308,2
306,303,317,306,2
307,307,316,307,2
309,310,314,308,2
310,313,312,308,2
311,314,310,309,2
312,316,309,309,2
312,316,308,309,2
311,317,307,308,2
310,317,306,307,2
310,317,305,306,2
310,316,304,305,2
309,315,303,305,2
307,313,301,304,2
307,312,301,304,2
306,311,301,305,2
306,310,302,306,2
306,309,304,307,2
306,308,306,308,2
307,308,307,310,2
308,308,309,310,2
309,308,309,311,2
310,308,310,310,2
308,307,309,309,2
307,305,307,308,2
306,304,304,307,2
306,302,303,308,2
307,301,305,310,2
306,298,307,311,2
304,294,310,310,2
301,291,311,308,2
299,289,312,306,2
298,289,311,304,2
298,290,312,305,2
299,294,312,305,2
300,296,311,306,2
301,299,310,306,2
302,301,308,305,2
302,302,306,304,2
303,306,305,302,2
303,311,304,301,2
304,315,302,300,2
305,316,300,300,2
306,316,299,301,2
306,314,298,301,2
306,312,296,301,2
305,310,296,301,2
304,309,298,301,2
304,309,304,302,2
306,309,309,304,2
309,309,310,307,2
312,309,309,309,2
313,307,308,311,2
314,306,307,312,2
314,306,307,313,2
312,307,307,313,2
309,307,306,313,2
307,307,307,312,2
306,306,309,310,2
305,304,310,309,2
304,303,311,308,2
305,302,311,307,2
305,302,312,307,2
305,304,312,306,2
305,308,313,306,2
305,312,313,304,2
304,315,311,303,2
304,314,311,303,2
305,311,311,303,2
305,306,311,303,2
304,302,311,304,2
304,299,311,305,2
304,297,310,306,2
305,296,309,307,2
305,296,307,308,2
304,295,305,309,2
303,294,305,309,2
303,294,305,309,2
302,296,307,309,2
303,300,308,310,2
303,303,308,311,2
303,305,308,310,2
303,305,307,310,2
303,302,307,310,2
303,298,307,310,2
303,293,307,309,2
302,289,307,309,2
302,289,307,307,2
302,293,307,305,2
303,299,306,304,2
304,306,306,303,2
305,312,306,303,2
306,315,306,303,2
305,316,306,303,2
304,316,305,302,2
304,315,305,301,2
304,313,304,300,2
304,310,304,300,2
303,307,303,299,2
302,305,301,300,2
302,304,299,300,2
302,306,298,301,2
302,308,298,301,2
303,311,299,303,2
304,312,302,304,2
304,313,304,308,2
305,313,307,311,2
305,311,309,314,2
305,309,311,316,2
305,307,312,316,2
306,303,311,315,2
306,301,309,312,2
306,299,307,310,2
305,300,306,308,2
305,301,304,305,2
304,302,304,303,2
303,303,304,302,2
303,303,304,303,2
303,303,301,304,2
303,304,297,305,2
302,304,292,306,2
302,304,290,306,2
302,301,292,305,2
301,298,295,304,2
302,295,299,304,2
303,293,301,304,2
303,292,303,304,2
304,295,304,302,2
304,298,305,302,2
305,302,306,302,2
306,304,306,302,2
307,304,305,302,2
307,303,306,301,2
308,302,308,300,2
310,304,309,300,2
312,308,310,300,2
311,312,308,301,2
309,313,305,301,2
307,313,302,302,2
305,311,302,302,2
305,307,302,302,2
303,303,303,301,2
303,302,304,302,2
303,301,305,304,2
303,299,306,307,2
303,297,306,310,2
304,297,306,311,2
305,300,307,311,2
306,304,307,310,2
306,306,307,309,2
306,307,307,308,2
307,307,306,308,2
307,307,305,307,2
307,306,303,307,2
306,305,300,306,2
305,305,300,305,2
305,306,302,304,2
306,307,305,304,2
307,309,307,304,2
307,308,307,305,2
307,308,306,305,2
307,307,306,305,2
306,307,305,305,2
306,308,303,305,2
306,309,301,304,2
306,308,299,305,2
305,306,297,304,2
305,304,297,303,2
306,303,298,302,2
306,303,300,301,2
305,304,301,300,2
305,306,303,301,2
306,307,303,300,2
306,308,303,301,2
305,308,302,301,2
305,308,305,303,2
306,307,309,304,2
307,305,311,305,2
307,303,312,305,2
307,300,312,306,2
306,297,311,306,2
306,296,309,307,2
306,297,307,308,2
307,298,306,309,2
307,299,306,308,2
307,301,306,308,2
307,302,308,308,2
305,303,309,308,2
305,304,311,308,2
304,304,311,308,2
304,304,311,308,2
305,305,310,308,2
305,307,308,307,2
304,309,307,305,2
304,310,306,303,2
303,310,304,302,2
303,309,304,301,2
303,308,304,301,2
303,306,305,300,2
304,303,306,301,2
305,300,305,301,2
305,295,304,302,2
305,288,303,303,2
305,282,303,304,2
304,278,303,304,2
302,275,303,306,2
302,276,304,307,2
302,281,304,308,2
303,290,305,308,2
305,300,306,307,2
307,309,306,306,2
308,315,306,305,2
309,318,306,305,2
308,317,306,304,2
308,315,305,305,2
307,312,305,304,2
307,308,305,305,2
307,305,305,306,2
307,303,307,306,2
306,304,309,304,2
304,306,310,302,2
304,309,308,299,2
303,315,304,296,2
304,318,301,295,2
305,319,300,294,2
307,319,300,295,2
309,319,302,296,2
308,318,304,298,2
306,317,305,299,2
304,316,305,301,2
303,314,304,302,2
302,312,304,303,2
302,310,304,305,2
302,309,305,309,2
302,308,306,311,2
303,310,305,312,2
304,311,304,312,2
304,312,302,312,2
304,312,300,312,2
303,311,298,311,2
302,310,300,311,2
301,307,305,310,2
302,304,311,309,2
302,300,316,309,2
302,296,319,309,2
301,294,319,309,2
301,292,318,309,2
301,292,316,309,2
302,293,314,309,2
302,295,311,309,2
302,297,308,310,2
302,299,308,311,2
303,301,310,311,2
304,305,311,312,2
305,308,310,312,2
305,310,307,311,2
304,311,306,310,2
303,310,305,310,2
303,310,305,310,2
303,309,304,310,2
304,309,304,310,2
304,309,304,310,2
304,309,304,310,2
305,309,305,310,2
306,308,306,310,2
306,307,306,311,2
307,308,307,312,2
307,310,306,312,2
307,311,304,312,2
306,310,301,311,2
304,307,301,308,2
303,304,302,306,2
302,301,306,305,2
302,299,309,305,2
302,299,311,304,2
303,299,313,305,2
304,298,314,306,2
304,298,314,308,2
304,298,314,311,2
304,300,313,311,2
305,301,312,311,2
305,303,312,310,2
306,304,312,310,2
306,305,312,310,2
307,307,312,310,2
307,308,312,310,2
307,308,312,310,2
306,307,310,310,2
306,304,309,310,2
305,302,306,310,2
305,298,304,309,2
304,295,303,309,2
304,295,302,309,2
304,298,300,308,2
304,305,299,307,2
305,313,299,307,2
306,319,299,308,2
307,321,300,308,2
307,320,303,308,2
307,317,303,308,2
306,314,304,307,2
305,310,304,305,2
304,308,304,305,2
306,309,304,305,2
310,310,305,305,2
312,312,306,305,2
313,312,306,307,2
312,311,306,307,2
311,308,305,308,2
309,305,305,307,2
307,304,304,306,2
306,305,303,304,2
306,306,301,303,2
305,307,297,301,2
305,307,297,300,2
305,308,301,300,2
307,307,305,300,2
308,306,306,299,2
307,303,306,298,2
307,301,307,298,2
307,298,307,298,2
307,297,305,298,2
306,297,303,298,2
306,298,303,299,2
307,302,304,301,2
307,306,304,303,2
307,310,304,304,2
306,313,302,304,2
304,315,299,303,2
303,315,298,303,2
303,314,299,303,2
304,311,301,303,2
304,306,302,304,2
304,300,304,304,2
304,295,304,304,2
303,291,306,304,2
302,291,307,305,2
301,294,308,307,2
300,301,308,309,2
300,308,307,312,2
302,315,307,314,2
303,319,305,316,2
305,321,302,316,2
306,321,297,315,2
307,319,294,315,2
308,317,292,315,2
307,316,292,315,2
306,313,293,315,2
304,311,295,314,2
303,310,299,314,2
302,311,303,313,2
303,311,306,311,2
304,312,308,310,2
305,313,310,309,2
305,313,312,308,2
304,313,312,308,2
303,312,312,308,2
302,312,311,306,2
301,312,310,305,2
300,312,309,303,2
300,312,309,302,2
300,312,309,302,2
301,312,310,303,2
302,312,311,303,2
302,313,311,305,2
302,314,312,307,2
303,315,313,307,2
303,314,315,307,2
302,311,314,306,2
302,308,313,305,2
301,305,310,303,2
300,303,307,302,2
300,301,305,301,2
299,298,303,300,2
297,296,304,301,2
298,297,310,304,2
299,300,314,307,2
302,304,316,309,2
304,308,315,310,2
305,313,314,310,2
304,315,312,309,2
302,313,310,309,2
301,310,309,310,2
300,307,309,311,2
301,307,308,311,2
301,307,306,313,2
301,309,305,314,2
302,311,306,315,2
303,312,307,315,2
304,313,308,314,2
305,313,308,313,2
305,313,307,313,2
306,312,306,312,2
306,310,304,312,2
306,306,303,312,2
306,302,302,311,2
306,300,302,311,2
305,299,302,311,2
306,301,302,311,2
307,304,303,312,2
308,307,303,312,2
309,311,302,312,2
309,311,300,311,2
309,311,300,311,2
310,311,300,310,2
309,311,300,309,2
308,310,301,308,2
306,309,302,308,2
305,309,303,308,2
304,309,302,309,2
303,309,302,309,2
302,308,301,309,2
302,307,302,309,2
301,306,303,309,2
301,305,303,309,2
300,306,305,308,2
300,307,306,308,2
300,308,306,307,2
299,309,305,306,2
300,309,304,305,2
301,309,304,304,2
302,308,305,304,2
303,308,305,304,2
304,308,305,304,2
305,307,305,304,2
306,307,304,305,2
306,306,303,306,2
305,305,302,306,2
305,304,301,306,2
305,304,298,306,2
305,305,297,306,2
305,307,296,307,2
306,309,296,308,2
307,309,296,307,2
306,309,297,305,2
307,308,298,304,2
307,307,299,302,2
308,306,300,301,2
308,303,301,301,2
308,300,302,302,2
309,296,302,303,2
309,294,303,305,2
309,295,307,307,2
308,297,312,310,2
308,300,315,310,2
307,302,315,308,2
307,303,314,306,2
308,304,312,304,2
307,304,310,302,2
306,305,308,302,2
306,305,307,303,2
305,307,306,304,2
305,307,303,305,2
304,307,299,305,2
303,307,297,305,2
303,307,298,305,2
305,308,303,304,2
306,309,307,303,2
306,311,308,302,2
306,312,308,303,2
307,312,309,304,2
307,311,310,304,2
307,308,311,305,2
308,306,311,306,2
309,306,311,308,2
310,307,310,309,2
311,309,310,311,2
312,310,311,312,2
313,310,311,312,2
312,309,311,312,2
311,309,313,312,2
310,308,313,312,2
310,307,312,311,2
309,306,310,311,2
308,304,306,310,2
307,302,302,309,2
305,299,300,307,2
304,296,301,307,2
304,293,303,308,2
304,291,306,309,2
305,290,308,309,2
305,288,308,309,2
306,289,307,307,2
306,293,305,306,2
307,298,304,305,2
308,301,305,305,2
308,304,305,306,2
308,306,305,307,2
308,308,305,307,2
308,308,304,306,2
308,306,302,306,2
307,303,302,307,2
307,300,304,308,2
307,297,306,310,2
308,295,307,311,2
307,293,307,311,2
307,293,306,312,2
308,297,305,311,2
308,302,303,310,2
307,307,301,308,2
306,312,299,307,2
306,317,298,307,2
306,320,298,308,2
306,323,297,309,2
305,323,298,310,2
304,323,300,310,2
304,322,304,311,2
305,322,311,312,2
306,321,315,311,2
307,320,315,310,2
307,320,314,309,2
306,319,313,307,2
306,317,312,305,2
305,316,311,304,2
306,315,309,304,2
308,315,308,305,2
311,314,307,305,2
310,312,306,306,2
309,311,308,308,2
306,309,309,310,2
305,308,309,311,2
304,306,308,310,2
303,306,309,309,2
303,306,309,310,2
303,308,310,310,2
303,308,310,310,2
303,308,310,311,2
303,307,310,310,2
303,305,309,309,2
304,304,308,307,2
304,302,307,307,2
305,301,308,306,2
303,299,308,305,2
300,297,308,304,2
298,296,306,303,2
297,294,305,302,2
297,293,305,303,2
297,293,308,305,2
300,296,311,308,2
303,301,313,312,2
304,306,313,314,2
305,309,313,315,2
304,308,312,315,2
303,305,311,314,2
303,303,311,314,2
302,301,310,313,2
303,301,309,312,2
303,304,308,312,2
303,308,308,312,2
305,312,308,313,2
306,314,308,315,2
307,316,308,315,2
308,317,307,314,2
307,318,306,313,2
306,318,306,313,2
306,316,306,314,2
306,313,305,314,2
304,307,305,313,2
304,302,304,312,2
303,299,305,312,2
304,301,307,313,2
305,304,309,316,2
306,306,312,318,2
306,307,313,321,2
307,307,314,322,2
307,306,314,322,2
306,306,313,321,2
306,305,310,319,2
307,305,307,316,2
307,304,303,314,2
307,304,301,311,2
307,305,300,309,2
307,308,300,307,2
307,310,300,306,2
306,311,300,304,2
305,311,300,302,2
305,311,299,301,2
305,309,301,301,2
305,306,304,302,2
305,303,309,303,2
306,301,313,304,2
307,299,315,306,2
308,297,316,308,2
307,295,315,309,2
307,295,314,311,2
307,296,314,313,2
307,297,314,314,2
308,297,313,314,2
308,298,311,313,2
308,299,309,312,2
307,301,306,309,2
307,303,304,307,2
307,306,302,304,2
307,309,301,302,2
306,312,301,301,2
305,314,302,299,2
306,315,303,299,2
306,316,304,299,2
308,318,304,300,2
308,318,303,300,2
308,317,302,299,2
309,314,303,298,2
309,313,305,299,2
308,313,308,302,2
306,313,311,305,2
304,313,313,307,2
304,314,314,308,2
304,312,314,308,2
304,310,313,309,2
304,308,311,308,2
305,307,309,307,2
305,306,308,306,2
306,307,307,306,2
306,307,308,305,2
305,307,308,304,2
306,307,309,304,2
307,307,309,304,2
308,307,310,304,2
309,307,310,304,2
309,309,309,305,2
309,312,309,306,2
309,315,309,308,2
309,318,310,309,2
309,320,310,311,2
309,321,311,312,2
309,319,311,313,2
308,316,311,313,2
307,310,311,311,2
306,303,312,310,2
306,297,311,309,2
307,292,311,308,2
307,289,310,307,2
306,288,308,307,2
307,292,306,306,2
307,298,303,305,2
308,306,301,304,2
310,311,300,303,2
310,314,298,300,2
309,314,296,298,2
308,312,294,296,2
307,309,294,295,2
305,306,296,295,2
304,303,301,297,2
304,304,305,300,2
304,304,308,303,2
304,304,309,305,2
304,303,310,307,2
304,302,311,308,2
305,301,311,310,2
306,300,311,311,2
307,299,310,311,2
308,300,308,309,2
310,301,306,308,2
310,301,305,306,2
310,299,303,305,2
309,300,302,306,2
309,304,302,308,2
309,307,305,311,2
309,310,308,314,2
309,309,313,317,2
308,307,316,318,2
308,305,317,318,2
309,303,317,317,2
309,300,317,316,2
309,297,316,315,2
308,294,315,313,2
307,292,313,312,2
307,290,313,310,2
307,289,312,309,2
307,289,312,308,2
308,291,311,306,2
307,295,309,303,2
307,300,307,302,2
307,307,305,301,2
307,313,303,301,2
307,316,299,301,2
308,317,297,302,2
310,315,299,304,2
312,313,301,305,2
311,311,302,307,2
309,310,303,309,2
308,310,304,310,2
308,309,306,309,2
308,310,306,308,2
307,311,307,307,2
307,310,308,307,2
306,309,309,306,2
305,307,310,306,2
304,305,311,306,2
304,302,312,307,2
304,301,312,307,2
304,299,312,306,2
304,299,312,304,2
304,299,312,303,2
305,298,312,302,2
306,297,311,302,2
306,295,310,302,2
305,295,309,302,2
305,300,307,303,2
305,305,305,305,2
306,309,303,306,2
306,312,301,306,2
307,314,299,307,2
307,314,299,308,2
307,314,299,308,2
306,313,301,310,2
307,311,301,312,2
307,310,301,312,2
307,308,300,311,2
306,306,299,310,2
304,305,298,309,2
303,303,299,307,2
302,300,302,305,2
302,298,303,304,2
302,296,305,302,2
301,292,305,301,2
301,289,305,301,2
300,288,305,300,2
300,287,304,301,2
300,289,303,301,2
301,294,302,303,2
302,300,302,304,2
303,305,301,305,2
305,308,301,307,2
306,310,300,308,2
307,309,300,309,2
308,308,301,309,2
308,308,303,309,2
308,307,306,309,2
309,307,308,308,2
308,306,309,308,2
307,306,309,308,2
306,306,309,307,2
304,305,307,307,2
302,304,306,305,2
302,304,307,304,2
301,306,307,303,2
302,307,306,303,2
302,307,305,302,2
302,306,304,302,2
301,306,305,304,2
302,305,306,304,2
302,304,307,305,2
302,304,308,305,2
302,305,308,304,2
303,308,309,304,2
304,312,309,305,2
304,314,310,306,2
304,314,311,306,2
305,313,311,306,2
306,311,310,304,2
306,309,308,304,2
305,308,306,304,2
303,307,303,305,2
301,306,302,308,2
301,305,302,311,2
302,304,303,315,2
302,302,305,317,2
303,299,306,318,2
303,296,306,317,2
302,295,306,316,2
302,296,305,314,2
302,297,303,313,2
302,296,300,313,2
302,293,296,312,2
302,288,292,312,2
302,285,288,310,2
302,285,287,308,2
302,287,286,305,2
301,288,284,303,2
299,288,282,302,2
299,288,283,301,2
299,287,289,300,2
302,288,296,300,2
304,290,302,300,2
305,294,306,300,2
306,299,308,301,2
307,304,309,302,2
307,308,310,304,2
307,313,311,306,2
307,317,311,309,2
307,319,313,311,2
307,321,315,312,2
307,322,316,313,2
308,322,316,313,2
308,321,315,313,2
308,318,314,313,2
308,316,312,311,2
308,313,310,311,2
308,309,309,310,2
308,307,308,310,2
308,306,308,310,2
308,306,307,310,2
308,307,307,310,2
309,308,307,310,2
309,310,307,310,2
309,311,307,310,2
309,312,308,309,2
307,312,308,308,2
306,312,309,306,2
305,311,309,305,2
304,310,309,304,2
304,309,308,303,2
304,308,308,303,2
306,308,307,303,2
307,308,306,304,2
308,309,305,305,2
308,309,304,308,2
308,309,304,310,2
309,309,304,311,2
309,307,304,312,2
310,307,303,313,2
309,305,303,313,2
307,304,301,313,2
306,303,300,313,2
305,303,300,312,2
305,303,301,312,2
305,302,303,311,2
305,302,304,310,2
305,302,304,309,2
306,301,303,308,2
307,298,302,307,2
306,295,300,307,2
305,292,298,309,2
303,291,299,311,2
302,295,300,313,2
303,302,301,314,2
305,311,302,313,2
307,317,301,311,2
308,317,299,308,2
308,312,296,305,2
308,306,294,304,2
307,301,291,302,2
305,297,290,299,2
303,296,291,296,2
302,298,295,295,2
301,300,299,296,2
301,301,302,297,2
301,299,305,299,2
303,298,308,302,2
305,298,309,306,2
306,299,309,309,2
306,302,309,312,2
307,306,309,313,2
307,312,309,313,2
307,317,309,312,2
307,322,309,312,2
306,326,309,311,2
305,327,309,310,2
305,326,310,309,2
305,327,311,308,2
305,327,312,309,2
306,328,312,309,2
306,328,312,309,2
306,328,311,308,2
306,327,309,307,2
306,326,309,306,2
306,326,308,305,2
306,325,309,305,2
307,323,310,304,2
307,322,311,304,2
307,321,312,304,2
308,320,312,304,2
308,319,313,305,2
308,318,313,306,2
308,318,313,307,2
309,318,313,308,2
309,317,312,308,2
309,315,311,309,2
310,314,309,309,2
311,313,308,310,2
311,313,308,311,2
312,312,310,311,2
312,311,311,312,2
312,310,312,311,2
312,310,312,310,2
312,310,311,308,2
311,309,309,307,2
312,309,307,307,2
312,308,305,307,2
313,308,303,308,2
313,308,302,309,2
314,308,302,310,2
314,307,303,311,2
313,308,304,310,2
312,309,306,308,2
311,309,308,306,2
310,308,309,306,2
308,307,310,305,2
307,308,310,305,2
307,307,310,304,2
307,308,310,303,2
307,308,310,303,2
308,309,309,302,2
309,309,308,301,2
311,309,306,301,2
312,310,305,301,2
311,312,305,304,2
311,315,304,308,2
310,318,305,312,2
310,319,306,315,2
309,316,306,317,2
308,310,305,316,2
306,301,304,313,2
304,293,305,311,2
303,289,306,309,2
303,287,308,306,2
303,286,309,305,2
304,287,309,306,2
305,291,308,307,2
306,295,305,307,2
306,296,303,305,2
304,295,300,303,2
303,294,300,300,2
302,293,302,299,2
302,295,305,300,2
302,299,304,301,2
303,305,301,303,2
305,311,298,304,2
307,316,298,305,2
310,320,299,306,2
310,324,300,307,2
310,325,302,307,2
309,325,305,308,2
308,323,309,308,2
307,321,311,307,2
307,320,313,307,2
306,318,314,306,2
306,318,314,306,2
307,317,314,305,2
307,316,314,304,2
307,315,313,303,2
306,314,311,303,2
306,313,310,303,2
305,311,310,303,2
304,308,310,304,2
304,304,310,304,2
303,299,309,305,2
303,298,309,308,2
304,299,308,309,2
305,301,307,310,2
306,304,305,310,2
306,307,304,309,2
307,308,303,309,2
306,308,301,308,2
305,307,301,307,2
305,306,303,306,2
305,305,304,305,2
306,304,304,304,2
306,304,304,303,2
307,305,302,303,2
307,306,301,304,2
307,306,301,305,2
306,306,302,306,2
305,303,304,307,2
304,301,305,307,2
303,299,305,308,2
303,298,305,309,2
305,299,304,310,2
307,300,304,312,2
308,302,303,315,2
309,303,302,317,2
308,304,302,317,2
308,305,302,316,2
306,305,303,314,2
305,304,305,313,2
305,301,306,311,2
305,300,307,309,2
305,299,307,307,2
305,300,306,304,2
306,303,303,301,2
307,306,301,298,2
307,309,299,297,2
306,308,299,298,2
304,305,298,299,2
301,299,296,299,2
299,295,294,298,2
298,295,292,298,2
298,297,292,299,2
298,300,293,300,2
298,301,294,301,2
298,302,298,301,2
299,304,302,302,2
301,307,305,301,2
303,312,306,300,2
304,315,305,300,2
305,318,306,300,2
305,319,308,301,2
304,319,310,304,2
305,318,310,306,2
305,317,309,307,2
305,315,306,308,2
305,313,304,309,2
305,312,302,310,2
305,312,300,310,2
304,312,297,311,2
304,311,293,311,2
304,310,291,311,2
304,309,290,311,2
304,308,289,310,2
303,308,288,310,2
302,307,289,309,2
301,308,292,309,2
300,308,297,309,2
300,307,300,308,2
301,306,304,307,2
301,304,307,306,2
302,303,309,308,2
304,303,310,310,2
305,303,312,312,2
307,304,313,313,2
308,302,312,313,2
307,299,311,312,2
305,296,310,312,2
304,296,308,313,2
304,297,306,314,2
303,298,304,314,2
303,300,302,314,2
302,299,301,316,2
303,297,302,316,2
303,292,303,316,2
303,288,303,314,2
303,286,303,312,2
303,288,303,309,2
304,294,304,309,2
304,301,305,309,2
305,308,306,308,2
305,313,306,308,2
305,316,305,308,2
306,317,306,307,2
306,314,306,307,2
305,311,306,308,2
304,308,307,308,2
303,306,307,308,2
302,305,305,309,2
302,305,303,309,2
302,302,301,310,2
302,300,299,309,2
302,302,299,310,2
302,307,300,311,2
304,312,301,311,2
308,318,302,311,2
310,322,302,311,2
309,326,303,312,2
307,326,306,314,2
304,322,309,316,2
302,316,310,317,2
302,313,311,317,2
302,312,310,317,2
303,314,310,317,2
304,316,308,316,2
304,317,307,315,2
304,315,307,312,2
303,312,305,310,2
303,310,304,308,2
302,307,304,307,2
302,305,305,308,2
303,304,307,309,2
303,303,308,310,2
304,303,309,312,2
304,302,311,312,2
304,300,313,311,2
304,299,313,310,2
304,299,312,309,2
304,300,310,309,2
305,302,309,309,2
305,303,309,309,2
306,304,308,310,2
305,304,308,311,2
304,304,308,311,2
303,302,309,311,2
302,300,309,309,2
301,299,307,309,2
300,298,307,309,2
300,299,307,309,2
301,300,307,309,2
301,303,306,308,2
301,305,304,307,2
302,306,303,307,2
303,305,301,306,2
302,306,300,305,2
302,307,299,305,2
303,307,298,306,2
303,308,299,307,2
302,308,300,308,2
302,308,302,309,2
303,309,304,309,2
304,307,306,309,2
304,306,307,309,2
303,304,307,310,2
302,304,306,310,2
302,304,305,311,2
302,306,304,310,2
304,309,303,309,2
305,311,304,307,2
306,311,305,306,2
306,307,305,305,2
306,302,305,306,2
305,297,304,308,2
305,292,304,309,2
305,290,303,310,2
304,295,302,309,2
305,303,303,309,2
305,310,306,307,2
305,315,308,306,2
303,318,307,304,2
302,318,307,303,2
301,318,307,302,2
302,317,308,302,2
303,317,307,302,2
304,318,305,303,2
303,318,304,304,2
303,316,303,305,2
302,314,303,305,2
302,310,304,305,2
301,308,305,306,2
300,307,305,305,2
300,306,305,305,2
301,307,305,306,2
303,309,305,306,2
303,311,305,308,2
303,313,305,310,2
303,314,305,311,2
302,315,304,312,2
302,315,304,312,2
303,316,304,313,2
303,318,303,314,2
304,320,303,315,2
306,320,302,316,2
309,320,302,318,2
311,318,302,318,2
310,315,304,317,2
308,311,307,317,2
305,306,309,317,2
304,302,310,315,2
302,298,309,311,2
302,294,306,306,2
300,291,302,302,2
300,291,299,301,2
302,294,300,302,2
303,299,303,303,2
303,303,307,305,2
301,305,308,307,2
299,307,309,308,2
299,308,310,309,2
299,307,310,308,2
300,307,308,305,2
300,307,305,303,2
300,307,302,301,2
300,308,300,301,2
300,308,299,300,2
300,308,299,301,2
299,307,298,302,2
299,304,298,304,2
300,300,298,305,2
301,297,298,305,2
302,294,299,306,2
303,295,301,307,2
304,300,305,308,2
305,305,309,309,2
305,310,311,309,2
306,314,311,309,2
306,316,311,308,2
306,317,310,307,2
306,318,309,307,2
306,318,310,307,2
306,316,310,308,2
306,315,311,309,2
306,312,312,310,2
306,311,312,311,2
306,309,312,311,2
306,308,312,311,2
306,308,311,310,2
305,306,311,310,2
305,305,312,310,2
305,305,311,310,2
304,307,311,310,2
304,309,310,309,2
304,309,309,308,2
303,309,309,305,2
303,308,309,304,2
303,305,310,302,2
304,302,309,302,2
305,297,309,304,2
306,292,307,307,2
307,289,307,311,2
308,289,306,314,2
309,292,306,316,2
308,297,307,316,2
307,303,309,315,2
306,308,312,313,2
306,312,312,312,2
307,315,311,312,2
308,317,310,311,2
309,318,308,310,2
308,317,306,308,2
308,315,304,307,2
306,311,302,307,2
304,307,299,308,2
302,302,296,308,2
300,297,293,308,2
300,296,291,307,2
302,298,291,307,2
303,300,293,307,2
304,301,295,307,2
304,301,297,307,2
303,303,299,307,2
303,305,303,307,2
304,308,306,307,2
305,310,307,307,2
306,311,308,308,2
306,312,309,309,2
305,313,311,310,2
306,314,312,309,2
306,314,313,308,2
307,313,313,307,2
307,312,313,307,2
307,311,312,308,2
308,310,312,308,2
308,307,310,307,2
308,304,308,307,2
308,303,306,308,2
308,304,306,309,2
308,305,306,310,2
308,306,306,312,2
309,307,306,313,2
309,307,307,315,2
310,308,307,317,2
310,308,306,318,2
311,307,305,318,2
312,306,306,317,2
311,304,308,315,2
311,300,307,312,2
310,295,306,310,2
310,290,305,309,2
310,285,303,308,2
310,283,300,306,2
310,282,298,305,2
311,285,298,305,2
312,289,299,306,2
313,295,302,307,2
315,300,305,307,2
316,303,307,308,2
316,306,305,308,2
314,307,304,308,2
313,309,305,308,2
312,313,308,307,2
312,317,310,307,2
312,322,312,308,2
313,326,312,309,2
314,327,313,310,2
314,326,312,310,2
314,321,312,310,2
314,316,310,309,2
314,312,308,308,2
313,308,307,307,2
312,305,306,305,2
311,302,307,305,2
311,302,307,304,2
310,303,306,303,2
309,306,306,302,2
309,310,307,302,2
309,314,307,302,2
308,317,306,302,2
308,319,307,302,2
308,319,307,302,2
308,317,308,303,2
307,314,308,303,2
307,311,308,303,2
306,307,308,304,2
305,303,308,304,2
305,300,308,305,2
305,298,308,306,2
306,297,309,307,2
307,296,310,308,2
308,295,311,309,2
307,294,311,311,2
305,293,310,312,2
302,294,308,312,2
301,297,307,313,2
302,299,306,313,2
303,301,304,312,2
303,304,303,310,2
303,308,302,309,2
303,313,301,307,2
303,316,300,305,2
302,317,301,305,2
301,317,301,304,2
301,317,300,305,2
302,317,300,306,2
304,315,300,306,2
305,313,300,306,2
305,309,300,305,2
304,305,299,303,2
302,302,300,301,2
300,302,302,300,2
299,304,305,300,2
299,308,306,300,2
299,312,307,301,2
299,315,309,302,2
300,317,309,304,2
300,317,309,307,2
301,317,307,309,2
303,317,306,312,2
305,316,305,314,2
306,315,302,315,2
305,313,299,314,2
304,312,299,313,2
304,311,302,312,2
304,311,303,313,2
305,311,301,313,2
304,311,298,313,2
303,310,296,312,2
303,307,296,312,2
303,303,296,310,2
302,298,298,308,2
302,296,299,307,2
303,297,301,306,2
304,301,304,305,2
305,305,304,304,2
306,308,304,303,2
305,309,304,301,2
304,309,305,301,2
304,309,305,301,2
303,308,306,301,2
303,307,307,302,2
303,308,307,302,2
303,309,305,301,2
303,310,304,301,2
303,310,303,301,2
304,311,302,302,2
305,312,301,302,2
307,311,302,302,2
307,308,304,302,2
308,307,305,303,2
310,309,306,305,2
311,313,306,306,2
312,317,305,306,2
312,318,303,305,2
310,317,301,306,2
309,311,300,307,2
309,303,301,310,2
310,298,302,311,2
311,297,304,311,2
312,299,306,311,2
312,301,308,310,2
312,304,309,311,2
313,306,310,311,2
313,308,311,312,2
314,309,312,312,2
314,309,312,312,2
312,309,310,312,2
311,310,309,309,2
311,310,307,306,2
312,310,306,302,2
312,309,305,300,2
311,309,304,298,2
309,308,304,298,2
307,308,303,299,2
306,307,303,300,2
306,307,303,301,2
305,307,303,303,2
305,306,304,305,2
305,306,305,308,2
305,305,305,310,2
306,304,305,312,2
306,304,304,313,2
307,304,303,314,2
308,304,303,314,2
309,304,303,315,2
310,304,304,314,2
310,303,305,313,2
310,301,305,310,2
310,297,304,307,2
309,291,303,304,2
307,285,304,301,2
306,280,306,300,2
306,278,307,300,2
305,279,306,302,2
305,283,306,303,2
306,290,305,305,2
307,299,303,308,2
308,307,301,311,2
308,312,300,313,2
309,314,302,313,2
311,314,305,313,2
311,314,307,312,2
310,315,308,312,2
309,317,309,313,2
308,320,311,314,2
308,322,311,314,2
306,323,309,313,2
305,322,306,312,2
305,319,304,310,2
304,315,303,309,2
303,311,304,308,2
301,305,304,305,2
301,302,306,302,2
302,300,309,301,2
304,301,313,302,2
305,302,316,304,2
306,302,318,306,2
306,302,318,307,2
305,303,316,307,2
304,304,314,307,2
304,304,312,307,2
303,305,310,306,2
302,305,309,306,2
302,308,309,306,2
303,313,309,306,2
304,318,308,306,2
304,320,308,306,2
304,319,308,307,2
303,314,308,307,2
303,308,308,307,2
303,302,309,306,2
302,298,308,305,2
302,297,309,305,2
303,298,309,306,2
304,301,309,308,2
306,306,310,310,2
309,309,311,312,2
311,309,311,312,2
312,307,311,312,2
314,302,311,311,2
314,298,310,310,2
313,294,310,309,2
310,291,309,309,2
307,291,309,309,2
306,292,309,310,2
305,292,310,311,2
305,291,311,311,2
305,292,313,311,2
304,293,313,310,2
304,294,313,309,2
303,294,311,308,2
302,294,310,308,2
302,294,308,308,2
301,296,305,308,2
301,298,301,307,2
301,300,298,306,2
301,300,299,305,2
302,302,303,306,2
303,304,307,307,2
304,307,309,308,2
305,309,308,308,2
308,311,307,308,2
309,312,306,308,2
310,313,304,308,2
310,313,304,308,2
310,312,304,309,2
308,312,306,310,2
307,309,310,311,2
306,307,313,311,2
304,304,315,311,2
304,301,315,309,2
302,298,314,307,2
301,296,313,305,2
301,295,312,304,2
301,296,312,304,2
301,297,312,304,2
302,300,312,304,2
302,302,312,304,2
301,306,313,305,2
302,310,312,306,2
303,313,311,306,2
304,315,307,307,2
305,316,303,307,2
306,317,298,307,2
305,316,294,307,2
304,316,294,306,2
303,317,297,306,2
300,318,300,305,2
299,318,306,305,2
297,317,311,304,2
296,313,314,303,2
296,306,314,302,2
296,302,315,302,2
297,299,315,302,2
298,298,315,304,2
299,299,314,304,2
299,300,312,304,2
299,300,310,304,2
298,300,308,304,2
298,301,307,304,2
299,302,307,305,2
300,305,308,307,2
301,309,311,309,2
302,313,313,312,2
303,315,315,313,2
304,316,315,313,2
303,313,313,311,2
302,310,311,309,2
301,306,310,308,2
300,302,309,307,2
299,300,309,306,2
299,298,309,305,2
299,296,309,304,2
300,294,310,303,2
301,293,309,302,2
300,293,308,302,2
299,294,308,301,2
298,297,307,301,2
298,297,306,302,2
299,297,305,302,2
298,296,305,302,2
298,294,306,303,2
298,293,309,303,2
298,294,311,304,2
299,297,312,304,2
299,299,311,304,2
299,301,310,304,2
300,303,308,304,2
300,304,306,305,2
300,305,304,305,2
300,308,303,306,2
301,311,304,306,2
301,313,306,306,2
302,316,306,306,2
302,317,306,307,2
301,317,306,306,2
300,315,306,306,2
300,312,306,305,2
300,311,305,306,2
301,310,305,306,2
301,309,305,306,2
301,307,305,305,2
301,305,305,304,2
302,304,304,302,2
302,304,305,301,2
302,303,305,301,2
301,302,306,300,2
301,302,306,300,2
302,301,307,301,2
302,300,307,302,2
303,300,307,304,2
304,301,308,305,2
304,303,307,307,2
305,306,306,307,2
306,309,304,307,2
306,312,300,306,2
307,315,298,304,2
309,317,296,303,2
310,316,296,302,2
309,314,296,302,2
308,312,297,303,2
308,310,299,304,2
307,308,301,304,2
305,307,304,304,2
304,305,308,304,2
304,305,311,305,2
303,306,312,306,2
302,308,311,306,2
302,310,309,306,2
302,311,310,305,2
303,310,311,304,2
304,308,312,305,2
304,307,314,306,2
304,306,314,307,2
303,304,314,308,2
303,302,314,308,2
303,299,316,309,2
304,297,318,308,2
305,297,318,308,2
306,298,316,308,2
307,301,314,308,2
307,304,313,309,2
307,306,312,310,2
307,307,311,311,2
307,307,312,312,2
306,308,312,313,2
306,311,311,315,2
307,317,310,315,2
307,322,309,313,2
307,326,307,311,2
307,326,303,308,2
305,322,301,304,2
304,318,302,303,2
305,313,304,303,2
306,308,305,303,2
307,304,307,304,2
307,301,308,305,2
307,299,310,306,2
306,299,312,306,2
306,300,313,306,2
306,301,314,306,2
307,303,314,305,2
307,305,314,306,2
309,308,314,306,2
310,310,312,305,2
312,312,310,306,2
312,312,308,307,2
311,312,306,308,2
309,311,305,309,2
310,310,306,309,2
309,309,307,308,2
308,309,308,306,2
306,306,308,304,2
304,304,307,303,2
303,301,305,302,2
302,299,304,303,2
302,298,303,304,2
302,298,304,307,2
302,297,305,309,2
302,298,307,311,2
302,299,308,311,2
301,300,308,311,2
301,301,306,309,2
301,301,304,308,2
301,302,303,307,2
301,304,303,305,2
301,305,302,304,2
301,305,301,301,2
301,303,300,300,2
301,300,300,300,2
302,297,301,300,2
302,295,301,300,2
302,297,300,299,2
302,300,300,299,2
303,304,300,299,2
304,306,299,299,2
304,308,299,300,2
306,309,299,301,2
307,309,298,303,2
307,308,298,304,2
306,306,300,306,2
305,304,304,307,2
305,303,309,306,2
304,302,311,304,2
304,302,311,302,2
302,301,310,301,2
301,304,307,300,2
302,307,306,301,2
302,309,304,301,2
302,311,301,301,2
303,311,298,301,2
302,308,295,300,2
301,305,295,299,2
300,301,300,300,2
300,297,309,302,2
301,295,316,304,2
302,297,319,306,2
303,299,318,308,2
305,302,316,308,2
306,304,314,309,2
307,306,312,308,2
307,307,309,307,2
307,309,306,307,2
307,308,304,305,2
306,306,303,304,2
305,305,303,303,2
306,305,302,304,2
306,305,301,305,2
307,305,303,307,2
307,306,305,309,2
307,307,306,311,2
306,308,307,313,2
306,309,308,312,2
306,312,309,312,2
307,316,310,312,2
309,319,310,310,2
310,320,309,309,2
310,320,309,307,2
310,317,309,304,2
309,315,310,302,2
309,315,310,301,2
308,316,311,300,2
308,318,313,300,2
307,319,313,301,2
307,317,313,303,2
308,315,312,305,2
308,313,312,306,2
309,312,311,307,2
310,310,310,308,2
310,309,309,308,2
309,307,308,308,2
307,304,306,307,2
306,301,307,307,2
306,299,310,307,2
307,299,312,307,2
307,297,313,307,2
307,295,313,307,2
307,290,313,307,2
307,286,311,308,2
307,282,311,308,2
308,280,310,307,2
309,281,309,307,2
311,287,306,306,2
312,295,303,306,2
311,302,302,306,2
311,308,299,305,2
311,310,297,304,2
311,309,295,303,2
311,305,296,302,2
311,300,297,303,2
312,297,299,304,2
312,294,301,304,2
310,294,303,304,2
309,295,307,303,2
308,298,310,304,2
308,303,312,305,2
309,309,313,306,2
310,315,312,307,2
310,317,312,306,2
309,318,311,305,2
308,317,310,304,2
306,315,310,303,2
304,313,308,303,2
303,311,306,303,2
303,309,306,303,2
305,307,305,304,2
305,306,305,305,2
306,306,306,306,2
305,305,306,306,2
305,304,306,307,2
306,304,306,308,2
307,303,305,309,2
307,302,303,309,2
306,301,300,309,2
305,300,300,309,2
304,300,303,309,2
305,301,306,309,2
307,303,308,310,2
309,304,309,310,2
310,304,309,311,2
309,304,308,310,2
308,304,307,309,2
307,303,307,308,2
306,303,308,306,2
305,303,308,305,2
304,302,308,304,2
303,300,308,303,2
303,298,307,300,2
302,295,306,298,2
302,293,303,296,2
304,292,301,297,2
304,294,301,298,2
304,300,301,299,2
304,306,300,300,2
305,310,299,302,2
307,312,297,302,2
309,312,295,303,2
309,313,295,304,2
310,314,296,305,2
311,315,299,306,2
311,315,303,306,2
310,314,307,307,2
309,312,311,308,2
308,310,314,310,2
307,309,316,311,2
306,310,317,312,2
306,312,317,313,2
306,314,316,313,2
306,315,314,312,2
306,315,312,313,2
307,314,309,313,2
306,312,307,315,2
305,310,306,315,2
305,307,307,315,2
305,305,311,314,2
305,301,311,313,2
305,301,312,313,2
306,304,313,314,2
308,307,314,316,2
309,311,314,317,2
311,315,313,319,2
312,316,313,320,2
312,316,312,321,2
313,316,312,321,2
312,315,312,321,2
311,312,310,320,2
310,309,308,319,2
309,306,305,317,2
309,303,303,316,2
310,300,301,313,2
310,299,299,311,2
309,298,298,309,2
308,296,299,308,2
306,295,303,305,2
305,294,307,301,2
305,293,309,299,2
305,293,308,299,2
305,295,306,299,2
304,297,305,300,2
303,300,304,301,2
302,302,303,301,2
302,303,302,302,2
302,304,302,303,2
303,307,303,304,2
303,309,303,305,2
303,312,303,307,2
303,314,303,309,2
304,315,304,311,2
305,316,304,311,2
305,318,302,311,2
305,319,299,311,2
304,320,297,310,2
304,320,296,310,2
304,319,297,312,2
305,318,300,313,2
305,318,302,313,2
306,318,304,312,2
307,318,305,310,2
308,319,307,308,2
307,318,307,308,2
305,316,307,308,2
303,313,307,309,2
302,311,306,309,2
302,309,304,310,2
302,308,303,309,2
302,308,302,308,2
301,308,301,308,2
302,307,301,309,2
302,306,302,309,2
302,305,303,309,2
302,305,304,309,2
302,306,304,309,2
302,307,305,310,2
302,308,306,312,2
303,308,306,313,2
303,307,307,315,2
304,306,307,316,2
305,303,306,316,2
304,301,305,315,2
303,299,303,313,2
302,301,302,312,2
302,304,302,311,2
302,304,301,309,2
301,301,301,308,2
301,296,301,307,2
302,291,305,307,2
302,286,309,308,2
304,283,311,309,2
306,284,312,309,2
307,288,311,309,2
306,293,309,306,2
305,297,307,303,2
304,302,304,301,2
304,307,302,299,2
304,312,299,299,2
305,315,298,300,2
306,317,297,301,2
307,318,296,301,2
308,318,294,302,2
308,317,295,302,2
308,316,296,304,2
308,316,299,305,2
309,316,304,308,2
310,316,307,311,2
310,315,309,313,2
309,314,311,313,2
309,311,311,314,2
309,307,310,313,2
309,305,308,313,2
308,303,306,312,2
307,302,304,311,2
305,303,303,310,2
304,304,303,310,2
304,307,304,310,2
305,309,303,310,2
306,310,302,309,2
306,310,299,309,2
306,310,297,309,2
305,309,297,309,2
304,309,299,309,2
304,310,302,310,2
304,310,306,311,2
304,309,310,311,2
304,308,313,312,2
304,305,314,312,2
304,303,313,312,2
303,301,312,310,2
303,300,309,309,2
302,300,306,307,2
302,301,304,307,2
301,301,304,307,2
300,301,303,307,2
300,300,302,305,2
300,299,299,304,2
299,297,297,302,2
300,296,296,303,2
301,293,296,304,2
300,288,295,305,2
299,283,295,306,2
299,281,299,306,2
300,284,305,306,2
303,291,310,306,2
307,300,313,305,2
310,310,314,305,2
311,318,314,307,2
311,323,314,310,2
310,325,314,313,2
309,325,314,315,2
308,326,313,315,2
308,326,311,316,2
307,325,309,316,2
305,324,307,315,2
304,322,307,314,2
302,318,310,313,2
302,315,313,312,2
302,313,314,312,2
303,312,312,311,2
304,312,311,312,2
305,313,309,312,2
306,314,307,311,2
306,313,304,310,2
306,311,302,307,2
305,309,301,305,2
304,306,301,303,2
304,304,300,301,2
304,302,301,300,2
304,300,302,301,2
305,298,304,303,2
306,298,305,305,2
307,300,306,307,2
307,303,306,308,2
309,306,305,309,2
309,308,305,309,2
308,307,304,309,2
308,306,304,309,2
308,305,304,308,2
308,303,304,307,2
308,303,304,306,2
307,304,304,307,2
307,304,305,307,2
307,303,306,308,2
308,302,306,309,2
308,300,306,310,2
308,299,306,310,2
308,299,304,309,2
307,299,302,307,2
306,301,298,308,2
305,304,294,310,2
304,306,293,312,2
304,307,293,315,2
304,307,295,316,2
304,307,296,315,2
304,307,298,314,2
304,307,301,313,2
304,307,304,311,2
303,307,307,310,2
303,307,308,309,2
304,307,309,309,2
304,307,309,309,2
305,308,308,309,2
306,308,307,310,2
307,309,308,311,2
307,310,308,313,2
308,310,309,314,2
308,311,307,315,2
309,311,302,314,2
309,311,297,313,2
309,310,294,313,2
310,309,294,314,2
311,308,298,314,2
311,307,303,313,2
310,307,309,312,2
309,307,314,310,2
308,307,316,309,2
307,306,316,309,2
307,304,315,309,2
307,302,314,310,2
306,300,311,311,2
307,299,309,312,2
307,301,306,313,2
308,306,304,313,2
310,311,304,313,2
312,316,305,313,2
313,319,306,313,2
311,320,307,312,2
308,319,308,310,2
306,317,309,309,2
305,315,310,307,2
305,314,310,307,2
304,313,309,306,2
304,314,309,306,2
304,314,310,307,2
305,315,311,309,2
304,314,311,311,2
304,313,310,313,2
304,312,309,313,2
303,310,308,312,2
303,307,306,309,2
301,304,305,306,2
300,301,304,304,2
300,299,304,304,2
301,297,305,305,2
301,296,305,306,2
302,298,306,307,2
302,301,306,307,2
302,303,306,305,2
301,304,304,304,2
301,302,302,302,2
300,300,302,301,2
299,298,301,300,2
298,295,300,299,2
298,295,299,298,2
299,297,297,296,2
299,299,296,294,2
300,303,296,294,2
301,305,297,295,2
301,307,298,297,2
301,309,301,299,2
302,311,303,301,2
302,311,305,302,2
303,309,306,304,2
303,306,306,306,2
304,305,306,307,2
304,305,306,309,2
305,307,305,312,2
306,309,305,313,2
306,311,303,312,2
305,312,302,310,2
304,313,300,307,2
303,314,299,305,2
303,317,301,304,2
304,320,303,303,2
304,323,304,303,2
305,325,304,304,2
305,325,304,303,2
305,326,304,302,2
306,326,304,299,2
305,324,303,296,2
304,321,303,294,2
304,319,302,294,2
303,318,301,294,2
304,317,300,294,2
304,318,301,295,2
305,320,302,297,2
306,323,302,298,2
305,325,301,301,2
305,324,301,303,2
305,321,303,307,2
307,317,306,310,2
310,312,308,312,2
313,308,309,312,2
313,305,310,312,2
311,303,310,311,2
308,300,312,310,2
305,299,314,309,2
304,298,316,309,2
304,298,317,309,2
303,297,318,308,2
302,296,317,308,2
301,296,316,307,2
302,296,315,307,2
302,294,313,307,2
303,292,311,308,2
303,289,308,311,2
303,287,307,311,2
302,285,306,310,2
301,286,305,309,2
302,289,305,307,2
302,294,304,305,2
302,300,302,304,2
303,306,301,303,2
304,312,303,304,2
306,317,305,307,2
308,320,308,309,2
309,322,310,310,2
310,322,310,310,2
311,321,309,309,2
310,320,307,308,2
310,318,307,308,2
311,317,307,308,2
312,314,308,308,2
312,311,308,308,2
311,307,308,308,2
309,305,307,308,2
307,303,307,306,2
304,302,307,305,2
304,304,308,306,2
304,306,310,308,2
304,309,312,310,2
305,311,313,312,2
306,311,314,311,2
307,311,314,311,2
307,312,313,310,2
307,312,313,310,2
308,311,311,311,2
309,310,310,312,2
310,310,309,313,2
311,311,309,314,2
313,311,309,315,2
313,309,308,315,2
312,304,307,316,2
311,298,306,316,2
310,294,305,315,2
309,291,306,313,2
309,293,306,309,2
308,297,307,306,2
308,304,307,303,2
308,308,307,302,2
308,309,306,300,2
307,308,305,300,2
305,305,304,300,2
304,303,305,300,2
303,302,304,299,2
303,304,300,299,2
304,308,294,298,2
305,311,290,298,2
305,313,289,297,2
306,315,290,297,2
305,317,294,299,2
305,318,300,303,2
306,319,306,306,2
308,318,310,310,2
309,316,313,311,2
312,314,316,312,2
314,313,318,312,2
313,314,319,314,2
311,314,318,314,2
309,313,317,315,2
307,310,316,314,2
306,307,315,313,2
305,305,313,311,2
306,304,311,309,2
306,304,309,307,2
306,305,305,306,2
306,306,303,305,2
306,307,301,304,2
306,308,300,305,2
306,309,300,306,2
307,308,300,307,2
307,307,301,307,2
307,306,302,307,2
306,303,304,308,2
305,302,305,308,2
305,301,305,308,2
305,300,307,309,2
306,299,308,310,2
306,299,309,311,2
307,299,309,312,2
306,297,310,312,2
305,296,310,312,2
304,293,312,313,2
305,292,313,313,2
305,292,314,312,2
304,297,313,310,2
305,303,313,308,2
305,308,313,308,2
305,313,313,309,2
305,316,312,309,2
304,319,311,309,2
304,321,309,309,2
303,321,307,310,2
303,320,305,310,2
303,319,302,310,2
302,317,298,311,2
302,314,295,312,2
301,311,294,313,2
301,309,295,313,2
301,306,297,313,2
302,303,298,312,2
302,301,298,310,2
302,302,299,308,2
304,304,299,308,2
304,307,300,309,2
303,308,301,309,2
301,309,302,309,2
300,308,302,308,2
299,307,301,308,2
298,305,300,308,2
296,304,299,308,2
295,302,300,308,2
296,300,304,309,2
297,299,307,309,2
297,300,307,310,2
299,302,306,310,2
300,305,303,311,2
301,306,301,311,2
301,305,300,312,2
301,304,301,312,2
300,302,302,311,2
299,301,304,311,2
299,302,306,312,2
299,303,308,313,2
299,303,310,314,2
300,302,311,314,2
301,300,312,314,2
303,299,312,314,2
304,299,313,314,2
304,300,312,314,2
303,300,311,313,2
302,299,309,310,2
302,298,308,308,2
302,298,307,306,2
303,299,306,306,2
304,299,304,305,2
304,298,302,304,2
304,297,302,304,2
305,297,303,303,2
305,299,303,302,2
305,303,303,300,2
305,307,303,299,2
304,310,303,299,2
304,313,303,300,2
304,314,304,302,2
305,315,304,305,2
307,316,305,309,2
308,316,306,313,2
310,316,307,316,2
310,315,307,317,2
310,314,306,317,2
309,313,305,317,2
308,310,304,316,2
307,306,304,316,2
307,305,304,315,2
306,304,302,314,2
305,305,301,313,2
305,306,299,313,2
304,307,298,313,2
304,308,299,313,2
304,307,301,313,2
303,304,303,313,2
303,300,303,313,2
302,297,304,313,2
301,295,305,313,2
301,297,305,311,2
301,300,306,309,2
301,304,306,307,2
301,307,306,305,2
301,309,304,302,2
301,310,303,300,2
301,310,303,298,2
301,310,303,297,2
301,309,304,297,2
302,308,305,297,2
302,308,306,297,2
302,308,307,299,2
302,308,309,301,2
302,309,309,303,2
301,309,308,304,2
300,307,306,304,2
299,305,304,304,2
297,304,304,304,2
297,303,303,304,2
296,302,303,304,2
296,303,303,304,2
297,304,302,304,2
298,305,300,305,2
299,303,299,305,2
300,301,298,305,2
301,299,298,304,2
301,301,301,302,2
302,305,302,300,2
302,312,302,299,2
302,319,302,298,2
302,322,303,298,2
300,321,304,298,2
299,317,305,298,2
297,312,304,298,2
296,307,303,298,2
295,301,304,299,2
295,298,308,300,2
296,295,311,301,2
297,295,312,302,2
298,297,311,302,2
298,302,308,301,2
299,305,306,300,2
300,306,306,299,2
302,305,305,298,2
304,304,303,298,2
305,303,301,298,2
304,301,298,299,2
303,300,297,299,2
302,303,298,301,2
303,308,301,304,2
303,313,305,307,2
304,316,309,311,2
304,319,313,314,2
305,320,314,317,2
305,318,313,319,2
305,315,312,321,2
304,312,310,323,2
303,309,310,324,2
303,307,311,324,2
303,306,311,322,2
303,304,310,319,2
301,304,308,315,2
300,307,305,312,2
299,311,303,309,2
298,314,301,309,2
299,316,301,311,2
299,317,301,313,2
301,316,300,314,2
301,314,299,315,2
301,312,299,315,2
301,311,299,315,2
303,312,301,316,2
304,312,303,316,2
304,311,303,315,2
305,308,302,312,2
305,305,302,311,2
304,301,303,310,2
304,298,305,311,2
303,295,307,312,2
303,291,309,313,2
302,288,310,312,2
302,287,310,312,2
303,291,310,311,2
303,297,310,311,2
304,305,311,312,2
305,311,311,313,2
305,315,311,312,2
305,316,309,310,2
305,314,307,308,2
304,311,305,306,2
303,308,302,304,2
302,306,301,304,2
302,304,301,303,2
302,304,301,303,2
302,304,301,302,2
303,305,300,301,2
303,306,301,300,2
301,307,300,299,2
300,307,299,297,2
299,304,300,294,2
299,299,303,293,2
299,294,306,293,2
299,291,307,294,2
300,291,308,295,2
300,294,309,297,2
301,299,312,298,2
302,303,314,298,2
302,306,315,300,2
304,309,314,301,2
305,310,312,302,2
306,309,310,303,2
307,308,310,303,2
309,303,310,303,2
309,299,309,302,2
310,295,307,301,2
311,295,305,300,2
310,297,304,300,2
308,300,302,300,2
307,302,300,301,2
307,303,299,302,2
308,303,297,303,2
307,301,296,304,2
306,299,296,304,2
305,299,298,305,2
304,301,301,305,2
305,304,304,305,2
306,308,307,305,2
305,310,309,306,2
305,313,310,307,2
305,313,311,308,2
305,310,311,309,2
305,306,310,309,2
306,303,308,309,2
308,302,307,308,2
308,303,304,308,2
307,305,301,308,2
306,307,301,308,2
304,309,302,308,2
304,311,306,308,2
305,311,308,307,2
305,312,310,307,2
307,313,312,307,2
309,316,313,307,2
309,316,314,307,2
308,316,314,307,2
307,314,312,306,2
305,311,309,304,2
303,307,305,303,2
303,305,303,300,2
303,304,300,299,2
303,304,298,298,2
303,305,296,298,2
303,306,295,299,2
303,306,295,300,2
303,304,296,301,2
303,303,299,302,2
304,303,301,303,2
304,303,304,304,2
305,304,308,305,2
305,305,311,307,2
305,304,313,308,2
305,303,313,309,2
305,302,311,310,2
306,301,310,311,2
307,302,309,311,2
308,304,308,312,2
309,308,307,312,2
310,314,307,313,2
311,320,307,314,2
311,323,308,313,2
310,320,310,311,2
309,314,312,309,2
307,307,313,307,2
305,301,314,307,2
305,298,315,308,2
305,298,316,308,2
305,301,316,308,2
305,303,314,308,2
306,304,312,308,2
305,303,309,307,2
303,302,307,306,2
303,300,306,305,2
303,298,307,304,2
303,297,307,303,2
304,298,307,302,2
305,299,307,302,2
307,301,306,303,2
309,301,304,303,2
310,301,302,304,2
309,302,299,305,2
307,302,298,308,2
306,303,299,309,2
305,303,299,310,2
305,302,297,309,2
304,301,296,309,2
303,300,298,308,2
302,300,305,308,2
302,301,313,309,2
304,303,318,311,2
306,306,321,312,2
307,311,323,313,2
307,313,323,312,2
306,314,322,311,2
305,314,320,310,2
304,312,319,311,2
304,309,318,311,2
304,306,317,310,2
304,305,315,310,2
304,306,315,310,2
306,308,315,309,2
308,310,315,310,2
310,312,314,310,2
311,314,313,311,2
310,313,312,311,2
310,311,310,311,2
309,310,309,311,2
307,310,309,310,2
306,309,308,308,2
304,306,307,307,2
303,303,307,305,2
303,300,307,304,2
303,301,308,303,2
304,304,307,303,2
305,307,307,304,2
305,310,307,304,2
305,310,307,303,2
305,311,307,302,2
305,310,308,302,2
305,310,309,302,2
306,309,309,303,2
308,309,309,305,2
308,310,309,307,2
308,311,308,309,2
310,313,307,310,2
312,314,307,311,2
314,315,308,312,2
315,314,307,313,2
316,313,307,313,2
315,310,305,313,2
313,307,303,314,2
311,306,301,313,2
309,306,301,313,2
308,305,303,312,2
307,305,304,313,2
307,304,303,313,2
307,304,302,314,2
308,305,302,316,2
309,306,303,318,2
310,308,305,320,2
310,310,307,320,2
310,314,309,319,2
310,317,310,317,2
310,317,310,314,2
310,313,309,311,2
310,307,308,308,2
310,301,306,306,2
312,297,304,305,2
313,295,302,305,2
312,295,302,306,2
310,295,303,308,2
308,297,305,310,2
308,300,307,311,2
308,302,308,312,2
309,304,308,313,2
309,305,307,314,2
309,304,306,314,2
309,301,305,313,2
309,298,305,311,2
308,296,306,311,2
307,294,308,310,2
305,293,310,310,2
304,294,311,310,2
304,297,313,311,2
304,301,313,312,2
305,306,312,313,2
304,308,309,314,2
303,307,306,315,2
301,305,303,315,2
300,302,303,313,2
300,299,303,310,2
300,301,305,308,2
302,304,307,307,2
304,307,309,306,2
305,307,310,308,2
306,307,312,311,2
307,306,312,315,2
307,304,312,316,2
308,303,311,316,2
308,302,309,315,2
309,302,307,313,2
309,302,305,312,2
309,300,305,312,2
308,297,305,311,2
307,296,304,310,2
307,298,302,310,2
308,302,303,309,2
309,307,306,310,2
311,311,308,311,2
311,314,307,310,2
311,315,305,309,2
310,314,304,308,2
310,315,303,308,2
309,315,302,308,2
310,316,303,307,2
310,318,305,306,2
309,319,306,304,2
308,320,308,303,2
307,320,311,303,2
306,320,311,304,2
307,318,310,306,2
306,316,307,307,2
306,313,304,307,2
305,309,302,308,2
305,304,301,308,2
305,299,302,308,2
305,296,303,307,2
304,295,304,305,2
303,297,304,301,2
302,300,303,299,2
302,301,303,297,2
303,300,303,295,2
303,299,302,292,2
304,298,301,290,2
306,298,301,289,2
307,298,302,290,2
309,299,302,292,2
310,300,304,295,2
310,303,305,298,2
310,306,306,301,2
310,309,307,302,2
310,311,309,304,2
311,312,309,307,2
312,314,309,309,2
313,315,309,311,2
313,316,309,312,2
313,315,309,312,2
311,313,309,311,2
311,309,308,309,2
313,306,306,309,2
315,305,306,308,2
313,305,306,308,2
311,306,306,308,2
310,309,307,308,2
309,311,309,308,2
308,313,311,309,2
308,314,310,308,2
306,313,307,307,2
305,311,303,306,2
305,310,303,306,2
306,308,304,305,2
307,307,306,303,2
306,306,308,301,2
306,305,309,299,2
305,304,309,298,2
305,303,308,298,2
305,303,308,298,2
304,303,307,298,2
305,304,307,298,2
304,304,306,298,2
303,304,305,298,2
303,306,304,300,2
303,308,304,302,2
304,311,304,305,2
305,312,306,307,2
307,312,308,307,2
307,311,309,307,2
307,308,309,306,2
307,306,309,304,2
307,305,309,304,2
308,306,309,303,2
308,310,309,303,2
308,312,308,302,2
308,311,307,301,2
307,308,307,302,2
307,304,306,304,2
307,300,305,308,2
307,299,306,311,2
307,300,307,314,2
307,303,307,317,2
307,305,307,319,2
307,307,307,320,2
306,308,306,320,2
306,308,304,320,2
307,308,303,319,2
307,308,302,318,2
307,308,304,317,2
307,306,305,316,2
307,305,308,315,2
308,303,310,314,2
309,302,311,313,2
310,301,311,313,2
311,301,310,313,2
311,304,310,313,2
312,307,309,313,2
312,309,310,312,2
311,309,310,311,2
310,308,310,310,2
309,307,310,309,2
308,306,309,308,2
307,306,309,307,2
305,308,308,307,2
305,308,308,306,2
304,309,308,305,2
304,310,309,304,2
304,310,310,304,2
304,311,309,304,2
303,312,307,304,2
304,312,306,304,2
305,309,306,304,2
305,304,306,304,2
305,297,307,305,2
303,291,308,306,2
301,287,309,308,2
300,287,307,309,2
301,289,305,309,2
302,293,302,308,2
303,298,299,307,2
303,302,297,305,2
302,305,295,303,2
301,306,296,303,2
301,307,299,303,2
301,308,302,304,2
302,309,303,305,2
302,310,303,305,2
302,310,302,303,2
302,310,302,302,2
303,310,302,300,2
304,311,302,300,2
305,311,302,299,2
306,311,302,300,2
307,311,302,302,2
309,311,302,304,2
309,310,300,305,2
310,311,299,306,2
310,314,298,307,2
310,317,297,307,2
309,319,295,308,2
308,320,294,309,2
308,321,296,311,2
308,320,299,313,2
308,318,305,315,2
308,315,310,315,2
308,311,312,314,2
307,307,312,313,2
306,304,311,312,2
306,302,310,311,2
306,301,310,311,2
306,301,310,311,2
308,302,310,311,2
308,303,310,310,2
307,304,308,308,2
306,304,308,306,2
305,303,309,305,2
306,303,309,305,2
306,302,308,306,2
306,301,306,308,2
306,299,305,310,2
306,297,302,313,2
307,294,300,314,2
307,293,298,315,2
307,295,296,315,2
306,299,294,314,2
306,303,294,314,2
306,307,296,314,2
306,310,299,314,2
305,311,304,312,2
304,311,307,310,2
304,310,308,310,2
305,308,309,310,2
305,307,309,310,2
305,305,308,311,2
304,302,307,311,2
303,297,308,312,2
303,294,312,311,2
303,292,314,311,2
304,294,315,311,2
305,299,315,310,2
305,304,315,310,2
304,309,314,310,2
304,314,313,310,2
305,319,311,309,2
307,322,308,309,2
307,325,305,307,2
307,326,304,306,2
307,326,304,306,2
306,323,304,305,2
305,320,304,304,2
304,316,303,304,2
303,312,304,303,2
303,311,304,302,2
303,310,305,302,2
304,310,306,302,2
304,310,306,302,2
304,310,306,301,2
304,309,306,300,2
305,308,305,300,2
307,307,304,300,2
309,304,303,301,2
309,302,302,302,2
308,300,302,304,2
306,299,302,304,2
306,299,303,306,2
306,299,305,307,2
307,299,306,309,2
306,300,308,312,2
306,302,310,315,2
305,303,310,317,2
304,304,310,318,2
304,304,310,318,2
304,305,310,318,2
304,305,310,316,2
304,304,310,313,2
303,304,309,310,2
303,306,308,307,2
302,310,308,306,2
302,313,307,305,2
302,316,307,306,2
302,317,307,306,2
302,317,307,305,2
302,316,305,303,2
302,313,304,303,2
301,311,303,302,2
301,308,302,303,2
300,305,302,303,2
299,304,302,304,2
298,304,303,304,2
299,305,303,303,2
298,306,303,301,2
299,308,301,300,2
300,308,298,298,2
301,308,296,297,2
301,308,293,296,2
302,306,290,298,2
303,306,289,302,2
305,308,291,307,2
306,312,294,311,2
307,314,299,314,2
307,315,303,316,2
307,316,307,317,2
307,315,309,319,2
308,314,310,320,2
308,312,309,321,2
308,309,308,319,2
307,305,307,318,2
305,302,309,316,2
304,298,313,315,2
305,297,316,314,2
305,298,317,314,2
306,300,316,314,2
307,306,315,314,2
308,311,314,314,2
308,316,313,313,2
308,319,313,313,2
307,320,313,313,2
305,318,312,313,2
305,314,313,313,2
304,310,313,313,2
305,308,312,313,2
305,307,311,312,2
305,307,311,311,2
305,307,311,310,2
304,306,312,309,2
303,303,312,308,2
301,298,310,308,2
300,294,310,308,2
299,291,310,308,2
299,290,309,308,2
299,291,307,308,2
302,294,306,308,2
304,297,306,307,2
306,300,307,306,2
309,303,309,306,2
310,306,311,306,2
310,309,313,308,2
310,312,314,311,2
311,314,315,313,2
311,315,316,316,2
311,315,316,317,2
311,315,315,317,2
309,314,314,317,2
308,313,313,315,2
306,312,312,313,2
305,310,311,310,2
304,308,310,308,2
304,305,310,307,2
304,302,309,306,2
305,298,308,306,2
305,296,306,305,2
305,295,304,304,2
305,294,302,303,2
305,296,301,304,2
305,300,302,304,2
305,304,302,304,2
305,308,303,304,2
306,310,303,303,2
306,309,304,303,2
306,308,305,302,2
307,304,305,301,2
307,300,306,300,2
307,296,305,300,2
307,293,304,300,2
307,291,303,301,2
307,290,301,303,2
308,289,298,304,2
308,290,296,306,2
309,291,294,307,2
308,292,292,309,2
307,292,291,309,2
306,294,292,308,2
305,297,294,307,2
306,302,299,307,2
308,307,304,309,2
308,311,307,310,2
307,313,307,310,2
306,314,310,311,2
308,314,312,312,2
309,314,313,313,2
310,315,314,315,2
311,315,315,316,2
310,314,317,316,2
309,314,319,316,2
308,313,320,317,2
308,312,319,316,2
309,310,316,316,2
310,309,314,313,2
310,306,312,312,2
311,306,312,311,2
312,307,312,311,2
312,309,311,310,2
312,312,308,308,2
312,314,306,307,2
312,313,305,305,2
312,312,305,305,2
312,310,306,304,2
312,309,307,304,2
311,309,309,304,2
311,309,310,304,2
310,309,310,303,2
308,309,309,302,2
307,308,306,300,2
307,306,306,298,2
306,304,306,298,2
307,300,306,298,2
307,296,307,299,2
308,295,309,301,2
307,297,311,302,2
306,300,314,302,2
305,303,316,304,2
307,304,317,306,2
310,301,317,309,2
311,297,316,312,2
310,292,315,314,2
308,290,312,314,2
306,291,310,314,2
305,292,309,313,2
305,294,308,312,2
305,297,307,309,2
306,301,307,305,2
307,307,307,302,2
307,314,308,299,2
308,319,308,299,2
308,322,308,299,2
308,323,308,300,2
307,322,309,303,2
306,321,310,305,2
306,318,312,306,2
304,317,314,306,2
304,316,316,305,2
304,315,315,305,2
305,315,315,304,2
305,314,314,303,2
306,314,313,303,2
307,314,312,303,2
308,313,311,302,2
308,312,310,301,2
308,310,308,300,2
307,309,306,298,2
306,307,304,297,2
306,306,303,297,2
306,306,302,298,2
306,306,303,299,2
306,306,303,299,2
306,307,303,301,2
306,308,303,302,2
306,308,301,304,2
306,309,300,306,2
306,310,299,309,2
305,310,298,310,2
305,309,298,311,2
304,308,299,311,2
304,306,301,311,2
306,305,304,312,2
309,305,306,311,2
310,305,307,309,2
309,305,308,307,2
308,306,311,306,2
306,307,314,306,2
305,310,317,307,2
305,312,318,307,2
306,311,318,307,2
305,306,317,305,2
304,299,314,303,2
304,294,312,302,2
304,290,311,303,2
304,288,310,304,2
303,285,310,305,2
301,281,310,306,2
299,279,309,306,2
297,278,307,305,2
296,279,305,302,2
296,284,305,299,2
297,292,306,298,2
299,301,308,299,2
301,307,309,301,2
303,311,310,302,2
304,314,309,303,2
304,314,308,303,2
304,313,306,304,2
305,311,305,306,2
307,310,307,308,2
308,309,309,309,2
308,309,312,310,2
308,309,313,309,2
307,311,314,309,2
307,312,313,309,2
306,313,313,309,2
306,314,311,310,2
306,314,310,311,2
306,314,310,312,2
307,314,310,313,2
306,313,310,314,2
306,311,310,314,2
305,308,310,314,2
304,304,310,312,2
303,303,311,311,2
304,304,312,311,2
305,306,312,311,2
305,307,312,311,2
305,308,310,310,2
306,307,308,310,2
305,306,308,309,2
305,303,308,308,2
305,301,309,307,2
307,301,309,306,2
307,303,308,305,2
308,304,308,304,2
307,305,306,303,2
305,306,305,302,2
304,306,307,302,2
303,306,312,302,2
303,306,315,304,2
304,305,316,307,2
306,304,315,309,2
307,302,312,309,2
308,298,309,309,2
309,294,306,310,2
308,290,304,310,2
306,289,302,311,2
305,289,302,312,2
304,292,304,312,2
305,296,306,312,2
305,300,306,311,2
305,305,304,311,2
305,308,302,310,2
305,311,300,311,2
306,310,299,313,2
306,308,298,315,2
307,304,299,315,2
307,302,302,315,2
307,302,306,313,2
306,302,309,310,2
304,303,313,308,2
302,306,315,305,2
303,311,315,304,2
303,315,315,303,2
303,315,313,302,2
304,313,312,303,2
304,310,310,303,2
304,308,309,304,2
304,306,307,304,2
304,305,307,305,2
304,304,306,306,2
304,304,306,307,2
304,303,304,308,2
303,303,305,309,2
302,304,307,310,2
302,307,311,312,2
303,311,312,313,2
304,315,311,314,2
304,317,308,314,2
305,317,304,313,2
305,317,300,313,2
306,315,298,313,2
305,313,299,314,2
306,312,301,313,2
305,313,304,312,2
303,313,306,311,2
302,314,310,310,2
301,314,312,309,2
300,313,312,308,2
300,311,310,308,2
299,309,308,307,2
299,308,305,307,2
300,307,305,308,2
302,306,306,310,2
303,305,310,313,2
304,304,314,314,2
304,305,316,315,2
303,306,319,314,2
302,309,322,313,2
301,311,323,312,2
301,312,322,311,2
301,312,319,311,2
301,312,316,312,2
302,311,314,313,2
302,311,311,313,2
302,311,307,312,2
301,312,303,311,2
302,315,299,309,2
302,316,297,309,2
303,317,298,310,2
304,315,300,311,2
304,311,303,312,2
304,307,306,312,2
304,303,308,312,2
303,300,311,310,2
304,300,312,307,2
305,302,312,305,2
307,306,310,304,2
307,310,309,303,2
306,314,308,304,2
306,315,308,305,2
305,316,308,304,2
305,315,307,303,2
304,313,307,302,2
303,311,306,301,2
303,309,306,300,2
303,308,306,299,2
303,306,307,299,2
302,304,308,299,2
302,303,308,300,2
301,301,307,301,2
302,300,306,302,2
302,300,306,304,2
302,301,305,305,2
302,301,305,306,2
302,302,305,306,2
304,304,306,307,2
304,308,305,306,2
304,312,304,306,2
304,313,303,304,2
304,314,302,303,2
303,313,301,301,2
302,311,300,301,2
302,312,302,302,2
302,315,304,304,2
303,318,305,304,2
303,322,305,303,2
303,324,305,300,2
303,323,303,298,2
304,319,301,298,2
304,313,299,298,2
303,308,297,299,2
303,304,296,301,2
304,301,299,302,2
304,300,301,304,2
306,300,301,305,2
306,300,299,306,2
306,299,296,305,2
305,298,294,302,2
305,296,293,300,2
304,293,295,298,2
304,292,296,297,2
303,291,296,299,2
303,293,297,302,2
304,296,299,306,2
304,299,302,310,2
304,301,305,312,2
304,302,308,313,2
304,302,309,311,2
305,301,309,309,2
304,299,310,308,2
304,298,310,308,2
304,295,310,309,2
304,295,310,310,2
304,296,311,310,2
304,299,310,312,2
304,302,310,312,2
305,304,309,313,2
306,305,308,313,2
307,305,309,313,2
308,305,310,313,2
308,304,310,313,2
307,301,311,313,2
307,298,310,313,2
306,295,308,312,2
305,293,305,310,2
304,292,303,310,2
303,293,302,310,2
304,296,303,310,2
304,299,304,311,2
303,303,306,312,2
303,304,308,312,2
303,306,311,311,2
303,305,315,310,2
302,305,318,308,2
301,306,318,307,2
302,307,317,307,2
303,309,315,307,2
305,310,313,308,2
306,309,312,308,2
306,307,309,308,2
306,304,308,308,2
307,301,306,307,2
307,297,305,306,2
306,294,303,306,2
303,293,303,306,2
302,295,305,306,2
302,295,309,307,2
303,297,312,308,2
303,299,315,309,2
303,303,316,310,2
302,309,316,310,2
302,315,314,310,2
302,320,312,308,2
303,323,309,307,2
303,324,307,306,2
303,321,305,305,2
302,315,304,304,2
301,309,303,305,2
301,302,304,306,2
300,296,306,307,2
300,291,307,307,2
299,286,308,306,2
300,284,306,304,2
300,284,304,304,2
302,287,303,303,2
303,292,304,302,2
303,299,304,302,2
303,305,305,302,2
302,309,305,302,2
302,311,306,303,2
301,312,306,303,2
300,313,307,302,2
301,313,307,302,2
301,313,308,302,2
302,313,309,302,2
303,311,309,302,2
304,311,309,302,2
304,310,309,303,2
305,310,309,305,2
306,310,309,308,2
307,309,309,311,2
307,309,309,313,2
307,308,308,314,2
306,306,305,315,2
306,302,303,315,2
305,300,301,314,2
305,300,301,313,2
305,300,302,311,2
304,300,304,308,2
303,298,305,306,2
302,296,306,304,2
302,295,307,303,2
302,295,309,302,2
303,297,310,302,2
304,298,310,303,2
305,299,310,303,2
306,300,307,302,2
306,301,304,301,2
306,302,300,298,2
305,302,296,297,2
305,304,293,296,2
305,305,290,297,2
305,307,289,298,2
304,307,290,301,2
304,306,294,304,2
304,304,299,307,2
304,302,303,309,2
303,301,304,310,2
302,299,305,310,2
301,300,307,311,2
302,302,309,311,2
304,305,311,311,2
306,308,311,310,2
307,309,310,309,2
308,309,308,307,2
309,306,308,306,2
311,303,308,305,2
313,301,308,305,2
314,299,308,306,2
312,298,308,307,2
309,298,308,308,2
307,299,309,309,2
306,301,310,310,2
306,302,310,310,2
306,301,310,310,2
306,301,310,308,2
307,303,309,307,2
307,309,308,305,2
306,317,307,305,2
306,324,306,306,2
306,328,306,306,2
306,328,306,307,2
305,325,306,309,2
306,322,305,310,2
306,320,305,311,2
306,318,304,313,2
306,316,302,314,2
306,314,301,314,2
307,313,300,315,2
307,311,299,316,2
306,310,297,317,2
304,307,297,317,2
301,303,298,317,2
300,299,301,318,2
300,295,304,320,2
302,294,307,321,2
304,293,309,321,2
306,293,310,318,2
307,293,311,314,2
306,293,310,310,2
305,296,309,307,2
304,301,308,304,2
305,307,306,302,2
305,312,304,301,2
305,314,303,302,2
305,315,303,304,2
306,315,304,307,2
306,314,306,309,2
306,313,307,310,2
306,311,306,310,2
306,309,305,309,2
305,308,303,307,2
304,309,301,305,2
305,310,300,304,2
305,310,299,303,2
304,309,300,302,2
303,307,302,301,2
302,305,304,302,2
302,303,305,302,2
302,301,304,301,2
302,300,304,300,2
303,302,303,299,2
303,304,302,300,2
303,307,301,302,2
304,311,301,303,2
304,314,301,305,2
304,316,302,307,2
305,317,303,308,2
305,318,304,309,2
305,317,303,309,2
304,316,300,310,2
304,315,297,310,2
303,313,295,310,2
302,312,296,310,2
303,310,299,311,2
304,307,303,311,2
304,304,304,311,2
305,302,306,311,2
305,300,306,311,2
305,300,306,312,2
305,301,307,312,2
305,303,306,312,2
304,303,305,312,2
303,302,305,311,2
302,299,304,310,2
300,294,303,309,2
299,291,303,309,2
300,290,303,310,2
301,292,303,311,2
302,296,302,312,2
302,298,299,314,2
301,299,295,314,2
300,299,293,314,2
299,302,294,313,2
299,306,298,311,2
300,312,301,309,2
301,317,304,307,2
303,322,305,305,2
304,325,307,304,2
305,325,308,304,2
306,322,308,304,2
306,318,309,303,2
306,312,311,303,2
306,306,312,304,2
306,300,313,305,2
306,296,313,306,2
305,293,313,308,2
304,293,313,309,2
304,296,312,310,2
303,299,311,311,2
303,304,309,311,2
304,311,306,311,2
306,319,304,311,2
309,326,301,311,2
312,329,298,311,2
312,328,296,312,2
311,324,295,312,2
310,319,295,311,2
310,315,297,311,2
310,312,300,311,2
309,310,301,311,2
308,310,302,311,2
307,311,303,310,2
305,311,304,311,2
303,311,305,311,2
302,310,306,312,2
302,309,307,312,2
302,308,307,312,2
302,307,307,313,2
302,305,310,314,2
303,303,315,315,2
303,302,317,316,2
303,302,317,317,2
303,303,316,317,2
302,305,313,316,2
303,307,311,316,2
303,310,310,314,2
303,312,309,312,2
304,312,308,310,2
305,310,308,309,2
305,308,307,307,2
306,305,306,305,2
306,302,305,304,2
306,300,305,304,2
306,300,304,305,2
306,300,305,307,2
305,301,305,309,2
306,303,305,310,2
307,305,303,311,2
306,307,300,310,2
305,308,297,310,2
305,309,297,309,2
306,311,298,309,2
307,312,299,308,2
307,312,299,305,2
305,309,298,301,2
303,307,297,298,2
301,306,296,297,2
301,306,298,299,2
301,308,302,303,2
302,309,306,307,2
303,308,308,309,2
304,308,308,311,2
306,307,308,313,2
307,307,309,314,2
309,307,310,314,2
310,308,310,312,2
310,307,309,308,2
309,305,307,306,2
308,302,304,304,2
308,298,303,305,2
306,296,303,306,2
306,294,304,307,2
306,295,304,308,2
307,299,304,309,2
309,305,305,309,2
311,310,306,309,2
312,315,307,309,2
313,318,306,309,2
312,317,306,310,2
312,315,307,311,2
312,312,308,313,2
312,311,309,314,2
312,311,310,314,2
311,311,311,313,2
309,312,311,311,2
307,311,309,310,2
306,311,307,308,2
306,309,305,307,2
305,306,304,304,2
303,301,302,302,2
302,298,301,301,2
301,298,301,301,2
301,299,305,301,2
301,299,308,301,2
302,299,308,301,2
303,298,306,299,2
304,296,304,298,2
306,295,304,298,2
308,296,305,298,2
310,298,306,300,2
310,299,306,301,2
310,301,308,303,2
309,302,309,305,2
309,303,309,307,2
308,302,310,309,2
308,302,311,310,2
308,302,311,311,2
308,304,312,311,2
308,308,313,312,2
309,312,315,312,2
309,314,315,312,2
309,314,315,312,2
308,312,314,312,2
308,309,313,313,2
306,305,312,312,2
305,302,311,311,2
304,302,309,310,2
305,304,309,310,2
306,306,308,310,2
305,308,307,309,2
304,309,306,309,2
304,309,306,309,2
305,308,307,308,2
306,307,307,308,2
307,307,307,308,2
307,306,306,309,2
307,304,306,309,2
308,305,306,308,2
308,307,308,307,2
308,310,310,307,2
308,312,311,308,2
307,313,311,308,2
306,313,311,309,2
306,314,311,309,2
306,313,311,308,2
305,312,310,308,2
305,309,307,309,2
304,305,305,310,2
303,302,304,311,2
302,300,305,311,2
301,301,307,312,2
302,304,309,312,2
303,308,312,313,2
305,311,314,312,2
305,313,315,311,2
305,312,315,309,2
304,309,314,309,2
302,303,313,308,2
301,298,310,307,2
301,297,308,306,2
302,301,305,306,2
304,308,303,305,2
306,313,301,304,2
306,314,300,301,2
305,311,299,299,2
303,306,299,296,2
301,304,301,295,2
301,302,304,295,2
302,302,305,296,2
303,303,305,298,2
304,304,304,299,2
304,305,303,300,2
303,306,302,301,2
303,306,301,302,2
304,304,301,303,2
306,303,301,304,2
307,302,302,305,2
308,301,301,307,2
308,300,300,310,2
308,300,299,311,2
309,300,299,313,2
310,300,300,312,2
311,301,301,312,2
309,301,302,311,2
306,302,303,311,2
303,302,305,311,2
302,304,308,311,2
301,305,309,311,2
301,307,309,312,2
301,309,307,312,2
301,311,305,313,2
301,313,304,313,2
302,313,304,312,2
302,313,305,311,2
302,312,307,309,2
303,311,309,309,2
304,310,310,309,2
304,309,310,309,2
303,308,310,308,2
302,309,309,308,2
302,310,309,308,2
302,310,308,308,2
302,310,307,307,2
302,309,307,306,2
301,307,308,305,2
301,305,307,303,2
301,301,305,301,2
302,299,302,300,2
303,300,301,298,2
303,302,301,298,2
304,304,300,298,2
304,305,297,298,2
305,305,294,299,2
305,304,291,301,2
306,303,291,303,2
307,301,294,305,2
307,298,298,307,2
306,297,303,309,2
305,296,307,311,2
303,295,311,312,2
302,294,313,311,2
301,295,313,309,2
302,297,313,308,2
302,299,313,307,2
303,304,312,306,2
303,308,311,305,2
303,312,309,303,2
304,316,307,302,2
305,320,305,303,2
306,321,304,303,2
307,320,304,303,2
308,318,305,304,2
308,316,307,305,2
307,314,308,305,2
306,312,309,305,2
306,310,312,305,2
305,308,315,305,2
305,306,315,306,2
305,304,313,306,2
304,304,310,306,2
305,305,310,306,2
305,308,312,306,2
306,310,313,307,2
307,311,314,307,2
307,311,314,308,2
307,309,312,309,2
307,307,310,311,2
307,305,309,312,2
307,304,307,312,2
307,304,306,312,2
308,306,306,312,2
308,307,306,312,2
309,309,306,312,2
310,310,305,312,2
310,310,304,311,2
309,311,304,311,2
307,312,305,310,2
306,312,307,309,2
305,312,309,309,2
305,311,310,310,2
305,309,311,311,2
305,308,312,312,2
305,307,311,312,2
304,308,310,311,2
305,308,309,310,2
305,308,308,308,2
306,307,306,305,2
306,306,303,303,2
306,305,300,301,2
306,304,298,300,2
306,303,297,299,2
306,304,298,297,2
305,305,300,297,2
305,306,302,297,2
304,306,305,299,2
306,306,307,302,2
307,304,309,303,2
309,303,309,303,2
309,303,310,304,2
307,306,311,305,2
306,308,312,305,2
304,309,312,305,2
302,308,312,304,2
302,303,312,304,2
301,298,311,304,2
300,292,311,305,2
300,287,308,306,2
300,286,304,305,2
300,289,300,304,2
301,294,298,304,2
302,300,298,304,2
303,306,302,304,2
304,310,306,306,2
305,311,309,307,2
306,312,311,307,2
307,311,312,307,2
306,311,312,305,2
304,310,312,304,2
302,308,311,305,2
302,306,310,305,2
302,305,309,307,2
303,304,308,308,2
304,305,308,309,2
304,307,309,308,2
304,309,310,307,2
305,313,311,306,2
305,316,311,305,2
305,318,310,304,2
306,318,310,303,2
306,315,308,302,2
305,313,307,301,2
304,310,305,301,2
303,307,305,302,2
304,306,305,304,2
305,304,306,306,2
305,303,306,308,2
306,302,305,308,2
306,302,303,307,2
306,301,301,307,2
306,302,299,307,2
307,302,296,307,2
307,303,294,307,2
306,303,295,307,2
305,305,299,307,2
305,309,304,307,2
306,312,308,307,2
307,315,309,306,2
308,317,310,304,2
309,316,310,302,2
310,312,310,300,2
310,305,310,299,2
310,298,311,298,2
309,291,311,299,2
308,288,312,299,2
306,289,313,300,2
306,291,313,301,2
305,296,313,302,2
304,299,312,304,2
304,304,312,306,2
306,309,311,308,2
306,312,311,309,2
306,313,309,309,2
306,314,307,308,2
307,316,305,307,2
307,318,302,307,2
306,318,298,306,2
305,317,294,304,2
303,315,295,303,2
303,314,298,301,2
304,312,302,301,2
304,311,306,300,2
305,310,308,299,2
305,310,308,298,2
305,310,307,297,2
305,311,305,297,2
305,311,305,297,2
306,311,306,299,2
308,311,306,302,2
311,312,305,304,2
312,313,303,307,2
311,314,301,310,2
311,315,299,313,2
310,315,297,313,2
309,313,296,312,2
309,310,296,311,2
308,306,297,310,2
306,300,299,309,2
303,294,304,308,2
302,291,311,308,2
301,291,315,307,2
303,296,316,305,2
305,302,316,305,2
306,307,315,303,2
307,309,314,303,2
306,309,314,303,2
305,309,316,304,2
304,310,317,304,2
304,311,315,305,2
305,313,313,306,2
307,314,310,307,2
308,315,308,307,2
308,315,307,305,2
309,315,307,304,2
310,315,308,303,2
310,316,309,303,2
311,315,309,302,2
310,312,308,301,2
309,309,307,299,2
309,307,306,298,2
308,306,304,297,2
308,304,302,298,2
308,301,302,300,2
308,298,301,303,2
308,297,302,305,2
307,297,304,306,2
306,296,306,306,2
306,295,307,306,2
305,293,306,305,2
303,292,304,305,2
301,290,301,306,2
300,291,300,308,2
300,293,300,310,2
300,298,301,311,2
301,303,301,310,2
302,308,302,310,2
303,310,302,309,2
304,310,301,309,2
304,307,301,309,2
306,302,302,309,2
307,299,306,309,2
308,299,309,309,2
309,303,311,308,2
308,310,313,306,2
308,317,313,304,2
308,322,312,302,2
307,323,311,300,2
307,324,309,299,2
306,323,308,299,2
306,322,308,300,2
306,321,307,300,2
307,320,306,301,2
307,318,305,301,2
308,317,304,301,2
308,316,304,301,2
309,315,305,301,2
309,314,306,302,2
310,313,307,303,2
310,310,307,304,2
309,308,307,305,2
310,307,308,307,2
310,306,308,309,2
310,305,309,309,2
309,305,310,309,2
309,305,310,307,2
309,303,311,305,2
308,303,311,304,2
308,303,310,304,2
309,303,309,303,2
309,303,307,303,2
310,302,304,302,2
312,302,304,302,2
313,302,304,301,2
315,302,303,301,2
314,302,305,302,2
312,302,306,303,2
310,300,306,304,2
308,298,304,306,2
307,297,303,307,2
307,296,303,309,2
306,294,305,312,2
304,291,308,314,2
303,288,311,316,2
302,288,312,318,2
303,293,310,318,2
305,298,309,317,2
305,304,308,316,2
306,310,309,314,2
306,315,310,313,2
306,318,312,313,2
306,320,313,314,2
306,320,313,314,2
305,318,312,315,2
305,316,312,315,2
305,312,312,314,2
306,308,312,313,2
305,305,312,312,2
303,302,311,311,2
302,301,309,310,2
301,301,308,307,2
301,302,306,306,2
302,303,304,306,2
303,303,303,307,2
304,304,303,307,2
305,306,304,308,2
307,307,306,307,2
309,309,308,307,2
309,309,309,307,2
309,308,309,307,2
308,307,308,307,2
307,305,307,307,2
306,303,306,307,2
306,302,304,306,2
306,300,302,304,2
306,299,300,301,2
306,298,296,299,2
305,298,292,298,2
305,300,291,299,2
304,302,293,300,2
304,303,293,302,2
303,303,294,304,2
303,303,297,308,2
303,304,302,313,2
303,305,308,317,2
305,307,311,319,2
305,307,311,319,2
304,305,309,318,2
304,303,307,318,2
304,302,307,318,2
305,299,308,318,2
305,296,309,317,2
304,292,310,316,2
304,288,311,314,2
304,288,311,313,2
306,291,312,312,2
308,296,312,310,2
309,301,311,308,2
309,304,308,305,2
308,306,305,303,2
308,308,300,301,2
308,309,297,301,2
308,309,295,301,2
308,311,296,303,2
308,313,296,306,2
308,317,297,307,2
308,320,298,308,2
307,321,301,309,2
307,321,303,311,2
306,320,306,313,2
305,319,307,313,2
304,316,308,313,2
303,313,308,313,2
303,312,308,312,2
303,311,308,312,2
304,310,308,311,2
305,309,308,310,2
307,308,306,309,2
309,307,306,307,2
309,307,305,307,2
308,307,305,308,2
306,308,305,308,2
306,308,304,309,2
305,308,304,310,2
305,307,303,309,2
305,305,301,310,2
305,305,299,309,2
305,305,298,310,2
306,306,298,312,2
306,306,298,313,2
306,305,298,313,2
305,303,298,315,2
304,303,297,316,2
303,304,296,315,2
303,306,294,312,2
302,306,293,308,2
301,304,294,304,2
301,303,299,304,2
301,301,304,304,2
301,298,307,306,2
302,296,308,308,2
304,295,309,310,2
304,296,309,310,2
305,298,309,311,2
305,301,307,312,2
305,305,305,313,2
305,307,302,314,2
305,308,300,313,2
306,307,298,311,2
307,305,297,309,2
308,302,298,308,2
308,300,301,307,2
308,299,304,306,2
306,298,307,306,2
306,300,309,306,2
305,303,309,307,2
305,305,308,308,2
304,307,305,309,2
303,306,304,312,2
304,307,304,314,2
305,310,304,315,2
306,313,304,315,2
307,315,304,314,2
307,315,304,312,2
308,315,303,311,2
309,314,302,310,2
310,313,300,310,2
310,311,298,309,2
308,308,296,309,2
307,306,295,309,2
307,306,296,309,2
306,308,297,310,2
305,310,298,310,2
305,312,299,310,2
304,312,299,309,2
303,310,298,309,2
303,308,295,308,2
304,308,293,308,2
304,309,292,308,2
305,310,293,308,2
305,311,295,308,2
305,310,297,307,2
304,309,298,307,2
303,307,300,308,2
303,305,302,310,2
304,303,304,312,2
304,301,306,313,2
305,299,308,314,2
306,299,310,315,2
307,299,313,316,2
307,300,314,315,2
307,301,314,313,2
306,303,313,311,2
305,304,312,309,2
303,307,309,306,2
302,309,306,303,2
301,312,306,302,2
302,314,307,302,2
303,314,308,303,2
304,314,310,306,2
306,312,312,308,2
307,310,313,310,2
308,309,313,311,2
309,309,313,313,2
309,310,313,313,2
310,311,311,314,2
310,312,311,314,2
312,313,310,314,2
313,312,309,314,2
314,311,307,313,2
314,310,305,312,2
311,309,303,311,2
309,308,302,311,2
306,308,302,312,2
304,308,301,313,2
303,307,298,314,2
301,306,295,315,2
299,302,293,314,2
297,298,294,313,2
297,295,299,314,2
297,293,305,315,2
299,291,310,317,2
300,291,315,318,2
302,294,319,319,2
304,300,321,319,2
304,307,321,319,2
304,310,320,319,2
304,310,319,319,2
304,309,318,318,2
304,310,317,316,2
304,313,315,313,2
305,315,312,311,2
305,317,309,309,2
306,317,307,308,2
305,316,306,307,2
305,314,305,307,2
306,314,304,307,2
306,316,303,308,2
306,317,302,309,2
306,317,304,309,2
307,316,307,309,2
307,315,311,309,2
307,314,313,309,2
307,313,314,310,2
307,312,314,311,2
307,309,313,312,2
308,307,312,313,2
308,306,310,314,2
308,304,309,313,2
308,304,309,312,2
308,303,310,311,2
307,303,309,310,2
305,302,309,308,2
304,303,306,308,2
304,305,303,307,2
303,308,301,308,2
304,312,299,308,2
306,314,299,308,2
308,313,300,308,2
309,310,301,308,2
309,307,304,308,2
309,306,307,309,2
309,306,309,309,2
310,307,311,309,2
311,310,313,310,2
311,312,314,309,2
310,313,314,308,2
310,313,313,306,2
308,312,313,306,2
307,311,313,306,2
307,308,313,309,2
307,306,314,312,2
308,301,315,315,2
309,295,316,315,2
308,288,315,314,2
307,286,314,311,2
306,288,311,308,2
306,294,307,307,2
306,300,304,306,2
306,304,301,305,2
305,307,298,304,2
305,309,298,304,2
305,310,301,305,2
307,312,306,306,2
308,313,309,308,2
309,313,311,308,2
309,313,311,308,2
308,312,311,306,2
306,312,312,306,2
305,312,312,306,2
304,313,313,307,2
304,313,313,308,2
304,313,313,309,2
305,313,312,308,2
305,311,311,307,2
305,309,309,305,2
307,307,308,304,2
309,304,307,304,2
310,301,307,306,2
308,298,307,309,2
306,297,308,312,2
304,297,307,313,2
302,298,305,312,2
301,299,304,310,2
301,301,303,309,2
300,300,303,308,2
301,300,304,308,2
302,299,304,308,2
301,298,303,307,2
300,296,303,308,2
299,294,306,309,2
299,292,309,311,2
300,291,312,313,2
301,291,314,314,2
301,292,315,315,2
300,296,315,315,2
299,301,314,314,2
300,308,313,314,2
302,315,313,313,2
304,319,313,311,2
305,322,313,308,2
307,322,313,306,2
307,318,313,305,2
308,313,314,304,2
310,308,314,304,2
310,304,312,303,2
310,302,309,301,2
309,301,307,299,2
308,301,306,299,2
308,300,305,300,2
308,300,306,302,2
310,300,308,303,2
311,300,310,305,2
310,299,312,307,2
308,298,312,309,2
306,300,310,310,2
305,302,309,310,2
304,305,308,310,2
303,306,307,311,2
303,306,305,311,2
304,303,304,312,2
305,300,304,311,2
305,297,304,312,2
305,296,305,310,2
306,299,306,308,2
306,304,306,306,2
306,309,305,304,2
306,312,303,302,2
306,313,301,301,2
305,313,300,301,2
305,312,301,302,2
307,310,305,303,2
307,310,312,305,2
308,310,316,307,2
308,310,317,308,2
307,311,316,308,2
307,311,314,308,2
307,311,312,307,2
306,311,310,306,2
306,310,309,305,2
305,311,307,304,2
305,312,306,304,2
305,312,307,303,2
304,312,307,302,2
303,311,308,302,2
303,308,309,302,2
303,306,310,303,2
302,305,310,304,2
303,307,311,305,2
302,310,311,306,2
302,313,311,307,2
303,316,313,309,2
304,319,313,310,2
305,320,312,310,2
305,320,312,310,2
305,320,311,309,2
305,319,310,308,2
305,317,309,306,2
304,312,307,304,2
304,308,306,302,2
304,306,305,301,2
304,307,305,302,2
304,307,305,304,2
305,308,307,307,2
306,308,309,309,2
307,307,312,312,2
307,306,313,313,2
308,305,313,315,2
309,304,313,316,2
310,303,312,316,2
311,303,311,315,2
312,306,310,313,2
313,310,310,312,2
311,315,309,311,2
308,317,309,309,2
305,314,309,308,2
302,312,310,307,2
301,309,310,307,2
300,307,310,309,2
300,305,308,311,2
301,303,305,312,2
302,299,303,312,2
302,296,303,311,2
303,295,304,310,2
304,296,305,309,2
303,299,304,307,2
302,303,304,306,2
302,309,305,304,2
302,315,307,304,2
302,321,308,305,2
303,326,307,305,2
304,328,305,305,2
304,328,303,305,2
304,328,304,307,2
304,326,306,309,2
304,325,310,310,2
304,325,313,311,2
306,325,316,310,2
307,325,317,310,2
308,325,316,311,2
309,323,313,311,2
308,319,311,311,2
307,315,309,311,2
306,313,310,310,2
305,312,311,310,2
305,310,311,310,2
304,311,311,309,2
304,313,310,309,2
305,317,308,308,2
305,320,306,307,2
306,321,303,306,2
307,318,301,305,2
307,313,300,304,2
306,307,300,305,2
304,303,300,306,2
301,300,300,307,2
300,299,300,307,2
300,298,300,307,2
300,298,300,307,2
301,297,300,307,2
302,296,301,306,2
302,296,304,307,2
303,296,306,309,2
304,298,308,310,2
304,299,310,312,2
304,299,312,313,2
303,298,312,313,2
301,296,312,314,2
300,293,310,313,2
299,288,310,313,2
299,284,310,312,2
301,280,309,313,2
304,280,307,312,2
306,283,304,309,2
307,288,303,306,2
306,293,302,303,2
304,295,303,301,2
304,297,303,299,2
304,298,303,298,2
304,299,305,298,2
304,302,305,298,2
303,306,304,297,2
302,311,303,298,2
301,315,302,299,2
301,318,303,301,2
301,318,305,302,2
301,318,306,305,2
302,319,306,307,2
303,319,306,310,2
304,318,306,312,2
305,316,305,311,2
305,313,304,310,2
305,312,301,307,2
305,311,299,304,2
304,311,300,302,2
304,312,304,302,2
304,312,308,302,2
303,311,309,301,2
302,309,308,301,2
302,306,307,302,2
303,303,305,302,2
304,300,302,302,2
304,300,299,302,2
304,303,298,302,2
305,309,297,303,2
306,315,298,305,2
307,319,298,306,2
308,320,299,307,2
308,320,300,308,2
310,320,302,308,2
310,318,304,309,2
310,315,305,308,2
310,312,307,309,2
309,309,308,309,2
309,307,310,310,2
308,306,311,312,2
308,306,311,314,2
309,305,311,314,2
309,305,309,314,2
310,304,307,314,2
310,303,306,314,2
310,301,305,314,2
310,300,306,314,2
310,300,307,314,2
310,300,306,314,2
309,300,305,312,2
309,300,304,311,2
309,299,304,309,2
308,297,304,309,2
307,295,305,309,2
307,292,304,308,2
305,290,303,307,2
305,291,304,307,2
306,292,306,306,2
307,296,306,306,2
308,300,305,305,2
308,305,304,306,2
310,309,304,307,2
310,310,304,308,2
312,309,303,310,2
313,307,304,311,2
314,306,305,312,2
314,305,307,312,2
313,306,308,311,2
312,308,308,309,2
311,310,307,308,2
310,310,307,307,2
309,309,308,308,2
308,307,307,309,2
305,304,307,309,2
303,300,307,309,2
302,297,308,309,2
302,296,308,307,2
302,297,305,305,2
302,298,302,303,2
303,299,301,302,2
304,302,300,301,2
305,305,301,301,2
306,307,300,302,2
308,308,299,303,2
309,307,299,305,2
308,306,303,308,2
309,306,309,311,2
309,308,313,312,2
308,310,314,311,2
308,312,312,309,2
308,313,309,307,2
308,312,305,306,2
309,310,303,307,2
309,307,301,308,2
308,303,299,307,2
306,298,299,307,2
305,293,301,307,2
304,290,303,306,2
304,291,305,305,2
304,295,305,304,2
305,301,305,302,2
306,306,305,300,2
307,309,303,299,2
307,310,302,298,2
307,310,302,298,2
307,309,303,298,2
306,308,303,299,2
306,307,301,300,2
305,306,298,300,2
304,305,295,301,2
304,304,293,302,2
304,302,291,302,2
303,301,293,302,2
303,299,296,302,2
304,297,301,302,2
304,296,304,302,2
304,295,306,303,2
304,295,307,304,2
305,293,308,304,2
305,292,309,305,2
306,290,309,304,2
305,291,308,303,2
305,291,308,302,2
305,293,307,302,2
306,297,306,302,2
307,300,305,303,2
308,305,304,305,2
309,308,304,307,2
310,311,305,308,2
310,312,306,309,2
310,313,306,309,2
310,312,306,310,2
310,310,305,312,2
310,309,306,313,2
310,309,307,313,2
310,308,308,314,2
310,307,309,315,2
310,307,310,316,2
311,307,309,317,2
310,307,307,317,2
310,305,306,315,2
309,301,305,314,2
309,294,305,313,2
309,288,305,312,2
309,289,306,310,2
311,298,308,309,2
312,308,309,308,2
312,316,309,308,2
312,319,308,308,2
311,319,308,309,2
310,317,306,310,2
310,314,306,312,2
311,314,306,312,2
313,316,307,312,2
314,318,307,310,2
313,319,306,307,2
312,317,307,305,2
310,314,307,303,2
308,311,307,302,2
306,308,307,302,2
305,306,307,302,2
304,305,306,302,2
305,304,305,302,2
305,304,305,302,2
307,304,307,302,2
308,303,307,304,2
308,301,305,305,2
308,301,302,307,2
307,302,300,307,2
307,305,300,307,2
308,307,300,307,2
308,308,299,306,2
307,306,299,305,2
306,304,300,305,2
305,302,301,305,2
306,301,303,306,2
307,301,305,309,2
308,303,308,311,2
308,304,310,313,2
307,304,311,312,2
306,302,310,311,2
305,301,308,310,2
305,301,306,309,2
305,301,305,310,2
305,301,304,310,2
304,301,302,310,2
304,302,301,309,2
304,303,301,308,2
304,304,300,306,2
303,303,301,305,2
302,303,301,305,2
302,303,303,306,2
302,301,304,308,2
302,298,306,311,2
302,295,307,313,2
303,293,306,314,2
304,294,307,315,2
304,299,308,313,2
304,306,309,313,2
304,313,310,313,2
305,318,311,313,2
305,321,310,314,2
306,321,309,313,2
306,321,305,313,2
306,320,302,313,2
306,319,301,312,2
306,318,301,311,2
307,316,301,311,2
308,313,298,311,2
307,311,296,312,2
306,309,296,314,2
305,309,297,315,2
305,311,300,315,2
305,314,306,314,2
306,316,312,314,2
307,316,315,314,2
307,315,316,314,2
307,314,314,312,2
307,313,311,310,2
308,311,308,307,2
307,307,305,304,2
307,305,301,301,2
306,303,298,299,2
305,301,296,297,2
304,300,298,296,2
303,298,301,296,2
302,296,303,297,2
301,295,303,298,2
300,296,303,300,2
301,298,303,303,2
302,302,305,305,2
303,305,305,308,2
304,308,306,310,2
305,309,306,312,2
306,309,305,313,2
307,308,305,313,2
308,306,304,313,2
307,303,304,313,2
307,301,305,313,2
308,302,307,314,2
310,303,309,313,2
310,306,309,314,2
308,308,307,313,2
306,309,305,312,2
304,308,302,310,2
302,307,301,309,2
303,307,301,309,2
304,308,304,310,2
305,309,306,311,2
305,309,308,312,2
305,310,309,312,2
305,311,309,312,2
306,311,307,312,2
306,312,305,312,2
306,313,303,313,2
307,313,301,312,2
307,312,298,310,2
306,311,295,307,2
306,309,293,304,2
304,307,292,302,2
304,307,294,301,2
304,307,298,301,2
305,309,302,301,2
306,311,305,301,2
307,313,307,300,2
308,312,309,300,2
307,308,311,300,2
304,304,311,301,2
304,302,310,303,2
305,303,310,304,2
307,307,310,305,2
309,310,309,306,2
312,313,307,306,2
313,314,305,306,2
313,314,303,306,2
312,316,302,306,2
311,317,302,305,2
310,318,304,304,2
310,318,307,305,2
310,316,309,305,2
311,313,309,306,2
311,309,308,307,2
312,307,308,306,2
311,306,306,305,2
310,304,304,304,2
309,302,301,303,2
309,299,300,302,2
308,296,299,302,2
309,292,301,303,2
308,288,303,304,2
308,286,306,305,2
306,283,307,305,2
306,282,307,305,2
306,282,307,304,2
307,284,306,305,2
308,286,306,306,2
311,290,305,308,2
313,294,305,308,2
314,298,305,308,2
314,301,305,308,2
314,303,306,307,2
313,304,308,306,2
311,304,310,304,2
310,304,312,304,2
310,305,312,303,2
309,305,312,303,2
309,305,310,303,2
308,303,308,303,2
307,302,307,304,2
306,303,306,305,2
306,305,306,306,2
306,309,305,306,2
305,312,305,305,2
305,313,303,304,2
305,313,302,303,2
306,314,301,301,2
306,314,301,300,2
306,315,302,299,2
306,314,302,299,2
304,311,302,299,2
302,307,303,298,2
302,303,304,298,2
303,302,305,298,2
304,303,306,300,2
305,305,307,301,2
305,305,306,301,2
304,304,305,302,2
303,303,304,303,2
303,300,305,304,2
304,297,305,305,2
305,296,305,305,2
306,296,304,304,2
308,298,304,304,2
308,301,302,303,2
307,304,301,302,2
305,308,300,302,2
304,310,299,302,2
304,310,297,301,2
303,308,295,301,2
303,306,294,302,2
303,307,294,304,2
303,308,294,306,2
304,308,296,310,2
304,308,298,314,2
305,309,300,316,2
305,308,300,318,2
304,306,299,317,2
303,305,301,316,2
303,303,304,315,2
302,301,308,315,2
303,300,311,315,2
304,301,313,315,2
306,303,315,314,2
307,304,316,312,2
307,305,319,309,2
307,305,321,308,2
307,304,323,307,2
307,304,323,308,2
307,306,322,309,2
308,307,320,310,2
308,306,319,311,2
308,304,317,311,2
308,304,315,312,2
308,305,314,312,2
309,305,313,311,2
308,304,313,311,2
307,302,312,310,2
306,300,311,310,2
305,297,309,310,2
304,294,307,311,2
303,293,306,311,2
304,293,307,311,2
304,294,308,309,2
305,295,307,306,2
306,295,306,303,2
306,294,305,302,2
307,294,305,302,2
307,292,304,301,2
305,291,304,302,2
303,290,304,302,2
302,290,304,302,2
302,294,303,303,2
303,300,303,304,2
305,307,302,306,2
308,312,302,308,2
309,315,302,310,2
309,316,301,312,2
309,317,300,314,2
309,316,300,315,2
308,313,299,315,2
307,309,299,314,2
306,304,299,314,2
306,301,303,314,2
307,300,307,313,2
308,305,309,311,2
309,309,309,308,2
309,313,308,306,2
307,315,307,305,2
306,315,307,305,2
306,314,307,304,2
306,313,307,304,2
306,312,307,304,2
306,311,306,303,2
306,312,304,303,2
306,312,301,304,2
306,312,299,305,2
305,311,298,305,2
305,310,299,305,2
305,307,302,305,2
305,304,305,305,2
306,301,307,305,2
308,298,309,305,2
308,296,309,306,2
307,295,307,307,2
304,294,305,308,2
301,294,302,308,2
301,295,301,308,2
301,300,302,308,2
302,305,303,309,2
303,311,305,310,2
304,318,308,309,2
305,323,311,308,2
306,327,314,306,2
306,327,317,304,2
306,322,318,302,2
304,315,318,300,2
303,308,318,299,2
303,302,317,300,2
302,297,315,301,2
301,293,312,301,2
301,291,309,301,2
302,290,306,301,2
303,291,304,300,2
304,293,304,300,2
305,294,306,301,2
306,294,309,301,2
307,294,310,300,2
306,292,311,299,2
306,292,311,299,2
306,294,310,300,2
307,297,308,302,2
309,303,306,303,2
309,308,305,305,2
310,313,305,307,2
310,316,307,309,2
310,318,309,311,2
309,318,310,312,2
309,318,311,313,2
309,318,312,314,2
309,316,313,314,2
310,315,314,315,2
310,312,314,316,2
310,309,314,316,2
310,306,313,317,2
310,303,311,316,2
308,301,308,314,2
307,300,304,313,2
306,300,301,310,2
305,300,299,307,2
306,301,298,303,2
306,303,297,301,2
307,306,297,299,2
308,308,296,299,2
307,308,296,299,2
305,309,295,299,2
304,310,296,300,2
303,311,299,302,2
303,312,303,304,2
303,313,307,307,2
303,315,310,309,2
304,315,311,311,2
305,314,312,313,2
305,311,313,315,2
306,306,313,317,2
307,302,313,318,2
308,300,313,319,2
309,301,312,320,2
310,305,310,319,2
310,312,309,317,2
310,317,307,315,2
309,320,305,312,2
308,321,304,309,2
307,319,305,308,2
306,316,306,307,2
305,313,305,307,2
304,312,303,307,2
304,314,302,307,2
305,316,302,308,2
306,318,300,309,2
306,319,298,309,2
306,319,296,309,2
306,318,296,309,2
307,316,297,309,2
308,313,300,307,2
307,310,302,307,2
307,308,306,307,2
306,308,308,308,2
306,309,309,309,2
307,310,309,310,2
309,310,309,309,2
311,309,309,309,2
312,308,309,308,2
311,307,310,307,2
310,308,311,306,2
309,310,311,305,2
307,311,310,304,2
306,312,309,303,2
305,311,308,304,2
305,309,307,305,2
304,306,305,306,2
305,304,302,307,2
307,303,299,309,2
308,304,296,311,2
308,306,295,313,2
307,309,298,315,2
307,311,304,316,2
307,312,309,317,2
307,313,312,316,2
307,314,313,314,2
306,316,313,311,2
306,316,311,309,2
305,314,309,306,2
304,311,307,305,2
304,306,306,305,2
306,303,305,304,2
307,299,303,303,2
307,295,301,302,2
308,291,299,303,2
308,290,298,303,2
308,289,297,305,2
306,290,298,307,2
306,294,302,309,2
307,300,306,310,2
308,307,308,311,2
308,314,307,312,2
308,319,306,313,2
308,321,305,314,2
307,321,305,315,2
306,319,305,314,2
305,317,304,312,2
305,316,303,309,2
304,316,302,307,2
305,316,302,306,2
306,316,303,306,2
306,314,302,305,2
305,312,301,304,2
306,310,301,304,2
307,309,302,306,2
308,308,304,308,2
309,308,304,311,2
309,307,305,313,2
310,307,304,314,2
311,307,303,314,2
311,306,301,313,2
311,305,300,313,2
310,305,301,312,2
310,305,302,312,2
310,305,305,310,2
309,305,308,310,2
309,305,311,310,2
308,305,311,309,2
308,305,310,309,2
307,305,309,308,2
307,305,309,308,2
308,307,309,308,2
308,309,309,307,2
308,311,309,306,2
307,313,309,305,2
307,313,309,304,2
306,311,308,304,2
306,309,307,305,2
305,305,307,307,2
304,301,307,308,2
304,299,307,309,2
304,299,307,310,2
305,301,306,312,2
305,302,305,313,2
305,302,305,313,2
305,302,307,313,2
307,303,306,311,2
310,303,304,309,2
310,302,303,306,2
308,300,302,305,2
307,300,303,304,2
306,300,304,304,2
306,301,306,304,2
307,305,307,305,2
308,311,309,306,2
309,316,309,305,2
308,319,309,304,2
307,320,308,304,2
306,321,307,304,2
305,321,306,304,2
304,321,305,303,2
304,319,304,302,2
303,315,304,302,2
304,310,304,302,2
304,304,303,302,2
304,299,302,301,2
305,295,301,300,2
306,292,302,299,2
306,291,303,298,2
305,291,305,297,2
303,291,306,297,2
303,292,307,298,2
304,294,308,302,2
305,298,307,308,2
307,303,308,312,2
309,309,310,314,2
310,312,311,315,2
311,313,311,314,2
311,311,311,314,2
309,309,312,314,2
308,306,313,314,2
307,303,315,312,2
306,302,315,310,2
306,301,314,306,2
306,302,312,304,2
306,303,312,304,2
307,305,312,304,2
309,306,313,304,2
310,306,314,304,2
311,305,315,304,2
311,303,315,304,2
311,301,313,304,2
311,299,312,305,2
311,298,311,306,2
311,296,311,308,2
311,295,311,309,2
311,295,311,309,2
310,297,310,309,2
310,298,308,308,2
309,299,305,306,2
308,299,301,304,2
308,297,297,303,2
306,296,293,303,2
305,295,291,304,2
305,294,295,306,2
306,295,301,307,2
308,297,306,308,2
309,299,310,309,2
310,302,311,308,2
310,304,311,309,2
309,306,311,308,2
308,308,310,307,2
307,309,311,305,2
305,310,311,304,2
305,311,312,305,2
306,313,313,307,2
307,314,314,309,2
308,316,315,311,2
308,316,314,312,2
307,316,313,312,2
305,314,311,311,2
305,312,310,309,2
305,309,310,308,2
306,310,310,308,2
309,312,310,308,2
312,315,310,308,2
313,316,310,309,2
312,316,311,310,2
310,315,311,309,2
309,315,311,308,2
308,315,311,307,2
308,315,310,306,2
307,315,310,305,2
306,316,310,304,2
306,317,309,303,2
305,318,308,300,2
305,317,305,298,2
305,314,302,296,2
305,312,301,295,2
304,310,302,296,2
303,308,303,297,2
302,308,305,299,2
302,309,308,300,2
303,309,310,301,2
303,309,311,302,2
304,309,311,303,2
306,309,310,304,2
307,311,309,305,2
308,312,308,305,2
308,313,307,306,2
308,314,305,306,2
306,314,303,307,2
306,311,303,307,2
305,306,304,307,2
305,302,304,307,2
305,299,305,308,2
304,297,307,308,2
303,296,308,309,2
302,295,310,309,2
301,297,310,310,2
301,298,310,311,2
301,300,309,311,2
302,301,308,311,2
303,303,308,310,2
305,306,308,310,2
305,307,307,309,2
303,306,307,309,2
301,301,308,308,2
301,296,310,309,2
301,292,311,310,2
301,291,311,311,2
302,291,308,312,2
303,294,304,312,2
304,300,300,311,2
305,305,297,309,2
305,308,293,306,2
305,311,291,304,2
305,314,291,301,2
306,315,294,300,2
307,313,298,298,2
307,311,303,298,2
307,310,306,301,2
307,309,310,304,2
307,309,311,307,2
307,309,312,309,2
307,309,311,310,2
306,310,308,310,2
305,312,306,309,2
304,312,304,309,2
304,312,303,309,2
304,312,303,310,2
303,311,304,311,2
302,310,304,312,2
301,309,305,312,2
300,308,306,311,2
300,307,306,309,2
300,307,305,308,2
300,308,304,306,2
300,309,302,307,2
301,310,301,308,2
302,312,299,310,2
303,313,299,311,2
305,313,301,312,2
306,313,304,314,2
307,313,307,315,2
306,312,307,315,2
305,311,306,314,2
304,308,304,312,2
303,305,303,310,2
302,302,302,308,2
301,301,300,306,2
300,303,302,306,2
301,307,305,307,2
304,311,306,308,2
305,315,306,307,2
307,316,304,305,2
306,315,302,302,2
304,313,299,300,2
302,309,298,297,2
301,304,299,295,2
300,300,299,295,2
301,297,300,296,2
302,296,300,298,2
303,295,301,299,2
305,295,302,300,2
307,295,303,301,2
308,297,303,301,2
308,300,303,302,2
308,306,302,302,2
307,311,300,303,2
307,311,302,303,2
307,307,306,303,2
308,301,309,305,2
309,294,310,306,2
310,290,311,308,2
311,290,312,308,2
311,293,312,308,2
312,298,311,306,2
312,302,310,305,2
311,305,309,304,2
309,306,309,304,2
308,306,310,305,2
308,305,311,307,2
308,306,312,310,2
308,308,312,312,2
308,311,310,313,2
307,314,308,313,2
306,316,306,313,2
306,317,304,314,2
306,317,302,313,2
306,316,301,312,2
306,316,300,311,2
306,318,300,309,2
306,319,301,308,2
307,319,304,307,2
307,319,307,308,2
307,319,311,308,2
307,318,313,308,2
307,317,315,309,2
308,316,315,311,2
308,316,315,313,2
308,315,315,315,2
307,314,312,315,2
306,313,310,314,2
305,311,309,312,2
305,308,309,311,2
304,306,309,310,2
304,304,309,310,2
304,302,309,310,2
304,301,308,311,2
305,301,308,313,2
307,302,308,314,2
309,304,309,314,2
311,306,308,313,2
310,306,305,313,2
308,305,302,312,2
307,302,299,311,2
306,297,298,309,2
304,294,297,309,2
303,294,296,309,2
302,296,296,310,2
301,298,299,310,2
303,299,305,311,2
304,301,308,310,2
306,303,308,310,2
307,303,307,310,2
310,303,305,309,2
311,302,304,309,2
310,301,304,308,2
308,301,304,307,2
306,301,305,307,2
306,303,306,309,2
307,305,309,310,2
307,304,312,312,2
308,301,312,314,2
308,298,312,315,2
308,298,312,316,2
308,300,311,316,2
308,304,309,315,2
308,309,309,315,2
308,314,308,313,2
307,319,307,311,2
307,322,306,309,2
307,323,305,308,2
307,321,303,306,2
306,317,302,305,2
305,313,302,304,2
304,310,302,304,2
304,309,303,303,2
304,309,304,302,2
305,309,305,303,2
306,310,306,304,2
307,311,307,305,2
306,312,307,306,2
306,311,307,307,2
306,311,307,308,2
306,310,305,310,2
307,309,304,311,2
307,308,303,312,2
307,307,303,312,2
306,305,303,310,2
305,303,302,309,2
304,301,300,309,2
304,298,299,310,2
304,294,298,312,2
306,291,299,314,2
306,290,302,316,2
306,290,305,316,2
305,292,308,315,2
305,295,311,312,2
305,299,311,309,2
304,303,309,307,2
305,306,307,305,2
305,308,306,304,2
305,309,305,304,2
305,309,305,305,2
305,309,306,306,2
305,308,307,307,2
305,306,308,308,2
305,305,308,308,2
304,305,308,309,2
305,305,309,310,2
306,306,310,313,2
306,308,311,314,2
306,308,310,315,2
306,305,308,314,2
305,300,305,313,2
304,293,304,312,2
304,287,302,311,2
304,282,302,311,2
305,281,301,310,2
305,282,299,308,2
305,288,297,306,2
306,294,298,306,2
307,301,300,306,2
310,307,303,307,2
312,311,306,307,2
312,315,307,309,2
312,320,309,311,2
311,323,311,312,2
310,328,311,312,2
310,331,311,312,2
309,332,310,311,2
309,330,310,309,2
307,325,310,307,2
306,319,309,306,2
304,313,309,307,2
303,308,308,308,2
303,304,308,309,2
303,299,307,311,2
304,296,307,310,2
303,295,305,308,2
304,295,303,306,2
304,297,302,304,2
305,299,300,303,2
305,301,300,304,2
305,303,300,304,2
306,305,301,305,2
306,306,301,305,2
306,306,302,306,2
305,305,302,306,2
304,305,302,306,2
304,304,303,306,2
304,303,304,308,2
306,302,305,309,2
307,301,305,310,2
307,299,305,308,2
305,297,302,306,2
303,296,298,304,2
302,297,295,303,2
302,297,291,303,2
301,296,290,304,2
302,297,290,305,2
302,298,293,307,2
303,299,297,309,2
304,300,301,310,2
305,301,305,311,2
305,299,309,311,2
305,297,312,312,2
305,295,313,313,2
305,293,314,315,2
305,293,314,315,2
306,295,313,314,2
306,301,311,312,2
306,308,310,310,2
306,314,308,309,2
306,317,308,308,2
305,319,306,307,2
305,320,304,307,2
306,320,304,307,2
306,321,302,308,2
307,322,301,308,2
307,321,299,308,2
306,319,298,306,2
305,317,300,305,2
306,315,301,305,2
307,314,301,305,2
308,314,299,305,2
308,314,299,305,2
308,315,302,306,2
309,315,306,308,2
310,316,310,308,2
310,315,312,308,2
309,313,312,308,2
309,311,312,307,2
308,308,313,307,2
308,306,315,307,2
307,305,316,306,2
307,306,317,306,2
309,307,315,306,2
311,306,313,306,2
312,304,311,307,2
313,300,307,308,2
312,296,305,309,2
311,295,304,307,2
309,297,305,305,2
310,301,307,303,2
311,304,307,302,2
313,307,306,299,2
313,310,304,298,2
312,313,303,298,2
310,315,303,299,2
309,317,304,301,2
309,318,304,303,2
308,318,304,303,2
308,317,304,302,2
308,315,303,302,2
306,312,304,301,2
305,309,304,300,2
304,306,305,300,2
304,303,306,301,2
304,300,307,302,2
305,299,308,303,2
306,300,308,304,2
306,301,308,305,2
307,303,307,305,2
306,304,306,304,2
306,305,305,303,2
305,306,305,303,2
305,307,305,302,2
305,307,304,303,2
304,306,303,303,2
304,305,303,303,2
303,305,304,304,2
303,304,306,304,2
303,304,307,303,2
304,304,308,303,2
305,302,308,304,2
305,300,306,305,2
305,299,302,306,2
305,297,298,308,2
305,298,294,309,2
305,302,292,310,2
305,307,292,312,2
305,312,294,314,2
305,317,297,316,2
305,320,300,315,2
306,321,303,315,2
306,320,305,313,2
306,318,305,312,2
305,317,306,309,2
305,315,308,307,2
305,313,310,305,2
305,311,311,304,2
305,309,313,304,2
306,308,316,303,2
306,308,319,304,2
305,307,320,306,2
305,306,320,308,2
305,304,319,309,2
305,302,317,311,2
304,300,315,313,2
303,298,312,314,2
302,298,310,316,2
302,301,310,316,2
302,304,311,316,2
303,306,312,315,2
304,307,314,314,2
305,306,315,314,2
305,304,314,314,2
306,302,313,313,2
307,301,311,311,2
307,299,310,309,2
306,299,308,307,2
306,302,307,307,2
307,307,306,308,2
308,311,307,308,2
309,313,307,309,2
309,313,308,309,2
309,311,309,309,2
308,308,310,309,2
306,307,310,310,2
305,307,312,311,2
304,310,314,312,2
304,313,315,312,2
304,314,316,313,2
304,313,315,313,2
305,310,315,314,2
306,306,314,315,2
307,303,313,314,2
309,300,311,313,2
310,298,309,311,2
312,296,305,308,2
313,294,302,304,2
311,292,299,301,2
308,291,296,298,2
304,289,296,294,2
301,288,299,292,2
298,286,303,292,2
299,286,306,293,2
301,287,307,296,2
302,290,308,298,2
304,292,307,302,2
305,294,306,304,2
306,295,305,306,2
306,296,304,308,2
306,299,304,310,2
306,301,304,310,2
306,303,304,308,2
305,304,304,306,2
304,306,304,304,2
304,310,305,304,2
305,312,304,304,2
306,314,302,305,2
306,315,300,306,2
306,314,298,306,2
306,312,298,306,2
305,311,298,304,2
305,309,298,301,2
304,309,298,298,2
304,309,297,295,2
304,308,295,293,2
304,308,293,292,2
304,309,291,293,2
305,310,292,294,2
306,309,293,295,2
306,308,294,298,2
306,307,297,302,2
307,305,301,309,2
308,304,307,314,2
309,304,311,317,2
309,305,314,319,2
309,307,315,319,2
309,308,314,318,2
308,308,312,316,2
308,307,310,316,2
307,305,310,315,2
306,302,309,314,2
305,301,310,312,2
304,300,311,311,2
304,301,311,311,2
304,303,312,310,2
304,304,312,309,2
306,307,312,310,2
307,310,312,310,2
309,312,312,309,2
309,314,312,308,2
309,313,311,307,2
307,311,310,307,2
306,307,310,308,2
306,304,310,309,2
306,299,309,309,2
305,294,307,309,2
305,288,305,309,2
305,283,305,308,2
305,281,304,307,2
307,283,305,305,2
308,291,305,304,2
309,301,307,303,2
309,309,308,303,2
308,315,307,303,2
308,317,305,303,2
307,318,304,303,2
306,318,303,303,2
305,318,302,304,2
305,317,303,305,2
305,316,305,307,2
306,315,306,308,2
307,314,307,309,2
307,314,307,309,2
308,314,307,310,2
309,313,306,311,2
308,312,305,311,2
307,310,304,312,2
308,309,302,311,2
310,309,299,309,2
311,308,296,308,2
311,304,295,307,2
308,300,296,307,2
306,296,295,308,2
304,293,294,308,2
303,293,291,306,2
301,295,289,304,2
300,299,289,302,2
300,302,291,300,2
301,305,295,300,2
303,308,301,301,2
305,311,306,302,2
306,314,308,303,2
308,316,309,304,2
308,318,309,304,2
309,319,308,305,2
309,320,307,306,2
309,322,305,307,2
309,323,304,307,2
309,323,303,308,2
308,323,301,309,2
308,322,298,311,2
308,322,298,311,2
310,320,298,312,2
311,318,299,313,2
311,316,299,313,2
310,314,301,313,2
308,312,302,312,2
305,311,304,312,2
304,310,306,312,2
304,309,307,312,2
304,308,308,313,2
305,308,308,313,2
304,306,309,313,2
304,306,310,313,2
304,305,311,313,2
303,304,312,313,2
302,301,313,313,2
301,299,313,313,2
301,298,314,314,2
301,297,314,314,2
301,298,313,313,2
301,300,311,312,2
302,302,309,312,2
304,304,306,311,2
305,307,304,311,2
306,311,302,311,2
307,314,300,309,2
307,318,301,308,2
307,320,302,306,2
307,321,303,304,2
306,319,303,301,2
304,313,303,299,2
303,308,304,299,2
303,304,306,299,2
304,303,307,301,2
305,302,308,303,2
305,301,308,305,2
305,300,308,308,2
305,299,307,311,2
305,300,306,314,2
306,302,304,317,2
306,305,302,318,2
307,305,300,319,2
307,305,297,318,2
306,303,295,316,2
305,301,294,314,2
303,299,297,312,2
301,299,302,311,2
301,301,306,310,2
303,305,307,310,2
305,308,307,310,2
307,310,307,310,2
307,310,307,310,2
306,308,306,309,2
305,305,305,309,2
304,303,306,308,2
305,302,306,308,2
307,301,305,308,2
307,303,306,308,2
306,304,307,308,2
305,306,307,309,2
304,307,308,309,2
303,307,308,310,2
303,306,310,310,2
304,303,311,310,2
305,300,311,311,2
306,298,310,309,2
306,298,310,308,2
306,301,310,307,2
306,304,309,307,2
306,306,306,308,2
306,308,303,309,2
306,310,299,312,2
307,310,296,313,2
307,308,293,314,2
306,305,293,314,2
306,303,295,314,2
306,304,301,315,2
307,308,305,315,2
307,312,309,314,2
308,314,310,312,2
307,314,310,310,2
307,314,310,309,2
307,312,309,307,2
307,312,308,305,2
307,312,306,303,2
307,312,304,301,2
308,312,302,300,2
308,312,300,301,2
308,311,300,303,2
309,311,301,305,2
309,310,303,308,2
309,309,305,310,2
308,307,306,311,2
307,306,306,311,2
308,305,308,310,2
308,305,310,310,2
310,304,311,308,2
309,302,310,306,2
308,298,309,305,2
306,297,308,304,2
306,299,307,304,2
305,301,305,304,2
305,303,305,304,2
306,305,305,305,2
307,306,305,307,2
308,306,305,307,2
309,305,304,308,2
309,305,302,307,2
307,306,300,307,2
306,308,301,307,2
307,309,303,308,2
307,310,304,309,2
307,311,305,310,2
308,312,306,310,2
308,313,306,309,2
308,313,305,309,2
308,311,304,310,2
308,309,303,311,2
309,307,301,313,2
308,305,297,312,2
307,302,295,311,2
305,299,297,309,2
305,297,302,307,2
306,297,306,306,2
307,296,308,306,2
307,294,309,306,2
307,291,308,305,2
306,289,305,304,2
305,291,302,302,2
304,295,299,301,2
304,301,299,301,2
305,306,300,301,2
305,310,301,301,2
305,311,302,300,2
306,312,301,300,2
306,314,301,301,2
306,315,301,302,2
305,313,301,302,2
304,311,301,302,2
303,307,301,302,2
303,304,300,301,2
304,301,300,301,2
304,299,300,300,2
304,298,301,299,2
304,297,301,299,2
304,297,300,299,2
305,296,301,300,2
307,293,304,300,2
307,292,305,301,2
306,292,306,301,2
304,297,306,302,2
303,302,306,301,2
303,308,306,302,2
304,313,306,303,2
305,316,304,304,2
306,315,303,305,2
306,314,301,304,2
306,311,297,303,2
304,308,293,302,2
303,307,290,301,2
301,307,289,301,2
301,307,290,301,2
301,307,292,300,2
302,306,294,299,2
302,305,295,297,2
302,304,296,297,2
302,303,295,298,2
303,301,295,299,2
303,298,296,300,2
303,296,297,302,2
304,297,300,305,2
306,299,302,308,2
307,304,305,309,2
307,309,307,308,2
306,312,308,307,2
305,315,308,306,2
303,317,309,305,2
303,319,308,304,2
302,319,308,303,2
302,317,307,302,2
303,316,305,302,2
304,314,303,302,2
305,313,301,302,2
306,313,299,304,2
306,313,298,305,2
306,314,299,306,2
305,313,302,306,2
304,313,304,306,2
304,309,306,305,2
303,305,308,305,2
304,301,310,306,2
303,300,312,308,2
304,301,312,310,2
304,304,311,312,2
304,308,308,312,2
305,311,306,313,2
306,313,305,312,2
307,314,303,312,2
308,313,300,312,2
307,311,297,312,2
308,308,295,312,2
307,305,295,313,2
307,304,298,315,2
309,305,303,318,2
309,306,306,318,2
310,307,306,316,2
308,307,303,312,2
308,307,301,308,2
307,310,300,304,2
306,312,299,302,2
305,313,298,300,2
304,315,297,299,2
304,315,298,299,2
304,315,299,298,2
303,314,301,299,2
303,312,303,299,2
303,310,304,301,2
303,309,304,303,2
303,307,304,305,2
303,305,304,306,2
303,303,305,306,2
302,300,306,306,2
302,298,307,305,2
302,299,305,304,2
302,299,305,305,2
302,299,306,305,2
303,298,307,306,2
304,298,309,306,2
304,298,309,306,2
304,300,309,305,2
304,302,307,304,2
305,303,303,304,2
305,304,299,304,2
306,304,294,304,2
307,305,290,305,2
306,307,287,305,2
304,309,286,305,2
302,311,287,305,2
301,311,290,304,2
299,310,294,302,2
297,307,298,301,2
296,305,301,300,2
296,303,304,299,2
296,302,308,298,2
297,301,310,298,2
298,301,310,300,2
300,300,311,302,2
302,298,310,303,2
303,297,308,303,2
304,297,307,303,2
304,298,306,303,2
304,300,306,304,2
305,302,307,306,2
307,304,306,308,2
308,305,306,307,2
308,308,304,305,2
307,312,303,302,2
304,319,302,298,2
303,325,303,295,2
301,327,305,295,2
300,325,308,297,2
301,322,309,300,2
302,318,309,303,2
303,316,308,304,2
305,314,308,306,2
306,312,307,307,2
308,311,308,308,2
310,310,310,310,2
312,309,312,311,2
312,307,314,312,2
311,304,314,311,2
309,302,314,311,2
308,301,312,309,2
307,300,311,308,2
308,300,310,307,2
309,302,309,306,2
309,303,308,305,2
310,303,307,304,2
310,302,306,304,2
310,302,306,305,2
310,303,306,306,2
311,304,306,306,2
310,305,305,306,2
308,304,304,305,2
307,302,306,304,2
306,298,308,304,2
306,293,310,304,2
307,291,307,304,2
307,291,304,305,2
307,294,300,306,2
307,298,298,306,2
307,304,296,305,2
308,310,296,304,2
308,314,296,303,2
308,318,296,301,2
308,320,294,300,2
308,322,293,299,2
307,323,294,299,2
307,323,297,298,2
307,321,302,298,2
308,320,305,299,2
308,319,306,301,2
308,318,306,303,2
308,317,307,305,2
309,315,307,308,2
311,312,307,309,2
313,307,308,310,2
313,303,308,310,2
312,300,308,309,2
310,301,309,308,2
309,304,311,309,2
309,308,313,309,2
309,311,313,310,2
309,313,312,311,2
309,315,309,311,2
309,315,305,312,2
309,315,303,312,2
308,315,302,314,2
308,315,303,315,2
308,316,305,314,2
308,316,308,314,2
308,315,310,312,2
308,313,310,310,2
307,310,309,307,2
307,307,307,305,2
307,305,307,304,2
308,305,306,304,2
309,304,305,304,2
309,304,305,304,2
310,303,305,304,2
309,302,307,304,2
308,301,308,304,2
306,301,311,304,2
305,302,312,305,2
304,304,311,305,2
304,307,311,306,2
304,310,310,306,2
304,312,310,307,2
305,312,310,307,2
304,310,309,306,2
304,307,309,306,2
303,303,309,307,2
303,300,309,308,2
304,299,309,309,2
305,300,309,309,2
306,302,308,309,2
307,303,306,310,2
307,302,305,311,2
309,301,305,313,2
309,300,306,313,2
308,301,307,312,2
308,301,308,312,2
308,301,309,311,2
307,300,308,311,2
305,298,307,310,2
304,296,304,308,2
302,296,302,306,2
301,299,298,304,2
301,303,295,302,2
301,307,295,301,2
301,310,298,301,2
302,310,302,301,2
303,308,304,301,2
304,306,305,302,2
305,305,305,303,2
307,305,304,304,2
307,308,303,304,2
307,311,302,304,2
307,314,304,304,2
308,316,308,305,2
309,317,312,307,2
310,317,313,309,2
311,316,312,311,2
310,314,310,311,2
308,313,308,311,2
306,311,308,310,2
305,309,309,310,2
305,306,310,312,2
305,302,307,313,2
304,298,306,314,2
306,296,305,313,2
307,297,304,313,2
309,298,302,310,2
310,301,300,307,2
310,306,301,304,2
309,311,302,302,2
307,315,305,300,2
305,316,307,298,2
304,317,308,297,2
303,316,309,296,2
302,315,310,296,2
303,315,311,298,2
303,316,312,300,2
303,315,312,302,2
303,315,311,303,2
304,314,310,304,2
305,312,307,305,2
306,310,304,306,2
306,308,303,308,2
305,307,302,310,2
304,307,302,311,2
303,308,303,313,2
302,311,305,315,2
303,313,308,316,2
303,315,310,316,2
303,313,310,316,2
302,308,310,315,2
301,302,309,313,2
299,299,309,312,2
299,298,309,312,2
300,299,311,312,2
302,300,313,313,2
303,301,313,313,2
305,302,315,313,2
306,303,316,312,2
306,304,316,311,2
306,307,315,310,2
306,309,313,308,2
306,310,311,308,2
305,308,309,308,2
305,305,309,308,2
304,302,308,310,2
304,300,309,310,2
304,300,308,311,2
304,298,307,311,2
305,297,305,311,2
304,295,304,311,2
304,297,303,311,2
304,301,302,311,2
305,305,301,312,2
306,308,301,312,2
306,309,303,312,2
306,308,305,311,2
305,306,307,310,2
304,304,309,309,2
304,305,309,308,2
305,305,307,310,2
306,305,305,311,2
307,305,304,311,2
307,306,302,312,2
307,309,303,312,2
308,313,303,311,2
308,317,303,311,2
308,319,299,309,2
307,319,295,308,2
306,318,295,306,2
306,317,298,305,2
306,316,302,306,2
307,315,305,306,2
308,313,306,307,2
309,311,306,307,2
309,307,304,306,2
309,304,302,307,2
309,302,301,307,2
310,301,303,307,2
311,300,306,308,2
312,301,308,308,2
312,303,309,308,2
311,306,308,308,2
310,307,308,307,2
310,308,308,307,2
310,306,308,307,2
310,305,307,307,2
311,305,303,308,2
311,304,300,307,2
310,302,296,307,2
309,301,294,307,2
309,302,294,308,2
310,302,296,308,2
310,304,298,307,2
310,307,301,307,2
310,310,303,307,2
310,313,304,306,2
310,314,304,306,2
309,314,304,306,2
309,310,302,304,2
309,304,299,302,2
309,299,296,299,2
307,296,296,298,2
306,296,297,299,2
305,299,300,302,2
305,304,303,304,2
306,307,304,305,2
306,309,305,304,2
306,313,306,302,2
306,316,307,302,2
306,319,308,302,2
307,320,309,303,2
308,320,309,304,2
309,318,309,305,2
308,317,307,307,2
307,317,306,308,2
306,318,304,310,2
305,319,302,309,2
304,320,302,309,2
303,319,302,309,2
302,316,302,311,2
301,312,304,312,2
301,308,307,315,2
300,305,309,318,2
300,303,309,320,2
299,300,309,321,2
299,297,308,320,2
299,294,311,318,2
299,292,313,316,2
300,292,314,313,2
302,292,315,311,2
302,293,315,308,2
303,296,314,307,2
303,298,313,306,2
303,301,313,306,2
304,305,312,305,2
304,308,310,304,2
304,309,306,303,2
304,309,303,302,2
304,309,302,303,2
303,308,302,305,2
303,307,303,307,2
302,308,305,308,2
303,309,308,308,2
303,312,310,308,2
303,315,311,307,2
304,317,311,307,2
304,318,311,307,2
306,317,310,308,2
306,317,309,307,2
307,315,307,307,2
308,313,305,307,2
308,311,303,306,2
308,309,300,306,2
308,307,299,305,2
307,306,299,305,2
307,304,299,306,2
306,300,298,306,2
304,295,300,307,2
304,291,303,308,2
303,286,307,309,2
303,285,310,310,2
304,288,313,310,2
306,295,314,310,2
307,302,315,310,2
307,309,313,309,2
308,316,310,309,2
308,320,308,309,2
309,323,304,308,2
309,323,301,307,2
309,323,298,306,2
309,323,299,304,2
309,325,301,302,2
310,326,306,299,2
310,324,310,296,2
309,319,311,293,2
308,313,312,293,2
307,308,312,294,2
306,304,309,295,2
306,301,306,297,2
306,299,304,299,2
306,297,304,301,2
305,296,306,302,2
304,295,307,304,2
303,297,308,306,2
304,299,309,310,2
305,302,310,312,2
309,305,310,314,2
312,307,310,315,2
313,308,310,316,2
312,307,310,317,2
312,307,310,318,2
311,308,310,318,2
310,310,309,317,2
309,310,310,314,2
307,306,311,310,2
305,300,310,306,2
303,294,309,305,2
302,289,307,304,2
301,287,306,305,2
300,289,306,305,2
300,294,305,304,2
300,300,305,304,2
300,305,305,304,2
300,308,305,304,2
301,310,306,304,2
301,310,305,304,2
300,309,303,305,2
300,308,301,305,2
301,306,301,305,2
301,306,302,303,2
302,307,304,302,2
303,309,304,300,2
305,309,304,300,2
306,308,305,300,2
307,307,305,301,2
307,306,305,302,2
306,304,303,304,2
306,302,302,305,2
304,301,303,306,2
304,301,304,305,2
303,301,306,306,2
302,301,307,306,2
303,302,308,307,2
304,305,308,309,2
305,309,307,310,2
306,310,306,311,2
307,310,305,312,2
306,308,304,311,2
305,306,304,311,2
305,304,304,311,2
304,304,306,311,2
305,306,307,311,2
305,308,309,310,2
306,311,310,309,2
306,313,310,308,2
305,314,309,307,2
305,314,308,306,2
305,313,305,305,2
304,311,302,305,2
303,308,301,306,2
302,306,302,307,2
302,304,304,309,2
302,303,305,310,2
302,304,306,311,2
303,307,304,311,2
304,312,302,309,2
305,318,299,307,2
306,321,298,305,2
306,322,297,304,2
306,318,296,304,2
306,311,296,305,2
305,304,297,306,2
306,299,299,307,2
306,296,300,307,2
306,295,301,306,2
304,294,303,305,2
302,293,308,303,2
301,294,313,302,2
301,296,317,303,2
301,298,317,304,2
301,299,315,304,2
300,300,312,305,2
299,303,310,304,2
299,305,310,302,2
301,305,310,301,2
302,304,310,299,2
301,303,309,298,2
301,302,306,297,2
302,301,304,297,2
302,299,303,298,2
303,298,304,299,2
304,298,305,301,2
304,298,306,303,2
304,302,307,305,2
305,307,307,307,2
306,313,307,309,2
309,318,307,309,2
310,320,305,307,2
309,321,304,306,2
307,321,305,304,2
304,319,306,302,2
302,316,305,300,2
302,314,303,299,2
302,312,301,298,2
302,310,301,298,2
303,309,302,299,2
303,308,303,300,2
303,307,304,301,2
303,306,306,302,2
305,305,307,303,2
307,304,308,304,2
309,305,308,307,2
311,307,310,311,2
312,308,311,313,2
312,309,312,314,2
311,309,312,313,2
311,309,310,312,2
310,308,309,310,2
310,307,307,310,2
310,305,306,308,2
309,303,305,306,2
309,299,305,305,2
308,297,306,304,2
308,297,307,304,2
307,297,307,304,2
307,298,304,304,2
306,299,303,303,2
306,298,302,303,2
305,297,302,305,2
305,296,304,306,2
305,297,308,309,2
306,304,311,311,2
308,314,311,312,2
309,321,310,313,2
310,326,308,314,2
311,328,307,315,2
312,328,307,315,2
311,325,308,315,2
311,322,309,315,2
310,320,311,314,2
310,320,312,312,2
309,322,311,311,2
308,324,309,310,2
307,323,307,309,2
305,319,306,308,2
305,314,307,306,2
304,310,308,304,2
304,307,308,304,2
305,304,307,304,2
306,303,304,305,2
308,302,302,306,2
309,300,299,307,2
309,298,299,307,2
309,296,302,308,2
310,295,306,309,2
311,294,309,311,2
313,295,309,312,2
314,297,308,313,2
315,300,308,313,2
316,302,308,312,2
316,302,309,312,2
315,301,311,311,2
313,301,312,310,2
312,302,313,309,2
311,302,313,309,2
310,302,313,309,2
309,300,312,309,2
308,298,311,310,2
308,295,309,311,2
308,291,306,311,2
307,287,303,310,2
307,286,302,310,2
306,287,304,310,2
305,289,306,311,2
305,291,306,312,2
305,293,306,313,2
306,295,306,313,2
306,296,307,313,2
307,299,307,313,2
307,303,306,311,2
307,306,305,310,2
306,309,305,309,2
306,311,304,307,2
305,311,304,306,2
307,311,303,304,2
308,311,304,303,2
308,313,305,304,2
307,315,307,306,2
306,317,309,308,2
305,319,310,310,2
305,320,310,312,2
305,320,309,314,2
305,318,306,316,2
306,315,303,317,2
305,313,301,316,2
305,310,299,315,2
304,309,299,313,2
303,309,301,313,2
304,310,304,313,2
305,312,307,313,2
307,313,309,311,2
307,316,311,309,2
307,317,311,307,2
308,318,310,306,2
309,316,309,305,2
309,313,307,304,2
309,311,305,303,2
308,308,303,302,2
307,306,302,302,2
307,306,301,303,2
307,309,301,304,2
307,313,301,306,2
307,313,304,308,2
308,309,307,310,2
309,303,310,311,2
309,296,312,312,2
309,291,313,313,2
308,291,314,314,2
308,295,314,314,2
308,300,312,315,2
308,304,311,314,2
308,307,310,314,2
308,309,311,313,2
308,310,313,312,2
308,310,314,311,2
308,310,314,309,2
308,309,314,307,2
308,308,313,306,2
310,308,312,306,2
310,308,310,305,2
311,309,309,304,2
311,309,308,304,2
311,309,307,304,2
310,309,308,304,2
308,309,309,304,2
307,311,311,305,2
306,313,314,306,2
307,314,315,308,2
307,314,315,308,2
307,313,314,308,2
307,310,314,308,2
307,306,313,308,2
308,303,314,309,2
307,302,314,310,2
305,302,314,310,2
303,304,315,309,2
301,308,316,309,2
300,312,316,308,2
299,315,314,309,2
299,317,311,310,2
299,316,311,312,2
300,315,312,313,2
301,312,313,313,2
302,310,312,312,2
303,308,310,312,2
304,306,310,311,2
304,304,310,313,2
304,303,312,315,2
304,304,313,317,2
304,306,314,319,2
304,309,312,320,2
304,309,310,320,2
304,308,307,318,2
304,306,305,316,2
303,303,305,313,2
303,300,304,311,2
302,298,304,309,2
302,296,304,307,2
302,295,305,305,2
301,294,305,304,2
301,295,306,303,2
303,298,307,302,2
305,303,309,304,2
306,307,311,305,2
305,309,312,306,2
304,309,311,307,2
303,309,310,307,2
303,309,308,308,2
302,309,307,308,2
301,307,305,308,2
300,305,305,308,2
300,303,309,308,2
301,302,313,308,2
302,302,314,307,2
303,305,313,306,2
303,307,311,304,2
303,308,308,303,2
304,309,307,304,2
305,308,308,305,2
305,308,309,307,2
305,307,310,307,2
304,306,311,306,2
303,306,311,305,2
303,308,310,305,2
303,307,309,306,2
303,307,308,307,2
304,308,308,308,2
304,310,308,309,2
305,312,310,311,2
305,312,310,311,2
304,311,310,311,2
305,309,310,312,2
306,307,309,312,2
308,305,307,312,2
308,303,305,311,2
308,302,303,311,2
307,300,300,310,2
306,298,298,310,2
305,296,296,310,2
304,295,295,309,2
303,294,294,307,2
302,294,294,304,2
301,295,296,302,2
301,298,299,303,2
301,303,303,304,2
301,308,307,305,2
301,313,309,306,2
301,316,309,307,2
302,318,308,307,2
302,318,308,308,2
302,318,309,308,2
301,315,309,307,2
301,313,308,305,2
300,311,310,304,2
301,310,314,304,2
302,310,316,304,2
303,311,316,305,2
305,313,316,306,2
306,314,314,306,2
307,315,311,305,2
307,315,309,305,2
307,314,307,306,2
307,312,307,306,2
306,310,307,307,2
306,309,307,307,2
305,309,308,307,2
305,312,309,309,2
307,315,309,310,2
308,317,309,312,2
309,317,308,313,2
310,315,306,314,2
311,312,305,314,2
312,308,302,312,2
312,305,299,309,2
310,302,298,308,2
306,298,298,306,2
303,296,301,305,2
302,296,305,305,2
302,296,307,306,2
303,296,308,307,2
303,297,308,308,2
304,297,308,309,2
304,295,309,310,2
305,293,309,310,2
305,292,309,309,2
305,291,310,308,2
305,291,309,308,2
306,292,309,307,2
307,296,308,306,2
308,302,307,305,2
308,307,306,305,2
309,312,305,304,2
309,315,304,303,2
309,315,303,301,2
308,311,301,300,2
308,307,300,300,2
308,305,301,302,2
308,305,303,305,2
309,307,305,307,2
309,309,307,308,2
309,311,307,308,2
310,312,307,308,2
310,312,307,308,2
309,311,307,309,2
308,309,307,310,2
308,307,306,311,2
309,304,306,312,2
309,302,306,312,2
308,301,304,311,2
308,298,303,309,2
307,297,303,307,2
306,296,305,306,2
306,296,308,307,2
307,296,310,309,2
307,296,310,310,2
308,298,309,310,2
310,301,307,310,2
311,304,304,309,2
311,305,301,308,2
309,305,298,307,2
307,303,296,307,2
304,300,297,307,2
302,297,299,307,2
301,294,301,307,2
300,293,301,307,2
300,292,301,308,2
300,292,303,310,2
300,293,305,310,2
301,296,307,309,2
302,300,308,309,2
303,305,310,309,2
303,309,311,310,2
304,312,311,310,2
305,314,309,309,2
306,316,307,308,2
307,317,305,308,2
307,317,303,308,2
307,317,301,308,2
307,317,299,308,2
307,317,299,308,2
308,318,304,308,2
309,319,309,308,2
309,321,313,309,2
310,321,315,310,2
309,318,316,310,2
308,313,316,309,2
307,308,314,308,2
306,304,312,308,2
306,303,309,309,2
304,302,306,309,2
303,301,304,309,2
302,300,304,309,2
303,301,305,310,2
304,303,307,310,2
305,305,308,309,2
306,307,309,308,2
305,311,308,306,2
305,315,307,304,2
304,321,306,304,2
304,325,305,304,2
304,324,304,303,2
303,321,302,303,2
304,317,303,304,2
306,314,304,305,2
309,312,306,306,2
312,310,307,307,2
313,309,307,307,2
