303,347,310,319,0
302,344,310,319,0
302,339,310,318,0
302,333,308,317,0
304,325,307,316,0
307,313,305,314,0
309,298,303,313,0
311,280,302,310,0
310,265,299,307,0
308,253,296,304,0
304,250,293,302,0
302,257,291,302,0
301,277,289,304,0
302,304,288,305,0
305,330,289,305,0
309,352,291,306,0
312,367,293,307,0
312,374,295,307,0
310,374,296,308,0
307,371,294,308,0
304,367,292,309,0
302,366,290,310,0
301,366,289,312,0
302,366,289,314,0
304,367,290,317,0
306,364,293,319,0
307,357,294,320,0
307,346,294,320,0
308,335,294,319,0
309,324,293,319,0
309,315,292,320,0
307,308,291,322,0
303,301,290,325,0
299,294,290,327,0
296,288,290,327,0
296,287,290,325,0
301,293,290,322,0
310,304,290,320,0
319,318,290,318,0
328,332,291,316,0
333,344,292,314,0
333,353,292,311,0
330,359,293,308,0
325,362,292,305,0
321,362,291,303,0
321,358,289,302,0
322,352,287,300,0
323,345,285,299,0
324,338,284,298,0
325,336,282,297,0
327,335,282,296,0
329,331,282,295,0
333,323,281,294,0
336,314,280,293,0
339,306,279,293,0
340,302,278,295,0
341,300,277,298,0
343,299,276,301,0
344,298,275,304,0
345,298,277,307,0
346,300,281,310,0
348,305,287,314,0
352,310,294,319,0
360,313,301,326,0
371,315,307,332,0
383,319,310,335,0
395,326,309,335,0
405,335,305,333,0
412,339,297,327,0
415,338,288,320,0
420,334,283,315,0
430,325,283,312,0
445,314,287,310,0
464,304,289,310,0
483,295,289,310,0
504,286,287,311,0
522,278,285,313,0
535,270,284,315,0
543,262,285,318,0
548,259,288,319,0
551,260,291,320,0
552,266,294,321,0
551,274,296,322,0
548,281,295,324,0
544,286,292,325,0
540,289,289,327,0
536,290,286,328,0
531,292,285,329,0
521,301,284,331,0
509,313,284,331,0
496,330,285,332,0
484,350,286,331,0
471,368,285,330,0
459,381,283,327,0
448,385,282,322,0
439,384,281,316,0
433,380,281,312,0
430,374,281,309,0
429,366,283,306,0
430,357,285,306,0
430,351,286,307,0
428,346,287,310,0
421,342,286,313,0
408,338,285,317,0
393,335,284,322,0
380,331,284,326,0
369,325,284,329,0
361,322,284,329,0
353,318,284,327,0
346,312,284,325,0
338,308,283,324,0
332,309,283,322,0
327,313,285,321,0
323,316,287,321,0
319,317,289,320,0
314,314,290,319,0
310,310,290,319,0
305,305,289,320,0
298,297,289,323,0
289,285,288,324,0
281,269,288,324,0
275,254,288,322,0
272,245,287,320,0
269,242,285,317,0
266,242,283,314,0
264,241,281,313,0
265,244,281,313,0
270,255,282,313,0
275,266,284,314,0
276,273,283,314,0
271,277,282,313,0
265,278,280,314,0
258,279,279,314,0
252,276,278,314,0
248,269,279,313,0
246,262,282,312,0
248,258,286,313,0
250,262,289,314,0
252,275,292,314,0
253,295,292,314,0
252,316,292,315,0
249,332,292,315,0
246,338,291,315,0
243,337,291,317,0
241,333,291,319,0
240,328,291,318,0
238,320,290,316,0
239,310,289,314,0
239,299,289,313,0
238,288,289,311,0
235,276,288,311,0
229,260,287,310,0
221,252,286,309,0
214,255,286,308,0
208,264,285,307,0
203,273,283,307,0
200,279,282,307,0
200,285,280,308,0
200,294,276,307,0
198,304,272,305,0
194,316,269,302,0
188,326,267,299,0
181,334,269,298,0
178,335,273,299,0
178,330,277,302,0
177,319,280,305,0
174,302,280,307,0
170,284,279,308,0
167,268,280,307,0
165,259,282,306,0
164,257,284,306,0
161,264,287,306,0
157,280,288,306,0
151,297,289,306,0
142,309,288,307,0
129,315,288,309,0
114,313,289,310,0
94,306,289,311,0
74,302,290,312,0
58,300,291,312,0
46,302,291,311,0
36,305,290,310,0
28,310,289,310,0
22,314,288,309,0
17,315,288,308,0
14,316,288,308,0
11,319,289,308,0
8,320,292,309,0
6,320,294,310,0
5,318,295,310,0
4,316,296,310,0
3,313,297,310,0
3,309,298,311,0
2,303,297,312,0
1,296,295,314,0
1,291,294,315,0
1,288,291,315,0
0,287,290,314,0
0,286,288,312,0
0,284,287,309,0
0,279,288,306,0
0,274,289,304,0
0,272,291,304,0
0,275,294,304,0
0,275,295,303,0
0,272,296,300,0
0,269,296,297,0
0,268,296,295,0
0,271,297,294,0
0,279,299,295,0
0,287,301,297,0
0,291,302,298,0
0,292,302,298,0
0,295,301,297,0
0,301,300,297,0
0,309,300,297,0
5,319,301,298,0
17,325,302,298,0
34,322,303,298,0
52,311,304,298,0
71,295,306,298,0
89,280,309,299,0
106,265,309,299,0
122,256,309,300,0
137,261,309,301,0
154,277,308,303,0
170,294,308,306,0
187,309,308,309,0
203,321,310,310,0
220,330,313,311,0
237,334,316,310,0
251,331,317,308,0
265,324,317,306,0
278,318,315,305,0
291,317,314,305,0
301,317,313,305,0
309,316,312,304,0
314,317,312,304,0
319,316,314,304,0
325,312,316,304,0
332,303,317,302,0
338,293,318,301,0
346,283,318,299,0
353,274,318,297,0
359,270,317,295,0
363,273,316,291,0
368,280,315,288,0
373,289,315,286,0
379,297,316,284,0
387,300,317,283,0
396,299,317,284,0
406,296,318,285,0
415,292,318,288,0
423,286,318,291,0
430,281,319,295,0
432,277,319,298,0
430,277,319,299,0
426,279,320,302,0
425,282,321,306,0
424,283,323,310,0
423,282,323,313,0
424,280,321,315,0
426,278,318,317,0
430,272,316,317,0
434,264,314,317,0
438,262,314,318,0
440,272,315,318,0
442,291,317,318,0
444,312,320,316,0
448,332,323,314,0
452,342,325,311,0
454,341,325,307,0
451,331,325,304,0
448,315,325,302,0
447,301,326,301,0
448,291,327,299,0
451,288,327,298,0
455,290,326,297,0
457,295,323,296,0
458,300,321,295,0
456,308,320,296,0
454,321,320,297,0
454,332,322,299,0
455,338,324,301,0
455,336,324,302,0
456,329,323,303,0
456,322,321,304,0
457,316,320,304,0
458,314,318,304,0
457,312,316,305,0
455,313,314,303,0
455,315,311,301,0
455,316,309,299,0
455,315,307,298,0
455,310,305,296,0
456,305,302,295,0
458,300,300,294,0
460,298,296,294,0
461,296,293,294,0
461,294,291,296,0
460,294,292,298,0
459,296,296,301,0
458,298,298,303,0
455,298,300,304,0
452,298,301,304,0
450,297,301,305,0
449,297,300,305,0
446,298,300,306,0
443,301,300,306,0
440,303,301,306,0
437,302,301,305,0
436,298,301,304,0
436,290,302,303,0
437,280,302,303,0
439,270,301,302,0
440,264,301,302,0
441,269,301,301,0
440,280,301,300,0
440,288,301,299,0
439,289,300,299,0
438,290,300,298,0
436,294,299,297,0
435,302,297,295,0
434,309,296,295,0
434,316,294,295,0
435,316,295,296,0
437,311,296,297,0
440,303,298,300,0
439,295,300,303,0
435,286,299,304,0
430,279,299,304,0
426,278,297,303,0
422,285,296,302,0
420,295,294,301,0
418,310,294,301,0
418,326,295,301,0
419,341,296,302,0
420,351,297,302,0
421,356,297,303,0
420,354,298,305,0
419,347,298,307,0
418,339,298,308,0
417,331,298,308,0
416,326,299,308,0
416,323,300,308,0
416,324,301,308,0
416,327,301,308,0
416,329,301,308,0
415,328,300,310,0
415,323,300,312,0
414,316,299,314,0
413,308,299,315,0
411,299,300,315,0
410,291,300,314,0
409,285,299,311,0
407,284,297,308,0
406,284,293,305,0
407,286,290,303,0
409,293,287,302,0
410,301,287,300,0
411,306,289,300,0
408,307,292,300,0
404,303,297,302,0
401,296,301,304,0
401,286,303,306,0
403,274,305,309,0
405,267,306,313,0
405,262,304,314,0
405,256,302,315,0
404,258,301,315,0
402,268,300,313,0
399,286,299,311,0
393,308,298,310,0
389,327,297,310,0
388,337,297,311,0
389,337,298,310,0
394,327,298,308,0
398,314,298,306,0
400,303,297,304,0
398,299,297,303,0
393,303,297,302,0
383,311,297,302,0
375,317,296,303,0
368,316,296,303,0
364,312,296,303,0
363,305,295,304,0
365,304,296,305,0
369,308,298,307,0
373,316,301,307,0
375,326,304,307,0
377,338,305,307,0
379,350,306,308,0
380,359,305,309,0
380,362,304,309,0
380,361,303,309,0
378,356,301,309,0
375,349,301,309,0
371,343,303,309,0
369,338,305,308,0
368,335,308,306,0
368,333,310,304,0
369,331,312,302,0
370,329,312,300,0
371,327,311,298,0
371,325,309,297,0
371,322,307,296,0
370,318,303,295,0
369,311,301,295,0
368,300,299,295,0
369,290,301,297,0
371,280,304,300,0
371,271,308,302,0
370,268,310,303,0
368,273,311,302,0
365,284,311,302,0
362,295,312,301,0
361,302,312,301,0
362,307,311,303,0
363,312,310,305,0
364,314,310,309,0
364,314,310,312,0
363,312,310,314,0
362,309,309,314,0
361,309,308,313,0
359,309,308,313,0
359,310,308,312,0
359,311,309,310,0
358,311,310,310,0
357,310,311,309,0
355,308,311,308,0
354,306,310,308,0
354,302,309,309,0
354,297,308,309,0
354,296,308,309,0
354,299,308,309,0
353,306,309,309,0
353,312,309,309,0
352,317,309,309,0
351,318,309,308,0
351,314,310,309,0
351,307,311,310,0
352,299,311,311,0
354,293,310,312,0
356,289,309,313,0
357,286,307,313,0
356,285,305,312,0
354,285,304,308,0
352,285,303,304,0
349,286,304,300,0
347,290,304,298,0
347,296,305,297,0
347,300,306,297,0
348,300,307,296,0
349,299,307,296,0
350,297,308,298,0
350,294,309,299,0
348,288,309,300,0
345,282,307,301,0
340,283,306,301,0
336,291,306,303,0
335,302,307,305,0
335,311,307,308,0
338,314,308,309,0
343,312,308,310,0
346,309,307,309,0
346,307,307,308,0
344,305,307,307,0
342,302,307,305,0
339,298,306,304,0
338,297,304,303,0
336,297,302,303,0
334,298,300,302,0
331,300,298,302,0
326,306,298,302,0
323,313,298,303,0
323,320,300,304,0
325,325,302,304,0
326,322,305,306,0
328,316,308,307,0
329,308,312,309,0
331,301,315,311,0
333,294,318,313,0
334,290,320,314,0
334,291,320,313,0
333,298,318,311,0
332,307,317,309,0
333,317,315,307,0
333,327,314,306,0
332,335,312,304,0
333,339,309,303,0
335,343,306,303,0
340,345,305,304,0
346,345,305,306,0
350,340,305,307,0
346,329,306,307,0
338,313,307,306,0
330,298,309,305,0
326,287,311,303,0
324,281,311,300,0
325,280,310,296,0
328,283,309,294,0
333,288,310,295,0
340,297,310,297,0
343,304,310,300,0
342,310,309,302,0
337,315,308,305,0
333,320,308,307,0
330,323,309,308,0
328,325,310,309,0
327,326,312,310,0
328,327,313,311,0
327,328,313,311,0
326,328,312,310,0
324,328,312,308,0
323,325,311,306,0
321,320,310,305,0
319,316,309,303,0
318,314,308,301,0
317,309,308,300,0
317,304,309,300,0
318,298,310,301,0
319,288,311,302,0
321,276,313,302,0
324,263,314,304,0
325,253,316,305,0
324,250,317,306,0
322,253,315,304,0
320,263,313,301,0
320,286,311,301,0
323,315,310,301,0
325,339,309,301,0
326,354,309,300,0
325,361,309,299,0
324,364,310,298,0
324,363,312,298,0
324,360,312,298,0
323,354,312,299,0
322,349,312,300,0
322,342,312,301,0
321,334,312,304,0
321,324,313,306,0
320,313,314,308,0
318,305,314,308,0
317,300,314,308,0
316,301,314,307,0
316,305,315,307,0
319,310,316,309,0
323,313,317,312,0
327,312,318,314,0
328,310,318,314,0
327,309,317,313,0
324,310,317,313,0
318,312,316,312,0
314,313,314,312,0
310,312,313,311,0
309,310,311,310,0
308,306,309,308,0
308,302,309,307,0
308,300,310,306,0
310,300,312,306,0
311,303,313,306,0
312,304,314,306,0
313,303,314,306,0
314,302,315,306,0
314,304,316,307,0
313,308,317,308,0
310,311,317,310,0
309,312,317,311,0
310,314,318,312,0
312,316,319,313,0
314,316,320,313,0
315,311,319,313,0
314,300,316,312,0
313,290,314,311,0
313,286,311,308,0
312,289,309,306,0
311,295,308,304,0
311,297,308,304,0
311,296,309,304,0
311,292,309,305,0
311,288,311,307,0
312,287,312,308,0
313,287,313,311,0
313,288,313,312,0
311,291,313,312,0
308,292,312,311,0
304,288,309,309,0
304,289,308,308,0
306,298,307,309,0
308,309,307,310,0
310,317,307,311,0
312,321,304,312,0
311,320,299,311,0
309,317,293,309,0
307,315,287,307,0
305,312,284,303,0
304,310,284,300,0
303,314,289,299,0
304,319,294,300,0
307,320,299,300,0
309,315,302,300,0
310,308,303,299,0
309,303,303,297,0
305,302,304,297,0
303,305,306,297,0
302,308,309,297,0
303,313,311,295,0
305,317,312,295,0
306,320,314,296,0
306,323,314,299,0
304,324,313,303,0
303,323,313,306,0
303,322,312,310,0
304,319,312,313,0
304,316,311,314,0
304,312,310,316,0
306,305,310,318,0
307,297,310,320,0
308,291,310,320,0
309,289,308,319,0
309,292,306,317,0
307,294,303,313,0
305,292,300,309,0
306,291,298,305,0
309,292,298,303,0
312,297,300,303,0
315,305,303,305,0
316,314,306,309,0
315,321,309,312,0
313,324,312,314,0
310,328,314,315,0
308,332,314,316,0
308,335,314,316,0
308,334,314,316,0
308,332,313,316,0
307,329,312,316,0
308,324,311,317,0
308,320,310,316,0
308,313,310,315,0
308,306,312,315,0
311,305,315,317,0
314,309,316,319,0
314,315,318,320,0
313,319,318,321,0
310,317,318,321,0
305,312,317,318,0
301,312,316,316,0
299,317,315,314,0
298,323,313,313,0
298,329,312,313,0
298,333,311,312,0
299,331,311,311,0
299,323,311,309,0
298,309,310,307,0
296,295,309,305,0
295,287,308,303,0
295,284,307,302,0
297,285,307,301,0
301,288,308,300,0
305,289,308,300,0
306,289,308,301,0
306,292,309,302,0
305,298,309,303,0
305,306,310,306,0
304,316,310,309,0
304,325,308,312,0
304,330,306,314,0
303,333,305,316,0
304,332,304,316,0
305,329,303,315,0
306,325,304,313,0
308,319,304,312,0
308,314,304,309,0
310,310,303,306,0
310,308,302,303,0
309,306,302,302,0
308,301,304,302,0
308,292,307,304,0
309,284,309,306,0
310,277,310,306,0
310,272,309,306,0
311,271,307,306,0
313,275,305,306,0
314,281,305,308,0
313,287,306,310,0
312,296,309,313,0
312,307,312,314,0
313,319,313,315,0
312,331,314,314,0
311,338,315,312,0
309,339,315,310,0
306,336,315,308,0
303,331,314,305,0
300,327,313,303,0
298,327,312,299,0
298,327,310,296,0
299,324,309,294,0
299,318,309,293,0
300,309,308,293,0
300,300,309,295,0
300,294,309,297,0
301,294,310,300,0
303,299,311,304,0
306,305,313,309,0
307,308,313,313,0
307,308,312,315,0
305,306,311,315,0
304,307,309,314,0
304,309,309,313,0
305,309,310,311,0
305,302,310,309,0
304,291,310,307,0
303,284,308,306,0
302,282,306,305,0
301,282,306,304,0
301,283,307,303,0
301,285,308,303,0
300,289,309,302,0
300,295,310,302,0
300,304,311,303,0
301,317,312,303,0
304,329,313,304,0
306,336,313,305,0
308,338,313,306,0
311,336,314,307,0
314,333,315,307,0
315,330,316,308,0
316,327,316,308,0
314,323,317,308,0
310,319,316,308,0
306,314,315,307,0
303,310,313,307,0
301,306,311,307,0
301,305,310,307,0
302,305,309,308,0
304,305,309,310,0
305,305,307,311,0
307,305,307,311,0
309,306,307,310,0
309,307,308,310,0
309,306,308,310,0
307,303,309,309,0
304,299,309,309,0
303,297,310,309,0
303,297,312,310,0
304,298,312,309,0
305,299,312,309,0
305,298,311,309,0
305,292,311,310,0
304,286,310,310,0
303,283,311,312,0
304,282,312,313,0
304,283,313,314,0
305,284,312,315,0
306,286,312,315,0
306,289,311,313,0
305,290,311,311,0
304,289,310,309,0
303,286,311,307,0
303,284,311,306,0
303,280,312,304,0
302,272,313,302,0
301,264,313,299,0
299,260,313,297,0
298,266,312,295,0
299,281,311,294,0
302,299,310,296,0
305,313,309,299,0
308,319,309,302,0
311,322,308,304,0
311,326,309,305,0
311,331,309,307,0
312,335,309,309,0
310,338,308,308,0
309,339,307,305,0
308,339,307,303,0
307,339,307,302,0
305,337,306,299,0
303,333,307,298,0
302,328,306,296,0
302,322,305,295,0
302,316,304,294,0
303,311,304,295,0
304,306,305,295,0
304,302,307,296,0
304,300,309,298,0
304,300,312,300,0
304,301,313,303,0
304,304,314,306,0
304,307,315,309,0
304,305,316,311,0
304,300,316,313,0
305,296,315,315,0
306,295,315,318,0
307,295,314,319,0
308,297,313,319,0
308,299,312,318,0
309,301,312,318,0
309,304,312,317,0
310,308,312,316,0
310,314,311,316,0
310,315,309,315,0
308,312,307,313,0
305,307,305,311,0
303,301,303,310,0
302,297,301,310,0
303,294,301,311,0
306,294,304,312,0
308,294,307,312,0
310,295,311,311,0
312,291,313,310,0
313,281,313,309,0
313,273,313,308,0
312,275,312,307,0
309,286,312,307,0
306,301,312,307,0
302,313,313,308,0
297,318,312,308,0
293,318,313,308,0
292,313,313,309,0
292,305,314,310,0
292,296,314,310,0
293,292,315,309,0
295,294,315,309,0
297,301,315,310,0
299,310,316,311,0
299,316,315,312,0
299,318,314,311,0
298,320,313,311,0
299,320,311,311,0
300,316,310,311,0
301,309,310,311,0
305,302,311,311,0
310,300,312,311,0
315,302,312,311,0
318,304,312,310,0
316,305,310,307,0
313,305,308,305,0
309,303,305,303,0
308,301,303,301,0
307,299,303,302,0
307,297,305,305,0
306,291,307,307,0
305,286,310,309,0
305,285,312,310,0
305,289,313,312,0
306,297,313,313,0
305,304,314,314,0
305,312,314,316,0
305,320,314,316,0
304,329,314,315,0
304,335,314,312,0
304,337,314,308,0
305,334,314,303,0
304,331,313,298,0
305,330,313,295,0
306,329,312,293,0
307,326,311,293,0
309,321,312,295,0
310,314,312,298,0
312,307,313,301,0
312,300,313,304,0
313,296,314,307,0
315,298,315,311,0
313,301,316,313,0
311,304,316,314,0
308,305,315,313,0
305,305,313,312,0
304,303,312,312,0
305,304,313,313,0
305,306,314,315,0
306,302,316,317,0
306,293,317,319,0
306,282,317,320,0
304,274,317,318,0
302,270,316,317,0
301,272,315,315,0
302,278,315,315,0
303,286,314,314,0
303,295,314,313,0
304,302,314,313,0
305,307,314,313,0
307,312,315,312,0
309,320,315,311,0
311,328,316,309,0
312,334,317,308,0
313,339,317,307,0
314,340,317,308,0
315,340,317,309,0
318,338,317,310,0
319,330,316,311,0
317,316,315,312,0
314,298,314,313,0
310,283,313,313,0
307,274,312,313,0
307,273,312,311,0
309,275,311,311,0
311,279,311,310,0
313,283,312,310,0
314,287,312,310,0
313,289,313,309,0
311,289,314,307,0
308,293,314,305,0
305,299,314,304,0
303,304,314,304,0
301,310,314,303,0
302,318,313,302,0
304,323,313,301,0
305,327,313,299,0
305,330,313,298,0
304,333,313,298,0
304,334,313,299,0
304,334,313,299,0
302,333,312,299,0
301,330,311,299,0
301,326,310,298,0
303,322,308,298,0
305,318,307,298,0
305,315,306,298,0
306,312,308,301,0
308,311,311,305,0
309,309,316,309,0
310,308,319,313,0
311,304,321,317,0
310,297,322,319,0
309,288,322,320,0
308,278,322,322,0
309,270,322,322,0
311,268,321,322,0
313,269,321,321,0
316,271,320,320,0
318,274,320,319,0
319,276,319,318,0
316,282,318,315,0
312,291,316,313,0
307,302,316,311,0
305,312,316,310,0
305,321,317,310,0
307,329,319,309,0
310,335,320,308,0
312,336,321,306,0
313,334,319,304,0
313,330,317,301,0
315,326,316,299,0
314,321,316,300,0
310,317,316,302,0
305,312,316,304,0
300,306,316,306,0
297,301,315,308,0
296,297,315,312,0
295,292,314,314,0
295,283,312,315,0
297,275,310,315,0
300,269,310,314,0
304,265,310,312,0
305,262,309,310,0
304,267,308,307,0
304,281,309,306,0
306,298,311,306,0
309,314,314,307,0
309,327,317,307,0
308,337,318,307,0
306,343,318,306,0
306,346,317,305,0
307,348,317,305,0
310,349,318,306,0
312,346,318,306,0
312,339,318,305,0
309,331,316,305,0
304,324,314,304,0
300,318,313,303,0
297,312,313,302,0
296,308,314,302,0
297,306,315,302,0
299,308,318,303,0
303,313,320,304,0
305,315,322,304,0
306,312,322,304,0
306,303,320,303,0
304,293,319,303,0
302,287,318,304,0
301,284,316,305,0
299,287,315,306,0
299,295,314,307,0
300,304,314,309,0
302,315,313,310,0
303,323,311,312,0
304,329,312,313,0
305,329,312,314,0
306,323,313,313,0
307,314,312,312,0
308,304,311,311,0
309,297,310,310,0
309,293,309,309,0
308,289,307,308,0
306,284,308,307,0
304,278,310,306,0
301,274,313,306,0
300,274,315,307,0
299,276,315,309,0
301,280,316,311,0
305,285,314,313,0
310,292,311,314,0
313,299,309,315,0
312,305,309,316,0
310,310,310,316,0
307,313,312,316,0
304,315,314,316,0
301,313,316,315,0
300,305,317,315,0
299,294,318,314,0
299,282,318,313,0
301,270,318,311,0
302,263,318,309,0
303,266,318,309,0
305,278,318,310,0
309,295,317,311,0
312,315,317,311,0
314,333,316,310,0
314,346,315,307,0
315,355,315,304,0
315,358,315,302,0
316,357,314,300,0
316,351,313,299,0
315,342,312,299,0
314,332,312,300,0
314,324,312,301,0
313,316,312,303,0
312,309,311,305,0
311,305,309,306,0
309,304,308,308,0
307,306,307,309,0
305,311,306,309,0
304,318,306,309,0
304,322,307,309,0
304,322,308,310,0
304,319,310,311,0
304,316,311,311,0
303,313,311,310,0
301,307,310,309,0
300,298,311,310,0
299,287,312,311,0
300,275,314,312,0
301,267,315,311,0
302,267,315,308,0
304,273,314,305,0
307,285,314,304,0
312,296,314,304,0
317,305,313,304,0
321,311,312,304,0
325,317,311,304,0
327,324,310,305,0
326,332,308,305,0
320,337,306,305,0
313,335,304,306,0
305,328,302,305,0
299,320,300,304,0
295,317,301,304,0
295,316,304,304,0
296,317,306,305,0
297,314,309,306,0
297,309,312,307,0
298,305,314,309,0
300,301,315,312,0
301,300,316,312,0
303,301,316,313,0
305,304,317,314,0
307,307,316,314,0
308,311,316,314,0
308,314,314,314,0
307,314,313,313,0
306,310,313,312,0
307,303,313,311,0
307,296,314,311,0
309,289,315,310,0
309,285,316,310,0
309,284,316,309,0
309,286,316,309,0
310,293,316,308,0
309,303,315,307,0
309,312,314,306,0
308,319,312,306,0
308,322,309,306,0
307,323,307,305,0
307,324,306,305,0
307,324,305,306,0
308,322,306,308,0
308,319,307,310,0
309,315,308,312,0
309,311,309,313,0
310,308,310,314,0
312,306,309,313,0
312,301,306,312,0
312,294,303,310,0
310,288,300,307,0
306,286,298,305,0
303,289,298,303,0
300,298,300,301,0
300,307,303,300,0
301,310,305,300,0
303,306,308,299,0
304,299,309,297,0
305,291,310,295,0
304,287,309,293,0
303,292,308,291,0
304,304,308,291,0
305,318,307,292,0
307,328,307,294,0
309,334,308,296,0
309,337,309,298,0
309,337,309,301,0
308,335,308,303,0
307,328,308,305,0
306,316,307,306,0
305,300,307,306,0
303,285,306,307,0
302,275,306,308,0
302,271,306,310,0
302,273,307,311,0
302,278,307,311,0
301,286,307,310,0
300,296,307,308,0
302,304,309,306,0
305,309,310,303,0
309,311,310,302,0
311,311,311,303,0
311,310,312,304,0
310,309,312,306,0
307,308,311,307,0
305,308,310,308,0
305,308,310,310,0
305,307,311,311,0
304,306,311,312,0
304,304,310,311,0
304,304,309,310,0
305,304,308,308,0
305,303,307,307,0
307,298,307,306,0
308,292,308,306,0
310,290,309,307,0
313,291,310,307,0
315,293,310,308,0
316,297,310,310,0
316,302,311,312,0
313,306,310,313,0
309,308,311,313,0
305,310,310,313,0
303,311,310,312,0
301,310,310,311,0
301,309,309,309,0
300,304,309,308,0
299,296,309,308,0
299,289,309,307,0
298,286,310,307,0
297,287,309,306,0
297,290,309,305,0
298,292,309,305,0
299,292,309,305,0
300,290,309,304,0
300,283,308,302,0
299,275,307,299,0
298,273,306,298,0
298,278,307,297,0
300,289,308,297,0
303,298,309,297,0
304,301,309,298,0
303,298,308,297,0
302,295,307,298,0
303,297,307,300,0
304,302,307,303,0
305,308,308,305,0
306,314,307,308,0
308,316,306,311,0
310,315,305,312,0
312,309,304,312,0
313,303,304,310,0
311,301,303,308,0
307,300,303,306,0
302,301,302,305,0
298,304,302,303,0
297,309,302,303,0
298,311,303,304,0
299,310,304,306,0
300,307,303,308,0
301,301,302,309,0
303,293,301,309,0
305,289,303,310,0
309,291,306,311,0
315,301,309,312,0
319,312,311,311,0
321,319,312,309,0
320,321,311,307,0
318,316,310,307,0
314,308,309,308,0
309,300,308,308,0
306,298,308,309,0
304,302,309,309,0
303,308,309,309,0
303,312,310,309,0
304,316,311,308,0
304,321,311,308,0
305,325,312,309,0
305,330,312,311,0
305,333,311,312,0
303,333,310,311,0
302,329,309,311,0
301,322,311,310,0
302,315,313,310,0
303,310,313,309,0
305,307,312,307,0
307,305,311,306,0
311,303,311,306,0
312,301,313,307,0
309,298,315,308,0
306,298,316,308,0
303,301,317,307,0
301,306,316,307,0
300,311,315,308,0
300,310,313,308,0
299,304,311,308,0
298,301,310,308,0
298,301,309,309,0
300,300,309,310,0
302,297,309,311,0
301,296,310,312,0
302,304,311,314,0
304,315,313,315,0
305,323,313,315,0
305,323,312,313,0
304,317,311,311,0
302,309,309,309,0
301,298,308,307,0
300,290,307,305,0
300,288,306,304,0
300,291,305,303,0
301,297,304,302,0
301,301,303,301,0
301,302,304,301,0
302,303,304,300,0
303,305,305,300,0
303,306,306,301,0
304,306,306,303,0
304,303,308,306,0
303,298,308,308,0
303,293,307,308,0
302,296,306,307,0
301,304,305,307,0
303,314,305,307,0
305,322,305,309,0
307,325,305,311,0
308,325,305,312,0
309,323,307,312,0
309,324,308,313,0
309,327,311,313,0
309,328,311,313,0
307,325,311,314,0
304,320,310,313,0
302,317,309,313,0
303,316,309,313,0
305,315,309,313,0
308,312,309,313,0
310,309,308,312,0
310,306,308,310,0
309,304,307,308,0
308,304,306,307,0
308,302,305,308,0
309,299,305,309,0
309,293,306,311,0
310,288,308,313,0
312,285,310,314,0
312,285,311,314,0
310,288,310,312,0
309,293,309,310,0
308,300,308,309,0
306,304,307,307,0
306,306,307,307,0
306,305,306,306,0
307,304,307,307,0
308,302,307,307,0
309,302,308,308,0
309,301,307,309,0
308,296,308,310,0
308,292,309,311,0
309,292,310,311,0
309,291,310,310,0
307,288,309,309,0
305,285,309,310,0
305,283,309,311,0
306,282,310,312,0
307,279,310,312,0
305,277,309,311,0
302,278,307,308,0
298,283,305,306,0
297,289,304,305,0
297,293,303,305,0
297,296,303,305,0
299,299,303,305,0
302,303,303,305,0
305,309,303,305,0
309,315,305,303,0
312,322,306,302,0
316,327,308,301,0
318,328,308,301,0
318,324,309,301,0
315,317,308,302,0
311,310,308,302,0
308,303,309,302,0
306,298,309,303,0
305,295,309,304,0
304,293,309,305,0
303,292,308,304,0
301,292,307,304,0
300,291,307,304,0
299,292,306,305,0
298,294,306,306,0
298,301,306,308,0
298,310,305,310,0
299,319,305,310,0
300,325,304,310,0
301,325,304,310,0
304,322,304,310,0
307,318,305,310,0
310,312,305,310,0
312,303,306,310,0
312,292,307,309,0
313,285,308,310,0
313,285,309,310,0
310,289,309,312,0
306,297,310,314,0
303,304,311,317,0
300,310,311,320,0
298,313,310,323,0
297,314,309,323,0
294,313,309,321,0
293,311,308,319,0
292,306,307,316,0
292,303,306,314,0
294,302,305,312,0
297,306,305,311,0
302,308,305,311,0
306,307,306,311,0
308,305,307,311,0
309,302,306,311,0
309,303,306,312,0
308,308,307,312,0
307,314,307,313,0
306,317,305,313,0
304,317,304,311,0
303,319,303,310,0
302,323,303,309,0
302,325,303,308,0
303,324,304,308,0
304,320,304,308,0
306,311,304,308,0
306,300,303,308,0
306,288,303,309,0
305,276,304,309,0
303,270,304,309,0
301,268,303,309,0
300,272,304,309,0
302,279,305,308,0
305,287,306,307,0
308,290,306,306,0
310,287,307,305,0
310,281,309,305,0
309,275,309,304,0
305,277,308,304,0
302,285,308,304,0
300,297,307,305,0
300,309,306,307,0
301,320,306,309,0
303,330,307,312,0
305,336,308,314,0
306,341,309,314,0
307,343,310,315,0
308,343,310,315,0
310,341,311,315,0
311,339,312,315,0
311,333,313,314,0
309,325,312,313,0
306,316,311,312,0
303,309,309,311,0
301,307,308,309,0
302,310,308,308,0
304,314,310,307,0
307,316,310,306,0
310,316,310,306,0
312,312,308,305,0
311,304,308,306,0
308,297,309,306,0
304,291,310,307,0
300,288,310,307,0
298,284,309,305,0
296,282,309,302,0
297,282,309,301,0
300,287,310,300,0
302,294,310,302,0
302,302,312,303,0
302,310,312,305,0
301,314,312,305,0
300,316,312,304,0
300,312,311,304,0
300,307,310,304,0
301,305,310,304,0
302,303,309,305,0
304,304,308,307,0
306,304,307,308,0
307,306,306,309,0
308,308,305,309,0
307,308,305,308,0
307,306,306,308,0
306,303,307,310,0
307,301,309,311,0
307,298,309,313,0
308,294,310,314,0
309,289,310,315,0
309,285,310,315,0
307,282,309,314,0
305,282,310,312,0
305,287,310,311,0
305,296,309,309,0
306,302,308,307,0
307,304,307,305,0
307,306,306,303,0
306,309,305,302,0
306,313,305,302,0
305,319,307,302,0
305,326,309,304,0
305,333,312,305,0
306,337,313,305,0
307,337,313,305,0
308,332,312,305,0
308,326,311,305,0
309,321,310,305,0
309,319,310,305,0
309,317,310,304,0
308,315,309,303,0
307,317,309,301,0
308,320,310,300,0
309,321,311,301,0
310,321,312,303,0
311,319,312,306,0
311,315,312,308,0
310,310,311,310,0
310,303,311,311,0
309,296,310,310,0
308,290,309,309,0
309,288,308,308,0
309,287,308,308,0
309,286,307,308,0
309,286,307,307,0
312,289,308,305,0
315,294,309,304,0
316,303,310,303,0
316,310,311,303,0
313,313,310,303,0
311,310,308,301,0
309,305,306,300,0
309,301,305,300,0
310,299,306,299,0
310,299,308,299,0
310,301,310,299,0
310,304,312,299,0
310,307,313,301,0
310,310,314,304,0
312,312,314,307,0
312,312,313,309,0
311,309,313,311,0
310,304,313,312,0
309,299,314,313,0
308,295,314,314,0
306,291,314,313,0
303,284,314,311,0
301,278,314,308,0
301,277,314,305,0
302,276,314,303,0
303,273,314,302,0
305,271,315,302,0
306,274,314,303,0
306,280,314,303,0
306,291,312,303,0
308,304,312,306,0
309,315,311,309,0
307,322,310,311,0
305,323,310,313,0
302,323,311,313,0
302,326,313,313,0
302,329,314,313,0
303,329,316,312,0
306,330,318,311,0
310,333,320,309,0
313,337,320,308,0
315,337,318,305,0
314,331,313,302,0
311,321,309,299,0
307,309,305,296,0
304,299,302,293,0
301,290,301,293,0
300,285,301,294,0
302,283,304,296,0
304,282,307,299,0
307,278,311,302,0
308,274,315,304,0
306,276,316,307,0
305,285,317,309,0
304,296,318,312,0
304,305,319,313,0
305,313,320,313,0
306,320,321,313,0
307,325,322,312,0
308,324,321,311,0
307,322,321,311,0
306,319,319,311,0
305,317,318,311,0
303,316,316,311,0
303,315,315,311,0
303,314,314,310,0
302,312,313,307,0
302,308,313,305,0
301,303,313,302,0
300,299,312,300,0
302,299,312,299,0
303,299,311,299,0
303,295,311,301,0
304,285,311,302,0
304,272,311,303,0
305,260,311,302,0
305,255,310,300,0
306,260,310,298,0
307,272,310,296,0
309,288,308,296,0
309,303,308,296,0
309,315,306,297,0
310,323,305,298,0
311,325,303,298,0
311,322,302,299,0
309,319,302,302,0
308,318,304,306,0
307,318,307,310,0
307,318,310,314,0
307,317,311,316,0
308,313,312,316,0
307,308,312,314,0
308,302,311,313,0
309,296,312,312,0
310,289,312,311,0
311,285,313,312,0
310,286,313,312,0
309,290,312,312,0
307,293,310,311,0
305,297,308,310,0
304,303,306,307,0
304,310,305,304,0
304,316,305,301,0
304,318,305,298,0
304,314,305,297,0
304,306,304,295,0
304,297,302,294,0
302,289,301,293,0
299,289,301,294,0
298,297,303,296,0
299,308,305,299,0
300,320,307,302,0
300,330,308,305,0
300,338,309,307,0
302,345,310,309,0
306,349,311,311,0
308,349,310,312,0
310,345,310,313,0
311,341,310,313,0
311,338,310,314,0
310,333,310,315,0
308,324,309,315,0
306,313,309,315,0
304,302,309,315,0
304,292,310,315,0
306,284,310,315,0
310,279,310,314,0
312,278,311,312,0
312,278,310,308,0
310,281,310,306,0
307,282,310,304,0
305,284,309,305,0
304,286,310,307,0
304,289,309,310,0
303,292,308,310,0
303,292,306,311,0
303,288,306,310,0
304,284,306,309,0
305,281,307,306,0
306,282,307,303,0
307,286,306,301,0
309,294,303,300,0
310,305,301,301,0
310,313,300,302,0
310,318,300,303,0
309,319,301,304,0
307,317,303,304,0
305,314,304,305,0
304,310,305,307,0
303,308,307,307,0
304,306,309,308,0
306,307,312,310,0
308,308,314,312,0
310,308,315,314,0
313,305,316,314,0
314,302,316,314,0
314,301,316,313,0
314,300,316,312,0
313,299,316,311,0
312,298,315,311,0
311,298,314,310,0
310,301,313,310,0
310,303,311,309,0
309,304,309,307,0
310,303,307,307,0
311,302,305,305,0
313,300,303,304,0
313,299,303,304,0
311,300,304,305,0
309,303,306,306,0
307,306,308,307,0
306,307,309,308,0
305,308,310,309,0
305,309,311,309,0
305,308,311,308,0
306,305,311,307,0
306,300,310,306,0
307,295,308,305,0
306,292,306,304,0
304,293,304,303,0
302,299,303,302,0
300,305,302,302,0
300,309,303,303,0
299,306,304,304,0
297,301,304,303,0
297,301,305,302,0
299,309,305,302,0
302,320,306,301,0
305,327,307,301,0
307,330,307,301,0
308,331,306,302,0
308,330,305,303,0
307,326,304,304,0
306,320,304,306,0
306,315,305,309,0
306,313,306,311,0
306,311,306,313,0
307,309,306,314,0
308,307,306,314,0
311,304,307,313,0
314,299,307,312,0
319,293,308,312,0
323,291,308,311,0
327,292,308,310,0
327,292,308,308,0
324,290,307,306,0
319,288,306,305,0
313,288,306,306,0
307,290,305,307,0
302,290,306,308,0
299,292,306,309,0
298,295,307,310,0
299,300,308,311,0
300,305,308,311,0
303,309,308,311,0
304,313,305,310,0
306,316,303,310,0
307,319,303,310,0
307,319,303,310,0
307,318,305,311,0
307,317,307,311,0
306,314,310,311,0
306,308,310,311,0
306,297,311,310,0
308,285,310,311,0
309,277,309,311,0
309,275,308,311,0
309,277,307,311,0
310,280,306,310,0
310,284,305,308,0
310,290,304,306,0
311,297,304,305,0
313,301,304,303,0
314,301,303,302,0
314,302,304,302,0
312,311,304,304,0
310,322,303,306,0
308,330,303,307,0
306,329,302,306,0
304,324,302,306,0
304,319,303,306,0
304,317,304,307,0
305,314,304,307,0
306,311,304,307,0
306,308,302,306,0
305,307,299,304,0
302,307,297,303,0
300,306,297,303,0
299,303,298,305,0
298,300,299,305,0
298,298,299,306,0
299,298,301,307,0
301,303,302,309,0
303,310,304,311,0
306,318,305,313,0
308,322,307,314,0
309,321,308,313,0
309,317,309,312,0
309,313,310,311,0
310,313,309,308,0
310,315,309,306,0
312,318,309,304,0
313,319,309,303,0
314,317,309,303,0
314,314,309,303,0
313,311,309,303,0
311,306,309,305,0
309,300,309,307,0
308,293,310,311,0
307,289,311,314,0
307,291,311,317,0
306,299,311,320,0
307,312,312,321,0
309,323,313,322,0
310,330,314,321,0
310,331,314,320,0
307,325,312,317,0
304,316,310,315,0
303,306,308,312,0
302,298,306,311,0
302,289,305,309,0
302,278,305,309,0
303,267,305,308,0
305,260,305,307,0
308,259,306,307,0
311,263,307,307,0
312,268,307,306,0
313,273,307,307,0
312,278,306,307,0
309,283,304,309,0
307,289,304,310,0
305,294,303,310,0
302,297,303,309,0
298,300,302,307,0
296,307,301,305,0
298,314,301,304,0
303,319,301,304,0
309,321,302,305,0
313,322,303,305,0
314,324,303,305,0
313,327,304,306,0
310,331,304,306,0
307,334,305,307,0
303,333,305,307,0
300,330,305,306,0
298,329,305,307,0
299,332,306,308,0
302,334,306,309,0
305,333,306,312,0
305,327,306,314,0
304,321,306,316,0
303,318,307,319,0
304,317,308,319,0
306,317,309,318,0
306,315,310,317,0
306,310,311,316,0
306,305,312,314,0
306,301,313,313,0
306,297,313,312,0
306,296,313,310,0
305,298,312,307,0
305,299,309,305,0
304,297,308,304,0
304,293,306,303,0
304,287,306,304,0
304,281,306,304,0
304,276,307,305,0
304,275,308,305,0
304,278,310,305,0
306,283,311,304,0
308,290,312,303,0
310,296,312,303,0
312,303,311,301,0
312,311,309,300,0
312,318,307,301,0
312,322,306,302,0
311,323,305,304,0
310,319,305,305,0
309,312,304,306,0
307,303,304,307,0
306,294,304,308,0
305,287,304,309,0
307,283,305,310,0
309,283,307,311,0
311,287,308,313,0
311,294,308,315,0
309,300,309,315,0
307,306,309,315,0
306,313,310,315,0
307,320,311,315,0
308,325,312,317,0
309,329,312,318,0
309,329,311,319,0
307,326,310,321,0
305,321,308,321,0
303,317,306,320,0
301,313,304,318,0
301,311,304,316,0
302,309,305,317,0
305,307,307,318,0
307,302,308,318,0
308,287,309,317,0
307,269,308,315,0
306,262,307,314,0
305,268,307,313,0
304,282,305,311,0
303,296,305,310,0
304,308,304,309,0
304,314,304,309,0
305,315,303,309,0
305,315,302,310,0
305,315,300,309,0
304,315,299,309,0
303,316,299,308,0
303,316,299,308,0
304,313,301,307,0
307,312,302,307,0
310,311,303,308,0
313,308,304,309,0
315,304,305,310,0
315,301,305,311,0
314,298,305,311,0
310,296,306,310,0
306,296,307,310,0
302,296,308,310,0
299,298,309,310,0
299,301,310,311,0
300,303,311,312,0
302,302,311,313,0
303,301,311,314,0
305,300,311,314,0
305,300,310,313,0
305,300,309,312,0
305,301,308,311,0
305,300,308,311,0
305,299,308,311,0
305,296,309,311,0
305,295,310,310,0
305,296,311,310,0
305,297,311,309,0
304,299,312,309,0
303,301,311,309,0
302,304,311,309,0
300,307,310,309,0
300,308,307,309,0
300,306,306,309,0
301,302,305,309,0
302,294,305,309,0
303,284,305,307,0
301,277,306,305,0
301,272,307,303,0
300,271,307,301,0
299,275,308,299,0
300,288,309,299,0
301,302,310,299,0
304,311,312,299,0
306,314,313,299,0
308,313,315,301,0
309,309,315,302,0
309,303,315,304,0
308,296,315,304,0
307,292,313,304,0
304,289,311,302,0
302,290,309,299,0
303,297,308,298,0
304,308,307,297,0
306,319,307,297,0
306,328,307,298,0
307,334,307,300,0
307,337,305,302,0
307,337,303,303,0
306,336,300,305,0
305,334,299,306,0
305,331,300,309,0
306,327,303,313,0
307,323,306,316,0
308,316,307,317,0
308,308,308,318,0
308,301,308,319,0
307,297,309,319,0
308,297,310,318,0
310,297,311,318,0
311,296,312,317,0
312,294,311,315,0
312,292,310,314,0
309,290,308,313,0
306,288,306,313,0
303,288,306,314,0
301,289,306,315,0
302,291,308,316,0
304,294,309,317,0
307,297,311,318,0
310,300,312,319,0
312,298,313,319,0
312,294,312,319,0
312,290,312,318,0
313,288,310,317,0
314,288,308,316,0
313,290,307,314,0
311,294,306,311,0
309,298,305,309,0
310,301,303,306,0
310,299,302,303,0
311,298,301,301,0
312,300,302,302,0
313,303,303,303,0
312,302,303,304,0
308,296,302,305,0
306,291,302,308,0
304,289,302,310,0
303,290,304,313,0
304,293,307,314,0
305,301,308,315,0
307,308,309,316,0
308,312,309,316,0
308,310,309,316,0
308,305,308,315,0
307,300,307,313,0
304,298,305,311,0
302,301,304,309,0
302,309,304,310,0
305,318,305,311,0
307,322,306,312,0
308,320,306,312,0
307,314,306,311,0
307,309,306,311,0
307,306,307,310,0
307,303,307,309,0
307,300,308,309,0
307,300,308,309,0
308,302,308,310,0
308,308,309,313,0
310,315,309,316,0
310,319,310,318,0
310,320,309,320,0
309,319,308,321,0
307,316,306,320,0
306,311,304,318,0
304,308,303,316,0
304,306,302,314,0
304,307,302,312,0
305,308,302,310,0
307,309,302,309,0
310,307,303,308,0
311,303,304,308,0
310,299,304,307,0
307,295,303,305,0
304,292,301,304,0
302,293,301,303,0
302,299,302,303,0
302,306,304,304,0
303,311,305,305,0
305,313,307,307,0
306,311,309,309,0
308,307,311,312,0
310,304,313,315,0
312,301,314,316,0
313,299,314,315,0
313,299,313,313,0
312,301,311,311,0
311,303,309,308,0
309,302,308,306,0
308,302,307,304,0
307,304,307,303,0
306,306,307,302,0
307,307,306,302,0
307,306,306,303,0
309,302,307,305,0
309,296,308,308,0
310,292,310,312,0
311,291,311,315,0
312,290,312,318,0
312,287,313,320,0
311,287,311,321,0
308,290,310,320,0
306,299,308,320,0
305,311,308,319,0
305,325,308,319,0
306,339,308,319,0
306,348,306,318,0
303,349,304,316,0
299,345,302,314,0
298,338,302,313,0
298,330,303,312,0
300,323,304,312,0
301,316,305,311,0
303,309,305,310,0
304,303,306,310,0
303,299,306,310,0
302,295,307,309,0
300,294,307,310,0
300,294,308,310,0
299,296,309,311,0
298,299,309,311,0
298,302,308,309,0
297,305,307,307,0
298,304,306,306,0
298,302,306,304,0
298,297,306,302,0
297,292,306,302,0
298,290,307,302,0
299,289,307,303,0
300,290,307,304,0
301,291,306,306,0
301,294,306,305,0
300,299,305,304,0
298,304,304,305,0
297,309,303,306,0
296,312,303,307,0
296,311,302,307,0
297,306,302,306,0
296,303,302,306,0
298,305,302,306,0
300,307,304,307,0
302,308,304,308,0
304,308,305,310,0
306,309,306,311,0
307,311,307,312,0
307,311,308,313,0
304,308,308,313,0
301,303,307,313,0
299,302,307,313,0
298,305,306,312,0
299,309,305,311,0
299,306,304,309,0
300,296,304,308,0
300,286,303,308,0
300,278,301,306,0
298,273,299,303,0
298,276,298,303,0
299,287,297,304,0
302,298,298,305,0
304,310,299,307,0
305,319,301,310,0
306,323,303,313,0
307,322,305,314,0
306,318,306,314,0
303,317,305,314,0
301,320,305,314,0
300,325,303,314,0
299,330,302,313,0
297,334,301,312,0
295,336,301,311,0
294,336,301,310,0
293,333,300,308,0
293,329,300,306,0
294,326,300,305,0
295,325,299,305,0
296,323,300,305,0
297,322,300,306,0
298,315,301,305,0
299,302,302,305,0
300,289,303,304,0
302,281,303,304,0
302,277,302,305,0
301,277,301,305,0
300,282,299,306,0
300,290,299,306,0
301,299,300,307,0
301,304,302,309,0
303,304,302,311,0
302,300,303,313,0
303,292,304,313,0
305,286,306,313,0
308,283,308,313,0
310,284,310,312,0
310,283,311,311,0
308,281,310,309,0
306,282,310,306,0
305,292,309,306,0
306,306,310,306,0
307,318,310,306,0
307,325,309,306,0
307,328,309,306,0
306,328,309,308,0
307,325,309,310,0
308,324,310,313,0
310,323,310,315,0
311,321,310,315,0
310,315,309,315,0
307,306,308,314,0
305,300,308,312,0
304,299,307,310,0
303,304,305,307,0
304,310,303,304,0
305,316,302,303,0
305,319,302,303,0
305,316,303,302,0
303,307,305,302,0
300,302,306,302,0
298,303,307,304,0
296,312,307,305,0
296,321,308,307,0
296,328,308,307,0
298,331,307,306,0
299,330,306,306,0
301,327,305,305,0
301,323,304,305,0
301,320,304,305,0
301,319,305,306,0
302,317,305,307,0
302,315,306,308,0
301,313,307,308,0
300,308,308,307,0
299,302,307,305,0
298,298,305,304,0
297,297,304,303,0
298,298,304,303,0
301,301,306,302,0
304,305,308,302,0
306,306,309,302,0
306,306,309,303,0
305,304,308,303,0
304,301,307,302,0
303,299,307,304,0
304,299,307,306,0
304,301,307,309,0
305,301,309,313,0
305,299,310,315,0
304,295,309,317,0
303,286,309,318,0
301,278,309,318,0
300,272,309,317,0
299,269,309,316,0
298,269,309,314,0
299,273,308,311,0
302,280,308,308,0
306,288,308,307,0
311,295,309,306,0
315,301,310,305,0
317,308,309,305,0
318,314,309,304,0
318,319,307,303,0
319,321,305,301,0
318,319,304,302,0
315,316,303,302,0
312,316,303,303,0
310,317,305,305,0
309,319,306,308,0
310,320,308,311,0
311,318,310,313,0
313,312,310,315,0
312,307,310,316,0
311,307,309,316,0
308,310,309,315,0
308,314,308,314,0
309,316,309,313,0
311,313,309,312,0
313,305,309,311,0
314,297,309,311,0
314,290,308,311,0
313,286,308,311,0
312,285,308,311,0
311,286,309,312,0
313,288,309,312,0
314,291,309,313,0
315,295,308,313,0
315,297,307,314,0
313,301,305,314,0
311,303,304,313,0
307,304,303,312,0
304,305,303,310,0
301,303,303,308,0
299,299,303,306,0
300,295,302,305,0
301,292,301,305,0
303,290,300,307,0
306,289,301,310,0
307,290,302,310,0
308,291,303,308,0
308,292,305,305,0
308,295,307,302,0
308,299,308,302,0
308,306,307,301,0
310,313,306,301,0
311,320,305,299,0
314,325,305,298,0
315,327,306,298,0
314,325,305,297,0
310,318,304,296,0
303,309,303,294,0
298,302,303,294,0
298,297,303,294,0
300,296,303,296,0
302,297,303,297,0
304,299,303,298,0
304,301,304,300,0
304,302,306,302,0
305,303,307,304,0
306,302,307,304,0
306,301,307,304,0
307,305,307,305,0
309,312,307,308,0
309,320,308,311,0
309,325,309,313,0
308,325,310,315,0
307,319,311,315,0
306,309,311,315,0
304,296,311,313,0
302,288,310,312,0
302,287,310,311,0
302,291,310,310,0
303,295,309,309,0
305,300,307,308,0
307,306,305,306,0
308,308,304,303,0
307,308,303,300,0
307,307,303,297,0
308,305,303,295,0
307,302,302,294,0
305,303,300,294,0
304,308,300,295,0
303,313,301,297,0
303,317,301,300,0
304,320,302,303,0
305,323,303,307,0
305,323,304,311,0
305,320,305,313,0
305,314,306,314,0
306,307,307,313,0
306,300,308,312,0
307,296,307,309,0
306,294,307,308,0
305,294,307,306,0
304,294,307,306,0
304,294,307,305,0
304,295,307,305,0
305,296,307,304,0
305,296,306,303,0
305,294,305,304,0
305,300,306,305,0
306,311,307,309,0
308,322,309,312,0
310,331,310,315,0
312,335,311,317,0
313,335,311,317,0
312,330,309,315,0
311,322,307,312,0
310,316,306,309,0
309,313,307,307,0
310,313,308,307,0
312,315,309,307,0
314,315,309,307,0
313,313,308,307,0
310,309,308,307,0
307,305,307,305,0
304,303,306,303,0
302,302,306,300,0
302,303,305,298,0
303,300,305,297,0
304,291,305,296,0
303,282,304,297,0
303,276,304,297,0
305,275,304,299,0
306,277,303,301,0
309,281,304,304,0
310,284,304,306,0
312,283,305,309,0
310,282,305,311,0
309,284,304,313,0
307,289,304,314,0
308,298,306,316,0
311,307,309,318,0
314,316,312,319,0
317,321,313,319,0
318,323,312,319,0
317,321,309,318,0
314,317,306,316,0
311,312,304,315,0
309,307,304,314,0
308,304,304,314,0
307,302,304,313,0
306,301,304,312,0
304,299,305,310,0
304,297,306,309,0
303,296,306,307,0
301,296,305,306,0
302,295,304,306,0
302,294,303,307,0
304,293,302,308,0
304,293,301,308,0
305,292,299,307,0
304,291,298,304,0
303,292,299,301,0
303,297,301,299,0
305,306,303,299,0
307,318,305,301,0
308,327,306,303,0
309,332,306,304,0
309,332,307,305,0
308,325,307,304,0
307,319,306,304,0
307,315,305,304,0
306,318,305,305,0
307,322,305,307,0
308,325,305,310,0
308,326,305,311,0
308,323,305,313,0
307,317,307,314,0
307,310,307,316,0
306,306,307,316,0
306,303,306,316,0
306,300,307,315,0
306,298,308,315,0
307,298,309,315,0
308,301,311,315,0
310,304,312,314,0
311,304,313,313,0
311,302,313,312,0
310,299,313,311,0
309,297,313,311,0
309,296,313,310,0
310,298,313,309,0
312,302,312,307,0
311,305,311,306,0
308,308,309,305,0
305,309,309,305,0
304,309,309,304,0
303,308,311,304,0
304,306,312,305,0
304,298,312,304,0
302,283,311,303,0
298,267,310,302,0
295,258,308,301,0
294,260,307,301,0
296,270,307,301,0
301,283,308,302,0
305,297,308,302,0
308,311,308,303,0
311,322,309,304,0
312,329,309,306,0
313,329,310,308,0
313,324,310,309,0
311,319,309,310,0
309,314,309,312,0
309,312,309,312,0
309,310,308,313,0
310,309,308,314,0
312,307,309,315,0
311,304,309,313,0
310,301,307,312,0
307,303,305,312,0
305,310,304,312,0
303,319,304,312,0
301,324,304,312,0
299,325,304,311,0
299,322,305,310,0
300,319,306,311,0
303,317,308,312,0
306,317,308,312,0
308,317,308,312,0
308,318,307,312,0
308,320,307,312,0
309,323,307,311,0
309,325,306,309,0
308,326,305,307,0
308,325,304,305,0
308,322,305,304,0
308,319,305,303,0
308,317,305,302,0
309,315,305,302,0
308,314,305,301,0
307,313,305,301,0
306,309,304,302,0
308,304,305,303,0
310,298,306,305,0
312,292,307,307,0
313,287,306,309,0
312,284,305,313,0
309,280,304,316,0
303,276,303,319,0
298,278,303,321,0
294,286,302,322,0
293,295,302,322,0
294,303,302,321,0
296,306,304,320,0
299,302,306,319,0
300,292,307,318,0
300,282,307,316,0
298,279,304,313,0
298,288,301,311,0
299,305,298,309,0
303,324,298,308,0
306,338,298,308,0
308,345,300,309,0
308,345,301,309,0
308,340,303,308,0
307,334,304,307,0
307,330,305,306,0
309,329,307,305,0
309,329,308,305,0
308,328,308,304,0
308,325,307,303,0
307,321,307,303,0
307,314,307,303,0
307,304,306,301,0
306,293,305,301,0
304,284,305,301,0
301,278,306,301,0
299,274,306,302,0
299,273,307,302,0
300,272,307,301,0
302,270,307,301,0
303,268,307,302,0
304,271,307,303,0
305,277,308,305,0
306,284,308,305,0
305,295,308,304,0
305,309,306,303,0
305,320,305,304,0
305,327,304,305,0
305,329,303,306,0
305,327,303,308,0
306,323,304,309,0
306,318,304,310,0
307,313,305,310,0
309,309,305,310,0
311,306,306,310,0
312,305,308,310,0
311,305,309,310,0
308,305,310,309,0
305,305,308,306,0
304,306,307,303,0
304,306,305,301,0
305,305,305,300,0
305,305,306,300,0
306,304,308,302,0
306,304,309,304,0
307,304,310,306,0
308,304,310,307,0
309,303,311,308,0
309,301,311,310,0
309,301,311,311,0
310,300,311,312,0
310,300,311,312,0
309,299,309,311,0
308,296,306,310,0
307,293,305,310,0
306,293,305,310,0
306,295,306,310,0
305,298,308,310,0
305,300,311,309,0
304,294,310,308,0
302,280,307,307,0
301,265,304,305,0
298,256,300,304,0
297,253,299,303,0
298,259,299,303,0
302,273,301,303,0
306,290,305,303,0
309,306,307,305,0
310,321,310,306,0
309,330,311,307,0
306,332,312,308,0
303,328,312,308,0
302,323,313,308,0
301,320,313,308,0
301,320,313,309,0
303,323,313,310,0
305,327,313,310,0
307,329,313,311,0
307,328,313,312,0
307,325,312,312,0
307,321,311,313,0
307,316,310,312,0
306,312,310,311,0
306,309,309,310,0
306,308,309,309,0
306,306,308,307,0
306,304,308,304,0
305,301,307,301,0
303,294,306,298,0
301,285,304,295,0
300,281,304,292,0
301,282,303,291,0
303,283,304,290,0
305,282,305,289,0
307,280,307,290,0
308,279,308,293,0
308,279,308,296,0
308,284,308,299,0
307,294,307,302,0
305,305,305,303,0
305,314,305,305,0
304,321,307,307,0
305,323,309,309,0
306,324,311,311,0
308,325,311,313,0
310,323,312,313,0
313,321,312,313,0
316,318,312,312,0
318,314,311,311,0
318,311,311,310,0
315,308,309,309,0
312,305,308,307,0
310,301,307,304,0
308,295,307,302,0
306,283,307,300,0
305,270,308,298,0
304,262,307,297,0
303,262,306,297,0
303,271,305,296,0
304,286,304,296,0
306,298,303,295,0
305,306,303,296,0
303,308,303,298,0
301,304,305,302,0
299,296,307,304,0
298,288,307,305,0
298,282,307,306,0
298,279,306,306,0
297,282,306,307,0
298,292,306,309,0
300,306,307,311,0
303,319,309,313,0
305,327,309,315,0
307,329,310,316,0
307,327,310,315,0
307,322,310,314,0
306,315,311,312,0
306,309,311,311,0
306,307,311,311,0
307,309,310,311,0
309,314,309,312,0
311,318,308,311,0
312,319,308,310,0
311,316,308,309,0
311,308,309,308,0
311,298,310,307,0
311,290,311,306,0
309,284,311,305,0
307,280,311,305,0
305,283,311,306,0
305,291,310,306,0
305,300,310,305,0
305,306,309,304,0
305,311,309,305,0
306,313,308,306,0
309,316,308,308,0
312,321,308,310,0
314,324,309,312,0
314,329,309,312,0
313,332,310,311,0
310,331,310,310,0
307,326,311,309,0
305,318,312,307,0
304,310,311,306,0
304,302,310,304,0
303,297,309,303,0
303,291,308,302,0
302,288,308,301,0
302,285,308,302,0
301,283,309,302,0
301,284,308,302,0
301,286,308,304,0
302,288,308,304,0
303,290,309,305,0
303,293,309,304,0
303,297,310,304,0
302,298,310,303,0
302,300,309,303,0
304,305,308,303,0
306,309,307,304,0
308,312,307,304,0
309,314,307,304,0
308,315,307,305,0
307,316,307,306,0
307,316,306,307,0
308,315,306,307,0
309,313,306,307,0
311,308,305,307,0
311,306,306,308,0
310,308,306,310,0
310,312,306,312,0
310,313,307,314,0
309,310,306,315,0
307,301,306,315,0
304,292,305,315,0
302,284,304,313,0
300,277,304,312,0
298,275,304,311,0
298,279,306,311,0
299,285,307,309,0
298,292,308,308,0
297,299,307,306,0
297,308,307,305,0
300,317,307,304,0
303,323,307,304,0
306,325,308,303,0
306,323,307,303,0
306,319,307,303,0
305,314,306,302,0
304,308,305,301,0
304,302,305,301,0
304,297,304,302,0
305,296,305,303,0
305,298,305,305,0
306,301,306,306,0
306,301,306,307,0
306,298,307,308,0
306,294,307,309,0
306,291,308,309,0
306,291,308,310,0
307,292,307,310,0
306,296,305,309,0
305,299,303,308,0
303,302,301,305,0
300,305,299,302,0
299,308,300,299,0
300,310,302,298,0
302,310,305,298,0
305,309,309,299,0
306,304,310,299,0
305,298,310,299,0
303,294,309,299,0
301,294,309,301,0
301,295,309,304,0
302,291,309,305,0
301,287,308,306,0
301,284,308,305,0
302,284,308,305,0
302,286,308,304,0
302,290,308,301,0
301,299,308,299,0
300,310,308,298,0
300,318,309,297,0
301,323,310,298,0
303,325,311,299,0
304,325,312,301,0
305,320,312,303,0
306,314,312,305,0
306,307,312,307,0
309,300,312,308,0
312,296,311,311,0
315,292,311,313,0
317,292,309,314,0
316,297,308,315,0
313,301,308,315,0
308,304,307,313,0
303,306,307,312,0
301,308,307,311,0
301,309,306,310,0
301,308,305,309,0
302,301,304,307,0
302,290,304,307,0
303,284,306,308,0
303,285,308,310,0
303,290,310,311,0
303,297,310,312,0
304,304,310,312,0
304,308,310,311,0
305,307,310,310,0
305,304,309,309,0
305,302,308,308,0
305,302,306,305,0
305,304,304,304,0
306,309,303,303,0
307,314,304,303,0
309,317,306,304,0
311,318,306,305,0
312,316,307,305,0
311,310,308,305,0
308,302,309,305,0
306,294,309,304,0
305,287,309,302,0
305,280,308,301,0
305,276,307,299,0
305,273,307,298,0
305,273,307,298,0
306,272,308,299,0
303,270,308,299,0
299,269,309,302,0
297,271,309,306,0
296,279,308,310,0
296,288,308,312,0
297,298,307,315,0
300,307,307,316,0
301,313,308,316,0
301,318,309,315,0
301,322,309,314,0
300,324,309,312,0
300,322,309,309,0
301,316,308,306,0
303,315,308,302,0
306,321,308,300,0
309,329,309,299,0
312,335,310,299,0
312,338,309,300,0
311,338,309,299,0
309,336,308,299,0
308,333,309,299,0
308,326,309,299,0
308,321,309,301,0
308,320,310,303,0
308,316,310,304,0
307,311,310,305,0
306,303,310,305,0
304,296,309,305,0
302,289,306,304,0
301,286,303,303,0
301,289,301,304,0
302,294,301,305,0
304,300,302,306,0
304,303,303,306,0
303,302,304,306,0
302,297,305,307,0
301,290,307,308,0
302,284,307,309,0
304,280,308,311,0
305,279,308,312,0
305,284,307,314,0
305,295,306,314,0
305,309,307,315,0
305,322,310,316,0
306,332,312,316,0
307,336,315,317,0
308,333,316,316,0
308,324,316,316,0
307,314,315,314,0
306,311,314,313,0
305,314,312,313,0
305,320,311,312,0
305,327,310,313,0
305,330,309,313,0
305,329,307,312,0
305,326,305,311,0
305,322,305,310,0
305,319,306,308,0
304,313,307,307,0
303,303,307,306,0
302,293,307,306,0
302,289,306,306,0
303,289,306,307,0
303,294,305,307,0
304,299,304,306,0
304,303,303,306,0
305,308,303,307,0
305,310,304,307,0
305,308,306,308,0
305,301,307,308,0
305,295,308,307,0
304,292,307,305,0
304,293,306,304,0
306,300,305,303,0
310,307,305,304,0
313,314,305,304,0
314,319,307,305,0
310,319,308,306,0
305,314,308,307,0
301,309,308,309,0
301,307,309,311,0
302,304,309,311,0
304,298,308,311,0
305,293,308,309,0
305,293,307,306,0
306,296,305,304,0
307,299,303,303,0
307,299,302,302,0
306,295,303,302,0
305,290,304,302,0
303,288,306,302,0
303,290,307,302,0
305,293,309,304,0
306,297,309,305,0
307,300,309,307,0
308,302,309,308,0
309,302,310,310,0
310,297,312,312,0
309,289,313,312,0
307,284,314,313,0
304,286,314,314,0
303,293,314,314,0
301,301,314,314,0
301,308,313,314,0
300,315,313,313,0
299,323,312,312,0
298,333,311,311,0
298,338,311,310,0
299,337,310,309,0
299,331,309,308,0
300,326,307,307,0
300,324,306,306,0
300,322,305,304,0
300,319,304,304,0
299,316,304,303,0
299,310,304,303,0
298,300,304,303,0
298,290,304,303,0
299,285,304,303,0
300,289,303,304,0
302,299,303,304,0
304,308,302,304,0
304,311,302,304,0
303,310,302,305,0
302,305,303,306,0
301,299,305,307,0
302,293,307,309,0
302,285,308,310,0
302,277,308,309,0
302,272,309,309,0
305,271,310,309,0
305,269,309,309,0
304,267,309,309,0
302,270,308,309,0
300,278,309,308,0
298,288,310,306,0
297,301,311,305,0
298,315,312,305,0
301,326,312,306,0
304,332,312,307,0
306,334,311,308,0
307,333,310,308,0
307,332,309,308,0
306,332,309,309,0
307,333,309,309,0
309,331,310,309,0
312,324,310,307,0
313,313,310,304,0
314,303,309,303,0
313,296,309,303,0
310,291,309,304,0
307,288,308,304,0
303,285,307,303,0
300,284,305,301,0
300,288,304,300,0
301,292,303,301,0
302,295,302,300,0
304,297,301,300,0
305,297,301,300,0
306,299,302,299,0
308,301,303,298,0
310,306,303,297,0
311,313,305,296,0
312,322,308,297,0
311,330,310,297,0
309,332,310,298,0
306,326,311,298,0
303,316,311,300,0
301,305,311,302,0
299,296,311,304,0
299,294,311,305,0
300,298,310,305,0
302,302,309,306,0
303,305,308,307,0
304,305,308,309,0
305,305,310,312,0
305,302,311,313,0
304,297,311,314,0
302,290,310,314,0
302,285,309,315,0
304,282,308,314,0
305,281,307,313,0
306,280,306,311,0
307,285,306,310,0
308,294,305,309,0
309,307,304,308,0
310,320,302,308,0
312,331,300,308,0
314,337,300,306,0
315,337,300,305,0
314,333,301,304,0
313,325,303,303,0
312,315,304,303,0
311,306,305,304,0
310,300,305,306,0
310,299,305,307,0
310,306,305,308,0
309,315,305,309,0
308,322,306,310,0
306,324,307,309,0
304,319,307,308,0
302,313,307,306,0
300,310,307,305,0
300,307,306,304,0
301,304,305,305,0
304,300,305,306,0
307,296,305,306,0
308,294,304,307,0
307,298,305,308,0
304,305,305,310,0
301,309,306,313,0
298,311,307,315,0
297,312,307,316,0
297,311,308,315,0
296,312,308,314,0
297,314,308,314,0
298,316,308,313,0
298,317,307,312,0
299,314,307,311,0
300,308,307,310,0
300,299,307,311,0
301,287,307,311,0
300,275,308,311,0
300,266,309,311,0
300,262,309,310,0
300,265,308,308,0
299,274,307,305,0
299,286,306,302,0
300,296,305,298,0
300,304,305,296,0
302,310,304,293,0
303,316,302,289,0
303,321,300,288,0
303,326,299,290,0
303,328,299,295,0
303,325,302,300,0
304,313,305,304,0
303,297,308,307,0
300,284,308,309,0
298,278,308,311,0
298,282,308,313,0
302,293,308,316,0
307,307,308,318,0
310,319,309,320,0
313,327,309,321,0
315,331,310,321,0
316,332,311,321,0
317,333,312,320,0
317,334,313,318,0
315,337,312,317,0
311,341,309,316,0
307,339,307,315,0
302,331,304,313,0
300,322,304,311,0
299,317,304,310,0
301,313,305,309,0
302,312,306,309,0
304,313,306,308,0
306,313,306,308,0
307,311,305,308,0
306,309,305,307,0
306,303,306,307,0
307,296,308,309,0
308,289,310,310,0
308,286,311,311,0
309,284,311,310,0
309,282,311,306,0
309,281,309,304,0
309,282,309,303,0
308,283,308,304,0
306,286,307,305,0
304,288,306,305,0
302,292,306,305,0
301,297,305,305,0
301,302,305,305,0
302,309,304,303,0
303,317,304,302,0
305,322,304,302,0
307,322,305,302,0
307,317,304,302,0
307,312,304,303,0
307,311,304,305,0
308,313,305,307,0
310,317,307,310,0
310,319,308,313,0
311,316,307,314,0
310,310,305,315,0
309,302,304,314,0
310,293,304,315,0
311,286,304,314,0
313,286,305,314,0
315,288,306,314,0
317,295,308,313,0
318,302,309,313,0
318,307,311,313,0
319,310,311,313,0
318,311,312,314,0
318,309,312,314,0
319,309,311,314,0
319,308,312,314,0
319,306,312,313,0
319,303,312,312,0
318,301,312,311,0
317,298,312,310,0
318,297,313,311,0
319,301,313,312,0
321,309,313,313,0
322,316,314,314,0
322,319,313,315,0
320,315,311,314,0
319,311,310,314,0
318,308,309,313,0
319,305,309,312,0
320,300,308,311,0
321,293,307,312,0
322,285,307,312,0
322,278,307,312,0
322,271,306,311,0
322,265,305,309,0
321,263,304,306,0
317,264,304,305,0
313,271,304,305,0
310,279,303,304,0
310,286,302,303,0
313,290,301,302,0
316,291,300,302,0
317,291,298,300,0
317,290,297,299,0
315,298,297,298,0
314,314,297,301,0
314,329,298,303,0
313,339,299,304,0
314,344,300,306,0
316,345,302,307,0
319,345,305,310,0
321,342,308,312,0
322,334,311,313,0
322,323,312,313,0
320,311,312,311,0
318,302,311,309,0
317,298,309,307,0
317,298,308,307,0
317,301,308,307,0
317,303,309,307,0
315,306,310,307,0
313,307,310,306,0
312,311,310,306,0
312,318,310,306,0
312,322,310,306,0
312,321,309,306,0
313,320,308,306,0
314,322,308,306,0
315,323,308,305,0
316,323,307,305,0
318,320,307,305,0
319,318,307,305,0
320,316,307,306,0
319,314,307,308,0
319,311,307,310,0
318,307,308,312,0
316,303,308,312,0
314,299,308,312,0
313,295,308,311,0
313,294,309,310,0
314,292,309,309,0
315,291,308,306,0
316,289,307,304,0
318,287,306,302,0
319,287,304,302,0
318,290,304,302,0
317,296,303,303,0
315,300,302,303,0
311,300,302,303,0
308,300,302,305,0
307,302,304,308,0
308,304,307,311,0
309,307,308,315,0
311,309,310,318,0
313,310,310,320,0
315,309,310,321,0
315,308,309,321,0
313,308,308,320,0
310,310,306,318,0
307,312,304,316,0
304,313,301,314,0
303,313,300,314,0
301,312,300,314,0
301,309,301,316,0
300,306,301,317,0
300,304,301,317,0
299,301,302,316,0
299,298,303,314,0
298,297,304,311,0
297,298,304,308,0
295,298,303,306,0
294,299,303,303,0
294,298,302,301,0
293,296,300,299,0
293,291,298,297,0
292,287,296,295,0
293,289,295,293,0
297,292,296,293,0
300,294,298,293,0
301,298,300,293,0
300,303,303,295,0
299,310,305,298,0
297,315,307,302,0
296,316,308,306,0
296,311,308,308,0
294,302,308,308,0
295,296,307,308,0
295,294,308,308,0
295,296,308,308,0
295,300,309,308,0
295,306,310,309,0
296,314,311,309,0
297,320,311,310,0
298,322,312,310,0
298,320,311,310,0
298,315,309,310,0
298,310,307,308,0
299,310,304,306,0
299,314,301,302,0
300,320,300,299,0
299,323,301,296,0
299,323,303,293,0
299,319,304,291,0
298,316,304,288,0
297,316,303,288,0
297,317,303,289,0
296,317,303,293,0
295,314,304,296,0
295,310,305,299,0
295,306,307,301,0
296,300,307,302,0
296,292,307,303,0
296,281,307,303,0
296,271,307,303,0
295,265,307,304,0
296,266,308,306,0
298,270,309,309,0
301,276,310,313,0
302,283,311,316,0
302,291,311,317,0
300,302,310,316,0
296,313,309,315,0
293,321,308,313,0
292,323,308,313,0
291,322,309,313,0
293,319,310,314,0
297,317,312,315,0
299,316,314,315,0
300,315,315,313,0
298,314,315,312,0
297,312,314,311,0
296,310,312,310,0
296,309,311,310,0
297,310,310,309,0
298,311,308,307,0
300,314,307,305,0
302,314,306,304,0
304,313,305,304,0
304,313,305,305,0
302,313,305,306,0
299,310,304,307,0
295,307,303,308,0
291,305,303,308,0
288,304,303,309,0
287,304,304,308,0
287,305,305,308,0
289,306,306,307,0
290,305,306,307,0
292,306,306,306,0
294,311,306,305,0
295,318,306,305,0
297,326,306,304,0
298,332,306,304,0
298,333,306,304,0
297,331,305,303,0
294,327,304,303,0
291,322,302,304,0
290,319,302,304,0
291,319,302,305,0
297,321,303,308,0
302,324,305,310,0
305,327,307,311,0
305,328,306,311,0
303,326,305,311,0
302,321,303,311,0
301,314,302,310,0
302,307,302,309,0
304,301,304,307,0
305,297,306,306,0
302,295,308,304,0
298,296,309,304,0
295,298,309,304,0
294,300,309,304,0
294,301,309,304,0
294,301,309,305,0
295,302,310,307,0
295,300,310,308,0
295,297,310,309,0
295,292,310,310,0
295,289,310,310,0
295,286,309,309,0
295,283,308,307,0
294,283,308,305,0
294,288,307,304,0
294,296,307,304,0
294,303,307,305,0
295,307,307,305,0
296,308,307,305,0
296,308,306,303,0
296,307,305,300,0
296,308,304,298,0
295,308,304,297,0
295,308,304,297,0
295,306,304,298,0
296,304,304,299,0
296,301,304,301,0
297,296,305,304,0
296,292,305,307,0
295,287,305,310,0
296,284,303,313,0
295,282,302,315,0
296,283,302,317,0
296,286,303,318,0
296,288,304,319,0
296,291,305,319,0
297,297,306,321,0
298,302,306,322,0
299,306,307,322,0
300,308,306,320,0
299,307,305,317,0
299,309,306,314,0
300,312,305,311,0
300,316,305,309,0
300,317,305,307,0
302,317,307,306,0
304,315,308,307,0
306,312,310,308,0
308,307,311,309,0
308,302,311,310,0
305,298,311,311,0
303,296,311,311,0
300,297,310,311,0
297,301,309,311,0
296,304,308,309,0
295,306,306,307,0
296,305,305,305,0
296,304,304,302,0
296,303,304,301,0
295,305,304,300,0
295,310,304,301,0
295,314,304,303,0
297,312,305,304,0
298,305,305,305,0
299,298,305,306,0
301,294,305,307,0
302,291,305,308,0
302,290,305,308,0
302,290,305,309,0
301,293,305,309,0
300,296,305,310,0
300,299,305,311,0
300,302,304,311,0
301,306,304,311,0
302,311,303,311,0
302,315,303,310,0
302,317,303,309,0
303,317,302,308,0
302,314,302,307,0
301,312,302,305,0
301,310,303,305,0
303,311,304,306,0
306,314,306,307,0
309,316,306,308,0
312,314,306,310,0
311,312,307,312,0
309,309,307,315,0
309,307,308,317,0
310,307,308,320,0
309,307,308,320,0
308,306,307,320,0
307,303,306,318,0
306,300,306,316,0
305,296,306,314,0
306,296,305,311,0
306,298,304,309,0
307,302,303,307,0
308,302,300,305,0
306,297,298,302,0
302,286,296,300,0
300,278,297,299,0
300,277,299,300,0
302,282,301,302,0
304,288,303,304,0
305,296,304,304,0
304,307,305,305,0
304,318,305,306,0
304,323,306,309,0
302,319,305,312,0
300,309,305,315,0
298,301,304,315,0
297,299,304,315,0
298,303,305,315,0
301,308,306,316,0
303,311,307,316,0
305,315,306,317,0
306,318,304,316,0
306,322,301,314,0
307,322,297,311,0
308,318,294,308,0
309,313,291,307,0
310,312,291,307,0
311,313,293,307,0
312,316,296,308,0
311,316,299,310,0
307,314,303,313,0
302,306,305,314,0
297,298,307,315,0
294,293,308,315,0
293,293,308,314,0
295,298,309,314,0
299,304,310,315,0
303,308,311,314,0
306,308,310,313,0
306,303,309,312,0
306,295,307,309,0
304,288,306,307,0
303,289,305,307,0
303,300,305,308,0
303,314,305,307,0
302,321,305,307,0
302,320,305,306,0
302,314,305,306,0
302,303,306,307,0
300,296,306,307,0
297,295,305,306,0
295,299,304,305,0
296,306,302,305,0
298,312,302,306,0
302,314,301,307,0
305,311,302,307,0
307,307,303,305,0
308,306,304,304,0
308,305,304,301,0
307,299,302,298,0
304,290,302,295,0
303,284,303,295,0
303,285,305,295,0
304,292,306,296,0
305,298,306,297,0
305,301,306,297,0
304,301,306,299,0
302,299,307,301,0
300,298,306,303,0
298,301,305,304,0
298,305,304,306,0
297,311,304,306,0
298,315,304,306,0
301,317,304,307,0
303,315,304,307,0
306,313,305,308,0
308,311,306,309,0
308,309,306,310,0
304,307,305,309,0
300,305,306,309,0
297,305,305,310,0
295,303,304,311,0
295,297,303,310,0
296,289,302,309,0
298,284,300,308,0
301,286,301,309,0
303,293,302,310,0
305,301,304,312,0
307,309,304,313,0
308,317,305,313,0
309,322,305,313,0
309,324,305,312,0
308,325,304,311,0
308,325,303,310,0
306,324,302,307,0
305,324,301,305,0
304,323,300,303,0
303,319,300,303,0
302,314,299,303,0
302,309,298,302,0
302,303,298,301,0
302,300,298,301,0
302,299,298,302,0
303,299,299,304,0
303,300,300,306,0
304,301,302,308,0
305,301,303,310,0
306,300,303,312,0
305,301,302,312,0
304,304,300,311,0
303,309,299,310,0
303,316,300,310,0
304,322,300,309,0
306,325,301,308,0
307,326,301,308,0
308,325,302,309,0
308,322,303,310,0
308,319,304,311,0
308,315,304,312,0
309,309,304,312,0
310,301,302,312,0
312,294,301,312,0
315,290,300,311,0
317,290,299,310,0
317,293,299,309,0
316,300,299,308,0
314,305,300,307,0
310,305,302,307,0
307,300,303,308,0
306,298,304,308,0
306,298,305,307,0
306,301,304,306,0
306,303,304,305,0
305,304,304,305,0
304,306,304,306,0
304,308,305,308,0
305,312,306,310,0
306,314,305,310,0
307,315,303,310,0
307,313,300,309,0
306,306,299,307,0
305,295,298,304,0
303,288,299,303,0
303,285,301,303,0
304,285,304,303,0
305,288,306,304,0
306,292,306,306,0
307,300,308,307,0
306,308,309,309,0
305,312,310,310,0
303,312,310,311,0
303,311,310,312,0
305,310,309,311,0
308,309,307,309,0
309,313,306,308,0
308,319,305,308,0
306,322,306,308,0
303,321,307,307,0
300,316,307,307,0
297,307,306,306,0
295,298,306,304,0
293,290,307,304,0
294,286,307,303,0
297,285,308,304,0
300,287,308,305,0
302,289,308,306,0
304,291,308,306,0
305,292,308,306,0
304,293,307,306,0
304,294,306,306,0
304,298,305,307,0
306,303,304,310,0
309,310,304,312,0
311,318,303,312,0
311,324,302,312,0
310,327,301,312,0
310,328,301,310,0
311,326,303,308,0
312,323,304,305,0
313,320,305,303,0
313,316,306,301,0
313,314,305,299,0
312,311,305,298,0
311,307,305,297,0
309,302,305,297,0
307,295,305,297,0
306,286,305,298,0
305,280,304,297,0
304,284,304,297,0
305,296,304,299,0
308,311,305,302,0
310,321,305,304,0
312,325,306,306,0
313,323,306,307,0
313,317,306,306,0
313,309,306,305,0
313,301,305,303,0
312,294,304,302,0
311,289,304,302,0
311,285,304,303,0
311,286,304,305,0
313,292,305,308,0
314,301,306,311,0
315,307,306,312,0
316,309,305,312,0
316,307,304,313,0
317,302,304,313,0
317,294,304,313,0
317,287,305,313,0
315,281,305,313,0
311,281,306,312,0
308,286,306,312,0
306,295,306,313,0
305,301,305,314,0
305,301,306,314,0
303,295,306,314,0
300,289,306,311,0
296,283,304,307,0
293,279,303,304,0
294,280,302,301,0
298,283,302,300,0
301,287,302,300,0
303,293,303,300,0
303,301,304,301,0
303,310,305,302,0
303,318,306,302,0
305,323,306,303,0
306,325,306,303,0
306,327,306,304,0
306,328,305,303,0
306,330,304,303,0
305,333,303,303,0
307,336,303,304,0
308,339,305,305,0
308,339,306,306,0
309,337,308,307,0
310,335,309,308,0
311,331,309,307,0
312,327,308,307,0
312,324,307,305,0
312,322,306,304,0
309,320,304,302,0
307,318,304,301,0
304,313,304,299,0
302,310,304,298,0
303,308,304,297,0
305,308,304,297,0
307,309,304,298,0
310,310,305,299,0
312,311,306,300,0
313,310,307,300,0
313,309,307,299,0
312,306,306,298,0
310,301,307,296,0
308,298,308,295,0
307,298,309,295,0
307,299,309,295,0
306,298,309,296,0
305,297,308,297,0
305,297,308,300,0
304,296,307,301,0
304,297,306,303,0
305,301,306,303,0
307,305,306,303,0
307,305,306,302,0
307,299,305,300,0
306,288,305,298,0
305,278,305,296,0
304,275,306,294,0
304,276,308,295,0
304,276,309,296,0
304,274,310,296,0
303,272,311,297,0
303,274,310,296,0
303,283,309,296,0
304,296,308,296,0
307,306,307,296,0
309,310,306,297,0
311,309,305,297,0
312,306,304,297,0
312,307,303,297,0
311,309,303,299,0
309,312,304,302,0
308,313,304,305,0
307,313,304,307,0
306,313,303,309,0
306,313,303,311,0
306,313,304,314,0
306,309,307,317,0
306,301,309,318,0
305,292,310,319,0
303,284,310,319,0
302,278,310,318,0
301,276,309,316,0
302,279,309,314,0
303,285,310,313,0
305,290,310,312,0
307,294,310,312,0
308,295,311,312,0
310,294,312,313,0
311,292,313,313,0
311,288,312,313,0
310,285,311,313,0
310,288,310,312,0
311,294,310,311,0
311,301,309,310,0
311,307,309,309,0
310,312,307,308,0
309,317,305,306,0
308,322,305,305,0
308,325,305,304,0
307,326,306,303,0
307,326,306,301,0
306,326,307,300,0
305,328,308,299,0
303,331,308,298,0
302,334,308,297,0
303,333,308,295,0
302,330,307,293,0
303,326,306,292,0
303,322,305,293,0
305,318,305,295,0
307,314,305,298,0
308,306,305,301,0
308,297,304,303,0
308,293,305,306,0
309,293,306,309,0
308,294,307,313,0
308,295,307,314,0
306,297,306,314,0
304,300,304,313,0
301,303,304,313,0
300,306,303,311,0
301,309,302,310,0
302,311,301,309,0
304,313,299,309,0
309,316,299,310,0
314,317,299,311,0
317,314,300,312,0
318,307,303,313,0
316,293,306,313,0
312,278,308,311,0
308,268,310,309,0
306,263,310,308,0
304,260,311,308,0
303,261,311,308,0
302,269,310,307,0
302,285,309,306,0
304,300,308,304,0
306,311,307,303,0
307,319,306,302,0
308,322,307,303,0
307,320,308,303,0
306,317,309,303,0
304,319,309,302,0
304,323,309,302,0
305,328,308,302,0
306,330,308,303,0
306,328,306,304,0
306,323,304,306,0
306,317,303,307,0
306,311,302,310,0
305,309,303,313,0
305,312,303,315,0
307,317,303,316,0
308,320,303,316,0
311,321,302,316,0
313,320,302,316,0
314,318,302,316,0
313,313,302,314,0
309,305,303,312,0
304,298,303,310,0
300,295,303,308,0
300,295,302,309,0
300,295,303,309,0
301,296,303,309,0
301,296,304,308,0
300,297,304,307,0
299,304,304,306,0
299,313,304,306,0
300,321,304,306,0
300,325,304,306,0
300,327,305,305,0
300,326,307,305,0
299,326,308,303,0
298,327,308,302,0
299,326,307,300,0
299,322,307,299,0
301,316,308,299,0
303,308,308,300,0
304,300,308,302,0
305,293,308,304,0
306,288,308,306,0
307,287,307,308,0
309,289,306,308,0
310,291,305,308,0
309,293,303,307,0
310,293,301,305,0
310,292,300,304,0
309,289,298,301,0
306,290,297,299,0
305,296,297,297,0
304,307,299,297,0
305,319,302,297,0
307,329,303,297,0
306,335,303,297,0
306,338,303,298,0
305,338,304,300,0
306,335,304,302,0
307,328,306,305,0
308,322,306,307,0
309,316,306,309,0
310,312,306,309,0
312,309,305,310,0
312,307,306,311,0
311,303,306,312,0
309,297,307,313,0
305,290,306,314,0
301,283,305,314,0
297,278,305,313,0
297,278,305,313,0
299,284,304,312,0
302,295,304,311,0
304,305,304,310,0
305,312,303,307,0
303,317,301,305,0
303,322,300,304,0
302,325,298,304,0
303,326,298,304,0
305,328,299,304,0
308,332,302,303,0
309,336,303,302,0
310,338,305,303,0
310,337,306,304,0
310,334,305,305,0
310,329,305,305,0
310,322,305,306,0
310,315,305,307,0
310,306,305,309,0
309,297,305,310,0
307,291,306,311,0
306,287,307,313,0
306,285,308,314,0
307,286,308,315,0
308,290,309,315,0
308,298,309,316,0
309,307,309,316,0
309,314,309,317,0
310,319,310,317,0
311,321,311,318,0
311,319,312,319,0
310,314,313,320,0
309,308,313,320,0
307,302,312,320,0
305,300,312,320,0
305,301,311,318,0
305,304,311,316,0
307,311,311,315,0
308,314,309,314,0
311,310,308,311,0
312,297,306,309,0
313,282,304,305,0
313,272,304,303,0
313,275,303,300,0
311,288,302,297,0
308,306,302,296,0
306,318,303,297,0
305,323,305,299,0
306,325,306,302,0
306,325,308,306,0
307,323,308,309,0
307,323,309,311,0
308,322,309,312,0
307,320,309,312,0
306,316,308,310,0
306,311,307,308,0
305,306,307,306,0
304,302,307,306,0
303,300,307,305,0
303,300,307,306,0
303,302,308,305,0
303,303,308,306,0
301,304,308,308,0
300,304,307,309,0
299,302,307,311,0
297,300,306,311,0
297,299,305,311,0
298,299,305,311,0
300,303,304,311,0
304,307,304,310,0
306,311,303,310,0
308,314,303,310,0
307,314,303,311,0
306,309,304,310,0
304,302,304,309,0
303,294,304,308,0
302,287,303,305,0
301,283,302,303,0
301,282,302,302,0
301,283,303,301,0
301,283,304,302,0
304,286,305,305,0
306,290,307,308,0
308,296,308,310,0
310,301,308,314,0
311,303,308,318,0
311,303,307,319,0
309,301,306,320,0
309,300,307,320,0
310,300,308,321,0
312,301,310,320,0
312,304,312,318,0
310,304,314,316,0
308,302,315,313,0
306,299,314,310,0
305,297,313,308,0
303,295,312,306,0
302,294,311,305,0
301,293,311,304,0
299,292,309,302,0
297,288,308,300,0
298,286,308,301,0
300,289,310,302,0
302,294,310,304,0
304,297,310,306,0
304,298,309,308,0
305,297,310,309,0
305,294,311,311,0
305,295,312,313,0
305,301,311,313,0
305,308,310,313,0
307,313,310,311,0
308,314,309,309,0
310,313,309,308,0
311,313,309,307,0
311,312,309,306,0
310,313,309,305,0
310,314,308,304,0
310,315,308,302,0
309,314,308,301,0
307,313,307,302,0
306,312,306,303,0
305,317,305,304,0
305,325,304,305,0
306,331,304,305,0
306,332,303,305,0
306,327,302,304,0
307,319,302,303,0
308,308,303,301,0
309,298,303,300,0
310,292,303,300,0
310,288,302,299,0
307,288,301,300,0
303,293,301,301,0
301,301,304,303,0
301,308,307,305,0
300,312,309,307,0
300,313,310,309,0
300,314,311,310,0
300,316,311,311,0
301,322,311,311,0
303,327,312,311,0
305,330,312,312,0
307,331,313,313,0
308,326,313,313,0
307,317,312,313,0
305,306,310,312,0
304,297,308,312,0
304,295,306,311,0
305,295,304,309,0
305,296,304,307,0
303,296,304,304,0
299,293,304,300,0
297,288,303,298,0
298,287,304,297,0
302,291,304,297,0
306,299,304,299,0
308,310,305,302,0
307,319,304,305,0
304,324,303,307,0
301,326,303,309,0
300,325,303,311,0
300,323,304,313,0
300,321,305,313,0
299,319,304,314,0
298,317,304,315,0
298,316,304,315,0
299,316,305,315,0
300,316,304,314,0
301,316,304,313,0
302,317,305,312,0
304,320,305,312,0
305,320,306,311,0
308,317,307,311,0
307,313,307,312,0
306,309,308,313,0
304,305,309,315,0
302,303,309,315,0
300,301,307,315,0
298,301,305,314,0
297,304,303,313,0
298,307,302,312,0
299,306,302,310,0
300,300,303,308,0
301,294,304,306,0
302,291,304,304,0
305,290,304,303,0
308,291,304,303,0
310,297,303,302,0
309,304,301,300,0
307,311,297,299,0
304,316,294,298,0
302,317,292,298,0
299,315,293,299,0
298,313,296,300,0
298,313,300,301,0
300,314,302,301,0
301,313,303,302,0
302,312,304,303,0
302,312,303,304,0
301,310,303,304,0
300,305,302,305,0
300,296,301,304,0
301,286,301,305,0
302,277,301,306,0
302,271,301,307,0
300,270,302,307,0
298,272,302,307,0
296,275,302,307,0
297,279,304,308,0
301,285,306,309,0
304,293,309,311,0
308,302,311,313,0
309,310,313,313,0
309,318,313,313,0
309,322,312,312,0
308,323,310,312,0
309,320,308,310,0
309,318,307,309,0
310,318,306,308,0
310,316,306,307,0
308,311,306,306,0
305,303,307,306,0
303,293,308,306,0
302,284,308,306,0
299,280,307,305,0
298,283,305,305,0
298,292,304,305,0
300,303,302,304,0
302,311,301,305,0
304,314,300,306,0
305,315,302,309,0
305,314,304,312,0
305,310,307,315,0
305,304,308,318,0
306,299,310,320,0
307,298,310,320,0
307,298,310,320,0
308,297,309,320,0
307,295,309,319,0
306,292,308,319,0
306,287,307,318,0
308,284,307,317,0
310,283,307,314,0
309,288,307,312,0
308,298,305,310,0
306,307,305,309,0
304,312,305,309,0
303,313,305,309,0
304,313,304,309,0
307,314,302,307,0
308,315,300,305,0
308,314,299,303,0
308,316,299,303,0
309,321,301,303,0
308,325,302,304,0
306,324,303,305,0
304,321,303,305,0
302,317,303,304,0
300,315,303,303,0
300,314,303,300,0
300,312,303,298,0
301,308,302,295,0
304,303,301,292,0
305,302,300,290,0
305,303,299,291,0
304,305,300,292,0
304,305,301,293,0
303,303,302,295,0
304,303,304,296,0
305,306,306,298,0
306,313,307,299,0
307,319,307,302,0
307,319,307,304,0
307,312,306,306,0
308,302,307,309,0
308,293,307,310,0
307,288,307,310,0
307,288,307,310,0
308,292,307,311,0
310,300,308,311,0
311,307,308,312,0
311,314,308,312,0
311,322,308,313,0
310,329,307,314,0
311,332,307,315,0
312,330,307,316,0
313,328,307,316,0
314,323,307,316,0
313,318,306,315,0
311,312,305,311,0
308,306,304,307,0
306,301,301,304,0
306,296,298,302,0
306,296,297,302,0
306,298,297,303,0
307,302,298,306,0
307,309,299,309,0
307,318,298,311,0
307,323,297,313,0
306,322,296,314,0
306,316,295,313,0
307,306,293,311,0
309,296,294,308,0
311,292,294,306,0
311,292,294,303,0
309,294,294,301,0
306,293,293,298,0
304,288,293,297,0
303,284,295,298,0
303,284,299,301,0
304,289,302,304,0
305,296,306,308,0
305,304,308,309,0
305,311,310,311,0
306,316,312,313,0
308,317,312,315,0
308,315,312,316,0
308,315,311,315,0
308,313,310,314,0
307,310,307,311,0
308,307,306,309,0
308,304,305,307,0
309,301,305,306,0
309,296,304,306,0
309,292,303,305,0
309,289,303,305,0
309,289,303,305,0
309,292,304,305,0
310,297,305,304,0
311,299,305,303,0
310,299,305,301,0
308,299,306,301,0
306,301,308,301,0
306,306,310,301,0
307,311,311,301,0
308,312,310,301,0
309,308,310,302,0
310,299,311,303,0
310,289,311,302,0
308,279,311,301,0
307,272,311,301,0
305,274,310,301,0
305,284,309,302,0
306,297,309,304,0
308,309,308,306,0
308,315,308,308,0
308,317,308,311,0
308,317,308,315,0
308,315,309,317,0
308,313,308,320,0
309,313,306,321,0
309,315,304,321,0
308,319,301,322,0
309,325,300,323,0
310,331,300,323,0
310,335,300,322,0
311,337,300,321,0
310,333,300,319,0
310,328,300,317,0
310,326,301,315,0
310,325,303,314,0
310,326,305,314,0
308,327,307,314,0
307,326,308,312,0
306,324,308,311,0
304,322,308,310,0
304,320,308,309,0
303,318,307,309,0
302,315,306,309,0
302,312,305,309,0
302,308,304,309,0
302,304,304,308,0
302,300,304,307,0
302,297,304,307,0
303,296,304,307,0
303,296,304,307,0
304,295,305,307,0
304,296,306,307,0
305,299,306,306,0
305,304,307,306,0
306,310,307,306,0
306,315,307,307,0
306,317,306,308,0
305,316,306,308,0
305,312,306,308,0
305,308,306,309,0
305,303,305,311,0
305,298,305,312,0
304,292,305,312,0
303,288,304,311,0
302,287,302,309,0
300,286,300,306,0
299,283,299,304,0
300,280,299,303,0
300,278,301,301,0
302,275,302,300,0
305,278,303,299,0
310,286,304,299,0
314,294,304,301,0
318,300,303,303,0
316,299,301,304,0
311,293,298,304,0
304,290,296,303,0
300,296,296,301,0
300,307,297,300,0
303,318,299,300,0
307,324,299,302,0
312,325,301,304,0
315,324,302,305,0
315,323,303,306,0
313,324,303,307,0
310,325,303,309,0
308,328,303,310,0
308,330,305,311,0
309,332,306,312,0
311,334,307,313,0
313,334,308,313,0
313,333,308,314,0
313,330,309,315,0
312,325,310,315,0
311,318,311,315,0
312,314,312,315,0
313,314,313,316,0
313,315,314,317,0
312,313,315,318,0
310,310,315,318,0
308,309,315,317,0
308,312,314,316,0
310,317,313,317,0
311,322,313,316,0
312,327,313,315,0
312,330,312,315,0
312,331,312,315,0
311,329,311,313,0
311,326,310,312,0
311,324,309,311,0
310,321,308,309,0
310,319,307,307,0
309,316,306,306,0
309,314,305,306,0
309,311,305,305,0
308,310,305,306,0
308,309,305,306,0
308,308,305,307,0
308,307,306,307,0
308,306,306,307,0
307,306,305,305,0
306,305,305,305,0
306,303,305,304,0
306,303,305,305,0
306,302,305,305,0
306,300,305,305,0
307,296,305,304,0
307,289,305,303,0
307,280,304,302,0
306,270,303,300,0
303,260,301,298,0
299,257,301,297,0
298,267,301,297,0
300,285,304,299,0
303,300,307,302,0
306,303,309,304,0
306,297,310,305,0
304,289,310,305,0
303,285,310,305,0
302,283,310,305,0
303,286,310,305,0
304,289,310,305,0
306,291,309,304,0
308,294,308,302,0
308,297,306,301,0
309,300,304,301,0
309,299,302,301,0
307,293,302,299,0
306,287,302,298,0
307,289,303,299,0
309,297,304,300,0
312,304,305,302,0
314,308,304,304,0
315,308,303,306,0
317,304,302,309,0
318,298,302,311,0
320,293,303,313,0
320,289,304,313,0
318,289,304,312,0
314,293,305,310,0
310,298,306,308,0
307,304,306,306,0
305,310,306,305,0
303,318,307,305,0
304,327,309,306,0
305,334,311,307,0
306,337,312,307,0
305,337,312,307,0
305,336,310,305,0
303,335,308,304,0
302,336,306,303,0
301,335,306,303,0
300,331,307,304,0
300,326,308,305,0
301,322,309,305,0
301,320,310,305,0
302,320,311,305,0
303,320,311,306,0
303,319,311,308,0
303,320,311,310,0
305,322,311,312,0
306,323,311,313,0
308,323,310,314,0
310,322,309,314,0
312,320,308,313,0
313,316,306,310,0
313,311,305,308,0
310,303,305,306,0
305,297,305,305,0
302,295,306,304,0
300,299,307,305,0
301,305,306,306,0
303,309,306,307,0
304,312,305,307,0
304,314,305,308,0
304,312,304,307,0
303,308,303,306,0
303,301,302,305,0
302,294,302,302,0
301,290,302,300,0
299,289,302,297,0
299,289,303,296,0
300,287,304,295,0
301,281,304,294,0
301,274,305,294,0
302,272,304,293,0
302,277,305,294,0
303,287,305,296,0
304,295,305,299,0
305,300,305,301,0
305,305,306,304,0
305,310,307,308,0
306,313,308,309,0
306,315,308,309,0
306,316,307,309,0
307,317,307,308,0
307,317,307,306,0
306,319,307,305,0
306,320,307,304,0
305,321,306,302,0
304,321,306,300,0
304,319,307,299,0
305,315,309,298,0
304,309,310,297,0
303,307,310,296,0
302,309,310,296,0
302,311,310,297,0
303,313,310,299,0
304,312,309,301,0
305,310,308,303,0
306,304,307,304,0
307,294,307,306,0
307,284,307,309,0
306,278,308,312,0
307,275,308,314,0
309,274,309,317,0
313,275,310,320,0
318,279,311,322,0
320,285,311,322,0
318,290,311,320,0
313,296,312,318,0
308,302,314,318,0
305,303,316,319,0
304,301,317,319,0
303,302,317,319,0
303,309,316,317,0
304,318,314,315,0
305,322,314,314,0
309,321,314,313,0
313,314,313,313,0
315,302,313,314,0
317,290,312,313,0
317,282,309,311,0
316,281,304,309,0
314,288,301,307,0
312,298,299,305,0
311,308,300,304,0
310,316,302,303,0
311,323,304,302,0
310,329,306,301,0
308,334,307,300,0
306,337,306,299,0
306,340,306,300,0
305,340,306,300,0
305,335,306,301,0
304,325,306,302,0
304,314,306,303,0
303,308,306,306,0
303,305,305,307,0
304,306,305,308,0
306,310,305,308,0
310,315,304,307,0
313,315,304,306,0
315,311,305,306,0
315,306,306,307,0
314,301,306,308,0
312,299,306,309,0
310,299,307,310,0
308,300,307,310,0
306,301,307,310,0
303,301,306,310,0
300,298,305,308,0
299,297,303,307,0
299,300,302,306,0
301,306,303,307,0
303,315,304,307,0
306,321,304,307,0
308,324,305,307,0
309,325,306,308,0
311,326,307,309,0
312,326,308,311,0
312,323,309,312,0
313,319,309,314,0
313,315,309,315,0
313,312,308,315,0
311,312,305,313,0
308,313,303,311,0
304,316,300,308,0
301,316,299,306,0
298,313,298,305,0
298,307,297,304,0
300,300,297,304,0
302,292,297,305,0
303,284,297,305,0
303,280,297,306,0
303,280,299,308,0
303,287,301,309,0
304,297,302,309,0
305,304,303,310,0
308,309,304,310,0
313,313,304,311,0
317,316,305,313,0
321,320,305,315,0
321,325,304,317,0
318,331,304,318,0
313,335,304,318,0
309,336,305,317,0
306,336,305,316,0
306,336,305,317,0
307,336,306,317,0
308,332,307,317,0
305,322,307,316,0
303,311,307,315,0
303,304,308,315,0
303,302,309,313,0
305,305,309,312,0
307,309,308,310,0
308,308,308,308,0
308,301,307,307,0
308,294,306,306,0
308,290,305,306,0
309,291,304,306,0
310,295,305,306,0
310,298,306,305,0
311,301,306,305,0
311,303,307,305,0
312,306,307,303,0
313,307,307,301,0
314,306,304,297,0
313,304,300,295,0
311,303,296,294,0
310,304,294,295,0
309,306,293,297,0
309,307,293,298,0
309,308,295,299,0
308,307,298,301,0
309,306,302,304,0
311,302,306,307,0
313,295,308,309,0
313,282,308,312,0
313,271,307,313,0
310,267,306,311,0
308,272,306,309,0
305,281,306,307,0
303,290,306,305,0
301,296,305,304,0
302,303,304,304,0
304,309,302,304,0
305,315,300,304,0
308,320,299,304,0
309,321,299,304,0
310,320,299,305,0
309,315,301,306,0
309,310,302,306,0
309,304,303,306,0
309,302,304,306,0
311,303,305,307,0
312,303,306,309,0
313,303,308,311,0
313,303,309,314,0
311,304,309,315,0
310,305,309,315,0
309,305,309,314,0
309,304,309,313,0
309,304,308,312,0
308,305,309,311,0
306,308,309,311,0
306,312,309,309,0
305,315,308,306,0
306,317,308,303,0
306,317,308,301,0
307,316,309,300,0
308,316,309,300,0
309,317,309,301,0
311,317,309,301,0
311,317,309,302,0
312,316,309,303,0
313,310,309,303,0
312,298,309,303,0
312,285,309,303,0
311,279,308,303,0
310,280,309,304,0
310,286,308,305,0
310,291,307,307,0
310,295,306,308,0
310,295,305,310,0
309,294,304,309,0
308,293,304,309,0
307,294,303,308,0
305,298,302,307,0
304,303,302,307,0
303,309,302,307,0
302,312,303,307,0
301,312,304,309,0
300,309,305,310,0
300,302,306,309,0
300,293,306,307,0
302,287,305,304,0
305,286,305,302,0
311,289,304,300,0
316,291,303,299,0
321,294,302,299,0
324,298,300,299,0
321,305,299,298,0
313,312,298,298,0
305,317,299,298,0
300,325,300,299,0
299,335,300,301,0
300,343,301,303,0
303,347,302,305,0
305,348,302,305,0
305,346,303,305,0
305,339,302,305,0
305,329,302,303,0
304,321,302,302,0
305,314,302,301,0
305,310,303,302,0
305,310,303,302,0
305,311,305,303,0
305,313,306,303,0
305,314,307,303,0
304,314,308,303,0
304,315,308,304,0
305,316,308,305,0
307,317,309,305,0
308,317,308,305,0
308,315,307,304,0
307,311,305,303,0
305,305,304,303,0
304,299,303,304,0
303,294,303,305,0
302,291,303,305,0
302,288,303,305,0
303,285,302,304,0
304,284,302,304,0
303,286,302,304,0
302,292,302,305,0
301,298,303,307,0
301,303,304,310,0
302,307,306,313,0
304,309,308,315,0
306,307,310,317,0
309,306,311,317,0
310,305,311,318,0
311,304,310,318,0
310,303,307,316,0
308,302,304,314,0
307,300,302,311,0
306,300,303,309,0
307,303,304,308,0
308,306,305,307,0
309,306,306,307,0
308,303,307,307,0
305,299,307,308,0
303,296,308,309,0
302,295,309,311,0
302,298,310,312,0
302,301,310,312,0
303,302,310,312,0
304,298,310,310,0
304,286,310,309,0
305,272,308,308,0
305,264,306,306,0
305,267,303,304,0
305,276,299,301,0
306,287,297,300,0
307,297,296,299,0
307,308,296,299,0
308,316,297,300,0
310,321,299,301,0
310,324,301,302,0
310,323,303,304,0
308,320,303,304,0
305,319,304,304,0
303,320,304,303,0
302,321,306,303,0
302,321,308,303,0
303,319,310,302,0
304,314,312,300,0
306,304,312,298,0
309,297,313,296,0
314,295,313,296,0
318,294,313,295,0
320,293,313,297,0
318,289,312,298,0
314,283,310,298,0
309,276,307,297,0
306,270,305,297,0
301,268,304,297,0
297,271,304,299,0
294,279,304,301,0
292,291,305,303,0
292,303,305,304,0
293,316,305,304,0
295,325,305,304,0
297,331,305,303,0
299,333,304,304,0
300,334,304,305,0
301,333,303,307,0
303,330,304,308,0
304,328,304,309,0
305,325,305,308,0
305,324,305,307,0
305,324,305,305,0
305,323,304,303,0
303,319,303,301,0
302,313,301,299,0
300,309,300,298,0
299,306,299,298,0
299,303,300,299,0
299,303,301,301,0
300,307,303,303,0
302,313,305,306,0
304,315,305,309,0
305,316,305,311,0
305,319,305,313,0
305,321,305,315,0
305,323,305,315,0
305,322,305,315,0
305,312,305,315,0
304,296,304,314,0
304,278,304,313,0
304,263,305,312,0
304,255,305,311,0
306,253,306,309,0
306,257,305,307,0
305,265,304,304,0
305,279,303,303,0
306,295,303,302,0
306,310,302,302,0
306,324,303,303,0
306,336,303,303,0
306,345,304,304,0
304,350,304,304,0
303,347,304,305,0
300,339,304,306,0
298,331,303,307,0
298,326,302,307,0
298,322,301,306,0
301,321,299,305,0
304,321,298,305,0
305,322,298,305,0
306,323,299,306,0
307,321,300,306,0
307,318,301,306,0
308,318,303,306,0
309,319,305,306,0
310,319,306,307,0
310,319,306,308,0
309,317,307,309,0
308,313,306,309,0
307,307,305,310,0
307,300,305,311,0
307,295,304,311,0
307,291,304,311,0
306,287,305,310,0
305,285,306,308,0
305,284,307,306,0
305,286,308,304,0
306,289,307,303,0
305,291,306,303,0
304,296,307,303,0
305,304,308,304,0
306,313,308,306,0
307,323,309,308,0
307,331,309,309,0
307,334,308,310,0
308,330,307,308,0
311,323,306,306,0
313,315,305,304,0
312,311,304,302,0
309,307,304,302,0
307,305,304,301,0
306,305,305,301,0
305,306,305,300,0
305,308,304,301,0
305,311,304,301,0
305,311,304,302,0
303,308,303,303,0
302,301,303,303,0
301,294,303,303,0
300,290,305,303,0
301,291,306,303,0
301,293,305,304,0
302,294,304,304,0
301,294,304,304,0
301,291,304,305,0
301,285,305,306,0
301,281,306,306,0
301,282,306,306,0
301,285,305,305,0
301,290,304,306,0
301,296,303,308,0
301,302,302,309,0
301,303,302,308,0
303,305,301,308,0
305,309,302,308,0
309,315,305,308,0
312,319,308,308,0
313,321,311,309,0
313,321,313,310,0
312,318,312,309,0
310,315,310,308,0
309,313,309,308,0
309,312,309,307,0
308,312,310,306,0
309,312,312,308,0
307,312,314,309,0
306,309,314,310,0
303,304,314,311,0
300,298,312,311,0
299,290,311,310,0
298,281,309,308,0
299,277,309,308,0
302,281,309,309,0
304,291,310,309,0
306,303,310,308,0
309,315,310,308,0
311,326,310,306,0
312,331,310,304,0
312,331,309,302,0
312,328,309,301,0
313,323,310,301,0
314,320,311,301,0
315,319,311,304,0
314,317,312,307,0
311,314,312,309,0
308,312,311,310,0
306,311,312,310,0
304,309,311,310,0
303,308,311,310,0
303,306,310,309,0
303,303,310,309,0
304,297,311,309,0
305,289,311,309,0
305,280,311,307,0
304,271,311,306,0
304,265,311,305,0
305,264,310,304,0
308,268,309,304,0
309,276,309,305,0
309,287,308,306,0
307,300,307,306,0
305,312,306,304,0
303,322,305,303,0
304,332,306,303,0
306,339,306,303,0
308,342,306,302,0
310,338,306,302,0
308,326,305,301,0
307,311,303,300,0
306,297,302,299,0
304,287,301,298,0
302,283,301,296,0
301,282,301,294,0
301,287,302,295,0
303,298,305,299,0
306,309,307,304,0
311,317,309,307,0
315,321,310,308,0
319,319,309,307,0
318,311,309,306,0
313,307,308,305,0
307,311,308,306,0
304,319,308,308,0
303,326,310,311,0
304,327,310,315,0
305,322,310,317,0
305,316,309,320,0
304,312,308,322,0
303,310,307,322,0
303,311,305,322,0
305,313,306,322,0
307,316,307,321,0
308,318,309,320,0
309,320,309,319,0
310,317,310,317,0
309,313,309,315,0
308,309,308,313,0
306,308,308,313,0
305,311,306,312,0
305,316,305,311,0
305,322,305,311,0
306,323,306,310,0
305,319,306,309,0
305,313,306,307,0
306,309,306,307,0
308,307,306,307,0
308,305,305,307,0
308,302,304,308,0
307,298,304,309,0
306,292,304,310,0
305,285,304,311,0
305,282,304,310,0
305,284,304,310,0
304,291,304,310,0
304,299,304,311,0
303,305,305,311,0
303,307,306,312,0
303,305,307,313,0
303,302,308,314,0
304,300,309,314,0
306,298,309,315,0
308,296,309,316,0
310,295,308,316,0
311,294,305,316,0
311,293,303,315,0
311,297,302,315,0
312,300,303,314,0
311,304,304,313,0
311,307,305,312,0
311,310,305,311,0
310,311,305,309,0
309,308,304,309,0
307,306,304,310,0
307,305,304,310,0
307,306,303,309,0
308,309,304,308,0
309,314,305,308,0
309,319,308,309,0
310,319,310,309,0
309,314,311,309,0
309,309,311,307,0
308,308,310,305,0
309,311,308,304,0
310,313,306,302,0
310,313,304,300,0
309,310,303,298,0
309,307,303,299,0
310,307,304,301,0
312,310,304,305,0
313,315,305,309,0
313,317,305,311,0
310,318,305,313,0
309,316,305,314,0
308,313,305,315,0
309,308,305,315,0
309,300,304,316,0
309,295,304,317,0
309,291,303,317,0
311,290,302,317,0
312,288,302,318,0
311,284,301,318,0
309,280,300,319,0
308,279,299,320,0
308,279,299,321,0
308,282,301,321,0
309,284,301,320,0
309,286,301,319,0
309,285,302,319,0
308,282,303,319,0
309,280,304,320,0
310,280,305,320,0
311,285,305,320,0
312,293,305,319,0
310,303,305,317,0
307,312,305,314,0
305,320,305,312,0
303,327,304,311,0
303,330,304,309,0
303,330,303,308,0
304,327,304,308,0
305,322,304,307,0
306,313,304,306,0
305,303,303,304,0
304,293,302,304,0
301,289,301,303,0
299,289,300,304,0
297,292,299,306,0
296,298,299,306,0
297,305,300,306,0
299,313,302,307,0
301,320,303,308,0
302,326,304,309,0
303,327,304,310,0
304,324,305,311,0
307,318,305,312,0
310,308,306,312,0
311,297,306,310,0
312,290,305,308,0
311,289,304,307,0
310,290,301,305,0
309,292,299,306,0
309,293,297,307,0
309,297,297,309,0
309,304,297,309,0
308,314,300,310,0
307,323,303,308,0
305,326,304,306,0
304,325,305,303,0
302,324,306,300,0
302,323,307,299,0
303,321,307,300,0
304,318,307,301,0
305,316,307,303,0
306,316,307,304,0
307,319,308,304,0
308,321,309,305,0
310,322,308,304,0
310,320,308,304,0
311,315,306,303,0
312,310,303,303,0
313,309,300,304,0
316,310,298,308,0
316,310,298,310,0
313,307,299,312,0
310,302,302,314,0
308,297,306,315,0
307,292,308,314,0
306,289,309,313,0
305,289,309,312,0
304,294,308,311,0
304,304,308,309,0
306,313,308,308,0
308,318,308,307,0
310,318,307,305,0
310,315,306,304,0
308,314,304,302,0
307,314,302,300,0
307,313,300,298,0
307,312,298,297,0
305,309,299,299,0
302,307,300,301,0
300,307,301,304,0
299,309,302,307,0
299,309,302,309,0
299,308,302,311,0
300,305,301,312,0
302,301,301,315,0
305,294,302,317,0
308,287,304,318,0
310,284,305,319,0
311,288,305,320,0
311,293,306,320,0
308,297,307,320,0
305,295,307,320,0
303,292,308,320,0
300,286,308,319,0
297,281,307,317,0
296,280,307,314,0
297,285,308,312,0
300,293,309,310,0
303,303,309,308,0
306,313,310,306,0
307,320,309,304,0
307,326,309,303,0
307,330,308,303,0
306,328,307,303,0
305,325,305,303,0
304,322,304,304,0
305,322,303,306,0
306,322,303,308,0
305,322,302,308,0
304,320,302,308,0
303,317,302,306,0
302,314,304,305,0
302,313,307,306,0
302,314,309,307,0
302,315,311,308,0
302,312,312,308,0
301,305,312,308,0
298,299,312,307,0
296,296,311,306,0
295,296,311,305,0
296,297,310,304,0
299,299,309,303,0
302,302,309,302,0
303,303,309,301,0
305,301,310,302,0
308,299,312,305,0
310,297,313,309,0
311,296,313,312,0
312,297,312,315,0
312,299,311,317,0
310,302,310,317,0
308,304,309,316,0
305,303,310,315,0
302,304,310,315,0
301,311,311,315,0
301,320,311,316,0
302,328,310,316,0
304,331,308,315,0
304,330,307,313,0
305,329,306,312,0
304,327,305,310,0
303,322,304,308,0
300,315,303,306,0
298,310,303,305,0
296,307,303,304,0
294,306,304,303,0
294,307,304,304,0
295,306,304,305,0
297,305,305,306,0
299,301,305,306,0
300,298,305,305,0
301,296,305,304,0
302,296,305,304,0
301,300,306,303,0
300,307,307,302,0
300,314,309,303,0
300,319,310,303,0
300,323,310,303,0
301,327,309,303,0
303,330,307,302,0
305,329,305,302,0
306,323,302,302,0
304,313,299,303,0
301,301,298,302,0
298,292,299,302,0
298,289,302,302,0
300,291,305,305,0
302,294,308,307,0
303,296,309,309,0
303,296,309,311,0
303,297,310,312,0
303,302,311,312,0
305,307,312,311,0
309,313,312,309,0
312,317,311,306,0
311,317,308,304,0
308,314,306,302,0
305,310,306,301,0
303,306,308,303,0
301,304,311,304,0
300,302,314,305,0
301,303,316,306,0
302,307,317,307,0
304,315,317,309,0
306,324,317,309,0
306,332,317,309,0
306,334,317,309,0
305,329,316,309,0
303,322,315,308,0
301,316,314,307,0
300,313,312,306,0
299,313,311,305,0
301,315,310,305,0
303,319,309,305,0
305,320,309,305,0
307,317,309,305,0
308,310,309,305,0
307,302,309,304,0
306,292,309,304,0
305,284,309,303,0
303,277,310,302,0
301,273,310,301,0
299,273,309,300,0
299,278,308,299,0
298,285,307,300,0
299,293,308,300,0
302,302,308,300,0
303,310,309,301,0
304,317,309,302,0
304,322,310,303,0
305,328,310,303,0
304,330,309,303,0
305,332,308,303,0
307,335,308,304,0
308,336,309,307,0
310,334,310,307,0
310,330,311,307,0
310,323,310,307,0
309,316,310,308,0
308,309,309,309,0
307,302,308,308,0
307,299,306,308,0
306,300,304,308,0
307,301,303,308,0
307,300,303,308,0
309,298,302,308,0
312,295,302,308,0
312,295,301,308,0
310,296,301,307,0
307,299,302,307,0
304,300,304,306,0
303,297,305,304,0
302,289,306,301,0
302,281,306,299,0
303,272,306,298,0
305,267,305,297,0
305,268,305,295,0
305,275,304,294,0
305,287,304,292,0
305,302,303,292,0
305,313,304,293,0
304,320,305,295,0
304,320,305,299,0
303,316,306,302,0
303,310,306,306,0
303,307,307,309,0
305,309,309,313,0
308,316,310,315,0
311,326,310,316,0
313,335,310,316,0
311,341,311,315,0
309,344,311,315,0
307,345,311,314,0
307,343,312,314,0
308,337,312,314,0
310,331,312,313,0
312,325,311,312,0
314,317,310,311,0
315,307,310,310,0
315,299,309,308,0
314,295,307,307,0
311,296,306,306,0
305,301,304,305,0
300,308,303,305,0
298,313,302,304,0
297,316,301,304,0
297,316,300,304,0
298,315,301,304,0
298,312,301,304,0
299,308,302,304,0
301,304,303,304,0
301,303,305,304,0
302,302,308,306,0
303,304,309,309,0
305,306,310,311,0
306,306,309,312,0
306,304,307,311,0
305,305,305,310,0
304,307,305,309,0
304,307,305,310,0
304,307,305,309,0
303,306,304,308,0
302,306,304,305,0
300,304,304,303,0
302,302,305,301,0
303,301,306,299,0
305,300,306,297,0
306,300,306,296,0
307,300,305,297,0
307,301,305,298,0
307,302,305,300,0
306,302,306,302,0
305,303,306,302,0
304,304,307,303,0
305,305,308,304,0
305,305,309,305,0
305,303,308,305,0
305,302,307,305,0
305,303,306,305,0
305,307,305,305,0
306,309,304,306,0
307,310,303,306,0
309,310,302,305,0
309,311,302,305,0
308,310,302,305,0
307,309,302,307,0
307,310,303,309,0
308,310,304,310,0
310,309,306,311,0
312,309,307,311,0
315,308,308,310,0
316,307,308,307,0
314,303,308,304,0
311,301,308,302,0
310,301,308,301,0
309,301,307,299,0
309,301,306,298,0
307,301,304,297,0
306,303,303,297,0
306,305,303,297,0
306,307,303,298,0
306,309,304,300,0
306,311,305,301,0
305,312,306,303,0
305,312,307,304,0
304,310,307,304,0
303,306,306,303,0
303,304,306,302,0
303,307,305,303,0
305,311,305,304,0
306,313,305,306,0
307,314,306,307,0
308,313,307,307,0
308,314,309,307,0
309,318,309,308,0
309,322,308,307,0
308,325,307,306,0
308,324,305,306,0
308,320,304,305,0
307,314,304,305,0
306,307,303,306,0
306,302,304,306,0
305,299,304,305,0
307,300,304,305,0
311,303,304,303,0
313,306,305,303,0
315,309,305,302,0
316,310,306,302,0
316,311,306,302,0
314,309,305,302,0
311,305,305,303,0
308,303,304,304,0
304,299,304,304,0
302,294,304,304,0
300,288,304,305,0
300,282,303,306,0
300,278,303,307,0
301,276,303,308,0
301,276,303,307,0
302,277,304,307,0
304,278,305,307,0
305,283,305,307,0
307,289,305,307,0
308,293,305,306,0
308,294,305,305,0
308,297,305,304,0
308,303,303,304,0
310,310,301,305,0
311,318,301,307,0
312,326,301,308,0
312,331,302,310,0
311,333,304,311,0
311,333,306,312,0
312,333,308,313,0
312,331,308,313,0
311,328,308,311,0
310,325,308,308,0
308,321,306,304,0
306,319,304,301,0
305,317,304,298,0
305,313,303,297,0
304,307,304,297,0
304,298,305,296,0
302,288,305,294,0
299,279,304,292,0
297,277,303,291,0
297,282,303,291,0
300,290,303,292,0
303,298,303,294,0
305,304,304,296,0
307,308,304,298,0
307,311,304,300,0
307,316,303,302,0
307,324,303,305,0
306,328,304,307,0
305,329,306,310,0
304,327,309,313,0
302,324,311,316,0
302,320,311,318,0
301,315,311,317,0
302,311,308,314,0
304,306,307,313,0
306,304,307,312,0
308,303,307,311,0
307,302,308,310,0
306,302,308,309,0
306,303,308,309,0
307,304,308,309,0
307,302,307,309,0
306,298,307,308,0
304,292,306,308,0
301,286,306,307,0
300,285,306,306,0
301,288,306,306,0
303,292,306,306,0
304,293,305,306,0
306,292,303,306,0
306,292,301,305,0
306,295,300,305,0
306,299,302,305,0
307,301,304,305,0
307,297,307,305,0
308,290,309,305,0
308,287,309,305,0
309,289,309,306,0
310,297,309,307,0
312,309,310,309,0
313,320,310,310,0
313,326,311,310,0
315,326,310,310,0
317,324,310,309,0
318,322,310,308,0
317,319,310,308,0
314,316,311,307,0
311,317,311,307,0
308,320,311,306,0
305,322,311,306,0
305,320,310,306,0
306,315,309,305,0
306,309,308,305,0
305,303,307,304,0
305,301,306,304,0
305,305,305,303,0
307,313,305,303,0
309,320,305,302,0
310,323,304,302,0
309,323,304,302,0
310,323,304,303,0
310,322,305,303,0
311,317,305,303,0
311,312,306,302,0
311,307,307,303,0
310,304,308,304,0
309,304,308,305,0
309,303,309,306,0
309,303,310,307,0
310,302,310,307,0
311,299,310,307,0
311,297,310,307,0
310,298,308,306,0
310,302,307,306,0
310,307,306,305,0
309,312,306,304,0
309,315,307,304,0
309,315,309,304,0
308,311,311,305,0
307,307,312,306,0
305,304,313,306,0
303,302,313,306,0
303,300,313,307,0
302,298,313,308,0
303,295,313,310,0
304,289,312,311,0
303,281,311,312,0
302,277,310,313,0
303,282,309,314,0
304,294,310,315,0
307,307,311,315,0
308,316,312,314,0
309,322,312,313,0
309,324,312,312,0
308,323,311,312,0
308,322,310,313,0
309,321,310,314,0
309,320,309,315,0
309,319,309,314,0
309,313,308,313,0
308,307,307,311,0
308,301,307,309,0
308,297,306,306,0
309,291,307,305,0
309,283,308,304,0
307,277,308,304,0
305,274,307,303,0
302,272,304,303,0
302,276,303,303,0
305,285,302,304,0
309,295,302,306,0
311,301,303,307,0
310,307,304,307,0
308,316,305,309,0
306,326,305,309,0
304,333,305,310,0
304,336,306,309,0
304,336,306,309,0
306,333,306,309,0
308,330,305,307,0
310,327,303,306,0
312,328,301,305,0
314,328,300,305,0
316,327,300,305,0
316,324,301,306,0
314,320,302,308,0
313,315,303,310,0
313,310,304,313,0
312,309,306,314,0
311,314,307,315,0
311,320,308,314,0
309,324,309,312,0
307,324,308,309,0
306,320,308,305,0
305,314,307,302,0
306,307,306,300,0
305,302,306,298,0
304,299,306,298,0
303,298,307,298,0
302,299,307,299,0
303,300,307,300,0
304,301,307,301,0
305,304,306,302,0
305,309,305,303,0
306,314,306,304,0
307,319,306,304,0
310,321,307,305,0
312,318,309,306,0
314,310,311,308,0
315,296,312,309,0
314,280,312,308,0
310,268,312,307,0
307,265,312,306,0
306,268,313,306,0
305,278,312,306,0
304,289,310,306,0
301,300,309,304,0
300,309,307,303,0
300,317,306,303,0
301,322,306,304,0
301,324,308,305,0
302,323,309,308,0
304,322,311,310,0
306,322,311,312,0
307,323,311,313,0
307,323,311,312,0
307,319,310,312,0
305,309,309,310,0
304,297,308,308,0
302,291,308,307,0
301,288,307,307,0
299,288,306,307,0
299,290,305,306,0
298,295,304,305,0
299,303,303,304,0
302,311,302,303,0
306,317,303,303,0
309,320,305,303,0
311,322,306,302,0
311,323,308,302,0
310,320,308,302,0
311,315,309,303,0
311,312,309,305,0
311,313,309,306,0
310,318,309,307,0
309,325,308,308,0
308,330,309,309,0
307,333,309,309,0
307,331,308,309,0
308,323,308,308,0
309,310,307,308,0
310,297,308,308,0
310,288,309,309,0
310,288,309,310,0
308,295,310,311,0
307,305,310,311,0
305,314,311,310,0
303,321,311,308,0
302,323,311,307,0
302,320,311,305,0
302,316,310,305,0
303,310,309,304,0
305,305,308,302,0
308,302,306,302,0
308,305,306,302,0
306,310,306,303,0
304,313,306,304,0
302,316,308,305,0
300,320,308,305,0
299,321,308,304,0
298,319,306,303,0
297,315,305,303,0
295,311,304,303,0
293,308,303,303,0
291,305,303,303,0
291,301,304,303,0
291,299,304,302,0
294,296,306,303,0
296,295,306,303,0
298,293,307,305,0
301,291,307,306,0
304,291,307,307,0
306,290,305,306,0
307,286,304,305,0
306,278,303,304,0
304,273,302,303,0
301,274,301,303,0
298,279,301,303,0
297,288,301,303,0
298,300,302,305,0
301,312,304,307,0
303,323,305,309,0
305,331,305,310,0
306,334,306,310,0
305,333,307,310,0
306,328,309,309,0
304,323,311,307,0
303,317,311,305,0
302,313,311,304,0
302,312,311,303,0
302,312,310,301,0
302,309,309,298,0
303,306,309,295,0
305,304,308,293,0
306,300,308,292,0
306,295,308,293,0
308,293,309,295,0
308,292,310,298,0
308,292,311,302,0
308,295,310,306,0
309,298,310,310,0
308,301,309,312,0
307,301,308,315,0
305,298,308,316,0
303,294,308,317,0
303,290,308,316,0
302,285,308,313,0
302,283,309,310,0
303,285,310,308,0
305,291,312,307,0
306,297,312,306,0
307,304,311,305,0
307,310,310,304,0
307,317,309,304,0
308,322,308,304,0
309,324,309,305,0
310,325,309,307,0
309,327,310,310,0
309,330,311,311,0
308,330,311,312,0
307,325,310,311,0
305,318,310,311,0
305,313,309,311,0
304,310,309,311,0
303,313,308,310,0
302,321,308,310,0
303,331,308,309,0
304,338,309,308,0
305,338,310,308,0
305,332,311,307,0
304,323,312,305,0
304,314,312,305,0
305,308,312,304,0
306,305,312,305,0
308,304,311,306,0
309,303,310,307,0
308,303,310,309,0
306,302,310,311,0
304,301,310,313,0
304,299,310,315,0
307,298,311,317,0
310,297,312,319,0
311,293,312,319,0
309,287,311,319,0
305,279,307,317,0
301,271,304,316,0
297,269,302,315,0
295,269,302,314,0
295,273,303,313,0
295,280,304,312,0
297,288,304,312,0
300,293,305,312,0
304,296,305,313,0
307,297,306,312,0
306,296,306,312,0
303,296,306,311,0
299,300,306,311,0
297,305,306,309,0
296,309,305,308,0
296,311,304,307,0
296,310,302,306,0
297,306,300,306,0
298,303,299,308,0
298,302,299,309,0
297,301,301,310,0
296,300,302,310,0
295,299,302,308,0
295,295,301,306,0
295,293,300,303,0
295,296,299,301,0
296,304,298,301,0
298,312,299,302,0
299,318,300,304,0
299,322,301,306,0
300,325,302,307,0
301,327,302,308,0
304,328,303,309,0
305,324,304,310,0
305,317,305,312,0
306,308,307,314,0
305,300,309,315,0
304,295,310,316,0
302,296,311,317,0
301,298,311,316,0
302,299,311,315,0
303,298,310,314,0
303,298,308,311,0
305,301,305,309,0
306,307,303,308,0
307,314,302,307,0
309,317,302,308,0
311,320,302,309,0
311,323,304,311,0
310,325,305,312,0
306,327,306,312,0
303,328,306,311,0
301,328,306,310,0
299,324,304,309,0
298,319,303,309,0
297,315,302,308,0
297,312,302,308,0
297,309,303,307,0
297,306,305,306,0
296,301,306,305,0
296,295,306,304,0
296,291,306,304,0
295,288,305,304,0
296,287,304,304,0
299,289,304,306,0
303,290,305,307,0
305,291,305,307,0
306,292,306,308,0
306,290,307,309,0
304,286,307,309,0
303,284,307,310,0
302,287,307,311,0
303,291,308,314,0
303,296,307,315,0
304,300,306,316,0
303,305,305,315,0
302,311,304,313,0
301,317,303,311,0
301,323,302,308,0
302,327,301,306,0
304,329,300,307,0
306,328,300,307,0
307,324,301,308,0
306,318,301,308,0
304,309,302,309,0
302,300,303,311,0
302,290,303,312,0
303,283,303,312,0
304,280,304,311,0
305,280,303,312,0
305,282,303,312,0
305,287,304,312,0
304,292,304,311,0
305,298,305,311,0
307,305,306,310,0
310,313,307,310,0
313,319,307,310,0
314,324,307,309,0
314,328,305,308,0
312,331,302,306,0
309,332,300,304,0
305,329,299,301,0
302,323,301,298,0
300,314,302,297,0
298,308,303,296,0
297,306,302,295,0
296,307,301,295,0
296,310,301,295,0
298,312,301,297,0
301,316,301,301,0
304,322,303,304,0
305,324,305,308,0
306,323,307,309,0
307,321,307,310,0
309,320,307,311,0
311,318,306,312,0
311,313,306,313,0
311,306,304,312,0
309,300,303,312,0
306,297,302,311,0
305,296,301,310,0
304,296,300,310,0
303,296,301,311,0
301,292,303,310,0
299,287,304,309,0
298,285,306,309,0
299,285,308,309,0
299,288,308,309,0
299,294,307,307,0
300,302,306,305,0
302,312,305,305,0
305,321,305,305,0
307,328,305,304,0
307,331,305,304,0
305,333,305,304,0
304,335,305,304,0
304,336,305,305,0
305,336,306,305,0
306,333,306,305,0
306,328,306,305,0
307,321,306,304,0
307,315,306,304,0
306,311,305,303,0
305,308,303,304,0
305,304,302,306,0
304,299,302,308,0
303,294,302,309,0
302,287,303,310,0
302,283,303,310,0
303,282,304,310,0
305,283,304,310,0
307,285,304,310,0
310,285,305,310,0
311,284,306,311,0
309,283,307,312,0
308,284,308,313,0
306,287,308,313,0
304,288,306,312,0
304,292,305,310,0
304,302,304,308,0
305,313,302,305,0
306,322,301,303,0
308,329,300,303,0
309,333,300,304,0
309,336,299,305,0
309,335,299,305,0
307,331,299,305,0
305,325,300,305,0
304,318,301,306,0
304,312,303,308,0
303,308,305,310,0
303,308,306,311,0
303,308,306,311,0
302,306,306,311,0
304,306,306,311,0
307,308,306,311,0
311,312,307,311,0
312,314,307,311,0
312,315,307,311,0
310,314,306,310,0
307,311,305,309,0
304,305,304,308,0
302,300,303,306,0
302,299,302,305,0
304,300,301,305,0
306,301,300,303,0
308,302,300,301,0
308,305,301,300,0
307,308,302,298,0
302,310,304,298,0
298,312,306,298,0
295,314,308,299,0
292,315,309,300,0
290,317,308,301,0
289,317,307,302,0
289,318,306,303,0
290,317,306,303,0
292,315,306,304,0
295,313,307,306,0
299,311,309,308,0
302,308,311,309,0
304,303,312,309,0
304,294,312,309,0
302,285,311,309,0
303,283,309,310,0
305,287,307,310,0
308,295,305,311,0
310,302,304,311,0
310,308,303,312,0
309,313,303,311,0
307,316,303,311,0
305,319,305,312,0
304,320,306,312,0
304,319,307,313,0
304,315,307,314,0
305,311,308,315,0
306,309,309,315,0
307,311,310,315,0
308,313,310,315,0
307,315,310,315,0
306,317,310,315,0
304,319,309,315,0
303,319,308,314,0
303,316,307,314,0
303,313,306,313,0
303,312,305,311,0
303,313,304,309,0
304,314,305,307,0
305,312,306,306,0
308,307,307,307,0
310,300,308,307,0
311,291,308,306,0
311,281,306,305,0
309,276,305,304,0
307,279,304,304,0
306,288,303,304,0
305,299,301,304,0
305,306,300,302,0
307,310,300,301,0
308,311,300,301,0
310,309,302,303,0
311,308,303,305,0
311,309,305,308,0
312,310,305,311,0
312,310,305,313,0
312,312,304,315,0
312,315,305,316,0
312,318,306,316,0
314,320,307,317,0
314,320,308,317,0
315,318,308,316,0
314,315,308,315,0
313,312,306,315,0
312,310,303,314,0
310,308,302,313,0
308,306,301,313,0
307,304,301,312,0
306,301,301,310,0
305,296,301,309,0
304,291,301,308,0
304,288,302,309,0
306,284,303,309,0
306,280,304,308,0
307,277,305,307,0
307,275,304,305,0
304,278,303,303,0
301,288,303,302,0
301,306,304,303,0
301,322,307,304,0
302,333,310,306,0
304,335,313,307,0
303,332,313,308,0
302,328,312,307,0
301,325,310,305,0
302,325,307,303,0
305,323,305,301,0
308,320,304,299,0
310,313,303,297,0
310,302,303,295,0
309,294,304,294,0
307,291,304,296,0
308,294,305,298,0
309,297,306,300,0
309,299,307,302,0
309,298,307,303,0
308,297,307,305,0
309,297,307,307,0
310,298,308,310,0
311,302,309,314,0
313,308,311,317,0
313,311,312,319,0
312,310,312,320,0
310,305,312,320,0
308,303,312,321,0
306,304,312,320,0
307,308,311,320,0
308,313,310,320,0
310,315,309,319,0
310,317,308,317,0
311,318,307,315,0
312,320,306,313,0
312,322,306,311,0
311,322,307,310,0
310,322,307,309,0
310,320,307,308,0
309,317,307,307,0
309,314,306,307,0
308,309,306,308,0
307,304,306,310,0
306,298,307,312,0
306,292,307,314,0
306,287,308,316,0
308,282,310,317,0
311,278,311,317,0
312,273,310,316,0
312,271,310,312,0
311,270,308,308,0
310,272,306,306,0
307,274,304,303,0
303,276,303,302,0
301,282,303,302,0
298,292,302,302,0
297,305,301,301,0
298,317,299,301,0
298,325,297,302,0
301,327,295,304,0
304,322,295,306,0
307,308,296,308,0
308,294,298,309,0
309,289,301,309,0
308,291,302,307,0
306,294,303,306,0
306,298,304,306,0
306,304,304,306,0
306,307,305,306,0
307,311,305,307,0
309,317,306,309,0
312,323,306,311,0
313,326,306,313,0
313,324,306,314,0
313,322,305,314,0
311,321,304,312,0
311,323,303,310,0
313,325,303,308,0
314,327,304,307,0
314,328,305,307,0
314,330,305,307,0
313,329,305,307,0
314,327,305,306,0
314,323,307,305,0
315,319,308,305,0
314,316,310,305,0
311,315,310,303,0
308,313,309,301,0
306,310,308,299,0
306,306,308,298,0
307,303,307,298,0
309,303,307,299,0
311,303,306,299,0
311,305,305,299,0
311,309,305,301,0
311,316,306,303,0
310,322,307,306,0
310,326,309,309,0
310,327,310,312,0
309,327,311,313,0
308,324,312,314,0
308,319,312,315,0
310,313,313,316,0
312,307,313,317,0
315,303,314,317,0
317,302,314,317,0
319,303,313,317,0
318,303,311,317,0
317,303,310,316,0
315,302,310,316,0
311,302,310,316,0
308,301,309,317,0
305,301,308,316,0
303,299,308,316,0
302,296,307,314,0
301,293,305,313,0
301,292,305,312,0
301,294,305,310,0
300,294,305,308,0
299,290,305,306,0
299,285,305,305,0
301,280,305,306,0
303,274,305,307,0
304,266,305,307,0
302,258,305,306,0
301,259,304,305,0
301,269,306,306,0
302,287,307,306,0
303,305,308,306,0
304,319,308,306,0
304,326,308,305,0
304,326,309,303,0
303,320,309,302,0
303,310,308,301,0
302,297,308,301,0
302,286,307,301,0
302,278,306,302,0
301,277,306,302,0
300,285,305,302,0
299,301,305,302,0
300,318,305,303,0
302,330,305,304,0
303,337,305,305,0
304,338,305,305,0
305,338,305,305,0
305,336,305,304,0
306,334,306,305,0
307,332,307,305,0
307,329,308,306,0
307,323,308,307,0
308,316,308,308,0
308,309,307,310,0
308,301,306,312,0
308,294,306,313,0
308,289,306,314,0
308,286,306,313,0
307,285,306,311,0
305,286,305,308,0
304,288,304,306,0
304,292,304,304,0
304,298,303,302,0
304,305,303,298,0
305,314,303,295,0
306,322,303,291,0
308,329,304,290,0
309,333,305,290,0
310,333,306,291,0
310,329,308,293,0
310,323,309,296,0
310,318,310,298,0
309,316,310,300,0
308,313,309,301,0
306,310,309,303,0
306,308,308,305,0
306,306,309,308,0
308,301,310,310,0
309,290,310,312,0
309,274,310,313,0
308,258,309,314,0
307,244,307,313,0
307,234,306,312,0
306,234,305,312,0
306,247,305,311,0
306,268,307,311,0
308,295,309,310,0
311,317,311,309,0
315,330,312,308,0
318,337,312,307,0
319,342,311,306,0
319,346,311,305,0
316,346,310,305,0
312,344,309,304,0
309,340,308,303,0
307,336,308,304,0
306,332,308,303,0
305,328,307,303,0
305,322,306,303,0
306,317,305,303,0
307,315,304,304,0
307,316,303,303,0
306,317,302,302,0
305,317,301,301,0
306,315,303,302,0
307,313,307,304,0
308,309,311,306,0
309,307,313,307,0
308,306,315,307,0
307,305,313,305,0
303,305,309,301,0
301,307,306,298,0
301,313,306,297,0
303,319,307,297,0
306,322,308,297,0
307,319,309,298,0
307,314,309,299,0
307,309,309,300,0
307,307,308,301,0
308,307,308,301,0
308,307,309,300,0
308,306,309,301,0
308,304,311,303,0
309,302,312,305,0
310,300,314,307,0
311,298,314,309,0
311,291,314,308,0
310,283,313,308,0
310,278,311,308,0
310,275,310,309,0
308,275,308,310,0
306,280,305,311,0
305,288,304,312,0
305,294,304,313,0
305,295,304,313,0
304,292,305,313,0
303,286,305,312,0
302,282,306,310,0
301,282,307,308,0
302,284,309,307,0
304,289,311,307,0
306,293,312,307,0
307,296,312,305,0
308,297,312,303,0
308,297,311,299,0
309,298,309,296,0
308,299,308,293,0
308,303,308,291,0
308,307,308,291,0
307,311,307,291,0
306,312,307,293,0
305,313,307,296,0
305,314,306,298,0
304,315,306,300,0
302,312,305,303,0
299,310,305,306,0
298,310,304,309,0
299,308,304,310,0
300,298,303,312,0
301,284,304,312,0
303,272,306,313,0
307,265,307,314,0
311,268,308,314,0
315,281,308,313,0
317,299,308,313,0
316,316,309,311,0
315,327,311,309,0
315,330,312,307,0
316,329,314,306,0
317,326,314,305,0
317,322,313,304,0
315,319,312,303,0
312,319,312,302,0
309,318,311,301,0
306,316,310,300,0
303,311,309,301,0
302,309,308,301,0
301,309,306,302,0
300,309,305,301,0
299,310,304,300,0
298,315,304,298,0
300,321,303,297,0
303,325,303,296,0
304,326,302,295,0
303,326,301,296,0
303,327,300,297,0
304,326,300,299,0
305,323,301,301,0
306,314,303,303,0
305,305,305,304,0
304,297,307,304,0
302,291,308,304,0
300,287,307,303,0
301,287,307,304,0
304,292,308,305,0
306,300,309,306,0
307,305,309,306,0
306,308,308,304,0
304,306,306,303,0
300,304,305,302,0
299,305,304,303,0
299,308,304,304,0
300,313,305,306,0
301,316,307,307,0
302,317,308,308,0
302,317,309,308,0
302,314,310,308,0
301,311,310,307,0
301,307,310,306,0
301,305,310,306,0
302,306,310,306,0
303,310,308,306,0
304,311,306,306,0
304,308,304,306,0
304,300,304,306,0
303,291,304,305,0
302,285,304,304,0
301,282,303,303,0
301,284,301,302,0
302,288,299,300,0
302,291,299,299,0
302,290,297,297,0
301,289,296,296,0
300,291,296,296,0
299,293,296,297,0
299,295,298,299,0
301,298,300,301,0
303,300,302,304,0
305,302,303,306,0
307,303,305,309,0
308,308,306,311,0
308,316,306,313,0
308,327,307,315,0
308,337,306,315,0
308,342,306,314,0
307,342,305,313,0
308,340,304,312,0
307,337,304,311,0
305,335,304,311,0
303,333,303,310,0
302,329,303,310,0
301,324,302,310,0
303,319,302,311,0
304,317,303,313,0
306,316,305,316,0
307,312,305,319,0
306,307,305,320,0
307,303,305,320,0
308,302,306,319,0
309,301,307,318,0
309,300,308,315,0
308,299,308,312,0
306,300,307,309,0
306,301,306,307,0
305,302,304,306,0
305,300,303,304,0
304,292,302,302,0
303,282,301,300,0
303,275,300,299,0
304,274,299,298,0
307,279,298,298,0
310,288,298,298,0
313,299,299,300,0
313,308,299,301,0
311,314,300,304,0
308,316,302,306,0
306,314,304,309,0
306,307,306,311,0
308,301,308,312,0
309,299,310,313,0
307,299,311,314,0
305,303,311,313,0
304,307,311,313,0
303,310,311,313,0
303,313,311,313,0
303,314,310,314,0
304,311,309,314,0
305,304,308,313,0
304,297,306,311,0
301,288,304,309,0
299,283,303,307,0
299,286,303,306,0
301,292,303,305,0
303,296,302,303,0
303,295,302,300,0
305,293,301,300,0
307,293,303,300,0
310,295,304,302,0
312,296,306,305,0
313,298,306,307,0
313,301,305,309,0
312,305,304,308,0
309,309,304,307,0
307,312,304,306,0
306,314,305,305,0
307,314,307,304,0
308,314,308,304,0
309,315,309,304,0
309,315,310,304,0
309,316,310,304,0
310,317,310,304,0
311,320,310,306,0
311,325,310,307,0
311,329,309,309,0
309,331,307,311,0
307,329,305,312,0
306,323,303,312,0
305,312,302,310,0
304,301,302,308,0
304,294,302,307,0
304,294,303,307,0
304,299,305,307,0
304,307,305,306,0
303,311,305,305,0
301,311,304,304,0
301,308,304,302,0
300,304,303,300,0
300,300,302,297,0
301,299,302,296,0
304,304,301,295,0
306,313,300,296,0
309,323,298,298,0
312,329,298,301,0
314,331,298,304,0
316,329,299,306,0
317,327,300,307,0
318,324,302,308,0
319,320,304,308,0
320,317,305,308,0
321,312,305,308,0
321,305,306,308,0
322,296,305,308,0
321,287,305,307,0
318,277,304,306,0
316,273,305,305,0
316,276,305,305,0
318,285,305,306,0
321,296,304,306,0
323,305,304,307,0
323,310,302,309,0
324,315,302,309,0
326,318,302,310,0
330,321,303,310,0
333,322,304,311,0
334,321,306,310,0
332,317,307,309,0
328,309,309,308,0
323,301,309,307,0
318,295,309,306,0
316,294,311,306,0
316,295,312,308,0
318,297,314,308,0
320,300,314,309,0
323,304,314,308,0
325,309,314,308,0
327,313,313,308,0
328,315,312,307,0
328,313,311,306,0
328,308,310,304,0
329,300,309,302,0
329,293,309,302,0
327,290,309,304,0
325,292,309,305,0
323,298,308,307,0
324,306,309,308,0
324,313,309,309,0
325,317,309,310,0
324,317,309,309,0
322,313,308,308,0
321,310,307,306,0
320,307,306,304,0
318,306,304,301,0
317,308,302,299,0
317,314,301,297,0
317,321,300,297,0
316,328,302,298,0
317,333,304,299,0
318,335,307,302,0
319,334,308,304,0
320,333,308,306,0
320,327,307,307,0
321,318,307,308,0
321,308,307,308,0
320,302,307,310,0
319,301,306,311,0
317,300,305,312,0
316,297,304,312,0
314,292,304,311,0
314,289,305,310,0
312,289,305,307,0
310,292,305,304,0
309,295,304,303,0
309,298,304,304,0
311,301,306,306,0
314,303,308,308,0
316,306,309,311,0
318,309,310,312,0
320,310,311,313,0
320,308,312,313,0
320,307,313,313,0
319,306,313,312,0
318,305,313,310,0
316,302,313,308,0
315,299,313,306,0
315,303,312,305,0
317,311,311,305,0
318,318,311,306,0
319,322,311,308,0
319,319,311,310,0
319,309,311,312,0
318,299,311,312,0
317,293,310,311,0
316,292,308,310,0
317,293,307,308,0
320,297,307,306,0
324,303,308,305,0
327,310,308,305,0
328,318,308,305,0
327,324,307,305,0
322,329,306,305,0
317,330,304,306,0
313,327,304,307,0
311,319,304,308,0
309,309,304,309,0
309,300,305,309,0
308,295,306,308,0
307,295,306,307,0
308,298,306,306,0
308,303,305,306,0
308,307,304,307,0
308,309,304,307,0
308,309,304,306,0
309,306,305,306,0
311,305,304,305,0
313,306,304,305,0
313,309,304,305,0
311,312,304,303,0
307,314,304,301,0
302,314,303,299,0
299,313,303,298,0
298,314,303,297,0
300,316,304,297,0
306,315,304,300,0
312,310,305,302,0
314,300,305,304,0
312,291,305,306,0
310,287,306,307,0
310,288,306,310,0
311,292,306,312,0
313,298,306,314,0
315,304,306,316,0
315,308,306,317,0
314,309,306,316,0
311,311,308,314,0
309,315,310,312,0
308,319,312,310,0
307,321,313,307,0
306,319,313,305,0
306,314,311,304,0
305,306,310,304,0
305,297,309,304,0
304,290,308,303,0
304,285,308,302,0
304,284,308,301,0
304,291,308,302,0
306,305,309,303,0
309,321,310,306,0
311,332,311,307,0
311,336,311,308,0
311,335,312,309,0
309,331,312,310,0
307,325,311,310,0
305,319,309,310,0
303,314,307,309,0
301,313,304,308,0
302,316,303,307,0
302,321,303,307,0
304,324,304,308,0
305,322,306,309,0
305,315,308,309,0
305,305,309,310,0
306,296,310,311,0
306,290,310,312,0
305,286,310,312,0
305,287,310,313,0
305,293,310,313,0
304,300,309,312,0
303,306,309,311,0
301,310,307,311,0
301,312,307,311,0
301,312,306,312,0
300,309,305,312,0
299,306,305,311,0
297,301,303,310,0
295,295,302,308,0
295,287,301,309,0
295,281,303,309,0
294,279,304,309,0
294,283,305,309,0
296,293,307,310,0
298,301,310,310,0
301,303,311,312,0
303,303,310,314,0
304,302,309,314,0
303,302,308,315,0
302,304,308,315,0
300,308,308,314,0
300,315,309,313,0
300,320,310,311,0
300,320,310,309,0
301,318,310,307,0
302,314,310,306,0
303,311,310,304,0
303,307,309,303,0
301,301,308,302,0
296,294,307,301,0
292,289,307,302,0
292,291,309,303,0
294,300,309,304,0
296,311,309,304,0
298,323,308,305,0
298,334,307,306,0
297,338,306,308,0
296,334,305,309,0
295,322,305,310,0
294,308,305,311,0
293,297,306,313,0
292,292,307,313,0
292,293,306,314,0
292,300,306,314,0
294,312,305,313,0
297,323,305,313,0
298,329,305,312,0
298,329,306,312,0
299,325,308,312,0
299,319,309,313,0
299,315,309,313,0
300,314,308,314,0
300,317,308,314,0
300,321,307,314,0
299,325,305,314,0
299,328,304,315,0
300,331,304,313,0
301,332,304,312,0
302,334,303,310,0
301,334,301,309,0
299,331,298,306,0
298,324,296,304,0
296,317,296,303,0
295,309,298,303,0
293,301,301,304,0
291,294,304,304,0
291,291,306,306,0
292,290,308,308,0
294,289,309,310,0
295,288,309,311,0
296,287,308,312,0
296,288,307,313,0
296,290,307,313,0
297,292,307,312,0
296,293,309,310,0
295,296,310,308,0
297,302,309,309,0
300,308,309,310,0
302,312,310,311,0
305,314,310,312,0
306,314,310,311,0
305,312,310,310,0
304,308,310,308,0
302,302,309,307,0
301,296,309,307,0
300,292,308,307,0
299,293,307,308,0
299,295,305,309,0
299,292,304,309,0
299,290,304,310,0
300,294,305,312,0
301,302,307,313,0
301,309,307,312,0
300,311,306,311,0
299,305,306,310,0
298,297,305,309,0
297,293,305,309,0
296,290,305,308,0
296,288,306,306,0
297,289,306,304,0
300,292,307,303,0
302,297,307,303,0
303,301,309,303,0
304,305,312,303,0
304,306,313,304,0
305,307,314,305,0
306,312,315,305,0
304,318,315,305,0
301,325,314,305,0
298,329,313,305,0
295,330,312,304,0
294,328,311,304,0
294,323,311,304,0
295,318,309,305,0
296,315,308,305,0
296,316,306,305,0
297,321,305,305,0
297,326,304,304,0
298,331,304,304,0
300,330,305,304,0
301,327,306,305,0
304,325,308,307,0
309,325,310,310,0
313,325,311,312,0
315,325,312,314,0
314,324,313,315,0
310,321,313,315,0
306,317,313,316,0
301,313,312,315,0
298,309,311,314,0
297,303,310,313,0
297,295,309,311,0
295,285,309,309,0
293,277,308,308,0
291,274,309,307,0
292,273,309,306,0
294,275,309,305,0
296,279,309,304,0
296,283,307,301,0
295,285,305,297,0
294,286,302,293,0
293,289,300,290,0
293,292,299,288,0
293,296,298,287,0
293,297,298,288,0
294,299,299,289,0
296,307,300,292,0
299,317,302,298,0
302,324,302,304,0
304,325,301,310,0
303,322,302,315,0
302,317,304,318,0
302,315,306,321,0
304,315,309,323,0
305,316,311,324,0
306,314,312,324,0
305,311,313,324,0
303,308,313,323,0
302,308,313,321,0
301,307,313,319,0
301,308,312,316,0
300,308,310,314,0
301,304,309,313,0
302,298,308,313,0
304,289,309,314,0
304,279,310,313,0
303,271,309,311,0
301,271,306,309,0
300,275,302,306,0
298,282,298,305,0
297,290,294,304,0
296,303,292,304,0
295,315,293,304,0
295,323,297,303,0
296,331,301,303,0
298,337,305,303,0
300,341,307,303,0
302,342,309,305,0
303,342,309,307,0
302,341,309,309,0
302,339,310,310,0
300,336,309,310,0
298,332,308,309,0
298,327,307,310,0
298,323,307,311,0
298,319,308,314,0
298,315,309,316,0
299,311,309,317,0
300,307,309,317,0
302,303,308,317,0
303,302,308,316,0
303,302,309,315,0
302,300,310,314,0
299,295,310,314,0
296,292,310,314,0
295,293,310,315,0
294,295,311,315,0
294,296,310,315,0
294,296,310,314,0
294,293,310,313,0
294,293,311,312,0
295,295,312,311,0
297,299,313,311,0
299,304,314,311,0
300,309,313,310,0
302,314,312,309,0
303,319,311,308,0
303,322,309,307,0
304,322,308,307,0
304,314,306,305,0
304,301,304,303,0
304,290,302,302,0
304,284,301,301,0
301,280,301,300,0
298,278,301,300,0
294,281,301,299,0
292,287,302,297,0
292,293,303,296,0
293,297,304,296,0
297,297,305,297,0
300,294,307,298,0
302,289,308,300,0
302,286,310,302,0
303,280,312,305,0
303,273,313,308,0
304,265,313,309,0
304,262,314,310,0
304,267,313,310,0
303,281,311,309,0
301,298,310,309,0
299,314,308,310,0
300,326,308,311,0
301,334,308,312,0
300,339,308,312,0
299,341,308,311,0
298,339,309,311,0
300,336,310,310,0
302,332,311,309,0
303,327,312,308,0
303,321,311,307,0
303,316,311,305,0
302,314,310,304,0
301,315,311,304,0
301,317,311,304,0
302,319,311,304,0
303,319,310,304,0
304,318,309,304,0
304,318,308,304,0
304,319,307,303,0
304,322,307,303,0
303,324,307,302,0
301,327,307,302,0
299,324,308,302,0
298,316,310,303,0
296,306,311,305,0
296,298,312,306,0
295,291,313,307,0
295,288,312,307,0
296,288,311,308,0
298,291,311,308,0
301,299,312,308,0
304,305,312,308,0
305,309,312,307,0
305,311,312,305,0
305,312,311,304,0
303,309,310,303,0
302,303,308,303,0
303,297,307,304,0
304,292,306,306,0
306,288,305,307,0
307,285,305,307,0
308,283,305,307,0
310,284,307,308,0
312,287,308,309,0
311,291,308,310,0
310,296,308,311,0
309,301,308,312,0
309,305,308,313,0
309,307,308,314,0
309,307,307,313,0
308,307,306,312,0
308,308,305,311,0
308,311,305,310,0
308,313,306,310,0
308,313,307,310,0
308,310,308,310,0
307,308,308,310,0
307,307,309,310,0
306,308,310,309,0
306,310,310,309,0
305,311,310,309,0
306,312,311,307,0
306,313,310,305,0
306,313,310,303,0
307,307,308,302,0
307,299,305,301,0
307,293,302,302,0
307,291,300,303,0
307,292,299,304,0
307,293,299,306,0
304,293,301,307,0
302,290,304,308,0
298,287,308,310,0
296,286,310,312,0
295,288,311,314,0
296,294,310,315,0
298,301,309,315,0
299,309,309,314,0
299,316,309,312,0
300,322,310,311,0
302,328,312,310,0
304,333,313,311,0
306,334,314,313,0
308,329,314,313,0
309,321,313,315,0
308,317,311,316,0
305,316,310,316,0
303,314,309,317,0
302,310,309,315,0
301,307,309,313,0
301,305,309,311,0
302,305,309,307,0
302,307,309,305,0
303,308,310,304,0
304,306,310,302,0
304,304,309,300,0
304,302,308,300,0
305,302,308,300,0
305,301,307,301,0
304,296,305,301,0
302,290,304,301,0
300,286,303,302,0
299,288,302,303,0
298,296,303,304,0
298,307,303,305,0
300,316,304,306,0
301,320,304,307,0
302,318,303,306,0
303,314,302,305,0
304,309,302,305,0
306,302,304,307,0
307,295,305,309,0
307,290,306,310,0
307,288,306,310,0
307,287,305,309,0
307,287,304,306,0
306,289,304,305,0
306,294,304,304,0
305,300,304,304,0
305,309,303,304,0
305,318,303,304,0
305,326,303,304,0
306,331,303,306,0
307,334,303,307,0
308,334,303,308,0
308,334,303,308,0
308,333,303,308,0
309,331,302,308,0
309,326,301,307,0
309,316,301,307,0
308,302,300,307,0
308,287,300,308,0
307,276,300,309,0
307,272,301,310,0
308,277,302,311,0
310,290,303,311,0
311,306,305,311,0
312,316,306,309,0
311,318,307,307,0
