304,320,303,307,1
305,318,303,308,1
304,314,302,309,1
302,310,302,309,1
301,309,302,310,1
299,309,302,310,1
298,309,301,309,1
300,308,301,308,1
302,308,302,306,1
305,308,304,304,1
306,308,305,303,1
307,308,305,302,1
308,308,304,302,1
309,308,303,302,1
309,308,302,303,1
310,309,301,304,1
311,309,303,306,1
311,310,305,308,1
311,311,305,310,1
312,311,303,312,1
313,310,301,311,1
314,308,299,309,1
314,306,298,306,1
312,304,297,304,1
306,302,297,302,1
300,300,297,301,1
296,300,298,302,1
294,300,299,304,1
292,302,300,305,1
291,303,302,305,1
294,302,304,304,1
297,297,304,302,1
301,291,304,299,1
304,286,304,297,1
307,285,303,295,1
309,287,303,295,1
311,290,303,297,1
314,294,303,300,1
317,298,304,302,1
321,303,305,305,1
323,309,306,307,1
323,314,307,309,1
318,317,306,309,1
311,320,305,309,1
304,322,303,309,1
300,324,302,308,1
299,325,302,308,1
300,325,301,307,1
302,323,302,305,1
305,320,302,304,1
307,319,303,302,1
308,318,302,301,1
308,316,300,301,1
308,310,298,301,1
307,302,297,301,1
307,292,298,301,1
306,281,300,301,1
303,269,304,301,1
301,263,307,302,1
299,265,309,304,1
299,274,310,305,1
300,285,311,308,1
301,293,310,310,1
303,300,309,311,1
306,308,308,312,1
310,314,307,311,1
312,318,306,309,1
313,320,304,306,1
314,321,303,304,1
313,321,302,302,1
313,320,301,300,1
312,318,301,299,1
310,315,300,299,1
308,312,300,299,1
307,310,301,299,1
306,310,301,300,1
306,312,301,302,1
305,313,301,303,1
304,314,304,304,1
301,314,307,305,1
299,312,306,305,1
300,310,303,304,1
302,308,299,303,1
306,307,298,302,1
310,308,300,301,1
312,308,301,300,1
312,308,300,300,1
310,307,298,300,1
308,305,297,299,1
306,304,296,298,1
303,303,295,297,1
300,303,295,295,1
297,301,294,293,1
294,298,295,293,1
292,296,296,293,1
291,295,298,294,1
294,295,299,295,1
299,298,299,295,1
304,300,300,295,1
309,303,300,296,1
310,303,300,295,1
308,302,300,293,1
305,301,300,292,1
304,300,301,292,1
304,299,302,293,1
304,299,304,295,1
305,298,305,299,1
306,299,305,304,1
308,302,305,308,1
308,305,304,310,1
305,307,302,311,1
299,307,300,311,1
295,305,299,309,1
293,304,299,309,1
293,304,299,309,1
295,304,301,309,1
298,306,302,309,1
301,308,303,308,1
304,312,304,307,1
308,315,304,306,1
312,317,303,306,1
315,319,304,305,1
313,320,305,305,1
309,318,306,304,1
305,313,306,304,1
304,309,305,304,1
303,306,303,304,1
304,303,302,306,1
305,301,302,307,1
306,299,302,310,1
307,299,303,312,1
308,300,304,314,1
308,299,308,314,1
307,296,313,314,1
306,294,316,313,1
306,292,315,313,1
306,289,312,310,1
306,284,308,308,1
304,274,305,305,1
301,265,303,303,1
298,263,302,301,1
293,268,301,300,1
291,280,301,301,1
292,295,302,303,1
296,308,303,307,1
300,319,303,310,1
303,326,303,313,1
305,328,304,314,1
305,327,305,313,1
304,325,306,312,1
304,322,304,311,1
304,319,302,310,1
305,315,302,309,1
304,311,302,308,1
304,308,303,308,1
304,307,303,309,1
304,308,303,309,1
304,311,303,309,1
306,318,302,309,1
309,327,302,310,1
312,333,302,310,1
314,334,303,310,1
314,332,303,309,1
314,326,304,308,1
315,322,304,305,1
315,320,305,303,1
315,319,304,301,1
314,319,304,301,1
312,318,305,303,1
310,317,306,306,1
309,315,306,308,1
306,313,307,310,1
304,312,307,311,1
304,312,307,313,1
306,313,306,313,1
309,314,304,312,1
310,313,303,312,1
311,312,302,311,1
311,311,301,310,1
311,310,302,309,1
311,309,304,309,1
311,307,308,308,1
310,305,311,309,1
310,303,310,309,1
311,304,306,309,1
313,306,303,310,1
313,310,301,311,1
311,313,299,311,1
310,314,298,312,1
309,311,297,312,1
307,309,296,310,1
304,306,295,307,1
302,303,296,304,1
303,299,298,302,1
305,296,300,300,1
307,293,301,299,1
308,293,303,297,1
309,297,305,296,1
308,299,306,295,1
307,300,306,295,1
307,297,304,296,1
306,293,304,296,1
307,291,304,298,1
307,290,304,300,1
306,290,303,302,1
304,292,303,305,1
303,296,303,308,1
303,301,303,311,1
304,306,303,311,1
306,311,303,311,1
307,313,304,311,1
308,314,304,311,1
307,313,303,311,1
306,309,303,311,1
306,306,304,310,1
306,305,304,309,1
308,305,303,309,1
309,306,302,308,1
309,305,301,308,1
309,302,299,309,1
309,296,299,309,1
307,292,299,309,1
305,292,301,310,1
303,298,303,311,1
300,306,306,313,1
297,314,306,316,1
297,321,306,317,1
300,325,306,317,1
304,327,306,316,1
305,327,306,314,1
303,325,306,313,1
299,322,307,312,1
296,319,307,311,1
295,317,308,311,1
296,317,309,312,1
301,319,309,314,1
306,320,309,315,1
310,318,309,316,1
312,312,309,315,1
313,304,310,315,1
312,299,311,314,1
311,298,312,313,1
310,302,312,314,1
309,309,311,314,1
308,315,312,314,1
308,319,313,313,1
308,320,313,312,1
309,319,310,310,1
310,317,307,309,1
310,316,305,307,1
311,315,303,306,1
311,315,302,306,1
310,316,301,305,1
308,318,300,303,1
306,318,298,301,1
304,316,297,299,1
302,315,299,298,1
302,312,303,298,1
302,308,306,300,1
303,303,307,302,1
303,300,306,305,1
303,300,305,307,1
303,304,305,309,1
304,305,305,311,1
304,302,304,312,1
306,296,304,312,1
308,291,305,313,1
308,290,306,312,1
306,294,306,312,1
304,300,305,312,1
302,306,305,312,1
301,310,305,313,1
302,312,306,313,1
303,312,307,313,1
305,310,308,313,1
307,307,307,314,1
310,304,306,316,1
311,301,306,318,1
309,298,307,319,1
308,296,308,320,1
307,296,309,320,1
307,298,310,320,1
307,301,310,320,1
306,305,311,319,1
305,309,310,316,1
306,312,307,313,1
308,315,305,309,1
310,315,303,305,1
312,312,302,304,1
313,309,302,303,1
314,307,303,303,1
312,308,304,303,1
309,310,304,304,1
307,312,307,306,1
307,314,310,306,1
306,318,311,308,1
303,321,311,308,1
300,324,311,309,1
296,327,310,311,1
293,326,308,313,1
289,324,306,316,1
287,320,304,317,1
287,315,304,318,1
289,311,305,319,1
293,309,305,318,1
296,307,305,318,1
299,307,305,318,1
302,308,305,317,1
304,310,305,316,1
307,311,305,315,1
310,313,305,315,1
313,315,306,315,1
314,316,307,316,1
316,316,307,318,1
316,314,307,319,1
317,312,308,321,1
317,309,309,322,1
316,305,310,323,1
314,302,310,321,1
311,297,310,317,1
309,294,309,313,1
307,294,310,310,1
305,298,311,308,1
303,301,313,308,1
302,304,314,308,1
303,304,312,307,1
303,302,309,306,1
302,302,306,306,1
302,302,304,305,1
302,301,304,304,1
301,300,303,305,1
302,302,304,306,1
304,306,304,308,1
306,310,305,309,1
309,313,306,309,1
310,314,307,308,1
311,315,308,306,1
311,315,307,305,1
311,313,306,303,1
311,309,305,300,1
309,306,306,297,1
308,304,307,296,1
308,301,307,295,1
309,300,307,294,1
309,299,308,295,1
310,300,310,298,1
310,303,311,300,1
310,307,310,302,1
308,309,308,303,1
307,308,307,304,1
305,305,306,306,1
303,301,305,309,1
300,297,305,310,1
297,296,306,311,1
296,295,308,312,1
297,297,311,312,1
299,301,312,312,1
301,306,311,311,1
305,311,310,310,1
307,316,309,310,1
309,319,308,310,1
311,321,308,311,1
314,321,309,312,1
317,319,311,311,1
320,315,311,311,1
320,311,310,309,1
314,308,309,309,1
306,308,309,309,1
301,309,309,309,1
299,312,311,309,1
299,314,313,310,1
299,315,314,310,1
299,316,314,311,1
299,314,315,311,1
298,311,314,311,1
297,308,314,309,1
297,304,313,307,1
297,302,313,306,1
298,304,313,308,1
296,307,313,310,1
293,310,313,312,1
290,311,312,313,1
288,310,311,314,1
288,310,311,315,1
291,310,311,316,1
295,311,310,314,1
298,312,308,311,1
298,311,307,307,1
297,307,307,302,1
297,304,308,298,1
298,304,308,296,1
301,306,308,294,1
305,310,307,294,1
309,313,306,294,1
311,315,306,294,1
312,317,306,296,1
311,318,308,298,1
309,318,311,301,1
307,313,311,304,1
305,308,310,307,1
305,304,307,309,1
304,300,306,311,1
304,296,306,313,1
305,296,307,314,1
307,297,307,315,1
309,300,308,315,1
312,303,308,314,1
314,305,308,313,1
315,308,307,312,1
316,308,306,312,1
315,308,305,312,1
316,306,305,311,1
316,304,305,310,1
315,302,305,310,1
313,300,305,309,1
311,297,306,309,1
308,292,306,309,1
307,288,305,309,1
305,288,303,310,1
304,292,302,311,1
304,301,302,311,1
305,311,301,312,1
308,318,301,311,1
310,320,301,310,1
311,318,301,309,1
312,313,303,307,1
311,310,304,306,1
310,309,306,306,1
310,312,308,307,1
311,316,310,309,1
311,319,311,311,1
311,319,311,311,1
311,317,311,311,1
310,315,311,310,1
309,313,309,309,1
308,310,307,308,1
308,306,305,307,1
309,300,304,309,1
310,295,304,310,1
312,291,305,309,1
313,290,305,309,1
314,293,306,310,1
314,298,308,310,1
314,304,309,310,1
313,308,309,309,1
312,311,308,307,1
311,312,306,305,1
310,311,304,303,1
309,309,304,303,1
308,309,306,303,1
307,308,307,303,1
308,309,307,303,1
309,312,305,305,1
311,315,305,306,1
311,319,303,307,1
308,321,301,308,1
301,318,300,308,1
296,312,299,309,1
295,307,299,311,1
299,302,300,312,1
304,297,301,312,1
308,296,301,312,1
310,297,301,311,1
310,298,301,310,1
309,299,300,308,1
309,297,301,306,1
309,298,301,305,1
311,300,302,305,1
313,302,304,307,1
314,304,306,308,1
316,304,308,308,1
317,303,308,307,1
316,303,308,306,1
314,303,307,305,1
312,303,306,305,1
309,302,307,306,1
308,299,308,308,1
309,298,310,310,1
310,298,311,313,1
312,296,310,315,1
312,294,309,314,1
311,294,308,313,1
310,298,307,313,1
309,304,306,314,1
307,309,304,313,1
306,312,303,313,1
304,312,303,311,1
303,311,303,308,1
302,310,304,305,1
301,309,304,303,1
301,308,304,303,1
300,308,303,304,1
300,309,303,305,1
302,311,302,306,1
303,310,302,307,1
303,306,302,307,1
302,298,302,306,1
301,289,300,305,1
299,285,299,306,1
298,287,298,308,1
298,295,301,312,1
301,304,306,315,1
303,312,310,317,1
304,318,312,318,1
304,322,312,317,1
303,324,311,316,1
302,324,309,315,1
300,322,307,314,1
298,319,307,313,1
298,316,307,312,1
297,314,306,311,1
298,314,306,310,1
301,317,308,309,1
304,321,311,309,1
308,324,315,309,1
310,325,316,309,1
310,325,316,310,1
309,323,315,309,1
308,318,314,308,1
305,312,313,306,1
301,306,311,304,1
297,302,309,303,1
295,300,307,302,1
296,300,305,302,1
299,302,304,302,1
303,305,303,302,1
306,308,303,302,1
307,310,304,303,1
307,311,305,305,1
305,312,305,307,1
302,313,304,309,1
300,314,303,310,1
298,316,302,311,1
297,320,302,312,1
297,321,303,314,1
297,320,304,314,1
298,314,304,314,1
301,308,305,313,1
304,303,305,312,1
308,300,305,311,1
311,298,304,310,1
311,297,303,309,1
310,296,301,309,1
309,295,299,308,1
310,293,297,306,1
312,293,296,305,1
314,293,296,304,1
314,295,297,304,1
314,299,299,304,1
313,302,301,304,1
311,302,303,305,1
309,300,303,305,1
307,299,304,305,1
307,300,304,304,1
307,301,304,304,1
306,303,303,305,1
306,304,303,306,1
306,304,302,307,1
306,303,301,308,1
306,299,301,309,1
307,294,301,309,1
308,290,302,309,1
309,291,302,309,1
312,295,302,309,1
315,302,302,309,1
314,308,302,310,1
310,312,303,310,1
306,313,303,310,1
304,312,302,311,1
302,309,302,310,1
302,307,302,309,1
302,305,303,307,1
301,302,305,306,1
301,300,307,306,1
301,300,309,307,1
301,302,309,306,1
302,303,308,306,1
301,304,306,305,1
302,305,303,303,1
303,304,302,302,1
303,302,303,301,1
303,299,304,300,1
302,296,305,298,1
300,294,305,296,1
299,292,304,294,1
298,291,303,295,1
298,293,301,298,1
300,296,298,301,1
302,299,297,305,1
303,300,296,307,1
303,299,296,309,1
303,297,296,311,1
302,295,296,312,1
300,295,297,313,1
297,296,300,313,1
297,299,302,312,1
298,303,304,311,1
300,306,305,309,1
302,307,307,307,1
303,310,308,305,1
304,316,309,303,1
305,324,310,302,1
306,329,310,302,1
307,329,310,302,1
307,325,309,301,1
306,323,307,302,1
305,322,305,303,1
305,322,304,304,1
304,321,304,306,1
305,320,305,309,1
306,319,306,311,1
306,318,306,312,1
305,316,307,312,1
303,312,307,310,1
301,306,307,307,1
300,299,308,306,1
302,294,310,306,1
304,291,311,307,1
306,290,312,307,1
307,290,312,306,1
308,291,313,305,1
308,293,313,304,1
307,298,313,303,1
305,303,313,304,1
304,307,312,305,1
302,311,312,308,1
302,312,313,311,1
304,313,314,313,1
307,313,314,313,1
311,314,314,313,1
311,313,313,312,1
307,311,313,310,1
301,309,313,309,1
297,307,311,308,1
296,306,309,307,1
298,305,307,306,1
299,305,307,306,1
301,305,308,305,1
302,305,309,304,1
303,304,310,304,1
304,304,311,303,1
304,304,312,304,1
305,304,311,306,1
306,303,309,307,1
307,304,307,309,1
307,303,305,310,1
304,301,305,311,1
301,298,305,312,1
299,298,305,313,1
299,300,304,314,1
300,303,305,314,1
302,306,306,314,1
305,307,308,312,1
309,309,309,311,1
313,310,310,310,1
318,309,311,308,1
320,307,311,306,1
317,303,309,305,1
312,299,307,303,1
306,298,307,302,1
304,299,310,302,1
304,301,312,303,1
306,304,314,305,1
307,305,315,309,1
307,304,315,313,1
306,305,316,316,1
305,309,316,317,1
303,313,314,316,1
301,315,311,315,1
300,312,309,314,1
300,307,307,313,1
301,306,306,313,1
303,309,306,313,1
303,312,305,311,1
301,313,303,308,1
300,312,302,305,1
300,311,301,303,1
301,309,300,300,1
302,308,301,299,1
303,306,301,299,1
304,305,301,300,1
303,304,301,300,1
300,302,300,301,1
297,298,299,302,1
295,294,297,304,1
294,287,297,306,1
297,282,297,308,1
301,279,298,310,1
305,279,300,311,1
309,283,301,311,1
310,290,303,310,1
311,297,303,308,1
311,302,302,305,1
311,306,301,303,1
310,308,300,303,1
310,311,300,303,1
310,315,301,304,1
309,318,304,305,1
307,320,307,306,1
307,323,309,305,1
307,326,310,306,1
309,329,311,306,1
312,327,312,307,1
316,323,312,306,1
319,317,310,306,1
321,313,309,305,1
321,314,308,305,1
318,315,307,305,1
311,316,306,307,1
307,317,306,309,1
304,317,307,312,1
302,317,308,313,1
300,314,309,314,1
298,312,309,313,1
298,309,308,312,1
299,308,308,312,1
300,308,306,311,1
301,308,305,311,1
300,308,303,311,1
299,309,301,311,1
299,309,301,311,1
299,311,301,312,1
300,313,302,313,1
302,313,302,313,1
304,311,303,313,1
305,309,304,312,1
306,307,303,312,1
307,304,302,312,1
307,300,301,311,1
307,296,299,311,1
308,294,299,311,1
310,293,300,312,1
311,293,301,313,1
310,295,303,314,1
309,298,303,314,1
308,301,302,313,1
307,302,300,312,1
306,302,297,311,1
305,301,296,309,1
303,301,294,307,1
301,301,293,306,1
300,302,293,304,1
300,304,295,302,1
300,303,297,300,1
300,303,298,298,1
301,299,299,297,1
301,292,300,296,1
300,284,301,295,1
300,281,302,295,1
301,285,305,297,1
303,294,307,299,1
305,303,308,301,1
305,311,309,301,1
306,316,309,302,1
305,320,309,303,1
303,321,308,305,1
302,320,309,307,1
300,318,309,308,1
299,314,311,310,1
299,308,312,312,1
299,305,311,312,1
299,307,310,311,1
298,308,309,310,1
296,309,307,308,1
297,311,307,308,1
299,310,308,307,1
302,308,310,306,1
304,306,310,306,1
305,303,308,307,1
303,300,306,307,1
300,298,304,308,1
299,296,303,309,1
299,296,304,310,1
300,298,305,311,1
302,299,306,312,1
304,298,307,312,1
306,295,309,313,1
306,292,312,313,1
305,292,313,314,1
304,295,312,313,1
303,301,309,313,1
303,307,308,313,1
304,313,308,313,1
305,315,309,313,1
305,314,310,312,1
305,311,311,312,1
305,307,312,312,1
304,303,312,311,1
304,300,311,311,1
303,301,310,310,1
301,303,310,310,1
299,306,309,309,1
297,309,308,309,1
297,312,308,308,1
298,313,308,306,1
302,313,308,306,1
304,313,308,305,1
303,313,307,304,1
301,314,307,302,1
300,315,308,302,1
301,317,310,302,1
302,320,312,302,1
303,322,312,303,1
304,322,312,304,1
305,322,311,304,1
307,319,309,304,1
309,315,308,304,1
310,310,306,304,1
309,305,305,304,1
308,302,305,304,1
306,300,305,304,1
304,299,305,303,1
303,296,307,302,1
303,293,308,303,1
303,291,310,304,1
304,291,311,306,1
305,292,311,307,1
306,294,311,308,1
307,296,311,310,1
307,298,312,311,1
308,301,312,312,1
308,304,313,314,1
307,305,313,315,1
305,305,313,314,1
302,306,312,313,1
299,307,313,312,1
297,309,313,311,1
295,312,312,311,1
293,313,312,311,1
293,314,312,312,1
296,316,312,313,1
299,318,311,312,1
299,318,310,311,1
296,315,308,311,1
293,309,307,311,1
289,301,306,311,1
287,295,305,309,1
288,293,306,308,1
291,296,306,307,1
295,299,307,305,1
297,302,307,303,1
298,303,307,302,1
298,302,307,302,1
299,300,307,303,1
300,296,307,304,1
302,294,309,306,1
304,293,311,306,1
303,293,312,306,1
303,294,311,305,1
303,296,310,304,1
303,299,308,303,1
305,303,308,303,1
306,305,309,303,1
307,307,310,303,1
307,307,311,304,1
305,306,310,304,1
303,307,308,304,1
302,309,306,304,1
300,311,304,306,1
298,312,303,310,1
297,314,303,313,1
295,317,306,317,1
295,319,309,317,1
297,320,309,317,1
299,320,308,317,1
302,317,307,316,1
304,313,306,316,1
306,310,304,314,1
306,308,302,312,1
305,306,301,311,1
304,305,300,311,1
303,308,300,310,1
303,313,300,309,1
303,317,302,308,1
304,318,305,308,1
305,313,308,307,1
305,307,311,304,1
305,302,311,300,1
305,298,309,296,1
306,297,307,293,1
309,298,304,291,1
310,300,302,290,1
310,302,301,290,1
305,303,300,290,1
301,305,299,291,1
298,307,300,295,1
298,311,302,300,1
300,315,303,304,1
301,320,303,308,1
302,322,302,311,1
303,323,300,313,1
303,323,299,314,1
302,322,300,315,1
303,321,301,316,1
304,319,303,316,1
305,318,306,315,1
305,315,307,314,1
306,314,306,313,1
307,312,304,310,1
308,310,302,308,1
307,307,301,306,1
306,307,301,306,1
304,306,301,308,1
304,306,300,308,1
304,306,299,309,1
305,306,299,309,1
304,304,300,309,1
301,301,300,309,1
298,295,301,309,1
296,292,302,309,1
294,291,302,309,1
293,295,303,309,1
293,300,303,309,1
293,306,303,309,1
295,311,302,308,1
298,314,302,307,1
301,314,303,305,1
304,312,305,304,1
306,309,308,304,1
307,305,308,305,1
307,303,308,308,1
308,302,309,312,1
309,302,310,315,1
307,304,312,317,1
306,307,312,318,1
305,310,311,318,1
305,314,311,317,1
306,316,310,316,1
307,318,310,314,1
309,319,310,312,1
310,317,310,310,1
309,314,308,309,1
308,309,306,309,1
307,306,306,309,1
306,305,305,310,1
305,307,304,309,1
305,310,304,309,1
303,313,305,310,1
302,314,308,311,1
302,314,309,313,1
304,314,308,316,1
306,314,309,319,1
310,315,310,321,1
313,318,310,321,1
314,320,308,320,1
312,321,306,317,1
308,319,304,314,1
305,315,303,312,1
303,307,302,309,1
301,296,302,306,1
299,286,302,304,1
297,279,303,303,1
297,278,303,303,1
298,282,304,304,1
299,286,304,303,1
300,288,304,302,1
301,288,306,303,1
302,289,307,304,1
301,292,308,304,1
301,298,308,304,1
303,306,309,305,1
306,314,310,306,1
311,320,311,307,1
315,324,313,309,1
318,327,315,311,1
318,327,316,312,1
318,327,315,313,1
317,326,313,312,1
317,324,310,311,1
315,322,307,310,1
314,319,306,309,1
313,316,305,307,1
312,314,304,305,1
311,313,303,304,1
310,314,302,304,1
310,315,301,305,1
309,316,301,307,1
309,316,302,310,1
309,314,303,312,1
309,313,304,313,1
309,309,304,314,1
310,304,305,313,1
310,301,307,312,1
310,304,309,312,1
310,311,312,312,1
311,318,313,311,1
311,321,311,310,1
310,320,308,307,1
310,317,305,304,1
308,313,304,302,1
304,307,303,301,1
298,305,304,302,1
294,308,304,304,1
294,311,306,307,1
296,315,307,309,1
298,316,307,309,1
299,316,306,308,1
300,313,307,306,1
300,310,309,305,1
301,308,311,304,1
302,306,312,304,1
304,304,314,304,1
305,300,316,304,1
305,296,318,304,1
304,293,317,304,1
303,293,315,305,1
303,294,313,306,1
304,297,310,306,1
306,305,309,305,1
309,313,307,305,1
312,319,306,305,1
313,320,306,306,1
311,317,306,307,1
304,312,306,308,1
298,306,306,311,1
293,302,306,313,1
292,299,306,314,1
294,298,307,314,1
298,297,307,315,1
303,296,308,316,1
307,297,307,318,1
310,298,307,320,1
311,301,306,320,1
311,303,305,319,1
311,307,305,318,1
312,310,306,316,1
312,314,307,316,1
312,315,308,315,1
312,316,308,314,1
311,316,308,313,1
310,315,306,311,1
307,313,305,309,1
304,312,304,309,1
302,312,305,310,1
301,312,306,311,1
299,312,307,312,1
298,312,308,313,1
297,310,308,313,1
297,307,308,313,1
298,306,310,313,1
301,306,311,314,1
302,305,312,314,1
303,302,312,314,1
303,298,312,313,1
303,296,313,312,1
302,296,313,311,1
302,300,312,310,1
302,305,310,308,1
303,310,308,306,1
303,313,307,305,1
301,313,306,305,1
299,310,307,305,1
297,303,309,305,1
297,297,310,304,1
298,293,309,304,1
300,293,307,303,1
302,296,304,303,1
303,302,301,305,1
305,308,299,307,1
306,315,297,309,1
307,320,297,309,1
307,322,299,309,1
309,322,304,308,1
311,321,309,306,1
313,319,312,304,1
314,316,314,304,1
315,314,315,304,1
315,313,316,306,1
314,313,316,308,1
313,312,316,310,1
312,309,314,312,1
311,306,311,314,1
310,303,310,315,1
309,302,309,314,1
308,302,310,313,1
307,304,310,311,1
306,304,309,310,1
306,306,308,308,1
306,309,308,307,1
306,312,308,307,1
307,314,308,307,1
308,315,309,307,1
309,315,309,307,1
310,313,310,308,1
310,311,311,308,1
307,309,312,307,1
302,307,311,307,1
296,307,311,307,1
293,307,309,308,1
292,305,308,308,1
295,303,306,306,1
298,303,306,302,1
302,305,305,299,1
305,308,305,297,1
307,307,305,298,1
309,303,306,299,1
311,298,306,303,1
312,293,307,306,1
313,292,308,309,1
314,292,309,311,1
314,295,308,312,1
311,297,306,311,1
309,297,306,311,1
306,298,308,310,1
303,300,311,309,1
301,305,312,310,1
302,310,313,309,1
304,312,314,307,1
305,313,314,306,1
305,313,314,306,1
303,312,312,307,1
302,311,309,308,1
301,309,307,308,1
300,307,307,307,1
300,305,306,307,1
299,304,307,306,1
298,302,308,305,1
297,302,311,304,1
298,300,312,304,1
300,298,312,303,1
302,296,309,303,1
305,297,308,303,1
308,300,307,304,1
310,305,307,304,1
311,308,307,304,1
311,310,306,303,1
311,312,306,301,1
310,312,306,301,1
309,311,306,300,1
309,311,306,300,1
308,310,307,300,1
307,309,307,298,1
307,306,307,297,1
306,303,307,296,1
307,301,307,296,1
307,301,307,296,1
307,302,307,296,1
307,303,308,298,1
306,304,308,301,1
306,302,309,304,1
305,300,310,308,1
305,298,310,311,1
304,296,310,312,1
302,295,309,312,1
301,294,309,311,1
300,293,310,310,1
298,291,310,309,1
296,289,311,308,1
294,291,310,307,1
293,296,309,306,1
294,304,309,305,1
296,313,308,305,1
299,319,307,304,1
303,321,305,305,1
305,319,305,306,1
307,316,307,308,1
307,313,310,312,1
305,308,312,314,1
303,304,313,316,1
300,301,312,315,1
299,301,309,314,1
299,303,308,312,1
301,305,308,311,1
303,307,308,309,1
305,308,307,307,1
306,309,307,303,1
307,309,306,300,1
306,308,306,296,1
305,306,305,294,1
303,305,304,295,1
302,304,303,298,1
301,304,304,303,1
301,303,306,308,1
300,302,309,312,1
300,300,309,312,1
300,299,307,310,1
298,298,304,308,1
296,297,302,304,1
293,295,300,302,1
291,294,299,301,1
293,295,299,301,1
297,298,300,301,1
304,301,301,302,1
313,303,302,302,1
322,305,302,303,1
329,305,303,304,1
330,305,303,305,1
322,304,302,306,1
312,304,300,308,1
307,307,300,310,1
306,309,300,312,1
307,312,303,313,1
309,312,306,313,1
310,308,308,314,1
310,304,308,313,1
310,302,307,312,1
308,301,306,311,1
306,299,305,310,1
305,296,306,309,1
305,293,305,309,1
304,290,305,309,1
302,290,305,309,1
301,294,305,307,1
301,299,305,305,1
302,303,305,304,1
304,304,305,302,1
306,303,304,302,1
306,303,303,302,1
306,306,301,302,1
306,312,300,303,1
306,319,300,305,1
308,326,300,307,1
308,328,301,308,1
307,325,302,307,1
304,320,303,308,1
303,316,304,308,1
302,314,305,309,1
302,313,306,311,1
303,312,306,313,1
303,312,307,314,1
303,314,308,313,1
303,315,308,312,1
302,314,308,312,1
300,315,308,311,1
298,316,307,310,1
297,320,308,308,1
297,324,308,306,1
298,328,308,305,1
301,331,307,304,1
304,331,307,304,1
306,327,306,305,1
307,319,305,306,1
307,308,303,306,1
308,298,302,306,1
309,290,304,306,1
309,287,305,307,1
310,288,306,307,1
312,294,307,307,1
313,299,307,309,1
313,300,308,310,1
313,296,309,311,1
312,292,309,313,1
310,289,310,314,1
308,288,310,314,1
307,290,310,315,1
307,295,309,314,1
310,300,307,311,1
311,300,305,307,1
312,299,304,304,1
312,298,303,303,1
311,299,302,304,1
309,301,300,305,1
306,303,300,306,1
304,306,300,307,1
301,311,299,308,1
298,319,299,309,1
297,326,300,311,1
298,331,300,313,1
301,333,299,314,1
306,334,299,315,1
311,334,299,314,1
315,332,300,313,1
319,328,301,309,1
321,322,301,305,1
321,317,301,302,1
318,313,300,301,1
314,311,299,301,1
311,312,299,302,1
310,314,300,302,1
310,317,301,301,1
310,319,302,301,1
310,318,303,301,1
310,315,304,303,1
310,311,304,304,1
307,305,303,306,1
302,298,302,307,1
298,294,301,308,1
296,295,300,309,1
295,298,300,310,1
298,301,300,311,1
303,304,301,312,1
309,307,302,312,1
315,308,303,311,1
320,307,303,308,1
318,304,303,305,1
312,302,301,302,1
305,301,299,301,1
303,302,299,300,1
302,304,299,300,1
302,306,300,300,1
302,306,301,300,1
303,306,301,300,1
303,305,301,300,1
303,305,302,300,1
304,307,302,299,1
305,309,303,299,1
308,310,306,300,1
310,311,308,299,1
312,311,308,300,1
313,311,307,300,1
312,311,305,302,1
312,311,304,304,1
312,313,302,306,1
313,315,301,306,1
314,317,300,305,1
315,319,301,305,1
316,321,301,304,1
315,321,302,303,1
314,320,303,303,1
311,317,304,303,1
307,313,303,303,1
303,306,301,304,1
298,299,299,305,1
295,291,298,306,1
294,285,298,307,1
296,281,299,309,1
300,280,300,310,1
304,282,300,311,1
308,287,300,312,1
311,291,299,314,1
313,293,300,314,1
313,291,302,313,1
313,288,304,312,1
313,285,304,309,1
313,284,305,307,1
313,287,306,306,1
313,291,306,305,1
313,297,305,303,1
312,303,304,300,1
310,310,303,297,1
309,316,303,295,1
309,319,302,294,1
310,321,301,292,1
312,321,301,291,1
312,320,301,291,1
311,319,300,290,1
309,319,300,291,1
309,319,301,293,1
309,320,302,297,1
310,319,303,301,1
309,318,304,307,1
310,316,306,311,1
312,314,308,314,1
314,310,309,315,1
314,305,310,316,1
314,300,311,316,1
312,297,312,315,1
307,297,312,316,1
301,301,312,317,1
297,306,311,318,1
297,312,311,319,1
299,317,309,319,1
301,321,309,317,1
302,323,308,314,1
303,324,307,312,1
302,323,306,309,1
299,320,305,308,1
297,316,304,306,1
296,314,303,305,1
295,313,302,304,1
296,312,302,305,1
297,312,303,305,1
297,309,305,306,1
298,303,307,306,1
299,298,307,306,1
300,297,305,305,1
302,297,303,304,1
304,299,301,303,1
306,301,299,303,1
309,305,297,304,1
310,310,297,307,1
309,313,298,309,1
307,315,300,312,1
307,316,301,314,1
306,315,301,315,1
303,314,301,315,1
303,313,301,315,1
304,313,302,314,1
305,312,302,313,1
306,311,302,313,1
307,311,303,313,1
308,312,304,313,1
309,312,305,314,1
310,313,305,315,1
309,311,305,315,1
308,310,305,315,1
307,307,305,316,1
306,305,307,317,1
305,302,311,317,1
305,300,313,317,1
305,299,313,316,1
305,300,311,314,1
304,303,309,312,1
301,303,307,310,1
298,302,306,308,1
298,298,306,306,1
299,296,306,305,1
303,295,307,304,1
306,296,308,304,1
310,299,309,305,1
313,302,309,307,1
315,305,308,308,1
315,306,307,308,1
314,306,307,307,1
313,305,307,306,1
310,305,308,305,1
309,308,308,304,1
310,312,307,304,1
310,316,307,303,1
309,317,306,302,1
308,317,304,301,1
307,316,304,300,1
308,315,303,300,1
309,315,303,301,1
310,314,303,302,1
311,312,304,304,1
313,310,305,304,1
315,305,305,304,1
316,301,305,304,1
318,299,306,304,1
318,301,306,306,1
314,306,306,308,1
309,309,305,309,1
305,311,304,309,1
303,308,304,310,1
302,303,306,310,1
301,298,307,310,1
299,296,308,310,1
296,300,308,310,1
294,308,308,310,1
293,315,309,310,1
296,319,310,311,1
299,320,311,310,1
302,317,312,311,1
303,312,312,311,1
303,307,312,312,1
301,303,311,312,1
298,299,311,313,1
296,299,312,313,1
296,304,313,312,1
298,312,314,311,1
301,317,314,308,1
303,318,314,304,1
305,318,313,300,1
307,316,310,296,1
308,314,307,293,1
309,312,305,292,1
310,310,304,293,1
311,308,304,294,1
312,307,305,296,1
310,305,306,297,1
307,302,305,299,1
304,301,304,302,1
304,302,303,304,1
306,304,303,306,1
308,304,304,307,1
310,303,305,309,1
310,303,307,311,1
310,302,308,313,1
309,304,310,314,1
307,307,311,314,1
305,310,311,314,1
303,311,312,313,1
301,309,312,312,1
300,305,312,310,1
300,301,312,308,1
301,299,312,307,1
303,300,313,307,1
306,303,312,307,1
310,308,314,307,1
313,312,315,306,1
314,315,317,304,1
314,317,316,302,1
313,316,315,300,1
313,315,314,299,1
313,312,313,299,1
312,309,312,300,1
310,307,312,302,1
309,304,310,303,1
307,303,309,304,1
305,303,309,305,1
304,303,308,305,1
300,301,306,305,1
295,300,306,305,1
294,302,307,304,1
296,306,307,304,1
300,310,308,303,1
305,311,307,301,1
308,310,307,300,1
311,307,307,299,1
312,304,308,301,1
312,302,309,303,1
311,302,310,306,1
310,302,311,307,1
309,304,312,308,1
309,307,312,308,1
309,308,311,306,1
309,307,310,306,1
309,304,310,306,1
308,299,309,309,1
309,296,309,312,1
311,299,309,315,1
314,305,310,316,1
315,311,309,316,1
316,315,310,316,1
317,318,310,316,1
317,320,312,315,1
319,321,313,316,1
321,321,314,316,1
322,321,313,316,1
321,317,312,315,1
316,310,310,313,1
307,305,308,311,1
299,303,307,310,1
293,304,307,311,1
291,306,308,312,1
292,309,309,313,1
294,312,309,314,1
298,313,308,315,1
301,310,309,315,1
304,304,310,314,1
306,297,312,312,1
307,293,313,309,1
308,292,312,306,1
309,295,311,304,1
312,301,310,303,1
314,305,310,303,1
315,308,309,302,1
315,308,309,302,1
313,308,311,301,1
311,306,310,302,1
310,304,309,303,1
310,305,308,303,1
312,306,307,303,1
314,306,306,303,1
315,304,304,302,1
313,302,303,302,1
312,302,304,303,1
311,302,305,303,1
311,301,307,304,1
312,301,309,305,1
313,303,309,306,1
313,304,309,305,1
312,303,308,305,1
311,301,306,304,1
309,299,305,303,1
307,298,304,301,1
305,299,304,301,1
304,302,304,302,1
303,306,305,303,1
301,309,305,304,1
299,312,306,304,1
297,313,306,303,1
297,314,307,302,1
298,316,307,302,1
300,319,307,303,1
304,323,307,303,1
307,328,308,304,1
310,333,309,303,1
312,333,308,302,1
312,329,307,300,1
311,324,305,298,1
309,318,305,298,1
306,310,306,298,1
303,303,310,300,1
301,298,311,301,1
300,295,309,301,1
298,294,307,300,1
298,292,305,300,1
299,292,304,299,1
300,293,303,300,1
302,294,303,300,1
303,295,303,302,1
305,296,303,304,1
306,298,303,305,1
306,299,303,305,1
308,301,304,304,1
309,302,304,302,1
311,300,304,299,1
311,297,303,297,1
311,294,302,296,1
312,294,302,298,1
312,297,303,302,1
313,301,305,306,1
314,306,307,309,1
314,309,307,310,1
314,312,308,310,1
313,314,309,308,1
312,314,309,306,1
310,312,308,303,1
308,308,306,302,1
306,302,305,304,1
305,295,304,306,1
303,287,304,308,1
301,283,304,309,1
298,285,304,309,1
297,292,304,309,1
297,300,303,308,1
298,308,302,308,1
301,314,302,308,1
304,317,302,309,1
309,319,304,310,1
314,320,306,311,1
314,319,307,312,1
312,317,307,313,1
308,314,306,315,1
303,310,305,317,1
300,307,305,318,1
299,308,306,319,1
298,311,306,319,1
299,315,306,319,1
299,316,306,318,1
299,316,305,316,1
299,315,307,314,1
299,314,308,313,1
299,313,308,313,1
298,310,308,312,1
298,307,307,311,1
300,303,307,311,1
302,298,307,310,1
305,292,307,308,1
306,288,307,306,1
306,289,307,305,1
305,292,308,304,1
304,298,309,304,1
303,304,310,304,1
302,307,311,304,1
301,309,312,305,1
301,310,313,306,1
302,313,314,306,1
303,316,313,305,1
304,318,310,304,1
305,318,307,302,1
305,318,306,300,1
305,316,305,298,1
302,314,305,299,1
300,313,304,300,1
298,313,303,302,1
298,314,303,304,1
299,315,303,305,1
301,315,304,306,1
304,315,306,307,1
307,314,307,308,1
309,313,307,308,1
309,310,306,308,1
307,308,305,309,1
304,307,304,311,1
302,307,304,313,1
299,306,304,314,1
295,304,304,315,1
291,302,302,314,1
290,301,301,312,1
290,298,300,310,1
293,294,301,309,1
295,288,302,308,1
296,284,303,307,1
297,283,303,308,1
300,284,305,307,1
303,288,306,308,1
307,296,307,308,1
310,304,308,308,1
314,310,308,308,1
317,313,308,306,1
319,312,307,305,1
318,307,307,304,1
317,303,306,303,1
313,300,304,302,1
310,299,303,301,1
305,302,303,298,1
302,306,303,295,1
300,310,302,294,1
300,315,301,293,1
302,319,301,294,1
304,321,301,295,1
306,322,301,296,1
308,319,300,296,1
309,317,300,296,1
310,315,301,297,1
311,315,302,298,1
311,315,302,301,1
311,315,301,305,1
310,313,301,308,1
308,311,301,311,1
306,308,301,314,1
306,305,302,315,1
305,304,302,316,1
305,304,303,315,1
305,307,303,314,1
305,311,302,313,1
307,316,302,312,1
307,317,300,312,1
306,316,300,312,1
306,313,302,313,1
307,310,306,314,1
309,308,310,317,1
311,307,313,319,1
314,306,313,320,1
314,305,311,320,1
312,303,308,319,1
310,300,306,318,1
310,299,305,317,1
312,297,304,317,1
314,297,304,316,1
316,298,303,316,1
318,300,304,314,1
318,301,304,311,1
314,301,302,308,1
307,300,300,305,1
300,300,299,303,1
296,301,298,301,1
295,304,299,301,1
295,307,300,303,1
297,311,301,306,1
300,314,303,311,1
304,312,306,313,1
307,309,308,315,1
309,307,308,315,1
310,307,307,315,1
310,306,304,313,1
309,305,302,311,1
308,302,300,309,1
308,298,300,307,1
309,294,301,305,1
309,292,302,303,1
308,292,302,300,1
307,294,302,297,1
307,299,301,295,1
307,305,301,295,1
307,308,303,297,1
307,308,305,300,1
306,308,306,304,1
307,308,308,307,1
308,309,309,311,1
309,310,308,313,1
308,310,307,314,1
306,310,305,315,1
304,309,303,316,1
304,308,301,316,1
304,308,301,316,1
303,308,301,316,1
303,309,301,316,1
303,311,302,317,1
303,312,304,318,1
303,310,305,317,1
303,307,306,318,1
303,304,307,319,1
302,301,307,319,1
301,298,308,320,1
301,295,307,320,1
302,295,305,319,1
302,298,302,317,1
301,300,299,314,1
299,300,297,310,1
299,296,297,307,1
299,293,299,304,1
299,291,302,301,1
301,292,303,300,1
303,295,304,301,1
305,300,304,302,1
307,304,305,305,1
308,306,306,308,1
309,304,306,310,1
308,301,305,313,1
307,299,304,314,1
306,301,303,314,1
305,308,303,315,1
305,316,304,314,1
304,324,304,316,1
304,328,304,317,1
304,328,305,318,1
304,324,305,319,1
305,319,305,317,1
305,313,305,313,1
306,308,305,309,1
306,303,304,305,1
306,298,302,301,1
305,295,301,299,1
305,295,301,298,1
304,293,301,298,1
303,293,302,298,1
303,294,302,297,1
302,297,303,298,1
303,301,303,300,1
306,306,302,303,1
310,310,302,306,1
314,313,303,309,1
315,315,304,312,1
313,317,305,313,1
307,317,306,313,1
301,317,305,312,1
299,317,304,310,1
299,316,304,308,1
299,314,304,305,1
299,310,304,303,1
300,306,304,303,1
300,303,304,303,1
299,302,304,303,1
297,299,303,304,1
295,297,303,304,1
294,296,302,304,1
293,298,301,304,1
294,303,300,305,1
296,308,301,305,1
300,312,301,305,1
302,315,304,305,1
303,316,306,305,1
304,313,307,305,1
305,310,307,305,1
307,309,306,305,1
309,309,306,305,1
312,308,307,304,1
313,306,307,305,1
313,304,306,305,1
308,301,304,305,1
299,296,301,304,1
291,292,300,304,1
289,295,300,304,1
291,302,302,305,1
293,310,304,306,1
295,316,306,308,1
296,317,308,309,1
299,316,310,310,1
301,312,313,310,1
303,309,315,310,1
305,308,315,310,1
305,309,313,310,1
306,313,311,311,1
306,316,309,311,1
305,318,306,310,1
304,318,304,309,1
305,316,304,307,1
307,313,304,305,1
308,309,304,302,1
309,307,303,300,1
308,308,301,299,1
307,312,301,300,1
308,318,302,303,1
310,324,303,306,1
313,328,305,309,1
315,326,306,312,1
316,321,307,313,1
316,314,307,313,1
315,308,307,312,1
315,304,307,310,1
314,300,307,308,1
314,298,307,306,1
313,299,307,305,1
312,300,307,304,1
310,303,307,303,1
308,306,307,303,1
306,308,306,302,1
304,309,305,301,1
304,310,304,301,1
306,310,304,301,1
307,310,305,302,1
307,309,305,304,1
307,306,306,306,1
306,303,308,307,1
305,299,308,307,1
304,296,308,304,1
303,295,308,303,1
303,298,308,301,1
304,302,307,300,1
304,307,306,302,1
305,310,306,303,1
306,312,306,303,1
307,313,305,302,1
308,311,304,299,1
308,308,305,297,1
309,305,305,296,1
308,304,307,296,1
307,303,310,296,1
305,303,312,298,1
302,302,312,300,1
298,301,312,304,1
296,299,313,307,1
297,296,314,311,1
300,297,314,313,1
305,301,314,315,1
311,307,314,317,1
315,312,313,317,1
314,315,313,316,1
311,315,312,315,1
307,314,312,314,1
306,313,311,312,1
307,312,311,310,1
308,309,310,308,1
307,306,311,307,1
306,304,312,305,1
304,302,313,304,1
302,302,311,303,1
301,302,308,301,1
300,304,305,299,1
300,305,303,297,1
301,307,303,296,1
301,309,303,296,1
302,310,304,297,1
304,312,304,299,1
305,315,305,301,1
307,318,306,305,1
307,319,308,310,1
307,318,310,313,1
305,316,313,314,1
302,315,313,314,1
300,311,312,312,1
297,304,310,310,1
295,296,310,308,1
296,290,311,308,1
298,286,311,307,1
301,283,310,307,1
303,286,309,307,1
307,293,309,308,1
310,303,309,310,1
310,310,308,309,1
309,313,308,307,1
307,313,307,305,1
304,312,305,303,1
300,310,303,301,1
297,307,301,301,1
297,304,300,301,1
299,302,300,301,1
302,302,300,299,1
305,304,302,298,1
310,307,303,298,1
315,310,305,298,1
320,313,307,299,1
321,313,308,301,1
318,311,308,301,1
313,308,308,303,1
309,306,310,305,1
307,306,311,307,1
306,307,311,307,1
307,310,310,307,1
308,311,308,306,1
310,312,307,306,1
311,312,307,305,1
310,311,308,305,1
311,310,308,306,1
311,311,307,308,1
310,313,307,311,1
308,316,307,313,1
307,320,307,314,1
307,323,306,314,1
306,324,308,312,1
306,322,310,311,1
305,318,312,310,1
305,314,311,308,1
305,310,309,306,1
305,306,306,305,1
305,301,304,304,1
304,298,303,305,1
304,297,304,305,1
303,297,305,307,1
304,298,306,308,1
305,299,307,310,1
306,303,307,313,1
308,307,307,314,1
308,311,307,315,1
305,313,307,315,1
302,314,306,314,1
300,313,307,314,1
301,312,308,313,1
303,311,308,313,1
304,307,309,312,1
305,304,308,311,1
308,301,307,310,1
312,299,306,308,1
317,300,304,308,1
322,301,303,306,1
325,302,301,305,1
323,302,300,303,1
317,302,298,303,1
310,301,298,303,1
306,301,299,303,1
303,302,301,304,1
303,305,304,305,1
303,309,305,305,1
306,312,306,306,1
308,312,306,308,1
310,311,306,310,1
312,310,307,311,1
311,311,308,312,1
310,313,308,311,1
309,314,307,310,1
307,314,306,308,1
306,310,305,307,1
304,303,305,306,1
303,297,304,305,1
304,293,303,302,1
304,291,301,299,1
304,292,298,296,1
303,294,297,293,1
301,296,296,290,1
299,298,296,288,1
298,300,296,288,1
299,299,296,288,1
300,299,296,290,1
301,299,297,292,1
300,298,297,295,1
299,298,297,299,1
298,298,298,303,1
299,300,298,307,1
302,304,299,310,1
305,307,301,313,1
309,309,303,315,1
313,311,306,317,1
315,312,310,317,1
316,310,313,316,1
315,308,313,313,1
313,306,313,311,1
312,305,313,308,1
311,306,312,307,1
311,307,312,308,1
311,308,312,309,1
311,309,312,311,1
311,310,312,311,1
310,313,312,312,1
310,315,312,312,1
310,316,311,310,1
309,313,310,308,1
308,308,311,306,1
307,302,312,305,1
306,297,311,303,1
305,297,309,302,1
306,300,307,302,1
307,306,307,304,1
309,310,308,307,1
310,314,308,309,1
311,315,308,310,1
312,316,308,311,1
312,314,309,312,1
312,312,310,313,1
313,309,309,314,1
314,306,307,313,1
316,304,306,312,1
314,301,305,310,1
309,297,305,308,1
303,295,305,307,1
299,296,307,308,1
299,298,310,310,1
302,300,313,312,1
305,303,314,314,1
309,305,314,314,1
311,305,314,314,1
312,305,314,314,1
313,304,314,316,1
314,303,314,317,1
315,303,314,319,1
315,302,314,320,1
314,302,314,321,1
309,301,314,322,1
303,300,313,321,1
298,297,311,320,1
295,295,310,319,1
296,296,308,317,1
297,298,307,314,1
298,298,306,311,1
298,295,305,308,1
298,293,304,305,1
299,293,304,302,1
302,296,303,300,1
306,298,302,299,1
309,300,302,298,1
311,299,301,298,1
311,298,301,299,1
311,297,301,301,1
311,296,301,304,1
311,295,302,306,1
309,295,303,308,1
307,295,304,310,1
306,296,306,313,1
306,297,310,315,1
307,297,313,317,1
307,298,314,317,1
308,299,313,316,1
307,301,312,315,1
307,303,310,313,1
306,304,309,311,1
305,303,310,311,1
306,301,310,313,1
306,299,310,314,1
306,295,309,315,1
305,292,308,316,1
305,290,307,315,1
304,290,307,313,1
302,289,307,310,1
301,290,306,306,1
303,293,306,303,1
306,301,307,300,1
310,310,306,299,1
311,316,306,298,1
310,319,305,297,1
308,319,305,298,1
305,318,305,300,1
304,315,305,303,1
302,313,305,305,1
301,313,305,307,1
301,314,305,308,1
302,317,306,310,1
303,319,307,312,1
304,322,308,313,1
306,326,309,314,1
308,328,310,314,1
308,326,311,312,1
308,321,310,311,1
307,317,311,310,1
305,314,311,309,1
304,313,310,308,1
303,314,310,306,1
301,315,309,305,1
300,314,308,304,1
298,310,306,303,1
297,304,306,303,1
297,298,306,303,1
301,293,307,304,1
304,290,308,306,1
309,289,308,308,1
313,290,307,308,1
316,292,307,307,1
313,295,305,307,1
308,299,304,306,1
304,303,304,306,1
302,308,305,306,1
302,312,306,308,1
302,314,308,310,1
303,315,310,312,1
303,313,312,314,1
303,311,311,314,1
300,308,308,314,1
298,305,305,313,1
298,304,303,312,1
300,303,301,309,1
304,300,302,307,1
307,298,304,306,1
309,296,305,306,1
305,295,306,307,1
300,294,307,307,1
295,291,307,307,1
294,288,308,307,1
293,286,309,308,1
295,284,309,308,1
297,284,308,307,1
300,291,308,306,1
302,300,308,306,1
302,308,308,305,1
304,312,307,303,1
306,310,306,301,1
307,306,305,299,1
308,303,304,297,1
308,302,305,297,1
308,303,307,297,1
307,306,308,298,1
306,308,309,298,1
305,312,308,299,1
306,315,307,300,1
306,314,305,301,1
307,311,304,301,1
307,304,302,302,1
306,300,301,302,1
305,299,300,301,1
303,302,299,300,1
304,308,300,299,1
306,315,300,300,1
308,319,301,301,1
309,317,301,302,1
309,315,302,305,1
309,312,302,308,1
308,310,303,311,1
306,307,303,313,1
303,305,303,313,1
300,303,301,312,1
297,302,300,310,1
295,300,299,307,1
293,301,298,305,1
294,303,298,303,1
297,304,300,301,1
301,305,300,300,1
304,307,299,301,1
305,310,298,304,1
305,311,298,306,1
304,310,298,308,1
304,308,300,310,1
304,309,301,311,1
305,309,302,310,1
306,309,302,308,1
306,308,300,305,1
307,306,298,303,1
307,304,297,301,1
307,304,297,301,1
307,305,298,302,1
308,307,299,303,1
308,307,300,303,1
306,308,300,304,1
305,307,299,305,1
304,306,299,306,1
303,305,300,306,1
304,304,300,307,1
305,304,301,308,1
307,305,302,310,1
308,306,304,311,1
308,308,307,313,1
308,307,310,315,1
308,306,310,316,1
307,304,309,318,1
306,301,307,319,1
304,300,306,320,1
303,301,307,321,1
303,304,308,320,1
304,306,309,319,1
305,305,309,317,1
307,302,307,316,1
306,298,305,314,1
305,294,303,314,1
304,293,303,314,1
305,295,304,314,1
306,300,307,314,1
307,306,309,314,1
308,314,310,314,1
309,322,310,313,1
311,327,310,312,1
312,329,309,310,1
312,329,308,307,1
312,326,307,306,1
309,322,306,304,1
308,319,306,302,1
309,316,306,301,1
312,314,307,300,1
315,313,307,301,1
320,313,308,300,1
323,313,308,300,1
319,313,308,299,1
308,312,308,299,1
298,311,307,300,1
292,309,308,301,1
290,306,308,303,1
292,304,308,306,1
296,301,308,308,1
302,300,310,311,1
306,302,311,313,1
309,306,312,316,1
311,310,310,316,1
311,313,308,314,1
310,315,306,312,1
308,316,307,311,1
308,317,309,309,1
307,316,311,308,1
307,315,312,307,1
307,315,312,306,1
307,313,311,305,1
306,309,308,304,1
305,303,305,303,1
303,297,303,302,1
300,293,301,302,1
299,289,300,302,1
298,284,300,302,1
297,278,300,302,1
296,273,300,300,1
295,273,300,299,1
295,280,301,298,1
297,291,302,299,1
300,300,303,300,1
301,309,304,302,1
302,314,304,303,1
302,316,305,304,1
302,314,307,305,1
301,311,308,306,1
299,309,309,307,1
298,308,309,308,1
296,307,309,309,1
294,306,308,310,1
294,304,306,312,1
296,303,306,314,1
299,305,305,313,1
303,309,305,312,1
306,315,305,312,1
309,320,305,310,1
309,323,304,308,1
308,322,304,304,1
307,318,304,299,1
306,312,304,296,1
304,306,305,293,1
302,301,307,292,1
301,299,309,294,1
300,299,312,298,1
300,301,315,302,1
300,302,315,306,1
300,304,315,309,1
300,309,313,310,1
302,314,313,312,1
304,319,312,314,1
306,322,311,316,1
307,323,311,317,1
307,323,311,318,1
307,323,311,317,1
306,323,311,317,1
305,321,311,317,1
304,319,311,316,1
303,318,311,316,1
303,316,311,317,1
304,315,310,318,1
305,314,310,317,1
307,312,310,316,1
307,310,309,314,1
307,308,309,311,1
306,309,309,310,1
305,310,308,308,1
304,310,307,305,1
302,309,305,303,1
299,310,305,303,1
296,312,308,303,1
294,315,311,303,1
295,313,312,305,1
297,310,312,307,1
299,305,310,307,1
302,303,309,308,1
304,304,308,307,1
305,306,308,306,1
304,309,308,307,1
302,309,308,308,1
301,306,308,308,1
301,302,308,308,1
301,297,308,308,1
300,292,308,307,1
299,288,308,307,1
299,287,308,306,1
300,288,308,306,1
302,290,309,307,1
306,293,308,306,1
311,296,308,306,1
314,298,308,306,1
315,300,307,306,1
312,302,307,306,1
308,303,307,307,1
305,305,307,307,1
304,307,308,306,1
304,309,309,306,1
304,309,310,304,1
303,309,311,303,1
302,307,310,303,1
302,303,309,303,1
302,297,307,304,1
302,288,305,304,1
302,281,304,303,1
301,278,304,302,1
301,277,304,301,1
301,282,306,301,1
302,292,309,303,1
303,303,310,306,1
304,314,312,309,1
304,322,312,312,1
305,326,311,313,1
304,326,309,312,1
303,323,306,312,1
302,316,306,310,1
301,308,306,309,1
300,302,305,307,1
301,299,306,308,1
302,302,306,308,1
303,305,307,309,1
303,308,307,309,1
303,312,307,308,1
304,315,307,306,1
305,315,306,303,1
306,316,306,301,1
306,318,307,299,1
305,320,308,299,1
305,320,309,302,1
305,319,310,305,1
307,317,310,307,1
308,315,309,309,1
309,313,309,309,1
310,313,310,309,1
310,313,311,309,1
310,313,311,310,1
309,313,310,310,1
309,313,309,311,1
308,313,309,312,1
307,312,307,313,1
306,311,305,313,1
303,311,303,312,1
300,312,302,311,1
297,313,301,309,1
294,312,302,307,1
292,311,303,306,1
291,310,304,306,1
291,309,305,307,1
292,308,308,308,1
294,307,309,309,1
297,307,310,311,1
301,308,310,311,1
305,308,308,310,1
309,307,307,309,1
314,306,308,307,1
318,307,310,306,1
320,309,314,306,1
320,309,317,306,1
318,309,317,305,1
316,308,316,304,1
314,309,314,303,1
312,309,312,302,1
310,308,310,301,1
308,306,307,300,1
306,305,305,299,1
305,303,303,299,1
306,302,303,300,1
307,301,304,301,1
308,300,304,303,1
308,299,305,305,1
309,298,306,307,1
308,298,307,308,1
306,297,306,308,1
306,297,305,308,1
304,298,303,306,1
303,298,300,305,1
301,296,299,305,1
299,292,299,307,1
297,289,300,309,1
296,288,303,311,1
298,290,306,313,1
300,295,309,312,1
302,298,310,310,1
302,299,309,308,1
301,299,307,308,1
300,297,306,308,1
301,292,306,310,1
303,286,305,311,1
306,281,306,310,1
307,281,306,308,1
306,286,306,305,1
306,295,305,301,1
307,305,304,298,1
309,314,303,296,1
310,320,303,294,1
311,325,303,293,1
312,328,303,292,1
312,330,303,293,1
313,330,303,296,1
314,330,304,300,1
315,328,306,304,1
317,326,309,307,1
318,324,309,308,1
318,322,307,308,1
314,319,305,307,1
308,317,303,305,1
303,314,302,303,1
303,313,302,303,1
305,312,303,304,1
307,310,303,305,1
310,309,304,307,1
311,308,304,309,1
312,307,305,310,1
311,305,305,311,1
310,305,305,311,1
310,307,304,312,1
310,310,304,312,1
310,313,304,311,1
309,316,304,311,1
308,319,303,310,1
307,318,302,310,1
306,314,302,310,1
306,307,302,310,1
304,299,301,309,1
303,293,300,307,1
303,287,300,306,1
302,284,300,304,1
302,285,301,303,1
303,288,301,303,1
304,290,302,303,1
303,293,303,304,1
303,295,304,306,1
303,298,304,307,1
302,301,302,307,1
302,302,300,305,1
302,302,298,304,1
302,302,297,304,1
304,304,298,305,1
307,307,300,306,1
308,308,304,307,1
309,309,306,309,1
310,308,307,310,1
309,306,307,310,1
310,304,307,311,1
310,302,309,313,1
310,303,310,315,1
310,304,311,318,1
309,304,312,319,1
307,305,314,321,1
306,306,314,323,1
304,307,311,324,1
303,308,307,323,1
303,306,303,320,1
304,302,301,318,1
306,299,302,315,1
306,297,303,314,1
306,299,303,313,1
306,304,304,313,1
307,309,306,314,1
309,312,308,314,1
310,313,310,314,1
310,312,311,314,1
309,309,311,313,1
306,302,311,312,1
304,294,310,311,1
302,286,309,310,1
303,280,308,308,1
306,280,307,305,1
313,284,307,304,1
320,291,306,304,1
321,296,306,305,1
319,301,305,306,1
317,306,305,308,1
316,309,305,310,1
316,311,307,311,1
316,309,307,312,1
315,305,308,313,1
314,300,309,313,1
312,299,309,312,1
309,300,308,311,1
307,304,308,310,1
306,309,309,309,1
306,313,309,308,1
305,315,310,308,1
306,318,309,308,1
307,320,309,308,1
308,323,308,307,1
309,325,306,305,1
308,325,305,303,1
305,321,304,301,1
302,315,304,301,1
299,310,304,301,1
297,307,305,302,1
295,306,306,303,1
296,306,307,303,1
298,305,308,303,1
303,305,310,303,1
308,304,311,303,1
310,304,313,303,1
310,303,313,305,1
310,301,314,306,1
310,300,314,307,1
311,300,314,308,1
312,300,312,308,1
311,302,311,309,1
310,304,310,308,1
309,304,308,306,1
308,304,307,304,1
307,305,306,301,1
306,307,306,299,1
304,308,306,297,1
303,308,305,297,1
301,307,305,298,1
300,306,305,297,1
300,304,305,297,1
302,302,305,297,1
305,300,305,297,1
307,298,306,297,1
309,295,307,299,1
310,295,308,301,1
312,297,308,304,1
312,300,308,307,1
311,302,307,310,1
311,304,308,312,1
312,306,308,314,1
312,307,310,315,1
312,306,311,314,1
312,305,311,313,1
310,306,310,311,1
307,309,308,309,1
304,311,306,307,1
300,310,304,305,1
297,306,301,305,1
295,305,299,305,1
296,306,299,307,1
298,309,301,310,1
301,313,304,313,1
304,315,308,316,1
306,315,313,318,1
308,315,317,319,1
310,315,317,320,1
310,315,315,320,1
309,313,312,318,1
306,309,310,314,1
304,304,308,312,1
302,299,308,309,1
302,296,309,305,1
305,297,309,304,1
310,302,309,304,1
313,308,308,305,1
314,313,308,307,1
315,316,308,307,1
314,317,307,307,1
313,318,308,307,1
313,319,308,306,1
311,319,308,305,1
309,319,308,303,1
308,319,307,300,1
306,319,307,298,1
306,320,306,298,1
305,321,306,298,1
306,321,306,301,1
307,318,308,304,1
308,314,310,308,1
308,309,312,311,1
307,304,313,313,1
306,299,312,313,1
304,295,312,314,1
301,293,310,312,1
298,292,309,311,1
297,291,308,309,1
298,292,307,307,1
300,294,306,306,1
302,296,306,305,1
303,299,306,305,1
305,303,307,305,1
305,305,307,306,1
304,306,306,306,1
302,307,306,306,1
300,309,305,307,1
300,313,304,307,1
302,316,304,308,1
306,318,305,309,1
307,318,305,310,1
305,318,304,311,1
304,317,302,311,1
303,316,302,311,1
303,315,303,312,1
304,313,303,313,1
305,311,303,313,1
307,309,303,314,1
308,308,303,315,1
308,308,302,315,1
308,309,301,315,1
307,312,300,314,1
307,314,300,313,1
307,316,301,312,1
308,317,303,311,1
309,317,304,311,1
310,317,305,311,1
313,317,305,310,1
315,314,305,310,1
313,309,304,309,1
309,305,304,308,1
306,300,304,306,1
304,294,304,306,1
302,289,303,306,1
301,285,302,307,1
299,285,301,307,1
299,289,300,307,1
299,294,300,308,1
301,300,301,309,1
304,306,303,310,1
306,311,306,313,1
309,315,308,315,1
310,318,310,317,1
311,318,310,316,1
310,316,309,315,1
308,314,309,314,1
307,313,309,314,1
306,312,309,314,1
307,310,309,313,1
308,311,309,311,1
307,313,308,309,1
302,314,307,307,1
296,315,306,305,1
293,317,306,303,1
294,318,307,301,1
294,317,307,300,1
294,315,306,298,1
294,312,306,297,1
293,310,304,297,1
295,308,304,297,1
298,308,306,298,1
301,307,308,299,1
303,305,310,301,1
304,304,310,303,1
304,303,309,304,1
304,303,307,307,1
304,303,306,309,1
303,304,305,312,1
303,305,304,314,1
304,306,304,315,1
306,309,305,315,1
306,311,305,315,1
307,313,304,315,1
307,313,304,315,1
308,312,304,315,1
309,310,303,315,1
309,307,303,316,1
309,306,303,316,1
308,306,304,315,1
308,308,306,314,1
307,307,308,313,1
306,302,309,312,1
305,296,309,310,1
304,293,309,308,1
304,293,310,307,1
304,297,311,306,1
304,304,312,306,1
305,311,312,307,1
306,316,311,307,1
306,318,310,307,1
305,317,309,307,1
305,314,307,306,1
304,310,306,306,1
304,307,306,305,1
304,305,306,306,1
303,306,306,306,1
303,308,306,304,1
302,309,304,303,1
300,307,303,302,1
298,304,302,302,1
297,303,302,303,1
297,303,303,305,1
298,305,304,307,1
301,308,304,310,1
304,310,304,312,1
307,311,304,312,1
308,313,304,311,1
308,316,305,311,1
308,315,307,311,1
306,310,309,310,1
304,305,309,309,1
302,302,309,308,1
300,302,307,307,1
300,305,306,306,1
303,309,306,305,1
306,314,305,303,1
309,316,306,302,1
310,316,306,301,1
311,313,305,299,1
310,308,304,297,1
308,304,303,296,1
307,301,302,295,1
306,301,302,295,1
307,301,305,295,1
307,302,306,296,1
307,300,306,296,1
307,298,306,297,1
308,297,306,298,1
312,299,308,299,1
317,302,311,301,1
319,304,312,304,1
318,306,312,306,1
313,307,311,309,1
309,308,310,312,1
307,312,309,315,1
305,314,309,318,1
304,316,309,320,1
303,316,309,322,1
303,315,310,323,1
302,315,309,324,1
301,314,308,323,1
298,312,307,321,1
297,310,306,319,1
296,307,307,316,1
296,304,307,313,1
297,301,306,312,1
300,299,306,310,1
302,298,305,307,1
303,295,303,305,1
303,292,302,305,1
303,292,302,305,1
303,293,303,305,1
304,295,304,304,1
304,295,305,303,1
304,298,307,303,1
304,302,311,305,1
304,307,313,308,1
304,310,313,311,1
302,312,312,313,1
300,314,311,315,1
301,314,310,316,1
302,314,309,316,1
304,314,308,316,1
307,313,307,315,1
308,310,306,313,1
309,307,306,310,1
309,304,305,309,1
309,301,304,307,1
309,301,305,305,1
310,302,305,305,1
312,303,305,306,1
313,304,305,306,1
311,305,304,306,1
307,306,304,306,1
303,306,305,305,1
300,307,306,305,1
296,306,305,303,1
292,303,303,302,1
289,298,299,300,1
290,292,297,299,1
292,289,296,299,1
293,290,297,301,1
296,294,298,304,1
300,299,299,307,1
304,304,301,308,1
309,309,301,308,1
314,314,302,307,1
318,319,304,306,1
319,322,307,306,1
319,323,311,307,1
317,321,313,308,1
314,316,312,309,1
310,311,309,310,1
308,307,305,311,1
305,305,303,311,1
305,301,301,312,1
304,297,302,313,1
304,295,303,313,1
304,296,303,313,1
305,300,303,312,1
305,306,304,311,1
306,311,305,310,1
307,316,304,310,1
309,318,303,308,1
309,319,302,306,1
310,318,303,305,1
310,317,304,303,1
309,315,306,302,1
309,313,306,301,1
310,311,306,300,1
312,310,305,301,1
314,309,305,304,1
313,310,304,307,1
308,310,304,311,1
303,311,305,314,1
301,314,305,316,1
301,316,306,318,1
300,319,306,318,1
300,321,306,318,1
300,319,307,317,1
299,313,306,314,1
299,306,304,311,1
298,300,301,308,1
299,296,299,305,1
299,295,298,303,1
300,294,298,302,1
302,295,299,300,1
303,295,301,298,1
304,294,304,297,1
304,293,307,298,1
304,295,310,301,1
303,297,312,305,1
302,301,313,309,1
301,303,312,312,1
301,303,311,313,1
301,302,310,312,1
302,302,309,310,1
303,304,309,308,1
304,306,310,307,1
304,307,310,305,1
304,308,311,304,1
305,307,312,304,1
305,307,311,304,1
304,308,311,305,1
302,309,310,306,1
298,307,309,308,1
296,306,307,308,1
295,308,306,309,1
296,310,305,309,1
298,312,305,307,1
301,314,306,307,1
304,315,306,307,1
305,314,306,308,1
305,310,305,309,1
305,306,306,309,1
306,305,307,311,1
305,306,309,312,1
305,307,310,314,1
305,309,311,316,1
306,311,310,317,1
307,313,309,317,1
308,317,308,317,1
310,319,308,317,1
310,317,309,317,1
309,311,310,315,1
308,303,312,312,1
307,297,312,309,1
307,293,311,307,1
307,291,310,305,1
308,290,310,303,1
307,292,310,303,1
306,295,313,303,1
305,300,317,305,1
306,307,320,308,1
307,313,320,309,1
308,316,317,310,1
307,315,313,310,1
305,311,310,309,1
304,306,308,307,1
303,302,307,306,1
302,300,306,305,1
303,300,305,305,1
303,302,306,306,1
304,306,307,306,1
305,309,308,306,1
304,310,308,305,1
302,310,309,306,1
301,310,310,307,1
303,310,310,308,1
305,309,309,308,1
307,308,308,308,1
308,307,306,308,1
308,305,305,308,1
307,305,305,308,1
306,304,306,306,1
305,304,307,304,1
304,302,307,301,1
304,302,307,298,1
304,301,306,296,1
303,300,305,294,1
303,298,303,293,1
302,297,302,292,1
302,296,301,292,1
302,297,301,292,1
302,299,301,293,1
302,301,302,294,1
303,303,304,297,1
304,304,304,301,1
306,302,304,304,1
309,300,303,306,1
312,298,302,307,1
311,296,301,307,1
310,297,299,307,1
309,301,299,308,1
312,305,299,308,1
316,306,301,309,1
319,306,302,310,1
318,305,303,309,1
316,306,303,309,1
315,307,304,308,1
314,308,304,308,1
312,308,303,307,1
308,306,303,307,1
305,306,304,307,1
303,307,305,306,1
303,308,305,305,1
304,306,304,303,1
304,303,303,301,1
304,300,302,299,1
304,299,302,299,1
303,298,301,300,1
303,299,301,302,1
303,304,302,304,1
303,311,304,306,1
303,316,306,306,1
302,317,306,305,1
301,316,306,303,1
299,315,305,301,1
298,315,305,298,1
297,316,306,295,1
296,317,306,294,1
296,318,305,293,1
298,318,304,294,1
301,316,303,296,1
303,313,304,300,1
307,309,304,303,1
309,306,304,307,1
311,305,305,310,1
312,305,306,313,1
312,305,307,316,1
311,306,308,317,1
310,307,308,317,1
309,306,307,317,1
307,305,307,317,1
307,304,308,317,1
306,304,308,315,1
305,304,308,314,1
304,304,307,312,1
305,304,307,310,1
306,303,306,307,1
305,302,305,305,1
304,302,304,304,1
305,307,304,303,1
307,312,304,302,1
308,316,305,301,1
308,317,307,302,1
307,317,309,303,1
305,316,309,305,1
303,315,307,307,1
301,314,305,308,1
301,313,303,310,1
303,311,303,310,1
305,307,304,311,1
305,305,308,311,1
304,304,311,312,1
303,306,312,312,1
302,308,312,312,1
303,310,311,312,1
305,312,312,313,1
309,315,311,313,1
312,317,311,312,1
313,318,310,310,1
314,317,308,307,1
313,314,306,304,1
313,310,305,302,1
313,303,304,302,1
311,296,303,301,1
309,289,301,301,1
307,289,301,301,1
305,292,301,303,1
304,297,303,305,1
303,300,305,307,1
303,302,306,310,1
304,302,305,311,1
304,304,305,312,1
304,305,304,312,1
305,307,303,313,1
306,308,303,313,1
307,309,302,312,1
307,311,302,311,1
307,313,302,310,1
308,316,302,308,1
307,319,302,306,1
306,320,302,306,1
305,319,303,307,1
304,318,304,308,1
303,318,307,309,1
303,318,309,310,1
303,319,310,309,1
304,318,308,308,1
304,318,307,307,1
304,319,304,306,1
304,320,302,303,1
303,321,302,301,1
303,322,302,300,1
303,320,304,300,1
303,314,305,300,1
304,307,306,300,1
305,302,305,302,1
306,301,303,303,1
307,303,302,304,1
309,306,302,305,1
310,309,302,305,1
307,311,302,304,1
302,311,302,302,1
298,310,303,300,1
297,309,304,299,1
297,307,305,298,1
296,306,306,298,1
294,305,306,299,1
292,306,304,301,1
290,308,302,305,1
290,310,300,308,1
293,312,300,311,1
296,313,301,313,1
301,314,303,314,1
303,312,305,316,1
305,310,306,316,1
306,307,307,316,1
307,306,307,316,1
308,305,307,316,1
307,305,307,317,1
306,304,308,318,1
306,303,309,319,1
307,302,311,320,1
310,300,311,319,1
312,299,312,319,1
314,299,312,317,1
315,300,312,316,1
315,302,312,315,1
313,303,312,315,1
309,305,311,315,1
306,307,310,312,1
304,308,308,308,1
304,308,307,305,1
304,306,305,302,1
305,304,305,300,1
305,304,304,299,1
305,306,304,300,1
305,309,305,303,1
305,311,306,307,1
305,313,307,310,1
305,315,307,312,1
305,315,307,313,1
303,315,306,313,1
300,313,306,312,1
297,312,307,311,1
296,310,308,310,1
295,306,309,309,1
295,300,310,307,1
297,291,307,305,1
301,286,303,303,1
304,286,301,303,1
307,293,299,304,1
310,303,299,305,1
312,310,300,306,1
312,314,301,307,1
312,315,301,307,1
309,318,302,308,1
307,320,302,308,1
303,320,302,308,1
298,317,302,307,1
296,316,302,308,1
296,316,304,309,1
298,317,306,310,1
299,316,306,310,1
302,316,305,309,1
304,316,303,308,1
307,317,303,307,1
309,318,304,307,1
310,317,306,306,1
311,316,307,306,1
312,314,306,306,1
311,311,304,305,1
310,308,303,304,1
309,305,304,304,1
309,304,305,306,1
309,305,306,308,1
309,307,307,311,1
309,309,308,313,1
309,311,309,314,1
310,313,310,314,1
310,314,310,315,1
310,314,310,315,1
309,312,310,315,1
308,309,309,315,1
307,305,309,314,1
306,301,308,312,1
304,298,306,311,1
303,300,305,310,1
303,303,305,310,1
302,307,305,310,1
300,310,305,310,1
299,313,305,308,1
300,313,304,307,1
302,310,304,304,1
304,308,306,303,1
305,307,310,303,1
304,308,313,303,1
298,308,313,304,1
293,306,312,304,1
292,305,311,305,1
294,304,310,306,1
298,305,309,308,1
303,306,308,309,1
305,308,308,310,1
306,307,308,310,1
306,305,307,310,1
306,304,307,310,1
305,304,308,310,1
306,307,308,311,1
307,311,308,311,1
307,312,307,311,1
307,309,305,309,1
306,306,304,307,1
306,304,303,306,1
305,304,302,304,1
306,304,303,304,1
307,303,304,303,1
307,303,305,302,1
308,303,305,302,1
308,305,305,302,1
308,307,306,304,1
308,308,308,305,1
309,307,311,307,1
309,306,313,307,1
308,306,315,308,1
307,307,315,311,1
306,306,314,313,1
305,305,313,315,1
304,304,312,316,1
303,304,310,317,1
303,305,310,316,1
305,308,309,316,1
308,312,309,314,1
309,314,309,312,1
310,314,308,310,1
310,313,306,307,1
310,311,305,304,1
310,308,303,300,1
309,307,303,296,1
308,308,303,296,1
308,308,305,296,1
308,310,306,298,1
308,313,307,300,1
306,315,308,301,1
304,316,308,302,1
303,317,308,303,1
303,316,308,305,1
303,315,308,308,1
304,314,308,311,1
304,313,309,313,1
303,310,309,314,1
300,305,310,315,1
298,299,311,316,1
295,295,312,317,1
294,293,313,317,1
295,294,313,316,1
296,299,313,315,1
300,304,313,314,1
303,308,314,313,1
305,311,314,313,1
306,315,313,313,1
307,317,311,312,1
307,318,309,311,1
306,319,308,310,1
306,319,310,310,1
307,318,313,311,1
308,317,315,312,1
309,315,316,312,1
310,313,315,312,1
310,312,313,311,1
310,311,310,308,1
310,310,307,305,1
310,310,306,303,1
309,310,305,301,1
308,309,304,300,1
307,308,304,299,1
306,308,303,298,1
305,307,302,298,1
305,306,302,297,1
304,304,301,296,1
304,303,301,296,1
304,303,303,297,1
305,304,305,298,1
305,305,308,300,1
305,305,308,303,1
306,306,309,305,1
305,306,310,308,1
304,307,312,311,1
303,308,312,314,1
303,309,312,317,1
303,309,311,319,1
303,309,310,320,1
304,308,310,320,1
304,307,310,320,1
305,307,310,320,1
304,306,309,319,1
303,305,309,319,1
303,304,308,317,1
303,303,307,316,1
303,302,306,313,1
303,302,306,311,1
304,303,307,309,1
306,304,306,306,1
304,304,305,304,1
303,303,303,303,1
304,301,302,303,1
305,296,303,305,1
305,289,304,309,1
304,283,305,313,1
303,279,305,317,1
302,280,304,319,1
301,286,304,321,1
299,294,304,320,1
297,303,304,319,1
294,308,304,317,1
291,307,302,314,1
289,302,301,311,1
291,297,302,308,1
297,294,305,306,1
303,297,309,305,1
308,303,311,304,1
312,310,311,303,1
313,316,311,302,1
314,320,309,300,1
313,321,308,299,1
313,321,305,300,1
312,320,304,302,1
312,318,303,304,1
311,316,304,307,1
310,316,305,311,1
309,316,308,315,1
309,316,311,318,1
309,316,314,321,1
309,315,316,323,1
309,314,315,323,1
309,312,313,323,1
309,309,312,322,1
309,306,310,320,1
309,304,309,317,1
309,302,308,314,1
308,298,309,312,1
307,295,309,310,1
307,291,311,310,1
308,291,311,310,1
308,294,309,310,1
308,299,308,309,1
308,306,307,308,1
309,312,306,306,1
308,315,305,303,1
309,318,304,302,1
309,317,304,301,1
310,317,304,301,1
312,316,304,302,1
314,314,303,303,1
315,312,302,304,1
316,311,301,305,1
318,311,300,305,1
318,312,299,304,1
315,313,298,303,1
309,312,297,302,1
305,309,298,302,1
302,306,300,303,1
301,304,302,303,1
300,303,304,304,1
299,303,306,305,1
300,303,305,307,1
302,304,303,308,1
305,305,302,310,1
308,305,301,311,1
310,304,301,313,1
310,304,302,314,1
310,303,303,315,1
309,302,304,314,1
309,302,303,314,1
309,302,303,313,1
307,302,302,313,1
305,301,301,313,1
304,301,299,312,1
302,300,297,312,1
301,298,296,311,1
300,296,297,310,1
302,297,299,310,1
305,301,301,311,1
308,305,303,312,1
311,308,304,313,1
313,308,304,315,1
313,306,305,316,1
313,302,304,317,1
312,295,303,317,1
311,290,302,316,1
307,288,301,316,1
303,288,301,314,1
301,289,301,313,1
302,289,301,312,1
305,288,300,311,1
308,285,300,309,1
309,284,299,308,1
307,288,299,306,1
306,296,299,303,1
305,303,300,300,1
302,310,301,298,1
300,314,301,298,1
300,318,303,299,1
303,320,304,299,1
307,323,306,301,1
310,326,308,301,1
310,327,308,300,1
310,327,306,300,1
308,326,304,302,1
306,323,304,302,1
303,319,306,304,1
301,313,307,305,1
300,308,308,306,1
300,305,307,307,1
303,301,307,308,1
307,297,308,308,1
313,293,308,307,1
316,290,308,306,1
317,290,307,304,1
317,295,307,304,1
315,302,306,304,1
313,308,305,304,1
310,311,304,304,1
308,314,304,303,1
306,315,303,302,1
304,315,304,301,1
302,314,304,300,1
302,310,306,299,1
301,304,307,298,1
301,300,309,297,1
302,299,310,297,1
303,300,310,297,1
302,302,307,296,1
300,305,304,298,1
299,307,302,300,1
298,309,300,302,1
297,311,299,305,1
297,312,300,307,1
298,315,303,308,1
300,317,306,309,1
303,319,307,307,1
307,320,307,306,1
310,322,306,304,1
312,324,305,302,1
314,324,305,299,1
315,322,304,296,1
316,316,304,293,1
315,310,304,292,1
314,306,305,293,1
314,304,307,295,1
313,304,308,299,1
312,302,308,304,1
311,300,308,309,1
312,297,309,314,1
312,297,312,317,1
312,302,314,320,1
311,308,315,321,1
311,314,314,320,1
311,316,312,319,1
311,316,310,318,1
312,315,310,317,1
312,311,310,317,1
311,308,309,317,1
311,306,308,316,1
309,303,308,316,1
307,300,307,316,1
304,295,305,316,1
301,292,303,316,1
299,293,302,316,1
299,298,301,315,1
301,304,301,314,1
303,310,301,311,1
306,312,300,309,1
305,313,300,306,1
302,313,299,304,1
300,312,299,303,1
299,311,301,303,1
301,310,302,304,1
305,309,303,305,1
308,310,304,307,1
310,309,304,308,1
310,307,303,309,1
306,305,302,310,1
303,303,303,309,1
304,302,305,307,1
306,303,306,306,1
308,304,307,304,1
309,304,308,303,1
310,305,309,302,1
311,305,308,302,1
312,305,307,301,1
312,302,305,301,1
311,298,303,300,1
309,294,303,300,1
308,292,303,301,1
306,292,305,301,1
306,295,307,302,1
306,298,309,303,1
306,301,309,302,1
306,303,308,302,1
306,305,309,301,1
305,305,310,301,1
305,306,311,301,1
304,306,312,301,1
304,307,312,301,1
302,307,312,302,1
300,306,312,303,1
298,305,311,305,1
296,303,311,306,1
296,300,310,306,1
297,299,310,307,1
298,298,309,307,1
299,297,308,307,1
300,298,307,307,1
301,301,306,308,1
303,304,306,308,1
303,308,306,306,1
304,313,305,305,1
305,319,305,303,1
307,322,304,302,1
307,322,304,300,1
306,319,304,299,1
304,316,303,297,1
304,313,302,297,1
304,311,301,296,1
306,311,301,297,1
307,311,303,299,1
310,308,304,301,1
312,302,306,304,1
314,294,306,306,1
314,288,306,308,1
311,285,306,311,1
307,285,306,313,1
304,289,306,313,1
303,293,304,313,1
302,293,303,311,1
302,293,303,309,1
301,298,303,307,1
300,307,304,306,1
300,316,304,305,1
300,320,304,304,1
299,321,304,304,1
300,320,304,304,1
302,318,305,304,1
304,317,306,305,1
306,317,308,307,1
309,321,309,309,1
310,325,309,313,1
311,326,310,315,1
312,326,309,318,1
312,323,309,318,1
312,320,308,318,1
311,317,306,318,1
309,315,304,317,1
308,314,305,317,1
306,312,306,317,1
305,311,306,315,1
304,310,305,313,1
303,309,303,311,1
303,309,300,309,1
304,310,298,308,1
304,311,297,307,1
303,311,297,307,1
302,310,298,307,1
300,308,300,307,1
298,304,301,308,1
295,301,301,309,1
292,299,301,311,1
291,299,302,313,1
293,300,303,314,1
298,302,304,312,1
304,303,305,310,1
310,303,306,307,1
313,303,306,305,1
314,304,306,303,1
314,303,305,302,1
313,301,305,302,1
314,300,306,302,1
314,298,307,302,1
315,297,309,303,1
315,295,309,304,1
311,295,307,305,1
304,295,307,307,1
299,298,307,308,1
298,302,308,310,1
298,307,310,311,1
299,312,309,311,1
301,316,308,311,1
304,316,307,310,1
305,314,307,308,1
306,311,307,307,1
307,308,307,308,1
307,305,308,308,1
307,302,309,310,1
308,296,309,311,1
307,289,308,311,1
306,284,305,310,1
305,281,303,308,1
304,281,303,307,1
304,285,303,305,1
305,290,304,304,1
305,296,305,303,1
305,302,305,302,1
305,306,303,301,1
303,308,302,299,1
302,308,301,299,1
302,307,302,299,1
303,307,304,301,1
304,308,305,302,1
305,310,305,304,1
306,312,305,307,1
307,315,306,310,1
309,319,308,312,1
309,321,309,314,1
310,322,308,315,1
311,320,307,315,1
312,317,306,316,1
312,312,305,315,1
308,304,304,313,1
301,296,303,311,1
294,293,302,310,1
293,296,302,310,1
295,303,301,311,1
299,308,302,312,1
303,310,302,313,1
305,308,305,314,1
307,304,306,315,1
308,299,308,316,1
309,298,308,317,1
310,302,308,316,1
310,309,307,315,1
311,316,306,313,1
311,320,304,312,1
312,321,302,309,1
311,319,300,307,1
309,316,301,307,1
306,313,302,309,1
304,312,304,311,1
303,313,307,313,1
303,313,309,313,1
303,312,310,311,1
302,308,311,307,1
302,306,310,305,1
303,305,310,302,1
305,305,311,301,1
307,305,311,300,1
308,305,310,301,1
309,304,310,303,1
309,302,309,304,1
308,300,308,305,1
306,301,308,306,1
304,304,307,306,1
303,307,306,305,1
302,309,305,304,1
302,310,303,302,1
302,309,300,299,1
301,307,298,295,1
301,306,297,293,1
300,306,299,293,1
301,306,301,294,1
303,307,304,297,1
305,308,306,300,1
308,309,307,305,1
309,310,308,309,1
311,312,308,313,1
311,313,308,315,1
311,312,308,314,1
311,308,307,313,1
310,301,306,311,1
309,292,305,308,1
309,283,304,305,1
310,276,304,302,1
310,273,304,299,1
309,274,303,297,1
309,281,303,297,1
310,290,303,300,1
312,300,304,303,1
312,309,306,306,1
311,315,308,309,1
309,320,308,312,1
308,322,307,313,1
308,321,306,314,1
307,321,306,314,1
306,320,306,314,1
306,317,308,315,1
307,315,310,315,1
309,312,311,316,1
312,308,313,316,1
313,303,315,316,1
312,300,316,316,1
309,297,316,316,1
305,296,316,316,1
303,296,314,315,1
302,296,313,315,1
303,297,312,315,1
305,297,312,314,1
307,299,311,314,1
310,303,311,313,1
312,309,311,312,1
312,312,310,310,1
311,311,310,308,1
310,310,309,307,1
308,309,306,305,1
307,310,304,303,1
307,310,302,303,1
307,312,302,303,1
307,312,303,304,1
307,312,303,304,1
306,311,304,303,1
305,310,305,301,1
304,309,306,299,1
302,306,306,298,1
302,305,304,297,1
301,304,303,298,1
301,303,303,299,1
298,302,304,299,1
295,303,306,300,1
296,305,308,303,1
300,309,310,307,1
303,312,310,309,1
306,314,309,310,1
308,314,308,309,1
310,313,308,308,1
312,312,308,308,1
314,310,307,307,1
316,307,306,307,1
316,303,304,307,1
316,297,303,307,1
313,290,301,307,1
307,285,300,307,1
302,285,300,307,1
300,288,302,306,1
300,292,303,304,1
301,297,303,303,1
302,299,302,301,1
302,299,302,298,1
301,299,301,297,1
302,300,301,297,1
302,302,300,297,1
302,303,300,297,1
303,302,301,299,1
303,301,302,301,1
304,301,302,304,1
306,302,303,306,1
306,304,302,305,1
307,308,302,305,1
308,312,302,304,1
308,313,302,305,1
307,312,302,306,1
307,309,302,307,1
306,307,303,309,1
306,306,303,311,1
306,305,303,313,1
305,303,303,314,1
305,301,303,313,1
304,299,302,311,1
302,298,302,309,1
299,298,302,309,1
299,300,302,309,1
299,302,303,307,1
300,305,303,306,1
302,307,302,303,1
304,306,300,301,1
305,305,298,299,1
305,304,298,299,1
305,304,299,301,1
306,303,300,304,1
305,302,303,306,1
303,301,306,307,1
300,299,307,307,1
299,299,307,308,1
298,299,306,309,1
300,301,306,310,1
303,301,307,310,1
305,300,308,310,1
306,297,308,310,1
306,299,308,310,1
307,304,307,310,1
309,309,306,310,1
310,312,305,311,1
311,313,304,312,1
311,316,305,313,1
311,318,306,314,1
312,321,307,313,1
312,322,307,312,1
313,323,307,309,1
313,321,307,307,1
313,319,308,305,1
312,315,310,304,1
311,312,310,304,1
310,309,309,305,1
309,308,308,305,1
308,307,306,306,1
306,309,307,306,1
305,310,307,307,1
305,311,307,306,1
304,312,307,306,1
303,313,307,305,1
302,314,307,305,1
301,315,307,305,1
303,316,306,305,1
305,318,305,306,1
308,318,305,307,1
310,315,305,308,1
310,308,305,307,1
307,299,306,307,1
303,290,306,307,1
300,284,306,307,1
296,280,305,306,1
292,279,303,304,1
291,280,302,303,1
291,286,301,302,1
293,293,301,301,1
293,300,301,301,1
293,305,300,300,1
292,308,300,300,1
292,310,300,301,1
293,311,302,303,1
296,313,305,305,1
301,314,306,306,1
304,313,306,306,1
305,313,305,305,1
307,310,304,305,1
308,308,304,304,1
310,306,304,303,1
311,304,303,302,1
312,302,302,301,1
310,301,301,300,1
309,301,301,299,1
308,302,302,300,1
307,302,305,301,1
307,302,307,302,1
307,302,308,303,1
306,302,309,306,1
306,303,309,309,1
306,304,309,311,1
308,305,309,313,1
309,306,308,313,1
310,307,306,313,1
311,308,306,312,1
312,310,305,312,1
311,309,306,312,1
310,307,307,312,1
309,304,308,313,1
308,302,309,314,1
306,301,310,316,1
305,300,312,318,1
304,299,314,318,1
304,300,316,318,1
306,302,317,318,1
307,304,316,319,1
307,306,314,319,1
305,304,310,318,1
302,299,308,314,1
300,291,306,310,1
298,285,304,305,1
300,281,303,301,1
303,280,303,298,1
305,286,303,298,1
306,297,304,299,1
307,308,305,301,1
308,317,306,303,1
308,323,308,305,1
308,328,309,305,1
308,329,310,305,1
308,329,310,304,1
309,328,310,303,1
309,325,309,302,1
310,321,309,301,1
311,319,309,302,1
311,317,311,304,1
311,316,311,305,1
310,315,310,306,1
308,315,309,307,1
307,313,309,308,1
304,311,310,308,1
302,308,311,308,1
301,307,311,308,1
300,309,310,309,1
299,313,309,309,1
297,316,309,309,1
297,317,308,307,1
297,315,306,306,1
300,311,305,304,1
302,305,304,303,1
304,300,305,302,1
307,295,307,302,1
307,291,308,302,1
306,289,309,303,1
305,288,310,304,1
305,287,311,305,1
305,286,313,304,1
304,288,312,303,1
304,292,311,302,1
306,299,311,302,1
308,307,310,302,1
310,312,311,303,1
313,313,311,304,1
314,312,310,305,1
313,310,309,305,1
311,308,307,305,1
310,308,306,306,1
309,309,305,306,1
308,310,304,306,1
307,310,304,306,1
305,311,306,306,1
305,312,310,307,1
306,313,314,310,1
307,313,317,312,1
308,312,316,312,1
307,307,314,312,1
306,300,311,312,1
305,294,307,311,1
305,290,303,310,1
304,290,301,310,1
303,293,301,309,1
301,297,300,308,1
301,303,300,307,1
300,307,301,308,1
301,309,303,309,1
303,310,306,309,1
305,309,308,310,1
309,305,310,310,1
311,300,312,308,1
311,292,313,306,1
311,286,312,304,1
311,284,312,304,1
312,284,311,304,1
312,287,309,304,1
312,294,308,302,1
312,301,307,301,1
312,307,306,301,1
312,310,306,301,1
312,312,306,302,1
313,316,307,304,1
313,322,307,305,1
312,325,306,305,1
309,328,306,306,1
305,330,306,306,1
303,331,307,307,1
303,330,308,308,1
304,328,309,310,1
306,324,309,312,1
310,320,309,313,1
315,317,309,313,1
317,314,310,312,1
314,313,310,311,1
310,312,312,311,1
306,313,314,310,1
304,314,314,310,1
304,311,315,311,1
303,305,315,310,1
302,300,314,310,1
302,296,313,310,1
303,295,311,309,1
303,296,310,310,1
304,299,310,312,1
306,303,311,313,1
307,306,312,315,1
308,308,313,316,1
307,309,314,318,1
307,310,314,318,1
307,310,313,318,1
307,309,312,316,1
305,308,311,314,1
304,307,312,313,1
302,306,314,313,1
300,306,315,314,1
298,307,315,315,1
299,308,314,316,1
301,309,313,315,1
304,310,311,314,1
306,310,310,312,1
308,309,309,311,1
309,305,309,310,1
311,302,308,308,1
310,299,307,305,1
307,297,307,303,1
302,298,306,302,1
299,300,306,299,1
299,302,307,298,1
301,306,309,297,1
303,309,311,297,1
304,310,312,299,1
304,311,311,301,1
304,312,310,304,1
303,312,311,307,1
302,312,312,310,1
302,311,312,314,1
301,311,311,317,1
300,310,309,318,1
300,308,306,318,1
300,307,305,318,1
301,309,306,318,1
303,311,309,318,1
305,311,312,316,1
305,309,312,314,1
304,304,309,312,1
303,298,305,311,1
304,290,303,310,1
304,281,302,311,1
302,276,302,312,1
300,276,303,313,1
299,280,304,313,1
301,291,305,314,1
304,306,307,314,1
306,320,309,314,1
307,329,312,313,1
307,333,313,312,1
306,334,314,311,1
305,334,313,310,1
303,331,312,310,1
302,325,311,310,1
302,321,311,311,1
303,318,310,313,1
304,315,310,313,1
305,311,309,313,1
307,308,308,312,1
308,305,307,309,1
307,304,306,306,1
304,307,306,305,1
300,311,306,306,1
298,314,307,306,1
297,317,308,307,1
297,318,308,307,1
299,319,309,307,1
302,320,308,307,1
306,318,307,307,1
307,315,305,306,1
307,313,303,305,1
308,314,304,305,1
308,316,305,306,1
310,319,307,306,1
311,321,308,306,1
311,321,309,307,1
312,319,310,310,1
314,317,310,312,1
318,316,310,315,1
321,315,310,317,1
325,315,310,318,1
326,314,310,318,1
324,312,310,318,1
318,309,309,316,1
312,306,308,316,1
309,304,307,315,1
306,303,307,315,1
306,304,307,315,1
306,307,308,315,1
306,308,309,314,1
306,308,310,312,1
306,308,310,310,1
307,308,309,306,1
307,307,308,303,1
307,306,306,299,1
307,305,304,297,1
306,303,303,295,1
305,302,302,293,1
303,300,302,292,1
302,297,302,291,1
301,296,303,290,1
301,297,304,292,1
302,299,304,295,1
305,302,304,299,1
307,304,304,302,1
309,305,303,304,1
311,305,301,306,1
313,305,301,307,1
312,305,302,308,1
312,305,304,309,1
311,305,306,309,1
311,304,307,310,1
311,304,309,311,1
311,304,311,313,1
312,302,311,313,1
312,299,309,313,1
311,295,307,312,1
307,291,307,311,1
304,289,307,308,1
302,287,308,306,1
301,287,310,305,1
300,290,311,306,1
300,298,310,308,1
300,305,310,311,1
300,310,310,313,1
300,312,309,314,1
300,312,307,314,1
300,313,306,313,1
300,315,304,312,1
302,316,304,311,1
304,317,304,310,1
306,317,304,307,1
306,315,304,305,1
306,315,303,303,1
307,316,303,302,1
308,318,304,302,1
309,320,304,302,1
311,320,304,303,1
313,318,304,303,1
314,313,303,303,1
313,307,302,303,1
310,302,301,305,1
306,301,300,306,1
303,302,299,306,1
302,306,299,306,1
301,310,299,306,1
302,313,301,306,1
303,314,304,306,1
305,313,308,306,1
305,312,309,306,1
304,310,309,306,1
302,309,308,307,1
301,309,309,308,1
299,307,310,310,1
297,303,310,312,1
295,299,310,313,1
292,296,311,313,1
289,295,310,313,1
291,297,311,313,1
298,301,313,314,1
307,307,313,313,1
316,313,312,313,1
322,316,310,312,1
323,316,307,310,1
320,313,303,307,1
314,308,301,304,1
310,305,300,301,1
310,304,300,298,1
313,304,301,296,1
316,306,303,296,1
318,310,304,297,1
316,314,304,299,1
314,316,305,301,1
312,316,305,303,1
310,314,304,302,1
308,313,303,301,1
306,313,303,299,1
305,313,303,296,1
305,313,303,294,1
305,312,304,293,1
305,310,304,294,1
305,308,305,294,1
304,307,305,297,1
304,306,305,301,1
305,307,306,304,1
307,307,307,308,1
309,308,307,310,1
310,308,308,312,1
311,308,308,312,1
312,308,308,310,1
310,307,308,308,1
307,306,307,306,1
303,304,307,305,1
300,301,307,305,1
298,299,308,305,1
298,298,309,305,1
299,296,309,305,1
301,294,309,304,1
304,288,310,303,1
307,280,309,302,1
309,274,308,301,1
311,275,306,303,1
315,285,306,307,1
320,299,306,312,1
320,311,306,316,1
317,317,304,317,1
313,320,303,316,1
310,320,302,314,1
307,318,303,312,1
305,319,304,309,1
304,321,307,308,1
305,325,309,308,1
307,327,310,308,1
307,327,310,307,1
306,326,310,308,1
306,323,310,308,1
306,321,311,309,1
306,318,312,309,1
306,316,314,309,1
305,313,315,310,1
306,310,314,308,1
306,308,313,307,1
307,307,312,306,1
309,308,312,306,1
310,309,311,307,1
310,310,310,307,1
307,310,309,308,1
304,309,309,309,1
303,305,310,311,1
301,299,312,314,1
300,293,312,317,1
299,288,312,319,1
299,286,312,320,1
300,288,311,320,1
301,293,310,319,1
303,299,308,318,1
305,303,306,316,1
306,305,304,315,1
308,305,303,315,1
308,304,304,314,1
309,304,305,313,1
311,305,306,313,1
314,307,306,311,1
318,308,306,309,1
320,310,306,307,1
322,311,307,305,1
319,311,308,304,1
314,310,309,303,1
311,308,309,303,1
310,307,308,305,1
310,305,307,307,1
310,304,306,308,1
312,303,306,310,1
312,302,306,312,1
312,302,306,313,1
311,302,306,313,1
310,301,306,311,1
310,300,306,309,1
310,302,307,307,1
311,303,308,305,1
312,302,309,305,1
312,300,308,304,1
310,296,308,303,1
309,293,307,303,1
307,290,306,302,1
306,288,305,302,1
306,288,306,300,1
306,289,307,298,1
305,290,307,297,1
304,293,306,296,1
302,298,305,296,1
301,301,305,298,1
300,302,307,300,1
299,304,309,302,1
299,308,310,305,1
300,312,309,307,1
302,316,308,309,1
303,315,307,309,1
303,311,305,309,1
305,304,305,308,1
307,299,305,307,1
308,299,306,308,1
308,303,307,310,1
309,307,309,312,1
309,311,311,313,1
310,314,310,315,1
311,314,309,314,1
311,314,309,313,1
312,313,309,312,1
313,311,310,312,1
314,309,310,312,1
316,308,310,312,1
316,307,309,311,1
316,307,308,311,1
312,308,308,310,1
306,311,309,309,1
302,313,311,310,1
299,314,313,310,1
298,313,314,310,1
297,311,313,310,1
298,309,312,309,1
298,305,313,309,1
298,301,313,310,1
298,296,311,311,1
296,293,308,311,1
294,292,304,312,1
292,294,301,312,1
293,299,300,311,1
295,304,300,310,1
297,307,301,308,1
299,308,302,307,1
302,308,305,307,1
304,309,306,306,1
305,311,306,304,1
306,313,305,302,1
305,313,303,300,1
304,314,302,298,1
301,314,300,298,1
298,313,299,297,1
294,311,298,295,1
291,309,298,294,1
290,308,300,293,1
291,308,302,293,1
295,309,305,295,1
301,310,307,298,1
307,310,310,301,1
314,311,311,304,1
319,311,312,307,1
321,310,311,309,1
319,310,310,311,1
315,310,308,313,1
313,310,307,313,1
311,310,306,314,1
311,309,305,314,1
311,310,305,313,1
312,311,305,312,1
312,312,305,310,1
311,312,304,309,1
310,310,303,307,1
309,308,303,305,1
309,305,304,304,1
310,301,306,306,1
310,296,308,308,1
310,290,310,309,1
308,284,311,309,1
305,278,311,307,1
301,274,310,304,1
299,275,311,302,1
298,282,311,300,1
300,295,313,300,1
305,307,313,300,1
309,315,312,300,1
312,314,310,300,1
313,309,308,301,1
314,306,308,303,1
314,305,308,305,1
313,305,308,306,1
312,307,307,306,1
311,307,306,306,1
310,308,306,307,1
311,307,308,307,1
311,306,310,307,1
310,304,311,308,1
309,304,311,310,1
307,304,310,309,1
306,305,308,308,1
305,307,307,308,1
306,309,308,307,1
306,308,308,306,1
305,306,309,306,1
304,305,308,307,1
304,307,308,310,1
307,311,307,313,1
311,315,307,315,1
315,317,306,315,1
316,316,306,315,1
314,313,306,314,1
312,308,306,313,1
310,304,305,311,1
307,301,302,310,1
305,300,300,308,1
304,300,298,307,1
304,301,297,307,1
308,303,298,308,1
311,304,301,309,1
311,305,303,308,1
307,305,304,307,1
300,306,305,306,1
295,307,305,305,1
293,308,304,304,1
293,308,303,304,1
296,307,302,304,1
301,306,301,303,1
306,304,301,302,1
308,302,301,302,1
306,300,301,302,1
304,296,301,303,1
303,292,301,305,1
304,291,301,307,1
304,293,302,309,1
305,296,303,312,1
307,299,306,315,1
308,303,309,317,1
310,306,312,318,1
310,308,313,317,1
311,309,312,315,1
311,310,311,313,1
311,312,309,312,1
310,314,308,311,1
306,314,306,309,1
304,314,305,308,1
303,311,305,307,1
302,308,305,304,1
302,305,305,302,1
302,301,305,302,1
302,295,306,302,1
301,288,306,302,1
299,283,306,301,1
299,284,305,300,1
299,290,305,300,1
299,297,306,301,1
299,302,306,301,1
300,304,306,302,1
302,304,305,301,1
304,307,305,300,1
306,311,304,299,1
307,315,302,297,1
306,317,300,295,1
305,317,299,295,1
304,315,299,296,1
305,311,299,298,1
306,305,298,300,1
306,301,298,300,1
305,299,298,300,1
305,299,298,300,1
306,300,298,302,1
308,303,299,304,1
309,307,300,305,1
311,312,302,306,1
312,315,304,306,1
312,317,307,306,1
312,319,308,307,1
311,322,308,308,1
310,324,307,309,1
309,326,306,310,1
308,327,306,311,1
307,329,306,311,1
307,329,306,311,1
307,327,305,310,1
308,324,304,309,1
310,320,304,309,1
311,316,304,309,1
311,312,304,310,1
310,309,304,311,1
308,308,303,312,1
306,306,302,313,1
304,305,301,312,1
303,303,300,312,1
302,302,300,311,1
301,302,300,310,1
301,302,301,309,1
303,302,303,308,1
306,303,304,308,1
309,305,304,308,1
312,306,304,309,1
311,306,303,309,1
309,302,303,310,1
307,296,303,310,1
306,289,304,311,1
306,283,304,312,1
307,279,305,311,1
309,278,305,310,1
310,280,304,309,1
307,286,303,308,1
304,293,302,307,1
302,298,302,308,1
302,303,302,307,1
304,306,302,307,1
304,310,301,307,1
303,316,300,306,1
303,322,301,307,1
303,326,301,307,1
304,324,301,306,1
305,319,301,304,1
306,312,301,301,1
306,307,301,300,1
306,305,303,301,1
304,303,304,302,1
303,300,306,303,1
301,297,309,305,1
300,291,311,307,1
299,287,312,308,1
299,287,311,309,1
300,290,308,311,1
301,293,307,312,1
301,296,308,313,1
301,301,310,315,1
303,306,315,317,1
305,311,318,319,1
307,314,319,320,1
309,316,318,319,1
310,317,315,318,1
307,315,311,316,1
302,313,308,314,1
299,310,306,313,1
300,308,305,311,1
304,309,306,311,1
310,312,306,313,1
315,316,307,315,1
320,320,308,316,1
321,321,308,315,1
317,320,307,312,1
312,319,307,309,1
308,318,306,306,1
305,318,305,303,1
304,317,304,302,1
303,316,304,300,1
302,314,304,299,1
301,313,306,300,1
300,312,309,302,1
299,312,311,305,1
300,313,312,308,1
301,313,313,311,1
301,313,313,313,1
302,313,313,315,1
303,314,313,317,1
304,315,312,318,1
305,316,311,319,1
304,316,311,320,1
304,317,309,320,1
303,317,308,321,1
302,317,307,321,1
302,317,305,321,1
302,316,303,320,1
303,315,302,318,1
303,313,302,315,1
304,309,304,312,1
303,302,305,310,1
302,294,307,307,1
301,287,307,305,1
300,283,307,302,1
299,284,306,301,1
300,290,307,301,1
302,300,308,302,1
304,308,309,303,1
306,314,309,303,1
307,318,309,304,1
308,319,309,307,1
308,318,310,308,1
307,317,310,309,1
306,318,309,311,1
305,318,309,312,1
305,319,309,313,1
306,319,309,313,1
308,316,307,311,1
311,313,306,308,1
313,311,304,305,1
313,311,303,303,1
311,313,302,302,1
309,315,301,301,1
306,315,301,299,1
304,312,300,298,1
302,309,302,298,1
302,307,304,297,1
302,306,307,298,1
303,305,310,299,1
305,304,310,301,1
306,303,310,303,1
307,302,309,305,1
307,300,309,306,1
307,299,308,307,1
307,296,307,309,1
306,292,306,307,1
305,291,305,306,1
304,295,304,305,1
303,301,303,304,1
300,306,302,303,1
297,309,302,304,1
295,310,302,307,1
294,311,302,309,1
294,310,303,312,1
293,309,303,313,1
293,308,302,313,1
294,307,301,313,1
296,308,301,313,1
297,309,303,314,1
297,309,306,315,1
297,306,307,315,1
298,299,308,313,1
298,290,307,310,1
299,284,305,305,1
300,284,304,300,1
301,287,303,296,1
301,294,304,295,1
302,302,304,296,1
303,309,305,299,1
303,312,305,301,1
303,313,306,304,1
303,313,307,306,1
304,312,308,308,1
303,312,308,310,1
304,311,309,313,1
303,310,310,315,1
303,310,309,316,1
303,310,308,315,1
302,312,308,315,1
302,313,307,313,1
301,315,307,311,1
299,317,307,309,1
297,318,305,309,1
296,318,304,309,1
295,318,302,310,1
294,316,301,310,1
293,313,298,310,1
290,309,297,308,1
286,305,295,307,1
282,301,294,307,1
279,297,293,306,1
278,297,294,305,1
281,299,296,305,1
290,301,299,303,1
297,304,302,301,1
301,306,303,299,1
299,305,302,297,1
296,305,302,297,1
295,306,302,298,1
296,307,303,300,1
298,309,305,301,1
300,311,307,304,1
302,313,310,307,1
305,313,311,311,1
307,311,313,316,1
308,307,313,319,1
308,304,311,320,1
308,304,309,319,1
308,304,308,317,1
309,304,308,315,1
312,302,309,314,1
315,299,310,314,1
317,297,310,314,1
315,297,309,314,1
309,300,307,314,1
305,305,305,314,1
303,308,305,315,1
304,311,305,315,1
305,314,305,315,1
308,316,305,315,1
309,317,305,314,1
309,316,305,313,1
310,314,304,312,1
310,312,303,312,1
310,310,302,311,1
309,308,303,311,1
308,306,303,310,1
307,303,303,311,1
305,302,304,312,1
304,302,304,313,1
303,301,305,313,1
304,300,306,313,1
305,298,307,313,1
306,297,308,313,1
306,297,309,313,1
306,297,310,314,1
306,299,310,316,1
305,302,309,317,1
303,305,308,317,1
301,307,307,317,1
300,306,306,315,1
300,305,304,313,1
301,302,304,310,1
303,300,304,307,1
304,298,305,305,1
303,297,306,304,1
301,296,305,304,1
298,295,302,305,1
296,292,300,307,1
295,289,297,309,1
296,287,296,310,1
297,286,295,311,1
298,287,295,311,1
299,288,296,312,1
301,291,297,311,1
302,297,299,311,1
305,303,300,310,1
307,307,302,308,1
310,310,303,306,1
311,311,304,304,1
310,310,305,302,1
308,309,305,299,1
305,307,305,297,1
302,305,305,297,1
301,303,306,297,1
301,302,307,297,1
301,301,306,297,1
301,301,305,298,1
302,302,304,299,1
302,303,304,301,1
303,307,304,304,1
304,309,304,308,1
305,308,304,312,1
306,304,302,314,1
306,299,302,315,1
304,296,301,315,1
302,296,301,314,1
300,301,301,313,1
300,310,304,313,1
301,318,308,312,1
303,323,310,312,1
304,322,310,311,1
305,318,309,309,1
306,312,308,307,1
306,308,308,306,1
306,305,308,304,1
307,303,308,304,1
310,303,307,305,1
312,304,305,306,1
313,306,304,308,1
314,308,304,309,1
313,310,303,309,1
312,311,303,310,1
310,312,302,311,1
309,311,302,313,1
307,308,303,314,1
304,306,303,315,1
302,303,303,316,1
300,302,304,315,1
299,302,304,316,1
300,302,305,316,1
302,301,304,316,1
303,298,304,314,1
303,297,303,312,1
302,297,302,310,1
301,300,302,308,1
303,302,301,305,1
306,304,301,303,1
310,306,302,300,1
313,308,304,299,1
316,309,305,298,1
317,310,306,297,1
316,311,306,299,1
312,312,306,302,1
308,313,307,304,1
308,314,308,306,1
309,316,310,306,1
312,316,310,306,1
315,316,310,305,1
316,313,310,304,1
316,311,310,304,1
316,310,311,304,1
317,311,310,304,1
316,313,309,305,1
315,314,307,305,1
313,314,305,305,1
311,314,303,306,1
309,314,302,305,1
308,314,302,305,1
306,313,304,305,1
304,311,305,306,1
302,305,306,306,1
302,299,306,306,1
302,293,307,307,1
304,289,307,307,1
308,289,307,306,1
314,292,307,305,1
319,294,307,304,1
320,298,305,303,1
316,305,304,301,1
309,312,302,300,1
304,318,300,298,1
301,319,300,298,1
299,318,299,298,1
299,316,299,298,1
301,313,299,296,1
303,312,299,295,1
304,311,300,293,1
305,310,301,292,1
306,310,301,292,1
307,311,301,292,1
306,312,301,293,1
305,313,300,294,1
304,314,300,295,1
302,313,302,296,1
302,313,304,296,1
303,313,309,297,1
305,313,314,298,1
307,313,316,299,1
308,313,315,302,1
308,313,313,303,1
308,314,310,305,1
309,315,307,306,1
310,315,306,309,1
311,316,306,311,1
311,316,307,313,1
311,315,307,314,1
309,314,309,315,1
306,313,311,316,1
303,312,311,315,1
300,309,311,314,1
297,307,309,313,1
293,308,307,313,1
292,304,306,312,1
292,297,306,312,1
293,285,306,310,1
293,274,305,308,1
294,267,304,304,1
297,269,304,303,1
302,278,304,303,1
308,289,306,303,1
311,298,306,303,1
312,305,307,305,1
312,311,308,307,1
312,314,308,309,1
312,317,308,309,1
312,318,308,307,1
312,318,306,305,1
312,319,305,302,1
312,320,303,300,1
312,319,303,299,1
313,317,302,298,1
313,316,303,298,1
312,316,304,298,1
312,317,307,299,1
311,319,309,301,1
311,320,310,302,1
310,319,310,304,1
310,318,310,305,1
310,318,310,307,1
310,317,310,309,1
310,317,310,311,1
310,318,311,314,1
312,322,312,316,1
313,325,312,317,1
313,326,312,317,1
313,322,312,316,1
312,316,312,315,1
311,311,311,313,1
308,306,309,311,1
306,303,308,309,1
303,301,306,307,1
300,300,305,306,1
299,300,307,307,1
299,300,309,309,1
300,299,311,310,1
302,299,312,311,1
304,300,312,311,1
306,299,312,311,1
304,298,311,310,1
301,296,310,309,1
299,296,310,308,1
298,297,311,307,1
298,299,311,306,1
299,302,311,305,1
299,303,309,305,1
301,303,307,303,1
303,303,306,302,1
304,302,304,300,1
304,302,303,299,1
304,303,302,298,1
304,305,303,298,1
305,307,307,301,1
308,310,313,305,1
309,313,316,309,1
309,314,317,314,1
308,316,316,316,1
308,314,313,317,1
308,312,311,316,1
309,309,309,315,1
309,306,308,314,1
310,303,307,311,1
309,300,306,308,1
309,299,305,305,1
308,298,305,302,1
307,299,305,300,1
306,299,304,299,1
305,300,305,298,1
304,301,307,299,1
303,301,311,300,1
302,300,314,301,1
301,299,315,302,1
302,299,315,301,1
304,300,312,301,1
306,301,311,301,1
309,303,309,301,1
310,305,308,303,1
311,307,307,305,1
306,309,306,308,1
297,311,306,311,1
287,313,305,314,1
282,315,304,317,1
282,317,304,318,1
286,318,305,318,1
291,318,307,317,1
298,312,309,315,1
301,304,310,313,1
304,300,311,310,1
306,299,311,307,1
307,302,311,304,1
308,307,311,303,1
309,309,310,302,1
311,306,310,303,1
311,300,310,304,1
311,296,310,305,1
310,296,310,306,1
308,298,310,306,1
307,303,309,306,1
308,307,310,306,1
308,312,310,306,1
309,315,310,306,1
309,316,309,305,1
309,317,309,305,1
308,316,308,303,1
308,316,307,303,1
307,315,306,302,1
307,315,307,301,1
307,314,307,302,1
307,313,308,303,1
308,312,310,305,1
308,311,312,307,1
309,310,313,308,1
309,310,312,308,1
309,310,311,309,1
307,310,310,309,1
305,311,310,310,1
302,312,311,311,1
301,312,311,311,1
301,312,311,311,1
302,310,308,309,1
305,308,307,307,1
309,305,306,306,1
312,302,306,305,1
312,301,306,304,1
312,299,306,304,1
312,295,305,303,1
308,292,303,301,1
303,294,302,299,1
300,300,302,297,1
300,306,303,296,1
303,310,305,296,1
303,309,307,297,1
303,305,308,298,1
302,300,310,299,1
300,297,311,301,1
297,296,310,303,1
295,298,309,306,1
293,303,309,310,1
295,308,308,314,1
298,313,308,317,1
302,316,309,318,1
305,315,309,319,1
308,313,309,318,1
310,310,309,316,1
310,306,308,314,1
310,304,307,311,1
309,303,306,309,1
309,304,305,308,1
308,307,305,308,1
307,310,305,308,1
306,311,305,310,1
307,312,306,312,1
308,314,307,312,1
309,316,306,311,1
309,319,305,308,1
309,318,304,304,1
307,314,304,301,1
305,308,304,299,1
305,303,304,298,1
305,302,305,298,1
306,304,305,298,1
307,308,305,298,1
308,313,305,298,1
308,316,304,297,1
308,317,303,297,1
309,316,302,295,1
308,314,302,295,1
308,311,303,295,1
307,309,304,297,1
306,308,305,299,1
305,306,306,301,1
303,304,307,303,1
301,303,308,304,1
299,303,309,306,1
298,304,311,307,1
300,305,312,308,1
303,305,312,309,1
304,305,312,311,1
303,306,313,312,1
300,308,313,314,1
297,311,314,315,1
297,313,314,315,1
299,315,314,316,1
302,315,312,315,1
306,314,310,315,1
307,313,309,316,1
307,312,308,316,1
305,312,309,316,1
306,312,308,316,1
307,312,307,316,1
309,312,307,314,1
311,310,307,311,1
311,306,308,309,1
311,305,309,308,1
312,305,310,307,1
312,305,309,307,1
311,305,307,307,1
310,308,305,306,1
309,308,304,306,1
310,309,304,306,1
311,312,305,306,1
312,315,307,306,1
314,316,308,305,1
316,315,306,304,1
317,312,303,302,1
318,309,300,302,1
316,306,300,302,1
313,306,301,303,1
309,308,303,303,1
308,309,305,304,1
308,309,306,304,1
308,310,307,304,1
307,311,307,305,1
308,314,308,307,1
308,318,308,308,1
309,321,307,309,1
310,321,306,309,1
310,320,306,309,1
309,319,305,309,1
308,319,305,309,1
306,320,305,308,1
305,320,304,306,1
303,318,304,305,1
303,309,304,304,1
304,299,304,304,1
305,288,304,305,1
307,281,303,304,1
307,277,302,302,1
304,278,301,299,1
299,284,301,298,1
296,294,301,297,1
296,304,302,296,1
296,313,301,296,1
297,318,300,294,1
297,320,302,294,1
299,321,304,296,1
301,321,306,299,1
303,320,308,302,1
305,319,308,305,1
307,317,309,309,1
309,314,310,312,1
312,312,311,314,1
313,311,312,313,1
313,311,313,312,1
313,312,313,311,1
312,314,311,311,1
312,315,310,311,1
311,315,309,310,1
309,314,308,310,1
308,313,308,309,1
307,311,308,309,1
305,309,307,310,1
304,309,307,311,1
303,308,308,313,1
302,308,308,314,1
302,308,308,315,1
303,308,309,316,1
304,309,309,317,1
305,310,310,317,1
305,308,310,317,1
303,306,309,316,1
300,303,308,316,1
297,301,307,316,1
296,300,306,316,1
297,300,306,317,1
300,301,305,316,1
304,301,303,314,1
306,298,302,311,1
307,294,302,309,1
307,293,302,306,1
306,296,302,305,1
305,300,302,306,1
303,304,302,306,1
302,306,302,306,1
302,306,301,306,1
303,304,301,307,1
306,300,303,309,1
310,298,305,311,1
313,298,306,312,1
314,301,307,311,1
315,304,307,310,1
314,307,308,308,1
313,309,309,308,1
312,311,309,307,1
312,315,308,306,1
311,317,307,305,1
310,317,305,302,1
310,316,303,300,1
311,315,302,298,1
312,313,300,296,1
312,312,299,296,1
311,310,298,296,1
308,306,298,298,1
306,302,298,299,1
305,299,298,302,1
304,296,297,304,1
304,294,297,305,1
305,294,296,306,1
307,296,296,306,1
310,299,297,307,1
314,302,298,307,1
317,305,299,307,1
318,305,299,305,1
314,304,299,305,1
308,301,298,305,1
303,299,298,305,1
300,297,300,306,1
300,295,303,307,1
300,293,307,308,1
301,290,309,310,1
303,288,310,310,1
305,290,309,310,1
307,296,309,311,1
309,303,307,311,1
309,309,305,310,1
308,312,303,309,1
306,312,300,308,1
303,309,298,307,1
300,304,298,307,1
298,297,298,307,1
298,292,300,307,1
298,290,301,308,1
300,294,303,308,1
304,300,305,309,1
307,306,307,309,1
309,310,307,309,1
310,311,307,308,1
310,309,306,306,1
310,308,305,304,1
311,308,304,302,1
313,307,304,300,1
316,306,303,301,1
317,304,302,302,1
315,303,302,304,1
311,304,303,305,1
308,306,304,306,1
306,307,306,306,1
306,307,308,306,1
305,305,308,306,1
304,305,308,306,1
302,307,308,306,1
302,311,309,307,1
302,314,309,307,1
303,315,310,307,1
302,313,309,307,1
300,310,309,305,1
296,307,307,305,1
294,303,305,304,1
292,300,305,304,1
292,296,305,304,1
295,291,306,305,1
297,289,306,306,1
299,287,305,306,1
300,286,305,305,1
301,284,306,304,1
301,282,305,303,1
300,284,305,302,1
300,290,305,302,1
299,299,305,302,1
300,307,303,303,1
300,313,301,304,1
302,314,300,305,1
303,314,300,307,1
305,313,300,308,1
308,312,301,309,1
312,311,303,309,1
315,311,306,309,1
317,311,308,308,1
318,311,308,307,1
319,310,307,306,1
319,309,305,304,1
316,307,303,302,1
313,304,301,300,1
311,302,301,299,1
311,298,302,297,1
310,295,302,296,1
310,294,302,296,1
309,295,302,297,1
308,298,304,299,1
308,302,306,301,1
309,305,307,303,1
310,309,308,305,1
311,311,309,307,1
311,312,309,307,1
311,311,309,306,1
310,309,309,306,1
310,306,309,305,1
310,303,308,305,1
311,301,308,304,1
312,301,306,303,1
313,302,304,301,1
314,304,302,300,1
313,305,302,301,1
310,306,301,302,1
305,305,303,303,1
302,305,303,306,1
302,305,304,308,1
301,304,305,310,1
302,303,307,312,1
302,300,308,312,1
302,298,308,310,1
300,297,308,308,1
299,301,309,307,1
298,305,309,306,1
298,308,309,305,1
298,310,310,304,1
299,310,311,304,1
301,309,310,304,1
303,307,309,304,1
303,303,308,304,1
303,299,307,304,1
303,296,307,302,1
304,295,307,300,1
304,294,306,297,1
303,295,305,294,1
301,297,304,293,1
300,301,304,292,1
300,303,303,295,1
301,305,302,298,1
303,305,303,302,1
305,304,303,305,1
307,303,304,306,1
306,301,304,306,1
303,298,305,303,1
299,298,303,301,1
298,301,302,300,1
299,306,302,300,1
300,308,304,301,1
301,308,309,303,1
303,308,312,305,1
305,306,313,307,1
307,306,311,309,1
308,307,309,310,1
308,309,307,311,1
308,313,304,311,1
308,316,303,311,1
309,316,302,310,1
308,311,301,310,1
307,304,300,310,1
304,297,300,311,1
301,293,301,313,1
298,292,301,314,1
296,292,301,314,1
295,294,301,313,1
297,298,301,311,1
302,302,301,309,1
306,304,301,307,1
307,305,301,304,1
306,304,301,303,1
304,303,301,301,1
305,303,302,301,1
306,302,304,301,1
307,302,304,302,1
308,302,305,304,1
309,302,304,305,1
310,302,304,306,1
310,303,303,307,1
310,303,303,307,1
309,304,303,306,1
310,304,302,306,1
310,305,300,304,1
310,307,298,303,1
311,308,297,304,1
311,309,296,304,1
311,310,297,305,1
312,309,299,305,1
312,306,300,306,1
313,303,302,307,1
313,303,304,308,1
314,302,305,310,1
313,301,305,312,1
312,300,304,314,1
310,301,303,313,1
308,302,303,311,1
308,303,302,309,1
307,304,301,309,1
306,304,300,309,1
306,304,300,310,1
307,303,300,310,1
307,302,300,309,1
305,302,300,307,1
303,304,300,305,1
301,307,302,303,1
301,309,303,301,1
301,307,304,300,1
301,301,303,298,1
300,295,303,297,1
300,294,301,297,1
301,300,301,297,1
303,310,302,299,1
305,319,303,303,1
308,324,305,307,1
310,324,306,310,1
310,322,306,311,1
308,321,305,312,1
308,321,304,312,1
309,322,303,311,1
310,322,302,308,1
309,322,301,306,1
307,324,300,304,1
305,324,300,303,1
305,321,300,302,1
304,316,302,302,1
304,312,304,302,1
304,312,307,302,1
304,311,309,301,1
305,313,309,300,1
306,315,307,298,1
307,315,305,296,1
307,313,303,295,1
307,310,302,296,1
307,306,303,296,1
306,303,304,297,1
304,301,306,300,1
301,302,308,304,1
299,303,309,309,1
298,305,309,311,1
297,307,306,312,1
297,310,304,312,1
298,312,302,312,1
300,312,301,313,1
302,312,302,314,1
304,311,303,316,1
303,310,304,317,1
302,310,306,318,1
300,310,308,318,1
300,310,311,318,1
299,310,312,316,1
298,309,312,314,1
298,309,312,312,1
298,310,311,311,1
298,310,311,310,1
300,309,310,310,1
303,308,309,309,1
306,306,308,309,1
309,303,308,309,1
310,302,309,309,1
312,300,309,309,1
313,300,310,308,1
315,298,311,308,1
317,296,310,308,1
318,293,310,309,1
315,292,309,311,1
311,292,309,312,1
307,293,310,313,1
306,293,310,312,1
304,293,310,312,1
302,296,309,311,1
301,298,310,311,1
300,300,310,310,1
301,300,309,309,1
302,300,307,307,1
302,299,306,306,1
302,300,305,304,1
303,303,304,304,1
303,307,304,304,1
301,310,306,303,1
300,312,307,304,1
300,315,307,306,1
300,316,308,309,1
301,318,308,312,1
301,319,308,314,1
301,321,308,317,1
301,324,309,319,1
301,326,309,319,1
300,327,308,318,1
301,327,306,316,1
301,326,306,314,1
302,324,306,312,1
301,321,305,310,1
300,319,305,309,1
300,317,306,308,1
300,313,306,308,1
298,306,305,309,1
297,300,303,310,1
297,296,302,310,1
298,294,301,311,1
301,296,301,311,1
304,303,302,311,1
307,312,304,311,1
309,321,304,310,1
311,326,304,309,1
312,325,303,308,1
312,321,303,307,1
313,317,303,308,1
313,314,303,308,1
312,312,303,309,1
311,311,302,309,1
310,312,302,308,1
310,312,302,307,1
309,312,302,305,1
309,308,302,302,1
307,303,302,300,1
307,299,301,300,1
306,299,302,301,1
306,300,302,305,1
305,302,303,310,1
305,305,304,315,1
305,308,305,319,1
306,311,307,321,1
308,314,308,321,1
310,316,308,321,1
312,317,308,321,1
313,316,308,320,1
312,314,308,318,1
311,311,308,316,1
309,306,308,313,1
306,302,308,310,1
303,301,308,307,1
298,301,308,306,1
295,302,308,307,1
293,305,307,308,1
293,308,306,309,1
295,309,304,310,1
298,307,304,311,1
302,298,303,311,1
303,285,302,310,1
303,271,302,309,1
301,265,302,309,1
299,266,303,308,1
299,274,304,308,1
300,285,304,308,1
300,294,304,308,1
300,302,306,308,1
301,310,308,308,1
302,319,309,308,1
303,327,309,307,1
303,333,309,308,1
303,336,308,308,1
304,336,308,309,1
307,332,308,308,1
310,328,307,306,1
314,323,306,304,1
315,318,306,303,1
316,314,305,301,1
316,311,304,299,1
315,311,305,298,1
314,311,305,299,1
312,310,306,301,1
311,307,306,304,1
312,305,306,306,1
313,305,305,309,1
312,305,305,311,1
311,307,305,312,1
310,308,306,313,1
310,309,307,315,1
311,309,308,317,1
310,309,309,317,1
310,306,310,316,1
308,304,311,315,1
308,303,313,314,1
308,304,313,313,1
310,308,313,313,1
312,313,311,313,1
313,316,309,312,1
312,314,308,311,1
311,307,306,309,1
310,298,305,307,1
311,290,302,303,1
313,286,301,300,1
316,286,301,299,1
321,291,303,299,1
323,297,304,300,1
319,302,305,302,1
310,302,305,303,1
301,298,303,303,1
297,296,303,302,1
297,299,302,302,1
299,304,304,303,1
302,309,306,305,1
304,312,308,306,1
306,314,311,307,1
306,313,311,306,1
306,309,311,305,1
304,303,310,304,1
303,298,308,304,1
302,293,305,303,1
302,289,304,302,1
302,287,303,301,1
301,287,303,298,1
302,288,303,297,1
303,291,303,296,1
304,294,303,297,1
304,298,304,299,1
304,302,306,302,1
305,306,309,306,1
307,308,311,309,1
310,310,312,311,1
312,312,313,314,1
313,313,313,315,1
313,312,314,316,1
313,309,314,316,1
313,306,316,316,1
313,303,317,315,1
313,303,317,313,1
312,305,316,312,1
311,310,314,311,1
310,314,313,310,1
308,317,312,310,1
308,319,311,311,1
307,318,312,311,1
308,316,312,313,1
310,314,313,314,1
312,312,314,313,1
313,312,314,313,1
313,314,314,312,1
314,314,313,310,1
314,314,313,308,1
314,312,313,306,1
314,310,314,304,1
315,309,315,303,1
314,308,317,302,1
314,307,317,301,1
314,305,314,300,1
313,302,312,298,1
312,300,310,297,1
311,301,309,297,1
309,304,309,298,1
307,306,308,300,1
305,305,308,301,1
302,303,307,303,1
299,301,306,306,1
296,299,306,308,1
295,300,306,310,1
298,306,306,312,1
302,312,306,313,1
306,317,305,315,1
310,320,305,317,1
314,320,306,319,1
314,317,308,318,1
314,314,309,317,1
313,311,311,316,1
311,309,311,316,1
309,307,311,316,1
308,306,311,315,1
309,305,311,313,1
310,305,311,311,1
313,305,311,309,1
318,304,311,306,1
320,301,310,304,1
321,301,311,303,1
320,305,311,303,1
319,310,311,303,1
318,313,311,304,1
315,313,310,304,1
313,311,310,304,1
309,307,309,304,1
305,303,308,304,1
302,302,308,306,1
302,306,308,308,1
304,310,308,309,1
306,313,308,309,1
308,315,308,308,1
309,317,308,307,1
309,317,309,307,1
307,317,311,307,1
307,317,312,307,1
307,317,312,308,1
308,317,312,309,1
308,315,312,308,1
308,313,312,307,1
307,312,311,305,1
303,310,310,305,1
299,309,310,306,1
298,307,310,307,1
301,306,311,308,1
305,304,311,309,1
309,302,311,309,1
311,302,312,310,1
312,301,312,310,1
311,297,312,310,1
309,293,312,310,1
307,289,312,310,1
305,288,311,309,1
305,290,311,309,1
305,295,311,310,1
305,300,311,310,1
305,302,310,310,1
303,302,309,309,1
302,300,309,309,1
302,301,310,308,1
303,303,312,308,1
304,306,314,308,1
306,309,313,307,1
306,311,312,306,1
306,312,309,304,1
305,312,307,302,1
304,312,305,300,1
303,313,303,299,1
301,314,303,298,1
298,312,303,298,1
297,307,304,299,1
297,303,305,300,1
298,301,306,301,1
301,301,306,301,1
303,302,306,303,1
304,305,306,305,1
304,308,307,306,1
305,311,307,307,1
304,311,307,307,1
304,308,306,306,1
303,300,305,306,1
302,292,307,307,1
302,284,311,309,1
303,279,313,310,1
303,280,314,312,1
304,287,313,314,1
304,295,312,315,1
304,301,310,316,1
303,305,309,316,1
302,307,308,316,1
300,308,308,315,1
299,309,307,313,1
300,312,308,312,1
304,315,307,310,1
310,316,307,308,1
315,315,306,307,1
317,314,306,306,1
314,313,306,306,1
309,311,307,307,1
305,309,309,308,1
304,310,309,309,1
304,310,309,311,1
305,311,310,312,1
307,312,309,313,1
307,313,309,313,1
308,314,308,312,1
309,313,307,311,1
309,311,306,309,1
310,309,306,307,1
312,306,306,305,1
314,305,305,304,1
316,305,304,304,1
316,306,303,303,1
314,306,302,304,1
308,306,302,304,1
301,307,302,304,1
295,309,302,304,1
293,310,303,304,1
292,309,304,304,1
290,308,303,303,1
288,305,303,303,1
286,302,304,302,1
286,299,303,302,1
286,296,302,301,1
285,294,302,301,1
285,295,301,302,1
289,298,302,304,1
295,305,303,307,1
303,315,305,310,1
312,323,306,312,1
318,329,307,314,1
320,326,307,314,1
319,318,307,313,1
317,309,308,312,1
314,301,308,312,1
311,295,308,311,1
308,291,307,311,1
306,287,306,311,1
306,285,305,310,1
306,283,305,309,1
308,284,304,307,1
309,288,304,307,1
310,295,304,308,1
311,305,305,309,1
312,315,305,310,1
312,323,304,310,1
311,328,303,308,1
310,328,303,306,1
309,324,304,304,1
308,319,305,303,1
307,312,307,303,1
304,306,307,303,1
302,302,306,302,1
299,300,306,301,1
298,299,305,299,1
299,296,304,298,1
301,293,304,296,1
304,290,304,296,1
304,291,305,297,1
304,294,305,299,1
303,302,307,303,1
303,313,308,307,1
304,324,309,311,1
304,329,309,314,1
303,328,309,315,1
302,322,309,314,1
302,318,309,313,1
302,315,309,311,1
303,315,309,310,1
304,316,308,309,1
304,317,307,309,1
305,318,306,310,1
306,319,306,311,1
307,318,305,311,1
308,317,304,310,1
310,315,305,310,1
312,314,305,310,1
314,312,306,310,1
313,311,307,310,1
311,309,306,309,1
308,305,306,308,1
305,302,306,307,1
304,300,305,305,1
302,301,305,304,1
303,302,306,303,1
304,306,307,304,1
305,308,310,305,1
306,310,312,306,1
307,311,311,306,1
307,310,309,305,1
308,310,307,304,1
308,308,305,303,1
307,307,304,303,1
306,306,304,304,1
305,305,305,305,1
304,304,306,307,1
304,303,307,310,1
305,302,307,311,1
305,303,306,311,1
305,303,305,310,1
305,305,304,311,1
304,307,304,311,1
303,307,305,313,1
304,305,307,315,1
306,303,310,315,1
307,300,311,314,1
306,298,310,311,1
305,297,308,309,1
305,298,307,307,1
303,300,305,305,1
297,300,303,304,1
290,299,301,304,1
288,298,300,304,1
291,297,299,304,1
297,298,300,304,1
302,302,301,305,1
306,305,303,307,1
309,306,305,309,1
310,306,307,309,1
311,307,307,308,1
311,305,307,308,1
310,305,307,307,1
309,305,307,308,1
308,305,307,307,1
305,306,307,306,1
303,307,308,305,1
303,308,307,305,1
303,308,306,304,1
302,306,305,303,1
300,304,304,303,1
298,303,302,302,1
299,305,299,302,1
301,311,297,302,1
303,316,297,303,1
303,321,297,303,1
302,325,298,304,1
302,325,299,305,1
303,324,302,306,1
304,322,304,309,1
306,318,306,311,1
308,314,308,314,1
310,308,309,315,1
311,299,309,315,1
311,290,309,314,1
310,284,308,311,1
308,284,306,308,1
305,289,305,305,1
304,297,304,303,1
305,305,304,303,1
304,309,304,301,1
303,308,306,301,1
302,308,306,302,1
302,309,307,305,1
302,310,308,309,1
302,310,309,313,1
302,310,308,314,1
302,309,308,314,1
302,309,307,314,1
302,312,307,313,1
302,314,306,313,1
302,316,306,312,1
302,319,305,311,1
302,321,306,310,1
302,322,306,308,1
302,323,306,308,1
303,325,305,308,1
305,325,305,308,1
306,323,303,308,1
306,317,302,307,1
303,307,302,308,1
300,299,303,310,1
297,294,304,313,1
296,291,303,315,1
297,292,303,317,1
300,296,304,317,1
304,299,306,317,1
307,301,308,317,1
308,301,309,316,1
307,301,310,316,1
305,304,310,316,1
303,307,310,317,1
302,312,312,318,1
302,315,312,319,1
302,315,311,319,1
304,313,309,319,1
305,312,307,319,1
306,311,305,318,1
307,309,302,317,1
307,308,301,315,1
306,307,301,314,1
302,307,302,313,1
299,306,304,311,1
299,305,305,310,1
303,303,306,309,1
309,302,306,307,1
313,303,306,307,1
313,305,307,308,1
307,306,308,309,1
301,305,311,311,1
296,303,313,313,1
295,300,315,315,1
298,299,315,315,1
302,299,315,313,1
306,301,313,309,1
309,303,311,305,1
312,304,309,302,1
312,302,308,300,1
311,298,307,300,1
309,296,306,301,1
307,297,307,303,1
304,303,309,305,1
301,309,311,307,1
300,313,312,307,1
300,316,313,306,1
301,317,312,306,1
302,316,311,306,1
304,314,310,307,1
306,313,310,309,1
308,312,310,310,1
309,312,310,310,1
311,312,310,310,1
311,312,311,310,1
312,311,312,310,1
311,310,311,310,1
310,309,310,311,1
309,308,309,312,1
308,306,309,313,1
307,305,307,312,1
307,305,305,310,1
307,305,304,309,1
307,305,303,308,1
308,305,303,308,1
309,305,303,308,1
309,302,303,309,1
308,297,303,308,1
308,291,303,307,1
308,286,303,305,1
308,282,305,304,1
308,282,306,303,1
308,286,306,303,1
308,292,305,303,1
306,298,304,303,1
302,303,303,303,1
300,310,302,303,1
301,317,302,302,1
302,322,302,300,1
304,323,301,298,1
305,320,301,295,1
306,317,299,292,1
307,313,298,291,1
309,311,297,291,1
313,309,296,294,1
316,309,297,299,1
318,311,300,304,1
316,313,302,309,1
313,314,303,312,1
311,316,304,315,1
310,316,305,317,1
310,316,305,317,1
309,317,304,317,1
308,318,304,318,1
308,318,304,319,1
309,317,304,319,1
308,316,303,318,1
308,315,303,319,1
307,315,303,319,1
307,314,305,320,1
308,313,306,320,1
309,310,307,319,1
309,307,306,317,1
309,304,305,315,1
309,301,304,313,1
307,297,303,312,1
305,293,302,311,1
303,290,301,310,1
304,291,300,310,1
305,293,301,311,1
308,295,303,311,1
310,297,304,311,1
311,299,306,311,1
312,301,306,309,1
312,303,306,308,1
312,304,307,308,1
311,305,309,308,1
309,306,309,309,1
307,306,307,309,1
308,305,307,310,1
310,306,307,309,1
311,306,306,307,1
311,306,305,303,1
311,306,303,299,1
310,304,302,296,1
308,303,300,294,1
307,303,300,295,1
305,304,300,296,1
304,307,302,299,1
303,309,303,302,1
304,310,304,304,1
302,309,305,306,1
299,307,307,307,1
299,305,308,308,1
300,303,310,310,1
302,303,310,311,1
303,306,311,313,1
304,310,310,314,1
305,313,308,314,1
306,316,308,313,1
307,318,307,310,1
308,321,306,308,1
309,322,304,306,1
308,320,303,304,1
308,314,302,303,1
308,306,302,301,1
308,299,305,300,1
307,292,309,299,1
305,287,311,299,1
303,285,309,300,1
302,284,307,302,1
301,283,305,303,1
301,281,304,305,1
302,281,304,307,1
302,285,305,309,1
301,289,304,308,1
299,293,304,308,1
298,297,303,308,1
297,302,303,308,1
297,307,303,308,1
298,312,304,307,1
301,316,305,305,1
304,318,304,302,1
307,318,302,299,1
311,317,300,298,1
314,316,298,297,1
317,316,298,298,1
320,315,300,299,1
322,315,302,300,1
321,315,304,302,1
316,314,305,303,1
313,311,305,304,1
311,309,307,306,1
310,309,305,309,1
309,308,304,312,1
308,307,302,313,1
307,304,302,316,1
307,302,302,317,1
306,301,302,319,1
306,301,303,319,1
305,304,303,318,1
305,308,304,316,1
305,313,304,314,1
305,315,304,313,1
306,317,304,312,1
305,317,302,310,1
303,316,302,309,1
301,313,302,307,1
299,310,303,306,1
298,308,303,304,1
298,305,302,303,1
299,303,301,303,1
303,299,301,304,1
307,295,303,305,1
310,288,304,306,1
310,283,304,306,1
310,281,303,306,1
311,284,302,306,1
313,290,302,305,1
314,296,302,306,1
313,301,302,305,1
312,305,302,305,1
311,309,301,304,1
310,312,300,304,1
309,314,299,305,1
309,316,299,307,1
309,316,300,308,1
309,316,299,307,1
310,315,300,306,1
309,316,301,305,1
310,318,303,305,1
310,318,305,305,1
309,317,308,306,1
309,314,309,308,1
308,311,310,310,1
307,309,312,313,1
307,308,313,316,1
307,307,312,318,1
308,305,311,320,1
310,302,310,320,1
312,299,307,320,1
313,299,304,318,1
312,300,300,316,1
310,302,297,314,1
304,304,295,312,1
297,304,295,311,1
293,306,295,311,1
292,306,296,312,1
292,307,299,311,1
293,308,302,311,1
293,305,304,311,1
295,302,305,311,1
298,300,306,310,1
301,299,306,309,1
305,297,306,307,1
309,295,306,304,1
313,291,306,303,1
313,286,304,302,1
310,282,303,302,1
306,283,302,303,1
302,285,300,304,1
300,288,300,306,1
300,294,300,307,1
303,301,302,309,1
307,308,304,310,1
311,312,304,311,1
313,312,304,310,1
315,311,303,310,1
315,311,304,309,1
315,310,304,309,1
316,309,306,310,1
319,309,309,311,1
321,309,311,313,1
321,312,311,312,1
318,316,310,311,1
316,321,308,310,1
316,327,307,310,1
316,331,306,309,1
317,331,306,309,1
315,326,306,309,1
313,323,306,310,1
310,321,306,310,1
309,319,306,310,1
309,318,307,309,1
310,316,307,308,1
311,315,307,307,1
311,313,306,307,1
310,310,307,307,1
310,309,307,309,1
311,307,308,311,1
311,306,309,313,1
312,304,310,314,1
311,304,312,313,1
310,304,312,313,1
307,306,311,314,1
305,310,309,315,1
303,311,308,316,1
301,309,306,317,1
302,306,304,318,1
304,304,304,319,1
307,305,303,319,1
310,308,302,318,1
312,314,301,316,1
312,318,301,313,1
311,321,300,310,1
311,322,302,308,1
310,323,303,308,1
309,323,305,309,1
310,322,307,310,1
310,320,308,310,1
310,318,310,309,1
311,316,311,307,1
312,314,310,305,1
310,313,308,304,1
307,311,306,302,1
302,310,304,301,1
299,309,305,299,1
297,307,305,297,1
296,306,306,295,1
298,305,305,294,1
300,305,305,295,1
302,305,304,297,1
304,304,305,300,1
305,302,306,302,1
306,301,306,304,1
305,300,306,305,1
303,300,305,305,1
302,299,304,306,1
302,300,305,307,1
301,302,306,307,1
300,304,305,306,1
299,304,305,307,1
298,303,304,307,1
298,301,303,306,1
297,300,302,304,1
298,300,302,303,1
301,297,303,302,1
302,293,303,301,1
303,288,304,301,1
304,287,304,301,1
303,291,305,302,1
302,299,305,303,1
302,307,306,304,1
303,312,307,306,1
304,316,308,309,1
304,320,310,311,1
305,321,311,313,1
306,322,311,315,1
309,321,311,317,1
309,320,312,319,1
310,317,312,320,1
310,312,313,319,1
309,308,313,318,1
309,305,313,316,1
308,304,313,315,1
309,305,313,313,1
309,306,313,313,1
308,307,312,313,1
304,308,311,313,1
302,309,311,314,1
301,309,311,315,1
301,309,311,316,1
303,308,310,316,1
305,306,310,316,1
307,306,309,314,1
308,307,308,313,1
308,308,309,312,1
308,309,309,311,1
308,309,310,310,1
308,308,310,309,1
308,307,309,307,1
308,306,309,306,1
307,305,309,306,1
307,305,309,306,1
307,305,310,306,1
307,306,311,306,1
306,306,312,307,1
305,306,311,307,1
303,305,311,306,1
303,306,309,305,1
304,308,309,306,1
307,312,310,306,1
311,314,311,307,1
312,313,310,307,1
311,313,309,307,1
309,312,307,308,1
307,310,306,308,1
306,306,306,307,1
306,301,306,305,1
308,297,305,303,1
308,292,306,299,1
308,288,307,297,1
308,288,308,295,1
309,291,308,294,1
309,295,308,295,1
309,297,309,296,1
308,298,311,298,1
306,298,315,300,1
305,300,317,302,1
305,302,317,304,1
305,306,315,305,1
304,309,313,306,1
303,313,312,307,1
301,313,310,306,1
299,310,308,306,1
297,303,306,306,1
295,297,304,306,1
293,294,302,307,1
291,294,302,308,1
289,295,302,309,1
290,297,304,309,1
295,301,305,308,1
304,306,307,306,1
312,313,308,304,1
318,321,308,302,1
319,327,309,302,1
318,329,309,302,1
315,327,308,301,1
313,321,307,299,1
310,312,305,296,1
308,303,304,293,1
307,293,303,291,1
306,287,303,289,1
305,285,303,289,1
305,288,304,289,1
304,292,307,291,1
305,298,309,294,1
307,303,309,297,1
308,305,309,300,1
308,305,308,304,1
307,306,308,308,1
308,306,308,312,1
309,306,310,314,1
311,307,310,315,1
314,308,309,316,1
319,310,308,316,1
324,312,306,315,1
324,313,305,315,1
318,312,304,313,1
310,310,304,312,1
303,309,305,311,1
301,307,307,311,1
302,306,307,312,1
303,305,307,311,1
305,305,307,311,1
307,304,307,311,1
308,304,307,310,1
309,307,307,310,1
309,310,307,309,1
308,312,308,308,1
307,313,308,309,1
306,315,308,308,1
305,316,308,308,1
305,317,307,308,1
305,316,306,308,1
305,315,305,307,1
306,310,305,308,1
307,304,305,308,1
308,299,306,308,1
309,297,306,308,1
311,296,306,308,1
311,294,306,307,1
310,293,305,306,1
308,293,304,304,1
308,293,304,302,1
307,293,305,299,1
307,294,306,297,1
306,294,307,296,1
304,296,306,294,1
303,301,306,293,1
305,308,305,293,1
307,313,306,294,1
307,315,306,296,1
305,314,306,297,1
301,311,306,299,1
299,310,306,300,1
298,310,305,301,1
299,310,304,302,1
302,310,303,303,1
305,309,302,304,1
307,306,300,304,1
307,303,299,304,1
306,304,299,303,1
305,305,299,303,1
306,308,300,303,1
306,311,301,305,1
307,312,303,308,1
307,312,305,310,1
306,309,306,313,1
303,305,308,314,1
301,301,309,315,1
299,297,310,314,1
298,295,310,313,1
299,295,310,312,1
302,295,310,311,1
304,295,311,311,1
306,298,312,310,1
309,303,313,310,1
313,309,314,309,1
318,315,313,308,1
319,318,309,306,1
319,319,305,304,1
316,317,302,302,1
311,313,301,302,1
307,311,302,302,1
304,311,303,304,1
304,311,305,306,1
305,313,306,310,1
306,316,307,313,1
306,320,307,316,1
308,323,308,319,1
309,324,309,319,1
309,321,309,317,1
308,318,309,315,1
307,312,309,312,1
306,305,308,309,1
305,297,308,307,1
305,291,308,305,1
303,290,307,302,1
300,292,306,301,1
298,297,306,300,1
299,302,305,299,1
302,307,305,298,1
306,312,305,298,1
311,318,304,297,1
315,324,303,297,1
317,329,302,296,1
315,330,302,296,1
310,326,303,297,1
305,320,304,299,1
302,313,306,303,1
301,307,307,306,1
301,303,309,309,1
302,302,311,311,1
304,302,312,312,1
307,300,314,312,1
308,297,314,311,1
308,295,312,311,1
309,290,310,310,1
310,285,308,309,1
310,280,307,307,1
309,279,306,304,1
308,282,304,302,1
305,288,304,301,1
302,297,303,301,1
298,305,302,302,1
294,311,302,303,1
292,315,303,304,1
292,317,304,305,1
295,317,305,307,1
298,313,305,307,1
301,307,305,308,1
303,302,305,308,1
306,300,305,308,1
309,300,306,308,1
310,301,306,306,1
311,304,305,303,1
311,309,305,302,1
312,314,306,301,1
312,317,308,302,1
313,320,310,303,1
313,321,311,304,1
310,322,311,305,1
307,321,310,304,1
303,319,309,304,1
303,316,309,304,1
303,312,309,304,1
303,308,310,305,1
303,306,311,306,1
304,305,311,307,1
304,308,310,308,1
305,311,309,308,1
306,314,310,308,1
308,315,312,309,1
309,314,313,309,1
311,311,314,311,1
311,307,314,312,1
309,302,313,312,1
306,296,310,312,1
304,294,307,313,1
304,296,305,313,1
304,297,304,312,1
307,296,304,311,1
310,295,305,310,1
312,297,306,308,1
309,302,307,305,1
305,308,308,304,1
303,314,310,304,1
302,316,311,303,1
302,316,312,303,1
302,314,313,304,1
303,314,314,305,1
305,314,314,306,1
307,315,315,307,1
308,317,315,308,1
308,318,314,309,1
308,318,312,308,1
307,318,309,307,1
306,317,307,305,1
306,317,306,303,1
306,316,307,303,1
306,314,309,303,1
306,311,311,305,1
305,308,311,307,1
305,305,310,310,1
306,305,311,314,1
307,308,312,318,1
309,310,313,321,1
311,312,313,322,1
313,312,313,323,1
313,311,313,323,1
312,310,313,323,1
310,307,313,321,1
308,305,312,318,1
306,303,310,315,1
305,303,308,312,1
305,303,307,309,1
306,303,306,306,1
305,301,308,304,1
304,298,311,304,1
304,297,314,305,1
307,299,315,306,1
313,302,315,307,1
317,303,313,307,1
317,303,311,307,1
311,300,309,306,1
304,296,309,306,1
302,292,309,305,1
302,290,309,306,1
304,289,309,306,1
306,287,310,307,1
306,288,309,308,1
306,291,310,310,1
304,295,310,311,1
301,300,310,311,1
296,304,311,310,1
293,309,312,310,1
291,313,312,309,1
293,315,311,307,1
297,316,311,304,1
302,316,310,301,1
307,315,310,298,1
310,313,309,296,1
313,312,309,296,1
315,312,308,296,1
315,311,308,297,1
315,311,309,299,1
314,310,310,303,1
313,309,312,306,1
313,308,314,310,1
312,307,315,312,1
312,305,317,314,1
311,304,318,315,1
310,304,318,316,1
308,302,315,316,1
305,300,313,316,1
303,299,309,317,1
302,300,307,318,1
302,303,307,318,1
304,307,307,317,1
306,311,309,315,1
308,315,310,314,1
310,318,310,313,1
311,320,310,312,1
310,320,308,311,1
309,319,305,310,1
307,316,301,308,1
305,312,297,305,1
304,309,295,302,1
302,307,293,299,1
300,307,293,297,1
298,308,294,295,1
297,312,297,294,1
298,313,299,294,1
299,309,301,294,1
302,299,302,296,1
306,287,304,298,1
311,280,306,302,1
311,277,307,305,1
309,278,308,308,1
306,282,309,310,1
306,288,309,312,1
307,294,310,314,1
308,299,309,315,1
309,303,310,317,1
308,307,311,317,1
308,310,313,318,1
307,313,314,317,1
307,315,315,315,1
306,315,314,313,1
304,313,314,311,1
301,309,314,311,1
297,305,313,310,1
294,304,310,309,1
293,303,308,309,1
293,302,304,308,1
296,302,302,308,1
300,304,302,308,1
306,307,302,309,1
313,309,303,309,1
320,309,306,308,1
323,308,307,307,1
320,307,306,306,1
314,306,305,305,1
310,307,304,304,1
309,309,303,304,1
308,312,305,306,1
307,315,306,307,1
307,317,307,308,1
307,317,308,308,1
307,316,308,308,1
305,314,310,309,1
304,311,312,310,1
303,309,315,312,1
304,309,316,313,1
308,309,314,312,1
310,310,311,310,1
312,311,307,307,1
312,310,305,305,1
312,307,304,303,1
312,303,304,301,1
312,299,304,299,1
310,295,303,298,1
309,294,302,298,1
309,295,301,299,1
308,297,301,300,1
306,299,301,300,1
304,304,302,301,1
304,309,304,301,1
305,314,307,302,1
307,317,309,304,1
310,318,310,305,1
311,316,310,306,1
312,313,310,307,1
312,309,309,307,1
312,306,308,307,1
312,305,307,307,1
311,305,305,306,1
310,305,302,305,1
309,305,301,303,1
308,304,300,302,1
307,301,300,302,1
305,298,302,302,1
304,296,302,303,1
301,292,303,304,1
297,290,303,304,1
295,289,305,305,1
294,291,307,304,1
295,293,309,304,1
298,295,309,305,1
303,295,309,307,1
307,296,309,307,1
310,297,309,308,1
311,300,308,307,1
313,304,307,306,1
313,307,306,304,1
313,309,304,301,1
313,308,303,299,1
313,306,303,299,1
313,304,304,301,1
315,305,305,304,1
318,306,306,307,1
320,308,306,310,1
318,308,306,312,1
313,306,305,313,1
307,304,304,314,1
302,302,303,314,1
298,303,302,316,1
297,306,302,317,1
298,313,303,318,1
298,319,304,318,1
299,321,305,318,1
300,320,306,317,1
301,314,306,315,1
302,304,305,314,1
301,292,303,311,1
298,281,301,309,1
295,273,299,306,1
292,272,299,303,1
293,279,299,301,1
296,291,301,299,1
300,304,304,298,1
304,315,306,299,1
307,322,306,299,1
308,324,306,300,1
308,324,305,301,1
307,322,306,302,1
305,320,306,303,1
303,316,307,305,1
305,313,309,308,1
309,311,310,311,1
312,308,312,312,1
312,306,313,313,1
309,304,311,312,1
306,301,309,311,1
302,300,306,308,1
301,303,304,306,1
302,309,303,304,1
304,316,302,302,1
307,322,302,301,1
308,325,302,301,1
308,325,303,303,1
308,323,304,304,1
307,320,304,305,1
307,315,303,303,1
307,310,302,302,1
307,307,303,303,1
307,309,304,304,1
305,314,305,305,1
305,319,304,305,1
305,321,304,306,1
306,319,304,306,1
306,316,304,305,1
305,313,303,304,1
305,309,302,301,1
304,306,300,300,1
304,303,298,298,1
305,300,299,298,1
303,297,300,299,1
299,296,301,300,1
296,295,303,302,1
297,295,306,304,1
300,296,309,306,1
302,297,309,306,1
303,298,309,306,1
303,298,308,305,1
304,298,308,306,1
305,299,308,307,1
306,299,308,307,1
307,299,308,307,1
306,299,308,306,1
306,301,306,305,1
306,304,305,303,1
306,306,304,302,1
305,306,303,301,1
303,306,302,301,1
304,304,302,300,1
306,303,303,301,1
309,302,304,302,1
311,302,304,303,1
311,303,304,304,1
310,305,303,305,1
309,307,303,306,1
307,306,302,307,1
306,303,302,307,1
305,300,301,307,1
304,298,302,307,1
304,297,302,307,1
304,296,303,306,1
305,300,304,306,1
306,306,304,305,1
307,313,305,305,1
308,319,304,304,1
309,321,302,302,1
310,320,302,300,1
310,319,303,300,1
308,315,303,301,1
304,310,304,303,1
302,305,305,307,1
303,302,306,311,1
305,303,307,314,1
307,305,308,315,1
309,310,308,316,1
311,317,308,316,1
312,324,308,316,1
313,328,308,316,1
313,329,307,315,1
311,329,305,313,1
308,327,304,312,1
307,326,303,311,1
307,323,302,310,1
307,320,300,308,1
305,317,298,306,1
304,315,298,304,1
305,313,299,303,1
306,314,301,302,1
308,314,304,302,1
308,315,307,301,1
305,314,309,301,1
301,311,310,301,1
297,307,310,300,1
296,305,310,300,1
297,307,308,300,1
299,310,307,301,1
302,314,306,302,1
305,315,307,304,1
307,314,308,306,1
308,311,310,308,1
308,309,311,310,1
308,307,312,312,1
307,304,312,314,1
307,300,313,314,1
307,295,313,315,1
307,292,311,314,1
306,290,309,314,1
306,290,307,313,1
305,292,306,312,1
304,295,307,311,1
304,296,308,312,1
304,297,309,311,1
303,298,309,309,1
302,299,309,308,1
302,301,309,307,1
302,300,309,309,1
301,299,310,309,1
299,295,309,310,1
298,291,309,310,1
298,291,308,310,1
299,295,307,309,1
300,298,307,307,1
303,300,309,306,1
304,301,311,307,1
307,301,313,308,1
308,301,314,309,1
311,303,313,310,1
314,305,311,310,1
317,306,308,310,1
320,303,307,310,1
323,300,307,309,1
326,300,307,309,1
323,301,306,308,1
317,301,305,307,1
312,301,305,307,1
310,302,305,307,1
310,302,304,308,1
311,302,305,308,1
313,300,305,308,1
314,297,306,307,1
312,296,306,305,1
310,296,307,305,1
309,299,308,304,1
308,304,309,305,1
308,308,308,306,1
307,309,306,306,1
307,310,305,306,1
307,309,303,308,1
307,308,302,310,1
307,308,304,313,1
306,308,306,316,1
305,310,308,318,1
303,312,308,320,1
301,313,307,320,1
299,314,307,320,1
297,315,308,319,1
296,316,309,316,1
296,319,309,313,1
297,322,309,309,1
299,326,307,305,1
301,329,305,301,1
302,329,303,298,1
304,326,303,296,1
306,322,303,296,1
307,314,303,297,1
307,304,303,298,1
308,294,304,299,1
307,286,304,301,1
306,285,304,303,1
305,287,304,306,1
303,292,303,307,1
303,297,303,307,1
302,301,303,308,1
305,304,304,309,1
309,306,305,312,1
313,308,306,314,1
316,308,307,316,1
316,308,306,317,1
313,307,305,317,1
310,306,303,316,1
308,307,303,315,1
307,307,305,315,1
308,307,308,315,1
310,307,310,316,1
311,306,311,316,1
311,302,311,315,1
311,296,311,315,1
310,291,310,314,1
309,288,309,313,1
308,288,307,312,1
308,290,306,313,1
306,294,304,313,1
304,296,302,314,1
302,297,301,314,1
301,298,300,314,1
299,297,300,313,1
298,296,301,312,1
297,297,301,310,1
297,301,301,309,1
298,304,300,307,1
299,307,300,307,1
301,309,300,307,1
302,311,301,308,1
302,312,301,309,1
303,314,303,309,1
306,314,304,309,1
308,312,305,309,1
310,304,304,308,1
310,296,301,306,1
310,290,299,305,1
311,291,298,305,1
