309,305,339,295,1
307,306,339,291,1
305,307,338,288,1
304,307,338,285,1
303,307,337,283,1
304,307,337,282,1
307,307,336,283,1
311,307,335,284,1
314,307,334,285,1
313,306,332,287,1
308,305,328,287,1
304,304,323,287,1
303,303,319,288,1
303,302,316,290,1
304,302,318,294,1
306,302,324,302,1
307,302,333,311,1
308,302,341,320,1
307,304,346,330,1
306,307,350,338,1
305,310,353,345,1
305,312,356,349,1
305,313,357,351,1
305,315,356,350,1
305,315,355,348,1
305,316,353,345,1
304,316,352,341,1
304,315,351,335,1
303,314,351,328,1
303,313,350,318,1
304,311,350,308,1
307,309,349,298,1
311,306,348,292,1
315,303,348,291,1
320,301,345,295,1
320,300,340,304,1
318,299,334,311,1
314,298,330,316,1
311,297,330,317,1
307,298,334,315,1
301,299,336,311,1
293,301,338,305,1
286,302,339,297,1
284,304,339,290,1
286,305,340,285,1
289,307,340,286,1
290,309,340,289,1
291,311,340,297,1
290,312,342,306,1
288,313,343,316,1
286,313,344,324,1
284,312,344,330,1
287,310,344,331,1
293,307,342,329,1
298,305,341,328,1
302,303,341,327,1
304,302,342,327,1
306,302,345,325,1
309,303,347,321,1
312,305,348,315,1
313,307,349,308,1
313,309,349,298,1
312,309,347,288,1
310,309,346,281,1
308,309,344,277,1
308,309,342,276,1
307,309,340,275,1
306,308,336,276,1
304,306,333,276,1
304,305,330,276,1
304,304,327,277,1
305,302,324,278,1
306,300,321,279,1
305,299,319,280,1
302,299,317,282,1
298,299,317,287,1
294,299,318,294,1
296,300,322,303,1
302,303,328,313,1
308,306,335,323,1
312,309,340,330,1
313,312,344,334,1
312,315,345,335,1
311,317,345,334,1
310,317,343,332,1
310,317,341,328,1
310,315,339,324,1
309,313,339,320,1
309,311,339,318,1
306,309,341,318,1
304,307,342,316,1
302,306,341,314,1
302,305,340,310,1
304,303,338,309,1
306,301,337,308,1
308,300,336,306,1
311,299,335,303,1
313,297,334,298,1
312,296,334,293,1
309,296,335,289,1
305,296,335,287,1
301,297,336,287,1
297,298,337,289,1
295,300,337,293,1
294,303,338,297,1
293,305,338,301,1
294,307,339,304,1
294,309,339,306,1
293,310,338,307,1
293,310,338,310,1
293,309,337,314,1
292,307,335,318,1
294,305,335,321,1
297,303,336,321,1
300,301,336,317,1
302,300,337,313,1
302,300,338,309,1
300,300,340,307,1
296,301,342,306,1
293,302,343,307,1
291,305,343,310,1
290,306,342,312,1
293,307,341,311,1
299,308,341,311,1
307,309,341,311,1
312,309,339,311,1
315,310,337,310,1
314,310,336,308,1
311,310,335,305,1
305,310,334,301,1
299,309,332,297,1
295,309,331,291,1
292,307,330,286,1
293,305,330,280,1
297,302,330,276,1
302,301,331,273,1
306,299,333,274,1
309,299,335,276,1
311,299,337,280,1
311,301,339,285,1
310,303,341,291,1
307,306,343,296,1
304,308,344,301,1
301,310,344,305,1
299,311,344,308,1
298,312,343,311,1
297,312,343,313,1
296,312,342,313,1
296,312,342,313,1
301,311,342,313,1
308,310,342,312,1
313,310,341,313,1
316,310,339,316,1
318,310,338,323,1
320,309,338,333,1
319,308,338,343,1
318,307,340,349,1
315,307,344,351,1
313,307,347,349,1
312,306,350,346,1
312,306,352,342,1
313,308,353,338,1
315,310,352,331,1
317,312,350,320,1
316,312,347,304,1
313,311,343,287,1
307,309,340,274,1
302,307,339,266,1
299,306,338,264,1
298,306,336,265,1
300,306,335,269,1
303,306,334,272,1
306,306,333,275,1
308,307,333,277,1
308,307,333,280,1
307,306,331,283,1
305,306,330,286,1
304,306,330,290,1
303,306,332,293,1
302,307,334,296,1
302,308,335,297,1
302,309,336,296,1
303,310,336,296,1
304,311,336,296,1
306,311,337,298,1
307,312,338,304,1
306,313,339,312,1
303,314,340,320,1
300,315,341,325,1
297,316,342,327,1
294,317,342,325,1
297,317,341,322,1
303,316,340,318,1
311,314,339,314,1
317,312,338,312,1
321,310,337,310,1
323,309,337,311,1
323,309,337,315,1
322,308,339,321,1
317,310,341,327,1
312,312,343,335,1
307,314,343,341,1
306,316,343,344,1
307,318,342,343,1
309,320,342,337,1
307,320,341,328,1
303,319,339,315,1
294,316,338,304,1
285,313,337,294,1
283,311,336,287,1
289,309,336,284,1
295,308,333,283,1
301,307,330,282,1
305,306,326,284,1
311,304,323,286,1
316,302,323,288,1
320,302,325,292,1
319,302,329,296,1
314,303,333,300,1
309,303,337,303,1
305,305,339,305,1
301,306,340,303,1
299,308,341,301,1
298,309,342,298,1
299,310,341,294,1
300,311,340,292,1
300,312,337,292,1
299,312,335,295,1
299,313,333,301,1
298,314,333,309,1
300,315,335,319,1
302,314,337,329,1
304,313,339,337,1
308,312,341,343,1
312,310,344,347,1
315,307,345,350,1
315,305,346,351,1
315,304,347,352,1
314,304,348,352,1
315,305,348,349,1
313,307,347,342,1
309,309,345,332,1
305,309,343,320,1
300,308,340,305,1
295,307,338,293,1
290,307,336,284,1
289,306,336,279,1
293,305,336,278,1
299,304,338,277,1
304,302,341,276,1
308,300,342,276,1
312,298,341,276,1
316,297,340,277,1
320,295,338,280,1
323,294,336,287,1
324,293,335,294,1
323,293,335,301,1
320,294,335,305,1
316,296,333,307,1
311,297,332,308,1
305,299,332,309,1
299,301,334,309,1
296,304,337,309,1
296,307,340,311,1
296,310,342,313,1
293,311,342,316,1
291,312,342,320,1
292,312,342,323,1
295,311,342,326,1
297,311,342,330,1
299,310,343,335,1
300,309,342,337,1
301,308,340,336,1
303,306,338,331,1
307,304,336,323,1
311,302,334,313,1
312,300,331,303,1
311,298,328,295,1
308,297,325,293,1
308,298,324,292,1
310,300,323,293,1
310,303,324,295,1
309,306,325,298,1
308,308,326,302,1
307,310,328,307,1
307,312,332,312,1
307,314,335,314,1
307,314,337,315,1
304,314,338,314,1
300,314,337,312,1
296,314,337,309,1
293,312,337,306,1
291,310,337,304,1
293,307,338,304,1
296,305,338,305,1
301,302,338,305,1
305,301,339,303,1
310,299,339,300,1
313,298,339,297,1
313,298,339,296,1
310,298,340,296,1
306,300,340,297,1
301,302,342,298,1
299,303,342,299,1
299,304,342,300,1
300,305,343,303,1
298,306,342,306,1
296,305,341,309,1
292,305,339,313,1
288,306,337,315,1
284,306,336,314,1
282,306,334,311,1
283,305,331,306,1
287,304,328,302,1
292,302,326,299,1
297,301,326,298,1
300,300,325,298,1
301,300,326,298,1
302,300,326,298,1
306,302,326,298,1
312,304,327,297,1
316,306,327,296,1
318,308,326,296,1
319,310,326,295,1
320,312,326,296,1
318,312,326,298,1
315,312,327,299,1
311,312,328,301,1
305,311,329,302,1
299,310,329,302,1
290,307,329,302,1
286,304,328,301,1
289,301,328,302,1
298,300,328,307,1
307,300,329,317,1
313,301,330,330,1
317,302,331,341,1
316,303,333,348,1
314,303,334,348,1
312,303,334,341,1
311,304,334,330,1
310,305,334,316,1
307,307,335,304,1
305,309,334,294,1
302,310,333,288,1
300,311,332,285,1
298,311,331,284,1
297,310,330,285,1
298,310,329,289,1
300,310,329,295,1
304,309,328,300,1
308,309,327,306,1
312,308,325,311,1
314,306,323,315,1
313,304,322,319,1
310,302,322,321,1
309,301,325,321,1
308,300,328,320,1
308,299,331,316,1
309,299,333,311,1
311,300,334,305,1
310,301,335,300,1
308,303,335,296,1
305,304,336,293,1
302,304,336,291,1
300,305,335,289,1
299,305,334,287,1
297,306,334,286,1
297,306,334,286,1
298,307,334,287,1
299,307,335,287,1
300,307,335,286,1
301,306,335,286,1
303,304,335,286,1
305,303,335,288,1
308,301,337,293,1
311,300,339,299,1
314,301,340,306,1
316,303,340,315,1
315,305,340,322,1
312,307,340,328,1
307,309,339,334,1
301,311,339,340,1
294,312,340,345,1
289,313,342,348,1
286,314,343,349,1
286,316,343,345,1
285,317,342,337,1
282,316,339,326,1
282,315,336,314,1
288,313,331,305,1
297,310,326,298,1
305,306,322,293,1
310,303,320,291,1
315,301,318,292,1
318,300,316,294,1
319,299,315,295,1
319,299,317,296,1
320,301,319,295,1
319,302,321,293,1
319,304,323,291,1
318,306,325,290,1
315,307,326,289,1
311,309,327,290,1
307,310,327,293,1
305,310,328,297,1
304,310,329,300,1
305,309,329,302,1
306,308,329,303,1
307,307,329,304,1
309,307,329,305,1
311,306,330,307,1
308,306,329,313,1
305,304,326,323,1
302,302,324,332,1
300,301,324,341,1
304,300,325,348,1
309,301,328,352,1
314,303,330,352,1
316,304,333,347,1
315,306,334,339,1
313,308,334,330,1
310,308,332,320,1
307,308,330,309,1
304,307,327,298,1
300,306,324,287,1
297,306,322,281,1
295,306,323,279,1
294,306,325,280,1
295,306,328,281,1
296,305,330,283,1
297,305,331,284,1
300,304,330,284,1
303,302,329,284,1
305,301,328,283,1
308,299,326,284,1
311,298,325,286,1
313,298,323,289,1
312,298,322,293,1
311,298,325,297,1
310,300,329,301,1
309,301,333,304,1
306,302,336,306,1
302,303,338,308,1
296,305,339,310,1
289,308,339,311,1
283,310,337,310,1
279,311,333,308,1
278,310,329,308,1
282,310,326,308,1
286,308,324,311,1
290,308,324,315,1
292,308,325,320,1
295,308,327,326,1
299,309,329,331,1
303,310,331,337,1
306,310,333,340,1
311,311,336,341,1
316,311,338,343,1
318,311,339,342,1
316,311,338,340,1
310,311,337,336,1
305,310,335,330,1
307,310,334,323,1
315,310,333,315,1
321,309,331,307,1
323,308,329,299,1
321,306,327,293,1
319,304,324,287,1
317,303,323,283,1
318,301,322,283,1
318,301,320,285,1
317,300,319,289,1
311,299,319,292,1
306,297,319,292,1
303,297,320,292,1
304,297,321,290,1
305,297,323,290,1
306,297,325,292,1
304,299,326,295,1
302,301,328,298,1
300,302,329,300,1
299,304,329,299,1
300,304,330,298,1
304,305,330,298,1
308,305,329,298,1
312,305,328,297,1
312,305,326,296,1
311,306,326,296,1
310,307,326,295,1
310,307,327,297,1
309,308,328,301,1
307,309,328,309,1
305,309,327,319,1
305,309,326,329,1
304,309,324,336,1
303,307,324,339,1
301,305,323,340,1
299,303,323,340,1
298,303,324,338,1
299,304,327,333,1
301,305,329,325,1
304,305,329,316,1
307,305,330,307,1
309,305,330,300,1
310,306,331,298,1
311,307,332,299,1
312,308,332,302,1
310,309,332,304,1
307,308,331,305,1
300,307,330,304,1
292,305,327,302,1
290,303,326,300,1
293,300,325,297,1
295,298,324,294,1
297,297,324,292,1
303,297,326,292,1
311,297,329,292,1
319,298,332,293,1
324,301,335,296,1
325,304,337,300,1
323,307,338,303,1
320,309,339,304,1
316,311,338,305,1
313,311,336,305,1
310,311,332,304,1
308,311,329,302,1
307,310,326,301,1
306,309,325,301,1
306,308,325,303,1
307,308,325,305,1
308,307,325,306,1
310,307,326,306,1
313,305,327,307,1
314,303,328,307,1
315,302,329,307,1
316,300,330,308,1
320,301,330,308,1
324,302,330,309,1
329,305,330,310,1
330,307,332,312,1
327,309,332,315,1
320,310,333,320,1
312,312,334,327,1
307,314,335,336,1
304,316,336,344,1
302,316,337,350,1
303,315,338,351,1
303,314,339,348,1
303,313,339,342,1
303,311,337,332,1
302,309,335,320,1
300,306,331,307,1
299,301,326,295,1
300,295,322,285,1
301,291,320,276,1
303,289,319,272,1
305,289,320,271,1
305,289,321,272,1
306,291,322,276,1
306,295,324,280,1
304,299,326,284,1
302,302,325,286,1
300,305,324,288,1
298,307,322,291,1
297,310,320,295,1
298,311,318,298,1
299,313,319,300,1
302,313,322,301,1
305,312,325,301,1
308,310,329,303,1
310,309,332,304,1
311,307,334,306,1
311,306,335,307,1
311,304,335,309,1
308,303,335,310,1
306,303,334,312,1
305,304,334,313,1
306,305,334,316,1
308,306,336,321,1
309,308,338,327,1
309,311,339,333,1
308,314,340,337,1
307,315,340,337,1
305,317,341,334,1
302,318,341,328,1
297,319,341,321,1
292,319,341,316,1
290,318,339,311,1
293,317,337,308,1
297,317,335,307,1
298,317,334,306,1
300,314,332,302,1
304,310,331,298,1
310,304,330,293,1
315,300,329,289,1
317,298,328,286,1
317,296,328,281,1
316,294,328,277,1
316,295,327,275,1
316,297,326,276,1
317,300,325,279,1
318,304,326,282,1
318,308,327,286,1
318,311,327,290,1
316,313,327,293,1
314,314,326,294,1
311,315,326,297,1
308,316,326,299,1
303,317,326,301,1
299,318,327,301,1
298,317,328,302,1
298,315,329,303,1
300,311,330,305,1
304,308,330,306,1
310,304,331,307,1
313,301,332,306,1
311,299,334,306,1
305,298,336,305,1
299,299,336,305,1
293,301,335,306,1
291,304,333,308,1
291,306,333,311,1
294,309,334,315,1
296,311,335,319,1
299,313,335,322,1
300,314,334,322,1
300,315,333,320,1
299,315,331,318,1
300,314,331,315,1
300,314,331,312,1
301,313,332,311,1
302,311,331,311,1
303,309,330,311,1
304,306,327,310,1
307,302,323,307,1
308,299,320,304,1
308,298,318,303,1
306,299,318,305,1
305,300,319,306,1
303,303,323,306,1
302,305,327,306,1
300,307,332,304,1
299,308,334,303,1
297,309,335,303,1
297,311,335,303,1
297,311,334,302,1
296,311,334,302,1
297,311,336,304,1
298,311,337,306,1
299,311,337,309,1
299,311,336,313,1
298,311,335,321,1
296,311,334,330,1
293,310,333,339,1
290,308,334,346,1
289,307,335,348,1
291,304,337,346,1
296,302,338,340,1
302,301,340,331,1
309,303,341,322,1
315,305,339,311,1
316,308,336,299,1
314,309,331,289,1
312,310,327,283,1
310,310,323,281,1
310,311,321,279,1
311,311,320,277,1
310,310,319,273,1
308,309,319,270,1
305,308,319,268,1
304,308,320,269,1
305,307,320,273,1
307,305,321,278,1
309,304,321,283,1
311,303,322,289,1
313,303,323,295,1
317,303,325,302,1
321,304,326,307,1
323,306,325,312,1
323,308,325,315,1
321,310,324,315,1
316,311,323,313,1
310,311,322,310,1
302,310,321,306,1
294,310,320,304,1
288,309,320,303,1
285,309,320,304,1
283,310,320,304,1
283,310,320,305,1
284,311,321,306,1
286,311,320,306,1
287,310,318,306,1
287,307,316,307,1
288,304,315,310,1
290,302,315,314,1
293,301,316,318,1
296,301,316,321,1
300,302,319,324,1
304,303,323,328,1
309,306,327,332,1
312,308,330,335,1
315,311,333,339,1
316,313,334,343,1
314,315,334,346,1
311,317,334,347,1
308,318,333,344,1
305,319,332,337,1
303,320,331,329,1
302,320,329,320,1
300,318,328,314,1
299,316,326,308,1
297,311,324,301,1
296,305,322,294,1
297,301,321,288,1
298,297,319,285,1
300,295,319,284,1
302,293,320,285,1
303,292,321,286,1
305,293,321,288,1
306,294,322,289,1
305,296,322,289,1
304,298,321,288,1
303,300,320,286,1
303,301,320,285,1
303,302,321,286,1
302,303,321,287,1
301,304,323,288,1
298,304,324,289,1
292,303,324,290,1
283,301,323,292,1
273,300,321,295,1
272,299,319,299,1
280,298,318,303,1
291,296,317,308,1
301,296,317,314,1
310,296,318,317,1
316,297,320,319,1
321,299,322,321,1
324,301,323,325,1
326,304,324,329,1
325,306,326,329,1
325,308,327,326,1
324,310,327,321,1
322,311,327,315,1
320,312,327,310,1
318,312,327,305,1
316,312,326,302,1
315,311,325,301,1
313,311,323,300,1
310,309,321,300,1
308,307,319,299,1
305,305,317,297,1
302,302,314,294,1
301,300,312,291,1
302,298,309,288,1
305,296,310,287,1
308,295,312,287,1
309,296,315,290,1
309,297,317,294,1
309,299,319,300,1
309,303,321,304,1
310,306,324,308,1
311,310,326,311,1
312,313,328,314,1
311,315,329,312,1
309,316,330,309,1
307,316,331,306,1
306,315,331,305,1
306,314,331,305,1
306,312,329,305,1
308,310,327,304,1
309,307,324,301,1
309,304,321,300,1
309,301,319,302,1
309,298,317,308,1
309,297,314,314,1
311,296,312,319,1
312,296,311,323,1
313,296,311,325,1
313,298,312,325,1
313,298,315,323,1
312,299,320,320,1
311,300,324,317,1
309,301,327,313,1
307,303,329,309,1
305,305,330,302,1
305,305,330,296,1
306,305,329,294,1
308,304,329,294,1
307,304,328,296,1
305,304,326,299,1
302,304,324,300,1
298,303,322,299,1
294,301,321,298,1
290,300,320,294,1
287,299,320,291,1
289,298,320,288,1
297,298,320,286,1
306,298,321,286,1
310,299,322,288,1
309,301,323,291,1
305,303,323,293,1
298,304,321,293,1
292,305,320,292,1
285,306,319,291,1
281,307,318,292,1
283,306,318,295,1
292,306,318,300,1
302,305,318,306,1
311,304,318,311,1
316,303,319,313,1
317,301,318,312,1
317,299,319,309,1
318,298,319,304,1
319,295,320,300,1
321,293,320,296,1
322,292,321,295,1
324,292,322,294,1
324,294,322,294,1
323,296,321,293,1
318,298,320,293,1
313,300,320,293,1
309,302,321,294,1
305,303,322,294,1
302,304,322,293,1
300,304,322,293,1
300,304,321,294,1
302,304,321,296,1
305,304,320,299,1
307,304,321,302,1
306,304,320,305,1
305,302,319,306,1
304,300,317,307,1
305,298,316,307,1
307,297,315,308,1
309,297,315,306,1
312,297,317,304,1
315,298,318,302,1
318,299,319,298,1
319,300,321,296,1
317,303,323,295,1
313,304,324,296,1
310,305,325,296,1
308,306,325,299,1
307,306,325,301,1
308,305,324,305,1
311,305,323,309,1
312,305,323,312,1
312,304,323,314,1
311,304,322,314,1
310,305,323,313,1
309,304,323,312,1
308,303,324,312,1
309,303,324,312,1
310,303,322,313,1
311,302,320,315,1
312,300,319,318,1
311,300,320,321,1
311,300,321,324,1
310,302,322,325,1
309,304,322,323,1
308,305,322,318,1
308,306,322,309,1
307,306,322,299,1
305,304,321,290,1
304,303,320,285,1
304,303,318,285,1
301,304,317,285,1
297,304,315,286,1
295,305,315,286,1
296,306,315,285,1
297,305,314,284,1
297,304,314,285,1
295,301,313,285,1
290,299,313,287,1
286,296,313,290,1
288,295,313,293,1
295,296,314,297,1
303,299,316,301,1
311,303,318,305,1
316,306,322,311,1
318,309,325,318,1
317,312,326,325,1
314,314,327,330,1
310,314,326,332,1
308,315,324,332,1
307,314,321,330,1
308,314,319,326,1
310,313,316,319,1
312,313,314,311,1
314,311,313,303,1
315,310,313,295,1
317,308,313,290,1
319,306,313,287,1
322,302,313,286,1
324,299,314,287,1
325,298,315,290,1
323,297,316,293,1
320,298,316,293,1
316,300,316,293,1
312,302,316,291,1
307,304,315,289,1
304,305,314,289,1
302,306,313,289,1
300,306,313,291,1
298,305,313,294,1
296,305,314,297,1
296,305,315,299,1
298,306,316,301,1
304,307,318,304,1
311,308,319,307,1
318,308,320,308,1
322,307,320,307,1
321,306,319,304,1
317,303,317,302,1
313,302,317,303,1
310,301,317,308,1
308,303,318,315,1
306,305,319,324,1
305,307,320,332,1
302,310,321,337,1
299,313,321,339,1
296,315,320,336,1
292,315,319,329,1
288,315,317,319,1
283,314,315,309,1
282,313,312,301,1
288,313,311,296,1
297,313,313,294,1
304,312,318,292,1
307,310,321,291,1
306,308,321,292,1
303,306,320,294,1
302,304,319,299,1
302,303,320,306,1
305,303,321,314,1
309,303,322,320,1
313,304,323,325,1
316,305,324,327,1
317,307,325,327,1
313,310,325,323,1
308,312,324,317,1
303,314,321,310,1
302,316,319,304,1
303,316,318,299,1
306,317,318,297,1
309,317,318,298,1
310,317,319,300,1
312,316,320,303,1
313,315,321,305,1
314,313,321,307,1
314,311,321,308,1
314,308,320,310,1
315,306,319,313,1
316,304,318,316,1
313,302,317,318,1
308,300,317,317,1
303,299,317,316,1
298,299,318,318,1
295,300,318,319,1
292,302,318,320,1
292,304,318,319,1
292,305,318,316,1
293,305,316,309,1
293,306,314,301,1
293,307,314,294,1
294,307,314,288,1
295,307,314,285,1
298,307,314,283,1
300,306,313,280,1
302,304,312,278,1
305,303,312,277,1
307,301,312,276,1
308,298,312,278,1
309,296,314,282,1
311,295,316,288,1
314,294,319,294,1
316,294,323,301,1
318,296,327,307,1
315,298,329,313,1
311,301,330,317,1
305,303,329,319,1
301,305,327,320,1
297,306,323,319,1
293,307,320,316,1
289,308,316,310,1
285,310,313,304,1
281,310,311,298,1
277,309,311,294,1
277,308,311,293,1
282,307,312,292,1
291,307,314,293,1
299,307,314,295,1
306,305,314,297,1
312,304,312,301,1
316,302,311,305,1
317,302,310,309,1
316,302,310,314,1
312,303,312,317,1
306,305,316,319,1
300,308,321,320,1
297,311,325,321,1
296,314,328,322,1
296,316,330,322,1
296,317,330,324,1
299,318,329,326,1
305,319,327,329,1
310,319,324,332,1
312,318,321,334,1
312,318,319,333,1
312,316,317,329,1
311,313,315,321,1
309,310,312,309,1
308,306,310,298,1
307,302,310,288,1
307,299,310,283,1
308,297,312,283,1
309,297,314,288,1
309,298,317,295,1
308,302,319,301,1
304,304,320,305,1
298,307,320,305,1
292,308,319,305,1
288,309,318,304,1
288,309,316,302,1
294,309,316,301,1
301,308,315,299,1
307,308,314,298,1
311,307,314,297,1
312,305,315,296,1
311,305,315,296,1
308,304,315,296,1
306,302,314,297,1
305,302,315,298,1
304,301,315,300,1
304,301,317,304,1
305,301,318,311,1
308,301,320,317,1
310,302,321,322,1
310,302,322,324,1
308,303,323,322,1
304,303,323,317,1
299,303,321,309,1
295,303,319,303,1
293,304,316,299,1
292,304,314,298,1
292,305,313,298,1
293,306,313,299,1
296,306,312,299,1
299,305,311,298,1
302,305,311,296,1
304,303,310,292,1
305,302,310,289,1
307,301,310,288,1
308,300,309,287,1
311,299,308,288,1
312,299,308,289,1
313,299,309,291,1
313,299,310,292,1
310,301,312,295,1
306,302,313,297,1
307,303,314,300,1
309,304,314,302,1
309,305,312,305,1
306,307,311,310,1
299,308,310,313,1
293,310,310,315,1
288,311,311,317,1
287,311,312,319,1
289,311,313,321,1
295,311,312,322,1
303,311,311,321,1
311,310,310,319,1
316,310,310,318,1
320,308,311,317,1
322,307,314,315,1
322,305,318,312,1
321,303,321,309,1
321,303,325,309,1
321,304,327,309,1
322,306,326,309,1
322,308,324,308,1
319,309,321,305,1
315,310,320,303,1
310,311,321,301,1
304,310,321,299,1
298,308,322,298,1
292,306,323,299,1
288,304,323,303,1
287,303,323,309,1
289,303,323,318,1
294,304,323,325,1
302,306,323,329,1
310,307,323,331,1
316,308,325,331,1
319,308,328,329,1
320,309,330,325,1
319,309,332,320,1
317,310,334,317,1
315,310,334,315,1
314,309,332,314,1
311,309,329,313,1
308,308,325,310,1
304,307,321,307,1
301,307,315,304,1
300,307,311,302,1
300,307,308,301,1
301,307,306,300,1
301,307,306,298,1
300,305,306,296,1
298,304,306,297,1
296,302,306,299,1
294,301,307,300,1
293,301,307,300,1
297,300,307,299,1
304,300,309,297,1
309,301,310,293,1
312,301,311,289,1
313,302,312,287,1
313,303,314,287,1
314,305,316,287,1
315,305,317,289,1
315,306,318,291,1
314,307,318,294,1
312,308,319,298,1
312,308,319,302,1
309,308,319,305,1
306,308,318,308,1
301,306,317,311,1
297,304,314,312,1
295,303,312,313,1
294,303,310,313,1
296,303,308,312,1
302,302,306,309,1
310,300,304,307,1
317,299,301,304,1
320,297,299,301,1
318,296,298,298,1
315,296,300,295,1
310,298,306,293,1
306,300,312,292,1
302,302,318,291,1
300,303,320,292,1
298,304,321,294,1
297,304,322,298,1
296,306,322,302,1
296,306,323,308,1
298,307,325,314,1
302,307,326,319,1
306,307,326,322,1
309,307,325,326,1
312,304,325,330,1
314,302,325,332,1
314,300,324,333,1
314,299,324,331,1
313,299,323,325,1
312,299,321,317,1
311,299,320,310,1
311,299,320,303,1
313,300,321,298,1
315,301,321,293,1
317,301,320,289,1
318,303,319,287,1
319,304,318,287,1
320,305,317,289,1
321,306,316,292,1
320,306,315,295,1
318,306,314,298,1
313,305,313,302,1
308,304,313,306,1
303,304,313,308,1
300,304,314,309,1
298,303,316,311,1
297,303,319,312,1
297,302,322,313,1
297,302,324,313,1
298,302,325,314,1
299,302,325,314,1
301,302,325,316,1
301,303,327,318,1
300,303,328,322,1
297,304,328,327,1
298,307,326,333,1
302,309,323,337,1
304,311,318,337,1
304,312,315,333,1
304,313,314,328,1
304,313,314,321,1
301,312,313,314,1
298,312,313,305,1
296,310,312,296,1
298,308,310,286,1
301,305,308,279,1
305,302,307,275,1
310,300,308,275,1
314,298,309,278,1
316,296,311,285,1
316,297,313,294,1
313,299,316,304,1
309,302,317,310,1
303,304,318,313,1
298,307,318,313,1
292,310,317,310,1
286,312,315,306,1
282,312,314,303,1
284,313,313,301,1
293,313,313,300,1
306,314,313,302,1
316,313,313,304,1
322,312,314,306,1
323,312,315,307,1
322,310,315,308,1
321,310,315,308,1
320,309,314,310,1
320,308,311,313,1
320,307,308,315,1
319,306,305,313,1
319,304,303,310,1
319,304,304,308,1
317,304,306,307,1
313,306,310,305,1
308,307,315,302,1
303,308,319,297,1
300,309,321,292,1
300,309,321,286,1
302,308,320,282,1
305,308,319,280,1
308,308,317,280,1
309,308,315,280,1
309,307,314,281,1
308,306,313,282,1
307,304,311,286,1
305,302,310,291,1
304,301,309,296,1
304,299,307,301,1
305,298,306,306,1
305,297,305,310,1
306,297,306,314,1
306,299,309,317,1
306,301,312,321,1
304,304,315,325,1
302,307,317,327,1
300,309,318,329,1
298,311,320,332,1
297,312,321,335,1
301,312,322,339,1
309,312,323,340,1
315,312,323,340,1
318,310,322,340,1
317,309,319,341,1
315,308,316,339,1
310,307,313,335,1
303,305,310,330,1
297,303,308,323,1
292,301,306,315,1
289,299,304,307,1
290,297,303,300,1
293,297,303,295,1
297,296,304,291,1
302,296,305,289,1
307,297,306,288,1
310,299,307,288,1
312,301,307,287,1
313,302,307,288,1
311,304,306,288,1
309,305,304,291,1
307,306,303,294,1
304,308,303,298,1
301,308,303,300,1
297,308,303,302,1
298,308,305,304,1
304,308,307,306,1
311,307,309,307,1
318,305,309,308,1
321,303,310,308,1
322,301,310,307,1
321,301,311,309,1
319,302,313,311,1
316,302,315,314,1
313,304,316,316,1
309,305,317,317,1
303,306,316,318,1
297,306,315,320,1
293,308,314,321,1
292,309,313,323,1
295,310,313,322,1
299,310,313,321,1
304,311,312,319,1
308,310,312,317,1
310,310,312,316,1
310,309,311,314,1
310,307,310,313,1
309,305,308,313,1
311,304,306,315,1
315,303,305,319,1
319,302,305,321,1
322,302,304,321,1
323,302,305,319,1
322,302,308,315,1
319,303,313,311,1
316,304,317,306,1
312,304,319,301,1
310,304,320,297,1
311,303,320,296,1
312,304,318,298,1
313,306,316,303,1
311,307,314,307,1
307,308,311,308,1
303,308,309,308,1
301,308,308,308,1
300,308,307,306,1
303,307,307,304,1
304,306,306,301,1
303,304,306,297,1
301,302,306,293,1
298,300,307,288,1
294,300,308,287,1
292,301,309,287,1
291,303,311,289,1
291,305,313,290,1
294,306,314,293,1
301,308,316,296,1
306,310,316,300,1
309,311,316,303,1
309,312,314,305,1
309,313,313,307,1
309,313,311,307,1
309,313,309,306,1
309,312,309,305,1
310,311,310,303,1
309,309,311,301,1
309,308,311,301,1
309,306,313,304,1
310,305,315,308,1
310,304,317,313,1
309,304,318,319,1
308,303,319,324,1
308,304,321,329,1
306,304,322,332,1
302,304,324,333,1
298,305,325,331,1
294,306,325,329,1
291,307,324,326,1
289,309,321,323,1
292,312,318,319,1
299,314,314,313,1
306,314,311,305,1
310,314,308,298,1
311,313,305,294,1
311,312,302,292,1
311,310,300,292,1
311,309,298,295,1
313,307,298,302,1
314,305,299,310,1
313,303,300,318,1
309,301,302,323,1
305,301,305,326,1
302,302,309,327,1
302,304,312,327,1
304,306,314,326,1
307,309,316,324,1
311,311,316,321,1
315,313,316,319,1
320,315,315,316,1
323,316,313,314,1
325,316,310,313,1
323,315,308,310,1
320,314,307,307,1
315,312,306,304,1
310,310,304,301,1
306,308,303,298,1
303,307,302,296,1
301,305,302,295,1
300,303,301,295,1
300,301,300,299,1
301,300,300,306,1
301,300,300,314,1
302,302,300,320,1
304,304,300,324,1
306,306,302,322,1
308,308,304,316,1
309,309,307,306,1
308,308,309,296,1
303,307,311,286,1
297,306,311,279,1
290,305,311,276,1
284,304,310,276,1
279,303,309,278,1
280,302,308,280,1
286,302,308,281,1
294,303,308,282,1
300,303,308,285,1
304,302,308,288,1
306,301,309,293,1
308,300,309,297,1
309,300,310,301,1
310,301,310,305,1
312,301,310,308,1
316,302,311,312,1
320,304,312,315,1
323,306,314,317,1
323,308,316,319,1
323,311,316,321,1
321,312,316,324,1
319,314,317,325,1
317,314,317,324,1
314,313,317,320,1
312,312,317,316,1
311,310,316,313,1
311,308,314,311,1
311,306,313,311,1
310,304,311,313,1
307,302,310,315,1
306,301,311,317,1
305,299,311,319,1
303,299,311,319,1
303,299,312,319,1
306,299,313,320,1
311,301,315,322,1
316,303,317,324,1
317,306,320,326,1
317,308,322,328,1
315,309,323,329,1
312,310,321,330,1
310,311,319,329,1
309,312,316,325,1
308,311,313,324,1
306,312,311,325,1
304,312,310,327,1
301,312,309,327,1
300,310,307,324,1
299,309,306,320,1
302,308,304,315,1
307,307,304,310,1
315,305,302,306,1
321,303,301,305,1
326,302,301,306,1
329,302,302,309,1
330,302,304,312,1
328,304,306,314,1
325,305,307,312,1
318,306,308,307,1
309,308,306,302,1
300,309,304,298,1
292,310,302,296,1
287,310,300,296,1
284,311,300,297,1
284,311,300,299,1
285,311,303,300,1
287,311,307,300,1
290,310,311,299,1
293,310,314,299,1
295,310,316,299,1
297,310,317,298,1
298,309,317,297,1
300,308,317,294,1
302,306,316,293,1
303,306,317,293,1
305,305,316,294,1
305,304,316,296,1
306,304,316,297,1
305,304,316,297,1
304,304,316,297,1
304,305,316,297,1
303,306,316,297,1
302,307,315,297,1
302,308,314,296,1
300,309,313,295,1
297,309,311,293,1
296,308,308,291,1
298,307,304,291,1
302,305,301,291,1
308,304,301,292,1
314,304,303,294,1
317,304,305,298,1
317,304,308,303,1
313,305,312,309,1
309,307,315,316,1
306,310,318,323,1
303,312,321,328,1
301,315,323,332,1
299,316,324,335,1
298,316,324,337,1
299,317,323,337,1
304,317,321,337,1
309,316,318,334,1
311,315,316,330,1
311,313,313,325,1
307,311,312,321,1
304,311,310,318,1
302,310,309,314,1
303,309,308,310,1
307,309,307,305,1
311,306,307,303,1
315,304,308,304,1
318,303,309,308,1
318,303,310,315,1
316,302,309,321,1
309,302,309,326,1
303,303,310,329,1
299,303,312,329,1
302,304,313,325,1
308,304,315,318,1
316,305,316,311,1
322,305,316,305,1
322,306,315,302,1
318,307,312,302,1
311,308,306,307,1
304,309,299,315,1
300,310,292,321,1
298,309,289,322,1
297,307,288,319,1
297,305,290,312,1
298,305,294,306,1
298,304,300,300,1
298,303,305,294,1
298,303,309,289,1
299,304,311,286,1
299,304,312,284,1
299,305,312,283,1
299,306,312,283,1
301,308,312,286,1
303,310,313,290,1
304,311,314,295,1
305,312,316,301,1
304,312,317,305,1
304,312,316,308,1
304,312,315,308,1
303,310,313,306,1
302,309,311,302,1
302,307,309,299,1
302,305,307,296,1
300,304,305,294,1
298,304,304,292,1
301,303,305,293,1
306,303,306,294,1
310,303,307,296,1
312,303,309,299,1
311,303,310,303,1
310,304,310,306,1
309,305,310,309,1
306,308,309,311,1
303,310,308,313,1
304,312,308,314,1
309,312,309,315,1
312,312,310,316,1
311,312,309,317,1
308,311,309,320,1
304,311,309,323,1
301,310,310,326,1
299,310,310,328,1
301,309,309,329,1
306,308,308,329,1
309,307,306,327,1
311,304,306,325,1
312,302,306,323,1
313,300,309,320,1
314,298,311,316,1
315,297,312,312,1
316,299,313,309,1
316,301,313,305,1
315,304,313,300,1
313,306,312,295,1
310,308,311,292,1
308,309,310,291,1
306,310,310,292,1
304,310,309,293,1
303,309,309,296,1
303,309,308,299,1
302,309,308,302,1
302,308,307,302,1
302,307,307,303,1
303,306,307,304,1
303,305,307,307,1
304,304,308,313,1
304,304,309,320,1
305,305,311,328,1
307,306,312,335,1
309,306,313,338,1
313,307,313,338,1
321,307,311,334,1
330,307,310,329,1
335,306,308,322,1
333,305,306,314,1
326,304,303,306,1
315,302,300,301,1
302,301,298,301,1
290,299,298,306,1
281,300,299,313,1
276,301,299,317,1
273,303,299,315,1
276,304,297,309,1
284,304,294,302,1
293,303,291,295,1
299,302,290,292,1
305,303,292,289,1
312,303,297,288,1
317,304,302,287,1
320,305,305,287,1
319,307,308,288,1
317,309,309,290,1
314,311,310,291,1
311,311,309,292,1
309,312,307,293,1
307,312,305,293,1
305,312,304,293,1
305,312,304,294,1
305,311,305,294,1
306,309,305,295,1
305,308,305,295,1
305,307,305,294,1
304,306,304,293,1
303,305,303,292,1
303,304,301,293,1
303,302,300,294,1
306,300,299,297,1
310,299,300,302,1
316,299,302,308,1
319,301,304,316,1
322,303,306,324,1
322,306,308,330,1
318,309,308,334,1
310,311,308,336,1
303,313,308,335,1
298,315,309,333,1
295,317,309,330,1
293,318,309,327,1
292,318,309,323,1
295,318,308,320,1
300,316,308,317,1
305,313,308,314,1
307,309,306,311,1
308,306,305,309,1
309,302,304,308,1
309,299,303,309,1
310,297,304,310,1
312,296,304,309,1
313,296,306,304,1
313,296,307,299,1
315,297,307,295,1
319,298,305,294,1
321,299,302,292,1
321,300,299,291,1
318,301,298,291,1
313,302,300,292,1
310,304,304,294,1
307,304,309,295,1
306,305,313,296,1
306,305,316,298,1
306,305,317,299,1
309,304,317,301,1
311,303,315,304,1
314,301,313,307,1
318,300,310,312,1
324,299,309,317,1
330,298,306,323,1
332,299,305,329,1
329,301,304,333,1
321,303,303,336,1
313,305,304,339,1
304,308,306,340,1
298,310,308,342,1
294,311,311,342,1
291,311,313,340,1
289,310,314,336,1
289,308,314,328,1
293,306,313,317,1
299,304,311,305,1
304,302,309,295,1
307,301,308,285,1
307,301,306,279,1
306,300,305,275,1
305,299,304,275,1
304,299,304,278,1
303,298,305,285,1
304,298,307,293,1
307,298,310,301,1
312,300,311,308,1
316,302,311,312,1
320,305,311,314,1
322,307,311,313,1
322,308,311,309,1
321,309,312,304,1
319,308,312,300,1
316,308,311,296,1
312,308,309,293,1
308,308,308,292,1
302,308,307,291,1
297,307,306,291,1
293,306,306,291,1
291,305,306,289,1
290,304,307,288,1
289,302,308,289,1
290,301,309,292,1
294,300,310,297,1
299,299,311,303,1
305,300,312,307,1
310,300,311,312,1
313,301,309,314,1
315,303,307,315,1
316,305,305,313,1
317,308,304,308,1
318,310,304,303,1
320,311,305,298,1
322,311,306,294,1
323,310,307,292,1
321,309,306,291,1
319,308,306,292,1
316,307,307,294,1
314,307,308,297,1
311,306,309,300,1
310,306,310,303,1
311,303,310,305,1
313,301,310,306,1
313,298,309,307,1
311,295,309,308,1
307,293,310,309,1
305,293,311,313,1
306,295,314,319,1
310,297,316,326,1
313,299,318,332,1
313,302,320,337,1
310,305,320,339,1
304,307,320,338,1
297,307,319,333,1
291,307,318,328,1
287,307,316,322,1
287,307,314,315,1
292,306,310,307,1
300,305,306,301,1
306,304,302,296,1
309,302,299,293,1
310,299,297,291,1
310,296,297,289,1
309,293,300,288,1
310,291,305,288,1
313,292,311,289,1
317,294,314,293,1
320,296,316,299,1
321,298,315,304,1
318,301,315,308,1
315,304,315,310,1
312,307,315,311,1
310,310,315,312,1
309,313,315,316,1
309,315,315,320,1
308,315,314,327,1
308,315,313,334,1
308,314,313,340,1
306,314,313,343,1
302,313,312,343,1
297,311,310,339,1
291,308,308,332,1
287,306,306,322,1
286,303,305,313,1
291,301,305,305,1
301,300,305,299,1
312,298,307,294,1
321,298,309,291,1
327,299,310,290,1
329,301,311,288,1
326,302,311,289,1
321,303,310,291,1
318,306,308,294,1
316,308,307,296,1
315,308,306,297,1
315,308,306,297,1
315,308,306,297,1
316,309,306,295,1
317,309,305,293,1
317,308,305,292,1
318,307,304,292,1
319,305,303,293,1
321,303,303,294,1
323,302,303,296,1
323,301,304,300,1
320,300,305,303,1
315,302,306,307,1
308,303,307,308,1
304,306,308,309,1
302,308,308,310,1
303,309,308,311,1
304,310,308,312,1
305,310,309,313,1
305,310,309,314,1
305,309,308,315,1
305,309,307,316,1
306,309,306,316,1
308,308,305,315,1
310,307,305,312,1
313,306,303,307,1
316,304,302,299,1
316,300,300,291,1
313,297,298,287,1
308,295,297,288,1
303,293,298,293,1
300,292,301,301,1
298,293,304,310,1
297,295,306,315,1
300,297,309,316,1
305,299,310,313,1
309,302,310,310,1
311,305,307,308,1
309,307,304,308,1
306,307,299,308,1
303,308,294,309,1
300,310,289,311,1
298,311,285,313,1
297,312,285,316,1
298,312,288,318,1
301,312,293,320,1
304,311,298,320,1
307,310,301,319,1
310,307,302,314,1
314,305,302,308,1
317,302,301,302,1
318,298,299,296,1
316,296,297,292,1
314,295,297,289,1
313,296,297,289,1
312,299,298,291,1
308,302,301,293,1
304,305,302,296,1
299,308,303,300,1
298,311,304,305,1
301,313,305,312,1
305,315,306,321,1
309,315,307,332,1
313,316,307,339,1
316,316,307,342,1
319,315,306,340,1
320,314,305,337,1
320,312,304,332,1
319,309,302,326,1
316,305,300,319,1
311,302,299,310,1
306,301,299,302,1
300,300,300,296,1
295,301,302,292,1
292,303,304,290,1
290,305,307,289,1
290,307,307,287,1
292,309,308,287,1
295,310,308,287,1
297,311,307,287,1
299,311,306,288,1
298,312,305,291,1
295,312,305,294,1
291,312,305,298,1
287,312,305,302,1
282,312,306,305,1
280,310,305,308,1
283,309,304,308,1
292,307,303,306,1
303,305,303,303,1
314,304,303,300,1
322,303,304,298,1
326,302,304,300,1
329,302,305,306,1
330,303,306,314,1
330,306,307,321,1
327,308,308,325,1
321,311,307,326,1
316,313,307,325,1
313,314,306,322,1
311,314,306,319,1
309,314,306,315,1
308,313,305,312,1
307,313,306,308,1
307,312,306,303,1
306,310,306,299,1
305,308,304,295,1
305,306,303,292,1
305,303,302,292,1
305,301,301,294,1
305,300,298,297,1
303,299,295,298,1
303,300,291,298,1
304,301,290,297,1
306,303,290,298,1
307,305,294,300,1
309,307,299,303,1
310,308,305,305,1
312,309,310,306,1
313,309,314,306,1
314,309,317,306,1
313,309,318,307,1
311,308,317,306,1
309,308,313,306,1
308,308,311,306,1
308,306,309,305,1
308,304,307,304,1
306,303,307,304,1
304,301,307,303,1
302,299,307,304,1
298,298,306,303,1
294,297,304,305,1
295,298,304,308,1
303,299,304,313,1
312,303,306,322,1
320,306,307,333,1
322,309,308,342,1
320,311,308,348,1
315,313,309,350,1
308,314,309,348,1
300,315,310,343,1
292,314,310,334,1
288,314,309,323,1
288,313,309,311,1
291,311,308,302,1
293,311,307,296,1
294,310,305,294,1
293,309,305,297,1
291,307,306,302,1
290,305,308,310,1
290,305,310,318,1
291,304,312,326,1
296,305,313,332,1
304,305,313,334,1
312,307,314,334,1
317,308,314,332,1
318,309,314,329,1
315,310,313,325,1
310,311,310,320,1
304,311,308,313,1
301,311,307,306,1
299,311,307,298,1
298,311,307,292,1
298,311,306,288,1
297,311,305,284,1
296,310,303,281,1
294,307,301,279,1
295,305,300,278,1
299,302,299,280,1
305,300,299,283,1
312,299,299,288,1
315,300,300,292,1
315,300,300,295,1
312,301,300,296,1
307,302,300,296,1
303,304,299,296,1
300,306,298,296,1
300,308,298,295,1
302,310,298,295,1
305,311,297,295,1
306,312,297,296,1
305,312,297,296,1
303,311,297,297,1
302,310,297,296,1
302,309,296,294,1
304,307,296,292,1
306,306,295,290,1
308,304,293,288,1
309,302,289,287,1
310,301,287,287,1
312,300,286,289,1
312,299,287,292,1
311,300,290,296,1
310,300,295,301,1
310,302,303,305,1
308,303,309,309,1
305,305,313,312,1
301,306,315,315,1
296,309,315,317,1
291,311,315,319,1
286,313,315,322,1
284,314,313,324,1
285,314,312,326,1
289,314,311,327,1
293,314,310,327,1
295,313,308,327,1
297,312,306,323,1
298,310,304,318,1
300,307,303,309,1
302,305,302,303,1
303,302,302,303,1
302,300,303,307,1
299,300,303,313,1
301,302,304,317,1
308,304,307,319,1
314,308,309,318,1
316,310,311,316,1
314,312,312,313,1
310,313,312,311,1
305,314,310,309,1
303,313,307,307,1
301,312,303,305,1
300,311,299,302,1
299,310,297,299,1
299,309,297,296,1
302,308,298,295,1
306,307,299,294,1
309,306,300,293,1
310,305,300,294,1
311,303,300,295,1
313,300,300,297,1
315,298,301,300,1
317,298,302,303,1
318,299,302,305,1
318,300,303,306,1
318,302,302,305,1
315,304,301,301,1
312,305,299,297,1
309,307,299,293,1
306,308,299,288,1
304,308,301,285,1
302,308,301,283,1
303,307,302,283,1
304,307,301,286,1
305,307,301,289,1
306,307,300,292,1
307,306,299,293,1
308,305,298,294,1
309,303,298,297,1
311,302,298,299,1
314,301,300,302,1
317,301,300,304,1
320,300,301,306,1
323,301,302,307,1
322,301,304,307,1
318,302,305,306,1
311,303,306,304,1
302,304,305,300,1
291,304,303,297,1
281,303,299,294,1
276,302,295,293,1
277,302,291,293,1
283,302,289,295,1
289,302,288,300,1
295,303,289,304,1
299,303,291,308,1
301,303,296,312,1
301,303,300,315,1
299,303,303,319,1
298,302,305,323,1
298,302,307,327,1
298,302,309,332,1
300,303,310,338,1
302,305,312,345,1
306,307,313,351,1
312,309,313,353,1
315,310,315,350,1
315,310,316,343,1
312,311,317,334,1
308,311,317,327,1
301,311,315,322,1
295,311,311,319,1
293,310,307,315,1
294,310,303,310,1
296,309,300,303,1
298,307,298,294,1
302,305,297,286,1
309,303,295,279,1
315,300,295,275,1
320,297,294,272,1
322,295,295,271,1
322,293,296,271,1
321,292,298,274,1
318,292,299,278,1
315,293,301,284,1
312,294,304,291,1
310,296,305,299,1
308,299,306,305,1
307,303,307,309,1
306,305,308,311,1
306,307,308,310,1
306,308,308,311,1
308,309,308,311,1
308,309,308,313,1
307,309,308,311,1
305,308,306,307,1
303,306,305,304,1
302,304,305,301,1
302,302,305,299,1
303,301,303,298,1
304,300,300,298,1
304,300,298,298,1
302,300,297,299,1
300,301,295,299,1
299,302,295,300,1
301,304,295,302,1
303,306,296,302,1
308,307,298,303,1
312,310,299,303,1
314,311,300,302,1
312,311,300,301,1
309,311,301,300,1
305,310,301,299,1
301,309,300,297,1
297,308,300,295,1
296,307,301,292,1
298,306,301,290,1
302,304,302,288,1
304,302,301,289,1
304,300,299,291,1
304,299,296,296,1
301,297,293,303,1
296,297,291,310,1
289,299,291,319,1
285,302,293,327,1
282,306,298,335,1
281,309,304,341,1
279,312,311,345,1
280,315,316,344,1
282,317,319,341,1
286,317,319,335,1
287,317,319,330,1
287,316,318,324,1
292,317,316,319,1
302,317,315,312,1
311,315,313,304,1
316,313,310,296,1
318,310,308,287,1
318,307,306,280,1
318,305,306,277,1
319,303,306,276,1
321,303,306,279,1
323,303,306,282,1
324,304,306,285,1
323,305,306,287,1
320,305,306,288,1
316,306,307,289,1
311,308,307,290,1
307,309,309,293,1
304,311,310,297,1
301,312,311,306,1
303,313,311,317,1
309,313,312,328,1
316,314,312,336,1
322,315,310,338,1
323,316,308,337,1
321,316,305,334,1
319,315,303,330,1
317,314,301,325,1
317,312,300,318,1
317,310,300,311,1
317,308,300,303,1
316,307,300,296,1
315,306,300,291,1
313,307,302,288,1
312,309,302,286,1
311,310,302,286,1
310,310,301,288,1
310,311,299,290,1
310,312,297,293,1
311,314,296,297,1
311,315,295,299,1
307,315,294,301,1
300,314,295,302,1
293,312,297,303,1
288,310,299,304,1
285,308,300,305,1
285,307,301,304,1
289,306,300,302,1
293,306,299,301,1
297,305,299,300,1
299,305,300,301,1
299,305,302,304,1
296,306,304,308,1
294,307,306,310,1
292,310,308,312,1
293,312,310,312,1
296,313,310,310,1
299,314,310,307,1
302,314,309,304,1
303,313,309,303,1
301,313,309,303,1
297,312,310,306,1
291,311,310,310,1
286,310,310,312,1
286,309,310,314,1
294,308,310,315,1
302,306,310,313,1
308,303,310,308,1
311,301,308,303,1
312,299,307,299,1
314,298,307,298,1
317,299,308,299,1
321,300,308,300,1
323,303,305,302,1
323,305,302,304,1
320,308,298,305,1
317,310,296,307,1
314,312,295,308,1
312,313,297,309,1
312,314,300,309,1
313,315,303,310,1
313,315,305,309,1
312,315,306,306,1
313,314,306,303,1
314,312,306,299,1
316,310,304,294,1
316,307,303,289,1
314,304,302,285,1
312,301,302,283,1
308,299,301,283,1
303,298,301,287,1
299,297,302,291,1
295,297,303,295,1
294,298,305,299,1
294,301,308,304,1
297,304,311,308,1
301,307,314,311,1
304,309,316,314,1
305,311,315,316,1
304,313,313,317,1
300,313,310,319,1
297,313,306,321,1
296,313,304,322,1
295,312,303,321,1
296,310,303,322,1
297,309,303,327,1
299,308,302,334,1
301,307,302,340,1
303,306,302,342,1
305,305,301,342,1
305,305,300,339,1
306,305,300,334,1
306,306,300,328,1
306,307,301,319,1
305,309,302,310,1
303,310,301,299,1
299,310,300,289,1
295,310,299,280,1
291,309,298,273,1
287,308,297,270,1
285,307,297,270,1
283,307,297,272,1
284,306,298,276,1
286,307,299,282,1
289,307,299,289,1
293,307,300,296,1
299,307,300,304,1
306,307,301,312,1
310,307,301,321,1
312,308,302,329,1
313,310,304,336,1
314,311,306,340,1
314,312,309,342,1
314,313,311,343,1
313,314,313,343,1
311,315,314,340,1
309,315,314,336,1
304,315,314,329,1
299,313,312,321,1
294,312,309,311,1
290,311,306,301,1
289,310,303,292,1
292,309,301,285,1
295,307,298,280,1
299,305,295,278,1
304,304,291,278,1
310,303,287,279,1
314,301,286,283,1
316,300,286,287,1
315,300,286,292,1
313,301,288,295,1
312,302,292,298,1
311,304,297,300,1
310,305,301,301,1
310,307,304,300,1
310,307,304,299,1
310,308,304,298,1
309,308,304,298,1
309,308,305,300,1
308,308,305,302,1
309,309,306,304,1
310,311,307,307,1
313,313,308,310,1
316,313,310,313,1
317,313,310,316,1
318,312,311,321,1
318,311,312,326,1
316,310,312,331,1
314,310,312,334,1
312,309,311,334,1
311,307,309,332,1
311,306,308,330,1
312,304,306,328,1
312,304,306,325,1
309,303,305,320,1
304,303,304,313,1
300,304,302,306,1
296,304,300,302,1
294,305,299,301,1
292,305,299,303,1
291,306,299,306,1
292,307,298,309,1
292,308,296,310,1
293,309,293,311,1
294,310,291,310,1
296,310,291,308,1
298,309,291,306,1
301,308,292,302,1
304,307,293,300,1
309,306,294,299,1
312,304,296,299,1
313,303,298,302,1
311,303,300,305,1
309,303,303,311,1
307,304,305,317,1
305,306,307,321,1
304,308,307,322,1
305,309,307,322,1
306,311,307,321,1
307,312,307,322,1
306,314,308,321,1
304,314,307,318,1
301,314,307,313,1
298,314,306,307,1
295,313,305,301,1
292,311,302,296,1
293,308,300,290,1
297,304,297,285,1
302,302,295,284,1
305,300,292,286,1
304,299,290,290,1
298,299,291,295,1
292,300,293,300,1
292,303,296,303,1
298,305,299,306,1
306,307,302,309,1
314,309,304,310,1
320,311,305,310,1
324,312,305,308,1
323,313,305,306,1
322,314,304,304,1
320,314,303,302,1
318,314,301,302,1
315,313,299,302,1
312,311,296,302,1
309,309,293,302,1
306,307,290,301,1
304,304,289,301,1
305,303,290,301,1
306,302,294,304,1
307,302,299,308,1
310,303,304,313,1
311,304,309,318,1
311,305,312,322,1
310,307,314,324,1
308,308,314,325,1
303,309,313,324,1
300,310,312,322,1
297,311,310,319,1
295,312,307,315,1
293,311,303,311,1
294,311,301,308,1
298,311,300,310,1
304,311,301,315,1
310,311,302,319,1
314,310,302,320,1
317,308,302,316,1
320,306,301,313,1
322,303,300,311,1
324,301,300,309,1
326,301,301,307,1
328,300,302,306,1
329,300,304,305,1
327,301,305,308,1
319,303,308,312,1
309,304,310,315,1
299,306,311,318,1
292,308,311,322,1
288,308,311,327,1
286,309,310,332,1
287,309,308,334,1
290,309,304,331,1
293,308,300,325,1
297,308,297,318,1
300,306,296,310,1
300,305,296,301,1
298,303,296,294,1
295,301,296,288,1
292,299,296,286,1
291,298,297,288,1
292,298,297,294,1
294,300,299,303,1
296,302,301,313,1
300,305,303,323,1
307,307,304,331,1
313,309,305,335,1
316,312,304,336,1
317,312,303,334,1
316,312,301,329,1
315,312,300,322,1
313,311,299,315,1
311,310,298,309,1
309,310,297,304,1
308,309,296,300,1
305,308,294,297,1
300,306,292,296,1
299,304,290,296,1
302,302,289,297,1
306,301,288,297,1
308,300,291,300,1
309,299,295,304,1
307,299,300,307,1
305,300,303,308,1
302,303,305,308,1
299,305,305,306,1
299,306,304,302,1
299,307,303,298,1
299,308,301,294,1
300,308,300,291,1
303,308,299,289,1
305,308,299,289,1
307,308,300,290,1
307,307,300,292,1
307,307,301,294,1
307,306,301,297,1
306,305,301,300,1
305,303,300,304,1
304,301,299,307,1
305,300,298,311,1
306,299,297,313,1
308,299,297,315,1
309,299,297,315,1
310,299,298,315,1
311,301,299,314,1
311,302,301,312,1
311,304,301,309,1
311,305,301,304,1
312,305,301,299,1
314,305,300,294,1
316,305,300,292,1
317,305,299,293,1
317,304,298,296,1
315,303,297,299,1
311,303,295,301,1
306,302,293,306,1
301,303,293,314,1
300,302,294,324,1
299,302,298,333,1
302,302,303,341,1
306,302,309,346,1
311,302,313,348,1
316,303,315,346,1
319,304,316,342,1
319,305,315,336,1
317,306,312,327,1
314,308,308,318,1
310,309,304,309,1
305,309,301,303,1
299,310,299,300,1
292,310,298,300,1
286,309,298,302,1
282,308,297,303,1
282,308,296,303,1
287,307,294,302,1
297,305,293,299,1
307,304,292,295,1
315,302,291,289,1
318,299,291,284,1
316,297,292,283,1
313,296,294,286,1
309,296,296,291,1
305,298,300,299,1
298,300,303,308,1
291,302,306,317,1
286,304,307,324,1
289,307,308,330,1
297,310,307,334,1
308,311,306,337,1
315,313,304,338,1
318,314,302,334,1
317,313,298,328,1
315,312,294,321,1
314,310,290,314,1
314,308,288,308,1
318,307,288,303,1
321,306,290,299,1
325,305,292,296,1
326,304,296,295,1
326,304,299,294,1
322,303,302,294,1
316,303,303,294,1
309,302,304,296,1
304,304,304,298,1
301,305,305,300,1
299,308,307,300,1
298,310,309,301,1
298,311,310,302,1
300,312,312,304,1
301,312,313,305,1
301,312,313,306,1
301,311,313,307,1
301,310,311,308,1
301,308,310,309,1
301,307,309,309,1
301,305,309,310,1
302,304,308,310,1
306,302,307,311,1
309,300,305,311,1
313,299,305,311,1
316,297,305,312,1
320,297,305,315,1
322,297,306,321,1
322,297,307,330,1
320,299,308,339,1
317,302,309,345,1
316,306,311,347,1
316,309,313,346,1
316,311,315,344,1
314,312,315,340,1
310,312,315,335,1
305,310,314,327,1
301,308,312,320,1
297,306,310,314,1
293,305,309,309,1
290,303,307,304,1
289,300,305,300,1
289,298,301,296,1
291,295,298,295,1
296,293,297,294,1
301,291,296,292,1
306,290,296,290,1
310,290,295,287,1
312,291,294,285,1
312,293,294,285,1
312,296,295,286,1
310,299,297,289,1
307,302,298,293,1
303,304,300,299,1
299,306,301,306,1
297,307,302,312,1
295,308,304,318,1
296,308,305,321,1
300,307,306,322,1
307,306,306,320,1
314,305,306,318,1
315,304,304,313,1
314,303,303,308,1
309,302,301,303,1
305,301,299,300,1
300,299,298,298,1
295,297,298,298,1
292,297,298,300,1
296,297,299,303,1
302,297,300,307,1
307,299,301,312,1
309,301,302,314,1
309,303,302,313,1
309,305,299,308,1
310,305,294,300,1
310,304,290,293,1
311,303,288,287,1
311,302,286,286,1
311,301,286,286,1
311,301,285,288,1
311,301,285,290,1
311,300,285,292,1
309,299,287,293,1
309,297,289,295,1
309,295,293,297,1
312,295,297,300,1
315,295,302,303,1
317,295,305,306,1
319,297,307,309,1
320,300,309,313,1
320,303,310,316,1
320,306,311,320,1
320,308,311,324,1
320,310,310,328,1
320,311,309,332,1
319,311,309,337,1
318,312,308,344,1
316,313,306,347,1
314,313,304,346,1
310,313,302,341,1
306,311,300,335,1
300,308,299,326,1
295,304,299,317,1
291,301,298,309,1
290,298,298,303,1
291,297,299,300,1
294,296,300,300,1
298,296,301,303,1
305,297,303,308,1
312,299,305,311,1
317,300,307,312,1
318,302,308,311,1
317,303,308,311,1
314,306,308,309,1
310,308,308,306,1
306,309,309,302,1
302,309,309,299,1
301,309,307,298,1
303,309,304,297,1
307,309,302,296,1
310,309,300,295,1
309,307,299,294,1
307,306,297,294,1
305,304,296,294,1
304,304,294,297,1
304,303,293,301,1
303,302,295,305,1
303,303,298,310,1
303,303,301,314,1
303,305,303,316,1
302,306,304,318,1
299,308,304,318,1
298,309,304,318,1
302,311,304,316,1
306,312,304,313,1
309,314,303,309,1
311,314,302,302,1
312,314,300,296,1
311,312,298,291,1
309,312,297,289,1
308,310,296,288,1
307,308,295,289,1
306,306,295,292,1
306,304,296,294,1
308,302,297,295,1
311,301,298,295,1
313,299,298,296,1
313,298,298,298,1
312,297,298,300,1
309,298,299,303,1
307,299,299,305,1
305,301,299,307,1
308,303,297,308,1
312,305,295,309,1
318,306,293,311,1
324,307,293,313,1
329,308,293,315,1
330,307,295,316,1
328,307,298,318,1
323,307,302,320,1
318,306,305,321,1
313,305,307,321,1
310,305,309,322,1
308,305,310,325,1
307,305,310,325,1
305,304,309,325,1
304,302,308,324,1
304,302,308,324,1
303,303,308,325,1
302,303,307,326,1
300,304,307,326,1
298,305,306,324,1
297,306,306,322,1
297,308,305,321,1
298,310,305,320,1
301,311,304,320,1
304,310,304,321,1
304,310,304,321,1
302,309,304,320,1
298,309,304,320,1
295,308,303,318,1
293,307,302,317,1
295,305,301,314,1
298,303,300,312,1
301,300,299,309,1
304,298,300,304,1
307,296,300,297,1
309,296,301,291,1
310,296,303,287,1
311,297,306,286,1
312,299,307,286,1
313,302,305,287,1
313,304,304,288,1
311,306,303,292,1
306,307,303,296,1
303,308,302,300,1
301,310,301,305,1
300,311,299,308,1
297,312,297,309,1
297,312,296,308,1
301,311,296,305,1
306,309,295,302,1
310,307,295,299,1
313,305,295,298,1
315,303,296,299,1
316,302,297,301,1
317,301,298,304,1
318,301,299,307,1
319,301,299,310,1
318,302,299,311,1
315,304,299,310,1
310,305,299,307,1
302,306,300,305,1
293,307,299,305,1
286,307,299,306,1
283,308,299,308,1
285,309,299,309,1
290,309,299,309,1
297,310,299,308,1
303,311,298,306,1
308,311,297,304,1
311,310,295,301,1
310,308,293,300,1
307,306,292,300,1
305,304,293,301,1
305,302,293,305,1
307,300,293,309,1
310,300,293,314,1
312,302,292,319,1
313,304,292,324,1
313,307,292,326,1
311,309,292,327,1
309,312,292,326,1
307,314,294,325,1
304,315,297,323,1
302,317,300,319,1
301,317,302,314,1
300,315,303,308,1
301,313,302,304,1
302,311,302,301,1
303,309,302,298,1
303,306,302,296,1
303,303,301,298,1
300,301,300,304,1
295,299,299,313,1
291,299,299,323,1
288,299,300,330,1
289,300,301,336,1
293,300,303,340,1
299,302,306,342,1
305,303,308,342,1
312,304,309,338,1
318,306,310,333,1
320,306,309,324,1
318,306,307,315,1
311,306,306,306,1
303,307,304,299,1
297,307,303,294,1
295,308,302,293,1
295,308,303,293,1
299,308,303,294,1
305,308,305,296,1
311,308,306,297,1
314,306,307,298,1
316,305,307,299,1
316,304,306,300,1
316,304,304,301,1
315,304,302,302,1
312,304,301,304,1
308,305,301,307,1
308,307,302,309,1
309,310,302,310,1
309,311,301,309,1
309,311,300,308,1
310,312,299,306,1
312,313,298,306,1
313,314,297,304,1
314,315,296,305,1
313,315,296,308,1
309,315,296,312,1
303,315,296,316,1
298,314,297,317,1
298,313,297,315,1
300,312,298,311,1
304,310,299,307,1
306,308,300,304,1
307,306,302,304,1
308,306,305,307,1
311,306,306,311,1
313,306,307,315,1
311,307,308,319,1
308,309,307,322,1
305,311,305,322,1
303,312,303,320,1
301,314,301,318,1
301,314,300,315,1
301,315,299,310,1
302,315,298,303,1
303,314,297,297,1
303,313,297,292,1
302,312,296,289,1
300,311,293,289,1
298,310,290,294,1
297,309,287,304,1
297,307,285,313,1
300,307,284,323,1
304,309,285,330,1
309,311,289,334,1
313,313,295,334,1
315,315,301,332,1
314,316,307,328,1
311,316,310,325,1
308,316,312,321,1
303,316,313,315,1
297,315,312,309,1
286,313,310,302,1
277,312,307,297,1
274,310,304,295,1
278,310,303,294,1
283,310,303,297,1
286,310,304,300,1
290,310,305,304,1
296,310,306,307,1
302,309,306,308,1
306,308,305,306,1
308,306,304,304,1
308,304,303,300,1
309,303,303,296,1
311,302,303,290,1
314,302,303,287,1
318,303,303,286,1
322,305,303,286,1
325,306,304,289,1
326,307,303,291,1
325,308,303,293,1
322,308,303,295,1
316,309,303,297,1
310,309,302,298,1
304,309,302,299,1
299,309,301,301,1
293,309,301,303,1
289,309,301,304,1
288,308,300,304,1
289,307,299,305,1
289,306,297,305,1
289,306,296,305,1
292,305,296,304,1
299,305,298,303,1
307,306,299,303,1
315,307,302,304,1
320,309,305,307,1
324,310,307,310,1
324,311,308,311,1
322,312,307,310,1
318,313,306,309,1
314,314,306,309,1
310,315,306,309,1
306,315,305,310,1
301,314,302,309,1
297,314,299,310,1
295,314,298,310,1
294,313,296,309,1
295,311,295,307,1
298,308,294,307,1
302,305,294,307,1
305,303,295,308,1
307,301,296,310,1
310,302,298,311,1
311,302,299,312,1
311,304,301,315,1
310,307,303,320,1
308,310,304,326,1
307,313,303,330,1
304,314,301,331,1
302,315,298,330,1
298,315,295,325,1
294,315,292,319,1
288,314,291,314,1
285,313,291,309,1
288,311,294,305,1
295,309,296,302,1
303,307,299,302,1
308,306,302,302,1
310,304,305,304,1
311,303,307,306,1
310,301,308,311,1
308,300,308,314,1
308,300,308,317,1
307,300,308,318,1
307,302,306,318,1
306,304,305,316,1
306,307,304,312,1
306,308,303,307,1
307,309,303,301,1
308,308,302,297,1
308,307,301,295,1
307,306,300,294,1
306,305,299,295,1
304,304,298,297,1
301,303,298,300,1
297,302,297,302,1
293,302,297,303,1
290,301,297,303,1
287,300,298,302,1
284,299,298,300,1
281,297,299,298,1
281,296,300,297,1
288,297,301,298,1
298,298,303,301,1
306,301,305,306,1
311,304,307,310,1
313,308,307,313,1
314,310,308,315,1
314,311,308,317,1
313,312,308,317,1
311,312,307,316,1
309,312,307,314,1
309,312,306,312,1
309,311,306,312,1
309,311,306,314,1
310,310,305,317,1
312,309,304,319,1
312,306,303,318,1
310,304,302,316,1
308,301,302,312,1
306,298,302,308,1
305,295,304,305,1
305,295,307,303,1
305,296,309,301,1
306,298,310,300,1
306,299,310,299,1
305,301,310,297,1
303,302,309,296,1
301,304,309,293,1
301,305,307,294,1
303,306,305,295,1
305,307,302,298,1
306,308,301,301,1
306,308,300,304,1
305,308,299,304,1
302,306,298,304,1
299,304,298,303,1
297,303,297,302,1
297,302,299,302,1
300,301,300,303,1
302,300,300,304,1
304,300,299,304,1
303,300,299,304,1
302,301,298,306,1
305,303,298,308,1
307,306,299,310,1
305,308,300,311,1
302,311,303,309,1
304,313,305,307,1
307,314,306,306,1
311,314,307,305,1
311,313,307,305,1
308,312,307,306,1
304,310,307,310,1
300,309,307,316,1
297,308,306,323,1
294,308,305,327,1
294,307,305,327,1
295,305,304,320,1
297,302,303,312,1
299,300,303,304,1
302,299,303,298,1
307,299,304,295,1
310,300,304,294,1
313,301,306,294,1
314,302,308,295,1
316,304,308,296,1
316,307,308,297,1
316,309,307,298,1
315,311,306,299,1
313,312,305,300,1
311,313,305,300,1
307,313,305,300,1
303,313,305,300,1
298,312,305,301,1
294,312,305,301,1
290,311,305,300,1
287,310,304,298,1
283,308,303,294,1
282,306,301,291,1
286,303,300,289,1
292,302,300,288,1
298,302,301,290,1
303,302,303,292,1
307,303,305,296,1
310,305,308,302,1
314,307,311,307,1
318,310,311,312,1
320,311,310,316,1
320,312,308,317,1
320,313,306,318,1
318,313,303,320,1
318,313,301,321,1
317,312,299,321,1
316,312,299,320,1
314,310,300,320,1
313,309,301,319,1
312,307,300,317,1
311,305,300,314,1
310,303,299,314,1
308,302,300,315,1
307,302,300,319,1
305,302,301,323,1
302,303,302,326,1
299,305,304,329,1
299,307,305,329,1
302,309,305,325,1
306,310,304,316,1
309,309,302,304,1
309,308,300,292,1
308,307,297,283,1
308,306,296,278,1
308,306,296,275,1
310,305,296,275,1
311,305,296,276,1
309,305,297,279,1
304,304,297,281,1
299,302,297,283,1
295,301,297,286,1
296,300,297,290,1
298,299,298,295,1
302,298,298,300,1
304,298,295,303,1
304,299,292,307,1
303,300,289,309,1
302,302,287,309,1
300,305,286,308,1
299,308,287,307,1
300,311,291,306,1
304,314,297,307,1
308,316,302,311,1
313,317,305,320,1
315,318,308,332,1
316,318,310,341,1
313,319,311,347,1
307,319,310,348,1
302,318,308,343,1
299,316,306,334,1
297,313,304,323,1
295,310,304,313,1
295,306,303,305,1
298,304,304,300,1
304,303,306,299,1
309,303,308,302,1
311,305,310,307,1
312,306,311,311,1
311,308,311,313,1
308,309,310,313,1
306,310,309,311,1
303,311,307,307,1
301,311,304,302,1
301,311,303,298,1
302,311,304,293,1
303,310,303,288,1
305,309,301,285,1
308,307,299,283,1
310,306,296,283,1
311,304,294,283,1
309,301,293,285,1
304,299,292,287,1
301,298,292,293,1
298,297,293,300,1
295,297,296,308,1
295,299,299,316,1
302,301,304,321,1
310,304,308,325,1
317,306,311,330,1
319,309,312,334,1
319,312,313,336,1
317,314,313,337,1
316,315,312,335,1
314,315,311,329,1
314,314,309,320,1
313,312,307,312,1
311,310,305,306,1
309,307,304,304,1
307,304,302,303,1
305,302,300,302,1
302,298,299,299,1
302,295,299,297,1
302,294,300,296,1
302,293,301,297,1
304,294,302,297,1
305,295,303,299,1
307,298,304,300,1
309,301,306,300,1
311,304,308,300,1
312,307,310,298,1
311,309,311,297,1
310,310,312,295,1
308,310,313,295,1
309,311,312,296,1
309,311,312,296,1
309,310,311,295,1
308,309,308,295,1
306,307,303,296,1
304,305,297,297,1
300,304,290,298,1
295,302,285,301,1
291,301,282,304,1
288,300,281,307,1
287,300,283,310,1
287,300,288,311,1
289,300,293,311,1
292,301,297,314,1
299,302,298,316,1
308,304,299,319,1
315,306,299,319,1
317,307,300,318,1
316,309,300,315,1
312,310,301,311,1
309,311,302,306,1
306,312,304,300,1
304,311,305,294,1
304,310,305,288,1
305,308,306,285,1
307,307,306,284,1
308,305,305,287,1
309,303,304,290,1
309,302,303,295,1
307,301,303,298,1
304,301,302,303,1
302,302,302,308,1
300,302,302,313,1
300,304,302,318,1
298,305,303,323,1
296,306,304,326,1
297,309,304,330,1
302,311,306,334,1
307,314,306,336,1
309,315,306,334,1
309,316,305,328,1
307,315,304,322,1
305,315,303,318,1
304,315,303,315,1
303,314,302,313,1
304,312,301,309,1
306,310,300,304,1
307,308,298,298,1
307,304,297,293,1
307,301,297,293,1
305,299,298,296,1
304,299,301,301,1
303,302,303,306,1
303,304,305,311,1
303,307,306,315,1
303,310,307,318,1
303,311,306,319,1
304,312,305,316,1
304,313,304,310,1
305,313,303,304,1
307,313,302,297,1
309,313,302,291,1
312,313,302,288,1
314,312,302,287,1
315,311,302,288,1
316,309,302,288,1
318,307,302,289,1
320,304,303,291,1
321,302,304,293,1
320,300,304,295,1
316,299,304,297,1
311,299,304,300,1
305,299,304,302,1
298,300,304,304,1
292,302,305,306,1
289,304,305,307,1
289,307,305,307,1
289,309,306,308,1
291,312,307,309,1
294,313,308,310,1
295,314,309,312,1
296,315,307,312,1
297,315,306,311,1
299,315,303,307,1
302,314,299,302,1
305,313,295,296,1
308,310,293,292,1
311,307,294,289,1
313,304,298,288,1
314,301,302,288,1
315,299,306,289,1
319,298,310,290,1
322,298,313,291,1
323,299,314,293,1
321,302,313,297,1
318,306,313,303,1
313,310,312,313,1
309,313,312,322,1
304,315,310,329,1
299,316,307,332,1
298,316,304,332,1
303,315,302,328,1
309,314,301,323,1
313,313,302,317,1
317,312,302,312,1
318,310,304,308,1
316,309,304,308,1
313,307,305,313,1
311,306,307,319,1
310,306,308,325,1
308,305,308,327,1
306,304,308,324,1
302,303,307,318,1
299,303,306,311,1
298,305,305,305,1
297,307,305,300,1
297,308,304,295,1
299,308,302,290,1
301,309,300,287,1
305,309,300,286,1
308,309,301,287,1
311,310,301,288,1
313,310,300,289,1
312,310,299,291,1
310,309,298,293,1
307,309,298,295,1
304,307,298,296,1
303,306,298,297,1
303,304,299,300,1
304,303,300,305,1
306,301,302,311,1
307,301,305,316,1
308,301,307,320,1
308,302,310,324,1
307,303,312,328,1
304,305,313,332,1
301,306,313,334,1
301,307,312,333,1
304,308,310,332,1
307,309,307,329,1
309,308,305,324,1
308,307,303,318,1
303,306,302,311,1
298,305,301,303,1
295,304,300,297,1
297,303,300,293,1
299,302,299,291,1
302,300,299,289,1
305,299,299,287,1
308,299,299,286,1
310,299,300,286,1
310,299,302,287,1
308,299,303,289,1
306,300,305,291,1
305,301,307,293,1
304,303,308,293,1
299,304,307,293,1
294,305,306,292,1
293,306,303,291,1
296,308,299,291,1
301,308,296,293,1
306,309,295,298,1
311,311,294,304,1
314,312,293,310,1
314,313,292,314,1
315,314,291,318,1
317,314,291,320,1
316,313,292,321,1
314,311,294,321,1
310,309,297,320,1
310,307,301,318,1
311,306,305,316,1
313,305,308,314,1
315,305,311,311,1
316,305,313,309,1
316,306,313,308,1
316,308,312,308,1
316,309,310,309,1
316,310,308,310,1
317,310,306,313,1
318,312,304,319,1
319,313,304,325,1
318,312,303,327,1
315,311,302,324,1
311,309,302,318,1
308,307,301,311,1
305,305,302,306,1
303,302,302,302,1
301,299,304,300,1
300,296,306,301,1
300,294,309,304,1
301,295,311,311,1
301,297,312,319,1
300,301,312,329,1
295,304,312,338,1
289,308,311,343,1
281,310,310,342,1
276,313,309,335,1
275,314,307,324,1
279,315,305,312,1
288,315,303,303,1
300,315,301,296,1
313,314,300,292,1
323,313,300,290,1
330,312,299,289,1
334,311,299,290,1
335,310,299,292,1
333,309,299,295,1
327,307,300,297,1
317,305,300,300,1
308,304,301,304,1
302,303,301,306,1
298,304,301,305,1
296,304,301,304,1
294,306,302,300,1
295,307,303,298,1
297,308,304,295,1
298,308,304,293,1
298,309,304,292,1
298,309,304,293,1
298,309,304,295,1
295,309,303,297,1
289,308,302,301,1
288,307,300,304,1
291,306,298,305,1
296,304,295,304,1
300,302,293,303,1
303,300,292,302,1
305,298,293,302,1
306,296,294,304,1
307,296,295,307,1
308,296,296,307,1
309,297,298,308,1
310,300,300,308,1
312,302,301,308,1
314,304,302,308,1
315,305,302,307,1
314,306,301,307,1
312,307,300,307,1
309,309,300,307,1
306,310,301,307,1
306,310,302,305,1
307,310,302,302,1
306,309,301,299,1
302,309,300,299,1
298,308,298,300,1
295,307,297,302,1
294,305,296,304,1
295,304,294,306,1
296,303,294,310,1
298,302,297,315,1
299,303,302,319,1
297,303,307,320,1
293,304,310,320,1
289,304,313,321,1
288,305,315,324,1
292,305,316,325,1
298,306,316,325,1
304,306,315,324,1
308,306,314,322,1
308,307,313,320,1
307,309,312,319,1
304,310,312,319,1
302,312,311,318,1
300,313,310,316,1
299,314,309,313,1
298,315,308,309,1
300,314,307,305,1
306,313,306,302,1
314,310,306,300,1
321,308,307,299,1
325,306,308,298,1
327,305,308,300,1
327,306,308,304,1
324,307,308,309,1
317,310,308,313,1
309,313,308,316,1
301,315,307,317,1
295,316,306,316,1
287,316,305,316,1
280,315,304,315,1
281,314,304,313,1
287,313,304,312,1
291,311,303,310,1
293,308,302,307,1
294,307,301,303,1
298,305,300,299,1
301,304,298,296,1
305,303,297,295,1
307,302,296,296,1
310,301,296,299,1
313,302,297,302,1
316,302,300,307,1
318,304,305,313,1
318,306,308,317,1
318,308,309,319,1
317,309,309,318,1
318,311,309,314,1
319,312,307,311,1
322,312,306,307,1
325,312,305,303,1
326,311,303,298,1
322,310,300,293,1
315,309,298,289,1
307,308,297,285,1
299,306,296,281,1
291,305,295,279,1
285,304,294,280,1
282,303,295,282,1
282,303,296,285,1
286,303,300,288,1
291,303,303,292,1
297,305,305,296,1
303,306,307,301,1
307,308,309,306,1
310,309,310,310,1
309,310,311,313,1
308,310,310,315,1
307,311,310,315,1
307,312,309,314,1
308,311,309,312,1
309,312,307,310,1
310,311,304,308,1
309,310,300,305,1
308,309,296,303,1
308,308,292,300,1
310,307,290,298,1
313,305,289,298,1
315,304,292,302,1
314,303,296,306,1
312,302,300,312,1
308,302,304,317,1
303,302,307,319,1
297,304,309,319,1
293,306,311,319,1
292,308,312,321,1
295,310,312,324,1
300,312,312,328,1
304,313,312,330,1
310,313,312,331,1
317,313,312,329,1
323,313,310,325,1
325,312,308,320,1
322,311,307,315,1
317,309,307,310,1
311,308,306,307,1
305,306,305,308,1
300,303,304,311,1
295,300,303,313,1
290,299,303,315,1
288,299,303,316,1
288,301,303,316,1
291,303,302,317,1
297,305,303,316,1
304,307,303,315,1
315,308,304,313,1
325,309,305,310,1
330,309,305,308,1
330,309,304,306,1
327,309,303,306,1
321,309,304,307,1
314,310,304,307,1
308,310,304,306,1
304,309,304,304,1
302,309,302,300,1
300,308,300,298,1
300,307,299,297,1
301,305,299,297,1
302,304,298,298,1
302,303,297,298,1
301,302,297,298,1
300,301,297,299,1
299,301,298,297,1
297,301,299,296,1
295,302,302,295,1
295,303,304,294,1
296,304,305,293,1
297,306,304,291,1
296,306,302,288,1
296,306,300,288,1
298,306,299,291,1
301,307,299,297,1
304,307,300,305,1
306,308,301,312,1
308,308,302,318,1
312,309,303,321,1
315,308,304,324,1
319,306,303,326,1
321,304,304,329,1
325,303,304,330,1
328,302,304,328,1
329,301,304,322,1
326,301,304,314,1
320,299,305,307,1
312,300,307,303,1
305,301,308,301,1
298,302,309,299,1
293,304,309,298,1
290,305,309,298,1
293,305,308,297,1
296,306,306,297,1
296,306,304,297,1
292,306,303,296,1
292,307,302,298,1
297,308,299,302,1
304,308,297,308,1
309,307,295,314,1
312,306,294,319,1
314,304,293,325,1
315,304,295,332,1
316,303,299,339,1
316,303,303,344,1
315,304,306,345,1
315,305,309,344,1
317,307,311,341,1
318,309,312,335,1
317,310,311,325,1
313,310,309,314,1
307,309,306,302,1
303,308,303,292,1
301,307,302,283,1
300,306,301,274,1
300,304,300,267,1
300,303,299,263,1
301,303,298,262,1
302,302,298,263,1
303,302,298,266,1
304,301,298,270,1
305,300,298,274,1
307,299,299,279,1
310,300,300,286,1
313,300,302,292,1
314,302,302,297,1
312,303,302,300,1
306,303,301,301,1
299,304,300,301,1
295,305,300,298,1
295,305,300,295,1
296,305,301,293,1
299,306,301,292,1
301,307,300,293,1
304,309,300,297,1
307,310,300,303,1
309,310,301,310,1
311,310,302,316,1
311,310,302,319,1
310,309,301,319,1
309,308,301,317,1
310,305,300,315,1
310,304,300,313,1
311,302,301,312,1
312,301,304,312,1
312,301,306,313,1
309,301,307,315,1
306,302,307,317,1
304,303,306,318,1
307,305,305,318,1
310,306,304,318,1
314,308,303,317,1
316,308,301,318,1
317,309,300,319,1
316,309,299,320,1
313,309,298,319,1
310,309,297,316,1
308,309,297,313,1
306,307,297,308,1
305,306,297,303,1
303,304,297,299,1
303,302,297,297,1
305,300,295,297,1
307,300,295,298,1
308,301,296,300,1
309,301,297,302,1
308,303,299,303,1
307,305,300,305,1
305,307,301,307,1
304,309,301,310,1
302,310,301,313,1
301,310,301,314,1
300,310,300,316,1
300,310,299,318,1
302,310,300,320,1
306,311,300,320,1
309,311,300,317,1
310,310,299,311,1
309,308,295,305,1
309,307,291,298,1
311,305,287,293,1
315,303,285,290,1
318,302,284,291,1
318,300,285,295,1
317,299,287,301,1
316,300,291,308,1
313,301,294,313,1
308,302,296,315,1
302,303,296,314,1
297,305,297,311,1
294,307,299,309,1
295,309,301,307,1
298,310,302,305,1
301,312,303,304,1
303,312,303,304,1
305,313,303,305,1
308,312,303,305,1
312,311,303,304,1
315,310,303,302,1
319,307,302,301,1
320,305,301,301,1
318,302,298,301,1
314,300,295,301,1
309,298,294,301,1
305,297,296,302,1
301,297,298,303,1
295,299,300,303,1
292,301,303,304,1
294,303,305,304,1
298,305,305,304,1
306,306,304,303,1
312,307,303,302,1
315,309,303,302,1
316,310,302,304,1
318,310,303,306,1
319,310,303,308,1
320,309,303,310,1
320,308,303,312,1
319,307,302,313,1
317,307,302,314,1
313,306,300,314,1
309,304,299,317,1
306,303,299,323,1
304,302,299,331,1
304,302,301,337,1
302,303,302,340,1
302,304,303,339,1
303,306,305,336,1
307,308,306,330,1
309,309,307,324,1
311,310,307,317,1
312,311,309,311,1
313,312,311,308,1
313,313,312,306,1
312,314,313,305,1
311,315,314,307,1
308,316,315,309,1
304,316,315,312,1
300,316,312,313,1
298,315,308,313,1
297,313,304,313,1
298,311,300,310,1
301,307,298,306,1
305,305,298,303,1
309,303,298,301,1
313,302,299,301,1
315,303,301,301,1
316,305,302,299,1
315,306,302,296,1
312,308,301,292,1
309,308,300,289,1
304,308,299,286,1
300,308,299,285,1
298,308,299,285,1
296,309,298,287,1
296,309,296,290,1
297,309,294,294,1
300,309,292,299,1
302,310,290,305,1
305,311,289,314,1
307,311,289,322,1
308,310,292,329,1
310,309,296,332,1
312,308,300,332,1
314,307,306,331,1
314,307,311,330,1
314,308,314,328,1
312,310,315,324,1
309,312,314,318,1
305,314,312,311,1
302,315,309,305,1
301,316,307,300,1
299,315,305,294,1
297,314,303,289,1
293,313,302,286,1
287,313,302,284,1
281,311,301,284,1
276,311,300,284,1
274,309,299,286,1
275,308,298,288,1
279,307,297,291,1
287,306,297,294,1
298,304,298,297,1
310,303,299,300,1
322,301,300,302,1
331,302,302,304,1
335,303,304,308,1
333,307,307,314,1
329,309,309,318,1
323,311,310,319,1
318,312,310,319,1
315,313,309,321,1
313,315,308,323,1
311,316,307,325,1
309,318,306,327,1
309,318,305,326,1
308,318,304,324,1
307,318,303,321,1
305,318,301,318,1
304,317,299,313,1
303,315,297,308,1
304,312,295,303,1
304,309,295,299,1
305,306,295,298,1
305,303,296,298,1
306,302,298,299,1
305,303,301,301,1
304,304,304,301,1
300,304,305,301,1
298,306,305,301,1
299,309,306,303,1
302,311,306,305,1
304,312,305,307,1
305,313,305,310,1
305,313,304,312,1
306,313,304,313,1
308,312,303,313,1
310,311,302,312,1
312,310,301,308,1
313,308,301,305,1
314,306,301,302,1
313,304,301,299,1
310,302,300,296,1
307,300,300,294,1
306,299,300,293,1
306,298,300,292,1
304,299,300,292,1
300,299,301,292,1
296,301,300,292,1
291,302,299,292,1
287,303,297,294,1
285,305,293,296,1
285,306,290,298,1
288,307,287,301,1
293,308,287,304,1
297,309,288,307,1
302,310,292,309,1
307,310,296,308,1
312,309,299,307,1
315,307,300,307,1
317,305,299,309,1
316,304,298,314,1
314,302,299,320,1
313,302,300,327,1
314,301,303,333,1
319,302,306,337,1
325,303,309,340,1
328,305,312,341,1
327,308,314,341,1
323,311,316,338,1
320,312,316,332,1
316,313,315,326,1
312,314,311,320,1
308,315,306,315,1
304,315,303,309,1
299,314,300,304,1
296,313,300,296,1
295,311,299,288,1
295,308,299,281,1
297,305,299,277,1
300,303,298,277,1
303,301,298,281,1
308,299,298,289,1
313,297,299,298,1
316,297,300,307,1
319,298,300,314,1
319,300,302,318,1
318,302,302,319,1
316,304,303,318,1
312,306,304,316,1
307,306,304,314,1
304,307,304,309,1
301,307,303,303,1
297,306,302,297,1
294,305,301,293,1
293,304,300,293,1
293,304,301,295,1
295,304,302,299,1
297,305,303,303,1
298,306,304,307,1
299,305,305,310,1
298,304,305,312,1
297,303,305,313,1
297,303,306,315,1
298,302,307,316,1
300,303,308,316,1
302,303,307,315,1
305,305,306,312,1
307,307,305,308,1
310,309,305,303,1
312,311,304,297,1
314,311,303,292,1
315,312,301,288,1
314,312,299,284,1
310,312,296,282,1
301,312,291,281,1
294,311,287,281,1
290,311,285,282,1
288,309,284,282,1
290,308,284,284,1
293,306,287,288,1
300,304,292,294,1
306,303,297,299,1
311,301,302,304,1
315,299,308,309,1
318,299,312,314,1
320,300,316,317,1
321,302,318,317,1
323,304,320,317,1
322,306,320,320,1
320,308,320,325,1
317,309,319,329,1
314,310,318,333,1
312,312,318,335,1
309,313,317,337,1
306,314,316,336,1
304,314,315,334,1
303,313,314,329,1
303,312,312,323,1
304,311,309,316,1
305,309,307,309,1
306,306,306,303,1
307,304,306,300,1
308,303,306,302,1
310,302,309,307,1
312,301,310,313,1
313,301,310,318,1
312,303,311,320,1
312,305,311,321,1
312,306,310,320,1
310,307,309,319,1
308,308,307,317,1
305,308,306,315,1
302,308,304,312,1
300,308,304,307,1
300,308,304,302,1
302,307,305,296,1
303,306,306,289,1
301,304,305,285,1
297,303,305,285,1
292,301,306,289,1
290,300,307,295,1
291,300,309,303,1
294,301,310,310,1
296,302,310,317,1
297,303,308,322,1
296,305,307,327,1
297,307,307,328,1
300,310,307,327,1
303,312,307,325,1
305,313,308,322,1
307,314,308,319,1
310,315,307,316,1
314,315,306,312,1
317,315,305,309,1
318,314,304,304,1
317,313,303,299,1
312,311,302,292,1
306,309,300,287,1
299,305,299,282,1
295,302,296,278,1
295,299,295,276,1
298,296,294,275,1
303,295,295,277,1
308,294,297,282,1
314,295,299,287,1
318,297,301,292,1
321,299,303,297,1
321,301,305,301,1
317,303,306,304,1
312,307,306,307,1
306,310,304,310,1
302,313,301,314,1
300,314,299,320,1
300,314,297,325,1
301,314,295,331,1
303,313,295,336,1
307,313,297,340,1
309,313,301,340,1
310,312,304,337,1
309,310,306,333,1
306,307,307,330,1
304,305,307,327,1
304,304,307,323,1
304,303,308,320,1
305,303,309,317,1
305,303,311,314,1
308,303,312,310,1
310,304,313,305,1
311,306,314,303,1
311,308,315,303,1
309,310,314,304,1
306,311,313,306,1
301,311,311,309,1
296,310,310,315,1
291,310,308,322,1
289,309,306,327,1
289,309,305,328,1
291,308,304,324,1
294,306,303,315,1
294,304,302,306,1
296,302,302,299,1
299,300,303,295,1
303,300,305,292,1
306,300,307,292,1
309,300,308,292,1
312,301,308,291,1
312,302,308,290,1
310,303,307,289,1
307,305,307,289,1
305,307,307,290,1
304,307,306,291,1
303,308,306,292,1
304,309,307,294,1
306,309,309,297,1
308,308,310,300,1
310,307,310,303,1
311,307,310,307,1
313,307,309,311,1
315,307,307,313,1
315,306,306,314,1
312,305,306,315,1
308,303,307,315,1
304,303,308,317,1
301,303,310,320,1
299,303,312,323,1
298,305,315,326,1
297,307,318,327,1
296,308,321,326,1
297,309,322,323,1
300,310,321,320,1
302,310,320,316,1
302,310,317,311,1
299,309,313,305,1
296,308,309,300,1
294,307,306,296,1
295,305,303,294,1
299,304,301,294,1
304,302,300,295,1
309,301,300,296,1
313,300,299,299,1
317,299,300,304,1
320,299,300,309,1
322,298,300,315,1
322,298,299,321,1
319,298,297,325,1
313,300,295,328,1
306,302,295,329,1
300,304,295,329,1
296,306,296,330,1
295,309,298,330,1
294,311,301,329,1
293,312,304,327,1
291,312,307,323,1
289,311,308,317,1
287,309,307,308,1
288,308,305,298,1
293,307,303,287,1
300,306,302,279,1
305,304,302,274,1
309,302,302,274,1
311,300,303,276,1
312,299,304,282,1
313,298,305,289,1
313,298,306,296,1
313,299,306,304,1
313,299,306,312,1
313,301,306,317,1
313,302,307,319,1
312,304,308,318,1
310,304,308,316,1
307,305,308,314,1
304,305,306,312,1
303,306,304,312,1
305,307,303,315,1
309,307,304,322,1
314,308,303,328,1
317,309,304,332,1
317,310,303,334,1
314,309,303,334,1
310,307,303,335,1
306,305,303,336,1
304,303,303,335,1
303,301,303,331,1
301,300,302,325,1
299,298,302,321,1
297,299,303,317,1
295,299,304,316,1
295,302,305,314,1
298,305,306,311,1
303,309,307,309,1
307,311,308,305,1
307,312,308,302,1
306,311,307,301,1
305,309,306,300,1
304,308,305,301,1
304,306,304,303,1
303,304,302,304,1
302,302,301,305,1
302,300,299,303,1
301,299,297,303,1
303,297,298,301,1
307,296,299,300,1
313,295,300,298,1
318,294,300,297,1
319,294,299,295,1
318,294,296,293,1
315,295,292,292,1
310,297,289,290,1
305,299,286,289,1
299,301,285,289,1
292,302,288,288,1
286,304,292,288,1
281,305,296,288,1
280,306,299,288,1
286,307,301,292,1
295,308,302,297,1
305,308,304,302,1
313,307,305,307,1
317,306,304,313,1
319,304,303,318,1
320,303,302,323,1
320,302,301,325,1
320,300,301,324,1
319,299,303,322,1
318,298,306,318,1
318,299,308,314,1
318,300,308,310,1
316,301,308,308,1
315,302,307,309,1
313,303,307,313,1
312,305,308,318,1
311,307,309,323,1
309,309,310,326,1
306,311,311,325,1
303,310,310,319,1
302,309,308,309,1
301,307,305,299,1
301,305,304,291,1
302,303,304,288,1
304,301,303,287,1
306,299,303,289,1
308,297,302,291,1
310,295,302,294,1
311,294,302,298,1
312,295,304,304,1
312,297,306,310,1
311,300,308,317,1
310,303,311,328,1
308,306,313,339,1
307,308,313,349,1
306,310,312,354,1
306,311,311,353,1
309,311,310,349,1
310,311,309,342,1
310,310,308,332,1
307,308,308,323,1
303,306,307,314,1
301,304,306,307,1
303,302,305,303,1
305,301,304,303,1
305,300,303,306,1
305,299,302,309,1
303,298,301,313,1
300,298,302,316,1
299,298,304,318,1
300,298,305,316,1
299,298,305,311,1
295,298,305,304,1
293,300,303,297,1
292,301,303,292,1
292,302,302,289,1
291,303,300,288,1
289,304,299,289,1
290,304,299,291,1
293,305,299,293,1
299,305,301,296,1
305,305,302,299,1
309,305,304,303,1
313,305,305,306,1
315,303,305,307,1
314,302,305,307,1
314,300,305,308,1
317,299,304,309,1
319,299,304,312,1
320,301,304,314,1
319,303,303,317,1
316,305,302,318,1
311,308,300,318,1
308,311,297,315,1
305,312,295,311,1
304,314,294,308,1
305,314,295,305,1
307,315,299,304,1
310,315,303,303,1
313,315,305,306,1
316,315,306,309,1
317,315,307,313,1
317,315,307,315,1
317,315,306,318,1
315,313,304,317,1
314,310,301,315,1
313,307,300,311,1
313,305,298,308,1
313,303,299,306,1
313,303,300,305,1
310,302,302,304,1
306,301,303,302,1
301,301,302,300,1
296,302,302,300,1
293,304,301,300,1
292,306,301,300,1
294,307,301,300,1
297,307,302,300,1
300,307,303,299,1
301,306,304,297,1
300,306,304,295,1
297,306,303,294,1
295,305,302,292,1
293,304,301,293,1
292,302,301,296,1
294,300,301,302,1
296,298,301,308,1
298,297,301,313,1
298,295,302,315,1
299,295,303,314,1
302,297,304,313,1
304,299,306,313,1
303,302,308,315,1
300,304,307,320,1
295,305,307,326,1
290,306,307,333,1
289,306,306,337,1
289,305,305,339,1
291,305,304,339,1
299,305,304,337,1
310,305,305,338,1
320,306,307,341,1
327,307,308,343,1
330,307,307,343,1
330,306,305,339,1
329,303,304,332,1
329,301,302,323,1
330,298,301,316,1
330,296,302,310,1
328,296,303,306,1
325,297,304,304,1
322,299,305,301,1
318,300,305,295,1
315,302,305,288,1
313,304,304,281,1
313,305,304,276,1
313,306,304,272,1
310,308,303,271,1
305,309,305,272,1
301,309,306,276,1
297,308,307,279,1
294,307,307,283,1
292,305,307,287,1
292,305,307,292,1
293,304,307,296,1
296,303,308,297,1
298,302,308,298,1
301,302,309,298,1
304,301,310,299,1
307,301,310,301,1
310,302,310,304,1
312,303,307,307,1
312,304,304,308,1
311,306,300,310,1
310,308,298,311,1
308,309,296,310,1
306,310,295,311,1
304,311,295,311,1
304,311,298,312,1
303,310,301,313,1
302,308,304,313,1
299,308,306,311,1
296,306,307,307,1
295,305,307,303,1
295,302,306,301,1
297,300,306,300,1
298,298,305,300,1
298,297,305,302,1
295,295,304,304,1
288,294,304,304,1
280,294,304,304,1
275,294,305,305,1
278,296,307,306,1
286,299,309,308,1
294,302,311,312,1
300,306,313,317,1
303,310,313,321,1
306,312,312,322,1
309,314,311,320,1
310,314,309,316,1
309,315,307,313,1
308,314,305,310,1
311,313,303,308,1
317,311,301,305,1
322,309,300,303,1
324,306,299,301,1
325,305,299,301,1
325,304,299,301,1
324,304,300,301,1
324,304,300,301,1
324,305,301,301,1
324,307,302,305,1
323,310,303,312,1
321,312,304,320,1
318,315,307,331,1
316,318,308,344,1
312,320,309,357,1
309,322,309,366,1
305,322,308,369,1
302,321,306,367,1
301,320,306,361,1
303,319,307,351,1
306,316,308,338,1
309,313,308,325,1
310,309,306,311,1
312,305,305,299,1
314,302,304,289,1
316,300,305,283,1
319,299,305,279,1
321,299,306,280,1
321,299,308,283,1
319,299,310,287,1
313,301,311,290,1
306,302,311,292,1
300,303,312,293,1
296,304,312,294,1
294,306,311,295,1
291,307,310,295,1
287,308,308,294,1
283,308,306,293,1
280,308,304,291,1
278,307,303,288,1
279,306,300,287,1
285,305,297,287,1
293,305,295,288,1
302,304,293,288,1
309,302,292,288,1
312,302,292,289,1
312,301,294,291,1
310,301,299,294,1
309,302,304,298,1
311,304,309,302,1
317,306,314,306,1
321,307,317,308,1
320,308,318,308,1
317,310,317,307,1
314,310,317,306,1
311,311,317,306,1
309,311,317,306,1
307,312,315,307,1
305,312,312,308,1
304,311,310,308,1
303,310,306,306,1
303,308,302,304,1
302,306,299,304,1
302,304,296,308,1
302,302,294,313,1
303,301,294,318,1
304,300,295,322,1
305,299,297,325,1
307,300,298,325,1
310,301,301,323,1
313,304,302,319,1
315,305,302,313,1
314,307,301,305,1
310,308,300,295,1
306,308,300,286,1
302,307,299,280,1
297,307,299,276,1
297,307,299,276,1
304,306,300,278,1
315,306,300,283,1
324,306,301,288,1
331,306,300,293,1
333,305,300,296,1
330,305,299,300,1
324,303,298,303,1
317,303,298,306,1
312,303,299,308,1
310,304,300,311,1
309,305,302,315,1
310,305,303,320,1
311,307,304,324,1
313,307,305,327,1
313,308,305,328,1
314,308,304,328,1
313,308,304,327,1
311,308,304,324,1
305,308,304,320,1
297,307,303,317,1
288,308,303,314,1
280,308,303,310,1
273,308,303,306,1
271,306,303,303,1
272,303,303,303,1
279,301,302,303,1
288,299,302,304,1
298,298,303,304,1
307,297,304,304,1
315,298,305,308,1
319,300,306,315,1
320,302,307,320,1
320,305,309,324,1
319,307,311,324,1
316,309,313,321,1
314,311,313,318,1
311,313,314,312,1
307,314,312,304,1
303,314,311,296,1
299,314,309,289,1
297,314,307,283,1
297,313,307,280,1
302,311,307,279,1
309,309,308,279,1
314,306,309,282,1
315,303,309,285,1
312,301,309,290,1
306,298,310,294,1
298,297,309,296,1
293,295,307,297,1
293,294,303,297,1
297,295,298,296,1
301,296,295,296,1
302,298,291,297,1
302,300,288,298,1
299,301,288,299,1
296,302,290,300,1
295,304,295,301,1
300,305,300,301,1
306,306,304,305,1
311,308,308,310,1
312,310,311,316,1
312,310,312,320,1
312,311,311,323,1
315,310,310,323,1
319,309,308,321,1
324,306,306,317,1
330,303,304,313,1
334,300,304,308,1
333,298,304,305,1
326,297,305,303,1
318,297,306,301,1
311,298,307,299,1
306,299,306,297,1
301,300,305,296,1
298,302,304,298,1
296,304,304,301,1
293,306,304,306,1
291,307,305,309,1
289,308,306,311,1
288,309,306,312,1
287,308,305,310,1
288,307,303,308,1
290,305,301,304,1
294,303,299,300,1
299,302,298,294,1
302,299,297,288,1
303,297,296,284,1
301,296,297,282,1
297,295,298,282,1
293,296,300,285,1
292,298,301,289,1
295,301,302,294,1
300,304,303,298,1
306,306,304,300,1
309,308,306,302,1
312,309,306,303,1
312,309,306,304,1
312,309,305,304,1
311,309,304,304,1
310,309,303,305,1
309,309,301,305,1
306,308,298,304,1
302,307,296,302,1
300,306,294,298,1
300,304,293,296,1
300,303,293,295,1
302,303,294,296,1
307,304,296,300,1
314,304,299,304,1
320,306,302,310,1
322,307,305,316,1
321,309,307,321,1
319,312,307,326,1
316,313,306,329,1
313,314,304,329,1
309,313,302,327,1
305,313,302,323,1
300,312,301,319,1
295,312,302,316,1
293,311,303,314,1
293,311,303,313,1
295,310,303,315,1
298,309,303,318,1
300,308,301,320,1
302,306,298,320,1
305,303,296,318,1
307,301,295,314,1
308,300,294,310,1
307,300,295,307,1
309,302,299,306,1
314,304,304,308,1
317,307,309,312,1
317,310,314,314,1
315,311,317,314,1
311,312,318,312,1
305,313,319,309,1
299,314,319,306,1
294,315,318,303,1
291,315,315,300,1
292,314,311,297,1
295,312,306,296,1
298,311,303,296,1
299,310,300,298,1
301,309,299,299,1
302,308,299,298,1
304,305,300,297,1
306,303,301,297,1
309,300,302,297,1
311,299,304,298,1
313,299,305,301,1
316,301,307,304,1
319,302,309,307,1
321,305,311,311,1
320,308,312,316,1
317,310,312,320,1
312,312,311,323,1
304,312,308,324,1
294,312,306,325,1
285,311,305,325,1
280,311,305,324,1
281,311,304,320,1
288,310,304,315,1
297,309,304,308,1
304,308,304,302,1
308,306,303,298,1
310,305,301,294,1
312,304,299,293,1
314,304,300,292,1
318,304,301,294,1
320,305,303,297,1
321,306,304,300,1
320,307,305,303,1
318,309,304,305,1
314,310,302,307,1
311,311,302,308,1
309,312,303,309,1
308,313,304,309,1
308,313,306,307,1
309,314,307,306,1
310,313,307,308,1
310,312,307,310,1
309,311,307,311,1
304,309,306,310,1
295,308,305,309,1
283,305,305,310,1
272,303,305,313,1
270,301,305,317,1
278,300,306,321,1
292,300,308,324,1
305,302,310,325,1
315,304,311,324,1
320,306,311,320,1
321,307,311,316,1
319,309,310,312,1
317,311,308,308,1
316,312,307,306,1
315,312,306,304,1
314,311,305,304,1
313,310,305,306,1
312,309,306,309,1
309,307,307,311,1
304,306,307,312,1
300,304,307,313,1
298,302,307,314,1
297,301,307,315,1
299,300,308,316,1
300,300,307,317,1
302,300,306,317,1
305,301,306,316,1
308,301,305,312,1
310,303,305,308,1
311,305,306,304,1
312,307,307,301,1
314,309,306,298,1
316,310,306,294,1
317,310,305,290,1
315,310,305,288,1
312,309,305,286,1
308,309,305,286,1
303,307,304,288,1
299,306,304,290,1
295,305,305,292,1
293,303,304,293,1
294,301,303,294,1
298,301,303,296,1
301,301,303,299,1
304,301,304,304,1
305,302,307,309,1
306,303,309,314,1
306,303,311,319,1
308,304,312,323,1
308,306,313,329,1
307,309,313,334,1
303,311,312,336,1
299,313,311,337,1
299,314,310,338,1
303,314,309,338,1
307,315,309,337,1
310,315,308,334,1
307,314,306,328,1
300,312,302,319,1
290,309,298,309,1
281,306,297,300,1
275,303,296,294,1
273,300,297,288,1
279,298,298,285,1
291,296,299,282,1
306,295,300,280,1
318,295,302,281,1
326,296,303,283,1
329,299,305,287,1
329,302,306,290,1
326,305,306,294,1
323,308,305,296,1
320,310,305,297,1
318,311,305,297,1
316,310,304,299,1
314,310,304,303,1
312,310,304,309,1
309,310,304,316,1
308,310,304,323,1
306,311,305,329,1
304,311,305,335,1
303,310,307,341,1
304,309,307,345,1
306,308,308,346,1
309,306,308,343,1
311,304,308,336,1
313,302,307,329,1
313,300,307,322,1
311,300,307,316,1
308,301,308,312,1
306,302,307,308,1
304,304,306,303,1
304,305,304,298,1
304,306,303,292,1
305,307,301,285,1
305,307,298,281,1
303,306,294,277,1
300,305,290,275,1
297,305,286,275,1
297,304,285,277,1
300,305,285,280,1
304,305,287,285,1
306,304,292,290,1
308,303,297,296,1
309,302,302,304,1
310,301,306,313,1
312,301,311,319,1
313,301,315,323,1
313,303,317,324,1
311,305,319,322,1
307,307,320,318,1
303,309,321,314,1
299,311,322,310,1
296,312,322,308,1
294,313,322,308,1
294,313,320,307,1
297,313,316,307,1
301,312,312,309,1
302,312,307,312,1
300,311,303,316,1
296,310,301,321,1
292,308,300,324,1
290,306,300,323,1
292,305,299,319,1
295,304,300,315,1
299,305,300,312,1
304,306,301,309,1
312,308,302,306,1
316,310,303,303,1
317,311,304,300,1
318,312,304,298,1
318,312,303,298,1
317,312,303,299,1
315,312,303,300,1
313,312,302,301,1
310,312,301,299,1
308,311,300,297,1
307,311,301,294,1
307,311,301,293,1
306,311,302,294,1
305,309,302,297,1
303,307,302,301,1
300,306,302,307,1
300,305,301,313,1
301,305,301,319,1
304,305,301,326,1
308,305,303,332,1
311,307,306,337,1
314,309,309,341,1
317,312,311,342,1
319,314,312,339,1
320,316,311,334,1
320,318,309,329,1
321,318,306,323,1
321,318,303,317,1
321,317,302,311,1
319,315,301,304,1
313,313,300,298,1
307,311,298,292,1
303,309,296,288,1
299,306,294,286,1
298,303,293,286,1
299,301,293,288,1
301,299,294,288,1
303,298,295,289,1
304,297,297,289,1
304,297,298,292,1
302,298,300,295,1
301,300,302,299,1
301,303,303,304,1
304,306,304,309,1
306,309,304,316,1
308,311,304,321,1
309,312,304,324,1
309,312,303,322,1
308,311,303,317,1
307,310,302,310,1
307,308,301,303,1
307,306,300,297,1
310,305,299,295,1
314,304,299,294,1
318,302,297,296,1
317,301,296,299,1
312,299,294,301,1
304,298,292,303,1
298,297,291,304,1
295,297,293,304,1
296,298,296,303,1
299,299,302,302,1
304,300,307,303,1
309,303,311,304,1
312,306,314,306,1
312,309,315,309,1
309,312,315,313,1
306,314,315,318,1
305,315,313,325,1
305,314,311,333,1
303,314,310,339,1
299,313,309,342,1
298,312,309,343,1
299,311,310,341,1
300,309,310,339,1
300,307,309,336,1
300,305,308,333,1
304,302,307,329,1
309,300,308,325,1
313,300,308,320,1
314,300,309,313,1
314,301,309,304,1
313,303,309,297,1
311,305,310,292,1
311,307,310,289,1
311,308,311,288,1
312,309,311,288,1
312,310,310,287,1
312,310,309,287,1
312,310,307,288,1
313,309,304,289,1
313,307,301,293,1
314,306,299,297,1
314,304,298,301,1
315,301,297,303,1
315,298,297,303,1
315,295,297,303,1
315,294,299,305,1
316,293,300,307,1
316,295,302,312,1
315,297,304,318,1
312,300,307,325,1
307,303,309,331,1
302,306,311,335,1
300,309,312,336,1
299,310,310,335,1
298,310,307,332,1
297,310,305,329,1
296,310,304,325,1
296,309,302,319,1
296,309,302,312,1
297,310,302,308,1
298,309,302,305,1
301,308,302,303,1
303,305,303,299,1
304,302,303,295,1
306,299,303,291,1
307,297,302,289,1
307,295,302,289,1
303,294,301,289,1
297,293,301,290,1
292,294,302,292,1
295,297,303,296,1
303,301,306,299,1
313,304,308,302,1
318,307,310,302,1
319,309,311,301,1
315,310,311,298,1
310,311,309,296,1
306,311,307,294,1
303,312,305,295,1
302,313,304,297,1
302,313,304,300,1
303,312,304,304,1
305,311,304,307,1
306,309,302,310,1
306,308,301,312,1
306,306,299,314,1
304,305,297,316,1
300,305,296,317,1
294,304,297,319,1
295,305,299,322,1
302,306,304,325,1
308,307,308,326,1
312,307,312,325,1
314,307,314,320,1
314,307,315,313,1
312,307,314,306,1
311,307,313,301,1
310,307,312,299,1
309,307,310,299,1
308,308,309,299,1
307,308,309,301,1
308,308,309,304,1
309,306,309,309,1
310,304,309,315,1
312,303,310,322,1
313,303,311,327,1
313,303,311,330,1
312,304,311,330,1
310,305,312,328,1
307,307,313,325,1
304,308,313,319,1
300,309,313,314,1
296,310,312,312,1
293,311,312,313,1
290,312,312,316,1
287,313,311,320,1
287,313,311,325,1
286,313,311,328,1
284,313,309,328,1
283,313,307,327,1
284,314,306,323,1
288,314,305,318,1
292,314,306,311,1
296,312,307,303,1
301,309,309,295,1
306,306,311,290,1
311,304,310,286,1
314,303,309,283,1
316,302,308,284,1
315,301,307,287,1
314,302,307,292,1
311,303,308,297,1
308,305,308,301,1
305,307,309,305,1
302,310,309,309,1
300,312,308,313,1
299,313,308,316,1
301,314,308,317,1
304,314,308,315,1
307,313,308,310,1
309,311,307,305,1
312,309,306,299,1
313,307,305,295,1
312,305,304,294,1
308,303,304,295,1
303,302,304,298,1
300,302,305,301,1
298,302,305,303,1
298,303,305,304,1
299,304,305,304,1
298,304,305,304,1
299,305,304,304,1
305,306,302,303,1
311,307,300,303,1
315,307,298,303,1
316,307,297,301,1
316,307,297,300,1
315,307,298,298,1
313,306,301,298,1
312,306,304,298,1
313,306,307,299,1
313,305,310,301,1
312,303,311,302,1
312,301,311,304,1
314,299,310,307,1
317,297,309,311,1
320,296,308,314,1
320,296,308,317,1
317,298,308,319,1
313,299,308,319,1
307,302,308,316,1
300,304,307,312,1
294,306,306,308,1
292,308,306,305,1
294,310,306,305,1
298,312,307,309,1
304,313,308,315,1
308,314,308,321,1
309,315,308,326,1
310,315,308,329,1
309,314,308,329,1
308,312,307,328,1
306,309,305,328,1
304,305,304,328,1
304,303,303,327,1
305,302,302,326,1
305,302,303,325,1
306,304,305,324,1
305,306,308,324,1
304,308,310,324,1
302,309,310,322,1
300,310,311,320,1
299,311,311,314,1
299,311,310,304,1
301,311,307,294,1
305,310,305,285,1
309,309,303,279,1
312,307,302,278,1
314,306,300,280,1
310,306,300,285,1
304,305,301,289,1
298,305,302,294,1
298,306,303,298,1
301,306,304,303,1
305,305,305,307,1
309,304,307,308,1
312,305,307,306,1
312,305,306,302,1
312,306,305,298,1
314,308,304,295,1
318,310,305,293,1
319,313,306,293,1
317,314,306,295,1
311,315,306,297,1
305,316,307,299,1
300,315,306,300,1
296,314,306,301,1
292,313,306,303,1
293,314,306,306,1
298,313,307,307,1
303,312,307,307,1
305,310,306,305,1
305,308,303,303,1
304,306,299,299,1
303,304,296,295,1
303,302,294,292,1
303,302,294,291,1
303,302,295,292,1
304,302,297,294,1
304,304,299,295,1
304,305,301,298,1
303,307,302,300,1
302,309,302,304,1
302,310,301,308,1
304,312,300,311,1
304,313,299,314,1
303,314,298,316,1
302,314,297,315,1
300,314,295,313,1
297,313,292,310,1
296,312,289,305,1
294,311,286,300,1
292,309,283,297,1
291,306,281,297,1
290,303,283,299,1
292,301,287,302,1
296,300,291,304,1
299,300,295,306,1
301,300,298,307,1
301,301,301,309,1
301,304,301,310,1
302,307,301,312,1
305,309,300,314,1
308,312,300,317,1
311,314,301,320,1
313,315,302,321,1
315,317,302,322,1
315,317,302,322,1
315,318,301,321,1
314,318,301,319,1
313,317,301,317,1
312,315,301,315,1
309,313,301,316,1
306,309,301,319,1
303,307,300,326,1
302,306,301,332,1
304,306,302,336,1
304,308,304,336,1
304,309,305,333,1
306,310,306,327,1
310,312,306,321,1
313,313,306,315,1
315,314,306,310,1
314,315,305,306,1
311,315,304,302,1
306,316,303,299,1
303,317,301,297,1
301,318,300,297,1
301,318,299,298,1
301,317,298,300,1
300,316,298,301,1
302,314,299,303,1
305,312,299,305,1
307,309,299,307,1
308,307,298,308,1
309,306,298,308,1
311,305,298,307,1
314,306,300,307,1
314,308,303,309,1
311,310,305,312,1
307,313,307,314,1
302,315,308,313,1
297,316,307,309,1
293,317,307,305,1
291,316,306,301,1
293,316,306,299,1
297,315,305,298,1
300,313,305,298,1
303,312,304,299,1
306,310,303,301,1
307,308,300,302,1
307,306,296,302,1
306,304,293,300,1
306,302,290,298,1
305,301,290,297,1
306,300,290,297,1
306,300,292,299,1
304,301,293,299,1
301,303,294,300,1
298,306,295,303,1
295,309,297,306,1
294,313,299,308,1
295,315,300,310,1
298,317,302,313,1
305,317,304,318,1
312,318,306,323,1
317,318,307,330,1
322,318,309,336,1
326,318,310,341,1
329,318,312,342,1
328,318,311,339,1
325,317,310,330,1
320,314,307,316,1
316,310,303,302,1
313,307,298,290,1
311,303,294,282,1
311,300,290,277,1
311,298,288,277,1
312,299,288,280,1
313,300,289,286,1
314,302,293,291,1
314,304,297,295,1
311,305,301,297,1
308,305,303,297,1
304,305,303,296,1
302,304,302,295,1
301,304,301,295,1
301,305,300,295,1
300,305,300,296,1
300,305,301,298,1
303,304,303,300,1
310,304,304,303,1
316,303,304,309,1
318,302,304,317,1
316,302,302,324,1
313,303,302,329,1
308,304,303,332,1
304,305,304,332,1
302,306,306,331,1
300,306,308,330,1
304,307,309,329,1
310,308,310,328,1
315,309,309,326,1
316,309,308,324,1
316,309,308,323,1
313,310,307,321,1
309,312,306,319,1
302,312,305,317,1
296,313,304,315,1
293,311,304,314,1
293,310,304,313,1
293,308,304,313,1
294,307,304,313,1
295,305,303,312,1
297,305,303,310,1
301,303,303,307,1
305,302,302,305,1
309,300,303,306,1
312,300,304,307,1
313,301,305,307,1
313,302,305,305,1
311,303,305,303,1
309,305,305,301,1
307,306,305,300,1
306,307,305,299,1
305,307,306,298,1
305,307,307,297,1
307,308,308,295,1
307,308,308,293,1
305,308,308,292,1
301,308,308,293,1
298,307,308,298,1
295,305,306,305,1
293,303,302,311,1
293,301,298,315,1
296,300,297,318,1
302,300,298,319,1
309,301,301,321,1
314,303,303,323,1
317,305,306,327,1
318,308,308,331,1
319,311,310,334,1
318,313,311,336,1
316,315,312,336,1
314,315,312,335,1
313,315,311,332,1
315,314,309,327,1
320,313,307,320,1
323,311,305,313,1
324,308,304,305,1
322,306,304,299,1
320,304,304,293,1
317,301,304,289,1
312,299,303,287,1
307,299,302,287,1
304,299,301,288,1
303,301,300,288,1
304,302,298,290,1
306,304,297,292,1
308,305,297,297,1
309,307,299,302,1
309,308,303,306,1
308,309,307,308,1
305,309,310,309,1
302,309,312,308,1
298,309,313,307,1
295,309,313,305,1
292,310,312,304,1
291,311,311,304,1
294,312,310,305,1
299,313,310,306,1
303,313,309,308,1
305,312,307,309,1
304,310,304,308,1
302,307,302,306,1
304,306,301,306,1
310,304,301,307,1
315,304,301,310,1
317,304,303,317,1
317,304,306,327,1
316,307,309,337,1
314,309,311,344,1
312,311,312,346,1
310,311,311,342,1
309,311,309,334,1
309,310,307,323,1
311,308,304,311,1
311,306,302,301,1
309,304,301,292,1
305,301,302,288,1
301,300,302,288,1
298,299,302,289,1
296,297,300,291,1
299,297,299,292,1
305,296,299,297,1
310,296,300,303,1
311,297,302,310,1
310,297,304,315,1
306,298,306,317,1
303,299,307,318,1
303,301,308,318,1
305,303,308,317,1
307,305,308,315,1
308,306,308,314,1
308,307,308,310,1
307,308,308,304,1
309,308,307,296,1
310,308,305,288,1
312,308,304,280,1
313,308,304,277,1
314,307,304,276,1
315,306,304,279,1
317,305,305,284,1
319,304,306,292,1
321,303,308,302,1
321,303,310,311,1
318,304,312,319,1
313,305,313,323,1
308,306,315,325,1
304,307,316,324,1
301,309,316,322,1
301,311,314,318,1
301,312,312,313,1
301,313,310,310,1
301,313,309,308,1
302,313,309,308,1
303,314,310,309,1
305,314,311,310,1
307,314,311,311,1
309,312,311,309,1
309,310,310,305,1
307,307,309,299,1
302,303,306,293,1
294,299,303,290,1
286,296,299,287,1
280,294,295,286,1
278,293,293,286,1
281,293,292,287,1
286,295,292,288,1
296,297,292,289,1
306,299,294,289,1
311,301,298,290,1
312,304,302,291,1
310,306,306,294,1
308,308,309,297,1
305,308,310,300,1
303,309,311,302,1
302,308,311,304,1
303,308,311,308,1
304,308,311,313,1
305,309,312,317,1
304,308,312,321,1
304,307,312,324,1
303,306,312,328,1
302,305,311,331,1
302,304,309,333,1
303,303,308,336,1
306,302,307,337,1
308,301,308,336,1
308,301,307,333,1
307,301,307,328,1
304,302,306,322,1
304,303,306,316,1
306,303,306,310,1
308,304,306,303,1
310,305,306,297,1
312,306,305,294,1
313,307,303,292,1
313,308,302,292,1
311,308,300,291,1
307,308,299,288,1
304,308,298,286,1
304,307,297,284,1
305,305,298,284,1
305,302,299,287,1
306,300,300,292,1
308,298,302,297,1
311,298,303,302,1
315,298,304,305,1
320,299,305,307,1
325,303,305,306,1
328,306,305,303,1
327,308,305,298,1
323,310,303,293,1
318,311,303,291,1
312,311,302,291,1
308,311,302,294,1
305,311,302,297,1
303,310,303,300,1
302,311,303,303,1
302,310,304,305,1
302,310,303,306,1
301,308,302,306,1
299,305,302,305,1
299,304,301,306,1
299,303,302,308,1
301,303,302,309,1
304,303,304,310,1
306,303,305,310,1
307,305,307,309,1
306,306,308,308,1
304,308,309,307,1
301,309,308,305,1
297,311,309,304,1
293,312,308,301,1
288,313,308,298,1
285,313,308,296,1
285,313,308,295,1
288,313,308,295,1
293,311,309,296,1
296,311,308,298,1
301,309,306,301,1
309,307,304,304,1
316,305,300,308,1
320,304,296,312,1
322,302,292,317,1
320,301,289,322,1
313,301,286,328,1
307,301,284,333,1
304,303,287,338,1
303,306,292,340,1
305,308,297,338,1
309,310,301,334,1
314,312,303,328,1
318,313,305,322,1
320,313,306,315,1
319,312,306,309,1
315,312,305,304,1
310,312,303,298,1
305,312,300,293,1
302,311,299,289,1
299,310,298,287,1
297,309,296,286,1
295,307,296,287,1
296,306,296,290,1
299,305,297,299,1
303,306,298,312,1
306,307,300,325,1
309,308,301,334,1
312,310,302,336,1
313,311,302,333,1
314,311,301,328,1
316,311,301,322,1
320,311,302,317,1
324,311,304,311,1
323,311,304,304,1
317,310,303,297,1
310,310,301,292,1
303,309,300,288,1
298,309,298,285,1
296,309,296,284,1
294,309,295,283,1
294,309,295,283,1
295,308,294,283,1
295,307,294,285,1
295,307,294,289,1
297,307,294,295,1
299,307,296,300,1
303,308,298,304,1
305,309,300,305,1
306,310,301,305,1
305,311,301,305,1
305,312,300,306,1
307,314,300,308,1
311,317,301,311,1
313,319,301,315,1
313,320,302,321,1
312,320,302,327,1
309,320,303,333,1
304,318,303,337,1
297,316,302,338,1
293,314,300,338,1
293,311,297,335,1
294,308,295,330,1
294,306,294,323,1
297,304,293,315,1
302,302,294,308,1
308,302,295,304,1
313,302,297,302,1
316,304,299,302,1
318,307,301,304,1
319,311,302,308,1
317,313,302,310,1
314,314,301,308,1
310,315,300,305,1
304,315,299,302,1
297,314,299,299,1
291,313,298,295,1
289,312,298,292,1
290,310,297,290,1
294,309,296,289,1
298,307,295,290,1
306,306,294,293,1
314,305,295,297,1
319,304,295,301,1
322,304,296,305,1
323,304,296,310,1
323,305,297,314,1
320,305,298,318,1
316,307,299,321,1
312,309,299,325,1
311,311,297,327,1
310,312,295,326,1
308,312,292,323,1
305,312,289,317,1
301,310,287,312,1
298,308,289,309,1
296,307,294,309,1
296,307,300,314,1
298,307,305,322,1
302,307,310,330,1
306,306,312,336,1
309,304,312,338,1
310,302,309,337,1
308,299,305,334,1
306,297,300,330,1
303,295,297,326,1
302,294,295,321,1
301,295,295,315,1
301,296,295,308,1
301,297,296,300,1
300,298,296,293,1
299,299,295,287,1
298,299,293,282,1
299,299,291,279,1
303,300,289,277,1
306,300,289,277,1
308,300,289,279,1
307,300,289,281,1
305,301,290,284,1
302,301,290,287,1
300,302,291,290,1
299,302,292,293,1
299,302,292,297,1
299,302,291,299,1
298,301,292,301,1
298,301,294,304,1
299,301,297,306,1
300,301,299,307,1
300,302,300,308,1
300,304,301,308,1
299,307,301,309,1
295,309,302,309,1
290,310,303,311,1
287,312,303,313,1
289,313,303,317,1
293,313,302,323,1
298,314,302,329,1
305,315,301,334,1
312,315,300,338,1
317,315,300,342,1
318,315,300,343,1
315,314,299,343,1
309,313,298,340,1
304,312,298,336,1
299,310,296,332,1
296,307,294,325,1
296,306,293,317,1
300,305,290,308,1
304,304,287,299,1
308,304,286,289,1
310,303,286,281,1
313,303,287,276,1
314,302,288,274,1
315,302,288,274,1
315,301,289,275,1
315,301,293,276,1
315,301,297,279,1
314,302,302,282,1
314,302,305,285,1
313,302,308,287,1
314,301,308,290,1
315,301,307,293,1
319,300,306,296,1
322,299,305,298,1
322,298,305,299,1
320,296,304,300,1
315,296,304,301,1
310,298,304,303,1
304,300,304,305,1
296,302,303,307,1
288,303,303,310,1
283,303,303,312,1
285,303,306,315,1
292,304,309,318,1
298,304,311,320,1
302,305,313,321,1
305,306,313,321,1
305,306,313,318,1
305,306,311,314,1
303,305,309,310,1
300,305,307,309,1
298,303,305,311,1
295,302,302,313,1
291,300,301,316,1
287,299,300,318,1
285,299,300,320,1
284,299,300,321,1
284,300,299,320,1
287,300,299,319,1
293,301,299,321,1
302,302,298,323,1
309,303,298,325,1
312,305,297,325,1
310,307,298,324,1
305,309,301,320,1
298,310,304,313,1
292,311,308,304,1
290,311,310,294,1
293,311,311,286,1
297,310,311,281,1
301,308,309,279,1
303,305,308,280,1
306,303,306,283,1
308,300,304,289,1
310,297,305,298,1
312,296,308,308,1
314,296,311,318,1
316,297,313,325,1
317,299,316,330,1
317,302,317,333,1
317,305,319,334,1
317,309,320,332,1
315,312,320,330,1
310,314,320,325,1
307,316,319,319,1
305,315,318,314,1
305,314,316,310,1
305,313,313,306,1
304,311,311,302,1
301,310,309,298,1
297,308,307,294,1
291,307,306,292,1
287,305,306,291,1
287,303,305,290,1
293,301,305,291,1
304,299,305,293,1
315,298,307,295,1
322,298,308,297,1
327,299,308,298,1
328,302,308,300,1
325,304,309,301,1
321,308,310,302,1
315,310,310,301,1
310,313,308,299,1
303,314,307,298,1
297,314,306,297,1
290,313,305,298,1
283,312,304,300,1
277,311,305,301,1
272,310,306,301,1
272,308,307,301,1
277,306,309,301,1
289,305,309,303,1
302,304,310,306,1
313,303,310,309,1
318,303,311,312,1
320,303,311,315,1
318,303,309,317,1
315,304,307,318,1
311,305,306,318,1
309,307,305,317,1
307,308,305,314,1
306,309,305,312,1
305,310,305,309,1
304,310,305,304,1
303,309,304,299,1
303,309,303,297,1
304,308,302,298,1
305,308,302,300,1
306,307,301,301,1
303,306,301,302,1
300,304,301,302,1
299,302,302,303,1
299,300,304,304,1
299,298,305,308,1
300,297,306,316,1
304,297,307,325,1
310,297,307,332,1
313,299,309,337,1
314,300,310,339,1
312,302,311,339,1
309,304,311,337,1
306,305,311,333,1
304,306,309,326,1
302,305,307,318,1
302,304,306,309,1
302,304,306,302,1
303,303,307,297,1
304,303,308,292,1
305,303,308,288,1
304,303,307,283,1
302,302,304,280,1
300,299,299,277,1
298,297,295,277,1
299,296,292,279,1
302,296,292,282,1
306,296,293,287,1
306,295,297,292,1
304,296,302,299,1
300,298,309,306,1
295,300,314,312,1
292,303,317,316,1
291,306,318,319,1
291,308,319,321,1
292,310,318,322,1
293,312,318,322,1
295,312,317,321,1
299,312,315,319,1
302,311,312,318,1
305,311,308,317,1
307,309,306,314,1
308,307,305,312,1
307,305,305,310,1
303,303,305,309,1
295,302,306,309,1
287,300,306,309,1
279,298,306,309,1
276,296,307,308,1
280,297,308,307,1
290,298,309,305,1
300,300,309,304,1
307,301,309,301,1
309,302,308,298,1
309,304,307,295,1
307,305,307,294,1
304,306,307,296,1
303,307,308,299,1
304,308,309,302,1
306,308,310,305,1
307,308,310,306,1
304,308,307,306,1
301,307,303,306,1
298,305,299,305,1
297,304,297,303,1
296,303,297,302,1
298,303,297,303,1
303,303,296,306,1
308,303,295,309,1
310,303,295,311,1
311,304,297,313,1
312,305,300,315,1
315,307,302,315,1
318,308,303,313,1
321,308,304,309,1
321,306,303,305,1
320,305,303,302,1
316,303,302,300,1
311,301,300,300,1
305,301,300,301,1
299,301,300,304,1
294,301,300,307,1
290,301,299,308,1
287,300,298,308,1
287,299,298,310,1
289,299,299,311,1
293,299,301,312,1
300,300,304,314,1
308,301,307,316,1
314,304,309,317,1
316,306,312,318,1
315,309,313,317,1
311,310,314,314,1
307,311,313,310,1
304,311,311,307,1
306,311,309,303,1
308,310,307,301,1
311,310,305,300,1
314,309,303,301,1
314,307,301,306,1
311,306,297,310,1
304,305,293,313,1
296,304,289,313,1
288,304,286,311,1
283,304,285,305,1
281,303,285,298,1
285,303,288,291,1
296,304,293,287,1
308,304,296,285,1
317,304,298,285,1
322,304,300,289,1
324,305,302,295,1
322,306,304,301,1
318,306,304,305,1
312,307,306,309,1
307,309,307,312,1
302,310,307,312,1
298,311,307,311,1
295,311,307,308,1
294,311,306,306,1
295,309,306,306,1
297,308,306,306,1
300,307,307,308,1
304,305,307,310,1
308,303,307,311,1
310,301,306,313,1
311,301,305,316,1
312,301,303,318,1
312,301,303,319,1
310,301,303,316,1
308,302,302,309,1
306,302,301,300,1
304,303,299,292,1
302,303,298,285,1
301,303,297,281,1
300,303,297,279,1
300,303,296,278,1
298,303,296,279,1
294,303,296,282,1
290,303,297,287,1
287,303,296,291,1
287,304,293,295,1
291,304,289,296,1
298,304,288,298,1
303,304,287,299,1
308,305,289,301,1
311,306,292,303,1
314,307,296,305,1
316,308,300,307,1
317,309,303,307,1
316,310,306,306,1
316,311,308,303,1
313,312,309,302,1
310,312,310,302,1
304,312,309,302,1
297,311,307,301,1
294,310,305,298,1
295,309,302,295,1
298,308,301,292,1
301,306,301,290,1
303,306,301,290,1
303,306,301,291,1
302,306,300,292,1
300,306,299,292,1
296,304,298,292,1
290,302,298,292,1
286,301,298,292,1
287,301,298,293,1
295,301,299,296,1
304,303,299,298,1
312,304,301,302,1
317,306,302,304,1
321,308,304,307,1
324,310,305,309,1
325,312,306,312,1
324,313,305,314,1
321,314,304,317,1
317,314,303,319,1
312,314,300,323,1
308,314,298,329,1
304,314,294,335,1
300,313,291,338,1
297,312,288,335,1
296,310,287,330,1
298,308,289,324,1
303,305,293,317,1
307,303,297,309,1
312,301,301,303,1
314,300,305,299,1
316,300,307,299,1
316,302,310,300,1
317,303,311,301,1
317,304,310,300,1
317,305,308,300,1
316,307,306,301,1
316,307,305,302,1
314,309,305,303,1
310,309,305,301,1
307,310,306,299,1
306,310,305,297,1
305,310,306,295,1
304,309,306,293,1
303,307,306,291,1
302,304,305,289,1
301,301,303,290,1
299,299,301,293,1
297,298,299,297,1
298,298,298,301,1
302,299,298,305,1
306,301,301,310,1
310,303,305,314,1
312,305,309,317,1
312,307,312,319,1
312,309,313,319,1
311,311,313,318,1
311,312,314,317,1
311,313,315,317,1
312,314,315,318,1
312,314,314,320,1
313,313,312,322,1
313,311,310,322,1
313,307,306,319,1
312,304,304,315,1
310,301,301,309,1
305,298,299,302,1
301,296,299,297,1
299,295,300,294,1
299,296,302,294,1
300,296,303,296,1
301,298,305,298,1
301,301,306,300,1
301,304,306,300,1
303,305,305,299,1
306,306,305,298,1
311,306,306,298,1
315,306,306,298,1
318,306,306,297,1
320,306,305,296,1
321,306,304,295,1
321,306,304,294,1
318,306,303,294,1
314,305,302,294,1
311,305,301,294,1
310,304,301,297,1
309,302,302,301,1
309,301,303,306,1
308,300,304,312,1
306,300,304,318,1
304,300,304,323,1
303,300,303,327,1
301,302,302,329,1
300,304,302,331,1
298,306,300,335,1
298,308,298,338,1
298,311,295,338,1
300,312,296,334,1
303,313,300,329,1
307,313,305,323,1
309,312,309,318,1
311,311,311,313,1
312,310,310,309,1
312,308,308,305,1
312,306,307,303,1
312,305,306,301,1
312,303,305,297,1
310,301,304,292,1
308,300,301,287,1
306,299,299,285,1
305,299,297,286,1
301,300,299,288,1
298,301,303,290,1
294,304,307,292,1
292,306,309,293,1
291,309,309,295,1
292,311,308,298,1
295,312,306,302,1
300,313,306,308,1
304,313,307,314,1
306,314,307,319,1
307,314,305,323,1
307,315,305,325,1
308,316,307,323,1
308,315,310,318,1
309,313,312,311,1
310,310,313,304,1
309,307,312,297,1
306,305,311,293,1
301,303,310,290,1
298,302,307,289,1
297,303,304,290,1
298,304,302,291,1
300,306,300,292,1
302,308,299,292,1
305,311,299,292,1
308,313,299,291,1
311,314,299,292,1
312,315,298,293,1
315,315,295,296,1
317,315,291,299,1
319,314,290,304,1
319,313,290,310,1
319,313,291,316,1
318,312,292,320,1
319,310,294,322,1
319,310,298,321,1
315,309,300,318,1
311,308,302,314,1
309,307,303,313,1
308,308,305,314,1
307,310,307,317,1
305,311,309,320,1
302,312,310,322,1
300,312,311,324,1
298,313,312,325,1
297,313,311,322,1
297,312,309,317,1
298,311,305,311,1
299,310,301,304,1
301,310,298,298,1
305,309,297,291,1
309,309,298,286,1
313,307,300,281,1
315,304,301,277,1
315,302,301,277,1
313,299,301,280,1
308,297,302,285,1
303,297,302,292,1
300,296,304,301,1
298,296,306,309,1
297,298,309,318,1
296,300,311,327,1
296,304,314,334,1
296,307,316,338,1
296,310,317,339,1
296,312,316,337,1
295,312,315,333,1
295,313,314,327,1
295,312,312,320,1
295,311,311,313,1
298,309,309,306,1
303,307,308,299,1
308,305,307,293,1
310,303,307,289,1
311,301,306,289,1
311,300,306,293,1
312,299,306,302,1
310,299,306,312,1
308,300,307,319,1
305,301,310,322,1
301,302,312,321,1
300,303,313,318,1
302,304,313,313,1
305,307,313,309,1
308,309,314,304,1
311,310,312,300,1
313,311,309,298,1
315,312,307,298,1
316,313,305,300,1
317,311,305,302,1
317,310,304,302,1
314,307,302,301,1
312,304,300,299,1
310,302,300,300,1
308,301,300,303,1
307,300,300,309,1
307,299,301,315,1
307,299,304,320,1
303,298,307,322,1
298,298,310,322,1
299,298,313,320,1
306,299,314,318,1
315,300,313,316,1
320,302,311,311,1
319,304,310,305,1
314,304,309,297,1
310,305,308,291,1
309,305,308,286,1
310,305,309,282,1
311,305,309,280,1
312,304,309,279,1
310,302,309,280,1
305,302,308,282,1
299,300,306,284,1
293,299,304,286,1
289,298,303,288,1
287,298,302,292,1
288,298,302,298,1
291,299,303,304,1
295,300,305,311,1
300,303,307,317,1
303,305,310,322,1
304,308,312,323,1
302,312,313,324,1
302,315,314,325,1
303,317,314,326,1
304,319,314,328,1
305,320,315,330,1
304,320,315,330,1
304,319,315,327,1
304,318,314,323,1
305,317,313,318,1
305,315,311,313,1
304,314,308,309,1
304,312,306,303,1
304,310,305,298,1
304,307,305,295,1
305,305,304,293,1
303,303,304,295,1
301,303,304,301,1
297,304,304,310,1
295,306,306,318,1
298,308,307,325,1
302,310,308,329,1
305,312,309,331,1
305,313,311,329,1
305,315,313,324,1
305,316,314,317,1
305,316,314,309,1
305,315,314,303,1
304,314,312,299,1
302,313,310,297,1
299,312,308,295,1
296,310,306,294,1
297,308,303,293,1
301,306,297,291,1
306,305,294,292,1
310,304,293,296,1
312,303,296,303,1
313,303,299,312,1
313,304,302,320,1
312,304,303,326,1
309,305,304,329,1
306,307,304,328,1
304,308,304,324,1
304,309,303,318,1
305,310,302,312,1
308,310,300,306,1
310,311,298,304,1
312,310,296,304,1
313,309,294,305,1
312,308,293,306,1
310,306,294,306,1
310,305,296,305,1
310,303,300,303,1
311,301,303,301,1
310,299,305,299,1
306,297,307,298,1
301,296,307,297,1
299,296,307,298,1
300,297,309,300,1
302,299,310,302,1
304,301,311,304,1
305,303,310,305,1
305,304,308,307,1
303,305,306,310,1
299,306,306,313,1
296,307,305,315,1
293,307,305,317,1
292,308,305,319,1
292,307,306,320,1
294,306,306,318,1
296,303,305,314,1
296,300,304,309,1
297,298,305,304,1
297,297,305,300,1
297,295,305,297,1
298,295,304,297,1
297,295,303,298,1
296,296,301,301,1
295,299,299,305,1
295,304,300,309,1
296,308,302,315,1
297,311,304,320,1
297,313,307,326,1
298,314,308,331,1
302,315,308,336,1
307,315,309,341,1
310,315,309,345,1
310,315,309,349,1
309,314,308,351,1
309,313,306,348,1
311,311,305,341,1
311,309,304,330,1
309,306,303,320,1
308,303,301,310,1
309,302,300,301,1
312,301,300,294,1
314,301,301,288,1
314,302,303,284,1
314,303,305,283,1
315,303,308,284,1
315,305,310,286,1
316,306,311,287,1
315,307,309,288,1
313,307,304,288,1
309,306,301,288,1
308,306,299,289,1
308,306,298,290,1
309,306,298,292,1
311,306,299,295,1
313,306,300,298,1
315,306,300,300,1
315,305,299,303,1
317,304,299,305,1
319,303,298,306,1
321,302,298,308,1
323,301,300,313,1
324,301,302,322,1
323,302,303,332,1
321,303,301,340,1
320,305,300,345,1
321,309,298,346,1
320,312,297,344,1
315,314,298,339,1
310,315,300,333,1
306,316,302,325,1
301,315,302,316,1
296,315,300,308,1
292,314,300,302,1
291,313,300,297,1
293,310,301,291,1
295,308,302,285,1
296,306,301,281,1
298,304,301,279,1
300,301,300,278,1
302,300,300,279,1
305,299,300,282,1
307,298,302,286,1
308,299,305,293,1
310,301,307,300,1
311,303,309,305,1
311,305,311,310,1
310,307,312,311,1
308,308,313,311,1
305,308,313,309,1
302,308,312,309,1
300,309,311,310,1
299,310,310,311,1
298,310,308,312,1
297,310,306,315,1
296,310,306,318,1
293,310,306,322,1
291,308,307,327,1
293,307,308,334,1
297,307,310,341,1
304,307,310,348,1
313,307,310,354,1
319,307,310,357,1
322,306,309,356,1
323,306,308,351,1
325,307,308,345,1
326,308,308,338,1
323,309,308,330,1
320,310,306,321,1
315,310,306,313,1
311,309,305,307,1
309,308,303,303,1
307,308,303,300,1
306,307,302,295,1
304,305,300,288,1
303,303,298,279,1
301,301,297,272,1
300,299,297,267,1
301,297,296,265,1
302,295,295,267,1
305,294,293,270,1
308,293,290,274,1
310,292,286,280,1
313,293,285,286,1
315,295,287,292,1
316,297,293,298,1
317,300,299,303,1
317,302,303,306,1
317,303,305,308,1
317,304,306,310,1
315,304,306,311,1
314,304,306,311,1
311,304,304,309,1
305,304,304,308,1
300,303,304,307,1
296,303,305,308,1
292,303,305,310,1
290,303,306,314,1
289,302,305,320,1
290,301,304,328,1
292,300,302,335,1
297,300,300,339,1
304,302,299,340,1
310,304,300,339,1
314,306,301,336,1
318,308,303,329,1
319,308,304,319,1
319,309,304,308,1
316,308,305,297,1
312,309,306,289,1
307,309,306,283,1
302,310,304,280,1
298,311,304,279,1
297,310,304,279,1
296,309,304,279,1
296,307,303,280,1
295,306,301,281,1
294,304,297,283,1
293,301,292,284,1
292,299,288,285,1
292,298,286,286,1
293,297,286,288,1
295,296,287,291,1
296,297,291,295,1
298,299,298,298,1
298,300,304,299,1
295,301,309,300,1
292,302,311,300,1
292,303,311,300,1
296,304,310,300,1
301,306,307,301,1
305,308,304,302,1
306,310,303,306,1
306,313,304,312,1
305,314,307,318,1
303,315,309,324,1
300,313,309,326,1
303,311,309,323,1
308,308,310,318,1
314,304,309,311,1
320,302,306,304,1
325,301,302,299,1
328,300,300,296,1
330,300,302,295,1
329,301,306,296,1
324,302,310,299,1
317,304,311,300,1
309,305,309,302,1
303,305,306,304,1
299,306,304,309,1
298,307,303,313,1
298,309,303,317,1
298,310,301,319,1
297,310,300,318,1
296,311,300,316,1
294,311,300,313,1
293,310,301,310,1
292,309,303,307,1
293,307,304,306,1
295,306,307,306,1
300,304,309,307,1
305,302,310,309,1
309,301,307,310,1
311,300,303,309,1
313,300,300,308,1
313,301,297,306,1
311,302,294,302,1
307,303,293,296,1
303,303,291,288,1
301,304,290,282,1
302,304,291,278,1
305,304,294,276,1
306,305,297,275,1
305,306,299,276,1
304,307,301,279,1
304,308,303,285,1
304,308,305,290,1
303,308,306,296,1
303,309,307,300,1
305,309,307,306,1
307,309,307,314,1
309,309,309,326,1
310,309,313,339,1
309,309,315,350,1
307,309,317,355,1
302,309,317,353,1
295,309,316,346,1
286,310,315,337,1
278,310,312,326,1
272,310,309,314,1
272,309,307,303,1
278,308,306,293,1
286,307,306,286,1
295,306,305,281,1
305,305,304,279,1
311,304,304,279,1
313,303,303,282,1
311,302,302,288,1
309,300,301,295,1
310,300,301,302,1
314,300,301,307,1
319,300,302,309,1
322,300,303,308,1
324,300,303,307,1
323,302,302,305,1
323,304,302,304,1
322,306,302,303,1
320,308,303,302,1
317,308,303,301,1
312,308,302,301,1
307,308,301,301,1
302,308,300,301,1
297,307,299,302,1
292,306,297,303,1
287,305,297,304,1
285,305,298,306,1
286,303,299,305,1
288,302,300,302,1
292,300,301,298,1
297,298,301,295,1
302,296,301,292,1
305,295,301,290,1
309,294,298,289,1
312,295,298,290,1
314,296,300,293,1
313,299,303,297,1
312,302,305,302,1
312,306,305,305,1
311,310,304,307,1
311,313,305,310,1
311,316,308,312,1
310,318,311,315,1
309,318,314,316,1
308,318,314,317,1
307,317,314,318,1
306,316,313,318,1
304,315,312,318,1
303,313,309,319,1
305,310,305,320,1
309,308,301,322,1
312,306,298,324,1
312,304,296,324,1
309,304,296,323,1
306,305,298,322,1
301,307,302,320,1
295,309,306,316,1
286,310,307,311,1
279,311,307,306,1
278,311,305,302,1
279,312,303,300,1
280,313,303,298,1
284,313,304,298,1
288,314,305,298,1
294,315,306,299,1
302,316,306,301,1
313,317,306,303,1
322,317,305,305,1
328,315,305,307,1
332,314,305,311,1
333,312,306,314,1
332,311,307,317,1
329,310,307,320,1
327,310,308,323,1
325,310,308,326,1
324,310,308,330,1
323,312,306,330,1
322,312,302,327,1
319,313,300,320,1
317,313,302,314,1
315,314,304,311,1
313,316,306,313,1
311,317,308,318,1
309,317,309,326,1
308,316,309,336,1
307,315,308,346,1
307,314,307,353,1
306,312,307,355,1
305,311,307,353,1
305,308,305,346,1
305,305,303,334,1
305,303,300,318,1
305,302,298,301,1
305,301,297,287,1
304,300,297,277,1
304,300,299,272,1
307,302,302,271,1
310,304,306,273,1
312,307,308,276,1
313,310,309,278,1
311,311,309,282,1
309,313,309,286,1
308,313,308,288,1
308,313,308,288,1
308,312,306,287,1
307,311,304,287,1
308,310,301,288,1
312,310,298,289,1
311,309,294,291,1
302,307,291,294,1
289,305,289,298,1
282,304,289,301,1
281,303,292,304,1
285,303,294,307,1
290,303,296,310,1
297,305,298,313,1
303,307,300,316,1
310,310,302,317,1
315,312,304,317,1
318,313,305,315,1
321,314,306,313,1
322,316,308,311,1
321,317,309,308,1
320,318,310,307,1
318,318,311,305,1
316,318,311,302,1
314,316,311,299,1
312,315,309,296,1
311,313,306,294,1
308,310,302,290,1
304,308,298,286,1
301,305,295,283,1
299,303,293,283,1
297,301,290,284,1
295,302,288,287,1
296,303,290,292,1
301,304,293,298,1
307,307,298,305,1
311,310,301,311,1
309,312,302,315,1
306,315,301,318,1
303,317,302,319,1
303,318,303,320,1
304,319,304,324,1
305,319,304,329,1
307,319,304,335,1
308,317,302,339,1
308,315,300,338,1
307,312,298,335,1
307,308,296,332,1
308,306,294,329,1
311,304,292,324,1
312,302,292,318,1
312,302,293,313,1
312,304,295,309,1
310,306,298,305,1
307,308,300,301,1
304,310,302,299,1
301,311,304,298,1
300,312,305,299,1
300,311,305,300,1
302,311,305,300,1
305,311,304,300,1
307,312,302,299,1
309,313,301,299,1
309,313,300,300,1
308,313,300,301,1
306,312,299,303,1
303,311,297,307,1
302,310,296,314,1
302,308,294,320,1
301,307,293,324,1
296,305,291,324,1
288,305,292,322,1
282,305,293,318,1
284,307,296,314,1
293,309,298,311,1
306,311,300,308,1
316,313,301,304,1
322,314,300,301,1
323,314,299,298,1
321,315,298,297,1
319,315,297,296,1
315,315,295,294,1
312,314,294,292,1
309,314,292,291,1
305,313,289,290,1
302,311,287,289,1
299,309,285,289,1
298,307,282,289,1
298,305,280,291,1
299,303,278,293,1
300,302,278,296,1
301,302,279,301,1
302,303,283,308,1
302,305,290,315,1
304,308,298,323,1
307,311,304,328,1
310,313,308,332,1
312,315,309,335,1
311,316,308,335,1
310,316,306,334,1
308,316,304,330,1
308,315,303,324,1
310,315,302,317,1
312,314,300,309,1
311,311,299,301,1
311,309,298,295,1
311,307,296,292,1
311,305,296,291,1
312,303,295,293,1
313,303,296,296,1
314,302,298,300,1
316,302,299,303,1
317,303,300,306,1
317,303,301,308,1
318,305,303,310,1
319,307,305,310,1
318,308,304,309,1
315,309,303,307,1
312,309,304,304,1
309,310,305,302,1
307,310,308,302,1
307,310,309,302,1
307,310,311,304,1
308,310,312,307,1
310,311,312,309,1
310,311,309,308,1
308,308,305,306,1
305,306,300,307,1
304,304,296,311,1
305,302,295,317,1
306,301,295,324,1
309,302,298,330,1
310,303,301,333,1
310,305,304,335,1
309,308,306,338,1
308,310,308,342,1
305,312,308,344,1
301,313,307,341,1
298,312,306,335,1
296,312,304,326,1
298,312,302,317,1
301,311,299,307,1
304,310,297,300,1
306,309,296,295,1
309,308,297,292,1
313,306,298,290,1
317,304,298,287,1
319,301,296,284,1
320,298,295,282,1
319,296,295,282,1
315,294,295,283,1
311,294,295,284,1
308,295,295,286,1
307,297,295,288,1
307,299,298,291,1
307,302,301,294,1
307,305,303,296,1
307,308,304,297,1
307,310,303,299,1
306,311,302,301,1
303,313,300,303,1
299,313,297,305,1
295,313,296,306,1
292,313,295,308,1
290,313,296,308,1
290,312,296,306,1
291,310,298,302,1
295,307,299,298,1
301,305,301,295,1
304,302,303,293,1
305,301,305,292,1
306,300,306,294,1
304,299,306,296,1
303,300,305,300,1
302,302,305,302,1
302,304,304,305,1
302,307,304,307,1
303,310,304,308,1
303,311,304,309,1
303,313,304,308,1
302,313,305,307,1
301,313,305,304,1
301,312,304,302,1
301,311,303,302,1
301,310,302,302,1
301,309,302,301,1
302,307,301,300,1
301,305,300,300,1
300,303,299,301,1
298,302,299,304,1
297,302,298,307,1
297,302,298,309,1
300,302,298,312,1
306,303,300,316,1
313,304,303,321,1
319,306,306,324,1
322,309,308,322,1
321,312,308,319,1
319,314,308,315,1
316,315,307,313,1
312,315,304,312,1
309,314,301,312,1
308,314,298,312,1
307,313,295,310,1
305,311,293,307,1
304,310,292,302,1
306,308,293,297,1
311,306,297,295,1
314,304,302,295,1
315,302,306,296,1
316,301,308,298,1
320,301,307,299,1
324,301,306,298,1
324,301,304,298,1
319,302,303,298,1
315,304,303,302,1
311,306,302,308,1
309,308,302,314,1
309,310,303,319,1
310,313,304,322,1
311,314,305,324,1
311,316,306,326,1
311,317,307,326,1
309,317,307,323,1
307,317,306,320,1
304,315,305,316,1
302,313,303,311,1
302,309,301,307,1
302,305,300,305,1
301,302,298,304,1
302,301,297,302,1
304,300,297,301,1
305,301,297,299,1
306,301,297,298,1
307,302,300,299,1
306,303,303,301,1
303,304,307,303,1
301,304,310,304,1
301,304,312,305,1
305,305,313,308,1
307,305,314,312,1
309,306,314,315,1
309,306,315,315,1
310,307,314,314,1
308,307,311,310,1
305,306,307,305,1
300,305,305,298,1
296,302,302,292,1
292,299,300,287,1
290,296,298,284,1
291,294,298,285,1
295,293,298,289,1
299,293,300,296,1
304,294,305,304,1
309,296,309,313,1
313,298,312,320,1
316,302,315,325,1
318,305,316,326,1
318,308,316,322,1
316,310,314,314,1
312,311,312,303,1
308,310,311,293,1
305,308,310,287,1
303,307,308,283,1
301,304,307,282,1
302,302,305,282,1
306,300,304,282,1
309,298,302,284,1
310,297,300,286,1
309,295,300,290,1
307,295,302,295,1
307,294,303,300,1
308,295,305,305,1
309,297,307,308,1
311,300,310,310,1
313,302,312,313,1
314,304,314,315,1
315,306,315,317,1
316,308,315,320,1
318,309,315,322,1
318,309,315,323,1
319,310,317,327,1
318,310,318,333,1
315,312,319,337,1
311,312,320,340,1
306,312,321,342,1
302,311,320,340,1
300,308,316,338,1
299,306,311,332,1
302,303,305,326,1
307,300,301,319,1
313,298,300,313,1
317,298,301,308,1
318,298,302,304,1
316,300,302,302,1
313,302,302,301,1
309,304,302,303,1
306,305,301,307,1
304,306,301,311,1
302,308,301,313,1
300,309,302,313,1
298,309,304,313,1
297,309,305,312,1
296,310,306,312,1
295,309,307,311,1
295,309,308,311,1
295,309,309,312,1
296,308,309,315,1
299,305,307,319,1
303,302,303,321,1
306,301,299,321,1
308,299,296,320,1
309,299,296,319,1
310,300,297,319,1
309,302,299,319,1
309,304,304,318,1
311,306,309,318,1
314,308,312,318,1
315,309,314,318,1
316,311,315,317,1
316,313,315,316,1
316,314,314,313,1
316,314,313,309,1
315,313,312,303,1
314,310,311,297,1
312,307,310,292,1
311,304,309,290,1
311,302,308,290,1
312,300,308,292,1
314,299,308,296,1
318,298,308,302,1
321,299,308,308,1
323,299,307,313,1
323,300,307,315,1
321,301,306,314,1
317,302,305,310,1
312,303,302,305,1
305,304,299,302,1
297,305,297,299,1
296,305,296,297,1
301,306,298,296,1
307,306,300,294,1
311,306,301,293,1
312,306,302,293,1
310,306,304,294,1
307,307,306,296,1
306,307,308,299,1
306,306,309,302,1
307,305,310,306,1
310,304,310,310,1
313,303,310,314,1
316,304,310,319,1
318,305,310,325,1
319,306,312,332,1
319,307,314,338,1
318,309,315,342,1
314,310,316,342,1
309,311,314,338,1
304,311,311,332,1
302,311,310,324,1
301,310,309,316,1
300,310,307,309,1
298,310,303,304,1
297,310,300,302,1
298,310,300,302,1
300,309,301,304,1
303,308,303,307,1
307,307,304,312,1
310,306,305,317,1
312,304,305,322,1
313,303,305,326,1
311,302,306,327,1
309,302,306,326,1
306,302,306,324,1
301,303,307,321,1
295,304,307,317,1
291,305,306,311,1
291,306,305,303,1
292,306,304,296,1
294,305,304,292,1
298,305,303,293,1
302,304,301,299,1
304,304,299,308,1
308,304,297,316,1
310,306,296,321,1
312,307,296,322,1
312,307,297,318,1
311,306,299,310,1
311,304,302,302,1
311,302,304,296,1
313,301,306,294,1
316,300,306,295,1
319,300,306,296,1
321,301,306,298,1
323,302,306,300,1
325,304,306,301,1
324,305,305,300,1
321,306,305,298,1
317,308,306,298,1
311,309,308,299,1
304,311,309,301,1
298,312,310,304,1
294,312,310,308,1
292,312,310,312,1
291,312,310,316,1
293,311,310,317,1
299,310,309,316,1
306,308,307,312,1
310,305,305,306,1
311,302,303,301,1
312,300,304,299,1
312,299,305,299,1
311,299,307,300,1
307,300,308,301,1
304,302,309,301,1
302,305,310,300,1
302,307,309,299,1
303,309,307,298,1
303,311,305,297,1
304,311,303,296,1
304,312,303,297,1
304,312,303,297,1
305,311,303,298,1
306,310,304,299,1
308,309,306,299,1
310,308,307,300,1
313,308,309,301,1
316,307,311,304,1
319,306,312,308,1
319,305,312,313,1
316,304,310,318,1
312,303,309,322,1
310,302,308,323,1
308,302,308,322,1
308,303,309,320,1
307,305,310,317,1
304,307,311,313,1
301,308,312,308,1
299,309,314,304,1
297,310,316,300,1
295,310,317,297,1
293,310,316,294,1
290,309,314,293,1
289,309,312,296,1
288,309,310,299,1
288,309,307,302,1
289,309,304,303,1
293,309,302,305,1
298,308,301,308,1
303,307,301,310,1
307,305,302,312,1
312,304,303,313,1
315,303,303,314,1
317,303,303,313,1
318,303,301,311,1
316,303,296,308,1
312,304,290,305,1
309,305,287,303,1
