319,291,313,320,2
320,287,317,320,2
323,284,323,322,2
328,286,330,325,2
330,291,335,327,2
326,300,337,326,2
318,312,337,324,2
311,325,337,321,2
305,340,333,321,2
302,352,325,322,2
301,358,317,323,2
301,355,315,323,2
303,343,321,323,2
305,328,334,320,2
309,313,344,315,2
312,302,348,310,2
315,295,347,306,2
317,291,342,306,2
316,292,333,308,2
311,295,324,311,2
304,294,322,316,2
298,289,325,320,2
293,282,329,322,2
293,277,330,323,2
296,274,329,321,2
300,272,321,318,2
304,271,307,314,2
306,271,295,313,2
308,271,286,313,2
309,273,278,314,2
308,275,272,315,2
306,278,266,313,2
304,285,262,309,2
303,295,260,303,2
301,306,259,297,2
297,315,259,293,2
295,319,260,289,2
296,315,264,287,2
299,307,270,287,2
304,299,278,289,2
308,298,285,295,2
312,304,289,304,2
314,314,296,313,2
314,325,306,320,2
312,334,314,323,2
312,337,320,323,2
313,337,323,322,2
316,335,328,318,2
318,330,328,313,2
318,323,320,306,2
315,314,306,298,2
309,303,292,289,2
304,286,283,284,2
299,269,278,282,2
297,259,276,283,2
298,264,276,286,2
300,283,279,291,2
303,304,282,297,2
306,323,286,303,2
307,336,289,307,2
304,343,291,310,2
301,343,293,312,2
300,336,295,313,2
301,325,297,315,2
302,316,298,315,2
304,313,299,315,2
305,313,299,313,2
304,315,298,312,2
303,318,299,311,2
304,320,300,309,2
305,321,303,306,2
307,320,307,304,2
309,318,310,303,2
311,314,312,302,2
312,310,313,301,2
313,304,313,303,2
315,295,315,305,2
317,289,317,306,2
315,287,320,306,2
306,291,321,307,2
297,297,319,308,2
292,303,316,309,2
290,308,313,308,2
288,315,313,309,2
289,326,313,310,2
293,336,313,312,2
299,342,311,313,2
306,349,309,313,2
311,355,311,313,2
313,356,315,311,2
314,349,320,310,2
314,335,324,311,2
313,317,321,310,2
311,302,308,306,2
309,289,294,302,2
308,278,283,299,2
309,270,277,298,2
310,265,275,296,2
311,263,277,296,2
311,263,280,294,2
311,269,284,294,2
312,285,290,295,2
313,305,295,298,2
314,324,301,302,2
313,337,307,306,2
309,340,313,309,2
305,333,318,311,2
304,317,319,313,2
303,295,316,316,2
304,274,311,319,2
304,261,306,320,2
302,258,299,320,2
300,266,293,319,2
299,280,289,318,2
300,298,288,317,2
301,315,290,315,2
301,328,294,313,2
302,338,300,310,2
302,341,304,309,2
301,342,306,308,2
299,337,306,308,2
297,330,305,308,2
298,325,306,308,2
303,322,306,307,2
309,321,305,305,2
313,320,303,302,2
314,316,302,301,2
314,308,306,300,2
314,297,313,301,2
314,287,320,303,2
314,282,328,305,2
315,280,335,307,2
315,279,339,310,2
315,279,339,310,2
313,283,332,309,2
309,292,323,305,2
306,302,315,302,2
303,312,312,300,2
303,323,310,299,2
305,334,309,300,2
308,344,310,300,2
311,352,310,300,2
314,354,307,300,2
315,351,302,300,2
313,347,294,301,2
309,344,287,303,2
305,340,284,305,2
302,334,286,306,2
299,325,289,305,2
298,316,291,304,2
299,306,292,302,2
300,296,294,301,2
302,293,303,303,2
303,294,316,305,2
305,297,329,306,2
306,300,337,307,2
308,306,339,307,2
309,311,333,308,2
311,316,320,306,2
314,317,305,304,2
314,313,292,301,2
315,305,284,300,2
315,297,281,301,2
316,291,282,303,2
315,289,287,306,2
314,293,291,309,2
311,301,295,311,2
309,309,297,311,2
307,315,300,310,2
305,320,305,309,2
305,323,313,306,2
305,325,319,302,2
308,325,326,300,2
312,323,331,298,2
317,319,335,296,2
320,311,336,294,2
322,298,331,292,2
321,283,322,292,2
319,277,314,294,2
315,278,308,299,2
311,283,304,305,2
308,289,299,310,2
306,293,295,314,2
307,294,291,316,2
310,293,286,316,2
313,291,279,314,2
315,289,273,312,2
314,286,271,310,2
313,283,273,308,2
314,285,280,306,2
311,289,294,304,2
304,292,307,301,2
297,296,314,300,2
294,300,317,299,2
294,308,319,298,2
296,319,317,297,2
298,331,309,297,2
300,342,298,297,2
301,350,291,298,2
302,351,290,300,2
302,348,293,303,2
303,341,297,306,2
303,333,302,309,2
304,324,304,312,2
303,314,304,314,2
303,306,301,315,2
302,301,300,314,2
302,299,303,312,2
301,300,313,311,2
302,303,324,310,2
302,308,333,309,2
302,316,336,308,2
303,322,334,307,2
304,328,326,307,2
305,332,316,308,2
307,337,304,308,2
306,343,293,307,2
306,344,286,304,2
305,342,283,303,2
307,333,283,303,2
311,319,289,303,2
315,300,297,302,2
319,278,308,302,2
322,258,318,303,2
320,245,325,306,2
314,243,326,309,2
308,250,323,313,2
302,262,316,314,2
297,273,308,314,2
294,283,302,313,2
293,290,297,311,2
294,296,295,309,2
296,302,295,308,2
299,311,296,307,2
301,319,298,306,2
303,327,299,306,2
304,334,301,306,2
305,339,303,307,2
305,337,307,308,2
304,329,311,309,2
303,319,316,311,2
304,315,319,312,2
307,317,321,312,2
311,322,322,309,2
313,325,323,306,2
314,323,322,303,2
315,317,320,300,2
315,310,317,299,2
313,305,314,300,2
309,303,309,302,2
305,303,304,305,2
303,305,302,307,2
303,308,306,308,2
306,310,312,308,2
308,309,318,306,2
309,305,321,305,2
309,299,323,306,2
309,295,322,307,2
309,293,315,308,2
308,295,304,308,2
308,300,294,309,2
308,310,288,310,2
309,321,288,309,2
308,326,292,305,2
308,324,297,299,2
307,317,302,294,2
308,308,304,293,2
308,295,304,294,2
307,285,301,299,2
305,282,298,303,2
301,285,296,307,2
298,291,294,309,2
298,296,293,309,2
298,302,294,309,2
299,307,297,309,2
302,307,302,309,2
306,302,305,307,2
311,294,306,306,2
315,289,306,305,2
319,288,305,306,2
320,292,306,306,2
320,297,308,307,2
318,302,312,308,2
316,307,314,309,2
312,312,316,308,2
308,317,317,305,2
305,321,320,303,2
303,326,324,300,2
302,331,327,297,2
302,337,329,297,2
303,341,327,296,2
304,341,319,297,2
303,336,310,299,2
301,329,300,301,2
299,321,291,303,2
298,310,287,304,2
299,295,288,305,2
299,282,293,307,2
301,276,301,309,2
307,275,306,310,2
312,280,309,311,2
316,287,311,311,2
318,295,315,310,2
317,303,320,309,2
314,310,324,307,2
312,314,324,306,2
310,319,319,305,2
309,324,313,303,2
309,330,306,301,2
307,332,300,300,2
305,331,296,300,2
304,328,294,300,2
303,322,293,299,2
304,312,294,298,2
307,299,295,296,2
312,286,298,295,2
318,278,303,295,2
322,276,309,298,2
320,280,313,303,2
315,287,316,308,2
309,296,314,311,2
304,303,310,313,2
297,310,306,312,2
291,315,302,311,2
286,319,301,309,2
283,322,300,307,2
285,327,300,306,2
290,335,299,306,2
295,344,298,306,2
299,350,298,305,2
301,350,300,304,2
302,341,302,303,2
303,328,305,303,2
303,313,307,304,2
302,299,307,303,2
301,286,305,303,2
300,279,304,303,2
300,278,304,304,2
300,283,305,305,2
301,290,305,306,2
302,297,306,307,2
303,303,310,308,2
305,308,319,309,2
306,311,333,310,2
307,312,344,310,2
307,311,347,309,2
307,310,343,309,2
309,309,335,309,2
310,311,329,309,2
310,314,323,306,2
306,316,319,304,2
302,316,318,302,2
299,314,318,301,2
296,307,316,300,2
296,297,312,300,2
299,283,306,301,2
302,270,302,303,2
304,260,299,305,2
304,255,298,307,2
305,253,300,308,2
304,251,304,307,2
304,254,306,307,2
304,266,307,309,2
305,284,306,311,2
305,303,303,313,2
304,317,298,312,2
304,325,291,311,2
302,330,287,310,2
302,331,287,307,2
302,329,288,302,2
303,325,291,295,2
306,320,295,289,2
308,314,298,284,2
308,305,300,283,2
307,296,300,286,2
307,291,301,294,2
308,290,304,304,2
309,287,309,314,2
308,284,315,320,2
306,280,318,324,2
304,279,323,325,2
303,280,329,326,2
302,284,333,326,2
302,289,335,325,2
301,297,334,323,2
300,306,327,320,2
297,314,317,315,2
295,320,306,310,2
295,323,298,306,2
296,325,293,302,2
297,330,290,298,2
296,335,289,297,2
297,339,288,297,2
297,342,288,298,2
297,343,288,299,2
297,340,288,299,2
297,333,290,299,2
299,324,293,300,2
301,314,296,301,2
303,305,301,303,2
305,298,307,305,2
306,291,315,307,2
306,282,322,308,2
306,275,328,309,2
306,271,332,309,2
305,272,331,307,2
305,274,324,305,2
304,277,317,303,2
302,281,313,303,2
300,287,309,304,2
298,293,305,306,2
298,300,303,309,2
299,306,302,311,2
301,310,303,312,2
302,312,305,313,2
302,313,306,312,2
301,312,307,309,2
301,309,311,306,2
303,305,319,303,2
306,303,328,301,2
309,300,333,300,2
311,296,332,299,2
312,290,325,298,2
311,285,317,298,2
310,281,310,300,2
309,283,303,301,2
306,292,294,301,2
303,302,286,300,2
300,313,282,299,2
299,321,281,299,2
298,323,282,299,2
300,316,281,299,2
302,306,279,300,2
303,298,278,301,2
303,295,278,302,2
303,295,279,303,2
304,301,279,304,2
304,311,281,303,2
303,323,285,302,2
301,336,291,299,2
299,344,297,297,2
298,347,302,297,2
302,344,304,298,2
306,335,304,299,2
310,322,301,301,2
312,309,298,304,2
313,300,298,307,2
312,300,299,310,2
310,307,302,312,2
309,316,305,312,2
307,323,307,311,2
306,324,309,309,2
305,320,312,307,2
303,312,313,304,2
303,302,314,302,2
306,294,316,302,2
308,286,320,302,2
311,277,323,302,2
312,265,324,302,2
313,254,322,303,2
313,248,316,304,2
312,250,310,306,2
311,257,304,307,2
310,265,300,307,2
308,272,298,306,2
306,276,295,303,2
305,278,293,300,2
305,276,292,298,2
306,274,291,297,2
305,275,289,300,2
304,282,288,304,2
303,295,288,308,2
301,310,288,311,2
301,324,291,312,2
301,333,296,312,2
301,339,302,310,2
300,342,308,309,2
299,341,312,308,2
298,338,317,307,2
300,333,324,308,2
302,327,330,309,2
305,319,332,311,2
307,312,331,310,2
308,305,327,309,2
308,299,325,308,2
307,294,323,308,2
306,294,322,308,2
306,301,322,309,2
305,315,322,310,2
305,329,321,311,2
305,338,317,312,2
305,343,310,311,2
306,340,299,307,2
305,330,289,302,2
305,316,284,299,2
305,303,285,298,2
307,295,292,295,2
309,295,301,293,2
310,300,309,291,2
311,302,318,291,2
313,301,325,295,2
316,297,329,298,2
318,290,324,301,2
317,282,311,303,2
315,273,298,303,2
314,268,290,303,2
312,267,290,300,2
310,267,297,296,2
309,266,306,293,2
306,265,313,293,2
302,267,313,297,2
298,277,309,302,2
297,288,302,307,2
296,299,296,308,2
295,305,292,308,2
295,307,290,307,2
295,306,289,306,2
296,304,286,305,2
296,306,285,307,2
296,310,284,308,2
295,312,285,309,2
294,312,289,310,2
293,312,296,311,2
294,313,303,311,2
297,313,309,311,2
301,316,311,309,2
305,320,309,308,2
309,323,306,307,2
310,323,303,305,2
310,322,300,303,2
310,319,296,301,2
309,315,293,299,2
307,315,290,298,2
306,318,289,297,2
304,322,288,297,2
303,325,286,298,2
303,328,286,298,2
303,333,286,299,2
304,336,288,301,2
304,336,291,303,2
304,335,296,306,2
305,332,301,308,2
306,326,305,310,2
307,318,311,311,2
307,309,315,311,2
307,301,315,309,2
306,296,310,306,2
305,294,305,304,2
303,295,303,302,2
303,297,302,300,2
302,298,301,299,2
302,297,301,299,2
302,291,301,299,2
301,282,302,301,2
304,275,305,302,2
309,270,309,303,2
317,271,312,304,2
324,277,313,306,2
327,285,314,308,2
323,295,318,308,2
317,306,326,307,2
313,317,335,306,2
312,326,340,303,2
312,331,339,300,2
310,330,331,295,2
307,323,319,292,2
305,314,305,292,2
303,303,295,292,2
302,292,289,294,2
302,285,288,296,2
302,279,292,298,2
302,276,297,300,2
302,281,300,300,2
303,292,301,300,2
305,305,298,299,2
308,315,296,297,2
309,320,297,297,2
309,318,300,298,2
307,314,302,301,2
306,311,300,304,2
304,308,296,306,2
303,307,293,308,2
304,306,293,310,2
305,305,294,311,2
305,304,294,310,2
305,303,294,309,2
305,304,295,307,2
305,310,294,305,2
306,319,293,303,2
308,330,293,302,2
310,343,293,302,2
313,355,295,301,2
313,363,296,299,2
310,364,300,296,2
305,356,304,293,2
301,340,307,290,2
298,320,309,289,2
298,299,309,289,2
299,278,308,288,2
302,263,308,288,2
304,256,308,288,2
306,254,311,289,2
306,255,313,290,2
306,257,314,292,2
305,261,314,295,2
303,268,312,299,2
301,281,311,304,2
299,295,311,308,2
296,307,311,309,2
294,314,310,309,2
294,316,307,309,2
295,315,306,310,2
299,314,304,310,2
302,313,302,308,2
303,312,297,304,2
302,310,293,301,2
299,308,292,299,2
298,306,296,299,2
299,305,304,300,2
303,306,312,302,2
308,310,318,302,2
310,315,322,301,2
310,320,325,299,2
308,322,325,298,2
307,323,320,296,2
305,324,312,295,2
303,322,304,293,2
302,317,300,291,2
301,313,300,290,2
300,314,303,290,2
302,319,310,292,2
304,323,317,294,2
305,324,321,295,2
305,322,319,295,2
305,318,315,295,2
304,313,309,295,2
304,306,302,294,2
304,297,296,294,2
305,286,292,294,2
305,277,291,295,2
306,275,291,298,2
307,284,293,302,2
308,296,294,306,2
307,307,297,308,2
306,313,301,310,2
304,316,306,310,2
301,314,311,310,2
298,310,315,309,2
298,307,316,307,2
300,306,314,306,2
303,306,311,304,2
307,306,307,303,2
309,307,304,302,2
310,307,302,301,2
310,306,301,300,2
310,305,302,300,2
310,304,304,300,2
309,302,306,302,2
308,303,309,304,2
309,305,314,307,2
311,309,318,309,2
312,314,321,311,2
311,318,322,310,2
309,322,323,309,2
307,323,322,307,2
306,320,321,306,2
305,314,318,305,2
304,309,312,304,2
303,305,306,303,2
303,303,303,302,2
303,303,303,303,2
303,303,302,303,2
302,303,300,302,2
300,303,296,300,2
299,303,293,300,2
298,303,292,301,2
297,303,292,302,2
297,302,293,303,2
299,302,295,303,2
303,303,298,304,2
307,303,303,304,2
310,305,310,305,2
313,308,317,307,2
315,310,324,308,2
316,311,328,308,2
316,311,330,307,2
315,310,331,306,2
312,307,330,305,2
309,301,327,305,2
308,297,323,305,2
309,299,322,305,2
311,304,321,306,2
313,310,320,306,2
313,314,318,304,2
311,315,317,302,2
309,315,316,300,2
308,316,319,299,2
306,318,319,299,2
304,321,311,297,2
301,328,298,294,2
300,336,287,292,2
302,342,283,293,2
304,344,282,293,2
306,341,284,294,2
306,335,285,293,2
307,326,286,293,2
307,314,289,292,2
307,302,294,291,2
310,291,303,294,2
315,286,315,298,2
319,284,327,302,2
319,283,334,304,2
316,280,329,304,2
311,279,317,304,2
306,281,305,304,2
303,285,300,304,2
301,289,299,303,2
301,294,299,301,2
302,297,298,300,2
303,300,297,301,2
301,302,297,302,2
299,307,299,302,2
299,313,299,302,2
299,316,298,302,2
301,317,296,300,2
303,315,295,297,2
305,315,297,294,2
306,314,300,291,2
308,311,306,289,2
310,309,311,290,2
313,311,315,292,2
314,314,315,294,2
316,313,312,298,2
316,308,308,302,2
316,299,305,307,2
314,288,305,310,2
310,276,308,312,2
307,267,312,313,2
304,262,313,313,2
303,262,310,314,2
303,269,305,316,2
305,282,300,318,2
308,297,301,318,2
309,313,309,316,2
309,329,320,313,2
309,343,325,308,2
309,352,324,302,2
308,355,320,296,2
307,352,320,288,2
305,340,323,281,2
304,319,326,277,2
303,292,325,277,2
304,268,321,281,2
306,249,314,288,2
309,236,305,295,2
311,231,298,301,2
313,236,293,306,2
313,251,290,310,2
308,267,289,312,2
301,280,289,313,2
295,289,287,312,2
293,295,286,312,2
293,299,288,311,2
294,299,291,312,2
295,298,294,311,2
296,296,296,310,2
298,295,297,309,2
300,296,299,306,2
301,299,299,302,2
301,305,298,299,2
300,313,298,297,2
299,322,300,296,2
299,330,305,296,2
301,337,312,296,2
302,338,316,294,2
303,335,320,292,2
303,332,322,291,2
302,328,320,291,2
300,323,314,292,2
299,317,307,294,2
298,311,302,296,2
300,304,299,297,2
304,300,301,298,2
308,297,307,300,2
314,296,313,302,2
320,295,318,303,2
325,294,321,304,2
327,296,319,303,2
328,299,313,302,2
326,303,306,301,2
322,306,299,299,2
317,308,292,297,2
312,311,286,296,2
308,313,280,295,2
305,310,277,293,2
303,303,278,294,2
302,296,281,294,2
302,290,285,295,2
301,287,289,297,2
303,282,293,298,2
305,274,297,300,2
307,270,301,304,2
308,272,305,308,2
308,280,311,312,2
308,290,317,315,2
307,298,323,316,2
307,304,327,315,2
306,308,329,314,2
306,310,330,311,2
305,310,327,308,2
304,310,319,304,2
304,308,311,299,2
304,310,305,295,2
304,316,302,290,2
304,323,301,287,2
304,323,301,285,2
304,318,301,285,2
305,314,303,287,2
307,313,306,291,2
308,313,313,297,2
310,311,321,304,2
312,308,326,310,2
314,304,325,315,2
316,299,323,319,2
317,296,320,321,2
316,294,316,320,2
314,294,313,317,2
311,294,313,312,2
308,296,313,308,2
307,304,312,305,2
307,317,311,302,2
309,333,309,298,2
309,347,310,294,2
307,355,314,290,2
304,355,319,289,2
302,342,323,291,2
301,318,326,295,2
301,292,327,301,2
303,272,325,307,2
304,261,318,313,2
305,258,308,317,2
305,260,297,319,2
304,264,286,320,2
303,272,279,321,2
303,284,278,320,2
303,298,280,319,2
303,312,284,316,2
304,326,288,314,2
305,336,293,311,2
306,337,300,307,2
307,329,308,302,2
311,311,315,298,2
317,291,318,295,2
323,276,318,294,2
326,268,315,294,2
326,266,309,295,2
321,274,302,296,2
314,289,296,298,2
308,303,294,299,2
305,312,295,301,2
304,316,296,303,2
303,316,298,304,2
303,314,302,306,2
303,311,308,307,2
304,309,313,309,2
305,309,319,310,2
306,311,321,311,2
307,313,321,310,2
307,314,316,308,2
305,314,306,304,2
302,315,295,299,2
299,315,290,296,2
296,316,294,295,2
295,316,304,297,2
297,317,316,300,2
299,318,322,303,2
300,316,322,304,2
300,310,316,305,2
299,302,309,306,2
300,293,303,308,2
302,286,300,309,2
304,281,301,309,2
303,277,304,309,2
300,274,306,309,2
299,273,306,308,2
298,274,305,308,2
299,282,306,309,2
301,293,306,309,2
304,308,303,308,2
306,324,298,308,2
306,334,294,307,2
306,334,292,306,2
306,329,293,305,2
306,319,294,305,2
306,307,294,304,2
307,298,295,305,2
309,293,297,306,2
310,295,298,308,2
310,299,298,308,2
309,304,297,308,2
308,310,297,308,2
308,318,298,309,2
308,326,298,311,2
308,330,297,311,2
306,331,296,310,2
304,329,293,307,2
302,324,291,304,2
303,317,292,303,2
305,310,297,302,2
307,307,305,301,2
308,307,314,301,2
308,306,324,302,2
307,303,329,305,2
306,295,328,306,2
306,288,321,308,2
306,285,311,309,2
308,285,305,312,2
310,288,307,312,2
310,290,316,312,2
310,292,328,312,2
310,294,336,311,2
312,298,334,308,2
315,300,326,304,2
317,303,314,302,2
315,305,299,300,2
309,305,287,298,2
304,300,280,297,2
299,290,278,298,2
296,279,280,300,2
295,274,285,304,2
296,277,290,307,2
299,284,295,310,2
303,292,299,312,2
306,300,301,312,2
307,305,299,311,2
308,307,296,311,2
307,309,294,311,2
306,314,295,312,2
305,318,300,313,2
307,323,305,314,2
308,327,308,314,2
309,334,308,312,2
309,338,308,310,2
309,337,305,308,2
310,333,300,308,2
310,330,295,308,2
311,327,293,309,2
311,322,292,309,2
312,315,293,310,2
312,306,294,309,2
310,295,295,307,2
307,286,295,305,2
306,286,295,303,2
305,296,296,301,2
306,310,297,299,2
307,323,299,298,2
309,331,301,297,2
312,331,302,295,2
317,322,303,295,2
323,310,306,298,2
327,299,311,303,2
326,290,314,307,2
320,283,314,310,2
315,280,310,310,2
312,282,304,310,2
310,287,300,309,2
309,290,299,308,2
307,293,300,308,2
305,296,301,308,2
305,300,302,309,2
305,304,304,309,2
305,307,306,310,2
304,310,308,310,2
304,315,309,310,2
305,319,306,310,2
306,319,301,309,2
306,314,295,307,2
306,303,293,305,2
306,292,294,306,2
308,287,297,309,2
311,288,302,312,2
313,295,308,314,2
314,303,312,315,2
315,309,313,315,2
315,312,310,313,2
313,312,308,311,2
311,311,305,310,2
311,307,301,308,2
310,303,297,306,2
309,300,296,304,2
308,298,297,304,2
306,298,299,305,2
305,298,301,308,2
304,298,300,310,2
305,297,299,311,2
306,292,298,311,2
307,289,301,309,2
308,296,312,308,2
308,315,327,310,2
309,338,340,312,2
311,358,345,314,2
314,370,342,314,2
318,372,334,312,2
323,365,323,308,2
325,354,311,305,2
323,343,298,303,2
318,333,289,302,2
312,320,283,303,2
307,304,281,303,2
303,290,281,303,2
300,278,283,304,2
298,271,286,306,2
299,270,290,309,2
300,273,294,310,2
301,276,296,310,2
302,278,298,309,2
302,279,299,308,2
302,279,301,308,2
304,281,303,309,2
305,286,304,310,2
307,293,304,312,2
309,300,305,313,2
311,310,307,314,2
313,317,310,315,2
314,322,315,314,2
315,324,317,313,2
317,324,318,313,2
318,324,320,313,2
318,326,323,315,2
316,330,326,317,2
314,333,328,319,2
312,335,328,318,2
309,336,322,315,2
305,337,312,311,2
300,334,302,306,2
295,324,295,304,2
293,311,290,306,2
295,301,287,309,2
303,294,288,311,2
311,289,290,312,2
317,284,296,311,2
320,281,301,310,2
319,281,306,309,2
317,283,310,309,2
315,287,313,309,2
315,289,314,308,2
315,290,315,308,2
317,294,315,308,2
319,298,315,307,2
317,303,312,305,2
308,307,308,304,2
300,312,305,304,2
296,317,303,305,2
295,323,304,306,2
295,328,306,305,2
297,331,306,304,2
299,333,305,303,2
301,331,301,301,2
302,328,297,300,2
304,326,292,301,2
306,322,290,302,2
308,318,290,305,2
308,314,295,309,2
307,309,301,312,2
306,303,309,313,2
306,299,315,311,2
307,298,319,308,2
310,296,319,305,2
312,293,318,303,2
313,288,317,301,2
314,285,318,301,2
314,290,319,301,2
314,300,319,302,2
312,311,320,302,2
311,315,317,301,2
310,312,311,298,2
310,306,306,296,2
311,300,308,295,2
311,297,315,296,2
314,295,325,297,2
317,292,334,296,2
319,286,340,296,2
321,284,343,300,2
321,290,339,306,2
319,302,328,310,2
314,313,315,313,2
308,318,302,315,2
303,318,291,316,2
300,315,284,315,2
299,315,280,314,2
299,316,279,312,2
299,316,280,311,2
297,316,281,310,2
295,314,285,308,2
294,311,291,307,2
294,308,297,305,2
294,304,303,303,2
294,302,307,302,2
295,302,309,302,2
296,306,310,304,2
297,311,310,307,2
299,312,308,309,2
301,306,305,310,2
302,297,302,310,2
302,284,302,309,2
300,273,303,308,2
300,267,305,307,2
299,269,308,306,2
300,280,312,305,2
300,296,314,303,2
301,309,316,300,2
303,317,316,297,2
304,320,316,295,2
305,317,315,294,2
305,317,315,297,2
306,322,313,301,2
305,329,310,306,2
306,337,306,310,2
308,341,303,313,2
309,341,304,314,2
308,335,308,314,2
306,325,314,315,2
303,313,322,315,2
300,302,328,315,2
300,295,327,314,2
302,292,321,312,2
304,294,313,308,2
306,301,306,305,2
310,310,300,301,2
312,319,296,297,2
310,328,293,292,2
306,334,291,289,2
302,335,293,287,2
300,335,297,286,2
300,333,300,288,2
301,328,302,291,2
303,319,305,295,2
305,305,307,298,2
307,289,307,302,2
309,281,308,306,2
311,282,309,311,2
311,289,309,314,2
309,294,306,316,2
306,297,304,316,2
303,299,305,317,2
301,301,309,316,2
299,301,312,312,2
298,299,314,307,2
297,301,314,304,2
296,307,313,302,2
297,316,313,302,2
297,326,317,303,2
298,333,326,305,2
298,335,337,305,2
298,330,343,304,2
300,318,345,302,2
302,302,342,300,2
305,288,335,300,2
308,278,327,302,2
309,272,320,307,2
311,270,314,311,2
312,270,310,315,2
313,273,306,319,2
316,275,302,321,2
316,279,298,321,2
314,282,294,319,2
309,286,290,314,2
303,291,287,310,2
297,297,286,307,2
293,304,287,306,2
293,307,288,305,2
295,309,292,302,2
299,306,297,299,2
302,301,303,296,2
304,296,307,294,2
307,291,309,293,2
309,289,309,294,2
311,292,310,297,2
311,298,311,302,2
309,306,310,308,2
305,314,310,314,2
301,322,311,318,2
296,325,312,320,2
293,324,310,320,2
292,320,306,319,2
294,316,304,317,2
297,309,302,314,2
300,303,303,311,2
305,298,304,310,2
309,294,307,309,2
310,294,310,306,2
310,298,314,303,2
310,308,317,300,2
310,319,315,298,2
310,329,308,297,2
311,334,301,295,2
312,330,297,295,2
312,321,293,295,2
310,311,290,298,2
308,307,289,304,2
305,308,290,313,2
302,308,292,320,2
301,305,294,323,2
303,301,300,323,2
306,298,307,320,2
308,297,314,318,2
309,298,318,314,2
309,302,321,312,2
309,310,322,309,2
309,317,321,307,2
309,323,318,305,2
309,330,312,304,2
307,338,306,301,2
306,345,306,298,2
304,350,312,293,2
304,347,320,288,2
304,333,330,286,2
305,307,339,287,2
307,277,347,292,2
309,255,352,300,2
312,245,348,307,2
315,248,336,315,2
317,260,324,322,2
315,276,315,327,2
309,290,307,331,2
304,299,301,331,2
303,305,297,329,2
303,310,293,327,2
303,313,290,324,2
302,315,287,319,2
301,314,284,315,2
299,312,282,311,2
298,306,284,307,2
299,297,288,304,2
301,287,291,302,2
304,280,294,300,2
307,276,295,300,2
309,276,295,298,2
311,278,294,298,2
312,283,296,298,2
313,290,299,300,2
314,298,303,302,2
313,304,308,306,2
310,307,314,310,2
304,307,319,313,2
300,310,321,314,2
299,315,319,314,2
299,318,314,314,2
301,319,308,314,2
302,318,301,314,2
302,316,295,312,2
301,315,289,310,2
299,315,286,309,2
299,314,287,309,2
299,309,292,308,2
301,298,299,306,2
303,282,307,303,2
307,269,314,302,2
311,266,319,302,2
316,272,321,302,2
320,279,322,301,2
322,282,322,300,2
321,281,323,297,2
320,281,323,295,2
317,282,320,295,2
314,285,313,297,2
311,297,302,300,2
306,315,292,304,2
303,330,286,307,2
303,338,286,310,2
305,342,292,313,2
307,342,305,316,2
307,339,319,318,2
306,333,333,318,2
304,326,344,318,2
305,318,350,319,2
305,315,352,318,2
305,314,347,317,2
305,315,332,316,2
305,315,314,315,2
305,314,298,315,2
304,309,286,314,2
303,303,279,314,2
302,299,277,313,2
301,297,277,312,2
300,297,278,311,2
300,297,281,310,2
301,296,283,310,2
302,295,285,309,2
303,294,287,307,2
304,296,290,304,2
304,297,295,300,2
305,299,300,297,2
309,300,305,294,2
311,304,308,292,2
313,307,310,292,2
312,305,310,295,2
311,302,309,299,2
309,297,307,304,2
309,291,306,309,2
309,283,306,313,2
308,276,305,317,2
307,271,306,322,2
308,273,307,328,2
311,278,309,333,2
314,284,310,337,2
315,289,312,338,2
314,296,312,339,2
314,302,312,336,2
315,308,313,333,2
317,312,315,330,2
318,313,318,326,2
317,310,318,320,2
315,307,314,313,2
312,301,316,306,2
311,295,322,299,2
312,288,331,294,2
313,281,337,291,2
315,274,338,290,2
316,270,333,292,2
316,267,323,297,2
314,270,311,303,2
313,275,302,308,2
311,283,300,311,2
311,289,306,314,2
310,295,314,315,2
309,300,319,317,2
309,306,320,318,2
309,311,320,321,2
309,313,319,323,2
310,316,315,324,2
311,320,307,325,2
311,324,297,325,2
309,325,287,323,2
307,326,278,321,2
307,328,272,320,2
310,329,271,319,2
316,328,273,317,2
323,325,279,314,2
325,320,289,313,2
324,311,299,312,2
322,299,307,310,2
321,286,313,308,2
318,276,316,307,2
312,271,316,306,2
306,269,313,304,2
299,272,309,304,2
295,277,305,303,2
292,285,302,303,2
291,296,300,302,2
290,308,300,302,2
291,319,302,304,2
292,329,304,306,2
294,337,305,308,2
297,342,306,309,2
299,338,307,310,2
301,329,307,310,2
302,315,307,311,2
304,302,308,312,2
305,290,307,313,2
305,282,310,315,2
306,278,316,319,2
308,277,323,322,2
311,280,328,323,2
313,286,329,321,2
314,289,327,318,2
312,289,325,317,2
311,290,324,318,2
309,293,323,320,2
308,301,319,321,2
306,310,311,319,2
305,316,303,317,2
303,319,296,314,2
302,319,289,311,2
302,315,282,308,2
301,310,277,303,2
301,303,273,301,2
301,299,272,302,2
304,298,275,306,2
307,299,287,313,2
312,303,308,322,2
316,308,328,327,2
320,312,339,327,2
321,312,341,325,2
321,307,339,320,2
320,300,337,313,2
318,294,334,307,2
317,292,333,304,2
316,292,333,305,2
313,294,333,307,2
307,298,334,311,2
302,299,337,314,2
299,298,338,316,2
299,297,337,317,2
303,293,332,314,2
308,286,324,311,2
312,277,312,308,2
314,272,298,308,2
313,273,284,311,2
310,282,275,315,2
307,298,272,318,2
306,315,272,320,2
307,330,274,320,2
309,339,275,319,2
312,343,277,319,2
316,342,280,320,2
319,338,284,322,2
323,333,287,323,2
327,331,288,324,2
324,333,289,324,2
313,337,290,322,2
299,341,291,319,2
289,344,291,314,2
284,344,290,308,2
284,337,290,303,2
287,323,291,299,2
291,303,293,296,2
294,283,296,295,2
299,265,300,297,2
304,252,305,302,2
307,244,311,308,2
306,245,315,314,2
304,255,316,320,2
303,272,314,323,2
302,291,310,322,2
302,306,304,318,2
302,315,298,314,2
301,319,294,309,2
300,318,293,307,2
301,313,293,308,2
305,307,296,311,2
308,303,298,314,2
309,301,303,317,2
309,299,310,319,2
308,299,316,319,2
307,299,320,319,2
307,297,320,320,2
308,293,318,321,2
307,288,314,322,2
308,288,307,323,2
309,298,302,324,2
309,314,299,325,2
309,331,299,324,2
308,347,299,321,2
307,356,298,316,2
306,359,298,310,2
305,355,297,305,2
304,351,295,303,2
304,346,294,305,2
304,340,294,308,2
304,331,294,310,2
304,320,297,311,2
308,309,300,310,2
314,300,303,309,2
319,293,307,307,2
323,288,311,307,2
324,283,316,310,2
322,277,321,313,2
318,269,326,315,2
314,259,330,317,2
309,251,333,317,2
306,244,336,318,2
304,242,341,318,2
304,245,344,318,2
304,256,343,320,2
305,270,339,323,2
305,285,333,325,2
304,295,325,327,2
303,299,320,328,2
303,300,318,329,2
301,300,316,329,2
298,301,310,328,2
295,304,300,325,2
292,308,286,321,2
293,311,273,318,2
297,314,263,315,2
302,313,258,312,2
307,309,260,310,2
309,300,267,310,2
310,291,277,311,2
311,288,285,312,2
312,289,291,313,2
314,295,292,313,2
315,303,289,312,2
312,310,286,311,2
309,316,283,310,2
307,323,283,309,2
305,332,283,306,2
303,338,286,303,2
302,341,290,299,2
301,338,296,295,2
302,329,301,292,2
303,316,306,291,2
305,302,310,294,2
305,291,315,298,2
304,283,323,301,2
301,276,331,304,2
300,272,337,306,2
303,273,337,310,2
307,278,331,313,2
306,284,323,315,2
304,291,315,318,2
303,297,309,318,2
303,302,304,316,2
303,306,302,313,2
303,311,301,310,2
302,316,298,306,2
302,320,294,304,2
305,323,293,304,2
306,326,293,305,2
306,328,294,305,2
304,328,294,305,2
301,326,293,306,2
299,322,293,307,2
297,317,292,309,2
295,309,290,310,2
293,295,289,310,2
293,281,291,311,2
296,274,296,311,2
301,274,302,311,2
305,277,309,311,2
308,282,316,311,2
311,286,322,311,2
313,288,325,310,2
313,288,325,308,2
312,285,321,308,2
310,283,314,308,2
307,286,307,311,2
303,294,302,314,2
301,303,300,317,2
300,310,300,317,2
302,315,300,315,2
303,317,299,314,2
303,319,297,312,2
304,321,295,309,2
305,327,294,304,2
304,335,295,300,2
303,341,297,296,2
303,346,299,294,2
303,348,301,297,2
303,343,305,303,2
303,330,310,311,2
304,314,315,318,2
304,302,318,322,2
305,296,320,322,2
305,291,319,321,2
304,284,313,320,2
303,276,304,320,2
302,277,297,320,2
300,285,292,320,2
297,295,291,320,2
296,305,293,318,2
298,311,296,313,2
302,317,298,306,2
306,319,298,299,2
309,319,298,293,2
311,315,296,290,2
312,310,295,290,2
311,303,296,295,2
310,298,299,302,2
307,291,303,310,2
305,281,307,317,2
304,270,313,322,2
304,266,317,325,2
305,267,322,326,2
304,269,325,325,2
303,267,324,323,2
302,265,320,322,2
303,265,315,320,2
305,267,312,319,2
308,271,313,318,2
309,277,321,316,2
312,286,333,316,2
314,297,345,316,2
314,309,350,314,2
313,319,349,312,2
312,328,343,310,2
310,335,333,308,2
309,337,319,306,2
308,334,308,305,2
311,324,302,307,2
315,316,300,310,2
316,313,299,313,2
311,312,299,317,2
304,313,300,321,2
299,317,298,323,2
297,323,294,322,2
295,328,292,319,2
295,330,295,315,2
297,329,302,313,2
299,325,312,312,2
302,317,317,311,2
305,307,319,311,2
309,300,315,309,2
312,297,310,306,2
315,297,304,305,2
315,299,301,304,2
313,302,300,304,2
313,302,300,306,2
316,298,299,309,2
317,292,297,312,2
313,288,295,313,2
307,284,295,313,2
300,285,296,314,2
296,292,299,317,2
294,299,303,319,2
294,301,305,319,2
297,298,306,318,2
300,290,306,316,2
303,282,306,315,2
307,277,306,314,2
310,276,304,315,2
311,280,302,316,2
311,288,299,317,2
307,297,297,316,2
302,308,294,313,2
298,316,290,310,2
296,323,286,307,2
296,329,284,305,2
297,334,285,305,2
299,336,289,305,2
302,332,297,306,2
306,322,305,307,2
308,312,314,309,2
310,307,320,310,2
310,306,324,310,2
310,303,328,308,2
309,296,329,305,2
309,286,330,304,2
309,275,329,303,2
310,271,327,302,2
310,276,323,303,2
309,287,316,305,2
308,298,311,308,2
307,307,307,309,2
306,315,303,308,2
305,323,301,306,2
304,332,304,305,2
304,342,310,306,2
304,350,315,311,2
305,356,316,316,2
307,357,315,320,2
308,354,314,324,2
310,348,313,327,2
309,340,311,328,2
305,331,313,327,2
303,321,317,326,2
302,309,320,324,2
300,297,320,321,2
298,287,315,318,2
297,280,310,316,2
296,279,305,313,2
296,281,303,309,2
295,286,300,305,2
295,288,298,302,2
297,288,298,299,2
301,282,301,296,2
306,274,305,296,2
310,266,308,298,2
314,264,309,302,2
315,271,307,308,2
316,288,304,313,2
316,307,300,316,2
317,320,298,317,2
316,325,297,316,2
314,324,297,314,2
310,318,299,313,2
306,310,301,312,2
302,304,302,312,2
299,303,301,311,2
296,305,299,309,2
295,310,296,305,2
296,317,293,300,2
296,325,291,294,2
297,332,290,290,2
298,333,290,288,2
299,327,291,288,2
298,314,293,292,2
297,298,295,299,2
296,287,300,308,2
296,279,308,316,2
298,276,318,321,2
302,276,327,324,2
306,285,333,325,2
308,298,334,325,2
309,309,333,324,2
308,315,328,322,2
308,317,319,320,2
308,316,308,318,2
310,312,299,317,2
314,308,294,317,2
314,305,293,316,2
311,304,297,316,2
307,303,302,314,2
305,304,305,311,2
304,307,304,307,2
304,313,301,304,2
306,322,297,303,2
310,335,296,303,2
314,347,297,302,2
315,354,299,300,2
314,353,300,298,2
312,344,301,295,2
311,329,303,295,2
310,312,305,296,2
310,294,309,299,2
310,279,314,304,2
310,268,319,309,2
308,264,320,312,2
307,264,318,314,2
305,268,317,316,2
304,274,320,318,2
302,280,328,320,2
300,284,337,322,2
300,284,346,322,2
302,284,353,322,2
306,287,354,321,2
310,290,344,319,2
312,294,322,315,2
313,299,300,312,2
313,304,285,310,2
313,312,278,309,2
313,319,279,309,2
312,327,283,309,2
310,335,287,310,2
309,342,292,310,2
308,343,297,310,2
308,337,303,310,2
309,327,306,310,2
310,318,307,310,2
311,314,305,310,2
313,315,302,311,2
315,320,299,312,2
317,326,293,311,2
317,330,285,310,2
318,327,280,309,2
319,317,277,308,2
321,304,279,307,2
322,290,285,307,2
322,280,294,309,2
322,274,303,312,2
322,274,311,314,2
321,279,316,316,2
319,288,316,315,2
315,297,314,313,2
310,305,308,310,2
306,309,302,307,2
302,309,297,303,2
300,306,294,301,2
299,305,293,300,2
299,310,294,301,2
299,321,295,304,2
299,337,296,306,2
298,352,296,309,2
296,363,296,309,2
295,367,295,310,2
294,363,297,310,2
294,351,299,310,2
296,334,303,310,2
301,313,308,309,2
306,289,313,309,2
312,267,317,311,2
316,249,319,314,2
317,239,319,317,2
316,240,318,319,2
314,249,315,319,2
311,263,313,318,2
309,277,311,317,2
308,289,312,315,2
309,298,314,314,2
312,304,316,313,2
315,309,317,312,2
319,312,315,311,2
323,313,312,309,2
322,314,307,307,2
315,313,304,306,2
307,311,302,307,2
302,310,301,307,2
300,309,299,308,2
302,309,297,309,2
303,308,295,310,2
304,306,294,311,2
306,304,296,314,2
307,305,300,316,2
307,308,303,316,2
306,314,306,316,2
305,322,310,314,2
305,331,314,312,2
306,341,317,308,2
306,351,314,305,2
306,358,308,300,2
306,364,306,297,2
306,370,313,296,2
307,372,331,295,2
307,365,355,293,2
306,351,379,293,2
307,333,393,296,2
309,313,392,302,2
311,292,379,308,2
314,274,361,315,2
317,263,337,320,2
318,257,311,324,2
318,257,289,326,2
318,262,275,326,2
316,270,269,325,2
313,279,268,324,2
310,285,269,321,2
308,288,271,320,2
307,292,274,319,2
308,295,276,318,2
310,297,278,315,2
312,299,280,313,2
313,300,282,311,2
312,300,284,309,2
310,299,288,308,2
309,299,291,307,2
308,300,294,307,2
307,304,295,308,2
306,311,296,309,2
306,320,296,309,2
306,328,296,310,2
308,334,297,309,2
309,338,299,309,2
310,338,303,310,2
311,335,305,310,2
310,329,307,311,2
307,321,309,311,2
305,315,311,312,2
303,314,313,312,2
305,316,312,311,2
307,318,312,310,2
310,320,313,309,2
311,320,314,308,2
311,316,314,304,2
311,307,314,297,2
311,294,312,289,2
312,279,305,283,2
313,265,297,281,2
314,255,292,285,2
315,255,292,291,2
315,263,296,298,2
315,277,301,303,2
313,289,307,306,2
311,298,311,309,2
309,302,314,312,2
307,304,314,315,2
305,305,312,315,2
304,307,308,315,2
303,311,304,313,2
303,314,301,310,2
303,317,300,307,2
303,319,301,306,2
303,322,302,306,2
303,326,301,307,2
301,327,300,308,2
299,326,296,308,2
298,322,290,309,2
298,316,287,309,2
300,311,288,310,2
301,308,295,311,2
303,305,304,313,2
304,303,312,314,2
305,303,317,314,2
306,304,320,316,2
305,307,318,315,2
304,309,312,315,2
303,311,306,313,2
303,313,303,312,2
303,314,303,311,2
304,316,305,311,2
305,317,306,311,2
306,319,307,311,2
307,324,306,311,2
307,330,304,309,2
307,339,303,306,2
307,348,304,301,2
307,353,306,296,2
309,354,308,290,2
310,346,308,284,2
313,328,307,281,2
316,309,304,280,2
318,296,301,283,2
319,288,305,288,2
319,282,317,295,2
317,278,329,303,2
314,277,336,313,2
312,279,336,319,2
311,282,332,322,2
311,286,323,322,2
309,288,312,320,2
305,289,304,318,2
301,290,301,316,2
299,291,301,313,2
298,291,303,310,2
298,291,304,308,2
299,292,303,307,2
301,292,301,306,2
302,293,298,305,2
304,294,296,305,2
306,296,296,305,2
308,297,298,305,2
311,300,301,308,2
311,304,306,310,2
310,311,310,311,2
308,318,311,310,2
306,325,311,309,2
306,331,310,308,2
307,336,307,307,2
308,342,303,304,2
308,347,300,301,2
307,352,297,299,2
306,353,296,298,2
305,352,297,298,2
304,347,298,300,2
303,335,300,300,2
302,318,302,301,2
302,303,304,302,2
304,293,307,303,2
306,288,310,304,2
307,283,313,304,2
308,278,314,305,2
310,274,314,305,2
312,274,313,305,2
314,281,313,307,2
316,292,315,307,2
317,302,318,306,2
316,305,320,304,2
314,295,320,302,2
313,275,318,301,2
311,255,315,303,2
308,241,311,305,2
306,238,304,308,2
304,246,297,311,2
306,264,295,313,2
310,285,294,313,2
314,304,293,311,2
314,317,292,310,2
311,321,291,310,2
306,318,292,310,2
302,310,295,311,2
299,301,299,312,2
298,295,303,314,2
298,292,307,316,2
299,294,311,317,2
301,299,312,317,2
304,304,313,317,2
305,309,314,315,2
306,311,314,315,2
305,314,314,314,2
304,317,310,314,2
304,318,306,313,2
305,319,304,311,2
305,319,303,310,2
304,318,303,307,2
303,317,304,306,2
302,319,303,305,2
302,326,299,306,2
302,332,294,307,2
303,337,290,307,2
304,340,288,308,2
305,340,288,308,2
306,336,289,307,2
307,331,292,306,2
308,326,296,304,2
308,320,302,303,2
307,315,307,300,2
307,314,313,299,2
306,318,316,297,2
305,324,318,297,2
304,328,314,295,2
302,328,309,295,2
302,321,305,297,2
301,309,303,300,2
300,292,303,305,2
300,276,305,309,2
301,267,306,314,2
301,263,308,317,2
302,262,309,319,2
303,264,310,320,2
305,266,312,320,2
306,269,313,320,2
307,272,314,321,2
308,277,314,323,2
308,282,315,323,2
308,287,314,322,2
305,292,314,321,2
304,298,315,319,2
303,304,318,318,2
302,311,319,314,2
303,317,318,311,2
304,321,317,307,2
306,321,316,303,2
308,318,315,300,2
310,313,314,299,2
312,308,315,299,2
313,303,315,302,2
311,299,315,304,2
308,294,313,307,2
304,291,312,312,2
301,291,308,316,2
299,293,304,318,2
298,297,300,320,2
298,302,296,320,2
299,307,293,320,2
301,312,293,320,2
302,315,294,319,2
303,315,296,318,2
304,315,299,316,2
305,316,302,313,2
306,319,306,310,2
307,322,311,307,2
307,326,317,307,2
306,329,322,309,2
305,330,323,313,2
305,328,318,316,2
309,326,308,319,2
315,322,299,320,2
321,316,291,320,2
321,309,287,320,2
315,303,288,321,2
308,300,291,324,2
302,302,294,325,2
300,310,296,325,2
299,320,297,323,2
299,327,299,319,2
298,329,300,314,2
298,326,303,308,2
301,319,310,303,2
304,309,317,300,2
305,299,323,300,2
306,295,326,303,2
306,293,327,305,2
305,290,323,306,2
305,287,316,305,2
305,283,309,305,2
307,278,302,304,2
308,275,300,304,2
309,274,300,306,2
310,277,303,308,2
310,284,308,311,2
309,293,312,315,2
308,303,314,318,2
306,312,313,320,2
306,316,310,320,2
306,317,306,319,2
307,318,304,317,2
307,319,307,315,2
307,320,312,312,2
306,323,319,309,2
306,331,327,310,2
304,342,331,312,2
303,353,331,314,2
303,358,324,314,2
303,353,314,313,2
305,340,304,311,2
308,324,299,310,2
311,308,296,308,2
313,296,295,306,2
316,288,294,303,2
320,285,294,301,2
322,285,294,300,2
323,289,293,302,2
323,299,293,306,2
321,312,297,310,2
319,326,306,313,2
315,336,318,314,2
312,340,331,314,2
307,336,341,312,2
304,326,343,312,2
302,311,342,310,2
301,293,334,309,2
299,274,320,309,2
297,260,306,310,2
297,253,296,312,2
297,250,290,314,2
299,252,285,314,2
301,260,283,313,2
304,268,282,312,2
306,277,283,311,2
307,286,286,309,2
308,294,290,307,2
309,303,293,305,2
310,311,295,305,2
311,316,299,305,2
311,314,303,307,2
310,306,306,309,2
309,298,308,312,2
307,294,309,315,2
305,293,308,317,2
301,295,304,319,2
299,300,301,320,2
300,308,301,320,2
303,320,305,319,2
309,332,311,316,2
313,336,318,311,2
316,331,325,307,2
318,322,327,304,2
319,314,325,305,2
319,309,320,308,2
317,308,315,312,2
314,309,312,315,2
311,312,312,319,2
310,316,314,320,2
310,318,314,320,2
311,315,310,318,2
311,312,304,315,2
309,309,299,313,2
305,310,294,311,2
302,313,292,310,2
299,319,291,308,2
299,324,289,304,2
299,322,288,300,2
302,314,289,297,2
307,301,294,298,2
310,288,299,301,2
310,278,302,305,2
308,271,304,309,2
304,266,306,310,2
301,264,308,311,2
300,265,309,311,2
302,267,310,311,2
303,272,310,312,2
306,277,310,313,2
308,283,310,313,2
310,287,310,312,2
312,291,309,311,2
317,297,307,310,2
321,310,304,311,2
319,324,301,312,2
313,332,298,314,2
307,334,295,316,2
303,332,294,317,2
302,329,295,317,2
302,326,296,316,2
303,323,298,312,2
304,321,300,307,2
305,321,301,304,2
307,321,302,301,2
308,320,302,299,2
309,314,303,298,2
310,303,305,298,2
310,292,309,301,2
311,288,313,304,2
314,294,316,308,2
316,310,317,310,2
317,329,316,313,2
318,345,316,315,2
317,354,319,316,2
315,353,326,316,2
313,343,332,316,2
311,327,337,316,2
311,309,336,317,2
311,294,330,318,2
311,285,317,318,2
310,284,302,318,2
309,286,288,316,2
307,288,279,314,2
307,290,275,311,2
306,287,275,308,2
306,279,278,307,2
307,270,281,307,2
308,262,285,307,2
309,260,290,308,2
311,265,294,309,2
311,278,295,310,2
311,295,295,311,2
310,309,293,311,2
307,318,292,309,2
305,321,293,307,2
303,318,295,305,2
303,307,298,304,2
303,300,301,304,2
304,301,305,306,2
305,303,309,308,2
306,303,310,310,2
306,301,307,311,2
305,297,301,311,2
305,291,297,313,2
306,287,300,316,2
309,286,305,319,2
313,288,308,320,2
316,294,308,318,2
317,304,306,314,2
317,320,304,309,2
316,338,303,305,2
315,356,302,302,2
314,371,299,300,2
312,378,297,298,2
311,372,296,297,2
312,354,295,297,2
314,329,295,298,2
315,307,294,300,2
312,288,295,302,2
309,274,297,306,2
305,267,298,308,2
302,267,300,309,2
302,276,303,311,2
302,290,306,313,2
303,303,308,314,2
304,309,309,316,2
305,309,311,319,2
306,303,313,321,2
307,296,316,321,2
309,291,319,320,2
309,291,322,317,2
310,293,324,312,2
311,301,326,309,2
313,313,329,307,2
316,321,330,304,2
317,319,326,300,2
318,312,317,297,2
319,305,304,295,2
317,299,295,294,2
310,292,291,294,2
303,287,291,296,2
299,288,292,300,2
300,290,293,304,2
302,289,299,307,2
304,288,309,310,2
307,291,321,313,2
309,294,330,317,2
310,298,331,320,2
311,300,327,322,2
312,301,318,322,2
311,301,305,319,2
308,302,292,315,2
304,303,283,310,2
301,303,281,306,2
299,302,284,303,2
299,303,292,301,2
303,306,300,301,2
307,313,306,300,2
310,324,307,299,2
311,334,305,298,2
311,340,302,297,2
310,339,300,298,2
310,333,300,300,2
311,322,301,303,2
311,313,302,308,2
312,306,303,313,2
311,305,305,316,2
310,310,306,316,2
310,322,307,316,2
309,336,306,316,2
308,346,304,316,2
306,349,303,315,2
305,345,302,314,2
305,337,302,312,2
307,330,303,311,2
310,325,304,309,2
311,322,307,308,2
309,320,309,308,2
306,319,311,307,2
303,316,314,307,2
300,311,317,310,2
299,301,316,312,2
298,290,313,312,2
299,280,308,312,2
300,272,302,312,2
302,269,298,312,2
303,271,297,312,2
305,275,296,312,2
307,280,296,312,2
309,283,298,311,2
312,285,303,309,2
315,285,308,307,2
318,286,312,306,2
320,295,313,304,2
319,311,314,304,2
315,330,313,305,2
310,345,310,305,2
306,353,307,304,2
304,352,304,302,2
304,341,302,302,2
305,328,302,304,2
306,317,301,306,2
305,308,298,308,2
306,303,294,310,2
306,304,292,312,2
305,306,290,311,2
303,306,290,310,2
303,306,293,309,2
303,304,298,308,2
305,303,304,308,2
306,301,308,306,2
306,300,312,305,2
306,297,314,303,2
306,294,315,301,2
306,292,316,299,2
307,291,316,299,2
307,291,314,298,2
306,292,312,298,2
303,295,309,300,2
301,295,306,300,2
300,292,303,301,2
300,289,300,302,2
301,290,298,303,2
301,296,297,304,2
302,305,296,304,2
302,313,296,303,2
303,319,298,303,2
305,325,306,306,2
307,329,322,309,2
309,328,339,311,2
310,323,352,313,2
314,321,354,314,2
319,320,347,313,2
326,320,333,312,2
326,317,319,311,2
318,311,306,310,2
306,304,297,309,2
297,298,292,309,2
293,292,290,309,2
293,288,291,309,2
297,283,293,309,2
301,278,295,308,2
303,275,296,308,2
303,275,298,308,2
301,278,300,309,2
299,281,301,310,2
296,285,302,311,2
295,291,302,312,2
295,298,303,313,2
296,307,303,313,2
296,316,302,312,2
296,326,303,311,2
297,335,304,310,2
297,341,307,310,2
297,344,310,312,2
297,343,313,315,2
298,337,314,317,2
300,329,311,317,2
301,320,307,316,2
302,312,305,314,2
302,308,305,312,2
303,306,305,311,2
303,305,304,309,2
305,305,303,308,2
307,305,303,308,2
310,307,303,309,2
311,314,302,309,2
308,324,299,308,2
306,335,297,307,2
304,346,295,306,2
303,355,294,306,2
302,357,294,306,2
301,350,297,306,2
301,333,300,307,2
302,310,306,309,2
303,290,310,312,2
304,279,313,313,2
303,276,313,314,2
302,277,313,315,2
301,279,311,314,2
301,281,308,312,2
301,284,306,310,2
303,286,305,309,2
307,288,307,309,2
310,291,310,309,2
311,296,313,310,2
311,298,316,311,2
311,296,320,312,2
311,292,321,314,2
312,290,319,315,2
312,294,315,315,2
311,303,310,313,2
310,310,305,308,2
308,315,303,305,2
306,318,301,304,2
304,323,299,304,2
303,332,297,305,2
302,341,295,305,2
302,345,293,305,2
304,340,291,304,2
305,329,290,303,2
306,319,289,302,2
306,309,290,303,2
307,302,294,304,2
308,296,299,306,2
310,291,304,308,2
311,287,308,311,2
313,286,311,314,2
312,288,313,316,2
311,289,313,315,2
310,290,313,310,2
309,290,310,304,2
309,290,309,298,2
309,290,307,295,2
310,291,308,293,2
310,293,309,293,2
311,295,311,296,2
309,300,314,300,2
307,308,318,307,2
304,316,324,313,2
303,321,327,318,2
301,319,329,320,2
299,312,327,320,2
298,306,325,320,2
300,301,324,320,2
303,296,326,318,2
306,294,330,317,2
309,295,334,317,2
312,302,332,317,2
314,310,323,317,2
317,317,311,316,2
319,322,299,315,2
317,325,291,314,2
309,326,288,313,2
301,324,289,311,2
295,318,290,309,2
292,310,292,308,2
291,303,293,308,2
292,299,292,308,2
294,297,290,308,2
295,297,287,308,2
296,300,285,306,2
298,305,285,303,2
299,311,288,300,2
301,316,292,298,2
304,320,296,297,2
309,318,299,296,2
313,310,302,296,2
316,299,305,297,2
316,289,310,301,2
315,282,314,305,2
312,278,317,309,2
307,281,320,316,2
300,294,323,324,2
295,313,326,330,2
295,327,325,332,2
298,333,322,330,2
302,331,317,327,2
304,325,311,324,2
305,316,304,320,2
304,307,299,317,2
303,299,296,314,2
302,293,295,312,2
302,289,297,309,2
302,287,299,307,2
302,287,302,306,2
301,288,305,307,2
301,292,307,309,2
301,297,307,312,2
302,302,305,313,2
305,306,303,314,2
305,309,301,312,2
304,311,300,310,2
301,312,300,308,2
299,312,302,307,2
297,311,305,307,2
297,313,308,307,2
299,320,309,307,2
301,333,310,306,2
304,350,309,304,2
307,366,306,303,2
310,377,303,300,2
313,381,301,298,2
316,376,304,297,2
317,359,309,297,2
317,330,314,297,2
315,298,321,295,2
312,275,329,296,2
310,264,337,300,2
308,259,339,305,2
305,261,332,310,2
302,269,321,313,2
300,285,309,316,2
300,304,297,316,2
301,318,289,316,2
303,324,285,315,2
306,319,284,313,2
307,307,284,312,2
304,295,283,311,2
297,287,284,310,2
292,281,287,310,2
289,278,292,310,2
290,279,299,311,2
293,280,306,310,2
295,282,311,311,2
297,284,313,311,2
298,288,310,312,2
298,292,304,313,2
297,298,300,313,2
297,302,297,313,2
297,306,297,311,2
299,308,297,310,2
303,312,298,308,2
307,317,299,305,2
309,327,299,301,2
310,338,298,296,2
311,347,297,289,2
312,354,299,284,2
312,353,303,283,2
312,344,308,287,2
310,330,312,293,2
308,315,313,300,2
307,303,312,305,2
307,294,311,308,2
307,290,308,311,2
307,289,306,314,2
307,289,304,316,2
307,288,302,318,2
307,285,300,320,2
306,284,299,320,2
305,285,297,320,2
305,288,297,320,2
305,292,298,320,2
305,297,299,319,2
306,301,301,318,2
306,305,305,317,2
307,309,309,316,2
308,311,314,315,2
310,312,319,314,2
311,313,322,313,2
311,315,320,311,2
311,315,313,309,2
310,312,303,305,2
310,306,294,302,2
311,298,286,298,2
313,292,282,295,2
315,290,281,292,2
318,292,284,288,2
320,297,289,286,2
322,302,297,286,2
321,306,306,288,2
320,306,313,294,2
317,304,319,300,2
314,304,327,307,2
311,310,337,312,2
307,317,346,315,2
304,319,354,317,2
304,315,357,316,2
304,309,356,315,2
304,302,351,313,2
304,297,337,312,2
304,294,318,311,2
303,292,300,311,2
302,289,289,313,2
301,286,285,316,2
300,285,287,318,2
301,285,291,320,2
303,287,292,321,2
305,289,291,321,2
307,294,288,320,2
308,299,284,319,2
308,306,279,317,2
309,311,274,314,2
310,317,270,312,2
310,323,268,311,2
310,331,268,311,2
307,340,271,311,2
302,346,276,310,2
298,349,282,309,2
297,346,288,307,2
298,336,293,305,2
301,320,296,303,2
303,297,299,303,2
306,279,301,304,2
308,269,302,305,2
312,266,304,307,2
317,270,304,308,2
321,280,303,309,2
322,291,303,311,2
322,299,305,311,2
319,304,311,310,2
314,303,316,308,2
311,299,320,308,2
309,296,324,307,2
309,297,325,308,2
310,302,319,310,2
309,308,309,312,2
303,311,298,313,2
295,312,287,313,2
290,311,274,313,2
290,308,262,312,2
292,305,253,311,2
296,305,249,311,2
299,308,249,313,2
301,313,251,314,2
304,316,257,314,2
305,316,268,314,2
307,314,281,314,2
306,311,296,313,2
305,308,308,314,2
304,306,320,316,2
303,310,326,317,2
303,320,327,315,2
303,330,324,312,2
304,337,318,308,2
304,340,312,306,2
305,338,306,304,2
306,331,303,303,2
306,320,302,302,2
307,307,307,301,2
309,295,318,302,2
310,283,333,303,2
309,277,347,305,2
308,274,358,310,2
307,273,363,314,2
305,273,362,317,2
305,274,351,318,2
305,275,335,319,2
305,277,319,320,2
304,280,307,321,2
304,289,299,320,2
304,304,297,319,2
307,322,302,317,2
311,340,309,316,2
313,357,318,316,2
313,370,324,318,2
313,372,323,319,2
311,362,313,318,2
310,348,299,314,2
308,332,289,310,2
306,314,285,305,2
305,294,287,303,2
306,277,294,302,2
308,262,303,304,2
309,253,310,306,2
309,248,316,308,2
310,246,318,308,2
313,247,318,308,2
315,258,320,308,2
316,276,320,308,2
315,293,319,307,2
312,305,317,306,2
306,313,315,308,2
301,321,317,311,2
297,332,320,316,2
297,341,321,319,2
296,346,321,318,2
296,345,322,316,2
296,339,327,312,2
296,329,336,309,2
295,319,343,308,2
295,309,344,307,2
294,302,336,307,2
295,297,323,306,2
297,292,307,306,2
298,288,293,305,2
299,286,283,306,2
303,286,278,307,2
307,286,277,307,2
311,283,278,309,2
316,279,281,311,2
316,278,285,313,2
312,283,289,314,2
308,293,293,312,2
306,302,297,309,2
304,306,302,306,2
302,307,307,304,2
300,310,313,303,2
298,319,319,304,2
297,330,321,306,2
296,337,322,307,2
296,339,323,306,2
297,331,321,305,2
297,318,314,304,2
299,302,304,305,2
301,291,296,308,2
303,286,291,310,2
303,288,290,312,2
303,295,291,313,2
303,303,294,313,2
302,314,297,311,2
301,321,302,308,2
298,320,308,303,2
297,310,312,298,2
297,298,313,295,2
299,293,315,295,2
303,298,317,298,2
307,310,315,302,2
309,321,310,304,2
310,329,305,305,2
310,332,300,306,2
310,327,296,307,2
313,316,293,308,2
316,301,293,309,2
320,286,294,311,2
320,278,296,313,2
317,272,298,317,2
313,268,301,320,2
310,266,303,321,2
310,265,304,321,2
309,269,304,320,2
307,277,304,319,2
304,287,304,317,2
301,294,304,315,2
298,299,305,312,2
296,301,305,310,2
293,302,305,308,2
290,303,304,307,2
288,306,304,306,2
287,314,304,305,2
288,323,305,303,2
293,330,306,302,2
300,336,307,301,2
307,342,307,301,2
313,347,309,301,2
315,349,312,302,2
317,348,314,301,2
318,345,317,302,2
318,339,318,302,2
316,332,323,303,2
314,326,331,305,2
312,319,341,308,2
310,310,351,311,2
308,302,356,315,2
308,295,354,318,2
308,292,345,319,2
309,290,331,317,2
312,290,316,315,2
316,288,304,313,2
320,285,295,311,2
320,281,292,310,2
315,278,293,309,2
309,275,295,308,2
304,274,295,307,2
300,276,293,306,2
300,282,289,307,2
300,291,286,307,2
302,304,284,307,2
305,318,284,306,2
308,329,287,305,2
310,335,291,303,2
310,336,297,303,2
309,330,302,305,2
307,320,306,307,2
304,308,309,311,2
301,297,310,313,2
299,289,309,314,2
299,285,306,314,2
301,284,304,312,2
303,282,303,310,2
304,280,304,307,2
305,277,303,303,2
305,276,296,300,2
305,280,288,297,2
306,286,284,297,2
306,295,283,299,2
307,310,282,303,2
307,330,282,308,2
307,349,282,313,2
308,361,283,316,2
308,363,287,318,2
307,355,294,319,2
307,340,302,320,2
307,325,309,320,2
305,312,312,319,2
303,303,313,318,2
302,295,312,315,2
302,290,311,311,2
303,288,311,308,2
305,288,314,304,2
306,289,318,302,2
307,288,320,301,2
308,286,321,301,2
307,287,322,302,2
307,289,323,304,2
307,293,321,305,2
308,300,318,307,2
308,307,312,309,2
308,310,306,311,2
307,312,301,314,2
305,314,297,315,2
302,317,295,316,2
300,320,297,313,2
298,321,301,310,2
300,325,304,306,2
304,332,307,302,2
307,337,310,299,2
309,336,314,297,2
310,333,320,300,2
310,334,325,305,2
307,335,324,309,2
302,335,316,310,2
297,332,304,308,2
294,323,293,305,2
297,308,288,302,2
302,292,290,300,2
308,278,297,299,2
315,270,304,299,2
319,267,309,301,2
321,268,309,303,2
319,269,307,305,2
316,272,303,307,2
315,278,300,309,2
312,286,298,310,2
306,293,298,311,2
298,299,297,310,2
293,305,297,309,2
291,308,297,307,2
292,308,297,306,2
294,311,298,305,2
296,317,301,305,2
299,325,304,306,2
300,333,307,306,2
303,339,308,306,2
304,342,310,306,2
306,338,312,305,2
307,326,315,306,2
308,309,320,308,2
311,292,324,309,2
314,280,324,309,2
316,275,322,309,2
317,275,318,307,2
315,279,313,305,2
310,283,309,304,2
305,288,305,301,2
302,290,301,297,2
299,289,298,292,2
299,285,298,290,2
301,279,297,290,2
303,269,293,291,2
302,260,289,293,2
300,258,288,298,2
298,267,290,303,2
298,284,290,308,2
299,303,289,311,2
302,319,288,312,2
305,328,288,313,2
307,332,293,315,2
306,332,301,318,2
305,331,309,320,2
304,331,316,322,2
303,332,321,322,2
302,334,322,320,2
303,332,320,317,2
303,328,318,314,2
304,322,316,312,2
306,312,316,310,2
307,302,316,309,2
308,295,316,308,2
308,292,316,307,2
306,295,317,305,2
304,304,320,302,2
303,315,321,301,2
303,325,318,302,2
304,333,313,305,2
304,342,306,307,2
305,353,298,308,2
306,366,289,306,2
307,376,282,304,2
307,376,280,303,2
306,362,282,303,2
303,335,287,302,2
298,304,292,303,2
293,276,297,307,2
289,259,303,313,2
289,252,307,317,2
292,251,309,321,2
297,254,310,322,2
301,259,310,323,2
304,266,309,321,2
304,272,307,318,2
304,276,305,315,2
304,280,304,312,2
306,283,304,308,2
309,287,304,307,2
312,290,305,307,2
314,293,306,307,2
315,297,308,307,2
317,301,309,306,2
319,307,308,304,2
323,315,306,301,2
326,322,303,296,2
329,327,301,291,2
324,327,299,288,2
312,321,301,288,2
299,311,309,293,2
292,304,322,303,2
291,300,335,312,2
293,298,343,318,2
292,298,345,321,2
292,296,340,321,2
293,292,331,321,2
296,288,317,321,2
300,288,304,321,2
305,290,294,321,2
307,294,288,320,2
308,299,285,318,2
307,305,285,314,2
307,314,287,311,2
307,323,290,307,2
307,331,296,303,2
309,336,305,299,2
311,336,315,298,2
312,333,325,298,2
311,329,333,301,2
308,326,332,304,2
304,322,324,305,2
301,318,314,305,2
300,311,306,306,2
301,306,303,307,2
303,304,301,308,2
305,301,299,307,2
307,300,297,308,2
308,300,298,308,2
308,301,299,309,2
309,302,299,309,2
309,302,301,308,2
310,303,307,307,2
313,306,316,307,2
316,313,324,307,2
318,321,327,308,2
319,329,326,309,2
319,335,323,310,2
317,338,318,310,2
312,336,311,309,2
306,327,301,309,2
301,314,293,308,2
298,302,288,307,2
298,293,284,305,2
299,289,282,301,2
300,288,280,297,2
302,288,280,293,2
304,287,282,291,2
306,285,286,292,2
308,282,291,296,2
309,281,297,303,2
311,284,304,310,2
312,290,314,316,2
311,296,325,320,2
310,300,334,321,2
308,299,339,321,2
306,296,338,319,2
304,290,332,315,2
302,287,324,310,2
301,289,318,307,2
301,294,315,303,2
302,298,315,300,2
303,300,315,296,2
304,299,314,294,2
305,298,312,294,2
308,298,311,298,2
314,300,312,302,2
321,302,311,305,2
326,306,308,308,2
327,310,305,310,2
320,314,304,312,2
312,319,306,315,2
305,324,310,319,2
302,328,314,321,2
301,328,319,321,2
301,324,324,320,2
301,317,328,318,2
301,308,328,316,2
302,299,325,314,2
304,294,321,313,2
304,292,315,311,2
303,292,307,309,2
301,293,300,308,2
299,293,296,308,2
301,294,295,308,2
303,295,296,308,2
304,297,297,307,2
306,297,297,306,2
308,298,299,305,2
310,300,301,305,2
311,303,304,305,2
312,307,307,306,2
313,310,310,305,2
312,310,311,304,2
309,309,313,304,2
305,306,315,305,2
300,304,318,307,2
298,303,319,309,2
299,304,316,311,2
301,307,311,311,2
304,313,305,310,2
306,323,300,309,2
309,334,296,308,2
310,340,295,306,2
311,339,295,303,2
310,330,295,301,2
309,312,297,300,2
310,292,300,301,2
310,280,307,304,2
311,278,315,308,2
311,283,322,313,2
311,291,326,317,2
310,300,327,320,2
309,307,330,323,2
308,310,331,323,2
306,307,327,320,2
305,303,321,316,2
304,298,314,313,2
304,295,308,311,2
304,295,304,309,2
304,297,303,308,2
305,301,305,307,2
306,308,309,308,2
309,314,311,308,2
310,319,311,308,2
309,323,310,307,2
307,328,308,308,2
304,334,304,308,2
301,344,297,308,2
297,355,291,308,2
295,364,289,307,2
295,368,290,305,2
298,363,293,302,2
302,350,295,301,2
303,327,296,302,2
305,297,296,303,2
308,270,296,305,2
310,255,299,307,2
310,252,304,309,2
309,257,310,312,2
307,267,314,315,2
307,280,316,317,2
307,290,315,319,2
308,296,314,320,2
311,299,313,321,2
313,300,313,320,2
316,301,312,318,2
316,302,313,316,2
312,303,313,315,2
304,303,313,316,2
298,305,314,317,2
296,304,318,317,2
296,303,323,317,2
298,300,324,315,2
300,297,322,312,2
301,295,319,307,2
301,296,315,304,2
302,300,312,303,2
303,305,309,304,2
303,312,305,306,2
303,320,298,308,2
303,324,291,309,2
304,325,288,309,2
306,323,288,308,2
308,315,291,307,2
309,305,298,304,2
307,297,306,303,2
304,298,314,304,2
302,305,320,307,2
300,316,323,311,2
299,326,324,315,2
300,334,319,318,2
301,338,308,319,2
301,337,297,319,2
301,330,288,319,2
301,321,284,319,2
302,312,284,318,2
303,304,287,316,2
303,298,291,314,2
304,296,296,312,2
305,298,299,310,2
305,303,302,308,2
305,308,303,308,2
303,313,303,307,2
301,318,304,307,2
299,325,305,305,2
297,333,304,305,2
296,339,302,304,2
297,343,299,302,2
299,341,297,299,2
301,335,296,295,2
303,325,297,294,2
306,313,299,296,2
310,303,303,301,2
312,298,306,306,2
312,294,307,310,2
312,287,306,312,2
312,281,307,314,2
313,278,310,318,2
312,278,314,321,2
310,279,318,324,2
308,282,323,324,2
306,287,325,323,2
307,294,322,320,2
312,300,314,318,2
318,304,304,314,2
318,304,296,310,2
315,298,294,307,2
312,290,298,306,2
311,284,306,307,2
312,281,315,310,2
315,283,323,313,2
315,290,327,315,2
311,300,324,317,2
307,313,315,317,2
303,327,305,317,2
299,336,297,315,2
298,338,294,312,2
298,335,293,310,2
300,329,293,309,2
301,322,293,308,2
302,317,293,307,2
302,313,292,305,2
303,312,290,303,2
305,313,289,300,2
306,313,288,296,2
308,312,292,292,2
311,309,303,290,2
313,308,318,291,2
317,311,330,294,2
321,316,334,298,2
322,320,335,305,2
317,320,336,312,2
310,315,331,319,2
302,305,322,323,2
297,295,314,323,2
294,285,310,321,2
293,277,309,317,2
293,271,310,313,2
295,269,309,310,2
298,271,306,307,2
299,277,300,305,2
299,285,293,304,2
300,294,288,303,2
299,304,285,302,2
299,318,285,302,2
299,332,285,302,2
300,348,286,301,2
299,362,286,300,2
298,369,285,299,2
294,368,284,297,2
289,358,284,296,2
287,341,289,297,2
290,322,297,301,2
298,305,305,305,2
306,296,309,308,2
314,295,308,310,2
319,298,304,310,2
320,301,301,312,2
318,302,300,313,2
314,305,302,314,2
310,308,305,314,2
306,308,307,312,2
303,303,307,309,2
301,294,305,305,2
299,283,303,302,2
300,271,301,300,2
306,261,300,297,2
315,255,300,297,2
321,256,301,300,2
321,266,304,304,2
319,282,308,308,2
316,298,310,311,2
313,313,308,313,2
311,327,305,313,2
308,339,301,312,2
305,347,298,309,2
304,348,297,307,2
302,348,297,305,2
301,348,298,303,2
299,348,300,303,2
297,346,302,304,2
295,335,302,306,2
293,315,304,308,2
294,295,306,311,2
296,284,308,313,2
299,281,310,315,2
302,281,311,317,2
304,281,310,319,2
307,284,311,320,2
310,286,313,322,2
311,289,314,322,2
310,292,312,322,2
311,296,313,321,2
311,297,315,319,2
309,297,317,315,2
307,296,316,310,2
304,299,310,306,2
303,307,299,304,2
303,319,290,304,2
302,334,284,304,2
302,347,283,306,2
302,352,287,308,2
301,347,294,308,2
299,333,304,306,2
296,316,311,304,2
293,300,315,303,2
292,288,315,303,2
294,282,313,305,2
297,281,311,307,2
300,281,307,308,2
304,281,305,310,2
308,282,305,310,2
311,283,305,308,2
313,284,306,308,2
315,285,309,308,2
317,285,312,310,2
316,287,315,312,2
308,291,318,315,2
299,296,320,316,2
294,301,320,314,2
292,305,318,311,2
291,312,312,309,2
289,320,304,308,2
286,327,296,305,2
285,331,290,304,2
286,333,289,303,2
287,332,289,303,2
289,327,292,303,2
292,320,296,304,2
297,315,300,307,2
303,313,302,310,2
307,310,303,311,2
308,309,303,313,2
307,309,304,316,2
306,311,304,317,2
306,311,304,317,2
305,309,302,314,2
304,303,300,311,2
304,297,301,309,2
305,291,306,308,2
308,289,312,308,2
311,291,317,311,2
314,295,322,314,2
316,300,325,315,2
314,303,323,314,2
311,303,315,313,2
307,301,306,311,2
304,298,299,311,2
302,296,295,311,2
302,292,293,310,2
302,284,293,309,2
303,273,295,308,2
304,267,299,307,2
306,267,302,306,2
307,275,304,305,2
308,291,305,304,2
309,311,306,302,2
309,329,308,300,2
309,344,310,300,2
307,351,311,300,2
305,352,312,301,2
303,344,315,302,2
302,330,321,302,2
303,314,327,304,2
305,301,331,306,2
306,291,333,310,2
306,283,332,313,2
305,277,322,316,2
304,274,308,317,2
304,274,296,319,2
304,280,289,321,2
306,289,286,324,2
307,298,286,325,2
306,303,288,325,2
304,304,292,323,2
302,303,297,321,2
300,301,304,319,2
300,302,313,318,2
300,305,320,317,2
299,310,321,314,2
297,313,317,310,2
295,317,312,308,2
295,323,305,306,2
295,328,301,305,2
297,332,302,304,2
298,334,306,303,2
300,333,311,302,2
303,330,314,301,2
305,329,314,300,2
307,327,311,299,2
308,323,307,297,2
310,319,304,297,2
310,316,303,298,2
309,312,304,301,2
306,304,306,304,2
306,297,305,307,2
307,297,303,310,2
308,303,302,312,2
308,309,301,313,2
307,313,302,314,2
307,320,303,317,2
307,327,305,320,2
307,332,308,322,2
309,333,308,321,2
307,329,304,319,2
305,320,299,317,2
303,309,296,314,2
304,300,293,312,2
306,293,293,309,2
310,289,294,306,2
314,289,296,305,2
318,293,297,304,2
320,301,298,305,2
318,306,300,308,2
313,309,301,311,2
305,312,300,313,2
299,317,298,313,2
293,324,299,311,2
286,330,303,310,2
283,336,310,309,2
284,339,316,308,2
287,339,316,308,2
290,336,313,307,2
292,330,309,307,2
293,321,307,306,2
296,307,309,306,2
298,292,314,306,2
301,279,321,307,2
305,273,326,308,2
308,272,331,310,2
311,273,335,313,2
311,277,338,315,2
311,281,338,316,2
311,287,338,317,2
311,291,336,317,2
311,296,333,316,2
309,301,325,313,2
307,304,314,310,2
305,308,302,306,2
304,313,293,303,2
303,320,288,300,2
303,327,285,297,2
304,335,287,295,2
304,342,293,295,2
304,346,301,296,2
304,346,309,299,2
303,345,313,303,2
303,341,313,307,2
302,328,310,309,2
302,305,304,310,2
303,279,298,312,2
305,259,296,314,2
306,255,296,318,2
306,264,297,320,2
305,275,297,321,2
303,284,297,319,2
301,288,297,317,2
299,290,298,315,2
297,288,299,314,2
298,284,301,312,2
301,283,304,312,2
304,286,309,313,2
307,291,316,315,2
308,297,322,317,2
308,302,326,317,2
308,308,327,313,2
308,313,325,309,2
308,318,321,307,2
308,323,316,306,2
309,330,310,307,2
309,336,303,308,2
309,339,296,309,2
310,338,292,310,2
312,336,291,309,2
313,332,292,308,2
314,328,295,305,2
317,329,298,302,2
318,334,300,300,2
318,341,302,299,2
315,346,303,300,2
311,346,303,304,2
306,341,302,309,2
305,335,302,316,2
307,330,302,320,2
313,325,301,320,2
319,320,299,318,2
320,316,296,315,2
316,311,296,313,2
309,305,297,313,2
302,299,301,313,2
297,293,307,314,2
297,288,312,315,2
300,285,315,317,2
303,286,318,318,2
306,290,321,319,2
307,292,324,317,2
308,293,329,314,2
308,292,332,312,2
307,288,332,309,2
305,283,330,306,2
304,277,327,302,2
303,275,323,301,2
304,278,319,303,2
303,286,313,307,2
304,299,309,311,2
305,315,307,314,2
308,330,304,315,2
310,341,297,315,2
310,347,289,315,2
311,345,283,315,2
314,336,281,315,2
315,324,284,315,2
315,308,289,315,2
313,291,293,314,2
310,278,295,313,2
309,277,298,312,2
308,284,300,311,2
309,290,299,310,2
311,295,298,308,2
313,301,297,306,2
316,305,298,303,2
313,308,301,301,2
306,309,305,298,2
299,308,312,296,2
295,305,317,296,2
293,303,321,296,2
292,303,321,298,2
293,302,318,300,2
295,302,313,302,2
297,304,307,305,2
299,309,301,308,2
302,315,297,310,2
304,320,296,313,2
306,326,296,315,2
306,333,299,316,2
304,339,301,317,2
302,346,302,317,2
299,354,301,317,2
296,359,299,314,2
295,361,297,310,2
295,359,296,306,2
295,356,295,302,2
296,349,296,300,2
297,337,299,298,2
299,322,302,296,2
300,309,306,296,2
302,295,308,297,2
303,281,308,300,2
305,269,307,304,2
309,264,309,309,2
317,262,315,314,2
325,259,321,318,2
331,256,326,319,2
328,255,327,319,2
318,258,324,316,2
305,264,320,311,2
293,270,316,308,2
283,277,313,305,2
276,286,311,304,2
271,295,311,305,2
268,303,312,309,2
270,309,313,313,2
278,311,311,314,2
290,311,308,315,2
299,310,305,314,2
306,309,303,312,2
310,309,303,311,2
313,310,302,309,2
314,312,301,308,2
314,314,298,306,2
314,316,295,304,2
314,318,292,302,2
312,320,292,300,2
310,321,293,298,2
308,322,294,298,2
308,320,296,300,2
309,316,295,301,2
311,314,293,303,2
312,316,292,304,2
311,318,293,304,2
309,320,297,306,2
309,323,303,307,2
309,322,311,305,2
310,317,320,303,2
310,309,326,300,2
309,301,329,297,2
308,298,330,295,2
308,304,327,294,2
310,315,320,294,2
311,326,315,296,2
311,335,314,300,2
310,338,313,304,2
308,334,311,308,2
306,326,307,311,2
305,317,304,313,2
304,308,300,314,2
304,300,296,314,2
304,292,292,313,2
305,288,289,313,2
305,287,290,312,2
305,291,292,310,2
304,296,294,308,2
304,300,298,307,2
304,306,301,306,2
304,312,307,304,2
305,319,314,303,2
305,324,320,302,2
304,326,323,300,2
304,323,320,300,2
307,315,313,298,2
313,299,306,298,2
319,285,300,298,2
324,278,298,300,2
326,277,301,304,2
322,279,307,309,2
316,281,313,314,2
312,282,316,318,2
311,289,314,320,2
312,298,310,320,2
312,307,303,319,2
312,311,295,317,2
311,313,289,315,2
309,312,285,312,2
305,312,283,311,2
302,312,284,310,2
298,314,287,309,2
296,315,292,308,2
294,315,296,307,2
294,316,297,306,2
297,318,296,306,2
303,320,296,305,2
308,320,297,305,2
312,320,300,306,2
314,321,303,306,2
315,322,305,304,2
314,325,306,301,2
314,330,307,298,2
312,335,311,297,2
311,337,315,299,2
310,332,321,304,2
310,326,325,310,2
308,319,324,315,2
306,309,320,318,2
302,295,313,319,2
300,283,305,317,2
299,274,299,315,2
299,270,296,312,2
299,270,296,309,2
298,271,297,308,2
297,272,298,310,2
296,276,300,311,2
297,280,302,314,2
300,284,304,317,2
301,289,302,318,2
302,293,297,318,2
303,295,294,316,2
303,298,296,313,2
302,299,303,311,2
300,302,313,309,2
296,303,320,308,2
295,306,322,305,2
296,311,321,302,2
297,316,317,299,2
297,319,312,297,2
297,318,307,295,2
298,312,303,292,2
300,302,301,291,2
304,288,300,290,2
308,276,299,292,2
310,270,298,297,2
310,270,298,303,2
308,275,296,309,2
308,282,295,313,2
307,288,293,314,2
307,291,292,315,2
308,292,293,314,2
312,291,296,312,2
318,288,299,311,2
322,286,302,311,2
322,286,307,312,2
318,291,315,315,2
313,299,320,317,2
309,307,323,318,2
306,312,323,316,2
303,314,320,312,2
301,314,314,308,2
299,313,307,305,2
298,311,300,302,2
298,307,294,300,2
298,302,290,300,2
298,296,288,300,2
299,292,288,302,2
300,292,288,304,2
303,299,290,306,2
307,313,293,308,2
312,328,297,310,2
318,340,301,311,2
324,348,305,312,2
324,351,312,311,2
316,349,317,308,2
306,346,317,305,2
296,345,314,304,2
287,345,309,306,2
282,339,304,307,2
282,328,299,307,2
285,315,293,308,2
287,305,290,310,2
287,298,289,314,2
290,294,291,318,2
296,290,294,320,2
303,287,297,320,2
312,285,300,321,2
319,287,302,321,2
323,290,304,320,2
324,294,304,315,2
321,300,304,310,2
317,306,304,304,2
313,314,305,299,2
309,320,305,295,2
307,325,305,294,2
305,328,305,295,2
303,331,306,298,2
303,329,309,302,2
306,323,315,302,2
309,315,323,299,2
312,305,327,298,2
314,295,326,297,2
314,284,320,298,2
312,277,312,300,2
309,273,306,304,2
306,273,304,308,2
304,278,308,313,2
304,285,314,316,2
306,291,319,318,2
308,296,322,317,2
309,300,323,317,2
307,303,320,316,2
303,306,316,316,2
300,307,312,314,2
302,307,308,310,2
305,306,303,306,2
310,304,297,302,2
313,303,294,299,2
314,304,293,298,2
312,307,295,298,2
308,311,297,298,2
303,310,297,299,2
301,306,295,299,2
301,300,291,300,2
304,296,288,300,2
308,297,286,302,2
312,299,291,303,2
315,303,301,303,2
314,310,317,304,2
309,318,334,304,2
304,325,347,305,2
301,330,356,305,2
300,335,357,306,2
299,338,349,306,2
297,339,335,306,2
292,336,320,306,2
290,326,306,305,2
293,311,293,306,2
300,297,282,307,2
306,288,276,309,2
311,283,272,311,2
314,286,271,312,2
317,291,273,315,2
316,298,280,315,2
312,303,286,313,2
309,305,290,310,2
308,305,292,307,2
307,304,295,306,2
306,305,299,306,2
306,307,304,306,2
309,310,311,305,2
311,313,318,305,2
313,317,324,305,2
314,322,328,307,2
314,325,331,308,2
312,326,329,308,2
309,324,324,307,2
304,320,315,306,2
298,315,307,305,2
293,311,300,305,2
291,308,296,305,2
292,307,293,306,2
296,308,292,306,2
300,311,294,306,2
304,315,298,308,2
307,318,302,311,2
312,315,306,311,2
317,308,308,311,2
319,301,309,311,2
318,297,310,311,2
314,295,310,310,2
309,295,313,308,2
305,296,321,305,2
303,299,330,302,2
302,302,334,299,2
300,306,332,297,2
298,310,324,294,2
298,312,315,292,2
300,310,306,291,2
303,305,298,291,2
304,297,290,293,2
304,290,285,296,2
303,287,283,301,2
302,289,284,308,2
301,292,285,312,2
302,294,285,314,2
304,295,287,314,2
307,296,288,314,2
309,295,290,314,2
309,295,292,313,2
306,296,294,311,2
303,302,295,308,2
300,309,297,306,2
299,313,299,304,2
299,315,300,302,2
299,315,300,299,2
299,314,301,298,2
299,314,303,297,2
299,317,305,297,2
298,324,309,297,2
298,333,312,298,2
299,344,315,298,2
301,352,317,298,2
304,356,317,297,2
306,351,316,296,2
308,341,314,298,2
308,326,309,300,2
308,308,302,303,2
310,290,298,305,2
311,276,297,308,2
312,271,298,310,2
312,272,300,311,2
312,277,302,310,2
312,281,303,308,2
311,286,301,307,2
309,290,299,307,2
308,292,299,307,2
308,295,301,308,2
311,297,303,308,2
312,298,303,307,2
312,299,301,306,2
310,299,300,305,2
308,300,301,304,2
305,301,306,303,2
304,302,313,300,2
304,301,323,297,2
305,300,333,297,2
308,304,338,298,2
315,312,338,300,2
320,317,334,301,2
317,319,327,302,2
312,318,321,301,2
307,316,316,298,2
304,312,311,296,2
301,307,306,294,2
300,304,301,296,2
300,306,295,298,2
300,311,292,302,2
300,315,289,304,2
299,318,287,304,2
298,317,285,303,2
297,312,284,301,2
294,304,285,300,2
293,299,288,301,2
293,298,292,303,2
294,299,296,305,2
296,300,301,307,2
298,302,305,309,2
298,304,307,309,2
297,308,307,307,2
294,311,303,304,2
292,313,300,302,2
295,315,297,299,2
300,317,294,297,2
306,318,295,296,2
311,319,297,296,2
312,320,302,296,2
312,318,306,296,2
308,315,310,296,2
304,313,312,296,2
301,312,312,295,2
301,312,312,295,2
303,315,311,294,2
305,318,306,291,2
308,323,301,289,2
310,328,298,287,2
311,329,297,288,2
311,329,298,291,2
309,326,299,295,2
307,321,300,297,2
305,317,298,299,2
304,317,297,300,2
305,321,300,301,2
306,323,307,302,2
307,320,318,303,2
309,314,327,305,2
311,305,332,307,2
310,296,333,311,2
308,288,331,314,2
306,281,325,316,2
305,278,316,316,2
305,281,306,317,2
305,287,299,316,2
304,294,298,318,2
305,300,300,319,2
307,305,303,317,2
312,309,306,313,2
316,311,310,308,2
317,313,314,305,2
314,316,315,304,2
308,319,311,304,2
304,322,304,302,2
301,325,299,299,2
300,326,296,296,2
300,327,295,293,2
300,330,298,289,2
302,334,301,287,2
305,337,306,287,2
309,338,310,288,2
309,336,312,291,2
303,334,313,295,2
294,332,313,298,2
284,326,309,300,2
276,317,303,300,2
272,308,295,300,2
274,304,290,298,2
280,303,289,297,2
290,304,290,294,2
299,305,291,291,2
307,306,292,289,2
313,307,296,288,2
317,307,302,289,2
319,305,310,292,2
319,302,316,296,2
319,300,319,299,2
316,299,318,303,2
312,300,316,305,2
308,302,314,307,2
305,305,313,308,2
304,305,310,308,2
304,303,307,306,2
305,300,303,305,2
307,297,300,305,2
310,295,297,306,2
311,294,294,306,2
309,293,291,305,2
307,294,290,303,2
306,295,292,301,2
305,296,297,299,2
305,296,305,299,2
305,296,315,299,2
306,296,327,301,2
306,298,339,303,2
307,300,346,304,2
307,306,346,303,2
308,314,338,303,2
308,320,327,304,2
309,324,314,304,2
309,324,300,304,2
307,322,289,303,2
304,320,282,302,2
300,319,279,301,2
295,319,279,300,2
293,319,282,299,2
294,319,284,298,2
295,317,288,297,2
296,313,292,297,2
295,310,295,298,2
294,309,298,299,2
294,309,299,301,2
294,308,300,301,2
295,306,303,302,2
298,304,308,301,2
301,304,315,301,2
305,309,321,303,2
309,319,323,305,2
312,331,321,305,2
314,341,318,303,2
313,347,316,302,2
313,349,315,300,2
313,341,317,296,2
316,321,319,291,2
319,297,318,287,2
321,279,312,286,2
322,276,305,288,2
323,282,301,291,2
324,292,301,294,2
324,301,305,297,2
318,306,310,299,2
309,303,315,300,2
302,298,318,301,2
300,293,320,301,2
299,290,321,301,2
300,289,320,300,2
300,289,316,299,2
299,292,309,298,2
298,296,302,298,2
297,303,296,299,2
297,309,292,301,2
297,316,289,303,2
298,320,288,304,2
299,321,288,304,2
300,319,288,302,2
303,313,289,301,2
306,306,291,300,2
310,302,293,301,2
314,300,295,303,2
316,301,297,305,2
314,304,301,306,2
311,308,306,307,2
309,312,311,307,2
306,316,313,306,2
303,320,311,305,2
299,320,305,303,2
293,317,298,298,2
290,311,291,293,2
290,304,289,289,2
293,297,292,289,2
296,291,299,292,2
299,289,307,296,2
300,292,313,299,2
298,298,318,302,2
296,305,320,304,2
295,312,317,304,2
297,315,313,304,2
301,313,311,304,2
306,306,311,306,2
310,301,312,307,2
313,296,313,307,2
314,292,312,304,2
313,289,311,302,2
311,288,308,297,2
307,289,304,293,2
303,293,302,291,2
301,294,302,291,2
301,296,304,293,2
301,301,308,296,2
303,310,312,300,2
306,318,314,303,2
307,325,314,306,2
306,329,312,309,2
304,331,310,310,2
302,331,308,308,2
300,332,309,306,2
299,334,314,305,2
299,338,320,304,2
301,345,325,304,2
302,354,325,302,2
303,362,322,301,2
304,363,318,299,2
307,354,317,299,2
310,337,319,299,2
313,318,323,301,2
316,298,329,304,2
316,281,334,305,2
314,270,336,305,2
313,270,334,307,2
312,276,331,310,2
312,285,325,313,2
314,292,318,315,2
315,296,311,313,2
316,297,304,309,2
316,297,299,306,2
315,294,294,304,2
312,291,292,302,2
313,290,290,301,2
313,291,287,301,2
312,294,285,301,2
309,298,283,302,2
306,302,285,303,2
304,305,290,303,2
304,307,298,303,2
305,308,305,304,2
306,308,310,305,2
306,310,311,305,2
302,311,309,305,2
297,311,304,304,2
292,311,300,302,2
288,310,296,300,2
286,304,294,297,2
287,297,292,296,2
290,292,293,297,2
295,288,295,299,2
299,285,300,301,2
305,285,306,303,2
310,284,310,305,2
315,284,312,307,2
317,284,312,309,2
317,284,311,310,2
313,286,308,311,2
308,288,304,312,2
302,290,301,313,2
295,297,300,315,2
289,309,301,316,2
289,321,302,315,2
292,332,300,313,2
296,340,296,311,2
300,344,294,308,2
303,344,293,305,2
305,341,293,302,2
306,337,294,300,2
307,334,295,300,2
308,331,296,301,2
306,329,296,301,2
305,326,296,301,2
305,325,298,302,2
307,323,302,303,2
313,320,308,306,2
317,315,314,308,2
318,309,318,310,2
317,303,321,312,2
317,300,322,311,2
316,300,321,309,2
316,300,319,306,2
314,302,319,306,2
311,305,321,306,2
309,306,324,304,2
308,305,326,301,2
310,300,329,300,2
312,296,334,301,2
313,292,339,304,2
312,286,343,306,2
309,279,341,306,2
303,273,335,304,2
300,270,323,302,2
302,269,309,302,2
308,272,297,302,2
314,278,288,304,2
318,285,284,306,2
317,292,284,308,2
317,299,285,310,2
315,304,287,311,2
309,309,288,311,2
300,315,288,311,2
292,321,288,310,2
287,324,289,309,2
285,324,291,307,2
287,319,293,306,2
289,313,295,305,2
292,307,297,304,2
294,303,300,304,2
296,300,303,303,2
299,298,305,303,2
302,295,302,302,2
305,293,298,302,2
306,293,296,303,2
306,298,296,305,2
308,306,297,305,2
310,314,300,306,2
312,322,304,308,2
312,328,308,310,2
311,330,312,312,2
310,330,314,312,2
309,328,315,311,2
309,323,314,308,2
309,318,312,304,2
308,313,308,301,2
306,309,305,298,2
306,308,304,297,2
306,309,308,297,2
306,311,313,299,2
309,315,315,301,2
311,320,314,303,2
313,324,311,304,2
313,324,305,306,2
312,321,299,309,2
311,315,294,311,2
309,307,293,313,2
308,300,294,316,2
306,299,295,318,2
304,300,295,319,2
302,303,296,318,2
299,308,295,315,2
296,314,294,311,2
293,316,293,307,2
293,313,294,304,2
295,305,298,302,2
299,296,303,303,2
303,289,307,304,2
307,284,310,306,2
310,282,312,307,2
311,283,313,307,2
313,287,314,308,2
317,290,316,311,2
322,293,318,312,2
326,294,319,312,2
325,295,320,311,2
321,296,321,311,2
317,296,323,310,2
313,296,324,307,2
309,297,321,303,2
306,300,315,300,2
305,306,308,299,2
304,315,302,298,2
305,325,298,298,2
305,336,296,298,2
305,344,296,300,2
304,347,296,301,2
302,341,296,302,2
298,329,298,302,2
295,317,300,301,2
295,306,302,299,2
298,297,303,297,2
300,289,304,297,2
302,281,306,297,2
306,273,307,298,2
311,268,307,300,2
317,268,306,303,2
323,274,307,306,2
327,284,308,308,2
325,294,310,310,2
320,300,312,310,2
315,304,311,309,2
310,308,309,308,2
307,312,308,308,2
305,316,309,309,2
304,318,311,308,2
304,318,311,307,2
304,318,309,305,2
304,319,306,304,2
305,320,304,303,2
306,320,302,302,2
307,320,302,301,2
307,321,303,300,2
307,321,305,300,2
305,321,309,302,2
303,320,314,305,2
302,318,317,307,2
300,315,321,308,2
298,312,328,307,2
297,307,336,305,2
297,302,341,302,2
297,295,340,299,2
297,288,334,298,2
297,284,329,298,2
297,284,324,300,2
300,287,318,303,2
304,292,310,305,2
306,297,299,304,2
306,301,289,303,2
305,304,282,299,2
305,304,279,297,2
305,304,282,295,2
306,304,290,295,2
307,305,303,296,2
309,306,313,297,2
310,305,316,298,2
310,304,314,299,2
310,304,311,299,2
307,303,310,300,2
304,302,310,300,2
302,303,311,302,2
301,307,312,306,2
301,311,312,309,2
301,313,310,311,2
299,316,307,312,2
298,319,303,312,2
298,320,299,310,2
298,318,297,308,2
299,314,298,306,2
301,309,299,305,2
302,304,298,303,2
303,301,295,302,2
305,300,294,302,2
307,302,293,301,2
309,307,292,300,2
311,312,292,300,2
312,319,293,299,2
312,329,295,299,2
312,339,294,299,2
310,347,292,299,2
309,350,290,299,2
309,345,289,299,2
310,331,290,298,2
312,313,292,298,2
312,296,296,298,2
310,287,301,300,2
308,286,308,304,2
306,288,314,308,2
307,289,319,310,2
310,288,320,311,2
314,287,320,312,2
314,285,316,311,2
309,285,312,312,2
304,288,307,314,2
302,295,303,316,2
302,304,302,317,2
303,315,303,317,2
304,324,305,316,2
305,332,308,313,2
305,337,308,309,2
304,339,305,305,2
304,334,302,301,2
306,325,304,299,2
307,315,316,299,2
308,308,331,301,2
308,305,345,304,2
307,305,352,306,2
306,309,352,309,2
304,315,345,310,2
302,320,331,309,2
298,322,312,306,2
295,319,295,302,2
293,312,286,299,2
294,304,283,299,2
298,297,286,299,2
303,293,289,301,2
311,290,294,304,2
317,288,298,308,2
318,288,301,311,2
315,288,302,312,2
312,286,303,312,2
309,285,304,311,2
308,286,304,309,2
308,291,301,306,2
307,299,297,302,2
306,309,293,298,2
305,319,293,294,2
304,327,294,290,2
303,334,298,289,2
301,338,302,290,2
299,336,305,292,2
299,324,306,296,2
299,306,304,301,2
301,288,300,305,2
303,276,298,308,2
307,271,297,311,2
311,271,300,312,2
316,274,304,314,2
318,279,309,315,2
318,285,313,315,2
317,290,315,314,2
315,294,313,313,2
312,297,309,310,2
308,302,305,308,2
306,312,303,306,2
305,323,304,304,2
305,330,306,303,2
304,330,308,301,2
305,327,309,299,2
305,322,309,297,2
304,317,310,297,2
305,312,315,297,2
308,312,323,296,2
312,319,333,296,2
317,330,338,300,2
324,341,337,305,2
328,345,331,309,2
326,342,320,312,2
320,330,307,312,2
314,312,297,311,2
311,291,293,311,2
306,272,293,310,2
301,259,296,309,2
297,250,300,308,2
294,246,302,306,2
291,249,303,305,2
288,256,301,304,2
288,266,301,305,2
290,275,302,306,2
295,283,303,307,2
302,288,302,307,2
307,289,299,306,2
309,290,295,305,2
310,296,290,304,2
311,310,288,303,2
313,328,290,303,2
314,344,295,304,2
314,354,301,305,2
312,354,306,305,2
307,344,309,307,2
304,327,311,309,2
302,306,313,311,2
303,287,315,312,2
306,277,315,311,2
309,277,313,309,2
314,280,312,307,2
318,285,312,307,2
321,290,314,308,2
324,293,314,306,2
324,295,313,302,2
322,294,310,298,2
319,295,309,297,2
314,298,309,297,2
310,303,308,299,2
307,311,306,302,2
304,317,304,306,2
302,323,301,309,2
300,326,300,310,2
298,326,299,309,2
298,320,298,305,2
299,310,296,302,2
302,296,294,299,2
304,282,294,298,2
306,272,302,299,2
306,266,317,302,2
303,268,334,308,2
301,277,347,314,2
302,288,352,320,2
309,298,348,322,2
316,307,337,321,2
320,315,322,318,2
322,323,308,315,2
322,332,296,313,2
320,340,286,311,2
317,346,280,308,2
315,348,279,305,2
313,346,282,304,2
310,342,288,302,2
307,332,294,301,2
305,317,299,300,2
303,299,302,300,2
301,285,303,301,2
299,280,302,304,2
298,281,302,307,2
298,284,302,310,2
298,285,303,310,2
298,283,305,310,2
299,279,305,308,2
299,278,305,308,2
301,284,303,307,2
303,293,301,308,2
305,300,300,308,2
308,305,300,308,2
310,307,299,309,2
312,310,299,311,2
314,315,300,313,2
315,323,301,314,2
315,332,303,314,2
313,339,305,313,2
309,343,307,310,2
304,343,308,308,2
301,338,307,306,2
299,324,306,305,2
299,308,306,307,2
300,295,308,310,2
304,289,313,313,2
307,288,319,316,2
310,292,326,316,2
311,299,329,313,2
312,306,328,309,2
311,314,324,305,2
312,320,319,303,2
314,322,315,301,2
317,318,310,298,2
317,311,306,297,2
315,306,304,297,2
312,306,302,299,2
310,310,304,304,2
308,313,311,308,2
306,312,321,311,2
304,309,330,314,2
304,305,334,317,2
304,303,332,319,2
305,304,329,320,2
304,307,324,319,2
301,311,318,317,2
297,313,311,314,2
295,312,306,312,2
296,309,303,308,2
298,306,299,304,2
300,303,296,302,2
302,299,293,300,2
303,294,293,299,2
304,286,297,299,2
305,279,301,301,2
307,275,304,304,2
309,274,306,308,2
310,275,305,313,2
310,280,304,316,2
310,293,301,317,2
309,311,299,317,2
307,328,299,317,2
305,340,299,315,2
305,346,302,312,2
306,347,306,308,2
307,340,309,303,2
308,328,312,298,2
309,315,314,294,2
308,304,315,291,2
306,298,313,292,2
305,296,311,295,2
304,294,307,301,2
302,291,304,306,2
300,286,302,310,2
298,280,302,312,2
298,276,306,313,2
299,273,313,315,2
302,272,320,317,2
305,274,323,317,2
309,281,322,314,2
312,292,320,310,2
316,305,319,307,2
320,319,316,305,2
323,331,313,303,2
317,340,309,302,2
308,345,304,301,2
300,347,300,300,2
296,346,299,301,2
296,342,300,302,2
298,334,301,302,2
300,323,301,302,2
302,312,301,302,2
303,300,300,303,2
304,286,300,305,2
306,274,299,307,2
308,268,298,311,2
310,269,298,316,2
312,277,300,321,2
312,287,302,323,2
312,292,303,322,2
312,294,303,321,2
309,294,303,317,2
304,294,304,314,2
300,294,307,311,2
297,295,312,310,2
296,298,317,308,2
296,301,318,307,2
297,306,320,306,2
297,310,325,306,2
297,313,334,306,2
296,314,340,306,2
295,314,342,306,2
292,314,337,306,2
288,314,328,304,2
288,314,315,303,2
290,314,302,303,2
295,312,294,304,2
298,307,293,306,2
300,302,298,305,2
300,299,304,305,2
301,297,308,305,2
304,295,307,305,2
307,292,301,305,2
309,290,296,305,2
310,289,291,306,2
310,290,288,306,2
308,293,285,306,2
305,301,284,307,2
304,312,286,309,2
302,320,288,311,2
302,326,289,313,2
302,328,290,314,2
303,328,291,313,2
305,323,293,313,2
307,315,295,315,2
309,310,299,317,2
310,311,304,319,2
310,316,311,320,2
308,324,318,320,2
306,329,321,318,2
305,330,320,314,2
306,328,314,309,2
309,324,304,305,2
311,321,296,301,2
311,321,291,297,2
309,323,290,293,2
306,327,290,291,2
304,328,293,290,2
303,328,296,291,2
302,324,301,293,2
301,318,302,295,2
301,307,303,298,2
300,295,304,303,2
299,284,307,308,2
299,274,311,310,2
299,268,315,312,2
302,267,317,315,2
306,275,319,319,2
313,286,321,320,2
319,296,321,320,2
319,302,318,318,2
311,306,315,316,2
301,311,312,314,2
295,315,306,310,2
292,317,301,307,2
291,318,297,305,2
292,316,295,305,2
294,313,295,305,2
297,310,295,306,2
298,309,295,306,2
298,307,296,306,2
296,304,298,307,2
294,299,301,308,2
294,293,304,309,2
297,286,307,309,2
301,282,310,310,2
303,288,313,310,2
303,299,316,311,2
302,308,316,311,2
301,312,314,310,2
301,313,311,309,2
303,311,310,308,2
306,307,311,310,2
309,305,312,312,2
309,303,312,313,2
309,301,311,312,2
308,297,307,311,2
308,294,303,309,2
307,292,301,307,2
307,293,298,306,2
306,298,296,304,2
304,304,293,303,2
302,309,293,303,2
301,312,296,304,2
301,313,302,307,2
303,314,308,309,2
304,315,311,311,2
306,316,309,312,2
307,318,307,312,2
306,318,307,311,2
302,315,310,310,2
298,309,316,311,2
295,304,324,311,2
296,299,328,312,2
300,296,329,308,2
308,294,329,302,2
315,294,333,297,2
321,298,339,295,2
320,302,344,293,2
315,306,341,295,2
308,311,331,297,2
304,314,318,299,2
302,315,309,302,2
303,313,303,305,2
304,310,300,309,2
306,305,298,312,2
306,298,297,314,2
306,295,296,313,2
305,294,296,312,2
304,295,294,311,2
303,297,292,310,2
303,302,290,309,2
302,310,289,309,2
302,320,290,310,2
301,328,291,311,2
301,330,292,310,2
300,326,292,309,2
301,319,293,309,2
301,310,294,307,2
303,301,296,307,2
304,292,298,307,2
305,285,302,308,2
306,281,306,310,2
306,279,311,312,2
307,279,314,312,2
308,281,316,312,2
312,285,318,312,2
317,290,317,312,2
320,294,314,310,2
321,300,312,308,2
321,307,310,306,2
317,314,308,303,2
308,320,308,302,2
301,325,309,299,2
298,326,313,296,2
298,326,315,295,2
298,320,315,295,2
296,313,315,298,2
293,304,315,300,2
290,295,313,301,2
289,288,308,303,2
291,284,302,305,2
294,285,300,309,2
298,286,299,313,2
303,288,301,316,2
306,290,305,318,2
307,293,311,319,2
307,297,315,320,2
307,300,316,321,2
306,303,313,321,2
304,304,308,320,2
303,304,305,317,2
303,303,303,314,2
304,302,302,311,2
304,303,302,309,2
304,303,303,308,2
304,306,304,306,2
303,310,304,305,2
303,316,303,304,2
303,322,301,303,2
305,328,301,301,2
309,333,301,301,2
313,332,302,301,2
316,325,304,303,2
315,317,308,306,2
313,310,311,310,2
312,304,315,312,2
310,298,320,313,2
305,294,324,313,2
302,292,326,311,2
301,292,323,308,2
301,291,317,305,2
303,289,309,304,2
305,287,304,302,2
307,285,301,303,2
308,286,302,305,2
309,289,304,308,2
308,296,307,310,2
306,304,307,311,2
303,309,306,310,2
301,311,305,309,2
301,311,304,309,2
302,309,304,309,2
304,306,306,308,2
307,303,309,306,2
309,302,313,305,2
309,302,316,305,2
306,301,319,307,2
302,302,320,311,2
300,307,320,317,2
299,318,316,322,2
300,334,309,325,2
300,349,302,325,2
301,359,296,323,2
301,363,293,320,2
303,361,294,317,2
308,354,299,315,2
313,343,304,314,2
319,330,306,312,2
322,317,308,309,2
320,305,307,305,2
315,295,307,302,2
310,288,306,298,2
309,284,306,298,2
310,284,309,300,2
312,289,315,305,2
315,296,322,310,2
315,304,330,313,2
313,309,337,314,2
310,312,340,313,2
307,312,338,311,2
305,306,334,309,2
301,301,330,309,2
297,299,325,310,2
293,302,317,311,2
290,309,307,311,2
290,315,297,311,2
293,316,290,310,2
299,313,286,308,2
306,306,283,307,2
312,294,283,306,2
315,281,284,307,2
316,269,289,311,2
316,263,294,318,2
315,264,297,323,2
317,272,299,325,2
317,283,299,325,2
314,294,299,325,2
310,303,299,324,2
305,311,299,323,2
302,317,299,320,2
299,324,299,316,2
298,333,301,311,2
297,342,304,307,2
298,351,308,302,2
298,354,310,297,2
299,351,311,292,2
300,342,311,290,2
302,326,311,291,2
305,308,312,293,2
307,292,314,295,2
309,282,315,298,2
311,275,316,301,2
312,272,316,305,2
312,275,317,310,2
310,282,319,315,2
308,291,322,320,2
305,298,324,323,2
302,300,324,324,2
299,299,321,322,2
295,295,319,320,2
294,292,317,319,2
295,290,316,319,2
300,289,313,318,2
303,290,310,316,2
305,290,306,313,2
305,288,302,309,2
305,286,299,306,2
304,283,297,305,2
306,281,297,304,2
310,278,297,305,2
316,281,298,307,2
320,290,299,308,2
323,299,300,309,2
324,307,302,311,2
324,310,304,313,2
323,309,305,315,2
320,305,308,314,2
317,299,314,314,2
313,296,316,314,2
311,297,315,315,2
310,300,312,315,2
311,303,310,314,2
311,305,308,312,2
309,306,305,309,2
303,307,301,308,2
298,308,299,307,2
297,310,298,305,2
298,312,301,305,2
300,315,309,304,2
303,317,320,303,2
307,317,330,302,2
309,317,336,303,2
310,319,337,307,2
309,322,337,313,2
307,321,335,317,2
304,316,328,320,2
303,310,317,321,2
305,305,306,320,2
307,304,296,319,2
307,308,291,317,2
307,314,288,313,2
305,320,285,309,2
303,324,282,305,2
300,330,281,303,2
298,338,282,301,2
297,344,286,301,2
298,346,292,301,2
301,341,297,302,2
305,329,301,300,2
309,313,303,301,2
312,294,307,303,2
316,278,310,307,2
320,267,312,310,2
323,261,310,311,2
323,259,305,311,2
321,260,301,311,2
315,265,299,312,2
309,272,300,312,2
304,280,300,312,2
302,289,300,312,2
304,295,300,311,2
306,301,299,309,2
306,304,300,307,2
306,305,301,304,2
306,305,301,303,2
305,305,300,302,2
305,306,299,301,2
306,308,299,301,2
308,311,300,301,2
308,312,302,301,2
308,312,304,301,2
307,314,305,302,2
308,319,306,303,2
310,326,305,304,2
310,330,304,306,2
309,329,302,306,2
307,325,301,304,2
305,320,303,303,2
305,314,308,304,2
308,309,314,305,2
312,303,316,308,2
314,296,316,311,2
312,291,314,314,2
307,290,310,317,2
303,293,307,320,2
301,297,305,321,2
301,302,306,322,2
301,305,309,318,2
302,303,313,311,2
303,298,316,303,2
305,291,320,297,2
308,286,324,295,2
308,282,327,297,2
305,281,329,301,2
302,282,329,305,2
298,288,327,310,2
293,297,322,314,2
291,304,319,317,2
289,307,317,319,2
290,307,315,319,2
293,306,312,317,2
295,304,305,315,2
295,302,298,313,2
294,300,292,311,2
292,300,287,310,2
293,306,285,310,2
295,312,286,310,2
299,313,288,309,2
304,309,291,308,2
309,303,293,307,2
312,296,293,308,2
311,292,293,311,2
305,291,293,312,2
299,292,295,313,2
296,294,296,313,2
296,297,298,313,2
299,301,300,314,2
302,306,303,314,2
304,311,304,315,2
305,316,304,315,2
305,319,302,313,2
306,322,300,311,2
309,326,302,308,2
313,329,304,305,2
315,328,307,303,2
316,322,309,301,2
317,312,310,301,2
317,300,308,300,2
317,287,304,301,2
316,277,301,304,2
316,273,301,309,2
316,272,303,314,2
316,274,303,317,2
316,276,302,317,2
314,280,300,316,2
312,284,299,314,2
311,290,298,313,2
310,297,298,312,2
310,301,297,312,2
309,303,295,311,2
309,303,296,311,2
308,303,299,311,2
308,305,303,311,2
309,311,309,312,2
311,319,314,313,2
312,326,316,313,2
313,331,316,312,2
313,332,315,310,2
311,326,312,307,2
310,314,309,305,2
308,298,306,304,2
307,283,304,306,2
308,274,302,309,2
310,273,303,313,2
313,279,304,316,2
316,287,306,319,2
318,296,307,321,2
319,305,308,323,2
318,313,307,323,2
318,321,306,321,2
317,328,304,318,2
315,333,302,314,2
311,333,302,311,2
307,330,304,309,2
306,327,308,307,2
306,323,312,307,2
308,321,315,307,2
311,322,314,307,2
315,324,310,306,2
315,326,302,306,2
309,326,295,306,2
302,319,292,307,2
298,310,295,309,2
299,303,302,311,2
303,296,312,313,2
306,292,320,315,2
307,289,324,316,2
309,287,322,316,2
310,286,315,316,2
311,287,306,315,2
311,290,300,317,2
309,295,295,318,2
303,298,293,319,2
296,302,293,318,2
291,303,292,317,2
290,303,291,315,2
291,302,290,314,2
292,301,291,313,2
295,299,295,312,2
298,298,302,311,2
303,297,310,311,2
305,297,318,312,2
307,295,325,311,2
307,293,330,310,2
306,291,332,309,2
303,289,333,309,2
303,287,332,309,2
304,288,330,311,2
306,292,324,313,2
308,298,316,315,2
310,305,309,315,2
310,312,305,314,2
309,319,305,313,2
307,326,306,311,2
306,332,308,309,2
306,336,310,307,2
307,335,306,306,2
307,328,299,305,2
308,319,292,305,2
308,310,287,306,2
310,301,284,306,2
311,293,284,307,2
314,287,285,307,2
316,282,287,308,2
318,280,289,309,2
320,281,290,311,2
321,284,292,312,2
322,289,294,313,2
320,295,297,313,2
315,301,300,315,2
308,307,301,317,2
301,311,301,318,2
296,313,301,317,2
293,313,301,316,2
292,313,303,315,2
292,312,305,314,2
295,311,307,313,2
298,309,308,311,2
300,306,309,311,2
301,302,312,311,2
302,302,315,312,2
303,305,317,313,2
305,309,318,312,2
305,312,317,311,2
306,314,316,311,2
307,315,314,312,2
308,316,312,313,2
309,315,309,314,2
310,312,306,315,2
311,308,305,316,2
313,307,303,314,2
316,308,302,312,2
319,310,302,310,2
317,313,302,308,2
311,316,304,307,2
306,318,305,307,2
302,317,305,308,2
300,313,305,308,2
298,302,304,308,2
297,289,303,306,2
295,282,303,305,2
295,279,303,306,2
297,281,304,308,2
302,285,303,311,2
307,293,302,314,2
308,302,301,317,2
308,309,302,319,2
305,315,304,319,2
301,317,308,319,2
297,317,311,318,2
294,316,313,317,2
294,313,312,317,2
296,311,308,316,2
300,311,305,314,2
304,315,303,312,2
308,320,303,310,2
311,325,303,307,2
311,329,304,304,2
310,329,305,303,2
311,326,306,303,2
313,321,307,302,2
315,317,307,300,2
317,315,305,298,2
319,315,303,297,2
320,317,301,295,2
320,317,301,294,2
318,315,301,294,2
315,310,300,297,2
311,308,299,302,2
306,305,299,309,2
301,302,299,315,2
297,300,301,320,2
297,299,301,321,2
299,298,303,321,2
301,299,306,320,2
302,300,313,319,2
301,301,322,318,2
301,302,330,317,2
301,303,335,315,2
302,305,341,314,2
305,309,346,313,2
308,312,349,309,2
308,312,348,306,2
306,308,344,303,2
306,301,334,303,2
307,295,319,304,2
306,288,302,305,2
305,281,288,306,2
304,275,279,307,2
304,275,277,308,2
303,279,279,310,2
303,284,283,311,2
302,289,287,312,2
302,292,290,312,2
302,293,290,311,2
302,294,289,310,2
302,297,288,309,2
302,302,288,309,2
302,306,288,307,2
302,308,288,306,2
303,310,289,305,2
304,313,291,304,2
305,318,292,300,2
306,324,293,294,2
307,329,294,289,2
309,334,295,285,2
309,336,297,286,2
307,335,298,289,2
303,333,300,295,2
300,331,301,303,2
298,330,303,311,2
298,331,305,317,2
299,335,305,320,2
300,336,305,322,2
302,333,305,321,2
302,327,306,321,2
299,320,308,320,2
297,314,308,318,2
298,309,307,316,2
299,305,306,314,2
301,301,305,311,2
302,295,306,310,2
304,290,307,309,2
307,286,308,310,2
308,283,308,311,2
308,281,307,312,2
307,281,306,313,2
307,281,305,315,2
307,284,304,316,2
307,288,305,316,2
307,293,304,317,2
306,296,304,316,2
304,300,303,316,2
303,303,301,316,2
303,306,298,316,2
303,309,297,315,2
303,311,297,314,2
303,313,297,312,2
302,316,298,310,2
302,319,300,306,2
303,321,304,302,2
306,322,306,297,2
309,320,308,293,2
313,311,311,290,2
316,300,312,289,2
316,293,313,291,2
313,290,313,295,2
309,292,313,299,2
304,299,313,305,2
299,310,313,311,2
296,323,313,314,2
295,333,313,315,2
298,336,313,316,2
303,333,311,317,2
305,326,311,318,2
306,319,309,319,2
306,313,305,320,2
305,306,300,320,2
303,299,295,319,2
300,294,294,317,2
299,290,294,315,2
298,290,296,314,2
297,293,298,313,2
298,297,297,312,2
298,302,296,312,2
299,307,297,313,2
299,312,300,314,2
299,319,305,314,2
299,326,309,312,2
299,332,313,310,2
300,336,315,309,2
300,336,313,308,2
300,333,308,307,2
301,324,303,306,2
300,312,302,305,2
301,297,304,306,2
301,284,310,307,2
301,273,318,309,2
299,266,322,309,2
298,263,320,308,2
298,261,312,306,2
299,262,304,306,2
301,267,299,307,2
301,273,298,308,2
298,281,299,309,2
297,286,305,312,2
297,292,312,314,2
298,299,317,317,2
301,309,318,317,2
303,319,318,315,2
304,329,320,312,2
303,338,322,308,2
303,345,324,304,2
303,351,323,300,2
305,353,320,295,2
306,352,315,291,2
307,351,309,288,2
306,349,302,287,2
307,343,299,287,2
309,331,301,292,2
307,318,306,300,2
303,307,312,308,2
301,301,315,313,2
301,298,314,316,2
302,297,310,317,2
303,300,304,317,2
303,307,299,318,2
303,314,296,317,2
302,316,295,315,2
302,311,295,313,2
302,303,296,311,2
302,296,295,309,2
302,290,295,307,2
303,284,297,307,2
306,278,300,307,2
309,276,302,308,2
310,276,303,309,2
311,279,303,310,2
310,282,304,311,2
308,288,305,311,2
303,295,306,311,2
297,302,306,309,2
292,304,304,306,2
290,300,302,303,2
292,292,301,300,2
297,284,301,298,2
304,279,303,297,2
308,279,306,297,2
310,284,309,300,2
310,294,311,303,2
307,305,311,305,2
304,313,312,307,2
302,320,314,308,2
302,326,315,308,2
304,329,315,306,2
306,329,314,303,2
307,326,313,299,2
307,322,312,295,2
307,316,313,292,2
306,308,314,292,2
306,298,314,296,2
306,289,312,300,2
307,288,308,306,2
308,297,306,310,2
309,311,305,314,2
309,323,307,316,2
310,331,312,318,2
312,331,321,316,2
314,322,335,311,2
316,306,351,308,2
317,292,360,308,2
316,284,357,308,2
313,282,343,308,2
309,284,324,306,2
306,287,305,303,2
303,289,291,299,2
299,290,285,297,2
297,290,285,296,2
300,291,286,295,2
307,294,288,296,2
314,299,289,297,2
318,305,288,297,2
320,309,286,298,2
317,307,286,298,2
311,303,290,299,2
308,295,295,300,2
307,286,300,300,2
306,278,303,300,2
306,276,304,300,2
304,283,302,303,2
301,296,300,306,2
299,310,298,308,2
299,323,296,309,2
299,336,295,308,2
300,351,294,304,2
301,366,293,300,2
301,376,292,296,2
303,377,292,294,2
307,368,294,294,2
312,350,296,296,2
316,329,298,302,2
314,305,302,306,2
309,282,303,310,2
304,266,304,311,2
301,259,306,312,2
299,262,305,311,2
298,271,304,309,2
297,283,303,306,2
299,297,303,305,2
302,312,305,303,2
305,320,309,302,2
307,319,314,301,2
309,311,319,301,2
311,299,324,303,2
312,288,325,306,2
312,281,319,307,2
312,280,310,307,2
312,283,302,305,2
313,293,297,303,2
315,305,297,303,2
317,316,299,304,2
317,324,302,306,2
316,329,305,307,2
314,336,310,309,2
314,344,317,311,2
318,356,323,314,2
324,369,326,315,2
328,375,323,312,2
327,371,316,306,2
320,354,306,298,2
313,324,298,291,2
307,292,295,287,2
305,265,300,288,2
305,247,311,292,2
306,238,324,297,2
307,235,335,303,2
307,236,340,307,2
305,242,338,310,2
301,250,334,313,2
300,258,329,315,2
301,267,323,315,2
304,277,319,315,2
305,287,315,314,2
306,295,311,312,2
306,300,307,312,2
305,302,303,311,2
304,305,301,312,2
302,309,297,313,2
301,315,294,315,2
302,318,288,316,2
304,317,283,317,2
307,312,279,317,2
309,309,277,317,2
314,315,278,316,2
317,329,281,314,2
314,343,287,312,2
308,356,292,310,2
304,361,296,308,2
304,355,300,305,2
306,336,301,302,2
307,311,304,298,2
306,288,308,296,2
307,276,309,295,2
309,274,307,296,2
312,283,305,297,2
313,294,304,301,2
312,305,305,304,2
312,312,305,306,2
311,312,305,307,2
311,303,304,307,2
310,289,304,306,2
309,275,305,305,2
308,265,306,304,2
308,260,308,304,2
308,259,308,302,2
307,258,307,300,2
303,258,304,299,2
298,264,300,299,2
294,277,297,301,2
292,294,295,302,2
292,309,295,304,2
294,320,296,305,2
296,323,298,305,2
300,320,299,303,2
301,312,302,298,2
302,304,306,295,2
304,300,312,294,2
307,303,319,295,2
309,309,327,298,2
310,321,338,304,2
310,334,349,311,2
308,341,352,318,2
303,339,346,320,2
295,332,332,319,2
290,327,316,315,2
289,325,304,311,2
295,325,299,307,2
302,325,297,304,2
307,324,296,301,2
309,324,294,299,2
309,323,292,298,2
309,321,291,297,2
309,317,291,297,2
311,312,291,297,2
314,309,291,296,2
316,309,290,295,2
316,313,291,295,2
313,318,293,294,2
309,322,298,295,2
306,324,303,297,2
305,325,308,299,2
306,320,311,303,2
307,309,312,306,2
304,296,308,308,2
301,288,301,307,2
300,283,294,307,2
301,281,291,305,2
304,281,293,304,2
307,283,296,302,2
311,289,300,300,2
316,301,302,298,2
317,311,301,297,2
315,316,297,298,2
314,320,294,300,2
313,323,292,303,2
312,321,292,304,2
307,314,293,305,2
299,306,296,305,2
293,303,298,307,2
288,303,301,308,2
285,304,303,309,2
285,304,305,310,2
288,305,306,311,2
293,304,306,311,2
297,301,307,311,2
300,297,308,311,2
302,294,310,312,2
302,291,310,312,2
302,289,310,312,2
304,287,311,311,2
306,285,313,310,2
308,284,317,308,2
310,284,321,307,2
312,289,322,308,2
313,299,323,310,2
314,319,322,313,2
314,349,318,316,2
311,380,310,316,2
306,400,301,312,2
301,404,293,308,2
297,393,288,304,2
293,369,288,302,2
290,341,290,303,2
291,315,295,306,2
295,295,302,310,2
301,286,307,312,2
307,283,310,312,2
311,280,311,310,2
311,275,311,308,2
310,271,311,307,2
307,271,311,307,2
306,274,316,306,2
305,281,328,306,2
306,288,344,305,2
307,293,355,304,2
306,296,353,303,2
306,293,340,303,2
308,289,325,304,2
308,285,311,306,2
308,283,297,310,2
307,283,285,315,2
309,285,277,318,2
313,290,272,319,2
316,296,273,320,2
316,301,277,320,2
312,305,285,320,2
306,308,294,319,2
301,310,300,315,2
299,311,302,311,2
299,311,302,307,2
301,311,300,302,2
302,308,300,298,2
304,304,301,296,2
306,301,305,296,2
309,304,307,300,2
311,310,308,305,2
310,317,308,308,2
308,326,308,309,2
306,333,307,310,2
305,339,305,312,2
305,344,304,313,2
309,346,303,314,2
316,344,304,312,2
322,337,309,311,2
321,332,316,309,2
316,323,320,307,2
310,311,321,304,2
306,296,320,301,2
302,286,317,297,2
300,282,312,294,2
299,283,309,293,2
300,283,308,295,2
303,283,308,299,2
307,286,310,304,2
310,292,314,309,2
313,299,318,311,2
315,305,321,312,2
315,309,322,312,2
313,310,322,310,2
310,310,319,308,2
307,309,315,308,2
305,309,308,306,2
304,309,301,304,2
303,311,296,303,2
303,315,294,304,2
302,322,296,307,2
302,334,299,309,2
302,345,300,309,2
301,353,300,306,2
300,356,298,303,2
303,351,297,300,2
306,341,297,299,2
308,328,301,299,2
310,314,308,301,2
311,300,316,304,2
312,290,324,307,2
312,284,329,308,2
312,283,325,307,2
311,280,317,305,2
310,277,308,303,2
310,276,302,301,2
310,281,301,300,2
309,289,305,299,2
307,299,312,298,2
305,309,318,298,2
305,317,319,299,2
306,318,314,300,2
307,313,310,302,2
307,308,307,306,2
308,306,304,311,2
309,304,302,315,2
310,302,299,318,2
313,301,298,319,2
318,303,295,317,2
321,307,292,314,2
321,313,291,311,2
316,321,292,310,2
310,328,297,311,2
304,334,303,311,2
299,337,310,313,2
297,337,315,313,2
295,334,318,312,2
294,329,317,309,2
294,319,314,306,2
295,309,309,303,2
296,300,303,299,2
297,295,297,296,2
297,295,292,296,2
297,298,291,298,2
297,303,291,301,2
298,307,293,304,2
303,307,294,307,2
308,306,295,307,2
313,310,296,307,2
315,317,299,307,2
314,324,303,308,2
311,329,309,310,2
306,331,313,312,2
301,332,317,314,2
299,330,320,318,2
300,325,323,320,2
304,318,327,322,2
308,311,329,319,2
312,306,327,314,2
316,301,320,308,2
320,298,313,303,2
323,296,306,299,2
322,295,302,296,2
315,295,300,293,2
308,296,298,292,2
302,297,297,291,2
299,298,297,291,2
298,299,302,292,2
299,299,310,295,2
302,298,320,300,2
306,297,330,305,2
307,300,335,309,2
305,305,334,312,2
304,312,327,314,2
304,320,318,314,2
306,332,310,314,2
308,347,304,313,2
309,358,298,311,2
308,363,290,308,2
305,360,285,305,2
303,350,284,303,2
302,336,287,303,2
306,318,293,303,2
309,302,300,303,2
312,292,305,303,2
314,288,307,303,2
315,290,305,302,2
315,293,301,302,2
314,295,297,302,2
314,295,294,301,2
314,293,290,300,2
314,290,289,299,2
315,288,289,298,2
314,285,292,296,2
313,281,296,295,2
313,281,303,296,2
314,285,309,297,2
314,293,313,300,2
313,301,315,303,2
308,306,315,307,2
302,307,316,310,2
297,306,321,312,2
296,305,328,312,2
298,305,332,312,2
300,307,330,310,2
302,310,325,308,2
303,316,319,309,2
305,324,313,310,2
307,330,306,312,2
309,335,302,313,2
310,335,300,313,2
310,330,302,314,2
309,324,308,314,2
308,319,315,315,2
306,318,321,316,2
305,320,323,315,2
304,322,320,314,2
303,326,315,311,2
302,330,311,307,2
301,333,310,306,2
300,335,313,306,2
298,336,315,307,2
293,338,315,306,2
289,338,312,303,2
288,337,306,301,2
291,337,299,299,2
296,336,293,297,2
302,335,289,296,2
307,331,290,294,2
310,326,291,293,2
312,320,294,291,2
313,313,297,293,2
312,304,297,296,2
312,296,296,299,2
312,289,295,301,2
312,282,295,304,2
313,280,296,308,2
314,281,298,313,2
316,282,300,314,2
318,281,301,313,2
319,277,301,311,2
317,270,303,309,2
315,264,306,307,2
314,261,310,305,2
313,261,314,305,2
312,266,315,306,2
311,277,314,307,2
310,289,314,308,2
311,298,313,311,2
314,301,313,314,2
320,303,314,316,2
327,303,313,318,2
331,305,312,320,2
328,309,309,321,2
320,315,305,318,2
312,320,301,314,2
306,325,297,309,2
302,331,295,305,2
300,338,296,302,2
298,346,297,300,2
298,354,300,297,2
299,362,304,295,2
299,367,306,295,2
300,367,306,295,2
303,361,305,296,2
305,352,304,297,2
304,341,303,298,2
301,327,303,299,2
301,313,306,299,2
303,300,312,301,2
306,289,317,303,2
308,280,318,306,2
309,276,314,309,2
308,277,308,311,2
308,280,303,311,2
308,284,300,310,2
309,288,299,309,2
309,294,299,308,2
309,301,300,307,2
308,307,300,306,2
308,310,300,304,2
308,310,299,303,2
307,306,298,302,2
306,304,297,301,2
304,307,298,302,2
302,314,300,304,2
300,324,305,307,2
299,336,311,311,2
299,344,313,313,2
301,343,311,312,2
304,336,307,311,2
308,326,304,311,2
311,317,303,310,2
313,311,302,310,2
313,306,303,309,2
313,303,303,308,2
313,300,304,308,2
313,298,304,308,2
313,298,308,308,2
313,298,312,308,2
312,298,316,308,2
311,294,318,307,2
310,289,318,307,2
308,286,315,307,2
306,283,314,308,2
307,281,315,308,2
309,281,316,308,2
313,281,314,308,2
315,282,312,308,2
316,282,309,309,2
315,282,310,310,2
312,286,314,312,2
306,297,321,314,2
300,310,325,315,2
296,321,325,313,2
297,329,320,310,2
301,333,314,305,2
305,334,307,301,2
310,333,302,299,2
312,331,300,300,2
311,330,302,300,2
307,328,303,302,2
303,327,304,301,2
297,327,304,300,2
292,328,300,299,2
289,327,294,298,2
289,324,288,297,2
292,319,287,296,2
295,316,291,296,2
299,315,298,297,2
307,316,306,298,2
316,319,312,300,2
320,324,313,301,2
318,334,311,302,2
314,342,308,303,2
310,344,305,305,2
306,338,303,307,2
305,326,303,308,2
306,311,304,309,2
308,299,305,309,2
309,293,307,307,2
309,294,309,307,2
309,298,311,306,2
309,304,312,305,2
309,309,311,306,2
307,311,308,306,2
306,309,304,308,2
306,306,302,310,2
307,304,304,313,2
308,304,309,315,2
311,303,313,316,2
314,302,315,318,2
317,302,315,317,2
319,302,312,314,2
320,299,310,309,2
320,294,312,306,2
318,290,318,304,2
314,290,325,304,2
308,292,329,305,2
304,295,330,306,2
302,300,325,307,2
305,304,314,307,2
308,305,301,305,2
308,301,291,304,2
306,295,284,303,2
305,287,281,301,2
305,280,281,300,2
307,274,282,301,2
309,271,283,305,2
310,275,286,309,2
311,281,292,312,2
311,290,300,315,2
309,302,306,316,2
307,314,309,316,2
305,325,308,314,2
302,335,306,313,2
301,341,302,312,2
301,346,297,312,2
304,349,293,312,2
306,348,292,311,2
306,344,293,310,2
303,336,297,308,2
300,329,300,307,2
300,321,302,305,2
304,312,303,304,2
311,304,303,304,2
320,296,303,305,2
330,291,305,307,2
339,286,308,309,2
342,283,309,311,2
335,280,309,312,2
324,279,309,313,2
313,282,309,313,2
304,286,308,312,2
295,293,307,311,2
287,301,306,311,2
281,308,307,312,2
279,314,308,313,2
283,318,310,315,2
289,321,312,315,2
297,321,314,315,2
303,321,318,313,2
305,319,325,310,2
304,316,333,309,2
301,313,338,309,2
299,309,336,309,2
300,309,332,308,2
302,315,326,307,2
303,325,320,306,2
302,335,316,306,2
302,342,315,307,2
303,345,319,309,2
304,338,322,309,2
305,323,324,307,2
305,306,321,304,2
304,296,315,301,2
303,292,307,300,2
304,289,302,300,2
306,287,299,301,2
308,283,300,304,2
310,277,302,307,2
310,270,305,310,2
308,264,305,313,2
303,261,305,314,2
299,262,305,314,2
297,264,305,314,2
296,269,304,313,2
296,280,303,312,2
298,294,303,311,2
302,307,304,307,2
307,314,304,304,2
311,317,303,301,2
315,315,302,299,2
316,309,303,301,2
315,304,303,306,2
313,303,303,312,2
309,308,305,318,2
306,310,311,320,2
305,310,319,322,2
305,310,327,322,2
307,312,332,321,2
307,314,334,321,2
305,315,331,318,2
301,316,321,315,2
298,318,308,312,2
297,322,296,308,2
300,327,288,306,2
304,333,286,305,2
309,338,288,306,2
314,342,294,309,2
318,344,301,312,2
318,342,305,314,2
315,337,306,317,2
313,332,305,317,2
311,325,304,315,2
309,316,301,312,2
307,304,297,308,2
306,293,293,306,2
306,290,291,306,2
307,294,291,307,2
307,303,292,307,2
306,311,292,307,2
305,317,293,305,2
303,320,293,302,2
300,318,295,301,2
300,314,298,301,2
302,309,303,303,2
307,304,307,305,2
308,298,309,308,2
306,292,310,310,2
303,282,310,312,2
301,272,310,312,2
300,268,310,312,2
299,271,309,312,2
298,283,307,313,2
298,297,305,313,2
297,307,303,312,2
294,310,301,309,2
291,302,299,304,2
289,289,300,301,2
292,280,304,301,2
296,276,307,301,2
299,276,307,301,2
301,279,307,302,2
300,286,307,306,2
300,300,307,311,2
302,319,308,317,2
305,337,308,319,2
306,349,309,318,2
305,353,313,318,2
305,351,316,319,2
308,346,316,321,2
309,338,315,320,2
308,329,312,315,2
306,318,311,309,2
304,309,308,303,2
304,303,306,298,2
305,302,304,294,2
306,305,305,292,2
306,311,308,292,2
306,317,312,296,2
306,319,317,302,2
304,315,320,305,2
302,309,323,306,2
300,301,324,306,2
300,293,324,306,2
303,287,322,306,2
305,285,320,306,2
308,284,318,308,2
312,283,314,310,2
314,279,309,311,2
315,275,305,311,2
315,277,305,312,2
313,287,312,312,2
309,306,322,313,2
307,329,331,315,2
306,348,334,315,2
306,359,332,314,2
303,359,327,312,2
297,345,319,309,2
291,317,308,308,2
288,289,298,309,2
291,269,290,310,2
294,258,284,311,2
295,256,282,311,2
296,262,284,310,2
298,271,289,310,2
303,283,294,310,2
309,294,300,307,2
313,304,304,304,2
311,309,307,300,2
305,311,308,298,2
299,309,311,297,2
297,307,312,296,2
298,305,309,293,2
300,305,305,290,2
300,305,302,288,2
299,305,298,288,2
296,302,294,288,2
292,294,291,289,2
288,285,290,292,2
286,279,290,297,2
285,277,291,302,2
288,277,294,306,2
293,285,297,309,2
298,299,299,311,2
302,314,300,312,2
307,328,300,311,2
310,339,301,309,2
312,350,302,307,2
314,360,302,305,2
313,369,302,303,2
311,375,301,300,2
309,374,299,297,2
308,363,298,297,2
307,348,299,297,2
305,331,300,298,2
303,316,302,300,2
300,306,306,302,2
297,304,311,303,2
295,303,315,307,2
296,302,318,311,2
299,298,319,314,2
303,293,317,314,2
308,285,312,313,2
313,274,305,308,2
316,263,300,304,2
318,250,298,300,2
318,237,297,296,2
316,222,297,293,2
313,208,298,292,2
309,200,301,293,2
305,202,304,297,2
303,215,307,301,2
302,237,308,306,2
304,268,308,310,2
306,305,308,313,2
310,339,304,315,2
312,364,300,314,2
309,380,296,311,2
304,383,294,306,2
298,373,294,300,2
296,356,294,293,2
298,338,293,289,2
300,325,292,288,2
302,317,293,289,2
302,313,295,292,2
300,310,298,297,2
299,307,302,302,2
300,302,303,305,2
304,297,304,307,2
309,292,304,309,2
311,291,307,311,2
312,296,310,312,2
312,301,314,312,2
306,300,316,311,2
297,293,319,311,2
294,286,324,312,2
298,281,330,313,2
302,279,333,312,2
304,277,333,311,2
302,278,334,310,2
300,279,335,310,2
297,283,333,310,2
294,293,328,310,2
292,305,320,311,2
293,318,312,312,2
293,328,301,312,2
296,332,289,313,2
300,329,282,313,2
304,318,279,311,2
306,303,280,309,2
305,290,283,308,2
301,284,288,309,2
296,284,293,309,2
294,290,299,308,2
296,300,303,305,2
298,308,304,300,2
300,313,303,297,2
302,315,300,297,2
304,315,297,298,2
307,309,295,300,2
309,300,293,304,2
310,295,292,308,2
312,295,292,310,2
313,303,292,311,2
314,315,294,313,2
315,328,297,314,2
316,342,297,314,2
314,357,296,313,2
312,374,293,311,2
311,390,290,309,2
309,398,289,307,2
307,396,291,307,2
306,381,295,307,2
305,353,298,308,2
304,319,300,309,2
303,287,304,309,2
301,265,306,308,2
300,252,306,307,2
298,245,302,306,2
297,242,298,306,2
297,242,295,305,2
297,243,294,305,2
299,248,295,305,2
301,252,296,306,2
302,259,299,308,2
305,266,301,310,2
310,272,303,311,2
314,277,304,310,2
316,282,304,309,2
315,286,303,306,2
314,289,302,304,2
311,293,300,303,2
308,302,298,302,2
306,314,296,302,2
305,327,294,303,2
307,337,294,304,2
315,339,294,304,2
325,332,297,306,2
330,319,301,309,2
326,310,306,312,2
316,304,311,312,2
305,301,312,310,2
298,296,309,308,2
295,290,304,307,2
296,283,300,307,2
298,278,298,306,2
300,277,298,308,2
301,282,301,309,2
300,293,304,311,2
296,306,305,313,2
292,317,304,312,2
289,324,302,312,2
291,329,301,312,2
297,332,301,315,2
301,334,303,316,2
301,332,305,316,2
298,329,307,314,2
293,325,306,312,2
288,319,305,311,2
286,311,305,310,2
287,303,303,310,2
292,298,302,309,2
301,293,300,308,2
309,288,300,307,2
315,284,302,307,2
320,280,305,308,2
322,277,311,310,2
323,277,316,310,2
322,283,320,309,2
321,289,322,307,2
320,290,321,304,2
320,286,319,302,2
320,279,315,301,2
320,277,309,300,2
319,283,305,302,2
319,297,302,304,2
318,314,300,305,2
318,324,300,306,2
317,329,301,308,2
315,329,303,310,2
313,327,309,311,2
309,322,321,313,2
304,318,338,314,2
302,312,356,317,2
304,305,371,318,2
307,296,377,320,2
309,287,375,322,2
311,282,366,324,2
312,282,349,326,2
311,284,326,324,2
308,286,302,321,2
306,285,285,317,2
304,281,274,313,2
304,278,268,309,2
304,277,265,306,2
303,280,265,305,2
304,288,267,307,2
305,299,272,309,2
306,311,279,313,2
308,321,287,318,2
309,326,295,321,2
309,327,297,320,2
308,322,296,317,2
306,313,296,315,2
303,302,297,313,2
297,297,298,314,2
293,298,297,315,2
292,304,294,316,2
294,311,290,317,2
295,318,288,316,2
297,322,288,315,2
298,321,289,313,2
300,314,291,313,2
303,304,295,313,2
306,293,299,314,2
306,282,303,315,2
305,274,306,317,2
302,273,307,319,2
299,275,306,321,2
297,278,304,321,2
296,280,302,321,2
294,281,299,320,2
291,284,297,319,2
289,290,297,317,2
287,296,299,316,2
289,302,303,315,2
294,307,307,314,2
301,312,309,313,2
307,315,310,311,2
311,316,310,310,2
315,317,310,310,2
318,318,309,311,2
316,321,309,312,2
312,325,308,313,2
306,329,307,313,2
304,332,307,311,2
304,335,307,309,2
306,339,310,306,2
307,341,311,304,2
308,339,311,303,2
309,334,311,302,2
309,327,311,302,2
308,317,310,303,2
307,309,308,304,2
307,301,306,307,2
307,295,305,310,2
308,292,306,313,2
308,289,308,315,2
309,286,311,317,2
308,281,314,317,2
309,273,318,317,2
311,264,320,315,2
312,263,323,314,2
314,271,326,311,2
315,286,326,309,2
314,302,323,307,2
312,317,319,306,2
311,331,313,306,2
309,346,306,306,2
308,362,300,305,2
306,375,296,303,2
305,378,294,301,2
303,371,295,300,2
302,353,302,301,2
301,329,317,304,2
300,305,332,307,2
300,287,345,312,2
301,278,352,317,2
301,275,352,321,2
304,278,346,324,2
306,283,333,324,2
306,289,315,321,2
305,294,298,319,2
303,296,286,317,2
301,299,282,315,2
300,303,282,314,2
299,303,286,314,2
301,299,289,314,2
303,296,292,313,2
306,296,293,312,2
308,295,293,311,2
309,296,292,311,2
307,299,291,311,2
307,310,292,313,2
308,323,295,313,2
313,331,302,313,2
317,331,310,314,2
315,324,316,315,2
311,317,321,316,2
308,311,321,315,2
307,307,319,313,2
308,308,315,311,2
309,315,312,309,2
310,322,310,307,2
308,328,307,306,2
303,330,305,306,2
297,330,304,306,2
293,329,306,307,2
294,327,309,309,2
298,321,312,309,2
302,309,313,308,2
304,295,312,307,2
304,284,309,304,2
304,277,309,303,2
303,273,310,305,2
302,273,313,307,2
302,276,316,311,2
302,279,319,313,2
301,283,321,314,2
301,289,321,315,2
300,299,317,315,2
299,312,310,314,2
299,326,303,314,2
302,339,298,314,2
303,349,296,313,2
303,353,296,311,2
301,351,298,311,2
299,343,303,312,2
298,331,308,312,2
297,321,309,311,2
297,312,306,310,2
297,305,303,310,2
297,297,299,312,2
297,287,298,314,2
298,277,297,316,2
298,268,297,317,2
298,263,297,317,2
299,262,298,317,2
301,264,299,317,2
305,268,301,318,2
309,272,304,319,2
312,276,304,320,2
312,281,301,320,2
309,289,298,320,2
303,300,295,320,2
295,313,294,319,2
290,323,294,318,2
290,327,298,315,2
295,324,301,313,2
301,315,303,309,2
306,303,304,305,2
307,293,304,302,2
307,289,304,300,2
306,293,304,301,2
306,300,304,303,2
306,308,304,306,2
307,316,305,309,2
308,322,304,311,2
309,328,304,312,2
309,333,304,311,2
309,336,304,310,2
308,337,304,309,2
307,334,303,307,2
305,331,300,305,2
302,331,298,304,2
302,330,297,306,2
305,326,298,307,2
312,317,301,309,2
318,305,304,309,2
323,293,306,309,2
325,286,305,308,2
323,282,302,308,2
316,281,299,309,2
304,283,296,311,2
294,289,293,311,2
288,296,291,312,2
287,306,293,313,2
292,319,297,316,2
299,329,303,318,2
305,332,310,321,2
307,330,317,323,2
306,327,322,322,2
304,321,323,321,2
300,314,323,319,2
299,306,318,317,2
301,295,310,315,2
306,283,301,314,2
312,275,295,313,2
315,272,291,313,2
315,273,289,312,2
311,276,288,311,2
307,283,290,309,2
304,289,294,308,2
303,294,299,309,2
304,297,304,311,2
306,298,309,312,2
308,298,312,313,2
309,300,313,313,2
310,302,312,315,2
310,303,310,316,2
310,303,306,318,2
311,304,304,317,2
312,307,303,317,2
311,311,302,316,2
310,317,301,315,2
310,325,299,315,2
311,335,298,315,2
311,344,296,315,2
309,351,294,314,2
306,354,294,312,2
303,353,295,311,2
302,344,297,308,2
304,329,298,304,2
307,310,302,303,2
310,290,305,303,2
310,273,306,302,2
309,263,306,303,2
307,261,307,304,2
305,265,309,306,2
306,276,312,309,2
308,291,315,313,2
312,303,316,316,2
314,312,313,317,2
315,316,310,317,2
314,316,313,316,2
313,313,319,316,2
313,307,325,317,2
313,299,328,317,2
313,295,325,318,2
312,297,319,317,2
311,304,312,315,2
309,311,302,313,2
307,315,292,311,2
306,314,284,310,2
308,308,280,309,2
310,298,279,308,2
311,289,281,306,2
312,288,285,306,2
313,297,290,305,2
312,312,296,305,2
310,328,302,306,2
309,341,307,306,2
309,350,308,307,2
310,351,305,308,2
313,340,302,310,2
316,321,301,313,2
318,301,303,317,2
316,285,306,319,2
311,274,307,320,2
306,267,306,320,2
303,267,304,318,2
299,274,302,317,2
295,285,300,315,2
290,297,297,314,2
287,307,295,314,2
287,316,295,313,2
288,323,296,312,2
290,325,297,311,2
291,325,300,311,2
292,326,302,311,2
294,325,304,311,2
298,324,308,311,2
302,323,313,310,2
305,321,318,309,2
305,320,321,308,2
304,319,321,308,2
301,318,320,307,2
301,318,318,306,2
304,319,315,304,2
307,320,310,301,2
309,321,303,298,2
309,323,298,295,2
309,325,295,295,2
310,330,294,296,2
309,334,293,299,2
307,333,293,303,2
305,324,295,308,2
305,309,299,314,2
309,293,304,318,2
313,282,309,319,2
315,275,314,318,2
317,270,319,317,2
316,267,323,317,2
314,267,326,318,2
308,271,324,319,2
302,280,317,319,2
296,289,309,317,2
292,298,301,315,2
291,304,297,313,2
293,308,297,310,2
297,309,299,308,2
302,309,302,307,2
306,309,305,306,2
310,309,305,306,2
312,309,304,307,2
312,311,302,308,2
311,315,299,308,2
310,323,297,309,2
310,330,296,309,2
309,336,296,309,2
309,335,297,309,2
309,329,298,308,2
308,324,299,308,2
307,321,299,307,2
305,321,300,307,2
303,321,300,308,2
302,320,301,311,2
301,318,302,315,2
299,316,303,319,2
297,314,304,320,2
298,311,304,321,2
302,311,307,320,2
306,310,314,319,2
310,307,327,317,2
312,304,340,317,2
315,300,348,317,2
320,297,350,319,2
324,296,345,320,2
328,296,338,322,2
329,297,326,323,2
325,300,312,325,2
317,303,301,325,2
304,304,294,324,2
294,305,290,322,2
290,305,288,319,2
291,305,288,315,2
293,306,289,312,2
296,306,291,309,2
299,307,295,307,2
300,309,300,307,2
301,310,304,307,2
301,311,306,306,2
301,311,306,307,2
302,311,303,308,2
302,311,300,309,2
300,312,297,311,2
298,313,297,315,2
296,316,297,317,2
296,320,298,319,2
300,325,300,319,2
306,329,302,317,2
310,332,303,314,2
312,334,302,309,2
311,335,299,305,2
309,336,295,301,2
306,336,292,299,2
304,331,292,298,2
303,321,296,298,2
303,306,303,297,2
306,294,309,296,2
311,285,312,294,2
316,275,312,294,2
318,269,313,296,2
320,267,315,301,2
319,270,316,307,2
316,276,313,312,2
311,282,309,314,2
307,287,304,316,2
302,289,299,316,2
300,290,297,316,2
299,292,296,316,2
299,296,296,316,2
300,300,298,315,2
301,303,302,314,2
301,304,306,312,2
300,304,308,311,2
299,305,308,310,2
297,308,308,309,2
296,313,308,310,2
297,319,308,311,2
301,328,307,311,2
305,336,306,309,2
308,339,304,309,2
308,342,302,309,2
305,342,301,311,2
303,337,300,313,2
303,328,300,314,2
304,320,300,315,2
306,314,302,314,2
308,311,304,314,2
311,311,306,314,2
314,314,307,312,2
317,320,307,311,2
321,323,308,309,2
325,322,310,308,2
322,316,311,305,2
314,308,311,302,2
304,300,314,299,2
296,296,320,298,2
289,294,327,298,2
283,294,332,299,2
281,291,332,301,2
283,287,326,302,2
288,283,318,304,2
294,280,311,306,2
301,281,306,309,2
306,288,305,313,2
309,300,308,318,2
310,314,313,322,2
311,328,318,325,2
312,339,322,325,2
314,348,321,323,2
315,352,318,321,2
315,352,312,318,2
314,349,307,316,2
313,344,304,315,2
311,337,302,315,2
309,329,302,313,2
304,319,301,313,2
299,308,301,313,2
294,297,301,313,2
292,287,302,312,2
296,282,303,311,2
304,279,303,311,2
310,279,301,310,2
313,280,299,309,2
315,282,297,309,2
315,289,297,310,2
316,298,298,311,2
317,309,300,312,2
318,318,302,311,2
318,325,303,309,2
317,327,305,307,2
314,328,310,305,2
311,326,316,303,2
308,324,322,302,2
304,323,326,301,2
302,321,328,300,2
302,315,331,301,2
307,305,335,305,2
318,296,337,308,2
331,290,332,310,2
339,288,322,310,2
336,288,310,307,2
324,290,300,305,2
310,289,295,302,2
301,290,294,303,2
296,295,294,306,2
294,302,294,310,2
293,307,294,312,2
296,310,293,312,2
301,312,294,313,2
307,315,297,314,2
313,316,299,316,2
318,318,298,317,2
321,319,297,317,2
325,321,297,316,2
326,326,298,315,2
320,333,299,313,2
309,339,300,310,2
299,342,301,308,2
293,340,301,304,2
290,332,297,300,2
290,321,293,296,2
292,309,292,293,2
294,296,294,293,2
295,282,302,295,2
299,270,311,297,2
304,265,320,300,2
308,268,326,303,2
311,275,330,307,2
312,285,331,310,2
312,294,330,312,2
309,300,326,313,2
305,302,320,313,2
301,302,313,313,2
297,303,306,312,2
294,306,301,310,2
292,315,298,309,2
291,329,299,308,2
292,341,299,307,2
297,349,299,305,2
304,350,298,304,2
308,344,297,302,2
309,331,299,303,2
306,316,301,305,2
304,304,303,308,2
304,304,305,311,2
310,315,306,313,2
316,332,309,314,2
318,349,312,313,2
318,363,313,309,2
316,371,314,305,2
311,370,313,300,2
307,359,310,296,2
303,337,306,294,2
299,307,307,296,2
298,277,313,300,2
301,253,318,305,2
308,236,319,309,2
313,229,316,312,2
314,233,312,315,2
313,246,308,317,2
314,262,305,320,2
318,279,301,320,2
322,298,298,319,2
325,319,295,318,2
325,341,294,317,2
321,357,292,316,2
311,363,291,316,2
301,357,290,314,2
295,347,291,312,2
294,341,293,308,2
296,338,294,305,2
300,339,294,301,2
304,343,293,297,2
309,344,292,293,2
312,337,292,290,2
315,317,291,290,2
314,288,293,292,2
309,258,293,298,2
304,233,293,304,2
302,216,296,308,2
303,215,302,312,2
303,233,307,314,2
299,260,309,315,2
293,290,310,314,2
286,316,310,313,2
281,337,310,312,2
281,354,310,310,2
286,368,310,309,2
293,377,311,309,2
299,376,312,307,2
303,362,312,305,2
305,341,313,305,2
306,325,314,306,2
305,315,314,308,2
302,309,314,307,2
300,307,314,307,2
301,309,315,305,2
306,311,316,304,2
313,311,315,303,2
320,312,311,303,2
325,316,307,303,2
326,322,305,303,2
326,322,311,303,2
323,312,322,302,2
320,298,332,302,2
318,294,339,304,2
318,298,340,308,2
317,302,335,312,2
315,307,326,314,2
314,308,314,315,2
313,303,305,314,2
316,288,300,314,2
319,266,296,313,2
322,247,294,311,2
322,238,296,310,2
320,240,304,312,2
316,248,311,315,2
311,260,314,317,2
305,272,312,318,2
300,282,305,317,2
298,289,296,314,2
300,290,289,312,2
304,285,287,311,2
308,279,288,312,2
312,275,290,313,2
313,277,290,313,2
313,283,287,311,2
311,291,282,309,2
312,296,276,306,2
316,299,272,304,2
323,304,273,304,2
330,306,278,306,2
336,304,285,308,2
335,304,292,311,2
328,307,296,311,2
316,309,298,311,2
300,311,298,307,2
287,310,297,304,2
279,310,298,302,2
279,313,301,301,2
284,317,305,302,2
292,320,308,303,2
299,320,312,305,2
306,321,316,307,2
311,323,320,309,2
315,328,320,310,2
316,333,318,310,2
313,339,314,310,2
307,347,311,310,2
301,348,311,311,2
300,336,314,312,2
302,313,316,312,2
305,284,316,312,2
308,258,314,310,2
308,240,312,305,2
308,235,310,302,2
311,249,308,302,2
312,274,305,300,2
312,300,301,299,2
310,316,297,298,2
310,321,293,297,2
311,314,290,296,2
313,301,292,298,2
319,283,298,302,2
323,266,304,307,2
326,251,308,311,2
325,242,310,313,2
320,248,310,314,2
315,259,309,313,2
309,270,307,312,2
305,278,304,310,2
305,282,299,308,2
305,285,295,306,2
303,292,293,306,2
301,300,294,305,2
301,306,299,306,2
301,308,307,306,2
300,302,311,306,2
299,295,313,306,2
300,291,312,307,2
302,287,311,307,2
305,280,311,307,2
308,268,312,307,2
308,256,312,309,2
309,255,314,312,2
312,263,315,316,2
314,274,318,317,2
315,285,321,317,2
314,296,322,315,2
313,310,321,313,2
312,324,319,312,2
311,330,320,310,2
311,327,327,309,2
311,318,336,308,2
310,310,346,308,2
309,308,350,307,2
310,307,348,307,2
313,304,339,306,2
316,304,327,304,2
319,307,311,302,2
321,313,297,301,2
318,322,286,299,2
309,328,281,297,2
301,326,279,294,2
298,321,278,293,2
300,319,280,293,2
306,315,284,296,2
314,312,288,300,2
321,308,291,303,2
318,300,294,306,2
307,285,298,308,2
296,271,303,311,2
292,267,307,313,2
294,273,307,313,2
299,283,306,313,2
301,292,302,310,2
301,297,297,307,2
300,297,291,304,2
299,291,287,302,2
301,280,287,302,2
305,272,289,305,2
311,270,292,307,2
316,273,294,311,2
317,280,295,313,2
316,288,295,315,2
313,297,295,317,2
311,303,295,317,2
311,305,296,316,2
312,305,295,313,2
313,306,295,308,2
314,310,295,303,2
313,315,297,300,2
312,321,300,298,2
312,326,305,299,2
311,327,307,301,2
310,326,307,302,2
309,324,304,302,2
307,322,301,302,2
306,320,302,303,2
308,318,305,303,2
308,314,306,300,2
307,313,305,297,2
305,319,304,295,2
301,322,303,293,2
296,315,302,292,2
291,298,304,291,2
289,281,307,293,2
293,272,311,296,2
299,269,313,301,2
306,271,314,305,2
310,275,313,309,2
313,283,315,313,2
315,292,320,315,2
316,298,326,314,2
315,300,332,313,2
313,302,334,313,2
311,305,332,312,2
309,308,327,312,2
310,309,319,310,2
312,307,310,308,2
316,304,303,307,2
319,300,298,307,2
318,293,296,307,2
311,289,296,309,2
300,293,293,312,2
291,301,290,314,2
286,307,287,314,2
284,306,286,313,2
284,298,287,310,2
