302,282,315,300,2
301,280,313,295,2
302,276,311,291,2
303,271,309,287,2
305,265,309,286,2
307,260,310,288,2
309,262,312,294,2
310,268,315,301,2
311,277,320,307,2
312,285,324,312,2
313,290,328,316,2
313,295,329,317,2
313,302,327,318,2
313,311,324,319,2
311,318,321,321,2
309,323,320,322,2
309,325,318,323,2
311,325,315,321,2
312,324,313,318,2
311,321,312,314,2
307,317,311,310,2
303,312,310,307,2
299,307,308,305,2
297,303,307,305,2
297,301,307,306,2
297,299,307,307,2
297,295,309,307,2
297,292,312,308,2
298,291,315,307,2
303,292,321,306,2
307,299,327,305,2
310,313,331,304,2
312,333,335,307,2
313,350,337,308,2
313,355,332,309,2
312,348,322,308,2
310,336,311,307,2
308,325,303,306,2
306,315,298,305,2
305,308,297,304,2
303,305,299,303,2
303,303,303,302,2
304,299,309,300,2
306,294,314,297,2
307,289,318,293,2
308,282,319,289,2
308,275,318,285,2
307,267,313,282,2
307,262,305,280,2
307,258,299,281,2
307,259,296,283,2
306,269,295,288,2
305,288,295,293,2
303,310,296,298,2
301,328,297,302,2
301,340,298,303,2
301,345,299,304,2
301,344,301,304,2
301,338,301,304,2
302,330,301,304,2
303,322,300,304,2
303,317,300,303,2
303,313,300,302,2
304,309,301,303,2
304,305,302,303,2
305,299,302,304,2
305,293,302,306,2
306,289,304,309,2
305,287,305,312,2
304,287,306,313,2
302,288,307,314,2
300,292,307,314,2
299,298,307,315,2
299,305,307,315,2
299,312,308,316,2
300,318,308,317,2
301,324,309,318,2
302,329,310,319,2
302,331,311,317,2
301,329,308,313,2
301,324,304,306,2
301,318,301,301,2
301,314,300,297,2
302,310,300,295,2
302,309,300,295,2
303,313,301,297,2
303,321,300,300,2
304,325,300,301,2
303,322,301,302,2
302,315,301,302,2
301,305,301,302,2
300,296,302,301,2
300,291,303,301,2
300,290,303,302,2
301,292,304,303,2
301,295,305,304,2
301,297,306,304,2
301,299,308,304,2
302,298,309,303,2
303,295,309,300,2
304,287,308,297,2
305,277,307,296,2
306,265,308,296,2
307,256,310,300,2
309,253,313,308,2
310,260,315,315,2
311,277,318,322,2
309,298,318,327,2
306,313,313,330,2
302,323,308,332,2
299,329,304,332,2
299,333,303,330,2
300,334,303,328,2
302,334,301,325,2
303,333,300,322,2
303,333,299,319,2
303,333,300,314,2
303,333,300,310,2
303,332,301,306,2
303,327,302,304,2
302,319,301,301,2
299,308,299,299,2
297,296,296,299,2
298,285,293,301,2
304,280,292,304,2
311,282,294,308,2
318,289,297,311,2
323,296,300,310,2
321,300,303,306,2
313,303,305,301,2
301,304,308,296,2
292,304,312,292,2
288,304,315,288,2
287,304,314,287,2
288,308,309,286,2
291,316,301,288,2
293,325,295,290,2
296,332,292,293,2
298,334,291,295,2
298,327,292,296,2
297,310,292,295,2
295,289,293,295,2
296,275,295,296,2
297,269,298,298,2
300,267,302,300,2
303,267,308,302,2
305,267,313,303,2
305,268,314,301,2
304,270,315,301,2
304,273,315,300,2
302,274,313,299,2
301,274,311,299,2
301,275,308,299,2
300,277,306,299,2
298,281,305,300,2
297,293,302,302,2
296,310,299,303,2
294,324,298,305,2
294,332,298,306,2
294,333,299,306,2
295,331,299,303,2
297,327,298,299,2
299,324,298,296,2
301,322,300,294,2
303,322,303,294,2
303,324,308,297,2
303,327,311,301,2
303,330,311,305,2
304,333,308,309,2
307,334,304,312,2
310,332,298,313,2
309,325,294,313,2
305,317,293,310,2
300,310,294,307,2
297,305,296,303,2
298,299,298,301,2
298,292,298,297,2
298,287,298,294,2
297,285,298,292,2
296,288,297,292,2
295,297,297,293,2
298,306,296,295,2
302,314,296,298,2
305,316,296,299,2
307,309,296,299,2
308,298,295,299,2
309,285,296,298,2
309,275,298,300,2
310,270,300,302,2
310,268,301,304,2
309,271,301,306,2
308,282,300,310,2
307,296,298,315,2
306,309,298,319,2
303,319,298,321,2
302,326,300,323,2
300,326,302,324,2
299,323,302,328,2
298,318,302,332,2
297,313,302,334,2
297,307,303,335,2
298,300,305,332,2
301,299,305,329,2
303,302,307,324,2
305,304,310,319,2
306,302,315,314,2
307,295,318,307,2
308,288,321,301,2
310,284,323,295,2
312,286,326,290,2
313,292,324,285,2
312,301,316,279,2
311,310,304,275,2
310,318,294,274,2
309,323,288,274,2
309,322,285,278,2
310,316,286,283,2
312,310,287,288,2
316,303,288,293,2
318,296,289,297,2
315,288,290,299,2
308,281,291,300,2
302,277,292,300,2
299,277,293,301,2
300,278,294,303,2
301,281,295,305,2
303,286,297,310,2
304,289,300,315,2
305,292,303,320,2
307,293,305,324,2
308,292,308,326,2
309,291,309,326,2
309,289,309,324,2
309,286,307,322,2
310,286,305,319,2
311,288,304,316,2
312,293,304,310,2
311,298,303,305,2
310,302,302,301,2
306,307,300,300,2
304,311,299,300,2
304,311,298,300,2
306,308,297,301,2
307,302,295,302,2
308,298,293,302,2
310,294,292,303,2
313,291,293,304,2
317,287,296,306,2
320,286,300,308,2
321,290,303,308,2
320,300,305,307,2
317,311,307,306,2
315,320,307,305,2
311,326,305,304,2
306,328,304,303,2
302,327,303,300,2
299,323,302,297,2
299,316,301,295,2
300,307,301,294,2
302,298,302,296,2
304,287,303,299,2
306,277,305,302,2
307,270,306,307,2
306,270,308,310,2
306,274,307,312,2
305,282,303,312,2
305,292,300,313,2
307,305,298,313,2
307,316,298,312,2
307,322,299,313,2
306,321,300,316,2
307,313,302,319,2
310,302,305,320,2
312,291,306,319,2
312,284,305,316,2
312,283,303,312,2
310,287,301,308,2
308,291,299,306,2
305,296,298,305,2
304,302,298,308,2
304,307,297,312,2
305,312,297,315,2
305,313,298,318,2
306,313,300,319,2
306,311,302,318,2
308,309,305,313,2
311,308,307,309,2
313,307,311,305,2
314,306,314,302,2
314,304,315,302,2
314,301,313,305,2
313,297,306,308,2
311,297,298,309,2
308,299,292,309,2
306,304,289,308,2
304,312,287,306,2
303,320,287,304,2
302,327,290,303,2
302,329,295,301,2
303,325,300,299,2
304,314,302,296,2
306,296,302,293,2
308,281,301,292,2
310,279,300,291,2
310,286,301,293,2
309,296,304,296,2
309,305,307,299,2
311,312,308,302,2
313,314,308,304,2
315,312,307,305,2
317,310,305,304,2
319,306,304,302,2
321,303,304,301,2
321,302,306,300,2
317,305,307,298,2
311,307,308,296,2
306,307,309,293,2
304,308,308,292,2
304,314,306,291,2
305,323,303,291,2
307,332,300,290,2
307,336,299,290,2
308,330,300,291,2
309,315,302,293,2
312,295,304,296,2
314,276,307,299,2
318,266,310,303,2
321,267,311,309,2
321,273,309,314,2
320,279,306,318,2
321,284,302,321,2
318,287,301,323,2
311,288,301,325,2
303,289,302,326,2
298,291,302,326,2
297,297,303,325,2
297,303,304,324,2
299,307,304,323,2
301,311,305,321,2
303,313,305,317,2
303,314,305,312,2
304,314,305,305,2
304,313,304,301,2
305,312,304,298,2
306,310,304,297,2
307,306,304,297,2
308,302,305,298,2
310,300,306,302,2
313,298,308,305,2
315,296,309,308,2
317,293,309,311,2
317,293,309,314,2
317,297,310,318,2
316,303,311,322,2
317,311,312,325,2
315,317,312,326,2
312,317,310,323,2
309,313,309,320,2
307,307,308,315,2
306,301,308,310,2
309,297,309,305,2
313,292,310,302,2
318,288,310,301,2
320,285,310,301,2
319,286,310,302,2
318,289,310,303,2
316,294,311,306,2
315,302,312,310,2
314,313,312,313,2
313,324,311,313,2
313,335,310,312,2
313,343,308,311,2
313,347,306,308,2
312,346,305,305,2
312,340,304,302,2
313,331,304,299,2
315,320,303,296,2
318,313,304,293,2
320,310,305,291,2
318,309,308,290,2
314,308,312,289,2
310,305,315,289,2
307,300,317,290,2
305,292,319,292,2
304,283,322,294,2
303,273,323,297,2
303,266,318,299,2
305,265,312,302,2
307,272,306,305,2
309,283,303,308,2
310,294,300,311,2
309,302,300,313,2
309,307,300,315,2
308,311,300,316,2
308,315,302,317,2
308,318,303,317,2
308,321,304,315,2
310,321,304,310,2
311,317,303,306,2
313,310,301,302,2
313,304,299,299,2
311,300,298,298,2
306,299,298,297,2
303,299,298,299,2
301,298,299,302,2
301,296,301,306,2
302,293,302,310,2
303,289,303,313,2
305,286,304,314,2
306,288,305,316,2
307,295,305,318,2
307,307,305,319,2
307,319,304,318,2
306,329,303,317,2
305,336,303,315,2
305,338,304,313,2
304,337,304,310,2
304,336,304,307,2
304,338,303,304,2
305,344,302,301,2
305,350,301,297,2
306,357,301,294,2
307,360,300,292,2
308,355,301,291,2
309,340,301,289,2
310,313,301,288,2
311,283,301,286,2
311,257,301,285,2
312,239,302,287,2
313,229,304,290,2
314,228,305,295,2
314,236,307,299,2
312,250,308,303,2
309,269,308,306,2
305,286,310,308,2
304,298,311,309,2
304,303,311,307,2
306,303,310,306,2
309,302,309,305,2
311,301,309,303,2
311,302,307,303,2
309,303,307,305,2
308,304,307,309,2
308,304,306,313,2
311,305,306,316,2
315,306,307,318,2
318,307,308,320,2
314,309,310,321,2
307,312,311,321,2
301,313,310,320,2
298,314,310,319,2
297,315,311,319,2
298,317,311,316,2
298,318,309,312,2
299,318,308,305,2
300,316,306,299,2
302,310,305,294,2
304,302,303,290,2
304,296,301,287,2
303,294,300,286,2
304,296,299,287,2
310,301,299,289,2
318,306,299,292,2
323,308,299,294,2
323,303,299,295,2
318,293,300,295,2
311,281,302,298,2
306,274,305,302,2
303,274,309,307,2
300,283,315,313,2
298,294,320,318,2
298,303,325,320,2
296,307,324,320,2
294,306,318,319,2
293,303,310,318,2
292,301,305,317,2
293,300,302,315,2
294,300,301,312,2
297,301,300,308,2
300,300,299,303,2
303,299,297,298,2
305,298,296,294,2
307,296,295,293,2
309,294,294,293,2
311,294,295,296,2
311,294,296,300,2
312,296,298,305,2
312,298,302,311,2
311,301,305,317,2
310,304,307,322,2
309,308,308,325,2
307,313,308,325,2
305,318,307,323,2
305,323,305,320,2
307,328,304,316,2
308,331,304,309,2
310,332,303,303,2
311,329,303,296,2
311,323,304,291,2
310,316,304,288,2
309,305,304,286,2
309,294,304,287,2
311,286,304,289,2
315,281,304,291,2
316,279,301,292,2
314,276,300,295,2
310,272,302,299,2
305,270,303,303,2
300,273,304,307,2
297,281,304,310,2
293,292,303,310,2
292,303,301,309,2
296,310,300,306,2
300,311,300,306,2
303,310,301,307,2
304,307,305,309,2
303,304,311,310,2
303,302,314,311,2
302,301,313,311,2
301,300,309,310,2
301,298,305,310,2
302,297,302,311,2
304,296,301,313,2
305,295,300,316,2
307,295,300,318,2
309,296,301,317,2
310,296,301,313,2
310,297,302,307,2
309,299,303,302,2
308,300,303,296,2
308,302,304,292,2
308,304,305,288,2
308,306,305,287,2
311,308,306,288,2
312,312,307,291,2
312,318,308,296,2
311,328,307,299,2
308,341,306,303,2
306,356,303,305,2
306,370,302,306,2
306,378,302,304,2
305,375,302,300,2
305,363,302,294,2
306,338,300,286,2
306,303,299,280,2
307,267,300,276,2
308,240,302,276,2
311,225,304,280,2
316,224,304,284,2
321,233,305,288,2
327,246,307,291,2
328,258,312,293,2
320,265,315,294,2
308,270,319,297,2
301,272,322,301,2
297,275,324,308,2
296,279,322,315,2
295,285,317,320,2
296,292,311,324,2
298,298,306,325,2
299,302,302,324,2
301,305,300,322,2
303,306,299,320,2
305,307,299,318,2
307,307,300,318,2
309,307,301,319,2
310,308,302,322,2
311,310,303,326,2
313,312,305,330,2
314,315,306,331,2
316,319,306,331,2
318,322,307,329,2
319,325,307,326,2
318,328,307,321,2
314,328,306,315,2
311,327,305,308,2
309,325,304,303,2
308,323,303,300,2
307,322,302,298,2
307,321,302,297,2
307,321,302,295,2
307,324,302,293,2
308,327,301,293,2
309,330,301,294,2
310,328,301,295,2
311,325,303,295,2
312,321,306,295,2
312,311,310,295,2
313,293,315,295,2
315,274,319,296,2
318,261,320,297,2
318,259,315,299,2
316,267,309,301,2
312,280,303,305,2
308,293,301,308,2
306,302,301,310,2
304,307,301,311,2
303,308,301,310,2
303,307,301,308,2
303,307,302,306,2
304,306,302,305,2
305,306,302,305,2
307,307,303,306,2
307,307,304,308,2
307,308,305,309,2
307,310,307,311,2
310,313,311,312,2
313,317,313,313,2
313,321,315,317,2
312,325,316,321,2
310,328,316,325,2
309,331,315,327,2
309,332,312,326,2
309,331,308,324,2
309,329,305,320,2
309,326,303,317,2
309,321,301,313,2
309,317,300,310,2
309,313,300,307,2
310,312,300,304,2
311,312,300,301,2
312,313,301,299,2
314,314,302,299,2
316,313,303,299,2
319,312,303,300,2
320,309,304,301,2
317,305,306,303,2
313,298,308,306,2
310,291,309,308,2
308,285,309,308,2
305,282,309,306,2
304,283,309,304,2
304,286,308,303,2
304,288,308,303,2
305,291,308,303,2
306,295,308,303,2
308,297,309,302,2
310,296,309,299,2
313,293,308,298,2
314,291,306,298,2
312,290,305,299,2
307,292,305,301,2
302,298,304,305,2
299,307,305,309,2
297,316,307,313,2
298,321,308,316,2
299,321,309,319,2
300,318,310,320,2
301,314,311,320,2
302,312,311,321,2
302,309,310,320,2
301,309,309,317,2
301,310,308,311,2
301,311,308,304,2
301,311,309,298,2
300,311,309,294,2
300,309,308,290,2
299,308,307,288,2
299,307,305,286,2
300,307,304,286,2
300,309,303,284,2
302,315,303,285,2
304,325,303,287,2
306,336,303,289,2
307,349,304,293,2
307,361,307,296,2
307,368,308,298,2
308,365,309,300,2
310,353,311,301,2
315,335,314,303,2
321,312,315,304,2
326,290,315,304,2
325,276,312,303,2
319,271,309,303,2
312,269,307,302,2
307,266,307,300,2
304,259,306,297,2
302,253,305,292,2
300,248,305,289,2
299,243,304,287,2
298,239,306,288,2
299,239,308,290,2
301,248,310,296,2
302,263,311,305,2
304,282,311,315,2
304,298,310,323,2
305,310,310,328,2
306,315,311,329,2
307,316,312,329,2
307,316,311,325,2
307,315,309,320,2
306,315,308,314,2
306,317,306,309,2
305,319,304,306,2
305,319,303,303,2
304,319,303,300,2
302,319,303,298,2
302,321,304,296,2
302,324,305,296,2
303,328,307,297,2
305,333,308,298,2
308,336,310,299,2
310,338,310,302,2
307,336,309,307,2
303,330,307,315,2
301,322,307,323,2
300,314,307,329,2
301,306,307,331,2
302,301,308,330,2
303,297,308,327,2
303,292,309,323,2
303,287,310,319,2
301,284,310,315,2
299,285,311,312,2
297,291,311,309,2
298,297,311,306,2
301,301,310,302,2
302,304,310,299,2
299,307,309,296,2
297,309,308,295,2
294,310,307,294,2
292,310,305,295,2
292,310,304,296,2
293,310,303,296,2
294,310,303,297,2
296,309,304,297,2
296,309,305,296,2
296,309,306,294,2
296,308,307,293,2
296,306,309,293,2
296,306,311,294,2
296,306,311,295,2
296,306,310,295,2
296,304,308,293,2
297,302,306,291,2
298,300,305,290,2
299,299,304,290,2
300,299,306,292,2
300,301,307,295,2
300,307,308,298,2
300,314,306,300,2
299,317,304,302,2
301,315,301,303,2
302,312,300,306,2
304,309,300,307,2
304,305,301,308,2
305,302,303,310,2
304,301,305,312,2
303,302,306,314,2
303,304,309,315,2
303,310,310,316,2
305,316,311,317,2
306,320,313,317,2
306,324,313,316,2
305,325,313,313,2
304,325,312,309,2
304,323,311,304,2
304,321,311,299,2
304,319,311,295,2
303,315,311,292,2
303,312,313,290,2
304,312,312,289,2
305,317,310,290,2
305,322,308,293,2
305,329,306,298,2
305,334,305,303,2
304,336,304,308,2
303,335,306,312,2
302,330,310,317,2
301,322,314,320,2
300,313,316,322,2
299,303,317,322,2
299,294,317,320,2
300,286,316,317,2
301,282,315,315,2
304,280,314,314,2
307,278,313,313,2
310,278,312,313,2
312,277,310,313,2
313,277,309,313,2
311,280,307,313,2
307,287,306,313,2
304,294,306,312,2
302,301,307,311,2
303,306,308,310,2
304,308,310,309,2
306,306,312,311,2
307,302,313,315,2
309,299,316,323,2
308,299,317,331,2
305,302,318,337,2
301,308,318,340,2
298,314,317,340,2
296,319,316,338,2
296,321,315,333,2
297,319,314,326,2
299,312,313,320,2
302,303,312,315,2
303,297,311,311,2
303,296,310,308,2
302,298,310,302,2
301,299,308,294,2
302,298,307,287,2
303,294,306,282,2
305,286,305,280,2
306,279,304,280,2
306,276,304,284,2
306,280,304,290,2
306,287,305,296,2
305,294,306,300,2
303,299,307,303,2
302,303,308,305,2
302,308,310,307,2
302,312,312,309,2
302,315,314,311,2
303,318,315,311,2
304,321,316,311,2
304,325,316,311,2
305,329,314,309,2
305,332,310,305,2
306,332,306,301,2
305,330,303,298,2
305,326,302,296,2
306,319,302,296,2
306,312,304,298,2
305,305,306,300,2
304,302,308,303,2
303,305,309,305,2
304,312,307,307,2
305,321,306,309,2
307,327,304,310,2
308,330,303,311,2
309,329,304,310,2
309,327,305,308,2
308,324,305,305,2
308,321,304,303,2
310,319,304,302,2
313,318,304,303,2
319,315,306,306,2
323,306,307,307,2
319,291,307,308,2
309,276,305,309,2
299,266,304,309,2
295,264,303,310,2
295,264,304,311,2
297,267,305,314,2
299,271,307,319,2
300,278,308,324,2
300,287,309,328,2
300,296,311,331,2
301,304,313,333,2
303,310,316,334,2
306,315,321,335,2
310,320,326,337,2
314,325,330,339,2
315,330,332,339,2
312,331,331,337,2
307,326,326,335,2
302,318,318,333,2
300,307,309,329,2
300,296,302,324,2
302,287,298,319,2
304,287,295,313,2
307,294,294,308,2
310,302,294,300,2
311,306,295,293,2
309,304,297,287,2
306,298,299,284,2
302,292,300,284,2
300,287,301,286,2
299,285,302,289,2
301,288,304,292,2
303,294,305,295,2
304,303,306,296,2
304,310,306,296,2
303,314,306,296,2
303,314,306,295,2
302,311,306,296,2
302,306,306,297,2
302,300,307,298,2
302,295,308,298,2
301,297,309,298,2
301,305,309,298,2
301,313,309,299,2
302,318,310,302,2
303,320,311,304,2
305,322,311,307,2
308,325,311,309,2
310,328,310,310,2
311,329,308,308,2
310,327,306,305,2
309,321,304,302,2
310,313,303,300,2
310,304,303,299,2
310,291,303,299,2
308,277,302,301,2
305,269,303,303,2
305,266,303,307,2
310,270,303,312,2
316,277,302,317,2
320,286,302,319,2
320,296,303,319,2
317,306,303,318,2
314,316,303,316,2
312,323,303,313,2
311,326,304,309,2
311,322,305,304,2
311,313,306,300,2
313,302,306,299,2
315,288,307,299,2
318,276,307,302,2
321,267,307,305,2
322,264,307,310,2
321,268,308,314,2
318,278,308,315,2
315,288,308,315,2
311,297,308,312,2
309,304,308,309,2
308,307,309,307,2
308,308,310,304,2
308,309,310,301,2
310,311,310,298,2
311,312,309,297,2
315,311,308,297,2
320,309,307,299,2
327,309,306,303,2
330,311,306,308,2
328,316,307,314,2
319,320,306,320,2
309,324,306,323,2
301,326,306,324,2
295,325,308,323,2
291,325,308,321,2
290,325,305,318,2
290,324,301,315,2
291,318,297,311,2
293,310,295,305,2
294,303,295,300,2
296,295,295,296,2
297,286,296,294,2
298,278,296,292,2
300,274,296,291,2
302,273,297,291,2
304,277,298,291,2
304,284,298,291,2
305,290,298,290,2
307,294,298,290,2
309,293,298,291,2
310,287,300,292,2
310,275,302,293,2
312,262,304,294,2
313,255,305,296,2
313,262,306,299,2
312,277,307,302,2
311,292,307,303,2
310,300,306,303,2
309,303,306,301,2
309,304,306,299,2
309,306,307,298,2
309,306,307,298,2
306,307,306,301,2
303,309,305,307,2
302,313,304,315,2
304,318,304,324,2
307,322,302,331,2
308,326,300,336,2
309,328,298,339,2
308,329,296,340,2
309,329,296,339,2
310,331,299,337,2
312,333,305,332,2
314,335,310,326,2
315,336,313,320,2
314,337,311,312,2
311,336,308,304,2
308,333,305,296,2
306,327,304,291,2
305,317,304,288,2
304,308,304,287,2
303,305,303,286,2
302,310,303,287,2
300,322,303,289,2
299,337,304,292,2
303,350,306,295,2
308,356,306,297,2
313,352,306,299,2
314,340,306,300,2
311,322,306,300,2
309,297,304,301,2
308,272,304,301,2
309,250,303,301,2
310,237,303,301,2
308,234,303,303,2
307,239,304,305,2
304,252,304,306,2
303,265,304,305,2
302,277,303,303,2
302,285,302,302,2
302,288,302,301,2
303,288,302,302,2
303,284,304,304,2
304,278,305,307,2
304,272,306,310,2
305,272,307,313,2
306,274,308,315,2
307,279,309,318,2
308,288,310,319,2
308,299,311,320,2
308,309,312,318,2
306,318,312,317,2
304,325,312,315,2
304,330,313,314,2
305,334,313,313,2
307,335,311,311,2
308,334,307,309,2
308,334,303,308,2
309,333,302,308,2
309,332,303,309,2
310,331,303,311,2
310,329,301,311,2
310,327,299,312,2
310,325,297,311,2
311,323,295,310,2
315,319,295,308,2
319,312,295,306,2
324,304,296,303,2
327,296,296,301,2
324,290,296,298,2
316,284,296,295,2
310,279,296,293,2
306,275,296,290,2
303,275,298,288,2
301,276,300,286,2
300,276,302,287,2
302,279,302,290,2
304,287,302,296,2
306,300,302,301,2
306,312,301,307,2
307,320,301,311,2
307,322,299,313,2
305,322,298,312,2
302,322,298,311,2
301,323,298,311,2
301,325,301,310,2
301,326,303,310,2
302,329,304,309,2
302,331,304,308,2
303,334,304,307,2
303,336,304,305,2
303,337,303,302,2
304,337,303,298,2
304,335,302,293,2
304,331,302,289,2
303,329,302,288,2
302,329,303,290,2
299,329,304,293,2
297,330,303,299,2
295,330,302,306,2
296,330,300,312,2
298,328,298,316,2
301,323,297,318,2
306,315,296,317,2
312,305,296,313,2
317,295,298,309,2
321,286,299,305,2
322,280,301,300,2
320,275,303,296,2
316,270,304,293,2
314,267,304,291,2
314,268,304,289,2
313,269,304,289,2
311,272,305,291,2
307,279,306,293,2
303,288,305,294,2
301,297,304,294,2
301,307,302,294,2
300,315,301,294,2
301,322,300,294,2
301,329,299,295,2
301,332,301,296,2
302,329,303,297,2
303,323,307,297,2
304,313,313,297,2
305,301,317,295,2
304,289,315,294,2
305,278,311,293,2
305,266,307,292,2
305,256,305,291,2
304,252,305,293,2
303,256,306,298,2
304,264,309,306,2
308,275,313,317,2
311,287,316,329,2
310,297,318,339,2
307,305,319,346,2
304,312,320,349,2
302,318,321,352,2
301,323,323,352,2
301,329,321,349,2
301,335,315,342,2
302,338,306,332,2
303,338,298,321,2
305,336,294,310,2
307,335,292,300,2
308,336,293,291,2
309,337,295,285,2
309,337,298,281,2
309,333,301,279,2
308,325,303,278,2
308,315,304,280,2
307,307,304,282,2
306,301,304,285,2
305,297,303,287,2
304,294,303,288,2
302,291,303,288,2
300,289,302,288,2
298,287,302,287,2
296,285,301,287,2
295,283,300,286,2
296,283,300,286,2
297,282,300,285,2
299,280,301,284,2
302,277,302,285,2
305,274,303,287,2
308,271,304,290,2
309,273,305,295,2
310,280,307,300,2
309,290,308,304,2
309,299,308,306,2
309,304,307,307,2
309,307,307,307,2
311,306,308,307,2
314,304,308,308,2
315,303,310,312,2
315,303,310,314,2
316,306,309,314,2
319,309,307,313,2
321,312,304,310,2
316,314,302,307,2
306,316,299,303,2
297,315,298,298,2
291,311,298,292,2
289,303,298,288,2
289,297,297,287,2
291,292,297,289,2
295,289,299,293,2
298,290,301,300,2
301,297,304,309,2
302,306,308,319,2
301,314,310,327,2
300,318,311,332,2
299,318,311,337,2
299,318,311,339,2
299,318,311,341,2
299,317,311,338,2
300,317,309,333,2
300,316,307,325,2
301,317,305,318,2
302,319,302,312,2
303,321,300,308,2
303,322,299,307,2
303,322,299,306,2
302,322,300,306,2
302,320,301,305,2
303,313,302,306,2
304,302,304,307,2
304,291,307,310,2
304,285,309,313,2
305,285,309,317,2
305,291,308,319,2
305,299,307,319,2
305,306,307,318,2
304,310,309,317,2
304,310,312,315,2
305,306,315,312,2
306,298,316,308,2
306,288,315,303,2
305,276,310,299,2
304,267,306,296,2
304,267,304,293,2
308,273,303,293,2
311,282,303,295,2
312,290,302,297,2
313,297,301,300,2
314,302,300,303,2
314,306,299,306,2
314,308,299,308,2
313,310,299,309,2
312,311,300,309,2
310,314,301,308,2
309,316,302,306,2
307,317,303,304,2
305,316,304,302,2
304,314,304,300,2
303,313,303,301,2
303,315,302,302,2
304,317,301,304,2
306,319,302,305,2
308,320,303,306,2
311,320,302,307,2
314,321,300,307,2
316,320,298,308,2
318,317,298,309,2
321,313,300,311,2
322,308,302,311,2
320,306,305,310,2
315,307,305,309,2
309,307,303,308,2
306,309,303,308,2
304,313,303,310,2
303,316,303,310,2
302,319,303,310,2
302,322,302,311,2
302,322,301,313,2
302,319,301,315,2
303,314,300,317,2
305,308,299,319,2
308,301,300,320,2
308,295,301,319,2
306,291,301,316,2
302,288,302,311,2
298,286,303,306,2
298,287,303,301,2
298,288,303,297,2
299,290,302,294,2
300,292,302,294,2
302,295,302,295,2
304,295,302,296,2
306,294,302,297,2
308,296,301,296,2
309,299,300,297,2
312,304,298,297,2
315,310,297,298,2
318,313,296,298,2
315,312,296,299,2
306,311,297,300,2
298,310,298,300,2
294,308,299,300,2
292,306,301,301,2
292,303,303,302,2
294,301,305,302,2
297,299,307,304,2
301,296,309,306,2
303,291,312,309,2
306,283,313,312,2
308,278,313,314,2
308,274,312,316,2
308,273,312,318,2
306,276,313,319,2
304,282,315,319,2
302,292,314,318,2
299,303,314,316,2
296,312,315,314,2
296,320,316,311,2
298,325,317,308,2
302,332,319,306,2
306,339,317,304,2
309,346,312,301,2
309,354,305,298,2
306,359,298,296,2
305,358,293,294,2
304,350,291,293,2
305,335,291,294,2
308,318,293,296,2
312,302,296,299,2
314,293,301,303,2
314,294,306,309,2
311,302,311,314,2
310,314,314,321,2
310,325,316,326,2
311,331,317,330,2
311,332,314,331,2
311,331,309,331,2
312,327,305,329,2
309,325,302,326,2
305,324,299,321,2
299,324,297,315,2
295,316,294,306,2
294,304,291,298,2
295,290,289,292,2
297,279,291,289,2
299,270,296,290,2
300,265,305,291,2
300,264,315,294,2
301,264,322,296,2
302,263,323,300,2
302,263,318,304,2
302,265,312,310,2
303,267,307,313,2
303,271,304,315,2
302,276,302,316,2
302,281,302,316,2
301,284,302,315,2
301,285,302,314,2
300,285,303,314,2
299,287,304,314,2
298,293,305,314,2
297,303,305,315,2
297,316,304,317,2
297,331,303,317,2
297,344,303,316,2
296,353,302,313,2
297,357,303,309,2
299,355,303,306,2
303,345,303,304,2
306,329,305,305,2
307,316,305,307,2
306,311,304,310,2
305,311,303,313,2
307,311,303,317,2
311,311,304,320,2
313,312,305,322,2
310,313,307,323,2
305,311,309,322,2
301,306,311,318,2
299,300,312,311,2
299,294,311,305,2
300,288,309,301,2
302,284,306,299,2
304,281,304,298,2
305,279,302,298,2
304,281,301,298,2
303,285,301,298,2
302,289,302,298,2
300,291,304,297,2
300,292,308,298,2
301,293,312,298,2
301,294,315,297,2
301,294,315,295,2
301,295,313,292,2
300,296,310,290,2
301,298,307,290,2
302,303,307,292,2
303,310,308,296,2
304,319,310,301,2
304,330,312,304,2
307,342,314,307,2
313,353,315,308,2
318,360,315,308,2
321,362,317,310,2
322,357,321,311,2
321,346,325,313,2
316,332,325,315,2
311,319,321,316,2
307,309,315,316,2
304,303,309,316,2
304,297,306,317,2
304,291,305,318,2
304,287,304,317,2
303,283,303,314,2
302,279,302,311,2
302,275,302,308,2
301,273,301,305,2
299,274,296,304,2
297,278,290,302,2
296,285,284,301,2
298,294,283,299,2
303,304,285,296,2
306,314,288,294,2
309,321,290,291,2
310,325,290,288,2
311,321,290,285,2
311,311,292,282,2
311,303,295,280,2
310,300,300,281,2
310,304,304,287,2
309,311,308,298,2
308,319,309,314,2
305,326,309,329,2
303,332,308,341,2
302,331,306,346,2
302,323,305,345,2
303,309,303,340,2
303,300,303,332,2
303,297,302,322,2
302,300,303,312,2
302,304,303,304,2
302,308,303,298,2
303,310,303,294,2
308,307,304,291,2
312,302,306,289,2
313,296,308,289,2
311,290,307,290,2
308,284,307,292,2
306,282,306,293,2
306,283,304,294,2
306,289,301,295,2
306,295,298,295,2
305,301,296,294,2
304,304,296,293,2
303,304,297,292,2
303,301,299,290,2
303,295,300,288,2
304,289,300,290,2
305,285,298,292,2
306,285,298,294,2
306,289,298,296,2
305,301,298,298,2
303,318,299,300,2
303,336,299,301,2
303,350,299,301,2
305,359,300,300,2
306,359,299,299,2
307,347,299,298,2
308,327,301,299,2
310,304,304,302,2
311,288,308,307,2
312,282,313,315,2
311,282,317,324,2
310,287,320,332,2
308,294,322,336,2
306,301,323,337,2
306,304,323,334,2
306,303,321,329,2
305,301,317,323,2
304,301,314,318,2
304,301,312,313,2
305,302,311,310,2
306,304,311,308,2
307,309,310,307,2
308,316,308,306,2
307,322,306,305,2
307,323,304,304,2
307,318,302,304,2
308,305,301,303,2
308,290,303,303,2
308,276,305,302,2
308,264,307,302,2
309,251,310,304,2
310,238,311,306,2
312,229,312,308,2
314,231,313,310,2
314,244,314,311,2
310,262,317,314,2
304,280,322,316,2
298,295,326,319,2
293,308,330,320,2
293,317,328,322,2
298,323,322,322,2
305,327,313,322,2
310,328,305,321,2
314,327,298,321,2
315,325,293,319,2
309,322,290,318,2
302,318,291,317,2
298,313,296,316,2
298,309,302,316,2
298,307,309,319,2
299,308,316,323,2
300,310,320,326,2
300,312,320,326,2
300,316,318,323,2
301,319,312,315,2
301,322,306,305,2
301,327,301,297,2
300,335,299,291,2
299,351,300,289,2
299,369,303,289,2
299,385,306,291,2
301,391,309,293,2
305,382,311,294,2
308,360,313,295,2
311,332,314,296,2
313,303,313,297,2
314,279,310,298,2
312,262,307,299,2
308,256,304,300,2
305,258,302,300,2
304,262,299,300,2
303,263,298,298,2
301,263,298,298,2
300,264,300,298,2
299,269,303,299,2
299,277,308,300,2
300,285,311,303,2
300,290,314,305,2
300,292,317,307,2
300,293,318,308,2
300,294,320,307,2
300,295,320,305,2
302,298,320,304,2
304,300,319,303,2
305,302,317,303,2
305,300,314,304,2
305,297,313,307,2
304,295,312,309,2
304,294,311,312,2
304,291,310,313,2
304,288,309,313,2
305,283,309,310,2
307,284,309,304,2
309,294,310,298,2
310,308,311,294,2
311,319,313,292,2
312,326,316,293,2
312,330,319,296,2
312,333,321,300,2
311,335,323,304,2
311,336,323,306,2
310,334,323,305,2
309,329,320,304,2
309,322,316,302,2
309,316,312,302,2
309,312,309,302,2
310,312,306,303,2
311,313,305,304,2
312,318,307,306,2
314,322,309,307,2
313,324,311,309,2
313,327,310,309,2
312,332,309,308,2
311,341,308,306,2
311,351,306,303,2
311,357,305,301,2
310,359,305,300,2
310,355,306,300,2
309,343,308,302,2
308,329,309,304,2
307,316,310,306,2
307,305,310,306,2
306,295,311,306,2
307,287,311,304,2
308,281,312,302,2
308,275,313,300,2
309,268,315,298,2
311,263,319,297,2
314,262,323,299,2
316,261,326,304,2
319,260,327,311,2
321,257,326,319,2
321,255,324,326,2
316,256,321,331,2
310,261,319,332,2
304,267,318,332,2
302,274,317,330,2
302,283,317,328,2
303,293,317,324,2
304,301,318,318,2
305,308,319,311,2
305,314,319,304,2
305,320,318,296,2
304,325,314,289,2
304,331,311,285,2
304,337,309,286,2
305,341,310,291,2
306,339,311,297,2
307,334,312,303,2
308,329,313,309,2
309,324,312,312,2
310,318,312,312,2
310,313,311,310,2
307,307,311,306,2
303,302,311,303,2
300,295,312,300,2
299,291,313,297,2
299,289,315,294,2
300,288,314,293,2
300,288,314,294,2
301,290,313,294,2
302,294,312,295,2
302,303,312,295,2
303,316,314,297,2
303,332,316,298,2
303,346,317,300,2
304,358,314,300,2
304,362,312,300,2
305,356,311,300,2
306,340,312,299,2
308,324,313,299,2
309,312,316,300,2
310,302,318,301,2
309,295,319,303,2
309,294,321,309,2
309,302,324,315,2
309,315,326,320,2
308,323,328,324,2
307,320,328,325,2
305,310,327,325,2
304,300,326,323,2
303,289,325,323,2
304,280,327,322,2
305,274,329,322,2
306,270,332,321,2
307,269,335,319,2
307,269,337,315,2
306,272,337,312,2
306,276,335,310,2
306,282,332,309,2
306,288,327,308,2
306,295,318,305,2
306,303,309,302,2
306,311,303,299,2
307,318,300,298,2
308,322,300,297,2
308,322,301,295,2
307,321,302,294,2
307,317,303,295,2
306,313,305,298,2
307,312,306,305,2
307,314,309,315,2
307,319,311,324,2
307,326,314,331,2
307,332,318,335,2
306,335,322,336,2
306,334,323,333,2
307,331,323,330,2
308,325,322,326,2
310,316,321,325,2
312,303,322,323,2
314,293,323,321,2
317,291,323,318,2
322,294,322,316,2
323,303,320,315,2
318,313,316,313,2
311,323,313,311,2
307,331,310,307,2
307,337,307,303,2
308,339,306,298,2
305,337,306,294,2
298,331,306,290,2
292,324,306,287,2
291,317,306,286,2
292,307,306,286,2
293,293,306,288,2
294,281,308,293,2
296,273,310,298,2
297,269,313,305,2
297,265,315,309,2
297,262,317,313,2
297,261,317,315,2
297,265,317,316,2
297,272,317,314,2
298,279,317,312,2
299,282,317,307,2
301,281,317,302,2
304,280,318,298,2
306,281,321,296,2
307,289,323,299,2
308,303,323,304,2
308,320,322,309,2
307,335,317,313,2
305,342,311,314,2
303,341,306,315,2
301,333,304,314,2
300,323,304,313,2
299,316,305,313,2
299,316,307,314,2
298,319,309,314,2
297,323,310,313,2
296,328,309,311,2
295,330,307,308,2
296,332,306,304,2
298,329,306,301,2
300,325,308,300,2
302,321,310,299,2
302,319,311,300,2
302,321,312,301,2
302,327,314,301,2
303,333,315,298,2
304,335,315,295,2
305,332,313,290,2
307,325,309,287,2
308,313,305,287,2
310,293,304,289,2
311,271,307,295,2
313,256,313,303,2
313,252,318,311,2
312,254,321,317,2
310,260,321,320,2
308,267,320,321,2
308,276,318,321,2
308,284,316,320,2
307,291,314,317,2
306,296,313,314,2
306,302,312,311,2
305,306,310,306,2
305,312,308,303,2
305,319,306,301,2
307,326,305,299,2
309,333,304,298,2
309,339,304,298,2
308,343,303,297,2
307,343,302,298,2
306,339,302,301,2
306,333,304,306,2
307,328,305,312,2
306,322,307,315,2
305,313,309,316,2
305,305,311,316,2
305,296,312,316,2
306,286,313,315,2
306,278,314,315,2
305,273,314,317,2
305,273,316,321,2
305,277,317,325,2
307,281,318,327,2
308,285,319,328,2
311,289,319,328,2
313,292,319,327,2
314,293,319,327,2
314,292,319,326,2
312,289,319,323,2
307,286,319,320,2
302,282,317,316,2
297,280,314,311,2
294,281,311,308,2
293,286,308,305,2
294,295,309,304,2
296,305,310,303,2
297,316,310,302,2
299,324,308,301,2
300,331,305,299,2
300,336,303,297,2
300,337,302,296,2
300,333,303,296,2
299,326,305,296,2
299,320,307,297,2
298,317,307,297,2
297,316,306,295,2
296,315,306,294,2
295,313,307,294,2
298,308,308,294,2
302,301,309,293,2
306,294,310,294,2
309,291,311,296,2
311,291,311,300,2
312,296,311,304,2
311,304,310,307,2
309,309,309,307,2
307,310,309,308,2
305,308,310,309,2
308,306,314,311,2
309,303,318,314,2
307,302,322,317,2
304,302,323,320,2
300,304,323,321,2
298,308,321,321,2
296,313,318,320,2
296,320,314,317,2
297,327,310,313,2
297,334,308,307,2
298,339,307,303,2
299,342,307,299,2
301,341,306,296,2
304,335,305,295,2
306,324,306,293,2
308,311,308,294,2
311,300,312,299,2
313,293,317,306,2
314,293,319,313,2
313,296,319,318,2
311,301,317,323,2
309,306,315,327,2
308,309,313,329,2
305,312,310,327,2
301,313,308,322,2
296,314,307,317,2
292,314,306,311,2
289,316,305,307,2
288,317,304,303,2
289,317,304,300,2
291,317,303,299,2
294,316,303,298,2
298,314,304,297,2
302,310,307,295,2
306,305,310,294,2
309,299,312,294,2
312,293,315,295,2
313,289,316,297,2
313,289,316,300,2
313,295,315,302,2
311,305,314,304,2
309,318,313,305,2
308,332,312,307,2
305,348,311,308,2
303,360,309,310,2
302,366,308,311,2
302,366,306,311,2
303,361,304,311,2
306,351,304,311,2
306,337,305,309,2
303,323,309,306,2
301,308,313,304,2
302,298,317,303,2
305,292,318,301,2
309,288,317,299,2
313,287,312,296,2
314,286,307,295,2
308,288,305,295,2
302,293,304,299,2
298,299,304,303,2
296,308,303,307,2
295,319,302,310,2
293,331,301,314,2
292,341,302,319,2
290,350,304,322,2
290,352,307,323,2
293,346,310,322,2
297,331,312,318,2
299,310,312,311,2
300,288,311,305,2
302,271,312,299,2
303,266,313,295,2
303,269,316,295,2
303,276,320,298,2
304,285,322,302,2
304,293,324,305,2
303,299,323,306,2
302,303,319,305,2
302,306,313,301,2
302,308,307,297,2
303,309,301,294,2
303,310,297,292,2
302,312,293,292,2
300,312,290,295,2
298,311,288,298,2
297,308,289,301,2
299,304,291,302,2
307,298,293,303,2
313,292,294,302,2
313,286,293,301,2
308,280,292,300,2
300,275,294,302,2
293,275,298,306,2
290,281,302,312,2
291,290,306,317,2
295,300,310,320,2
299,308,313,321,2
300,313,316,321,2
300,315,319,319,2
299,314,320,315,2
298,314,321,311,2
298,314,321,308,2
299,316,320,306,2
299,319,318,305,2
300,325,315,304,2
300,334,312,304,2
302,344,308,304,2
302,353,306,305,2
302,359,305,306,2
301,357,305,307,2
301,347,305,307,2
301,332,306,307,2
303,312,308,306,2
304,291,309,304,2
304,271,308,300,2
304,257,308,297,2
306,254,309,296,2
308,259,312,298,2
308,269,316,302,2
305,283,319,306,2
302,298,321,313,2
302,313,322,322,2
304,325,320,331,2
307,335,318,337,2
309,340,314,343,2
309,343,311,347,2
306,340,308,351,2
300,332,306,353,2
296,320,304,352,2
295,307,303,349,2
296,296,302,343,2
298,292,301,336,2
300,295,300,327,2
301,301,299,317,2
303,306,299,304,2
304,306,299,293,2
306,301,300,282,2
308,296,301,275,2
309,295,301,270,2
310,297,302,269,2
310,297,303,271,2
309,292,304,276,2
308,287,305,282,2
309,284,304,288,2
312,285,303,294,2
313,289,302,299,2
308,295,302,304,2
300,302,303,307,2
293,308,303,310,2
290,313,304,310,2
290,316,305,312,2
291,318,307,314,2
292,319,310,317,2
294,319,313,321,2
297,318,316,325,2
299,316,319,326,2
301,316,322,326,2
302,319,321,324,2
303,322,318,322,2
303,326,315,319,2
303,330,312,317,2
302,336,309,314,2
301,340,305,311,2
300,342,301,307,2
301,336,298,304,2
304,324,297,299,2
308,308,297,294,2
311,290,298,290,2
312,273,300,288,2
312,259,302,288,2
311,254,305,290,2
311,258,306,296,2
311,272,309,303,2
311,292,311,310,2
310,313,312,315,2
309,333,311,319,2
306,349,311,321,2
305,359,311,322,2
304,363,312,323,2
303,359,312,324,2
303,348,312,325,2
303,330,312,327,2
304,313,313,328,2
306,300,313,329,2
308,292,314,328,2
312,289,315,326,2
316,288,318,323,2
319,288,321,320,2
317,288,324,318,2
313,286,325,317,2
309,285,325,316,2
307,288,321,317,2
306,293,316,316,2
305,300,311,314,2
303,305,307,314,2
300,309,305,314,2
299,311,304,316,2
297,311,304,315,2
295,307,303,313,2
293,302,302,308,2
291,297,299,302,2
291,294,297,296,2
297,295,297,292,2
304,296,298,290,2
309,295,299,288,2
311,291,300,289,2
312,287,301,291,2
312,289,304,295,2
311,295,305,298,2
307,305,306,301,2
303,313,306,302,2
299,320,305,304,2
298,326,305,305,2
299,334,305,307,2
300,344,305,308,2
301,354,304,310,2
302,363,304,312,2
303,368,304,314,2
303,367,304,315,2
302,358,305,315,2
303,345,306,314,2
305,329,308,313,2
306,314,310,310,2
306,300,312,308,2
306,290,314,306,2
307,282,315,307,2
308,277,317,310,2
307,276,317,314,2
305,277,316,318,2
303,279,314,322,2
302,281,311,325,2
303,282,308,327,2
304,284,307,328,2
305,290,306,328,2
306,299,306,327,2
306,308,308,326,2
307,317,310,322,2
308,326,313,318,2
308,333,315,314,2
307,336,316,310,2
306,335,315,307,2
305,330,312,305,2
305,324,310,304,2
304,319,307,306,2
304,320,304,307,2
303,325,302,308,2
302,331,301,308,2
302,336,300,307,2
303,335,299,304,2
304,328,298,299,2
307,311,298,294,2
311,288,299,291,2
313,263,301,291,2
316,247,304,296,2
316,244,307,305,2
315,252,309,313,2
313,266,310,318,2
311,282,310,319,2
310,300,309,319,2
309,314,308,316,2
306,324,307,312,2
302,331,306,308,2
299,335,304,305,2
297,335,302,302,2
296,331,300,299,2
296,326,299,298,2
297,323,300,297,2
298,323,301,298,2
300,325,304,300,2
302,325,308,302,2
304,321,312,304,2
306,315,314,306,2
307,309,313,308,2
308,305,311,310,2
308,301,308,313,2
309,296,307,316,2
310,293,307,319,2
310,292,307,321,2
309,296,306,322,2
308,303,305,321,2
306,313,304,321,2
306,322,303,319,2
309,326,302,316,2
314,326,301,313,2
317,326,300,308,2
316,323,300,304,2
313,315,299,300,2
309,302,299,297,2
306,288,300,295,2
305,278,300,295,2
306,272,300,298,2
309,272,300,303,2
315,276,299,309,2
319,283,299,314,2
317,289,299,319,2
310,296,299,323,2
306,304,300,328,2
304,313,301,332,2
303,323,302,335,2
303,334,303,336,2
304,344,305,336,2
305,352,305,336,2
305,358,306,335,2
305,358,306,333,2
305,352,308,331,2
307,344,309,331,2
310,337,311,333,2
313,332,314,334,2
315,327,317,332,2
316,322,319,326,2
313,316,317,318,2
311,310,315,310,2
308,303,313,304,2
309,299,312,299,2
313,297,311,297,2
316,297,309,296,2
315,298,307,296,2
313,300,307,298,2
311,300,306,301,2
309,298,303,303,2
307,296,300,304,2
307,297,298,305,2
309,299,298,303,2
311,299,297,297,2
312,297,297,291,2
313,292,297,286,2
316,285,298,284,2
318,276,300,285,2
320,267,301,288,2
320,265,302,292,2
316,272,302,296,2
309,285,302,298,2
305,296,301,301,2
302,303,301,302,2
301,307,301,304,2
301,310,302,308,2
301,312,303,311,2
302,315,303,314,2
303,317,305,316,2
304,318,306,316,2
307,321,307,317,2
311,324,307,316,2
313,330,307,316,2
312,335,304,316,2
309,339,302,316,2
306,342,301,316,2
304,343,300,319,2
304,340,299,321,2
304,336,299,323,2
306,334,299,323,2
307,333,299,322,2
309,333,301,320,2
311,330,302,319,2
310,323,303,318,2
308,315,303,317,2
305,309,304,317,2
304,309,305,318,2
306,312,306,320,2
309,316,306,321,2
310,316,306,320,2
310,308,305,319,2
309,297,304,319,2
309,290,303,319,2
308,287,302,319,2
307,287,301,320,2
308,290,301,321,2
310,293,302,320,2
312,295,302,318,2
313,295,302,313,2
312,292,301,307,2
311,289,300,303,2
310,288,300,300,2
308,288,300,298,2
308,289,300,297,2
306,292,302,297,2
306,291,304,298,2
305,289,306,298,2
305,283,308,298,2
305,278,309,298,2
305,276,309,300,2
305,276,309,303,2
305,280,308,305,2
304,287,307,308,2
303,295,306,310,2
300,304,305,313,2
299,313,304,315,2
299,321,302,317,2
300,328,299,320,2
301,334,296,323,2
303,337,294,326,2
305,338,294,328,2
308,334,296,329,2
309,328,297,328,2
310,322,297,326,2
310,314,299,323,2
308,306,301,319,2
305,300,304,316,2
302,297,308,314,2
300,296,313,313,2
303,297,317,313,2
310,297,319,312,2
317,297,320,310,2
320,297,320,308,2
321,297,320,305,2
321,297,319,302,2
315,299,318,299,2
305,303,317,298,2
297,310,314,297,2
295,320,308,297,2
296,330,303,296,2
299,339,298,295,2
301,344,296,293,2
301,340,294,291,2
300,325,292,290,2
299,305,292,291,2
299,287,293,295,2
301,272,296,298,2
302,265,298,304,2
303,267,300,309,2
301,273,302,313,2
299,284,303,317,2
298,295,304,321,2
297,300,304,324,2
297,301,303,326,2
297,300,303,327,2
297,301,303,327,2
299,301,302,328,2
301,298,301,328,2
300,293,300,329,2
299,290,299,333,2
298,289,298,338,2
300,291,298,343,2
303,294,299,345,2
306,299,299,343,2
308,306,301,340,2
308,314,303,335,2
309,322,304,328,2
309,329,306,320,2
308,333,306,311,2
306,333,307,304,2
304,328,306,298,2
303,322,305,294,2
301,316,303,292,2
301,310,302,291,2
301,306,302,291,2
304,303,302,291,2
305,302,302,291,2
305,299,302,292,2
305,293,303,295,2
305,286,304,298,2
305,282,305,303,2
305,286,305,307,2
305,294,305,311,2
307,303,306,315,2
310,310,306,318,2
313,313,308,320,2
315,311,311,321,2
316,305,314,322,2
315,303,315,322,2
313,303,315,321,2
312,305,314,319,2
307,308,313,316,2
302,310,311,312,2
298,310,308,307,2
297,311,305,302,2
298,311,302,297,2
299,312,299,294,2
302,315,297,293,2
304,320,297,293,2
306,328,298,294,2
307,333,300,299,2
308,338,304,307,2
308,341,308,316,2
306,341,313,325,2
305,334,317,332,2
305,323,319,336,2
306,316,319,336,2
307,315,317,334,2
308,313,314,330,2
309,308,313,326,2
310,302,312,320,2
310,300,311,315,2
310,299,310,310,2
309,296,308,305,2
309,292,306,302,2
309,287,304,300,2
308,284,302,299,2
308,284,301,299,2
308,286,302,300,2
309,291,304,302,2
310,297,306,304,2
310,302,309,307,2
309,301,310,311,2
309,296,311,315,2
309,291,312,320,2
309,291,313,324,2
310,294,314,328,2
310,301,314,331,2
311,310,314,332,2
311,320,313,332,2
310,329,311,331,2
308,336,309,329,2
307,340,306,327,2
307,336,304,324,2
308,326,302,320,2
310,313,301,314,2
312,300,301,309,2
313,291,301,305,2
315,286,301,302,2
317,281,302,300,2
315,277,302,298,2
312,279,302,296,2
309,287,302,294,2
306,297,302,294,2
304,305,303,294,2
303,307,304,296,2
303,306,306,298,2
302,306,306,300,2
301,308,306,301,2
301,313,306,300,2
301,319,305,297,2
303,324,304,295,2
304,326,304,292,2
305,322,305,292,2
306,312,307,293,2
307,299,309,296,2
306,285,311,300,2
305,277,312,306,2
304,278,312,312,2
301,286,310,316,2
300,296,307,319,2
299,304,305,319,2
301,310,304,318,2
302,314,304,317,2
304,317,305,315,2
306,319,306,314,2
308,320,307,311,2
310,316,307,308,2
310,308,308,305,2
309,299,309,303,2
306,292,310,303,2
304,289,310,304,2
304,288,309,309,2
307,292,309,316,2
310,298,308,325,2
310,303,308,334,2
309,306,307,340,2
308,307,306,345,2
308,308,306,346,2
310,307,306,344,2
312,305,307,338,2
313,304,309,329,2
314,303,312,321,2
314,300,314,313,2
314,298,316,306,2
314,297,317,301,2
315,299,315,299,2
316,300,311,299,2
318,302,307,300,2
319,303,303,300,2
317,303,301,300,2
311,299,300,300,2
306,295,300,298,2
304,293,302,298,2
302,296,303,299,2
302,302,303,299,2
302,310,302,300,2
303,317,300,301,2
305,321,298,303,2
306,323,296,304,2
306,320,295,304,2
306,314,296,303,2
306,305,297,302,2
306,298,299,301,2
307,294,303,301,2
308,295,306,302,2
308,298,309,304,2
308,302,311,307,2
308,304,311,309,2
307,305,311,311,2
307,306,310,314,2
306,309,310,316,2
305,313,310,317,2
304,318,310,317,2
303,321,309,316,2
302,320,309,313,2
302,318,310,309,2
302,316,311,306,2
303,317,312,303,2
305,320,311,298,2
308,320,308,294,2
310,317,306,292,2
311,309,306,290,2
311,302,307,289,2
310,298,311,290,2
310,298,315,293,2
310,300,318,298,2
307,306,319,302,2
304,313,320,308,2
300,318,319,314,2
299,317,318,321,2
300,314,316,329,2
302,313,314,335,2
302,316,312,339,2
302,320,309,339,2
302,322,305,336,2
303,321,302,330,2
304,317,301,323,2
304,309,300,316,2
304,298,299,309,2
304,285,298,304,2
305,275,297,301,2
306,272,296,298,2
306,275,297,297,2
306,283,298,296,2
305,291,300,295,2
306,299,303,295,2
308,303,305,294,2
313,303,307,292,2
318,299,307,290,2
321,295,304,288,2
319,292,301,289,2
312,295,299,291,2
305,301,298,293,2
300,309,298,294,2
298,320,297,295,2
297,332,297,297,2
297,342,298,298,2
298,346,299,298,2
299,342,299,297,2
300,329,299,297,2
303,309,299,298,2
307,288,300,299,2
311,273,301,304,2
314,266,302,311,2
311,266,304,318,2
306,271,307,326,2
301,277,310,333,2
296,284,311,337,2
294,290,312,341,2
297,297,313,345,2
301,306,312,347,2
304,316,310,346,2
305,327,309,341,2
306,337,308,333,2
305,347,306,323,2
305,355,303,310,2
306,359,302,296,2
306,354,300,284,2
306,337,299,276,2
304,313,299,274,2
303,290,299,277,2
300,275,302,286,2
298,268,304,296,2
297,268,307,306,2
298,273,308,314,2
299,279,310,318,2
300,284,311,320,2
301,290,310,320,2
302,296,309,319,2
303,301,308,319,2
302,306,307,319,2
300,311,307,318,2
297,315,307,317,2
294,320,306,316,2
293,323,305,316,2
292,327,304,314,2
291,331,304,311,2
291,333,305,308,2
293,331,307,305,2
297,326,309,302,2
302,316,309,299,2
305,304,309,297,2
307,294,309,297,2
309,288,308,299,2
310,286,305,301,2
309,286,302,304,2
307,287,301,307,2
304,289,302,310,2
300,292,305,313,2
298,296,307,315,2
299,300,308,314,2
302,303,306,311,2
304,304,302,308,2
306,305,299,305,2
306,306,296,303,2
305,308,295,301,2
304,311,296,300,2
306,314,296,299,2
307,316,296,298,2
307,319,296,296,2
307,323,295,295,2
307,329,295,296,2
307,337,294,297,2
308,346,295,298,2
308,354,297,300,2
309,358,299,303,2
310,353,301,308,2
311,340,304,314,2
313,319,306,320,2
313,300,307,323,2
310,287,306,325,2
304,281,306,324,2
300,280,307,323,2
298,283,309,321,2
297,287,311,319,2
296,291,312,316,2
295,295,312,315,2
295,298,311,316,2
296,299,309,321,2
298,298,308,329,2
300,297,306,336,2
301,296,306,341,2
302,297,306,344,2
303,300,307,342,2
304,303,309,335,2
307,304,309,325,2
307,302,309,311,2
308,297,309,299,2
308,290,308,291,2
310,283,308,287,2
311,280,309,286,2
314,284,309,286,2
315,291,308,285,2
316,300,308,286,2
315,308,309,288,2
314,315,310,291,2
306,320,309,295,2
295,326,309,298,2
287,331,309,302,2
283,334,308,305,2
284,335,307,308,2
289,335,306,309,2
294,333,305,308,2
299,333,305,307,2
301,333,304,304,2
303,332,303,301,2
304,329,303,299,2
304,324,303,297,2
303,323,304,296,2
303,327,306,295,2
303,333,309,297,2
302,335,311,300,2
302,333,311,301,2
302,325,309,302,2
301,314,306,301,2
302,303,304,300,2
302,294,302,300,2
302,288,301,299,2
303,282,300,297,2
304,272,300,296,2
305,262,301,295,2
308,256,303,294,2
310,256,305,296,2
312,259,309,300,2
313,269,312,307,2
311,285,313,313,2
308,302,313,318,2
305,313,311,320,2
303,319,312,319,2
302,316,313,317,2
303,309,316,313,2
305,299,318,309,2
307,287,318,305,2
308,279,315,303,2
306,281,311,303,2
305,292,305,305,2
303,304,301,309,2
302,316,297,311,2
302,323,295,313,2
303,324,294,314,2
303,324,294,314,2
301,323,295,313,2
299,324,297,313,2
299,325,299,317,2
300,328,301,324,2
303,328,303,332,2
305,326,305,337,2
305,322,307,339,2
305,320,308,339,2
305,323,309,339,2
304,330,309,339,2
303,339,308,339,2
302,349,307,338,2
301,359,306,334,2
300,363,304,327,2
300,356,302,317,2
300,339,301,305,2
302,316,300,295,2
305,294,300,289,2
308,281,302,289,2
308,274,303,293,2
306,274,304,297,2
304,275,305,300,2
303,276,306,301,2
303,275,307,300,2
302,270,310,300,2
302,266,312,298,2
304,271,314,298,2
305,284,316,299,2
304,301,317,300,2
302,313,317,302,2
300,317,315,304,2
298,317,312,306,2
297,315,307,307,2
296,313,304,307,2
295,314,302,307,2
296,318,302,307,2
297,321,303,307,2
300,320,304,306,2
302,315,304,305,2
303,307,304,305,2
304,300,305,306,2
303,292,307,307,2
304,286,310,307,2
305,282,313,307,2
307,281,315,306,2
308,284,315,306,2
308,290,314,305,2
306,296,311,304,2
304,302,309,303,2
302,307,308,302,2
303,310,307,302,2
307,313,305,303,2
312,316,304,305,2
316,320,304,308,2
320,324,304,311,2
319,328,304,313,2
313,332,303,314,2
306,334,302,316,2
303,333,302,319,2
302,328,303,323,2
299,323,305,327,2
297,321,307,331,2
296,323,307,336,2
298,326,307,340,2
302,328,307,342,2
304,325,307,342,2
305,318,306,340,2
304,307,306,336,2
303,294,306,330,2
303,286,307,322,2
303,283,308,312,2
304,285,308,302,2
306,289,307,295,2
307,297,305,292,2
306,309,303,292,2
303,323,302,295,2
299,336,301,299,2
296,343,301,304,2
294,343,303,310,2
292,339,307,316,2
293,333,311,320,2
295,324,315,321,2
298,312,317,320,2
300,300,317,316,2
301,293,316,311,2
301,287,313,305,2
301,281,310,298,2
301,278,308,292,2
303,278,306,287,2
304,279,303,285,2
304,280,301,286,2
304,282,300,288,2
303,286,300,291,2
302,291,301,295,2
301,295,303,300,2
301,297,306,307,2
302,299,311,312,2
304,306,315,315,2
305,314,318,315,2
307,319,319,312,2
308,321,319,307,2
309,319,318,302,2
310,314,314,297,2
312,308,309,295,2
313,302,306,294,2
314,299,304,295,2
313,300,307,297,2
312,304,310,299,2
311,310,312,301,2
311,316,310,302,2
312,320,306,303,2
313,321,302,303,2
312,319,300,304,2
310,317,299,305,2
309,314,300,305,2
308,309,302,306,2
308,303,304,306,2
308,298,306,308,2
306,296,306,309,2
303,297,306,311,2
301,299,307,312,2
304,300,308,314,2
311,298,309,315,2
318,293,309,315,2
320,289,309,316,2
318,288,309,317,2
314,290,309,319,2
311,299,308,320,2
310,312,308,320,2
311,328,308,320,2
312,343,309,319,2
311,354,311,318,2
308,357,312,318,2
305,351,313,319,2
304,335,312,319,2
304,312,309,321,2
306,290,306,323,2
311,272,304,328,2
317,263,302,332,2
321,264,299,338,2
321,274,299,341,2
316,287,301,344,2
311,297,304,345,2
308,303,307,342,2
306,305,309,337,2
303,303,308,329,2
300,300,307,319,2
299,298,306,310,2
300,300,304,301,2
301,307,304,293,2
302,316,304,286,2
304,322,306,281,2
305,324,308,279,2
306,323,310,279,2
306,323,310,280,2
307,323,308,283,2
308,324,305,286,2
308,326,303,290,2
308,330,302,295,2
309,333,302,301,2
309,337,303,305,2
310,339,304,308,2
310,343,305,310,2
310,344,304,312,2
311,341,304,313,2
311,331,304,314,2
313,315,305,313,2
312,296,306,313,2
311,282,306,311,2
309,274,306,309,2
308,271,305,306,2
308,273,304,304,2
308,275,303,304,2
309,280,303,305,2
314,287,303,307,2
317,296,303,308,2
318,307,301,307,2
315,317,300,305,2
309,323,300,303,2
304,322,300,301,2
304,313,300,298,2
305,299,301,295,2
307,285,302,293,2
307,275,306,292,2
306,269,309,295,2
304,266,314,303,2
303,267,317,311,2
301,276,318,320,2
300,293,318,326,2
299,311,316,329,2
299,325,314,328,2
299,333,311,325,2
299,334,308,322,2
300,332,305,319,2
300,327,304,317,2
300,320,304,316,2
301,309,304,317,2
303,301,303,319,2
303,299,303,323,2
302,301,302,325,2
301,304,303,326,2
304,308,303,325,2
308,310,304,323,2
311,308,306,320,2
312,300,309,317,2
314,292,312,315,2
314,289,313,313,2
316,292,313,313,2
317,301,311,312,2
318,310,306,311,2
312,317,303,309,2
304,320,300,306,2
297,318,300,303,2
294,314,299,302,2
291,308,300,301,2
289,304,301,301,2
288,306,304,301,2
288,314,307,302,2
291,321,310,302,2
298,325,314,301,2
306,324,317,300,2
312,318,321,300,2
315,312,325,300,2
316,305,327,301,2
316,296,328,304,2
314,285,326,307,2
312,278,321,310,2
309,282,313,312,2
306,294,306,311,2
304,307,300,310,2
304,315,296,308,2
305,320,293,308,2
306,323,292,310,2
306,326,292,310,2
304,327,293,310,2
302,326,294,310,2
301,323,295,309,2
300,321,294,308,2
300,318,294,307,2
301,314,295,309,2
302,307,298,310,2
305,299,302,311,2
308,293,308,311,2
309,294,314,310,2
311,297,319,311,2
313,302,319,310,2
313,306,315,309,2
312,312,310,309,2
310,316,305,310,2
307,318,300,311,2
304,316,297,311,2
300,313,295,310,2
297,311,293,311,2
297,312,294,312,2
299,317,296,313,2
301,322,298,313,2
303,327,301,313,2
306,331,303,311,2
307,334,305,309,2
307,334,309,306,2
308,328,313,304,2
309,319,318,302,2
309,306,320,298,2
309,293,321,294,2
309,284,319,293,2
310,282,315,295,2
310,289,310,299,2
307,304,306,304,2
302,319,303,309,2
297,328,300,311,2
295,328,297,310,2
296,318,295,310,2
301,303,296,310,2
308,289,299,310,2
315,283,302,309,2
315,282,305,308,2
306,286,310,306,2
297,293,314,305,2
292,299,315,304,2
291,304,316,302,2
292,306,315,301,2
294,309,315,300,2
298,310,314,300,2
303,313,312,298,2
308,317,310,295,2
313,322,308,296,2
311,326,307,299,2
305,328,308,304,2
299,324,309,309,2
296,313,311,313,2
296,299,312,316,2
297,290,313,319,2
297,288,312,320,2
297,290,308,320,2
298,292,305,319,2
297,295,303,317,2
296,297,302,314,2
296,298,301,310,2
299,302,301,306,2
302,309,300,303,2
302,317,299,299,2
300,325,298,296,2
300,331,297,294,2
299,336,296,295,2
300,335,296,297,2
301,325,297,299,2
302,308,297,298,2
302,290,297,294,2
302,273,295,291,2
302,260,294,289,2
301,253,294,290,2
299,255,296,295,2
296,273,299,305,2
293,302,301,318,2
292,329,303,329,2
294,345,306,338,2
298,347,309,342,2
301,338,312,342,2
303,324,314,338,2
304,311,312,334,2
304,302,307,329,2
301,298,300,326,2
296,297,293,323,2
290,300,290,322,2
289,307,292,322,2
296,317,299,322,2
304,326,308,321,2
308,334,315,318,2
309,343,319,315,2
308,349,321,312,2
308,352,322,308,2
307,352,319,304,2
306,345,315,298,2
305,330,313,293,2
305,313,315,291,2
307,296,318,291,2
309,281,322,291,2
310,266,325,292,2
310,253,325,292,2
311,246,320,294,2
313,248,313,298,2
315,257,307,301,2
314,270,302,306,2
312,286,298,310,2
311,302,297,313,2
312,318,298,314,2
313,330,298,313,2
313,339,297,310,2
313,346,297,307,2
312,351,299,304,2
311,353,300,302,2
311,351,302,300,2
313,343,303,298,2
315,331,302,298,2
311,321,301,298,2
302,312,301,298,2
297,304,302,297,2
298,297,304,298,2
303,292,306,298,2
309,288,306,299,2
314,287,305,301,2
313,292,304,305,2
311,306,304,311,2
310,324,305,320,2
310,338,306,327,2
309,343,309,330,2
308,338,316,331,2
307,327,327,329,2
305,314,339,324,2
303,307,347,319,2
301,308,344,314,2
299,318,330,309,2
297,332,310,306,2
296,342,295,305,2
295,347,288,306,2
296,347,289,308,2
298,340,294,308,2
300,325,299,308,2
303,304,302,307,2
306,281,303,306,2
307,260,302,303,2
308,248,298,301,2
308,246,293,300,2
307,256,290,302,2
307,278,290,305,2
308,302,291,308,2
309,322,294,310,2
308,335,295,312,2
305,345,296,314,2
303,353,297,315,2
302,357,297,315,2
302,354,296,316,2
303,348,293,317,2
303,339,290,318,2
304,330,288,317,2
305,320,287,315,2
307,310,290,312,2
308,301,295,309,2
310,294,298,307,2
313,290,301,307,2
315,290,302,308,2
316,295,302,312,2
316,304,302,317,2
316,312,301,321,2
316,317,302,323,2
317,318,303,324,2
318,315,305,322,2
319,311,305,317,2
318,301,304,311,2
314,291,302,306,2
310,285,301,302,2
306,286,299,299,2
303,291,297,299,2
302,304,298,300,2
302,318,299,303,2
302,330,301,305,2
301,339,304,307,2
300,343,307,309,2
301,341,310,311,2
303,329,315,312,2
305,312,318,312,2
306,300,319,310,2
307,293,317,307,2
308,286,314,306,2
307,282,311,305,2
307,282,308,306,2
307,288,303,306,2
307,296,299,304,2
305,302,296,301,2
302,306,295,297,2
304,309,295,294,2
307,312,296,292,2
311,315,296,293,2
312,322,295,294,2
313,331,294,297,2
314,341,294,300,2
315,351,294,303,2
315,354,294,305,2
312,351,296,306,2
308,343,298,307,2
305,330,300,308,2
305,316,303,307,2
305,304,306,306,2
308,298,309,305,2
313,295,313,304,2
317,292,316,303,2
321,287,318,301,2
324,281,318,300,2
322,276,320,299,2
314,275,321,299,2
307,280,319,302,2
304,289,316,307,2
302,301,314,312,2
301,314,310,316,2
301,324,303,318,2
301,329,296,319,2
302,330,291,318,2
303,326,289,317,2
304,317,287,316,2
305,305,286,315,2
306,299,286,315,2
306,302,286,316,2
307,311,287,317,2
307,322,289,317,2
308,329,292,315,2
309,328,296,312,2
309,320,301,308,2
308,307,305,302,2
307,294,306,297,2
307,282,303,292,2
307,274,298,289,2
308,272,294,287,2
309,275,295,288,2
312,282,298,295,2
315,291,302,304,2
317,303,305,315,2
317,318,307,322,2
315,333,307,326,2
312,345,306,324,2
308,349,305,319,2
305,347,305,312,2
304,342,305,305,2
303,336,304,300,2
303,326,303,297,2
304,315,302,295,2
306,306,303,295,2
308,302,304,294,2
310,300,304,295,2
311,298,305,296,2
310,297,305,300,2
307,300,306,305,2
303,304,308,310,2
302,311,309,313,2
303,317,309,314,2
303,325,308,313,2
302,332,306,310,2
301,337,304,307,2
301,337,301,305,2
301,331,299,304,2
301,318,299,305,2
301,306,301,307,2
301,296,303,312,2
301,290,305,317,2
303,290,308,323,2
306,293,310,328,2
308,297,312,331,2
312,298,315,330,2
316,298,318,330,2
317,295,320,328,2
314,290,319,326,2
311,287,317,324,2
309,284,314,322,2
307,283,313,319,2
306,290,311,317,2
305,301,310,316,2
304,312,310,314,2
301,318,310,310,2
300,317,310,305,2
299,310,310,299,2
300,301,309,293,2
302,294,308,289,2
303,294,307,286,2
304,298,306,286,2
305,305,305,288,2
305,313,306,291,2
306,322,306,295,2
308,330,307,299,2
310,333,306,303,2
314,330,303,304,2
316,322,300,303,2
311,316,298,303,2
305,313,297,304,2
300,312,297,304,2
298,311,297,304,2
297,310,299,304,2
296,308,302,303,2
295,307,304,303,2
297,309,305,305,2
299,316,306,309,2
300,325,305,314,2
301,333,305,318,2
301,338,306,321,2
302,336,309,322,2
302,328,311,321,2
301,318,313,319,2
299,308,312,315,2
298,299,309,311,2
297,294,305,306,2
298,292,301,302,2
299,290,299,296,2
300,288,298,291,2
303,284,299,286,2
305,281,301,285,2
307,279,303,289,2
308,282,304,297,2
310,293,304,306,2
312,308,305,316,2
314,320,306,325,2
316,325,308,332,2
316,321,309,337,2
315,313,312,340,2
313,302,314,340,2
309,292,315,337,2
305,284,313,334,2
303,282,311,330,2
302,288,310,325,2
301,298,310,320,2
302,312,310,314,2
303,322,310,307,2
303,330,307,300,2
303,333,301,292,2
302,329,296,286,2
301,320,293,281,2
301,309,292,278,2
301,300,292,278,2
301,295,293,279,2
300,296,294,281,2
299,298,297,284,2
298,303,300,287,2
297,310,304,291,2
298,317,307,295,2
300,320,310,296,2
302,317,312,296,2
304,309,309,296,2
305,298,305,296,2
305,289,300,299,2
306,282,297,300,2
307,277,297,300,2
308,278,298,300,2
309,288,302,301,2
305,304,305,301,2
300,320,307,301,2
299,331,306,302,2
301,334,305,301,2
301,330,304,300,2
300,318,304,299,2
299,304,305,299,2
298,292,305,302,2
299,286,303,305,2
299,285,300,308,2
300,287,296,311,2
301,293,293,313,2
302,302,293,314,2
303,311,295,315,2
304,315,297,314,2
305,309,300,312,2
305,296,304,310,2
305,291,308,309,2
306,296,310,308,2
306,303,312,308,2
306,309,313,307,2
305,314,313,305,2
304,319,311,305,2
304,322,310,306,2
304,323,309,307,2
303,323,307,308,2
301,321,306,308,2
300,317,304,308,2
300,313,304,307,2
302,309,304,306,2
305,305,306,304,2
308,302,309,303,2
311,302,312,302,2
312,305,315,301,2
311,310,316,300,2
309,316,313,300,2
308,320,310,300,2
307,324,309,301,2
307,328,308,303,2
308,333,309,306,2
312,336,309,308,2
317,334,309,309,2
321,328,308,308,2
322,319,307,308,2
319,314,306,308,2
310,316,305,310,2
299,326,304,311,2
292,336,305,312,2
290,346,307,313,2
292,356,308,318,2
296,362,308,323,2
298,361,308,327,2
300,350,309,329,2
302,332,312,329,2
303,313,317,327,2
303,296,321,325,2
302,284,324,322,2
301,279,324,321,2
304,279,321,322,2
307,282,317,325,2
310,287,312,328,2
312,293,308,330,2
311,297,305,330,2
307,299,302,326,2
304,298,300,321,2
302,296,297,316,2
301,296,296,312,2
300,297,296,309,2
300,300,296,307,2
302,303,296,305,2
305,304,296,302,2
307,303,297,298,2
309,299,297,293,2
309,291,298,289,2
309,282,298,287,2
308,271,299,287,2
308,264,300,288,2
307,262,300,290,2
306,269,300,293,2
306,287,300,299,2
306,306,301,305,2
306,318,302,309,2
308,323,303,312,2
310,325,304,312,2
310,328,306,312,2
310,332,308,311,2
310,334,308,309,2
310,331,308,306,2
310,326,308,305,2
310,324,309,306,2
310,322,310,308,2
311,316,310,311,2
311,309,307,314,2
312,302,302,315,2
312,294,300,315,2
313,290,301,315,2
314,291,305,314,2
314,297,308,313,2
314,305,309,309,2
312,309,308,307,2
311,311,307,305,2
310,313,306,304,2
309,315,306,304,2
309,316,305,303,2
308,315,304,303,2
309,312,302,304,2
312,305,300,305,2
316,297,299,308,2
318,290,301,310,2
317,286,302,312,2
314,283,303,312,2
311,281,303,311,2
309,280,304,309,2
307,280,307,307,2
306,284,311,306,2
306,291,315,306,2
306,298,316,308,2
306,304,314,312,2
306,309,311,319,2
305,314,308,325,2
305,320,307,331,2
304,327,306,334,2
305,334,305,334,2
306,339,304,330,2
308,347,303,326,2
309,361,300,320,2
311,376,296,314,2
314,390,293,309,2
318,397,291,305,2
320,393,290,303,2
315,377,290,300,2
309,348,291,297,2
306,309,293,293,2
306,270,297,292,2
309,246,302,291,2
313,235,309,293,2
316,233,314,296,2
314,237,317,299,2
309,246,317,303,2
304,260,313,306,2
300,272,308,309,2
298,282,304,311,2
299,289,302,312,2
300,294,300,314,2
301,298,299,315,2
301,303,298,315,2
301,310,299,314,2
302,315,300,312,2
303,318,302,309,2
304,316,303,307,2
304,312,304,305,2
304,304,304,304,2
302,295,304,303,2
301,288,303,302,2
302,286,303,301,2
306,290,302,301,2
310,296,302,301,2
310,300,303,302,2
308,302,305,304,2
305,305,307,307,2
303,308,308,309,2
302,314,308,310,2
301,324,307,310,2
302,340,307,310,2
303,361,307,310,2
304,382,306,310,2
305,396,305,310,2
305,400,303,308,2
304,390,302,307,2
304,365,301,304,2
304,336,301,302,2
305,311,303,299,2
305,291,304,296,2
306,274,304,296,2
308,259,306,296,2
309,248,308,298,2
309,242,311,300,2
308,244,313,303,2
304,250,315,305,2
298,257,317,308,2
294,264,319,311,2
291,270,319,314,2
292,275,316,319,2
292,278,313,323,2
293,279,311,326,2
294,281,310,327,2
296,286,308,327,2
297,293,306,325,2
298,299,303,322,2
301,302,299,319,2
304,303,296,314,2
306,304,294,311,2
307,304,294,307,2
308,303,295,303,2
308,298,295,300,2
306,292,295,298,2
304,286,297,298,2
303,281,300,299,2
303,279,304,299,2
303,278,308,297,2
303,282,310,293,2
302,289,311,288,2
302,296,311,285,2
304,297,310,283,2
305,293,309,283,2
306,287,308,286,2
306,285,306,292,2
306,290,303,300,2
307,300,302,307,2
310,312,301,314,2
314,321,302,321,2
315,325,303,328,2
312,325,304,333,2
310,322,304,337,2
310,318,304,339,2
311,317,303,337,2
314,320,302,331,2
317,325,300,323,2
319,334,299,317,2
318,345,299,313,2
309,355,300,312,2
299,355,300,311,2
293,349,302,311,2
293,345,304,312,2
299,349,305,313,2
304,353,304,313,2
307,354,304,313,2
308,350,305,311,2
307,339,311,310,2
308,318,318,310,2
310,292,325,310,2
313,270,329,311,2
315,257,325,312,2
316,253,317,311,2
316,257,310,310,2
314,264,307,308,2
311,270,307,305,2
307,274,308,304,2
303,275,309,303,2
301,275,308,303,2
301,277,305,303,2
301,281,303,303,2
302,285,300,303,2
303,287,298,302,2
304,289,297,301,2
306,289,297,300,2
308,291,296,300,2
310,292,295,301,2
310,295,296,302,2
311,297,297,304,2
312,296,300,304,2
310,291,303,304,2
308,287,304,304,2
306,282,304,305,2
305,280,303,307,2
305,284,303,312,2
304,297,304,318,2
304,317,304,322,2
304,336,304,325,2
304,351,303,327,2
304,357,303,325,2
304,354,303,323,2
306,344,304,321,2
307,331,306,321,2
309,322,308,322,2
310,314,311,323,2
310,310,312,325,2
310,309,311,326,2
310,309,308,325,2
310,307,306,325,2
312,302,305,326,2
314,297,306,328,2
317,292,309,329,2
319,289,312,328,2
320,287,314,323,2
318,287,315,318,2
314,287,316,312,2
312,287,315,307,2
310,283,313,300,2
310,279,312,294,2
309,278,313,288,2
309,281,314,283,2
309,287,315,281,2
309,292,314,281,2
309,296,313,282,2
308,296,311,284,2
307,293,308,285,2
306,286,306,286,2
307,281,303,287,2
311,278,301,289,2
316,282,300,292,2
321,290,299,295,2
322,300,299,299,2
316,309,300,304,2
310,315,303,309,2
307,315,306,313,2
306,312,308,316,2
309,310,310,318,2
312,310,310,320,2
314,315,307,320,2
314,325,304,319,2
314,338,302,318,2
315,353,303,317,2
315,363,306,317,2
313,363,312,318,2
310,352,319,320,2
306,330,324,321,2
305,305,326,323,2
304,284,325,326,2
304,271,323,328,2
304,266,318,329,2
306,263,314,329,2
309,261,311,326,2
310,260,308,324,2
310,262,307,321,2
308,267,307,320,2
307,272,308,320,2
305,278,308,318,2
303,285,307,315,2
302,290,307,312,2
303,293,309,307,2
304,295,310,301,2
305,295,312,296,2
307,293,314,292,2
309,290,315,289,2
310,284,313,288,2
311,277,309,288,2
311,274,305,291,2
310,278,304,296,2
310,286,303,302,2
310,294,303,307,2
311,299,303,311,2
311,303,304,314,2
310,307,303,315,2
310,311,303,316,2
310,318,304,316,2
309,325,307,314,2
308,333,311,310,2
308,339,316,306,2
307,342,321,303,2
307,343,324,301,2
310,341,325,301,2
315,335,323,301,2
320,324,319,301,2
322,312,313,300,2
320,301,307,299,2
317,294,303,300,2
314,292,302,301,2
312,293,303,303,2
311,294,303,305,2
309,295,303,307,2
308,295,303,310,2
307,298,304,313,2
306,303,306,315,2
304,309,309,316,2
303,317,313,317,2
305,324,314,317,2
310,330,313,315,2
316,333,311,312,2
318,331,309,309,2
316,325,307,310,2
312,319,305,313,2
308,315,303,316,2
305,316,302,317,2
304,320,302,316,2
305,326,303,313,2
307,330,306,309,2
308,332,309,305,2
310,326,309,304,2
311,313,308,303,2
311,297,306,304,2
311,284,307,306,2
310,278,310,311,2
311,277,313,315,2
313,278,314,317,2
317,282,313,319,2
320,290,310,319,2
322,302,305,318,2
319,313,301,316,2
311,323,299,315,2
303,332,298,314,2
298,336,297,313,2
295,332,296,312,2
294,322,296,312,2
295,312,299,313,2
297,305,303,315,2
299,302,307,316,2
302,302,308,317,2
303,304,309,317,2
304,308,308,317,2
306,313,307,318,2
308,315,307,317,2
310,313,307,316,2
310,309,308,315,2
310,306,309,314,2
310,306,311,314,2
310,307,312,313,2
309,309,312,313,2
308,311,312,315,2
307,317,311,318,2
305,323,311,320,2
305,329,312,323,2
304,333,313,322,2
304,334,314,318,2
304,332,314,312,2
304,328,314,304,2
305,324,313,297,2
307,321,311,292,2
310,318,308,290,2
313,316,306,289,2
316,312,302,289,2
315,308,299,289,2
313,303,296,289,2
312,295,296,288,2
313,284,297,287,2
313,273,299,287,2
313,263,300,287,2
312,256,301,289,2
310,258,301,293,2
307,268,302,298,2
306,284,306,304,2
306,303,309,310,2
306,318,311,313,2
305,327,311,315,2
305,330,311,315,2
306,331,311,315,2
307,328,312,314,2
309,324,313,316,2
310,320,313,323,2
312,316,312,333,2
314,315,310,345,2
317,318,306,352,2
321,322,304,356,2
325,326,304,353,2
324,326,304,347,2
318,321,307,338,2
311,316,309,328,2
307,314,312,320,2
307,315,314,314,2
309,315,315,310,2
311,316,313,307,2
310,315,309,304,2
307,315,303,301,2
303,314,298,301,2
301,314,295,303,2
300,313,293,305,2
301,313,294,306,2
303,314,295,304,2
304,316,298,302,2
305,320,300,299,2
305,324,301,298,2
305,329,302,298,2
306,332,301,300,2
307,333,300,303,2
307,330,299,305,2
306,323,298,309,2
306,315,299,311,2
305,306,300,313,2
305,301,300,314,2
304,300,299,315,2
303,307,297,316,2
302,316,296,318,2
302,322,297,319,2
304,320,300,317,2
306,313,303,312,2
307,302,306,306,2
309,291,310,300,2
311,287,312,296,2
313,290,313,294,2
315,303,312,293,2
317,319,310,294,2
317,334,308,296,2
316,344,305,299,2
315,346,304,302,2
314,337,304,303,2
314,320,305,303,2
315,301,306,302,2
318,283,306,302,2
322,268,305,302,2
324,259,304,302,2
321,258,302,304,2
313,264,300,306,2
306,271,298,308,2
302,277,297,309,2
299,285,297,310,2
297,294,298,310,2
296,303,299,310,2
297,310,301,312,2
299,315,303,315,2
302,316,304,318,2
303,315,306,321,2
304,313,306,322,2
304,309,307,323,2
306,306,308,322,2
307,304,308,320,2
308,301,306,316,2
308,297,305,312,2
309,293,303,306,2
310,289,302,299,2
309,285,302,293,2
306,286,302,289,2
304,294,302,288,2
303,312,302,287,2
302,331,302,287,2
303,345,304,287,2
306,353,305,288,2
309,356,307,289,2
312,356,309,292,2
314,353,309,294,2
316,347,308,297,2
317,339,306,301,2
315,330,305,305,2
311,323,306,309,2
309,320,309,313,2
309,319,313,317,2
312,320,315,319,2
316,324,316,319,2
317,327,317,318,2
314,324,318,319,2
310,315,320,321,2
305,301,320,326,2
301,287,319,332,2
298,274,318,337,2
296,266,316,340,2
296,260,312,339,2
297,256,308,333,2
299,252,304,326,2
300,255,300,319,2
301,266,297,313,2
301,279,295,310,2
303,291,294,309,2
303,300,294,308,2
305,306,295,308,2
306,311,297,308,2
307,316,298,308,2
308,317,300,308,2
309,316,303,307,2
310,314,306,305,2
310,311,309,302,2
310,308,311,299,2
309,304,310,295,2
308,300,307,292,2
307,297,302,289,2
309,296,298,288,2
312,297,297,287,2
314,298,296,288,2
313,299,299,289,2
311,301,302,291,2
308,306,305,292,2
307,313,308,294,2
305,316,309,296,2
304,316,305,297,2
302,315,300,299,2
301,315,296,302,2
303,317,295,306,2
304,319,297,309,2
305,324,300,311,2
305,331,301,311,2
306,342,302,310,2
306,354,301,308,2
306,366,300,305,2
306,375,299,302,2
306,377,300,299,2
308,366,302,298,2
310,348,303,298,2
311,323,303,300,2
311,297,303,304,2
311,272,302,310,2
311,251,301,316,2
309,232,301,321,2
309,216,301,326,2
308,207,300,329,2
306,208,299,330,2
304,217,298,329,2
304,232,297,327,2
305,250,298,323,2
305,269,299,318,2
305,284,300,312,2
303,297,300,305,2
301,309,300,299,2
299,319,301,293,2
296,325,304,288,2
295,331,308,286,2
298,335,313,286,2
303,337,316,286,2
309,335,317,287,2
315,333,313,287,2
324,329,304,288,2
334,322,295,291,2
336,315,289,294,2
325,312,288,298,2
310,314,290,302,2
297,320,292,306,2
290,326,294,309,2
288,329,295,310,2
288,328,296,308,2
289,321,297,306,2
290,311,298,305,2
292,298,301,309,2
294,286,303,316,2
295,283,304,327,2
295,292,304,338,2
293,308,305,345,2
293,325,305,348,2
293,338,305,347,2
294,344,305,344,2
295,341,304,338,2
296,332,304,332,2
296,321,303,325,2
298,311,302,317,2
300,303,301,310,2
302,298,301,303,2
304,296,301,297,2
306,293,302,294,2
307,287,304,292,2
307,276,304,292,2
306,267,305,294,2
304,266,306,296,2
302,275,308,299,2
301,290,310,301,2
303,304,311,300,2
304,312,310,298,2
303,312,308,295,2
301,307,305,292,2
299,298,304,292,2
300,290,304,294,2
303,288,304,297,2
304,295,302,300,2
304,309,299,303,2
303,323,297,307,2
303,334,296,312,2
303,338,294,315,2
303,335,291,316,2
304,325,287,316,2
304,314,286,314,2
304,302,286,313,2
302,293,289,311,2
298,289,294,309,2
297,288,300,309,2
297,291,303,308,2
298,295,305,306,2
298,304,307,303,2
298,314,307,299,2
299,324,307,295,2
300,330,307,293,2
301,335,306,291,2
302,336,303,288,2
300,332,298,286,2
299,326,291,283,2
298,315,284,281,2
298,300,281,280,2
300,285,281,283,2
305,275,286,288,2
309,274,291,295,2
309,279,296,301,2
304,285,300,304,2
299,289,303,305,2
294,291,306,306,2
291,291,306,307,2
290,291,305,307,2
291,292,304,307,2
292,295,305,308,2
293,301,305,308,2
295,308,305,309,2
296,312,304,309,2
297,312,304,310,2
297,307,304,311,2
298,297,303,315,2
298,284,303,320,2
300,273,302,325,2
301,268,302,329,2
302,269,304,329,2
302,277,308,326,2
302,288,313,322,2
304,298,317,320,2
305,304,319,319,2
306,310,319,319,2
308,315,316,320,2
310,318,312,322,2
311,320,308,323,2
313,325,304,323,2
316,330,302,322,2
317,335,302,319,2
311,341,301,316,2
302,346,300,312,2
296,347,296,305,2
293,344,291,298,2
294,339,287,292,2
296,331,287,289,2
298,323,288,289,2
299,315,290,292,2
302,309,294,297,2
306,304,298,304,2
309,300,301,309,2
310,291,304,313,2
310,280,308,315,2
308,270,310,316,2
306,267,310,318,2
303,273,310,322,2
301,285,309,323,2
302,295,310,323,2
304,302,310,320,2
305,304,309,316,2
305,304,307,310,2
304,303,304,303,2
303,302,302,297,2
304,302,300,292,2
305,304,300,289,2
307,307,301,288,2
308,310,304,289,2
307,314,307,290,2
307,318,311,292,2
307,321,312,293,2
309,322,312,294,2
311,322,311,296,2
313,322,307,298,2
312,324,304,300,2
310,326,300,303,2
307,325,299,305,2
304,322,301,306,2
300,319,304,306,2
297,313,308,305,2
295,304,312,305,2
295,295,314,305,2
295,287,312,307,2
296,283,307,309,2
296,281,302,311,2
295,281,300,312,2
295,282,299,313,2
297,286,300,313,2
299,293,302,312,2
301,303,303,311,2
302,314,304,309,2
303,322,303,307,2
305,327,302,305,2
306,325,302,304,2
307,317,302,304,2
309,310,303,304,2
313,313,303,305,2
314,325,304,305,2
312,340,305,307,2
309,352,306,309,2
306,355,306,313,2
304,349,307,316,2
303,333,310,321,2
304,312,316,326,2
305,295,322,332,2
306,288,327,336,2
306,290,329,337,2
306,296,327,334,2
305,299,323,328,2
305,298,317,323,2
304,296,313,321,2
304,294,311,320,2
305,294,309,319,2
305,294,306,316,2
304,293,303,311,2
303,291,299,304,2
302,286,296,297,2
301,280,295,290,2
302,274,294,285,2
302,273,293,283,2
302,279,294,284,2
300,289,296,286,2
298,298,298,288,2
296,304,300,289,2
295,305,299,290,2
295,305,298,291,2
295,306,296,292,2
296,306,294,292,2
299,306,292,291,2
303,307,292,291,2
307,310,294,291,2
310,311,297,291,2
313,312,300,292,2
314,314,303,293,2
313,317,305,295,2
311,324,307,300,2
308,334,308,308,2
304,344,309,317,2
302,352,312,325,2
303,355,314,330,2
304,353,316,333,2
303,346,317,333,2
301,335,319,333,2
300,323,318,330,2
300,309,316,327,2
302,297,312,323,2
303,286,307,319,2
304,281,303,316,2
306,280,300,314,2
308,282,297,313,2
312,287,297,314,2
315,291,299,315,2
317,296,300,317,2
314,297,302,318,2
307,294,302,318,2
301,288,303,317,2
297,288,304,317,2
294,293,306,316,2
293,300,308,315,2
293,303,308,311,2
298,300,308,303,2
305,292,306,295,2
313,281,303,286,2
319,269,300,281,2
319,261,298,280,2
313,260,299,285,2
306,269,302,293,2
300,284,305,301,2
295,297,307,307,2
294,305,310,311,2
295,308,313,314,2
298,308,314,317,2
302,308,313,320,2
305,310,310,324,2
306,315,306,325,2
304,321,303,325,2
301,326,301,323,2
298,331,300,318,2
297,334,299,313,2
296,334,300,308,2
297,333,301,304,2
298,330,304,301,2
300,324,305,300,2
301,316,306,299,2
302,311,307,298,2
302,309,309,297,2
302,310,310,297,2
302,316,311,296,2
302,324,310,295,2
303,333,307,295,2
305,338,304,297,2
307,332,303,299,2
309,315,305,303,2
310,294,308,306,2
308,279,311,307,2
305,272,312,308,2
303,270,312,307,2
302,272,309,306,2
301,276,306,305,2
301,279,303,303,2
301,280,301,303,2
302,280,301,302,2
304,278,301,303,2
305,277,300,306,2
306,275,298,311,2
306,276,296,316,2
306,281,294,319,2
306,287,293,319,2
306,292,293,317,2
306,297,295,313,2
306,300,298,308,2
307,302,302,302,2
307,303,306,298,2
306,305,310,297,2
306,307,311,297,2
306,312,307,299,2
306,318,303,302,2
306,323,300,303,2
306,324,299,305,2
306,323,300,307,2
306,322,302,308,2
306,319,303,309,2
306,314,303,310,2
306,309,302,310,2
306,305,301,311,2
307,304,301,312,2
308,303,302,311,2
309,302,304,309,2
311,303,305,308,2
314,304,305,306,2
316,304,304,305,2
317,304,304,303,2
316,302,305,301,2
313,299,305,297,2
308,293,305,292,2
305,287,305,287,2
303,282,306,283,2
304,280,308,281,2
305,283,311,282,2
305,292,315,284,2
305,305,319,287,2
307,318,321,288,2
309,324,322,287,2
310,323,321,286,2
311,317,318,284,2
312,308,315,285,2
313,298,312,287,2
314,292,310,292,2
313,292,308,299,2
311,299,306,307,2
308,310,306,315,2
307,318,309,324,2
313,324,312,331,2
320,327,315,336,2
322,327,318,338,2
321,326,318,337,2
317,325,315,333,2
312,324,310,327,2
307,323,303,320,2
303,323,298,312,2
301,323,296,304,2
300,323,297,297,2
300,322,298,291,2
300,318,297,284,2
302,314,294,278,2
304,307,292,275,2
304,301,292,274,2
305,295,292,276,2
306,293,295,282,2
307,296,298,291,2
308,301,302,298,2
309,305,306,305,2
311,308,307,310,2
312,312,306,313,2
312,314,304,317,2
308,316,302,322,2
304,316,300,328,2
302,316,298,334,2
301,315,297,340,2
301,314,298,345,2
301,314,298,347,2
301,313,299,348,2
303,314,300,348,2
307,316,301,345,2
310,319,301,337,2
311,323,300,325,2
311,329,301,311,2
312,336,302,299,2
316,343,304,293,2
322,350,306,290,2
324,351,308,292,2
319,346,310,295,2
310,336,312,300,2
303,323,315,304,2
300,308,316,306,2
301,297,317,308,2
303,291,316,308,2
306,288,313,308,2
307,287,309,308,2
307,286,305,307,2
305,284,302,306,2
304,282,300,306,2
303,282,301,306,2
302,282,305,307,2
301,282,311,307,2
302,282,316,307,2
306,283,319,307,2
310,284,318,306,2
312,286,315,304,2
313,288,312,301,2
313,289,308,297,2
312,290,305,294,2
312,291,303,291,2
311,288,300,291,2
310,282,298,293,2
308,279,297,295,2
306,281,298,298,2
305,289,299,301,2
302,300,300,304,2
300,312,301,307,2
297,327,302,310,2
295,337,302,310,2
293,338,302,310,2
293,328,301,312,2
298,313,301,313,2
303,298,302,314,2
308,288,303,314,2
310,282,303,314,2
311,284,305,313,2
311,291,307,314,2
311,303,310,316,2
310,316,314,319,2
310,327,318,321,2
310,333,322,322,2
310,333,324,321,2
310,323,325,319,2
310,306,324,314,2
309,286,320,308,2
309,267,317,302,2
309,258,313,299,2
309,260,311,297,2
309,267,308,298,2
309,276,306,301,2
309,287,306,305,2
310,299,306,308,2
310,310,306,308,2
310,316,306,308,2
310,319,306,309,2
311,318,306,313,2
312,316,304,320,2
314,312,302,327,2
316,309,302,334,2
317,306,303,338,2
316,302,305,341,2
313,301,308,342,2
310,303,309,340,2
307,307,310,336,2
306,310,309,332,2
307,310,309,326,2
309,306,309,317,2
309,299,309,307,2
308,294,306,298,2
307,292,303,293,2
308,292,300,290,2
308,293,299,288,2
309,295,297,286,2
312,296,295,283,2
313,298,292,281,2
310,299,292,280,2
307,300,292,281,2
305,304,295,283,2
304,310,298,286,2
305,318,302,290,2
307,327,304,292,2
308,335,305,292,2
310,341,305,289,2
311,345,305,286,2
312,341,304,283,2
311,324,304,283,2
310,296,306,286,2
309,266,307,291,2
307,249,307,297,2
303,248,304,303,2
299,262,302,309,2
297,278,303,313,2
296,291,306,315,2
298,294,310,315,2
300,292,314,313,2
302,288,316,312,2
305,286,316,311,2
306,284,313,312,2
307,286,308,315,2
308,292,304,319,2
309,298,301,322,2
310,304,300,323,2
311,308,300,321,2
311,310,300,317,2
309,312,301,312,2
307,313,302,308,2
307,314,302,305,2
306,316,302,304,2
305,320,303,302,2
304,325,303,302,2
303,324,304,303,2
303,316,305,305,2
303,301,307,305,2
303,283,309,305,2
305,264,311,305,2
307,251,314,305,2
309,250,316,307,2
309,259,316,307,2
311,273,314,307,2
311,286,312,305,2
310,294,309,301,2
308,296,306,297,2
307,292,303,292,2
308,287,301,290,2
309,283,300,293,2
309,282,301,300,2
307,287,300,308,2
304,294,299,315,2
301,304,298,318,2
298,314,296,318,2
296,324,295,316,2
294,332,295,312,2
295,337,295,308,2
297,340,295,306,2
300,339,296,303,2
303,332,298,302,2
306,322,301,301,2
309,313,303,301,2
312,309,304,302,2
313,308,304,302,2
314,309,304,302,2
315,308,303,302,2
314,305,300,302,2
313,299,298,303,2
312,294,297,303,2
311,292,298,302,2
310,294,300,301,2
311,296,303,300,2
311,298,304,300,2
312,297,304,300,2
311,292,303,300,2
311,287,302,299,2
310,284,302,297,2
308,282,302,296,2
305,278,303,295,2
304,276,302,296,2
302,277,301,300,2
303,282,297,304,2
304,290,294,309,2
306,298,292,312,2
306,304,293,313,2
303,311,296,313,2
299,316,299,311,2
297,323,301,309,2
295,327,303,308,2
295,329,305,308,2
295,326,304,309,2
295,320,301,310,2
295,312,300,312,2
295,302,302,316,2
298,292,306,322,2
300,285,311,327,2
303,282,314,331,2
306,283,315,333,2
310,289,312,332,2
314,295,306,328,2
316,300,298,323,2
314,304,291,318,2
310,307,288,314,2
306,312,288,311,2
303,316,288,307,2
300,320,288,303,2
297,321,289,300,2
295,319,291,298,2
296,311,294,298,2
298,301,297,298,2
300,291,300,298,2
303,285,302,299,2
306,282,304,302,2
308,285,305,304,2
309,294,307,305,2
310,307,309,304,2
310,322,311,303,2
310,336,311,302,2
311,345,309,302,2
312,345,304,303,2
312,337,297,303,2
311,324,292,304,2
306,313,288,306,2
301,305,286,309,2
299,300,286,310,2
299,294,286,310,2
300,289,285,309,2
301,288,285,307,2
303,291,285,305,2
304,294,287,304,2
304,296,289,303,2
303,298,291,303,2
303,299,293,304,2
304,300,295,308,2
306,302,296,312,2
307,304,297,317,2
309,307,297,319,2
311,308,296,318,2
311,309,296,315,2
311,307,297,310,2
311,304,297,305,2
312,298,297,300,2
313,293,298,296,2
314,291,299,293,2
315,291,300,291,2
315,290,301,292,2
313,291,303,295,2
310,297,303,301,2
307,303,303,308,2
304,309,302,314,2
299,312,300,319,2
295,313,298,322,2
294,314,294,323,2
296,313,292,321,2
300,310,291,317,2
304,304,290,312,2
306,298,290,307,2
305,291,291,305,2
303,285,292,304,2
302,281,294,305,2
301,282,294,306,2
301,289,294,308,2
301,298,294,311,2
301,309,294,314,2
302,322,293,315,2
302,330,291,313,2
303,335,290,308,2
303,337,290,304,2
304,339,293,302,2
305,339,296,303,2
306,338,301,307,2
306,336,305,313,2
305,334,308,320,2
304,331,306,326,2
304,326,304,331,2
303,321,301,332,2
303,318,299,331,2
303,315,297,329,2
302,312,296,324,2
303,307,295,318,2
305,297,296,312,2
307,288,298,305,2
309,281,302,299,2
311,277,306,293,2
312,277,309,290,2
313,281,312,289,2
314,287,312,291,2
316,294,308,295,2
318,297,304,299,2
318,295,300,305,2
318,288,297,312,2
318,280,295,318,2
317,273,295,322,2
316,268,295,324,2
314,266,295,324,2
310,271,294,323,2
305,282,292,319,2
300,294,291,312,2
298,303,291,304,2
298,308,291,296,2
299,309,292,291,2
301,310,292,289,2
302,311,293,288,2
303,311,294,290,2
304,312,294,294,2
304,315,294,297,2
303,319,294,298,2
302,321,294,298,2
303,322,294,297,2
306,323,294,298,2
308,324,293,299,2
307,323,293,300,2
304,321,293,300,2
302,315,292,300,2
301,307,292,299,2
301,300,293,299,2
302,297,294,301,2
303,303,296,304,2
303,313,297,307,2
302,322,299,311,2
302,324,301,315,2
303,318,303,321,2
304,307,306,325,2
305,297,308,327,2
306,292,310,327,2
307,290,312,324,2
308,287,313,319,2
308,284,313,313,2
309,283,312,308,2
309,286,310,306,2
308,290,309,307,2
307,295,308,309,2
305,301,307,311,2
302,308,306,312,2
300,314,305,311,2
299,316,304,308,2
298,317,302,304,2
299,315,301,301,2
302,312,302,300,2
305,307,302,299,2
306,304,303,299,2
307,302,302,299,2
307,304,301,299,2
307,306,299,300,2
307,309,297,301,2
306,311,295,302,2
304,314,295,303,2
303,319,296,305,2
304,326,297,306,2
304,332,298,307,2
305,337,299,308,2
306,341,301,310,2
307,342,305,311,2
308,339,309,310,2
308,333,312,308,2
308,323,312,306,2
307,312,310,304,2
307,300,307,302,2
307,289,306,299,2
308,277,307,294,2
308,266,310,289,2
308,256,313,287,2
308,251,315,287,2
308,250,315,293,2
308,256,314,301,2
307,271,313,309,2
304,289,312,315,2
301,304,311,318,2
299,316,311,317,2
297,323,310,313,2
294,327,310,309,2
292,329,311,306,2
293,330,312,305,2
297,330,312,306,2
300,332,310,307,2
301,334,306,307,2
302,336,302,307,2
304,339,300,305,2
306,341,299,302,2
307,341,300,299,2
307,340,301,296,2
308,335,301,294,2
310,329,302,296,2
311,322,303,299,2
310,313,304,302,2
308,304,305,304,2
305,295,307,306,2
304,289,310,307,2
304,283,313,308,2
306,282,317,310,2
310,285,320,312,2
314,292,322,314,2
315,300,321,315,2
314,308,318,316,2
311,313,314,315,2
308,315,312,313,2
305,313,311,309,2
303,308,311,307,2
303,302,311,306,2
304,295,312,307,2
307,291,314,310,2
309,290,317,315,2
310,294,319,320,2
310,298,320,323,2
310,304,322,326,2
310,310,324,327,2
310,317,325,326,2
311,323,326,323,2
311,329,325,317,2
311,332,323,310,2
311,331,320,303,2
310,326,316,296,2
311,320,311,290,2
311,311,309,287,2
311,301,308,286,2
310,293,308,287,2
308,290,307,290,2
306,292,305,294,2
304,297,304,299,2
305,302,304,303,2
305,307,304,306,2
304,309,306,308,2
303,309,309,309,2
303,308,313,309,2
303,306,318,308,2
304,305,322,306,2
305,304,324,303,2
307,304,325,301,2
308,304,325,297,2
308,305,325,295,2
308,306,324,292,2
306,306,322,289,2
304,306,321,287,2
304,306,318,285,2
303,306,317,284,2
303,306,317,284,2
303,305,317,285,2
304,305,319,287,2
307,304,321,290,2
309,304,323,294,2
311,304,324,300,2
313,304,324,305,2
314,304,323,309,2
315,306,323,312,2
315,308,321,313,2
314,310,320,313,2
314,312,319,310,2
312,313,318,308,2
310,314,317,305,2
308,315,316,303,2
307,315,316,302,2
306,314,317,301,2
306,313,319,300,2
306,311,322,299,2
307,309,326,298,2
308,307,329,299,2
310,305,332,301,2
312,304,334,304,2
313,304,334,307,2
315,305,333,311,2
315,307,329,316,2
315,309,325,320,2
316,312,323,324,2
315,315,323,326,2
314,319,325,326,2
311,322,329,325,2
309,324,333,324,2
307,324,337,323,2
306,323,338,319,2
304,320,338,313,2
303,317,334,307,2
304,314,329,303,2
305,313,323,303,2
305,314,319,306,2
305,317,317,309,2
305,320,315,311,2
304,319,313,309,2
304,313,312,306,2
305,305,312,305,2
307,292,313,305,2
308,279,315,307,2
309,275,316,308,2
308,280,317,306,2
307,289,317,301,2
305,304,316,295,2
304,321,315,290,2
304,339,315,285,2
307,355,315,281,2
309,368,315,277,2
307,372,315,273,2
303,366,315,271,2
300,353,315,270,2
299,336,317,271,2
300,317,319,275,2
301,299,320,280,2
301,284,320,286,2
300,271,319,290,2
300,259,318,294,2
300,244,317,298,2
302,235,318,302,2
303,238,322,306,2
306,252,325,308,2
307,269,327,308,2
307,283,329,309,2
305,294,330,309,2
305,305,331,311,2
305,313,332,314,2
307,317,331,315,2
308,315,330,314,2
309,308,329,311,2
309,300,328,307,2
309,294,327,304,2
310,289,324,301,2
312,286,322,301,2
316,288,319,303,2
321,294,319,307,2
322,301,319,312,2
320,306,319,314,2
314,308,319,315,2
308,308,318,314,2
304,307,319,314,2
302,307,320,313,2
301,307,321,312,2
302,309,324,311,2
302,312,326,311,2
303,315,327,311,2
302,318,327,310,2
301,320,325,309,2
301,321,322,306,2
302,322,320,302,2
303,320,319,297,2
303,316,319,291,2
304,312,319,286,2
306,313,320,283,2
308,317,321,281,2
309,319,320,279,2
309,319,318,278,2
309,314,315,278,2
309,302,313,280,2
309,285,314,286,2
310,269,318,294,2
312,257,322,303,2
312,255,326,311,2
311,265,330,318,2
310,279,334,323,2
309,292,337,326,2
308,299,337,326,2
307,302,335,327,2
307,303,333,328,2
307,303,329,329,2
307,303,326,329,2
307,304,323,329,2
305,305,320,328,2
304,307,318,326,2
304,309,316,324,2
304,313,314,321,2
304,317,312,318,2
306,320,313,313,2
309,320,315,309,2
311,317,318,304,2
313,312,321,302,2
316,303,324,301,2
318,294,325,304,2
318,289,326,308,2
316,292,326,313,2
314,301,324,318,2
314,309,320,320,2
312,312,315,318,2
309,312,312,313,2
307,311,311,311,2
307,310,313,312,2
308,310,317,315,2
307,309,322,318,2
305,308,326,318,2
304,307,327,317,2
302,306,324,311,2
302,303,319,303,2
303,300,314,294,2
304,295,311,287,2
305,291,310,282,2
307,288,310,280,2
309,289,310,281,2
310,294,312,284,2
312,304,314,290,2
313,318,316,295,2
312,335,317,300,2
311,348,318,303,2
309,352,319,306,2
307,344,319,311,2
305,332,318,315,2
302,319,315,319,2
300,308,312,321,2
298,298,310,322,2
299,289,310,324,2
301,283,311,323,2
302,280,312,319,2
302,279,312,315,2
303,280,312,310,2
303,282,312,307,2
306,285,312,305,2
309,288,312,304,2
310,292,312,304,2
310,295,312,304,2
310,298,312,304,2
310,298,312,306,2
312,300,314,307,2
317,302,316,309,2
321,304,318,311,2
321,306,320,313,2
317,310,320,316,2
314,314,320,318,2
313,318,319,318,2
313,321,319,313,2
315,320,319,307,2
316,316,320,301,2
317,306,322,297,2
317,296,323,295,2
316,289,323,295,2
314,287,323,298,2
313,290,323,301,2
310,296,323,303,2
307,303,323,304,2
305,308,322,304,2
304,308,319,303,2
304,305,317,303,2
304,301,316,302,2
304,299,315,302,2
305,299,313,302,2
304,299,310,301,2
303,299,308,301,2
301,299,308,300,2
300,300,308,300,2
300,303,310,300,2
301,308,311,302,2
302,315,311,303,2
303,322,309,306,2
304,327,306,311,2
305,329,303,316,2
307,325,302,319,2
309,317,304,320,2
310,304,306,317,2
309,292,308,311,2
308,281,310,305,2
306,269,311,299,2
304,258,312,295,2
306,255,313,292,2
311,263,315,291,2
315,281,316,292,2
315,297,316,292,2
312,309,314,292,2
308,317,313,293,2
305,322,313,296,2
304,323,315,299,2
304,320,316,302,2
304,318,316,306,2
304,315,315,309,2
305,313,314,311,2
306,312,312,311,2
305,313,310,310,2
305,314,309,309,2
306,313,309,308,2
307,311,311,308,2
308,308,314,308,2
308,304,316,306,2
308,299,317,302,2
308,295,316,296,2
308,295,315,290,2
310,296,313,285,2
313,297,310,281,2
318,295,308,278,2
325,288,309,276,2
329,282,310,277,2
321,279,314,281,2
309,279,319,288,2
299,284,324,296,2
294,293,326,303,2
292,301,324,307,2
293,306,318,309,2
296,309,313,312,2
298,311,311,313,2
302,312,311,315,2
305,312,313,316,2
306,312,314,316,2
306,310,316,314,2
307,308,319,312,2
306,308,321,309,2
306,308,322,306,2
306,309,321,303,2
305,311,320,301,2
305,312,317,300,2
305,314,314,301,2
306,315,310,304,2
305,314,308,309,2
304,313,306,317,2
302,314,305,324,2
301,317,303,329,2
299,320,302,331,2
300,322,304,327,2
300,321,306,321,2
301,319,309,314,2
302,314,311,308,2
303,310,313,305,2
304,308,314,304,2
306,307,315,304,2
307,309,316,303,2
310,311,317,302,2
311,315,319,301,2
312,319,319,302,2
311,324,319,304,2
311,328,319,305,2
312,329,318,306,2
313,325,317,306,2
313,316,317,304,2
311,305,318,301,2
309,295,318,297,2
307,287,318,293,2
306,283,316,292,2
306,283,313,293,2
306,286,310,296,2
307,290,307,300,2
306,295,306,303,2
305,302,307,307,2
304,311,309,311,2
303,319,311,315,2
304,324,312,320,2
304,330,313,322,2
304,335,312,322,2
303,336,310,319,2
303,332,310,315,2
302,324,309,311,2
302,314,310,308,2
301,306,312,306,2
302,301,313,307,2
303,299,314,308,2
304,298,313,309,2
305,298,313,310,2
306,298,314,309,2
305,299,315,307,2
307,302,316,307,2
309,306,316,306,2
312,311,317,307,2
314,314,318,308,2
315,314,317,310,2
316,314,315,311,2
317,311,313,312,2
315,308,313,311,2
312,304,313,309,2
307,301,314,307,2
304,301,315,305,2
303,302,317,301,2
304,302,318,297,2
307,299,316,294,2
306,298,313,293,2
306,300,311,295,2
307,303,307,297,2
309,306,301,299,2
309,308,298,301,2
307,309,296,303,2
306,310,297,306,2
305,311,299,308,2
305,313,302,311,2
306,314,306,315,2
308,315,310,320,2
310,314,314,325,2
312,311,316,329,2
312,306,317,333,2
313,300,317,334,2
314,296,317,335,2
314,296,318,334,2
312,302,318,332,2
310,311,321,328,2
309,317,323,322,2
307,320,324,315,2
304,320,323,307,2
302,321,320,300,2
301,321,316,294,2
302,322,311,290,2
304,324,307,288,2
306,325,305,288,2
307,324,305,290,2
307,322,305,294,2
307,319,306,300,2
308,316,307,307,2
310,313,306,312,2
311,311,307,315,2
311,311,308,314,2
312,312,309,312,2
313,313,310,306,2
313,312,310,300,2
313,309,310,293,2
315,302,310,289,2
318,293,312,288,2
319,287,315,290,2
319,288,320,295,2
317,295,324,303,2
316,304,327,309,2
315,311,326,313,2
316,315,322,313,2
316,315,316,312,2
313,314,310,311,2
307,313,307,311,2
301,311,308,311,2
299,309,311,311,2
299,309,312,310,2
300,313,313,310,2
301,318,313,311,2
302,322,311,313,2
302,324,310,315,2
303,325,310,316,2
303,323,311,316,2
303,321,313,314,2
305,317,315,311,2
306,314,317,308,2
307,310,316,305,2
308,304,314,304,2
307,296,311,302,2
306,288,308,301,2
307,279,306,302,2
307,273,305,305,2
306,278,305,309,2
304,291,305,314,2
304,308,306,319,2
305,320,308,322,2
309,325,310,324,2
308,324,311,323,2
304,319,312,321,2
300,313,312,316,2
297,309,310,311,2
296,306,309,305,2
296,304,309,300,2
297,304,309,296,2
298,305,309,294,2
299,308,309,293,2
300,310,308,294,2
302,312,307,297,2
303,314,306,299,2
304,316,304,302,2
306,320,303,302,2
307,325,302,300,2
309,328,302,297,2
310,329,304,293,2
311,326,305,290,2
312,316,307,289,2
313,302,308,291,2
314,288,310,295,2
315,281,312,302,2
313,282,312,310,2
309,288,311,316,2
305,295,308,320,2
303,302,305,322,2
302,306,301,321,2
302,310,298,318,2
304,311,297,314,2
305,311,298,309,2
306,311,300,305,2
307,310,302,302,2
308,309,304,301,2
309,304,306,300,2
311,298,307,301,2
313,291,309,303,2
315,285,309,304,2
318,281,309,305,2
320,283,308,307,2
322,289,307,309,2
323,298,307,310,2
321,310,307,310,2
316,320,308,307,2
309,326,308,304,2
302,326,308,301,2
296,321,309,299,2
294,313,310,298,2
295,306,312,298,2
298,300,313,297,2
300,299,313,297,2
303,302,311,297,2
305,308,308,300,2
307,315,306,304,2
308,320,304,308,2
309,323,305,310,2
310,323,306,310,2
310,320,308,311,2
311,313,309,311,2
310,304,308,311,2
310,297,306,309,2
309,293,304,307,2
307,292,302,306,2
306,294,302,305,2
305,296,303,303,2
305,297,304,303,2
305,298,307,302,2
304,297,308,301,2
304,297,308,299,2
304,297,307,298,2
304,299,306,297,2
304,301,303,297,2
305,303,300,295,2
305,301,297,293,2
306,296,295,290,2
308,292,294,289,2
310,289,295,288,2
313,288,296,289,2
315,291,297,290,2
316,295,300,291,2
316,299,303,293,2
316,300,306,295,2
314,300,308,298,2
311,300,310,303,2
308,301,310,308,2
307,304,308,313,2
310,307,306,316,2
311,310,304,318,2
308,314,301,317,2
305,318,299,316,2
303,321,298,314,2
302,320,298,312,2
302,318,298,309,2
302,316,299,306,2
302,313,301,305,2
303,310,304,306,2
304,306,308,310,2
306,302,311,314,2
308,299,313,317,2
309,299,314,322,2
309,301,313,327,2
308,305,313,333,2
308,308,312,337,2
309,310,310,337,2
311,311,309,334,2
311,309,307,327,2
310,306,305,318,2
307,303,302,311,2
306,300,302,306,2
305,300,303,304,2
306,302,304,303,2
306,306,304,301,2
306,311,302,299,2
306,315,300,296,2
306,318,299,294,2
307,318,299,293,2
309,316,299,294,2
311,313,299,298,2
313,308,299,304,2
315,300,299,310,2
317,291,302,315,2
316,285,306,318,2
314,281,309,318,2
311,280,312,318,2
310,282,313,318,2
309,286,311,318,2
309,293,308,317,2
312,302,304,318,2
314,311,301,318,2
314,316,300,317,2
312,320,299,315,2
309,323,298,312,2
306,326,297,308,2
304,329,296,305,2
304,332,295,301,2
304,332,295,298,2
306,329,296,296,2
308,324,299,296,2
310,319,303,299,2
311,313,306,303,2
311,305,309,307,2
309,299,311,309,2
308,296,311,310,2
307,296,309,308,2
305,295,306,305,2
304,293,305,302,2
304,289,304,299,2
303,286,303,297,2
303,284,303,296,2
304,282,302,295,2
305,280,301,297,2
305,280,300,302,2
305,281,299,309,2
306,281,299,316,2
308,281,299,321,2
310,283,300,325,2
311,288,302,328,2
310,296,304,331,2
310,305,305,333,2
310,313,305,333,2
313,319,303,331,2
316,323,302,326,2
319,323,301,321,2
323,320,302,314,2
328,312,303,307,2
331,301,302,299,2
331,291,301,293,2
327,283,299,290,2
317,279,298,290,2
303,281,298,292,2
296,289,298,295,2
292,297,298,297,2
290,303,299,298,2
289,307,299,299,2
290,309,299,301,2
290,310,298,303,2
290,312,297,307,2
291,314,298,313,2
295,317,298,319,2
297,320,299,321,2
298,323,299,322,2
298,325,298,319,2
298,328,297,315,2
297,328,295,309,2
297,326,293,303,2
298,323,293,297,2
299,318,293,294,2
300,311,294,293,2
301,304,295,296,2
302,301,296,300,2
301,302,296,305,2
300,305,297,309,2
299,307,297,312,2
298,308,297,314,2
298,309,299,316,2
301,310,302,318,2
304,312,304,318,2
307,316,307,318,2
309,324,310,318,2
310,332,312,318,2
311,337,313,316,2
310,336,310,313,2
307,329,306,310,2
304,318,301,306,2
302,307,297,302,2
301,294,293,299,2
301,281,291,297,2
302,269,289,297,2
303,265,289,299,2
304,266,290,303,2
305,272,292,308,2
305,281,293,311,2
303,292,292,313,2
301,301,291,313,2
300,309,290,314,2
300,316,290,316,2
301,319,291,319,2
303,319,292,321,2
304,316,294,324,2
305,313,297,328,2
306,310,301,331,2
305,308,304,333,2
302,308,305,332,2
301,308,305,329,2
303,306,303,321,2
305,301,300,311,2
307,295,296,302,2
308,290,295,295,2
308,289,295,294,2
308,294,296,298,2
308,304,298,305,2
308,315,299,314,2
307,323,298,321,2
307,325,297,325,2
306,323,295,326,2
305,320,294,324,2
304,318,293,322,2
304,318,292,319,2
306,320,292,316,2
307,323,294,313,2
309,326,295,310,2
310,328,297,304,2
311,326,299,297,2
313,318,300,291,2
315,308,300,287,2
318,297,300,285,2
322,289,299,285,2
322,286,298,287,2
317,287,298,290,2
311,291,298,292,2
304,296,300,294,2
298,301,300,296,2
294,304,300,298,2
294,305,299,299,2
295,306,298,299,2
297,305,297,298,2
298,304,297,299,2
298,303,298,300,2
300,301,300,303,2
300,299,301,306,2
302,299,302,311,2
302,300,303,315,2
302,301,304,319,2
301,305,304,323,2
301,310,304,326,2
300,317,303,327,2
300,321,302,328,2
301,324,302,328,2
302,324,303,328,2
305,324,305,329,2
306,324,307,328,2
307,326,308,327,2
309,327,307,325,2
310,329,306,323,2
310,330,304,320,2
310,329,301,317,2
308,325,299,312,2
306,321,298,307,2
304,317,297,303,2
304,315,299,299,2
304,313,301,296,2
304,309,304,293,2
303,308,307,291,2
304,312,307,289,2
303,318,305,288,2
303,323,302,288,2
304,325,299,292,2
308,322,297,300,2
312,314,297,309,2
313,303,297,317,2
314,291,298,321,2
314,281,300,322,2
314,276,302,321,2
313,274,305,319,2
313,275,309,315,2
315,278,313,311,2
318,283,317,308,2
319,288,320,305,2
315,293,323,304,2
310,298,325,304,2
305,304,326,302,2
301,312,325,301,2
299,321,323,300,2
298,329,321,299,2
297,335,318,299,2
297,336,314,298,2
297,335,308,297,2
298,330,301,295,2
298,323,296,294,2
299,316,293,292,2
301,312,291,292,2
303,312,291,294,2
304,315,291,295,2
303,320,291,295,2
300,322,291,293,2
298,322,291,292,2
297,320,292,292,2
297,315,294,294,2
299,312,297,296,2
300,310,299,300,2
303,309,301,305,2
304,309,302,309,2
304,308,304,311,2
303,307,306,313,2
303,308,307,315,2
306,310,307,316,2
311,314,307,317,2
314,317,307,318,2
314,320,306,318,2
312,321,304,317,2
308,320,302,315,2
304,315,301,311,2
302,307,301,304,2
302,300,302,299,2
305,295,305,297,2
311,290,307,297,2
315,282,309,298,2
317,272,310,300,2
317,266,310,303,2
315,269,311,307,2
314,278,311,312,2
310,290,311,314,2
305,301,309,315,2
299,307,307,314,2
295,309,305,313,2
294,308,303,313,2
296,308,301,311,2
299,311,301,310,2
301,318,301,307,2
303,328,300,306,2
305,342,299,306,2
307,356,298,307,2
309,365,297,307,2
311,364,297,307,2
311,352,299,306,2
311,332,302,305,2
310,311,305,305,2
311,295,309,305,2
312,288,312,305,2
311,287,314,306,2
311,287,314,306,2
310,288,313,306,2
309,290,312,306,2
308,293,311,304,2
307,296,311,303,2
306,298,310,301,2
306,299,310,298,2
305,299,309,294,2
305,297,308,289,2
305,292,305,283,2
305,286,304,279,2
305,279,303,277,2
305,274,303,279,2
306,273,305,285,2
307,273,306,296,2
307,280,308,309,2
308,293,310,322,2
308,307,310,331,2
306,318,311,336,2
304,326,312,337,2
302,332,313,336,2
301,334,314,333,2
301,333,315,329,2
301,329,315,323,2
301,323,315,318,2
301,319,315,312,2
301,316,314,307,2
300,314,314,303,2
301,313,315,300,2
301,314,318,299,2
302,315,319,300,2
303,317,317,301,2
304,320,310,302,2
306,322,305,301,2
310,326,302,301,2
315,328,301,300,2
319,330,302,300,2
321,329,305,301,2
320,326,308,305,2
318,321,310,310,2
312,314,311,317,2
307,305,309,323,2
301,298,307,327,2
296,293,306,327,2
293,293,306,327,2
291,298,305,325,2
290,306,305,321,2
289,312,304,317,2
291,315,303,312,2
295,314,302,309,2
301,308,301,308,2
303,302,301,308,2
302,295,301,309,2
301,289,303,308,2
301,286,304,307,2
301,286,306,307,2
303,289,308,306,2
304,294,310,305,2
306,301,311,304,2
306,307,311,303,2
305,314,311,303,2
304,321,309,303,2
303,329,307,302,2
302,336,304,301,2
299,339,302,300,2
298,339,299,299,2
299,338,298,301,2
301,335,299,306,2
302,326,301,314,2
304,313,303,321,2
306,298,305,327,2
307,288,307,329,2
307,283,308,328,2
305,282,307,324,2
304,282,305,318,2
304,283,304,311,2
304,284,304,304,2
307,286,304,298,2
309,288,305,294,2
311,290,307,292,2
311,293,310,292,2
311,297,313,292,2
310,301,314,293,2
308,303,314,294,2
308,302,314,296,2
307,301,315,300,2
308,302,317,305,2
310,306,319,310,2
311,309,321,313,2
311,311,322,314,2
309,310,321,314,2
306,310,320,313,2
304,312,319,312,2
304,312,315,311,2
304,310,310,308,2
306,305,304,306,2
308,298,300,306,2
311,290,299,307,2
313,282,299,308,2
314,278,300,310,2
313,280,302,313,2
312,291,304,314,2
309,306,304,315,2
305,320,304,314,2
301,328,303,312,2
298,333,303,309,2
298,335,303,307,2
298,333,303,304,2
298,329,304,301,2
298,324,304,299,2
300,318,305,297,2
302,312,307,296,2
304,307,308,295,2
307,301,308,295,2
309,295,307,296,2
308,293,305,297,2
306,292,304,299,2
305,292,304,302,2
306,293,305,305,2
306,296,307,309,2
307,300,309,312,2
309,304,313,314,2
309,306,317,313,2
309,309,318,312,2
309,311,318,309,2
309,313,317,307,2
310,316,315,305,2
309,320,313,304,2
308,328,312,303,2
306,338,311,303,2
306,347,312,303,2
305,352,313,304,2
306,351,313,306,2
306,345,311,307,2
308,336,308,308,2
310,325,305,309,2
313,316,304,309,2
313,308,302,308,2
311,301,301,306,2
308,294,301,303,2
304,291,302,299,2
300,288,304,297,2
299,286,306,297,2
299,288,308,299,2
300,293,309,303,2
302,302,311,306,2
303,312,311,308,2
304,319,311,308,2
304,319,311,306,2
305,312,311,303,2
305,301,312,301,2
305,291,312,303,2
305,286,311,307,2
307,285,311,313,2
310,288,311,318,2
311,294,312,321,2
312,302,312,321,2
316,308,313,319,2
321,312,314,317,2
319,314,314,314,2
310,316,313,310,2
301,317,311,306,2
296,316,309,301,2
294,310,307,297,2
295,305,306,293,2
298,301,307,289,2
300,297,310,287,2
302,291,313,288,2
305,284,316,291,2
309,279,317,296,2
312,281,318,302,2
314,288,318,307,2
313,295,316,310,2
311,300,312,310,2
309,305,307,310,2
308,308,303,309,2
308,310,301,308,2
310,312,301,309,2
313,313,302,310,2
316,313,303,310,2
317,313,303,309,2
317,310,302,307,2
313,306,302,305,2
308,303,302,304,2
306,305,301,303,2
306,312,302,302,2
307,322,302,300,2
308,335,304,298,2
308,348,308,298,2
308,357,311,298,2
307,359,315,299,2
305,356,318,300,2
303,349,320,302,2
302,342,319,303,2
302,336,315,303,2
304,334,309,302,2
306,333,306,300,2
308,329,304,298,2
311,319,303,296,2
314,304,305,296,2
319,289,310,299,2
325,276,316,307,2
329,270,320,317,2
329,272,322,327,2
327,280,322,335,2
322,289,321,342,2
314,296,320,345,2
305,301,318,343,2
299,305,314,338,2
297,308,310,331,2
298,309,306,321,2
299,309,303,312,2
300,308,300,304,2
301,306,297,298,2
302,302,294,295,2
304,298,291,294,2
307,294,291,295,2
310,290,293,296,2
313,288,297,298,2
315,286,302,301,2
316,286,306,305,2
316,289,307,310,2
314,295,306,314,2
311,302,305,318,2
309,309,304,323,2
306,313,304,328,2
303,316,305,333,2
300,320,307,335,2
298,324,306,334,2
298,326,305,330,2
299,328,304,323,2
301,327,304,314,2
303,326,305,305,2
305,325,307,298,2
307,324,308,293,2
309,322,308,291,2
311,322,306,289,2
314,321,306,289,2
315,320,305,288,2
315,317,305,287,2
315,314,306,286,2
315,313,310,286,2
315,314,313,288,2
314,317,317,289,2
315,319,319,291,2
316,318,319,292,2
316,313,316,292,2
314,307,312,292,2
311,299,308,291,2
309,294,306,292,2
308,290,304,293,2
308,288,302,294,2
310,286,301,295,2
311,284,301,296,2
312,283,302,297,2
311,284,304,299,2
311,289,306,303,2
310,299,308,308,2
308,310,309,313,2
304,321,310,317,2
301,331,312,320,2
302,337,313,321,2
306,337,314,320,2
311,330,312,317,2
314,319,310,314,2
313,308,307,310,2
309,297,306,308,2
307,288,306,307,2
305,284,307,307,2
304,284,307,308,2
302,293,307,311,2
302,306,306,314,2
302,318,306,316,2
303,325,304,317,2
305,325,304,317,2
307,320,304,317,2
309,311,306,317,2
310,302,309,318,2
312,294,312,321,2
313,291,315,324,2
314,296,317,327,2
315,305,318,327,2
316,313,318,326,2
316,316,317,323,2
314,315,314,319,2
311,310,312,315,2
310,304,311,311,2
314,299,313,307,2
319,296,314,304,2
323,293,314,301,2
324,291,310,299,2
316,294,304,298,2
304,301,298,300,2
294,307,294,305,2
289,313,292,311,2
291,316,293,317,2
297,317,298,321,2
304,319,303,321,2
310,321,309,320,2
315,323,313,318,2
318,324,314,314,2
317,327,311,309,2
313,329,306,305,2
306,330,302,300,2
301,330,298,295,2
297,326,296,290,2
295,322,295,286,2
294,320,294,283,2
294,321,293,281,2
295,325,292,282,2
298,330,292,283,2
302,330,292,283,2
302,324,292,283,2
300,314,292,283,2
297,303,294,285,2
297,291,297,290,2
298,282,301,297,2
299,278,305,306,2
302,279,308,316,2
307,283,309,324,2
309,289,311,328,2
308,294,313,330,2
305,295,315,329,2
304,295,315,327,2
304,294,315,322,2
304,291,313,316,2
304,288,310,310,2
305,286,308,306,2
307,288,305,304,2
309,295,302,304,2
311,306,300,305,2
313,318,299,306,2
313,327,298,306,2
312,331,295,305,2
311,329,295,303,2
310,324,295,302,2
309,321,296,303,2
307,319,298,306,2
305,319,298,309,2
304,318,297,313,2
303,313,296,315,2
303,304,295,315,2
305,293,294,315,2
306,285,295,313,2
308,280,296,312,2
309,281,298,311,2
308,286,302,311,2
306,295,305,313,2
304,304,309,314,2
303,310,311,314,2
302,312,312,312,2
301,311,311,310,2
299,309,309,307,2
299,307,305,305,2
300,304,302,305,2
302,300,300,305,2
306,295,300,306,2
308,291,303,308,2
310,290,308,310,2
313,294,314,314,2
317,301,320,319,2
321,313,323,322,2
322,328,323,322,2
320,341,321,320,2
317,351,318,317,2
315,355,313,314,2
313,356,309,311,2
312,354,306,307,2
311,353,303,304,2
311,351,302,301,2
311,345,301,298,2
309,329,299,294,2
304,306,295,290,2
300,278,291,287,2
298,254,289,286,2
297,242,289,287,2
297,243,290,291,2
298,253,292,295,2
302,268,297,299,2
308,282,302,303,2
314,293,309,306,2
318,301,313,307,2
320,303,313,308,2
319,301,309,306,2
313,295,302,302,2
306,288,295,296,2
300,282,290,291,2
294,283,288,288,2
292,292,288,287,2
290,306,289,289,2
288,323,289,292,2
286,337,288,294,2
285,346,288,296,2
286,348,287,297,2
288,344,288,299,2
291,335,290,300,2
295,325,294,304,2
299,315,298,308,2
303,307,303,312,2
306,298,307,314,2
309,287,309,314,2
311,276,309,311,2
311,266,308,308,2
310,263,308,308,2
306,273,307,311,2
303,290,306,315,2
301,304,306,316,2
301,317,308,315,2
304,327,310,314,2
309,334,312,316,2
314,336,314,321,2
318,334,318,325,2
318,328,321,328,2
315,322,323,329,2
314,318,323,330,2
312,317,320,330,2
310,318,314,329,2
309,322,305,328,2
311,328,298,326,2
313,334,294,322,2
311,339,293,317,2
309,343,291,313,2
306,345,290,308,2
304,339,290,304,2
301,328,291,299,2
298,312,291,292,2
296,294,291,285,2
294,277,291,283,2
292,268,291,285,2
293,268,294,293,2
296,278,297,304,2
299,291,300,314,2
299,303,302,320,2
292,311,301,321,2
284,317,296,317,2
279,320,290,309,2
279,319,285,299,2
283,315,283,290,2
290,310,283,284,2
298,305,285,281,2
307,299,288,280,2
313,295,290,279,2
315,292,293,281,2
314,289,296,286,2
312,285,299,292,2
309,282,301,299,2
306,277,305,308,2
303,273,309,317,2
302,276,312,326,2
302,289,315,333,2
303,303,318,336,2
303,315,321,337,2
304,322,323,336,2
305,324,322,334,2
310,322,320,330,2
316,317,321,326,2
321,315,322,323,2
324,315,321,321,2
321,315,316,318,2
315,314,307,313,2
309,315,298,307,2
306,321,289,299,2
305,329,284,291,2
303,340,282,284,2
302,352,282,278,2
301,362,284,276,2
301,364,286,277,2
301,356,286,281,2
302,339,286,287,2
305,319,288,294,2
310,298,295,303,2
314,279,306,313,2
316,269,319,320,2
318,267,326,326,2
317,268,326,328,2
314,270,320,326,2
307,273,310,323,2
303,277,299,321,2
300,282,292,320,2
299,287,289,319,2
300,291,290,318,2
302,295,294,316,2
302,297,300,312,2
303,294,306,306,2
305,288,311,301,2
308,279,314,297,2
313,271,314,296,2
317,267,313,296,2
319,273,311,299,2
317,290,309,305,2
315,315,306,313,2
311,341,302,321,2
305,360,297,326,2
299,368,294,329,2
295,362,293,328,2
292,349,293,327,2
294,336,294,325,2
301,325,296,322,2
307,317,298,317,2
309,312,299,311,2
310,311,301,307,2
312,313,300,306,2
312,314,300,304,2
308,311,298,301,2
304,308,295,298,2
299,306,292,295,2
295,304,291,293,2
294,301,290,292,2
296,299,291,292,2
299,298,293,295,2
302,300,296,298,2
304,302,299,301,2
306,307,301,305,2
308,313,301,307,2
308,319,300,305,2
305,321,298,301,2
304,319,297,295,2
305,312,297,289,2
310,300,295,282,2
314,281,295,274,2
318,262,297,272,2
321,250,300,277,2
323,246,301,289,2
322,248,299,305,2
322,254,300,321,2
323,262,303,333,2
319,271,307,338,2
311,284,310,336,2
301,296,309,332,2
293,306,305,327,2
289,312,301,322,2
288,315,297,317,2
288,315,294,312,2
289,314,292,309,2
291,310,292,307,2
294,306,293,308,2
298,303,296,311,2
302,299,299,318,2
307,297,304,328,2
310,298,307,340,2
312,299,310,349,2
310,301,310,355,2
308,304,310,356,2
307,308,310,353,2
305,313,311,345,2
304,315,314,335,2
304,317,318,327,2
306,319,323,320,2
309,321,327,316,2
312,321,327,311,2
313,318,323,306,2
314,313,316,300,2
313,303,307,294,2
308,292,298,288,2
303,281,291,284,2
299,276,287,282,2
297,277,286,283,2
296,282,287,286,2
297,289,289,289,2
299,298,293,294,2
302,306,296,299,2
305,313,300,303,2
308,317,304,305,2
312,319,308,308,2
315,320,311,310,2
314,315,311,309,2
311,304,309,306,2
309,293,305,305,2
307,285,300,304,2
303,283,297,304,2
298,287,294,304,2
296,295,291,303,2
293,304,289,301,2
290,313,289,299,2
289,322,290,300,2
290,328,292,302,2
294,332,294,305,2
298,334,297,310,2
302,334,298,315,2
304,331,298,318,2
303,324,298,321,2
302,315,297,324,2
300,309,296,327,2
299,309,296,329,2
299,313,296,331,2
300,320,297,331,2
301,328,298,329,2
303,336,300,325,2
305,338,302,320,2
307,330,303,314,2
309,315,305,308,2
312,297,307,302,2
316,280,310,300,2
322,270,312,301,2
329,270,311,304,2
334,277,308,308,2
337,283,302,308,2
333,282,299,304,2
323,278,299,298,2
310,271,301,293,2
303,260,303,293,2
301,249,305,297,2
302,245,307,304,2
304,251,307,310,2
304,261,306,316,2
301,273,304,319,2
295,284,301,320,2
290,291,298,319,2
288,295,296,319,2
288,296,295,319,2
289,296,294,318,2
291,297,292,315,2
293,300,290,315,2
295,306,289,316,2
299,313,291,317,2
303,320,294,318,2
306,325,297,316,2
308,329,302,313,2
309,330,307,309,2
310,329,311,307,2
311,324,314,306,2
310,318,314,305,2
309,310,311,304,2
308,304,308,304,2
309,299,308,307,2
310,299,309,309,2
311,301,310,311,2
309,304,311,313,2
307,308,311,314,2
305,312,309,315,2
301,316,306,316,2
296,319,301,315,2
291,321,293,314,2
292,320,287,311,2
296,311,285,306,2
298,297,285,304,2
299,282,286,305,2
300,274,288,309,2
300,275,291,316,2
300,282,295,322,2
300,294,298,327,2
301,306,302,330,2
303,317,304,328,2
305,325,305,324,2
306,328,305,318,2
305,329,306,313,2
304,328,306,309,2
303,324,305,306,2
301,320,303,302,2
298,317,300,297,2
297,312,299,292,2
299,307,300,287,2
302,301,301,283,2
306,295,304,279,2
311,288,307,280,2
317,284,310,286,2
322,283,312,294,2
323,286,312,300,2
318,290,311,304,2
312,295,310,307,2
305,301,309,309,2
300,308,306,310,2
297,316,302,309,2
294,321,299,307,2
295,323,297,307,2
296,324,297,307,2
297,323,298,308,2
297,320,298,307,2
296,314,298,305,2
294,305,298,304,2
291,298,299,304,2
291,294,299,305,2
291,292,298,306,2
291,289,297,306,2
292,289,298,305,2
293,292,300,302,2
295,297,302,299,2
297,300,304,295,2
299,301,307,293,2
301,299,309,296,2
303,294,311,301,2
303,291,312,308,2
302,291,309,313,2
299,293,304,318,2
301,297,301,321,2
305,301,300,321,2
303,304,302,319,2
297,305,303,316,2
292,303,304,312,2
289,300,305,310,2
288,296,306,308,2
288,291,309,306,2
291,286,312,305,2
294,285,315,304,2
297,289,318,303,2
299,298,318,302,2
300,308,316,302,2
302,315,311,304,2
304,320,305,305,2
303,320,299,307,2
300,316,296,309,2
296,310,297,311,2
292,305,299,314,2
293,304,301,317,2
296,303,303,320,2
300,304,306,322,2
302,303,309,324,2
302,302,312,323,2
302,302,315,321,2
302,302,317,320,2
303,301,318,320,2
304,298,316,319,2
305,294,312,317,2
307,289,308,314,2
310,286,306,313,2
312,286,303,313,2
313,290,301,315,2
312,297,301,319,2
313,303,302,322,2
312,307,303,323,2
311,308,305,322,2
309,309,306,319,2
308,311,305,314,2
310,313,303,307,2
313,315,302,303,2
317,317,301,299,2
319,317,299,296,2
313,316,297,293,2
303,313,293,293,2
296,309,292,296,2
293,304,292,300,2
291,299,293,303,2
291,297,293,306,2
293,298,293,307,2
298,301,294,307,2
303,302,297,308,2
308,305,302,309,2
310,307,306,309,2
310,309,310,308,2
310,312,311,306,2
311,321,312,304,2
313,337,313,301,2
312,352,313,299,2
311,365,313,298,2
311,372,310,296,2
312,374,306,295,2
311,368,303,295,2
306,354,302,295,2
299,333,302,295,2
292,308,302,293,2
287,289,302,292,2
286,275,302,290,2
288,265,302,288,2
289,256,301,287,2
291,250,302,287,2
293,250,303,289,2
298,256,305,294,2
301,265,308,299,2
303,272,310,304,2
303,280,311,307,2
302,287,310,310,2
299,293,310,312,2
297,299,308,314,2
296,304,305,315,2
297,311,304,315,2
299,316,302,314,2
299,320,301,311,2
299,323,300,306,2
300,329,298,302,2
300,337,296,300,2
301,348,295,301,2
302,358,294,302,2
303,361,294,304,2
304,356,294,306,2
305,344,297,308,2
306,328,300,309,2
306,310,304,310,2
307,292,308,312,2
308,277,313,315,2
309,266,319,320,2
311,262,323,326,2
312,264,325,330,2
312,272,324,332,2
311,284,322,333,2
309,298,320,332,2
306,308,317,328,2
304,314,315,322,2
304,316,314,316,2
304,317,312,310,2
305,319,309,306,2
305,322,306,302,2
304,324,304,297,2
304,323,303,291,2
305,319,302,284,2
308,310,298,279,2
312,298,295,275,2
316,285,293,274,2
317,276,296,279,2
317,277,301,288,2
316,282,307,301,2
313,290,312,312,2
308,299,314,320,2
302,309,314,323,2
298,316,311,323,2
297,320,307,322,2
298,322,303,319,2
299,323,300,315,2
300,327,298,312,2
301,333,298,308,2
302,340,299,305,2
305,349,301,303,2
308,359,302,301,2
311,367,302,299,2
313,370,301,297,2
315,368,300,297,2
317,361,300,299,2
319,343,304,303,2
319,318,310,306,2
317,295,314,309,2
314,285,314,310,2
309,287,312,309,2
307,294,309,308,2
309,301,308,308,2
312,307,308,308,2
315,311,308,307,2
315,311,308,307,2
311,305,310,309,2
307,294,313,313,2
304,283,317,318,2
303,274,321,324,2
305,269,325,331,2
308,268,326,335,2
311,268,326,336,2
315,268,324,334,2
317,269,318,329,2
317,272,312,324,2
315,275,308,320,2
313,282,306,316,2
311,294,305,314,2
310,314,303,312,2
310,336,302,310,2
311,356,303,308,2
311,370,305,305,2
305,378,307,302,2
297,380,308,299,2
292,375,307,297,2
290,365,305,295,2
290,355,303,293,2
291,343,301,292,2
293,332,299,291,2
295,324,298,291,2
296,325,299,291,2
298,334,299,291,2
300,353,298,290,2
303,376,298,289,2
306,390,297,290,2
309,382,297,292,2
310,355,299,297,2
312,320,302,306,2
313,284,307,318,2
313,257,312,330,2
311,242,317,339,2
308,240,319,343,2
306,245,319,341,2
304,255,319,335,2
302,267,319,329,2
299,282,319,323,2
298,297,316,317,2
296,311,311,312,2
295,322,307,307,2
295,332,303,302,2
295,339,302,296,2
298,342,301,291,2
305,338,302,286,2
311,330,303,285,2
316,315,305,287,2
317,294,307,289,2
316,269,309,292,2
314,251,311,296,2
310,246,312,300,2
307,249,311,302,2
304,261,308,304,2
303,281,307,306,2
304,307,307,308,2
303,336,309,309,2
301,363,309,306,2
298,384,309,302,2
296,393,309,297,2
296,387,309,293,2
298,366,310,290,2
300,336,314,289,2
303,308,318,291,2
307,288,323,297,2
309,276,325,304,2
308,269,325,312,2
307,263,324,320,2
307,261,324,330,2
309,264,323,338,2
313,271,322,345,2
315,278,321,347,2
317,285,320,345,2
315,290,318,341,2
313,292,317,337,2
313,294,318,333,2
313,296,319,330,2
310,299,321,326,2
308,301,320,320,2
306,302,317,314,2
304,296,310,305,2
301,287,301,295,2
299,285,293,287,2
298,288,288,280,2
298,293,286,273,2
299,297,288,268,2
301,299,292,264,2
304,298,296,265,2
307,296,300,268,2
312,293,303,273,2
317,291,305,281,2
322,287,305,291,2
321,286,305,301,2
316,290,304,309,2
308,299,303,312,2
301,310,304,315,2
298,318,307,320,2
297,322,310,326,2
297,322,310,330,2
294,322,308,333,2
292,322,306,332,2
292,321,304,329,2
292,315,304,323,2
292,304,304,316,2
294,289,305,310,2
299,275,308,307,2
308,267,311,306,2
318,269,314,306,2
327,276,318,308,2
334,287,321,310,2
337,299,321,312,2
331,311,315,312,2
316,320,307,309,2
300,328,300,304,2
290,332,297,300,2
289,333,297,298,2
291,328,300,299,2
293,321,305,301,2
294,313,308,304,2
294,308,310,304,2
294,305,310,303,2
293,304,311,303,2
293,303,312,302,2
293,302,313,301,2
293,297,314,300,2
294,290,315,300,2
294,283,317,300,2
296,279,317,300,2
300,275,315,301,2
303,273,312,301,2
305,277,309,302,2
305,287,306,303,2
305,299,304,303,2
305,310,302,304,2
305,318,301,306,2
305,321,301,309,2
306,321,302,312,2
306,324,302,316,2
306,331,302,321,2
304,343,302,323,2
303,357,303,323,2
302,373,303,320,2
299,386,303,316,2
296,392,302,309,2
294,385,301,303,2
294,370,301,298,2
296,353,302,296,2
298,339,304,295,2
302,323,305,293,2
306,305,306,291,2
310,282,306,289,2
313,259,308,290,2
311,244,310,294,2
307,238,311,300,2
302,243,312,307,2
299,256,314,315,2
297,274,315,321,2
297,293,316,325,2
295,310,314,325,2
293,322,312,323,2
292,325,311,318,2
292,319,311,311,2
294,308,312,303,2
296,295,313,296,2
297,282,314,291,2
298,275,314,288,2
298,274,313,288,2
299,280,312,290,2
302,289,311,294,2
304,299,310,299,2
306,304,309,304,2
306,303,308,306,2
308,297,307,308,2
310,293,306,309,2
312,295,307,312,2
312,302,307,315,2
313,313,308,320,2
315,323,307,325,2
315,328,306,329,2
313,323,306,332,2
309,309,307,333,2
306,293,308,332,2
305,284,308,331,2
307,281,306,330,2
309,284,302,329,2
310,294,298,327,2
309,307,295,325,2
307,321,294,323,2
304,333,296,321,2
301,344,298,319,2
299,351,302,318,2
298,356,306,316,2
297,357,308,315,2
297,352,309,313,2
298,338,307,310,2
299,319,306,305,2
301,303,305,300,2
305,291,304,294,2
313,280,303,288,2
322,271,300,282,2
322,266,298,279,2
316,269,298,280,2
310,275,299,284,2
307,285,301,291,2
306,295,302,298,2
305,304,304,303,2
302,309,304,307,2
300,311,304,310,2
299,312,304,312,2
300,310,303,313,2
301,308,303,312,2
303,311,303,310,2
305,316,303,309,2
307,326,304,306,2
308,337,304,303,2
309,349,305,300,2
309,361,305,297,2
311,370,305,295,2
313,375,306,296,2
316,376,307,299,2
319,376,308,304,2
321,369,308,308,2
319,353,309,312,2
313,325,311,315,2
309,292,313,317,2
307,266,314,319,2
308,250,314,321,2
309,248,314,324,2
310,259,312,328,2
310,278,311,328,2
310,298,309,327,2
309,312,307,325,2
310,318,305,324,2
312,318,303,322,2
313,319,303,323,2
313,324,303,325,2
310,331,304,327,2
307,343,305,326,2
304,354,306,322,2
303,356,309,316,2
303,345,312,309,2
304,320,316,303,2
306,291,319,297,2
307,267,319,292,2
307,252,313,288,2
309,249,306,285,2
311,253,299,283,2
311,262,296,282,2
310,273,295,281,2
309,284,296,281,2
309,293,298,282,2
310,301,300,283,2
310,308,300,284,2
310,314,302,287,2
309,320,305,293,2
309,327,309,301,2
310,336,312,311,2
312,344,311,318,2
313,348,308,321,2
312,349,306,320,2
309,345,305,315,2
306,336,304,308,2
304,321,303,301,2
304,302,302,296,2
305,284,300,293,2
306,272,299,291,2
307,269,298,292,2
308,272,298,294,2
308,276,300,296,2
306,279,301,298,2
305,281,302,300,2
304,286,304,302,2
305,296,305,304,2
308,309,303,302,2
311,320,299,300,2
312,324,295,298,2
313,318,292,298,2
313,304,290,300,2
313,288,290,302,2
310,278,292,304,2
307,273,295,306,2
304,275,298,307,2
301,280,301,309,2
298,288,303,313,2
299,299,304,319,2
301,311,306,325,2
303,321,306,331,2
306,330,306,336,2
309,335,308,338,2
313,337,311,338,2
315,335,313,337,2
316,330,315,335,2
315,325,317,332,2
314,319,317,329,2
314,313,313,325,2
314,310,308,319,2
313,308,303,313,2
310,312,299,305,2
308,319,296,299,2
308,331,294,293,2
308,340,293,289,2
310,342,293,287,2
312,336,292,286,2
313,323,293,286,2
314,307,295,287,2
312,297,298,290,2
309,295,300,295,2
308,298,303,299,2
311,302,307,302,2
317,303,311,304,2
324,303,314,305,2
326,304,315,308,2
324,305,314,310,2
319,308,313,313,2
313,311,311,317,2
305,312,308,320,2
298,315,306,323,2
296,321,304,326,2
297,325,304,326,2
298,326,304,321,2
299,326,305,316,2
300,325,305,310,2
300,323,304,306,2
302,318,302,303,2
303,309,299,300,2
304,298,298,299,2
305,290,299,297,2
306,286,300,297,2
308,288,302,297,2
310,295,305,299,2
312,303,305,302,2
315,308,303,303,2
316,311,299,303,2
317,315,297,301,2
316,316,296,299,2
315,316,297,296,2
315,315,299,294,2
315,312,302,294,2
314,307,304,298,2
313,301,305,303,2
312,291,303,310,2
310,281,300,314,2
307,274,298,319,2
307,278,298,324,2
307,287,300,329,2
305,300,301,332,2
304,311,301,333,2
303,321,302,331,2
303,329,304,329,2
303,337,306,326,2
304,344,308,322,2
307,351,309,316,2
311,354,309,310,2
316,351,308,305,2
319,344,307,301,2
319,335,304,298,2
316,328,301,297,2
314,323,299,297,2
312,316,299,299,2
312,309,300,303,2
312,301,301,306,2
312,292,301,307,2
312,282,301,307,2
313,274,299,306,2
313,269,297,303,2
313,265,296,301,2
315,264,296,300,2
317,267,297,301,2
319,274,299,301,2
318,283,300,301,2
314,290,299,300,2
310,296,297,299,2
308,303,296,299,2
307,309,295,299,2
307,313,295,301,2
307,316,295,303,2
307,318,295,306,2
308,319,294,309,2
308,319,294,310,2
307,319,295,310,2
306,318,296,310,2
305,317,298,308,2
304,317,299,308,2
303,318,300,308,2
303,320,300,308,2
303,323,301,306,2
305,326,300,303,2
307,327,300,299,2
309,326,299,293,2
310,321,298,286,2
310,315,297,280,2
313,309,297,278,2
315,303,299,279,2
317,299,303,283,2
316,299,307,290,2
314,302,311,301,2
316,306,314,312,2
319,309,315,321,2
324,312,315,330,2
329,315,314,336,2
333,315,311,339,2
329,313,307,339,2
318,306,301,337,2
306,300,295,331,2
297,295,289,325,2
293,294,285,320,2
293,294,284,317,2
293,295,284,314,2
293,296,286,309,2
294,298,288,302,2
294,301,291,296,2
295,304,293,290,2
297,307,295,285,2
299,308,298,280,2
301,307,300,277,2
304,304,303,275,2
306,303,306,275,2
308,301,309,280,2
311,302,311,288,2
311,305,310,298,2
309,312,308,306,2
305,319,305,312,2
301,327,303,315,2
298,332,304,318,2
297,334,307,320,2
299,334,308,323,2
301,332,306,326,2
304,328,304,329,2
306,321,302,330,2
307,312,302,330,2
308,302,303,327,2
307,294,304,326,2
308,290,306,324,2
308,291,307,322,2
308,295,306,318,2
307,300,303,313,2
306,307,298,307,2
307,312,292,300,2
307,316,289,293,2
307,318,286,289,2
307,320,285,286,2
307,323,284,285,2
309,327,285,285,2
313,329,287,287,2
318,330,289,289,2
322,330,292,291,2
321,327,294,294,2
315,321,296,296,2
309,316,297,298,2
306,313,296,302,2
305,312,296,307,2
305,312,297,313,2
307,311,300,320,2
309,308,304,326,2
309,300,307,329,2
308,290,308,329,2
306,282,309,328,2
305,277,308,325,2
304,278,306,321,2
304,279,305,318,2
304,280,304,312,2
305,284,304,305,2
306,294,304,297,2
309,304,303,290,2
311,307,300,283,2
311,306,298,280,2
311,305,297,279,2
310,308,297,284,2
310,311,297,292,2
310,317,296,300,2
309,327,294,308,2
309,337,292,312,2
308,347,291,315,2
308,350,291,316,2
307,342,292,315,2
307,325,294,313,2
308,305,296,310,2
310,289,298,309,2
312,276,301,309,2
311,267,304,310,2
308,262,306,312,2
305,262,308,313,2
304,270,311,314,2
304,284,312,316,2
305,299,312,315,2
305,310,310,314,2
307,316,306,312,2
309,318,303,310,2
307,317,302,307,2
305,316,301,305,2
304,315,302,303,2
304,316,301,301,2
304,317,299,298,2
304,319,297,297,2
303,322,295,297,2
302,326,293,299,2
302,328,293,300,2
301,332,295,300,2
301,338,298,300,2
302,345,298,299,2
303,351,297,297,2
305,355,295,296,2
307,353,292,295,2
309,345,291,293,2
312,330,292,292,2
312,310,296,290,2
310,293,298,290,2
308,282,300,291,2
306,274,301,294,2
306,269,303,299,2
308,266,306,305,2
311,264,308,311,2
310,261,311,315,2
309,260,312,317,2
308,261,313,319,2
308,267,312,319,2
308,278,311,317,2
308,287,308,312,2
307,292,307,307,2
306,293,308,303,2
304,292,310,298,2
302,289,313,295,2
302,283,317,294,2
305,281,320,294,2
307,285,319,294,2
307,295,314,293,2
306,310,309,293,2
309,327,305,294,2
314,344,303,295,2
318,359,301,298,2
318,368,300,301,2
316,365,301,303,2
313,348,304,304,2
310,325,307,303,2
309,302,309,301,2
310,285,311,301,2
312,275,311,299,2
313,274,309,298,2
312,280,305,295,2
309,286,302,292,2
306,290,301,290,2
304,292,300,289,2
304,292,301,289,2
305,292,304,290,2
307,295,305,293,2
309,299,306,297,2
311,304,306,302,2
311,306,307,308,2
310,308,308,314,2
308,308,310,319,2
306,309,311,323,2
305,312,313,327,2
305,314,314,330,2
305,315,315,332,2
305,316,314,332,2
304,315,313,331,2
305,314,313,327,2
305,313,312,320,2
306,315,312,314,2
308,318,312,307,2
311,323,313,299,2
315,326,315,290,2
321,326,317,282,2
330,324,319,276,2
335,321,320,275,2
332,316,323,279,2
324,312,327,286,2
315,312,329,293,2
310,311,328,300,2
305,306,325,305,2
302,296,322,307,2
299,284,321,308,2
298,276,320,307,2
295,273,319,307,2
292,274,316,307,2
290,277,314,307,2
288,279,312,308,2
288,283,308,308,2
290,286,306,308,2
292,289,304,308,2
294,291,303,306,2
296,294,302,304,2
297,295,302,303,2
297,297,302,303,2
299,299,302,304,2
301,301,302,305,2
303,302,302,307,2
305,303,302,308,2
307,303,302,310,2
310,304,302,311,2
311,305,303,312,2
311,306,306,313,2
310,308,310,313,2
308,310,313,313,2
307,312,316,313,2
306,314,319,315,2
305,316,321,318,2
307,319,322,323,2
310,326,323,328,2
312,339,321,333,2
312,355,319,334,2
311,372,316,331,2
312,386,313,324,2
313,389,311,312,2
313,376,310,298,2
316,351,312,288,2
321,320,316,283,2
326,287,320,285,2
328,263,321,291,2
325,253,319,299,2
319,252,314,305,2
311,256,308,309,2
304,262,300,312,2
299,270,296,315,2
297,275,294,320,2
296,281,298,326,2
298,286,303,330,2
300,291,307,331,2
301,293,310,328,2
301,295,311,324,2
300,296,311,318,2
299,297,310,313,2
298,298,307,308,2
297,299,305,305,2
297,299,304,302,2
297,299,303,299,2
298,299,302,297,2
299,298,303,295,2
301,298,303,296,2
303,299,305,299,2
304,300,307,303,2
306,303,309,308,2
307,305,310,312,2
306,308,311,315,2
304,311,312,317,2
304,313,313,317,2
306,314,314,316,2
312,314,313,314,2
315,315,312,312,2
316,317,311,311,2
315,319,310,311,2
314,324,309,309,2
311,331,308,306,2
307,340,308,302,2
305,345,310,294,2
305,343,310,286,2
306,334,311,277,2
309,320,309,272,2
311,302,309,271,2
314,282,309,276,2
315,272,311,285,2
