302,310,307,326,1
303,312,308,328,1
302,314,308,327,1
300,316,306,323,1
296,317,304,317,1
291,317,303,311,1
287,317,302,307,1
283,317,301,304,1
281,316,301,303,1
280,315,300,303,1
280,313,299,300,1
282,312,298,297,1
284,310,297,293,1
286,309,296,291,1
292,309,295,290,1
300,309,296,292,1
308,308,298,297,1
314,308,300,302,1
316,307,303,308,1
315,307,307,312,1
313,307,310,315,1
309,307,312,316,1
305,308,313,317,1
301,310,313,319,1
301,314,313,322,1
303,318,312,322,1
305,321,311,318,1
305,321,309,312,1
304,320,307,306,1
302,319,305,302,1
300,317,303,297,1
299,314,301,294,1
298,310,301,291,1
296,306,300,287,1
292,302,298,283,1
290,298,297,280,1
290,296,297,280,1
293,296,299,283,1
298,297,300,288,1
304,301,301,292,1
307,305,302,297,1
309,310,304,302,1
308,315,306,306,1
305,318,307,309,1
303,319,308,313,1
300,318,309,317,1
299,318,310,321,1
299,317,312,326,1
302,317,313,329,1
306,316,313,329,1
308,317,313,325,1
308,319,312,320,1
305,320,311,317,1
302,320,309,317,1
298,318,308,316,1
295,315,305,315,1
296,311,302,313,1
299,308,301,311,1
302,307,300,308,1
305,306,301,304,1
306,306,303,301,1
305,307,304,298,1
304,309,304,297,1
302,312,305,297,1
300,314,306,294,1
299,316,307,291,1
299,317,308,287,1
300,317,308,286,1
301,317,307,287,1
300,316,306,289,1
299,316,305,293,1
298,315,305,297,1
296,314,304,300,1
294,312,303,301,1
293,310,303,303,1
295,308,303,304,1
298,306,304,306,1
302,304,305,305,1
307,302,305,304,1
311,300,306,303,1
317,300,307,304,1
322,301,308,304,1
326,302,309,305,1
323,303,309,303,1
315,304,309,303,1
306,304,309,303,1
300,305,309,303,1
299,307,308,303,1
301,310,305,300,1
303,312,303,296,1
304,315,300,292,1
304,316,298,290,1
303,317,297,289,1
301,317,296,290,1
300,316,297,293,1
301,314,299,296,1
304,312,302,300,1
307,311,305,305,1
309,310,308,310,1
310,310,310,314,1
311,312,312,317,1
312,314,314,319,1
312,315,315,320,1
310,316,316,318,1
309,317,314,315,1
309,318,312,312,1
309,318,309,308,1
307,318,307,303,1
303,317,305,297,1
297,315,305,292,1
290,313,305,291,1
288,313,306,292,1
292,312,309,296,1
297,311,310,300,1
301,309,311,306,1
304,308,311,311,1
306,308,311,316,1
309,308,311,319,1
310,309,310,320,1
311,310,309,317,1
312,311,307,313,1
313,312,306,309,1
314,312,306,306,1
314,312,306,305,1
315,312,305,305,1
315,313,305,305,1
312,314,305,304,1
306,314,304,302,1
299,314,304,299,1
290,313,304,300,1
281,311,303,305,1
275,310,304,312,1
273,309,305,320,1
277,308,305,326,1
282,307,304,328,1
290,305,303,326,1
300,303,302,319,1
310,302,301,309,1
315,302,301,298,1
317,302,300,290,1
317,303,301,287,1
316,305,301,287,1
316,306,303,290,1
317,307,305,295,1
319,309,308,301,1
320,311,311,307,1
318,313,313,312,1
316,313,314,314,1
315,314,314,315,1
317,314,314,314,1
318,315,313,313,1
318,315,312,311,1
317,314,310,308,1
316,314,309,305,1
315,312,308,302,1
316,311,306,297,1
316,310,304,291,1
317,309,303,284,1
317,308,302,277,1
317,307,303,275,1
318,307,304,274,1
319,307,306,275,1
321,309,308,277,1
322,311,309,280,1
322,313,310,282,1
322,315,310,284,1
320,316,310,285,1
318,316,310,287,1
316,315,310,288,1
315,313,310,289,1
314,312,309,292,1
312,312,310,294,1
310,311,310,296,1
308,310,311,298,1
307,307,311,299,1
307,303,310,300,1
307,299,310,301,1
310,295,311,304,1
313,296,313,309,1
317,297,313,313,1
318,298,311,314,1
318,301,310,313,1
318,304,310,312,1
319,308,310,308,1
319,310,310,304,1
318,312,308,301,1
317,313,307,298,1
315,313,306,295,1
313,312,304,292,1
312,311,303,289,1
312,309,302,287,1
314,308,302,286,1
314,306,303,285,1
312,304,303,285,1
309,302,303,286,1
305,301,304,287,1
305,300,306,289,1
306,301,307,293,1
308,302,309,298,1
310,305,311,305,1
311,307,313,311,1
310,310,314,316,1
309,314,313,320,1
309,317,312,323,1
308,318,311,324,1
307,318,309,323,1
305,318,307,320,1
307,318,305,316,1
313,316,304,313,1
318,316,303,310,1
320,314,303,306,1
318,313,303,304,1
313,312,304,304,1
307,311,305,307,1
303,310,305,312,1
301,308,306,316,1
300,306,307,319,1
300,304,307,318,1
299,304,307,316,1
298,304,308,313,1
297,306,308,311,1
297,307,309,308,1
299,308,308,304,1
302,308,306,298,1
306,308,306,291,1
310,308,306,286,1
311,308,306,281,1
310,308,305,276,1
306,307,303,272,1
301,305,301,269,1
298,303,301,268,1
297,302,302,270,1
298,302,304,276,1
302,303,306,283,1
307,304,307,289,1
312,303,308,294,1
314,301,308,298,1
313,301,307,301,1
312,300,307,306,1
312,300,308,309,1
311,300,308,311,1
309,301,308,310,1
306,303,308,308,1
303,304,308,305,1
301,306,308,303,1
300,307,306,301,1
300,307,306,299,1
301,307,304,298,1
304,308,303,298,1
306,309,303,297,1
307,310,303,293,1
306,310,303,289,1
305,308,302,286,1
304,306,301,283,1
304,303,301,283,1
306,300,302,284,1
310,300,303,286,1
313,299,304,287,1
316,298,304,288,1
316,298,304,289,1
316,299,305,291,1
317,300,306,294,1
317,302,306,297,1
317,303,307,300,1
316,304,306,304,1
312,303,305,307,1
304,302,303,310,1
293,300,302,314,1
282,299,300,315,1
272,300,299,315,1
269,301,298,312,1
268,302,297,305,1
272,301,296,297,1
282,299,295,290,1
295,298,295,285,1
307,297,297,282,1
317,296,299,284,1
322,297,302,288,1
323,298,304,293,1
322,298,306,300,1
321,298,309,305,1
320,300,310,308,1
317,302,312,309,1
315,303,312,308,1
311,304,313,305,1
307,304,312,303,1
303,304,312,302,1
300,303,312,301,1
296,302,312,301,1
292,302,311,301,1
287,302,310,302,1
288,302,309,302,1
294,303,309,303,1
299,305,310,304,1
302,305,309,304,1
304,304,308,305,1
306,303,308,307,1
307,302,309,311,1
309,300,310,313,1
311,299,312,314,1
312,299,311,315,1
309,299,311,316,1
305,299,312,315,1
301,300,312,314,1
297,301,311,313,1
295,302,310,311,1
295,304,309,308,1
296,304,307,304,1
298,303,306,298,1
301,303,305,294,1
304,302,305,291,1
307,303,306,290,1
308,303,306,288,1
308,303,305,286,1
308,301,304,285,1
309,300,303,285,1
310,298,302,288,1
311,296,302,292,1
313,296,302,298,1
314,297,303,304,1
313,299,304,307,1
310,301,304,308,1
306,304,304,307,1
305,306,305,305,1
306,308,307,302,1
309,310,308,299,1
309,311,308,297,1
310,311,308,295,1
311,310,307,295,1
313,308,307,296,1
315,306,308,298,1
317,304,309,301,1
317,303,309,303,1
316,302,308,305,1
313,301,307,306,1
313,299,306,307,1
314,297,306,306,1
315,297,306,304,1
315,296,305,300,1
317,296,305,297,1
319,296,305,295,1
319,297,306,295,1
316,297,307,295,1
314,298,307,297,1
310,299,307,298,1
307,301,307,298,1
305,303,309,299,1
303,305,310,299,1
304,307,310,300,1
307,309,310,301,1
310,310,310,302,1
312,309,311,303,1
313,309,312,301,1
312,308,311,301,1
311,306,310,300,1
311,304,308,300,1
312,302,308,299,1
314,301,309,300,1
315,301,311,303,1
316,302,312,307,1
316,304,314,312,1
314,305,316,318,1
311,307,317,323,1
308,309,317,328,1
307,311,317,328,1
306,311,316,324,1
305,312,314,319,1
304,312,313,314,1
303,313,312,310,1
302,312,311,306,1
301,311,310,302,1
301,309,309,297,1
302,307,307,290,1
303,303,305,284,1
305,300,304,282,1
309,296,302,282,1
314,294,302,283,1
319,293,302,286,1
323,293,303,288,1
324,295,303,290,1
324,298,304,293,1
324,301,306,296,1
322,304,307,299,1
320,307,308,301,1
319,309,308,302,1
318,310,308,303,1
317,311,308,303,1
315,311,307,303,1
312,310,306,302,1
310,309,305,303,1
311,308,306,307,1
313,308,307,313,1
314,308,308,320,1
314,307,309,326,1
312,306,310,331,1
310,305,310,333,1
309,304,310,334,1
307,304,310,333,1
306,303,312,333,1
307,304,314,331,1
310,305,316,329,1
311,307,317,327,1
311,307,316,323,1
310,307,315,319,1
308,308,314,314,1
306,309,313,310,1
306,309,312,305,1
306,309,311,299,1
306,309,309,293,1
307,308,308,289,1
307,308,307,286,1
308,309,306,284,1
307,308,305,283,1
306,308,304,283,1
303,306,304,286,1
300,304,303,292,1
295,302,302,298,1
290,301,302,305,1
288,300,302,310,1
287,298,304,313,1
288,298,305,314,1
290,297,306,310,1
294,298,306,304,1
300,299,306,300,1
306,302,307,298,1
309,305,308,298,1
308,307,307,297,1
305,309,306,298,1
302,309,306,299,1
301,309,306,300,1
301,309,306,300,1
303,309,306,298,1
305,307,305,294,1
308,305,305,289,1
310,304,306,287,1
313,303,306,287,1
314,301,307,288,1
315,300,308,292,1
316,300,308,297,1
317,301,308,301,1
317,302,307,305,1
317,304,308,307,1
316,305,310,310,1
317,309,312,312,1
316,311,313,313,1
314,312,313,313,1
313,313,313,313,1
311,314,313,314,1
311,316,313,316,1
312,317,314,319,1
313,317,314,323,1
314,317,313,325,1
314,316,312,327,1
313,313,311,330,1
310,309,309,333,1
308,306,308,335,1
307,303,308,336,1
306,300,308,334,1
307,297,309,332,1
312,296,310,331,1
319,296,311,329,1
324,299,311,326,1
327,302,311,321,1
327,304,310,315,1
323,306,310,310,1
317,307,309,307,1
311,308,309,306,1
304,309,309,304,1
298,311,309,302,1
293,313,308,303,1
291,315,308,304,1
290,315,308,305,1
291,314,308,303,1
294,312,307,300,1
296,309,307,297,1
299,306,306,295,1
302,303,306,293,1
304,300,306,292,1
306,297,306,292,1
307,296,307,291,1
306,297,308,290,1
303,299,308,289,1
300,301,309,287,1
298,303,308,287,1
298,305,308,287,1
301,306,307,288,1
304,307,307,288,1
307,308,306,287,1
309,308,306,287,1
311,307,305,287,1
312,307,305,289,1
312,307,306,291,1
312,306,306,292,1
313,305,307,294,1
313,302,308,296,1
314,299,309,300,1
315,297,311,306,1
317,295,313,313,1
318,294,315,321,1
319,294,317,329,1
320,296,319,336,1
321,298,320,340,1
322,301,321,340,1
320,303,321,337,1
318,304,319,330,1
317,305,317,321,1
317,304,314,313,1
317,304,311,306,1
315,303,309,301,1
313,304,307,298,1
310,304,306,295,1
307,303,305,294,1
305,303,305,294,1
303,302,305,295,1
302,300,305,297,1
301,298,305,299,1
301,296,306,301,1
302,295,308,303,1
304,294,310,305,1
306,295,310,307,1
309,295,309,310,1
312,297,309,313,1
316,298,309,315,1
318,300,309,315,1
318,302,308,314,1
317,304,306,311,1
315,306,303,307,1
312,307,301,304,1
308,307,300,303,1
304,307,299,303,1
303,306,298,302,1
305,305,297,300,1
308,303,297,296,1
312,302,298,292,1
315,300,299,290,1
317,298,299,289,1
317,297,299,289,1
316,296,300,291,1
315,297,301,294,1
316,298,302,299,1
317,300,305,304,1
317,301,307,309,1
316,303,310,313,1
314,304,312,318,1
312,304,313,321,1
310,306,313,322,1
307,307,312,324,1
303,308,311,325,1
300,307,309,325,1
299,305,308,325,1
298,304,308,326,1
299,303,309,327,1
301,303,310,326,1
304,302,309,323,1
307,302,308,318,1
310,301,306,310,1
311,300,305,302,1
311,299,306,298,1
311,299,307,299,1
310,299,309,304,1
310,299,310,311,1
309,300,312,318,1
309,303,313,324,1
308,306,315,325,1
308,310,315,323,1
308,312,314,318,1
309,313,312,312,1
309,313,311,306,1
308,313,310,298,1
305,311,309,289,1
301,309,308,282,1
296,307,306,277,1
291,305,305,275,1
286,303,305,273,1
282,301,304,274,1
281,299,304,276,1
285,297,306,280,1
292,296,308,284,1
298,296,310,288,1
303,296,313,294,1
306,298,315,302,1
306,300,317,311,1
304,302,319,319,1
304,304,320,325,1
308,305,321,327,1
310,307,322,325,1
308,308,322,323,1
304,311,321,320,1
301,313,320,316,1
300,313,319,311,1
300,313,318,306,1
300,312,317,303,1
299,312,316,301,1
298,311,315,300,1
297,310,314,299,1
297,308,313,299,1
297,306,312,299,1
298,304,311,300,1
299,303,311,301,1
299,302,312,302,1
299,302,312,303,1
298,302,313,305,1
297,303,313,306,1
296,304,313,307,1
295,305,313,307,1
293,306,313,307,1
291,308,313,306,1
288,310,313,306,1
284,310,311,307,1
280,309,309,308,1
280,309,307,311,1
281,309,306,314,1
284,309,305,316,1
288,308,304,318,1
291,306,304,319,1
293,305,303,322,1
292,303,302,322,1
289,300,302,320,1
285,298,302,317,1
283,296,303,315,1
285,295,305,315,1
293,296,308,318,1
301,298,311,319,1
305,301,312,320,1
307,304,312,322,1
305,307,311,324,1
302,310,309,324,1
299,313,308,322,1
296,315,308,320,1
293,315,308,317,1
291,313,308,313,1
291,311,307,308,1
292,308,306,303,1
293,305,304,300,1
293,300,302,299,1
292,297,300,301,1
292,295,299,304,1
295,295,299,308,1
299,296,299,311,1
302,297,301,314,1
305,299,303,314,1
307,301,305,313,1
309,304,307,310,1
311,306,308,307,1
312,307,308,305,1
311,307,307,303,1
309,308,307,302,1
307,309,305,302,1
305,309,304,302,1
304,309,304,303,1
303,308,303,303,1
304,308,303,304,1
305,307,303,306,1
307,305,303,308,1
309,303,303,310,1
311,302,303,314,1
310,300,304,318,1
306,299,305,322,1
301,298,306,325,1
296,297,308,325,1
291,297,308,324,1
289,296,309,322,1
291,297,311,320,1
297,299,312,320,1
303,301,313,320,1
308,304,314,319,1
309,308,313,320,1
308,311,312,321,1
306,313,311,320,1
304,314,309,317,1
303,313,308,311,1
302,312,306,304,1
301,311,306,302,1
302,309,306,304,1
303,308,306,309,1
304,307,306,314,1
305,305,307,318,1
306,305,308,321,1
306,305,309,325,1
307,306,312,329,1
307,307,314,333,1
306,310,315,335,1
306,312,316,335,1
304,315,316,332,1
302,317,314,326,1
300,318,312,319,1
299,318,311,311,1
300,317,309,303,1
301,315,308,297,1
300,313,306,294,1
298,310,305,291,1
295,308,304,290,1
293,306,303,289,1
294,305,302,290,1
295,302,301,292,1
297,299,302,295,1
301,297,302,300,1
307,296,304,305,1
312,296,306,311,1
316,297,307,316,1
316,299,308,317,1
312,301,309,314,1
307,303,309,308,1
303,306,309,303,1
300,308,309,297,1
298,309,309,294,1
299,311,307,292,1
300,312,307,294,1
303,312,306,297,1
305,310,305,301,1
305,309,306,306,1
306,308,307,311,1
307,308,309,315,1
308,309,310,318,1
309,309,310,319,1
310,307,309,317,1
310,305,308,316,1
310,304,308,315,1
309,302,308,314,1
309,302,309,313,1
309,302,309,313,1
309,304,309,312,1
309,305,310,312,1
310,307,311,310,1
312,308,311,309,1
312,309,311,307,1
312,309,311,307,1
313,309,311,308,1
312,309,310,310,1
313,309,309,313,1
314,309,308,316,1
314,310,308,320,1
313,310,308,323,1
311,309,308,326,1
309,308,308,326,1
308,306,308,326,1
306,305,308,324,1
305,303,309,320,1
305,303,310,316,1
305,302,311,314,1
304,302,313,313,1
302,302,313,312,1
299,303,314,310,1
295,304,314,306,1
292,305,313,300,1
289,306,311,296,1
288,306,309,292,1
289,306,307,289,1
293,307,306,288,1
297,308,305,289,1
302,309,305,291,1
305,309,305,294,1
306,308,305,297,1
305,306,304,300,1
302,304,304,304,1
300,302,304,307,1
298,300,303,310,1
296,298,304,313,1
296,297,304,316,1
296,297,305,317,1
297,297,305,316,1
299,299,306,316,1
302,302,307,316,1
307,305,308,317,1
310,309,308,317,1
313,312,307,318,1
313,314,306,316,1
313,315,305,314,1
312,315,305,312,1
311,315,304,311,1
308,315,304,310,1
306,316,304,310,1
304,315,302,310,1
304,314,302,310,1
305,311,302,311,1
306,309,302,314,1
309,306,303,318,1
310,305,303,322,1
312,305,304,327,1
313,305,306,330,1
313,306,307,331,1
313,306,309,328,1
313,308,309,321,1
312,308,308,313,1
311,309,307,306,1
311,308,305,302,1
309,308,303,299,1
308,306,301,297,1
306,306,300,296,1
305,305,298,296,1
304,305,297,297,1
304,306,296,297,1
303,306,295,298,1
302,306,295,297,1
300,305,294,296,1
298,304,293,296,1
298,302,294,296,1
299,300,295,297,1
303,300,297,300,1
306,300,299,303,1
309,302,301,308,1
310,304,302,312,1
308,306,303,316,1
305,308,304,319,1
301,310,305,322,1
298,312,306,325,1
296,313,307,327,1
296,313,308,328,1
298,313,307,329,1
300,312,306,329,1
302,311,305,331,1
305,311,304,333,1
307,309,303,333,1
307,306,303,332,1
304,301,301,330,1
298,297,299,327,1
293,294,297,324,1
290,292,296,322,1
290,292,296,322,1
294,295,298,322,1
301,298,300,323,1
309,303,303,323,1
315,307,305,321,1
320,312,306,316,1
321,316,305,309,1
319,318,305,302,1
316,318,304,294,1
313,317,302,288,1
310,316,302,285,1
308,314,301,284,1
307,313,300,285,1
305,312,299,287,1
304,310,298,290,1
304,307,297,294,1
306,304,297,298,1
307,302,298,303,1
309,300,299,309,1
310,300,302,315,1
312,301,304,319,1
313,302,306,321,1
312,304,308,322,1
312,307,309,323,1
311,309,309,321,1
310,310,308,319,1
310,312,308,315,1
310,312,307,310,1
310,312,306,305,1
309,312,305,302,1
305,310,302,301,1
299,309,299,299,1
289,306,297,297,1
280,304,296,297,1
276,303,296,298,1
278,303,297,302,1
285,304,299,305,1
294,304,301,310,1
303,304,302,314,1
311,304,303,317,1
317,304,304,319,1
319,304,305,318,1
318,305,306,317,1
316,306,307,315,1
313,306,306,312,1
311,307,306,309,1
309,309,306,306,1
309,310,305,304,1
310,311,304,302,1
312,312,303,300,1
314,313,302,299,1
315,313,301,297,1
315,313,300,294,1
314,311,299,291,1
312,308,298,289,1
311,306,297,286,1
310,302,297,284,1
309,299,297,284,1
309,297,298,286,1
309,296,300,289,1
307,295,302,295,1
305,297,304,300,1
302,299,306,305,1
298,302,308,310,1
295,305,309,315,1
294,308,309,320,1
297,311,308,325,1
305,313,309,330,1
313,314,309,334,1
319,314,309,336,1
322,315,308,336,1
324,315,307,335,1
325,314,306,331,1
325,312,306,324,1
324,310,305,315,1
323,307,304,307,1
321,304,303,300,1
320,302,302,295,1
319,298,303,294,1
319,296,305,295,1
320,295,306,298,1
320,295,306,301,1
320,296,306,302,1
319,298,306,303,1
317,302,306,302,1
314,305,306,300,1
312,307,305,298,1
310,309,305,298,1
308,310,306,301,1
307,311,306,305,1
307,313,306,310,1
307,313,306,315,1
309,313,306,318,1
311,311,306,321,1
313,310,306,322,1
313,308,305,320,1
312,306,304,315,1
308,303,303,307,1
303,299,303,298,1
300,296,303,290,1
299,294,304,285,1
301,293,304,283,1
304,293,305,283,1
307,295,306,284,1
309,297,307,285,1
309,299,307,285,1
308,301,307,285,1
307,304,306,284,1
305,304,305,283,1
304,305,304,283,1
304,306,304,284,1
304,306,304,285,1
304,305,304,287,1
304,305,304,291,1
307,303,305,296,1
308,303,306,303,1
309,302,306,308,1
308,301,305,312,1
307,300,304,313,1
305,300,304,315,1
304,301,305,316,1
302,302,307,319,1
301,304,309,321,1
300,306,312,325,1
299,308,314,328,1
299,310,315,331,1
300,311,315,333,1
302,311,315,333,1
305,311,315,332,1
306,310,315,326,1
305,309,313,318,1
301,307,310,309,1
297,304,307,302,1
294,302,305,296,1
292,301,304,292,1
294,299,303,288,1
297,297,302,285,1
301,294,301,283,1
305,292,302,285,1
309,293,303,290,1
313,295,306,297,1
315,297,307,303,1
316,299,308,309,1
314,301,309,313,1
311,304,309,318,1
306,306,309,318,1
301,309,309,316,1
300,312,308,313,1
300,314,308,311,1
301,315,308,309,1
300,315,308,308,1
299,315,309,307,1
299,315,309,308,1
301,314,308,308,1
305,312,307,309,1
309,310,304,307,1
312,308,301,306,1
315,305,299,306,1
317,303,299,306,1
319,301,299,304,1
321,299,301,300,1
320,298,302,298,1
319,298,303,298,1
316,298,305,298,1
312,300,305,300,1
309,302,305,299,1
305,303,305,298,1
301,305,305,297,1
300,306,304,297,1
298,307,305,296,1
298,307,305,297,1
296,307,306,297,1
294,307,306,298,1
289,308,306,300,1
287,308,306,301,1
287,307,306,301,1
286,306,305,301,1
285,304,304,302,1
284,303,303,302,1
284,301,302,304,1
288,300,303,307,1
296,300,304,312,1
305,300,305,317,1
314,301,307,321,1
318,303,310,325,1
320,306,311,328,1
321,309,312,329,1
322,311,311,327,1
323,312,309,322,1
323,313,308,315,1
322,313,307,307,1
321,312,307,301,1
320,312,307,298,1
318,311,307,297,1
317,311,306,297,1
316,310,305,298,1
315,309,304,299,1
314,307,303,299,1
314,306,302,299,1
313,305,302,300,1
312,304,302,300,1
312,304,302,302,1
312,304,303,305,1
312,304,304,309,1
310,304,305,314,1
308,305,306,319,1
306,306,306,324,1
305,308,307,329,1
304,311,308,333,1
303,312,309,336,1
301,314,311,336,1
299,314,312,331,1
297,313,311,324,1
296,311,310,318,1
296,310,308,313,1
297,308,306,309,1
299,305,304,304,1
301,302,301,299,1
302,299,299,293,1
304,297,298,290,1
308,296,299,292,1
313,297,302,294,1
316,298,304,297,1
318,300,306,298,1
317,303,308,301,1
315,307,308,302,1
312,310,308,302,1
308,313,307,302,1
304,314,307,301,1
300,315,306,301,1
297,315,306,303,1
295,314,305,305,1
294,314,304,307,1
294,314,303,308,1
295,314,303,306,1
297,313,302,303,1
298,310,302,300,1
301,308,301,300,1
303,306,301,302,1
306,306,302,304,1
307,305,304,308,1
308,306,305,311,1
308,306,307,314,1
307,306,308,317,1
305,307,310,319,1
303,308,311,320,1
300,308,311,322,1
297,309,311,325,1
295,310,311,329,1
294,311,311,333,1
294,313,310,336,1
295,314,309,335,1
296,314,308,332,1
297,312,307,326,1
298,310,306,319,1
300,307,304,313,1
302,304,303,306,1
304,302,301,302,1
306,300,300,299,1
307,298,301,298,1
305,297,302,299,1
303,296,303,301,1
299,296,305,303,1
298,298,307,304,1
297,299,308,305,1
298,301,309,305,1
301,302,309,305,1
305,304,309,304,1
310,304,309,304,1
314,305,309,305,1
315,305,309,305,1
314,306,309,304,1
313,307,308,305,1
311,307,308,306,1
309,307,308,307,1
308,306,308,308,1
308,305,307,309,1
309,304,307,312,1
310,302,307,314,1
312,301,307,316,1
313,301,308,317,1
314,302,309,318,1
315,304,311,319,1
315,308,313,320,1
315,312,315,318,1
314,316,316,315,1
311,318,317,314,1
308,320,317,313,1
306,320,316,313,1
305,320,316,313,1
305,319,316,315,1
305,318,317,316,1
306,317,318,318,1
307,316,320,319,1
309,315,321,318,1
311,313,322,316,1
313,311,322,313,1
316,308,320,310,1
319,306,318,306,1
321,304,315,304,1
321,304,312,302,1
321,304,310,301,1
319,305,307,302,1
318,307,305,303,1
316,309,303,304,1
312,311,302,303,1
308,312,301,302,1
303,313,301,299,1
300,312,301,298,1
297,312,301,298,1
297,311,302,299,1
297,311,303,302,1
298,311,303,305,1
299,310,305,308,1
299,309,306,310,1
300,307,307,312,1
302,306,307,313,1
304,304,308,316,1
306,303,308,319,1
308,302,309,323,1
310,303,314,327,1
312,303,320,329,1
312,305,325,329,1
311,306,329,328,1
310,308,330,325,1
308,309,328,322,1
306,309,326,319,1
305,308,322,316,1
303,308,315,313,1
296,308,306,306,1
285,307,298,299,1
278,305,292,291,1
274,304,289,284,1
275,303,287,280,1
278,302,287,278,1
281,300,288,276,1
286,299,289,276,1
293,298,290,278,1
301,297,293,282,1
308,295,296,286,1
317,294,300,291,1
324,294,304,297,1
333,296,307,304,1
341,301,310,311,1
345,307,312,315,1
346,311,312,317,1
342,315,314,317,1
338,318,315,317,1
333,321,317,319,1
330,322,317,320,1
327,322,317,322,1
326,322,317,322,1
326,320,319,320,1
326,317,321,314,1
324,315,320,308,1
321,312,318,301,1
318,308,315,296,1
316,305,312,294,1
313,302,310,295,1
311,300,309,296,1
311,299,308,298,1
311,299,308,299,1
311,299,308,300,1
311,300,310,300,1
311,302,312,301,1
309,304,314,301,1
307,307,318,303,1
306,310,322,305,1
305,313,326,308,1
304,315,327,313,1
302,315,326,318,1
301,315,325,323,1
300,314,323,328,1
302,314,318,334,1
303,312,314,337,1
304,310,310,337,1
303,307,307,335,1
304,304,305,332,1
305,300,303,327,1
307,298,300,320,1
309,295,297,314,1
310,294,294,308,1
309,293,291,304,1
308,294,291,301,1
308,297,292,298,1
309,300,296,295,1
312,303,300,292,1
315,306,304,289,1
318,308,307,290,1
319,310,309,293,1
319,311,312,297,1
319,312,313,303,1
318,313,314,306,1
316,314,313,307,1
315,314,312,304,1
313,314,310,302,1
311,312,309,298,1
310,309,310,296,1
309,305,313,295,1
309,302,317,295,1
310,302,321,297,1
312,303,322,300,1
314,306,323,303,1
314,308,321,306,1
314,311,319,309,1
314,313,316,310,1
314,314,314,310,1
314,315,312,308,1
313,315,312,306,1
310,315,312,305,1
306,315,312,303,1
303,313,311,302,1
301,311,310,299,1
300,309,308,297,1
299,307,307,296,1
295,305,306,295,1
291,304,305,295,1
293,303,305,296,1
299,302,306,299,1
308,300,307,304,1
316,298,309,307,1
321,298,311,311,1
323,299,313,315,1
322,302,314,317,1
320,305,314,318,1
317,307,314,317,1
314,310,314,316,1
313,312,313,313,1
312,312,311,309,1
311,313,309,305,1
311,313,307,301,1
311,312,306,298,1
311,312,306,294,1
311,312,305,291,1
309,311,306,288,1
307,310,306,286,1
304,308,307,285,1
301,306,308,286,1
298,304,311,290,1
297,303,313,295,1
297,301,314,299,1
298,300,313,300,1
300,299,312,299,1
304,298,312,299,1
308,299,313,299,1
312,301,313,299,1
315,302,313,300,1
315,304,313,301,1
314,308,313,305,1
311,312,314,311,1
309,317,316,317,1
309,318,317,319,1
310,316,317,318,1
311,314,317,314,1
312,311,316,309,1
314,308,314,303,1
315,305,313,299,1
315,302,312,296,1
316,300,311,294,1
318,298,310,292,1
319,297,310,292,1
320,298,309,292,1
320,299,308,292,1
317,301,308,292,1
312,302,307,291,1
307,304,307,290,1
302,305,306,290,1
297,306,307,291,1
294,306,307,294,1
293,306,307,298,1
295,306,307,302,1
298,306,307,306,1
301,306,307,310,1
305,307,306,314,1
309,310,305,315,1
312,312,304,314,1
315,313,304,311,1
317,313,304,308,1
319,311,306,307,1
322,310,309,309,1
323,309,312,312,1
323,309,314,315,1
323,308,316,315,1
324,308,317,312,1
325,308,316,307,1
324,308,314,302,1
324,309,313,297,1
325,309,312,291,1
325,310,313,285,1
325,310,315,280,1
324,309,317,278,1
321,308,318,278,1
315,307,317,278,1
307,305,314,279,1
299,304,310,279,1
292,302,306,280,1
287,300,302,281,1
285,300,298,283,1
283,301,297,285,1
285,301,297,288,1
292,302,298,292,1
300,303,300,298,1
306,305,303,303,1
312,308,305,307,1
315,311,306,311,1
317,313,307,314,1
317,315,309,317,1
316,318,310,319,1
315,320,309,322,1
314,321,307,326,1
313,321,305,330,1
311,320,303,333,1
311,318,300,331,1
311,316,299,325,1
312,312,298,317,1
314,309,298,309,1
315,306,297,301,1
316,303,297,296,1
315,301,297,293,1
314,300,297,293,1
313,300,298,296,1
313,300,298,300,1
313,301,298,305,1
315,302,299,310,1
316,304,300,311,1
314,305,300,309,1
310,307,300,306,1
308,308,298,302,1
306,307,297,298,1
305,306,295,296,1
303,305,294,296,1
299,304,293,298,1
293,304,292,301,1
285,305,291,303,1
280,306,291,303,1
279,306,291,303,1
281,306,292,303,1
284,305,294,302,1
290,304,295,302,1
297,303,297,303,1
303,302,300,304,1
307,302,302,305,1
310,303,303,306,1
311,305,303,306,1
311,308,302,305,1
309,310,300,304,1
307,312,297,301,1
305,312,296,300,1
303,312,295,298,1
302,312,296,297,1
302,311,298,295,1
302,310,299,294,1
303,310,301,295,1
303,310,302,297,1
303,309,302,300,1
301,308,302,302,1
300,306,302,305,1
299,305,302,307,1
298,303,302,310,1
297,300,302,313,1
296,299,302,315,1
295,299,303,317,1
294,299,304,316,1
294,301,305,314,1
294,302,305,310,1
294,304,303,305,1
295,305,301,299,1
298,306,298,295,1
301,308,297,292,1
304,309,298,291,1
307,310,299,290,1
308,310,300,290,1
308,310,300,290,1
307,309,300,292,1
305,308,300,294,1
304,307,299,297,1
303,307,300,301,1
303,307,300,305,1
304,307,303,310,1
306,308,308,315,1
307,309,313,321,1
308,310,318,325,1
308,310,321,329,1
308,309,322,332,1
307,309,320,333,1
306,309,316,332,1
307,310,310,329,1
306,311,305,323,1
302,311,300,316,1
296,310,295,307,1
291,309,292,298,1
287,307,291,291,1
286,307,291,286,1
287,307,291,285,1
291,307,294,287,1
294,305,298,291,1
295,303,300,297,1
294,301,302,306,1
296,300,305,315,1
300,301,307,325,1
305,302,311,333,1
309,304,313,337,1
310,306,315,336,1
311,309,315,333,1
310,313,315,328,1
308,317,313,319,1
307,319,311,309,1
306,319,307,299,1
306,318,304,291,1
305,315,302,286,1
304,312,300,283,1
303,310,300,282,1
304,309,300,282,1
304,308,301,284,1
305,307,302,286,1
304,305,302,289,1
303,303,303,292,1
301,302,304,295,1
297,302,303,298,1
291,302,304,301,1
287,303,305,304,1
286,305,306,307,1
288,307,307,310,1
292,310,308,312,1
297,313,309,313,1
303,314,310,314,1
310,316,310,315,1
318,316,309,317,1
321,316,308,319,1
320,315,306,320,1
316,314,304,321,1
311,312,302,321,1
305,310,300,320,1
303,308,299,317,1
303,307,299,313,1
305,306,298,308,1
307,304,298,303,1
308,302,299,299,1
308,301,300,298,1
308,300,302,298,1
307,300,304,300,1
305,301,307,302,1
303,303,309,305,1
305,305,310,309,1
308,307,311,313,1
313,309,311,315,1
315,311,310,315,1
316,313,309,315,1
315,314,308,314,1
312,316,307,313,1
311,316,307,312,1
311,316,306,312,1
311,315,305,312,1
312,314,304,313,1
313,312,303,314,1
313,309,302,316,1
313,306,302,318,1
313,304,304,320,1
314,302,307,321,1
316,301,313,322,1
316,301,318,323,1
314,302,320,324,1
311,303,321,326,1
309,306,320,327,1
306,308,317,324,1
303,310,311,318,1
301,309,305,311,1
300,309,300,301,1
298,307,296,293,1
295,306,294,287,1
292,305,295,286,1
287,305,296,287,1
282,305,297,289,1
279,305,297,290,1
279,304,296,288,1
284,303,294,288,1
294,302,293,290,1
306,300,294,295,1
316,298,295,301,1
321,298,297,307,1
324,299,300,312,1
323,302,303,316,1
322,305,305,319,1
319,308,307,320,1
316,312,308,320,1
312,315,308,319,1
310,316,307,317,1
308,317,305,315,1
307,317,303,314,1
306,317,300,313,1
305,316,299,312,1
304,316,298,311,1
304,315,299,308,1
303,314,300,305,1
304,312,300,302,1
305,310,300,298,1
309,307,300,298,1
313,304,301,299,1
316,301,303,302,1
316,299,306,305,1
313,298,310,310,1
309,298,313,316,1
305,300,315,324,1
302,302,317,331,1
301,305,318,333,1
299,308,318,332,1
298,311,318,331,1
299,314,317,329,1
299,316,317,327,1
298,316,316,325,1
296,316,313,321,1
296,315,310,318,1
297,315,308,314,1
297,315,307,310,1
298,314,306,305,1
299,312,306,301,1
300,309,308,299,1
301,306,310,300,1
302,303,313,301,1
301,300,314,303,1
301,298,315,304,1
301,298,316,305,1
301,299,315,304,1
300,300,314,302,1
298,302,311,299,1
296,304,307,296,1
294,305,305,294,1
293,305,303,292,1
294,305,301,290,1
294,305,298,290,1
293,305,296,290,1
291,304,294,291,1
288,303,293,294,1
286,301,293,297,1
283,298,295,300,1
284,297,297,303,1
287,297,298,305,1
293,297,300,308,1
298,299,302,312,1
301,301,305,314,1
303,303,307,314,1
303,305,308,314,1
303,306,309,314,1
302,307,310,315,1
300,309,312,315,1
298,310,312,316,1
295,312,312,315,1
292,313,309,314,1
290,313,307,313,1
288,312,304,313,1
285,310,301,312,1
283,308,299,311,1
281,307,298,310,1
283,307,298,309,1
290,306,298,306,1
300,305,299,303,1
310,302,300,300,1
318,300,300,299,1
323,298,301,299,1
325,298,302,301,1
324,298,304,304,1
321,299,306,308,1
319,301,308,313,1
316,304,310,317,1
312,308,311,319,1
309,311,312,321,1
306,314,312,322,1
304,316,312,325,1
303,317,311,328,1
301,317,311,331,1
300,317,310,334,1
300,317,310,337,1
300,316,309,338,1
301,315,308,338,1
302,313,306,335,1
302,310,305,330,1
302,309,304,325,1
303,307,304,321,1
304,305,304,318,1
307,302,304,316,1
311,299,305,316,1
313,297,307,320,1
315,297,309,325,1
317,300,310,331,1
316,304,311,335,1
314,308,310,335,1
311,312,310,335,1
308,313,311,334,1
306,314,312,335,1
305,315,313,336,1
303,314,313,335,1
300,312,311,332,1
297,309,309,329,1
294,306,308,326,1
293,303,309,324,1
294,302,313,323,1
295,301,317,322,1
295,299,320,321,1
296,296,320,318,1
297,294,319,315,1
300,293,316,312,1
303,292,312,307,1
304,292,307,303,1
305,294,303,299,1
304,296,299,295,1
302,297,297,293,1
298,299,296,292,1
295,300,295,293,1
295,301,296,296,1
294,302,296,301,1
293,304,297,306,1
291,305,299,308,1
288,306,300,310,1
288,306,302,311,1
291,305,302,312,1
296,305,301,312,1
301,303,300,310,1
306,302,300,309,1
311,300,300,308,1
315,299,301,307,1
318,299,302,308,1
319,299,304,309,1
319,300,305,311,1
316,302,306,312,1
312,305,305,312,1
307,306,304,311,1
303,307,303,309,1
299,307,303,308,1
295,308,303,309,1
291,309,303,309,1
288,309,303,310,1
288,309,302,310,1
289,308,301,309,1
290,306,298,308,1
291,303,295,308,1
292,300,293,308,1
294,297,291,309,1
296,293,290,310,1
295,290,291,312,1
297,289,293,316,1
300,290,296,321,1
304,292,299,327,1
307,297,302,331,1
308,301,305,335,1
308,307,306,338,1
306,310,307,339,1
304,312,307,340,1
303,314,308,339,1
302,314,309,339,1
302,314,310,338,1
301,314,310,338,1
300,314,311,337,1
299,313,311,333,1
299,312,312,328,1
299,310,310,322,1
299,307,309,319,1
299,305,307,318,1
299,303,306,322,1
301,302,306,328,1
304,301,306,335,1
306,301,308,342,1
307,302,310,347,1
306,302,312,349,1
303,302,312,345,1
299,302,311,336,1
296,301,310,327,1
294,301,310,321,1
293,301,309,319,1
292,303,309,318,1
290,305,309,318,1
288,307,309,317,1
288,308,309,315,1
290,309,308,314,1
293,309,307,311,1
297,308,305,307,1
302,306,304,303,1
307,303,303,301,1
310,300,302,300,1
312,298,302,301,1
314,297,303,303,1
315,296,304,305,1
315,297,307,308,1
315,299,309,311,1
313,301,311,315,1
312,305,312,319,1
309,308,312,324,1
306,310,311,328,1
302,312,309,331,1
299,312,307,334,1
296,312,305,337,1
294,312,304,339,1
292,312,303,337,1
293,311,304,332,1
296,309,305,327,1
300,307,308,322,1
302,304,310,316,1
303,301,311,310,1
304,299,311,306,1
306,297,310,305,1
308,296,308,303,1
309,295,305,302,1
310,295,303,302,1
309,296,302,304,1
307,299,302,307,1
305,301,301,309,1
303,303,300,310,1
302,303,299,312,1
303,304,299,313,1
303,305,299,314,1
303,305,299,314,1
299,306,299,313,1
294,306,299,314,1
290,306,301,315,1
288,305,303,318,1
289,305,304,323,1
291,304,304,327,1
295,303,303,331,1
299,301,302,334,1
305,300,301,336,1
310,298,301,336,1
314,298,302,335,1
317,298,303,333,1
318,300,305,332,1
317,302,306,329,1
313,304,307,327,1
309,306,307,325,1
306,306,305,322,1
305,306,303,317,1
307,305,300,311,1
309,304,299,305,1
311,302,299,302,1
311,301,299,301,1
310,300,301,301,1
310,300,304,303,1
309,300,305,305,1
309,300,306,306,1
309,300,305,308,1
308,300,304,310,1
306,299,302,312,1
304,298,301,315,1
302,298,302,320,1
300,298,303,327,1
299,298,304,335,1
300,300,306,343,1
304,302,308,349,1
307,304,310,355,1
309,306,312,360,1
310,307,313,361,1
309,308,313,360,1
305,308,312,356,1
302,309,312,353,1
302,310,310,348,1
304,310,307,341,1
307,310,303,332,1
310,307,299,322,1
311,304,295,312,1
311,301,293,304,1
310,298,291,299,1
309,296,291,297,1
307,295,290,294,1
305,295,290,291,1
302,295,291,290,1
298,296,294,291,1
294,298,296,294,1
289,301,298,298,1
284,304,300,302,1
281,307,301,307,1
280,309,301,312,1
284,312,301,318,1
291,314,302,322,1
298,316,304,326,1
304,316,306,327,1
306,316,308,329,1
306,314,311,331,1
307,313,314,333,1
312,310,315,333,1
315,307,315,332,1
316,303,313,330,1
317,300,310,327,1
317,298,306,323,1
318,296,303,320,1
318,296,301,316,1
318,298,299,312,1
318,300,298,308,1
316,302,299,306,1
313,303,300,305,1
310,305,302,305,1
308,307,304,307,1
307,309,304,308,1
306,309,303,308,1
306,309,301,309,1
305,309,300,310,1
304,307,299,312,1
304,306,299,312,1
305,304,298,313,1
306,301,298,312,1
306,298,298,311,1
306,295,297,309,1
306,294,297,308,1
306,292,298,307,1
305,292,299,308,1
302,292,301,311,1
300,294,302,315,1
297,296,303,319,1
296,299,304,323,1
297,302,305,327,1
297,305,305,330,1
299,309,303,331,1
300,312,301,330,1
300,314,299,327,1
299,314,298,324,1
298,314,297,322,1
297,313,297,320,1
297,312,297,318,1
299,310,296,314,1
300,308,296,311,1
301,306,297,308,1
302,305,297,307,1
304,304,298,310,1
305,305,299,315,1
306,305,301,320,1
305,307,304,325,1
305,309,306,327,1
304,311,308,328,1
303,312,310,326,1
303,312,311,323,1
302,312,312,321,1
302,313,311,319,1
301,313,310,318,1
300,313,307,316,1
298,312,305,316,1
297,311,305,316,1
297,309,307,316,1
298,308,310,317,1
297,307,312,320,1
294,306,312,323,1
292,305,311,324,1
294,304,309,324,1
300,303,307,323,1
307,303,306,323,1
311,305,305,324,1
313,306,304,325,1
312,307,304,325,1
308,307,304,326,1
303,308,304,327,1
298,309,303,327,1
295,311,302,327,1
294,313,303,328,1
293,314,305,328,1
291,314,309,326,1
291,313,314,323,1
296,312,318,320,1
304,311,321,319,1
311,311,321,319,1
316,310,319,319,1
320,309,315,317,1
323,306,308,314,1
324,303,302,310,1
324,300,297,306,1
323,298,295,303,1
321,296,294,302,1
320,295,295,303,1
319,296,296,304,1
317,297,297,305,1
316,298,299,303,1
316,300,300,302,1
316,302,301,302,1
318,304,301,304,1
319,306,302,307,1
319,308,303,311,1
317,309,303,315,1
313,310,303,317,1
309,310,303,318,1
305,310,302,318,1
303,310,301,315,1
300,309,300,310,1
298,306,299,308,1
299,303,300,308,1
301,302,301,310,1
304,302,302,313,1
307,302,303,318,1
308,301,304,323,1
309,302,306,328,1
309,304,308,332,1
309,307,311,334,1
309,310,313,336,1
309,313,314,337,1
309,315,314,338,1
310,316,313,339,1
310,317,312,341,1
310,318,311,341,1
310,317,310,341,1
310,316,310,340,1
307,313,309,339,1
302,310,308,336,1
296,307,307,332,1
290,303,306,326,1
287,300,305,319,1
284,298,304,313,1
285,297,304,307,1
293,296,306,304,1
305,297,309,304,1
316,300,312,308,1
322,303,313,313,1
324,306,314,315,1
324,309,312,314,1
322,311,310,310,1
319,311,308,306,1
316,311,306,303,1
315,310,306,303,1
314,310,306,304,1
314,310,306,306,1
313,311,307,310,1
312,311,308,315,1
310,310,309,319,1
307,308,308,321,1
305,304,308,325,1
303,302,309,328,1
302,300,311,333,1
304,300,314,338,1
308,300,315,341,1
310,301,316,342,1
310,303,315,341,1
309,305,314,336,1
309,307,314,330,1
307,307,313,324,1
303,307,312,318,1
299,305,310,315,1
300,304,309,314,1
306,303,309,315,1
310,302,310,317,1
313,302,312,321,1
314,303,313,326,1
315,305,314,332,1
315,306,314,334,1
313,307,313,333,1
311,307,312,328,1
311,307,310,320,1
311,306,309,311,1
311,304,307,302,1
311,302,306,296,1
312,302,307,293,1
313,303,307,291,1
312,305,307,289,1
310,307,307,287,1
307,308,307,285,1
304,309,307,283,1
302,309,307,281,1
301,309,306,282,1
300,309,306,283,1
300,308,307,285,1
299,308,308,288,1
298,307,309,291,1
296,306,310,295,1
293,305,310,299,1
291,304,308,303,1
288,303,307,306,1
284,301,305,309,1
282,300,304,312,1
283,300,304,316,1
286,302,305,320,1
292,306,307,325,1
297,310,309,330,1
304,314,311,336,1
311,318,313,340,1
318,320,313,341,1
323,320,312,341,1
326,319,311,339,1
327,318,311,335,1
327,316,311,328,1
323,314,311,319,1
317,312,310,311,1
309,310,310,306,1
302,308,310,303,1
295,306,310,301,1
290,304,311,301,1
288,303,310,301,1
290,302,310,301,1
297,300,309,302,1
302,299,310,306,1
307,299,310,311,1
309,300,311,317,1
309,301,312,321,1
307,302,312,325,1
305,305,313,327,1
303,307,314,327,1
302,309,315,325,1
302,310,315,322,1
304,309,315,320,1
306,309,314,318,1
308,308,312,315,1
310,307,310,312,1
310,306,308,308,1
309,305,306,305,1
307,303,304,303,1
304,302,304,303,1
302,300,304,303,1
303,298,304,305,1
306,296,305,308,1
309,294,306,312,1
312,294,307,317,1
314,295,309,325,1
315,298,311,333,1
314,301,313,338,1
311,303,314,339,1
307,305,314,338,1
303,307,313,335,1
302,308,312,332,1
301,309,311,328,1
301,311,310,326,1
302,313,310,325,1
304,314,310,324,1
306,315,311,325,1
306,316,311,327,1
306,314,311,329,1
305,312,311,331,1
304,308,311,331,1
304,305,312,329,1
305,301,312,323,1
305,299,311,316,1
306,297,310,312,1
306,297,308,309,1
305,299,307,308,1
303,302,306,308,1
301,304,306,307,1
298,305,306,303,1
295,305,306,299,1
293,305,306,298,1
294,306,307,299,1
296,307,308,303,1
298,307,308,307,1
299,307,308,312,1
300,308,307,315,1
300,308,308,315,1
299,308,307,312,1
297,307,306,307,1
297,306,306,304,1
298,304,307,304,1
298,302,307,305,1
299,299,308,307,1
304,298,308,308,1
313,297,309,309,1
320,298,310,310,1
323,299,310,313,1
321,301,310,315,1
316,303,311,316,1
312,305,311,317,1
310,307,313,316,1
311,308,314,315,1
313,309,315,313,1
314,309,315,309,1
313,308,316,305,1
311,308,315,304,1
309,307,315,305,1
307,307,314,307,1
305,306,313,307,1
304,304,312,306,1
304,301,311,305,1
307,299,309,304,1
311,297,308,303,1
314,297,307,304,1
318,297,308,304,1
321,298,308,305,1
321,300,307,306,1
318,303,307,306,1
314,306,307,307,1
310,309,307,309,1
307,311,307,312,1
305,313,307,316,1
305,313,307,319,1
307,313,309,321,1
308,312,309,323,1
306,309,309,323,1
304,307,308,321,1
300,304,307,318,1
295,301,306,314,1
290,297,304,310,1
285,293,302,307,1
281,291,301,306,1
283,292,302,307,1
290,294,305,309,1
300,298,308,312,1
310,302,311,313,1
317,306,313,312,1
320,309,313,310,1
320,311,313,307,1
319,313,313,306,1
316,314,313,306,1
314,316,313,308,1
312,317,313,312,1
309,318,314,316,1
307,317,314,321,1
304,316,313,326,1
302,315,312,328,1
302,313,311,328,1
304,311,310,325,1
306,308,309,320,1
308,304,307,313,1
308,301,304,307,1
308,299,302,302,1
308,298,301,300,1
307,299,303,300,1
306,300,305,302,1
305,303,308,304,1
307,306,310,306,1
309,309,310,307,1
310,311,310,307,1
310,312,309,307,1
309,312,309,307,1
306,312,308,306,1
300,310,307,306,1
294,309,307,307,1
293,309,307,308,1
294,308,307,308,1
297,307,306,305,1
299,304,306,303,1
302,302,305,301,1
305,300,304,300,1
310,297,304,301,1
314,295,304,303,1
318,296,306,308,1
320,299,308,312,1
322,300,310,315,1
321,302,312,318,1
318,305,313,320,1
313,307,314,321,1
308,309,314,320,1
304,310,313,319,1
302,310,312,316,1
300,310,310,314,1
299,310,308,311,1
298,310,307,309,1
299,310,307,308,1
300,309,308,307,1
299,308,308,307,1
298,306,308,306,1
296,304,307,304,1
295,303,307,303,1
295,302,308,303,1
297,300,309,303,1
300,300,311,305,1
303,300,314,309,1
307,301,317,314,1
308,302,318,317,1
307,303,318,318,1
304,304,317,319,1
303,304,316,322,1
304,305,317,326,1
306,306,319,330,1
307,308,323,333,1
309,309,325,334,1
309,311,325,332,1
309,311,324,327,1
309,312,321,322,1
309,312,316,315,1
309,311,309,309,1
308,309,304,305,1
308,306,300,302,1
309,303,298,300,1
311,301,298,299,1
313,300,299,300,1
314,299,302,301,1
314,299,304,304,1
312,300,306,307,1
311,302,309,310,1
311,304,312,311,1
310,306,312,309,1
308,308,311,306,1
306,309,310,304,1
304,309,308,302,1
302,310,306,302,1
300,309,305,302,1
299,308,304,303,1
301,307,304,305,1
305,305,304,308,1
308,304,304,314,1
308,302,305,320,1
305,300,306,327,1
304,299,308,331,1
306,298,308,331,1
309,298,308,328,1
314,297,309,324,1
318,297,309,321,1
317,298,310,319,1
312,299,311,318,1
302,301,311,316,1
290,302,311,313,1
281,303,311,310,1
276,305,310,307,1
275,306,309,305,1
277,307,310,303,1
284,307,309,300,1
297,307,309,298,1
309,306,309,297,1
317,304,308,296,1
321,302,307,296,1
323,301,306,299,1
325,300,306,303,1
327,300,306,308,1
329,299,306,313,1
329,298,307,318,1
328,299,307,320,1
326,300,309,320,1
324,301,310,318,1
321,303,311,315,1
318,306,311,312,1
316,308,311,311,1
314,309,311,309,1
312,310,311,309,1
309,311,312,309,1
308,311,312,310,1
308,310,312,312,1
308,309,312,315,1
309,309,313,320,1
309,308,313,326,1
310,307,313,332,1
310,305,312,338,1
311,302,313,344,1
312,299,314,346,1
313,297,315,345,1
313,296,317,341,1
311,296,317,336,1
309,297,315,330,1
306,298,312,324,1
303,300,307,318,1
301,302,302,311,1
301,303,299,304,1
302,305,298,297,1
301,306,299,291,1
302,307,299,286,1
302,308,300,282,1
302,308,299,279,1
302,308,299,278,1
302,307,299,278,1
302,306,299,279,1
302,304,299,279,1
302,303,298,281,1
301,301,298,283,1
300,299,299,286,1
298,299,301,289,1
295,299,302,292,1
291,299,304,296,1
287,300,306,299,1
284,302,308,303,1
283,304,310,307,1
285,306,311,311,1
290,308,311,315,1
296,308,311,320,1
303,308,311,325,1
309,308,311,331,1
315,308,312,336,1
320,310,312,338,1
322,312,313,338,1
322,313,315,336,1
319,314,318,332,1
314,314,321,329,1
310,312,323,325,1
306,309,322,322,1
306,306,321,321,1
309,303,318,321,1
313,301,314,321,1
316,301,311,319,1
317,300,308,316,1
317,300,306,313,1
316,301,305,312,1
314,303,303,312,1
311,305,301,312,1
309,306,300,309,1
307,306,299,306,1
305,307,298,301,1
305,307,298,298,1
304,307,299,296,1
303,307,300,295,1
302,307,300,294,1
301,307,300,294,1
303,306,299,296,1
305,304,298,297,1
309,302,298,299,1
311,301,299,300,1
313,299,300,303,1
313,299,302,306,1
313,299,304,310,1
312,300,306,314,1
311,302,307,317,1
310,304,308,321,1
309,306,308,323,1
309,307,309,326,1
308,307,309,326,1
308,307,309,327,1
306,307,310,328,1
303,307,309,328,1
299,307,309,328,1
297,307,309,329,1
295,307,310,329,1
294,305,310,331,1
293,304,310,333,1
293,302,309,337,1
293,299,308,342,1
294,297,307,347,1
294,294,306,350,1
293,293,306,351,1
292,293,306,347,1
289,295,307,339,1
287,296,307,328,1
285,297,306,316,1
284,298,305,305,1
285,299,303,297,1
290,300,301,292,1
300,301,301,289,1
311,302,303,288,1
319,303,308,289,1
326,304,313,290,1
329,305,316,292,1
330,306,317,293,1
327,306,317,294,1
322,305,314,295,1
318,303,310,295,1
314,300,304,296,1
312,299,300,298,1
313,297,298,300,1
315,297,298,305,1
315,298,301,311,1
315,300,304,318,1
314,303,307,322,1
312,306,308,324,1
310,308,307,324,1
307,310,306,322,1
305,310,305,319,1
303,310,304,315,1
302,309,304,312,1
302,308,304,308,1
300,307,303,305,1
299,306,303,303,1
299,304,302,301,1
301,301,301,298,1
303,298,300,296,1
304,295,298,293,1
304,294,299,292,1
305,294,299,293,1
307,295,301,295,1
309,297,303,299,1
310,299,306,303,1
311,302,309,308,1
311,304,312,314,1
312,307,314,321,1
312,309,315,326,1
312,310,315,329,1
312,312,313,330,1
310,313,311,329,1
308,313,309,326,1
305,312,305,321,1
302,311,303,316,1
300,309,302,312,1
296,306,303,308,1
293,304,304,305,1
292,302,305,303,1
294,300,306,303,1
297,299,306,303,1
300,297,306,302,1
303,295,306,300,1
306,293,307,300,1
307,294,309,301,1
308,296,310,304,1
310,299,312,306,1
311,304,314,308,1
309,307,314,307,1
302,309,312,304,1
294,310,311,304,1
286,309,310,304,1
279,307,310,305,1
274,304,311,307,1
272,302,312,309,1
271,300,312,311,1
272,300,312,313,1
279,299,312,315,1
292,300,313,318,1
305,302,313,320,1
315,304,313,321,1
321,306,313,321,1
325,308,313,322,1
330,309,314,323,1
335,311,315,326,1
336,312,316,328,1
335,313,315,329,1
331,313,313,328,1
324,313,310,324,1
318,312,308,319,1
314,312,307,313,1
312,312,307,306,1
313,313,305,302,1
315,315,305,301,1
318,316,304,302,1
318,316,303,302,1
314,316,303,302,1
309,314,303,300,1
305,311,303,298,1
302,307,303,297,1
301,302,303,295,1
302,297,303,295,1
305,293,303,296,1
309,290,304,299,1
311,289,304,306,1
311,290,306,316,1
312,293,308,326,1
312,297,310,334,1
311,302,311,341,1
309,307,312,344,1
307,313,312,346,1
305,319,311,345,1
303,323,311,340,1
301,326,310,332,1
300,326,309,323,1
301,324,307,314,1
305,322,305,306,1
307,319,302,298,1
309,315,300,293,1
311,313,299,290,1
310,310,300,288,1
307,308,301,287,1
301,306,302,287,1
296,305,304,287,1
293,304,304,288,1
293,305,305,288,1
295,305,305,290,1
300,307,306,292,1
304,308,307,293,1
306,310,307,294,1
307,311,306,295,1
306,314,307,296,1
304,316,308,298,1
300,318,310,300,1
298,320,311,302,1
297,321,312,304,1
299,321,311,305,1
301,320,310,307,1
303,318,308,308,1
304,315,307,309,1
306,312,306,310,1
309,310,306,312,1
314,309,308,313,1
318,307,309,314,1
320,306,311,314,1
320,308,312,313,1
317,309,313,313,1
315,312,314,312,1
313,315,314,311,1
311,317,314,310,1
309,317,312,307,1
304,317,311,306,1
299,316,309,306,1
295,315,307,307,1
295,314,305,308,1
297,313,305,310,1
301,313,306,315,1
305,311,306,321,1
310,310,306,327,1
313,307,305,332,1
317,304,304,334,1
321,303,303,334,1
324,301,303,332,1
324,301,304,325,1
321,302,304,315,1
316,303,305,305,1
312,305,306,299,1
308,307,307,295,1
304,309,306,293,1
300,310,305,292,1
297,311,305,292,1
291,311,306,293,1
286,311,306,295,1
281,310,306,297,1
279,309,307,299,1
280,307,308,302,1
282,307,308,304,1
284,306,307,306,1
284,305,304,307,1
287,303,301,306,1
295,300,300,305,1
304,298,300,304,1
311,297,301,304,1
314,297,302,305,1
315,297,304,307,1
316,299,306,311,1
316,302,310,314,1
315,305,312,315,1
313,308,314,316,1
312,310,314,315,1
310,312,315,313,1
309,314,314,310,1
308,315,314,309,1
307,316,313,309,1
305,316,312,309,1
302,316,312,308,1
299,315,310,308,1
294,313,309,307,1
289,310,308,302,1
287,307,306,295,1
289,303,307,288,1
294,300,310,284,1
300,298,314,284,1
306,298,317,288,1
311,299,320,293,1
315,302,323,300,1
317,305,324,306,1
318,309,322,310,1
318,313,319,309,1
318,316,315,306,1
318,318,313,302,1
319,319,312,297,1
320,319,312,294,1
320,318,312,293,1
320,318,313,294,1
319,318,315,297,1
317,317,315,299,1
313,316,313,301,1
309,313,312,303,1
307,312,312,305,1
307,310,313,306,1
308,309,313,308,1
309,308,313,308,1
310,307,313,309,1
309,308,312,312,1
309,309,312,315,1
306,311,312,319,1
302,313,312,321,1
298,315,312,323,1
298,317,311,323,1
300,319,311,320,1
301,319,311,314,1
301,319,309,306,1
300,318,307,297,1
302,317,304,289,1
305,315,302,286,1
309,313,302,286,1
313,312,303,288,1
316,310,304,290,1
318,308,305,292,1
319,306,305,293,1
319,305,306,295,1
320,304,307,297,1
321,305,307,300,1
323,306,308,303,1
324,307,309,303,1
324,308,310,300,1
321,309,309,296,1
318,309,308,292,1
313,310,306,290,1
310,310,305,288,1
308,310,306,288,1
306,311,309,289,1
305,311,312,291,1
304,310,316,293,1
304,309,318,295,1
304,308,319,297,1
304,307,317,299,1
305,305,314,301,1
305,304,310,303,1
306,302,305,306,1
308,302,302,308,1
310,302,301,310,1
310,302,300,311,1
308,302,300,311,1
306,304,302,311,1
305,306,303,311,1
303,308,305,311,1
302,310,305,313,1
303,312,304,316,1
307,313,304,319,1
312,314,306,323,1
315,315,307,325,1
317,315,309,326,1
317,315,310,325,1
315,315,310,324,1
313,313,310,323,1
310,312,311,321,1
308,309,310,320,1
310,307,310,319,1
314,306,312,320,1
317,304,313,321,1
318,303,314,323,1
316,303,315,324,1
313,303,315,324,1
309,303,314,322,1
306,304,314,319,1
303,305,314,315,1
303,306,313,309,1
304,307,312,303,1
306,307,312,298,1
308,307,312,296,1
310,307,312,296,1
312,307,313,296,1
315,308,314,296,1
317,308,314,293,1
318,309,313,289,1
316,309,312,286,1
313,308,310,285,1
311,306,309,288,1
310,304,309,293,1
312,301,310,300,1
317,299,312,307,1
324,297,313,313,1
332,298,314,317,1
336,300,315,318,1
333,303,314,316,1
326,306,312,312,1
319,308,310,307,1
312,310,308,305,1
307,312,306,304,1
305,314,305,304,1
303,315,303,304,1
303,315,302,303,1
303,315,302,301,1
303,313,303,300,1
303,311,304,297,1
303,309,305,295,1
302,307,306,292,1
301,305,307,289,1
300,303,308,290,1
301,302,309,294,1
302,301,310,301,1
304,301,312,308,1
305,301,312,316,1
305,303,313,322,1
306,306,314,329,1
307,311,314,333,1
307,314,313,332,1
306,316,312,328,1
304,317,311,322,1
303,316,311,315,1
301,315,310,307,1
301,312,308,299,1
301,309,307,291,1
302,307,305,285,1
304,305,304,281,1
307,304,305,280,1
310,301,307,281,1
311,298,310,283,1
308,295,313,286,1
305,293,314,290,1
302,292,315,295,1
298,293,314,301,1
294,296,313,309,1
292,300,311,318,1
291,305,309,326,1
289,311,307,331,1
285,315,305,333,1
283,318,305,333,1
285,320,305,333,1
290,322,306,332,1
297,322,305,330,1
302,321,305,326,1
307,320,304,321,1
311,319,303,316,1
314,318,303,311,1
314,315,302,306,1
314,312,300,301,1
312,307,299,296,1
311,303,297,294,1
310,301,296,294,1
309,300,296,294,1
309,299,295,296,1
308,299,296,300,1
308,300,297,306,1
307,302,300,311,1
306,304,302,315,1
306,306,305,318,1
305,308,307,320,1
306,310,307,321,1
306,311,307,319,1
305,312,305,315,1
304,312,303,309,1
303,312,301,303,1
302,310,299,298,1
302,309,297,295,1
301,307,295,293,1
299,305,294,293,1
299,303,292,295,1
299,301,292,299,1
300,299,293,305,1
302,298,294,311,1
303,297,296,316,1
304,297,299,321,1
306,298,301,326,1
308,302,303,330,1
309,306,303,330,1
310,309,302,327,1
311,311,300,322,1
311,312,297,318,1
310,312,295,314,1
306,312,293,310,1
299,310,292,305,1
293,309,292,301,1
289,307,294,298,1
287,307,296,296,1
287,307,297,295,1
287,307,298,295,1
289,306,298,296,1
290,304,297,298,1
291,302,296,301,1
291,301,296,305,1
292,300,295,310,1
292,301,295,314,1
292,303,297,317,1
292,305,301,321,1
291,308,305,324,1
290,311,309,326,1
289,312,311,327,1
289,313,310,326,1
289,313,307,324,1
290,313,303,320,1
290,312,298,317,1
290,311,294,316,1
290,310,292,317,1
289,307,291,317,1
287,304,290,317,1
286,300,290,315,1
285,297,291,313,1
287,295,291,311,1
291,294,292,310,1
295,293,293,309,1
299,293,293,307,1
301,294,294,306,1
302,296,296,306,1
303,299,299,307,1
303,302,302,307,1
301,304,303,308,1
299,306,303,310,1
297,308,304,313,1
295,308,304,316,1
292,309,304,317,1
291,309,303,316,1
289,308,302,312,1
286,306,301,307,1
283,305,300,301,1
280,304,299,298,1
279,303,298,297,1
281,302,298,297,1
286,300,298,298,1
291,298,298,301,1
297,297,299,306,1
304,298,301,312,1
309,300,303,318,1
313,303,305,324,1
316,306,306,327,1
317,310,306,328,1
316,312,305,326,1
314,312,302,322,1
310,312,299,317,1
305,312,297,310,1
300,311,297,303,1
295,310,297,299,1
292,309,296,298,1
291,306,294,300,1
292,304,292,302,1
294,301,291,302,1
296,299,291,300,1
297,297,292,297,1
297,294,294,295,1
297,293,297,293,1
297,292,299,292,1
297,292,301,291,1
298,294,303,291,1
299,297,304,292,1
300,300,305,294,1
300,304,305,296,1
301,307,304,298,1
301,309,303,300,1
301,312,303,302,1
300,313,303,305,1
299,314,302,307,1
298,314,301,308,1
296,314,301,306,1
295,313,300,303,1
293,312,300,301,1
292,310,300,298,1
291,307,300,297,1
290,304,300,297,1
290,301,300,299,1
290,298,301,302,1
291,296,301,304,1
293,296,302,306,1
297,297,304,307,1
302,299,307,307,1
303,300,308,306,1
300,302,308,304,1
297,303,307,302,1
294,304,306,301,1
293,305,304,301,1
293,306,303,301,1
294,307,302,301,1
297,307,301,302,1
299,306,299,303,1
300,306,297,304,1
302,305,296,304,1
301,304,294,304,1
298,302,293,304,1
296,300,294,302,1
297,299,294,300,1
300,299,295,298,1
302,298,296,295,1
304,297,296,293,1
304,298,296,292,1
305,298,297,293,1
306,300,300,295,1
305,302,302,297,1
304,304,303,299,1
302,305,305,300,1
299,306,306,301,1
296,307,307,301,1
293,306,307,303,1
290,306,306,307,1
289,306,306,313,1
289,305,305,320,1
290,304,305,328,1
293,303,304,334,1
298,301,303,338,1
302,299,301,341,1
305,297,300,341,1
306,294,301,338,1
308,293,304,334,1
309,292,308,329,1
311,293,311,322,1
310,294,313,315,1
307,296,313,309,1
305,299,313,303,1
306,302,312,297,1
309,305,311,290,1
311,307,309,284,1
310,309,307,280,1
308,310,306,277,1
304,310,306,277,1
301,310,305,277,1
298,309,306,279,1
295,308,306,280,1
293,307,307,283,1
291,306,308,287,1
292,305,308,291,1
294,304,307,295,1
297,304,305,298,1
301,304,305,302,1
306,306,305,306,1
310,307,305,309,1
314,309,307,313,1
316,311,308,316,1
315,314,309,318,1
312,315,308,320,1
309,316,307,320,1
306,316,306,322,1
304,317,306,326,1
304,318,307,328,1
304,319,308,329,1
304,320,309,327,1
304,320,309,323,1
305,319,308,315,1
305,317,306,305,1
306,313,304,296,1
307,309,303,288,1
308,305,302,283,1
310,302,301,281,1
311,300,302,282,1
310,299,301,285,1
308,299,301,288,1
306,301,301,292,1
306,303,301,296,1
306,306,302,299,1
305,309,302,300,1
303,311,303,302,1
300,313,304,304,1
297,315,305,307,1
295,315,305,311,1
291,315,304,315,1
288,315,303,318,1
288,314,303,320,1
290,314,303,322,1
297,313,304,323,1
303,312,304,321,1
308,310,304,318,1
310,307,302,316,1
311,306,300,314,1
312,305,299,313,1
313,305,300,313,1
314,305,303,312,1
316,307,306,311,1
317,308,309,309,1
318,310,311,304,1
318,312,313,299,1
317,313,313,295,1
313,313,313,293,1
306,313,312,294,1
300,312,310,295,1
295,312,308,297,1
292,312,307,299,1
291,312,307,302,1
292,311,308,308,1
294,310,309,313,1
296,309,310,318,1
298,306,310,322,1
299,304,310,325,1
298,302,309,326,1
297,300,308,324,1
295,299,309,319,1
293,300,310,311,1
291,300,311,305,1
291,302,312,301,1
293,304,312,298,1
298,305,312,296,1
302,307,310,294,1
303,308,310,294,1
303,309,309,295,1
303,308,310,298,1
303,307,310,303,1
303,306,310,310,1
304,305,310,317,1
306,305,309,321,1
310,305,309,322,1
314,304,309,319,1
317,304,308,312,1
319,303,308,305,1
320,301,308,300,1
319,300,308,299,1
319,300,309,300,1
317,300,309,304,1
314,301,312,307,1
308,303,313,310,1
301,305,315,311,1
293,307,316,311,1
288,309,316,309,1
285,311,314,307,1
286,311,311,305,1
289,311,308,304,1
295,309,307,302,1
301,306,307,301,1
308,304,308,299,1
312,302,310,297,1
313,300,310,295,1
312,299,309,294,1
311,298,309,295,1
310,297,310,297,1
309,297,310,299,1
309,297,312,303,1
310,298,313,306,1
310,299,316,309,1
310,300,318,312,1
311,302,321,316,1
312,304,323,320,1
312,306,323,323,1
311,307,324,325,1
309,308,323,325,1
308,308,323,324,1
307,308,322,323,1
306,307,321,320,1
304,306,319,313,1
303,304,316,305,1
301,301,314,296,1
299,298,311,289,1
295,295,308,284,1
292,291,306,281,1
290,288,305,280,1
290,285,304,280,1
294,284,303,282,1
300,284,305,287,1
307,286,308,294,1
314,291,314,304,1
318,298,319,315,1
320,303,322,324,1
320,308,324,331,1
318,311,324,336,1
317,313,324,340,1
316,314,324,344,1
315,314,324,347,1
315,314,323,346,1
313,313,322,342,1
311,313,319,335,1
310,312,318,326,1
307,310,316,316,1
304,306,314,308,1
301,303,312,301,1
297,299,309,296,1
294,296,306,291,1
295,294,304,288,1
300,293,304,288,1
308,293,304,290,1
315,295,306,295,1
320,298,309,300,1
321,302,311,305,1
320,306,312,308,1
316,309,313,311,1
313,312,314,314,1
310,313,314,316,1
308,314,315,317,1
308,315,315,317,1
309,315,315,317,1
309,315,315,318,1
311,314,315,320,1
312,312,315,321,1
315,308,313,324,1
316,304,311,325,1
316,299,309,324,1
316,296,307,320,1
315,294,306,317,1
313,295,306,313,1
311,297,307,312,1
310,300,308,309,1
308,303,310,307,1
307,306,312,306,1
305,309,314,307,1
304,311,315,310,1
305,314,316,314,1
305,315,316,316,1
306,315,315,317,1
305,314,314,316,1
305,313,313,315,1
306,311,312,312,1
307,309,311,309,1
308,307,309,306,1
309,304,309,305,1
309,303,308,305,1
310,301,307,306,1
311,299,307,306,1
310,297,307,305,1
307,296,308,302,1
304,296,310,300,1
300,298,311,299,1
298,301,313,300,1
297,304,315,300,1
297,307,315,300,1
297,309,314,299,1
299,310,313,299,1
301,311,312,299,1
304,311,311,301,1
309,312,310,305,1
314,313,309,308,1
318,313,307,310,1
320,312,305,310,1
320,311,303,308,1
317,309,303,305,1
315,306,303,304,1
312,303,304,304,1
310,301,305,307,1
311,299,305,310,1
314,299,306,312,1
317,300,307,314,1
318,303,308,316,1
317,306,309,315,1
314,310,310,311,1
310,312,311,304,1
307,313,311,298,1
305,314,312,294,1
305,313,313,294,1
303,312,313,297,1
301,311,313,300,1
300,309,313,303,1
298,308,312,305,1
298,307,312,304,1
299,306,311,300,1
301,305,312,297,1
305,304,311,295,1
308,302,311,295,1
310,301,310,296,1
312,299,310,296,1
315,299,309,296,1
317,300,309,298,1
319,301,309,300,1
319,304,309,303,1
318,307,310,305,1
315,310,311,309,1
312,312,312,311,1
309,314,312,314,1
306,316,311,316,1
304,317,311,318,1
303,317,310,321,1
306,317,311,325,1
311,315,311,329,1
315,313,311,329,1
319,310,309,326,1
323,305,308,321,1
325,301,305,315,1
326,297,304,310,1
325,295,303,306,1
323,294,304,304,1
322,294,306,303,1
321,295,308,304,1
321,297,310,306,1
319,300,312,311,1
316,303,313,314,1
311,305,314,315,1
307,309,313,315,1
303,310,312,314,1
300,311,311,310,1
296,311,309,304,1
293,310,307,299,1
292,310,306,296,1
293,309,305,296,1
297,308,304,297,1
300,306,303,297,1
304,304,302,297,1
306,301,300,297,1
309,298,299,296,1
311,296,299,297,1
313,295,300,297,1
315,295,302,299,1
316,295,305,302,1
314,297,308,306,1
311,299,310,310,1
308,302,312,313,1
305,305,313,314,1
303,307,312,313,1
300,309,312,313,1
297,311,312,312,1
294,311,313,312,1
293,312,314,312,1
292,312,314,313,1
292,312,314,314,1
296,312,314,315,1
301,311,313,315,1
306,309,311,316,1
309,305,307,316,1
312,302,302,315,1
313,299,298,312,1
314,296,297,310,1
314,295,299,309,1
314,296,302,310,1
314,297,305,310,1
313,300,306,311,1
313,303,306,312,1
312,305,307,312,1
312,306,308,312,1
309,306,309,310,1
307,307,311,310,1
305,309,312,311,1
308,310,313,313,1
311,310,313,315,1
314,310,311,315,1
316,309,308,311,1
316,308,305,307,1
317,306,304,304,1
317,304,303,302,1
317,302,302,301,1
318,301,302,301,1
318,299,303,302,1
317,298,305,304,1
317,299,307,306,1
317,300,309,309,1
316,303,311,312,1
314,306,312,312,1
312,308,311,312,1
310,309,311,312,1
311,310,311,312,1
314,311,310,312,1
317,311,309,312,1
318,310,308,313,1
317,310,308,314,1
316,309,308,317,1
315,308,308,321,1
314,307,309,326,1
313,304,309,330,1
312,301,309,333,1
311,299,310,338,1
311,298,312,343,1
311,299,314,349,1
312,301,316,353,1
313,303,318,351,1
313,305,319,346,1
312,308,320,339,1
311,310,320,331,1
311,312,319,323,1
310,312,317,314,1
310,312,315,306,1
310,311,313,298,1
309,310,312,292,1
309,308,311,288,1
311,307,310,287,1
314,306,309,286,1
318,306,308,287,1
321,305,307,289,1
320,305,306,290,1
318,304,305,292,1
314,302,304,293,1
311,300,304,293,1
309,298,304,293,1
308,297,305,293,1
307,297,307,294,1
307,298,308,295,1
307,299,308,297,1
306,300,308,297,1
305,301,307,297,1
305,302,307,297,1
304,302,306,297,1
301,302,305,297,1
297,303,304,299,1
294,303,304,302,1
293,304,305,305,1
294,305,305,309,1
296,306,306,312,1
298,306,306,315,1
300,305,305,316,1
303,304,305,318,1
306,303,305,317,1
308,302,305,315,1
308,301,304,312,1
307,301,304,310,1
305,301,304,310,1
301,302,304,311,1
298,304,305,313,1
296,306,306,314,1
296,307,306,316,1
298,309,306,318,1
302,310,306,320,1
306,311,306,322,1
309,312,306,323,1
311,313,306,324,1
312,313,306,323,1
312,313,306,319,1
309,311,306,314,1
307,309,305,308,1
307,306,304,305,1
309,304,304,302,1
312,302,303,300,1
313,301,303,299,1
314,301,303,300,1
313,302,304,303,1
312,303,306,308,1
311,305,308,312,1
310,307,309,316,1
307,309,309,318,1
304,311,309,320,1
302,313,309,320,1
304,314,309,320,1
309,315,308,320,1
313,315,307,321,1
317,315,305,323,1
319,314,304,324,1
318,312,303,324,1
316,311,302,325,1
313,310,302,324,1
311,308,302,320,1
309,307,301,314,1
308,305,302,308,1
307,303,303,304,1
307,302,305,303,1
307,301,307,303,1
308,301,308,302,1
306,302,308,303,1
305,304,307,303,1
302,306,307,302,1
302,307,306,301,1
304,308,307,301,1
306,309,307,299,1
307,310,306,299,1
307,311,305,299,1
306,312,305,301,1
305,313,306,303,1
305,312,307,307,1
304,312,309,310,1
304,311,309,314,1
305,309,310,315,1
307,307,310,316,1
309,304,309,316,1
312,302,309,316,1
315,300,309,317,1
319,299,308,318,1
322,299,307,318,1
322,301,306,317,1
321,302,305,316,1
320,303,305,314,1
317,305,304,313,1
313,306,304,313,1
308,306,305,314,1
304,307,305,315,1
303,308,306,316,1
304,308,307,316,1
305,308,307,314,1
305,308,306,311,1
303,306,304,305,1
301,304,301,299,1
300,301,300,295,1
301,299,299,294,1
302,298,300,297,1
303,297,301,301,1
303,297,303,306,1
303,299,305,309,1
302,300,307,310,1
301,302,309,309,1
300,305,310,306,1
300,308,311,303,1
300,310,310,301,1
302,312,310,303,1
305,315,311,308,1
308,315,311,317,1
310,315,310,324,1
310,315,309,330,1
309,314,308,333,1
310,315,307,332,1
312,315,308,329,1
314,314,308,323,1
315,312,308,316,1
316,309,307,310,1
317,306,307,303,1
316,304,307,298,1
316,302,308,296,1
316,302,308,297,1
315,303,309,297,1
314,304,309,295,1
312,305,309,292,1
311,307,309,289,1
310,309,309,288,1
309,311,309,288,1
308,312,308,289,1
306,313,308,290,1
305,313,307,292,1
306,312,306,294,1
308,312,307,296,1
310,311,307,299,1
311,310,308,300,1
312,309,307,300,1
313,307,307,300,1
313,305,307,300,1
312,303,307,301,1
311,301,307,304,1
309,299,307,307,1
306,298,309,311,1
305,297,311,314,1
304,298,313,316,1
305,300,315,316,1
305,303,316,315,1
302,305,316,312,1
300,307,316,311,1
300,310,315,312,1
302,312,314,314,1
304,314,313,317,1
306,314,313,319,1
307,314,312,320,1
306,313,311,320,1
305,312,308,317,1
303,311,304,312,1
302,309,299,304,1
304,306,296,295,1
307,302,294,286,1
310,299,293,279,1
313,297,293,278,1
316,297,296,281,1
319,298,300,284,1
322,300,303,289,1
324,302,306,293,1
325,305,307,296,1
323,307,308,299,1
322,309,309,303,1
320,311,309,308,1
317,312,309,312,1
314,312,309,315,1
309,312,309,317,1
304,311,309,320,1
298,311,309,324,1
292,310,307,330,1
286,309,306,336,1
282,308,304,339,1
281,306,303,339,1
283,304,302,337,1
288,303,303,334,1
295,303,305,329,1
301,303,306,324,1
306,304,307,319,1
309,306,307,314,1
310,309,308,310,1
310,311,308,307,1
309,313,308,303,1
309,314,308,298,1
309,315,307,292,1
308,314,306,287,1
308,313,304,282,1
307,313,303,279,1
306,312,301,277,1
305,311,300,277,1
304,311,300,276,1
303,310,301,277,1
302,308,301,280,1
303,306,301,284,1
303,304,302,289,1
305,303,303,294,1
307,303,305,299,1
309,303,307,305,1
310,305,309,310,1
311,306,311,315,1
311,308,312,319,1
310,310,313,321,1
309,312,312,321,1
307,313,311,319,1
306,314,309,316,1
303,315,309,312,1
300,315,309,309,1
298,314,309,307,1
296,313,309,305,1
296,311,308,305,1
299,309,307,303,1
303,306,305,302,1
306,303,305,301,1
308,300,304,301,1
309,299,304,302,1
309,297,304,304,1
309,296,304,306,1
310,297,305,307,1
310,297,305,307,1
310,298,305,306,1
310,300,305,306,1
312,303,305,306,1
312,305,304,305,1
311,307,304,304,1
308,308,305,303,1
305,309,306,301,1
304,309,306,300,1
303,309,305,300,1
304,310,305,301,1
303,310,305,304,1
303,310,305,307,1
303,309,305,308,1
302,307,305,309,1
302,305,305,311,1
303,303,304,313,1
303,301,304,316,1
305,300,304,319,1
306,300,306,322,1
307,301,308,322,1
309,302,310,320,1
309,303,312,318,1
307,305,311,317,1
305,308,308,317,1
305,310,306,315,1
304,311,303,313,1
304,311,301,309,1
303,310,299,305,1
300,308,297,301,1
298,306,295,299,1
297,305,296,299,1
299,305,297,300,1
299,305,298,302,1
299,306,298,302,1
299,307,298,301,1
300,308,299,299,1
302,308,300,297,1
304,309,301,295,1
306,309,302,294,1
306,310,302,294,1
306,312,303,294,1
306,314,303,294,1
307,317,303,296,1
307,318,303,298,1
306,319,302,300,1
305,319,302,306,1
303,320,301,314,1
303,319,300,323,1
302,319,300,332,1
302,318,301,337,1
301,318,301,339,1
301,317,301,338,1
300,316,301,334,1
301,313,300,325,1
302,309,300,315,1
303,306,299,305,1
303,303,298,300,1
304,302,298,297,1
304,301,299,297,1
305,302,300,298,1
307,303,301,298,1
308,305,302,297,1
308,307,303,294,1
308,307,304,291,1
306,308,305,289,1
303,308,306,288,1
299,308,306,286,1
292,307,304,286,1
284,306,302,286,1
281,305,300,288,1
283,305,299,291,1
290,305,298,294,1
297,306,297,295,1
303,306,296,295,1
308,306,296,296,1
311,305,296,298,1
311,305,295,299,1
310,304,295,301,1
309,303,296,304,1
308,304,297,308,1
307,305,299,312,1
306,308,300,313,1
305,311,302,313,1
304,314,302,312,1
304,316,302,309,1
302,318,301,305,1
302,319,299,300,1
300,319,297,296,1
299,319,296,294,1
298,318,295,293,1
297,317,295,293,1
297,316,295,296,1
296,314,296,302,1
295,313,295,311,1
295,312,295,321,1
296,312,295,332,1
297,311,296,341,1
298,311,298,347,1
300,311,299,347,1
301,309,300,340,1
302,307,301,329,1
304,306,302,318,1
305,307,304,311,1
305,308,305,308,1
304,310,306,307,1
300,312,306,307,1
295,312,303,306,1
290,313,300,305,1
287,313,298,303,1
287,313,296,300,1
290,313,296,297,1
296,312,296,293,1
301,312,297,290,1
305,311,297,288,1
307,310,299,289,1
308,308,300,292,1
308,307,302,295,1
309,307,303,298,1
309,307,305,302,1
308,308,307,305,1
308,309,309,308,1
307,311,310,311,1
306,313,311,313,1
305,314,310,313,1
304,314,309,310,1
303,314,306,306,1
303,313,304,302,1
303,312,302,299,1
303,310,300,297,1
302,308,298,295,1
301,306,297,294,1
301,305,296,297,1
302,305,296,303,1
303,306,295,312,1
305,307,295,321,1
308,306,295,330,1
311,305,296,337,1
313,304,298,344,1
315,303,299,347,1
317,303,300,343,1
318,303,302,334,1
317,304,303,325,1
314,306,303,318,1
312,307,303,315,1
312,308,301,314,1
311,310,300,312,1
311,309,299,309,1
309,309,299,304,1
307,309,299,298,1
305,309,299,293,1
304,309,299,287,1
302,308,299,283,1
302,306,299,279,1
301,303,299,278,1
300,301,299,278,1
300,300,299,280,1
299,300,300,284,1
300,300,301,288,1
300,301,303,293,1
300,302,305,300,1
300,303,306,307,1
301,306,307,313,1
303,308,306,316,1
306,310,306,316,1
307,311,305,315,1
306,311,304,311,1
306,310,302,305,1
307,309,301,298,1
308,308,299,293,1
308,307,298,290,1
309,306,298,290,1
309,304,298,289,1
308,301,297,290,1
306,297,296,292,1
306,294,295,296,1
309,292,295,299,1
314,292,297,302,1
319,292,300,304,1
320,293,302,306,1
320,296,304,306,1
317,299,305,304,1
314,304,306,302,1
312,307,307,298,1
311,310,307,297,1
310,312,306,296,1
311,314,306,296,1
312,316,306,298,1
313,317,307,299,1
314,317,308,300,1
314,317,309,302,1
314,315,310,304,1
314,314,310,306,1
313,312,310,308,1
312,310,310,310,1
312,308,309,314,1
313,306,309,317,1
316,305,308,320,1
319,304,308,320,1
322,304,308,320,1
324,304,307,317,1
326,305,307,313,1
327,306,305,308,1
326,307,303,302,1
323,306,300,298,1
317,306,297,295,1
310,305,295,293,1
304,305,295,292,1
299,305,296,290,1
297,306,299,288,1
298,306,301,287,1
300,307,303,287,1
304,307,305,288,1
307,307,305,289,1
310,305,305,292,1
314,304,306,296,1
317,302,307,300,1
319,301,308,304,1
320,301,309,308,1
320,301,310,310,1
318,303,311,312,1
315,306,312,314,1
312,309,313,318,1
308,312,313,320,1
305,313,312,324,1
305,314,312,329,1
308,314,311,335,1
311,313,311,340,1
313,313,311,344,1
313,313,310,344,1
310,313,310,342,1
306,312,309,338,1
302,312,308,330,1
301,311,308,321,1
302,310,308,312,1
305,308,308,304,1
308,305,309,300,1
312,303,309,300,1
316,301,308,302,1
318,300,307,303,1
319,298,306,304,1
318,298,307,304,1
316,299,310,304,1
313,301,312,304,1
311,302,313,304,1
308,303,313,303,1
306,304,312,302,1
304,304,311,299,1
305,305,309,297,1
308,306,307,294,1
312,307,305,289,1
316,306,304,284,1
321,306,303,280,1
325,305,303,278,1
326,303,302,279,1
326,302,303,283,1
326,302,304,290,1
327,303,306,298,1
328,304,309,307,1
327,306,312,314,1
325,307,314,319,1
322,308,316,322,1
319,311,318,322,1
318,313,319,320,1
316,314,319,317,1
316,315,318,316,1
316,315,318,316,1
316,316,317,316,1
317,315,316,316,1
317,313,316,314,1
317,310,315,315,1
316,308,315,315,1
316,306,315,314,1
316,305,313,313,1
316,304,311,312,1
316,303,309,310,1
314,301,307,309,1
312,300,304,308,1
311,298,303,307,1
310,298,303,307,1
310,298,302,308,1
310,299,303,309,1
310,299,303,309,1
311,301,304,307,1
311,303,305,303,1
312,304,307,299,1
313,306,309,296,1
313,308,310,296,1
313,309,311,298,1
313,310,311,300,1
313,310,310,300,1
312,309,309,300,1
312,308,308,300,1
312,307,307,301,1
311,305,305,302,1
311,303,304,304,1
312,301,305,306,1
314,301,306,308,1
316,300,308,309,1
317,301,312,311,1
317,301,314,314,1
315,303,317,316,1
314,305,318,318,1
312,308,318,320,1
310,309,317,321,1
307,310,316,322,1
304,310,314,320,1
301,310,312,319,1
301,310,311,316,1
302,310,311,314,1
303,310,311,312,1
303,310,311,310,1
304,310,311,310,1
307,309,311,313,1
311,307,311,318,1
316,304,311,323,1
321,302,312,327,1
326,300,312,329,1
329,299,312,330,1
329,299,312,328,1
329,300,312,326,1
327,303,312,322,1
325,306,312,317,1
322,308,312,312,1
319,310,312,309,1
316,312,312,308,1
315,313,311,307,1
313,314,308,305,1
312,315,305,303,1
311,315,303,300,1
310,313,302,296,1
310,312,302,291,1
310,310,303,287,1
311,308,303,285,1
310,306,302,284,1
311,303,302,283,1
311,301,303,285,1
313,299,303,286,1
314,298,304,289,1
317,298,306,293,1
320,300,307,299,1
323,302,308,306,1
327,304,309,313,1
328,306,310,320,1
326,308,309,326,1
321,310,309,329,1
314,311,307,328,1
307,310,306,324,1
302,310,304,318,1
300,310,302,313,1
300,311,301,309,1
301,310,301,307,1
302,311,302,305,1
303,311,302,305,1
305,311,302,306,1
306,310,302,305,1
308,308,301,303,1
308,307,301,298,1
309,305,301,295,1
309,305,302,293,1
311,305,303,293,1
311,307,304,296,1
310,309,305,298,1
306,310,307,299,1
302,312,308,299,1
300,312,309,299,1
300,313,310,301,1
301,312,310,302,1
302,312,310,304,1
303,311,309,305,1
304,310,308,305,1
304,309,307,306,1
304,308,307,307,1
304,306,307,308,1
305,304,307,309,1
306,303,307,310,1
306,301,307,311,1
306,300,306,312,1
304,300,305,313,1
302,301,304,314,1
299,303,303,314,1
296,304,304,314,1
294,306,304,313,1
291,309,304,312,1
290,310,304,312,1
292,311,304,312,1
297,312,304,311,1
303,312,304,311,1
308,312,304,311,1
310,312,305,311,1
309,311,305,311,1
309,311,305,311,1
309,310,305,310,1
309,309,307,307,1
310,309,308,304,1
310,309,308,301,1
312,309,309,298,1
314,308,309,297,1
316,306,309,296,1
317,306,308,296,1
316,306,307,297,1
313,307,306,298,1
310,308,305,299,1
305,309,304,299,1
301,311,302,299,1
299,312,300,299,1
298,313,300,299,1
298,314,300,300,1
300,315,301,301,1
301,316,302,302,1
302,315,302,302,1
303,314,302,302,1
305,313,303,302,1
308,312,303,302,1
310,311,303,301,1
312,309,303,300,1
312,308,302,299,1
311,306,302,301,1
309,304,301,302,1
307,304,300,304,1
306,304,301,307,1
305,307,301,309,1
305,309,302,311,1
304,312,304,309,1
303,314,304,305,1
302,316,305,301,1
300,318,305,298,1
299,319,305,298,1
298,320,305,299,1
298,320,304,302,1
298,320,304,304,1
299,319,303,306,1
299,317,303,305,1
300,314,302,303,1
300,310,302,299,1
300,306,300,296,1
301,303,300,294,1
303,302,299,293,1
304,301,300,293,1
305,301,300,294,1
305,302,301,297,1
306,304,303,300,1
305,306,305,302,1
305,308,305,303,1
305,310,306,304,1
306,312,306,306,1
306,312,307,310,1
306,313,307,314,1
305,313,307,319,1
305,313,307,323,1
304,313,307,327,1
303,312,307,330,1
303,312,306,331,1
303,310,305,330,1
303,308,305,325,1
304,306,304,319,1
304,304,304,313,1
305,302,304,308,1
305,301,305,303,1
306,301,305,300,1
305,301,306,298,1
305,302,308,298,1
304,304,310,299,1
304,306,310,300,1
303,306,310,300,1
302,307,310,298,1
300,307,309,298,1
299,307,308,298,1
298,308,307,298,1
297,308,307,299,1
297,308,306,299,1
297,308,306,301,1
298,308,305,305,1
299,308,305,311,1
300,308,304,318,1
300,307,304,325,1
302,305,303,329,1
304,303,303,330,1
307,303,304,328,1
309,302,306,324,1
312,303,308,320,1
312,304,310,316,1
311,306,312,310,1
307,308,313,304,1
301,309,313,299,1
297,310,312,295,1
293,311,312,292,1
291,311,310,289,1
290,310,309,287,1
292,309,307,285,1
294,308,306,283,1
297,307,306,282,1
301,306,305,283,1
304,305,305,283,1
306,303,304,285,1
307,301,304,287,1
307,300,304,291,1
306,299,305,296,1
305,298,305,303,1
303,298,306,309,1
301,298,307,316,1
299,300,309,321,1
298,302,310,325,1
294,305,311,328,1
290,307,311,327,1
285,309,310,325,1
284,309,309,321,1
287,310,309,316,1
292,310,308,310,1
297,310,307,305,1
300,311,306,303,1
301,310,306,303,1
302,310,305,304,1
302,308,304,305,1
302,306,302,306,1
302,305,301,307,1
303,303,301,308,1
304,303,301,308,1
306,303,303,309,1
308,304,304,309,1
311,305,305,309,1
312,307,306,309,1
311,308,307,309,1
308,310,308,311,1
305,312,309,312,1
301,313,309,313,1
299,314,308,315,1
298,314,308,316,1
297,313,307,318,1
298,313,306,319,1
299,312,306,320,1
300,312,306,319,1
301,310,304,316,1
300,308,303,309,1
299,306,301,302,1
296,303,299,296,1
293,301,297,293,1
290,299,298,293,1
290,299,300,295,1
290,300,302,297,1
291,303,304,300,1
292,306,306,306,1
293,308,308,313,1
295,309,308,318,1
298,309,308,321,1
302,309,308,322,1
303,309,307,321,1
303,309,307,320,1
303,309,307,316,1
302,308,307,311,1
301,307,307,306,1
300,305,306,303,1
299,303,306,300,1
298,302,306,299,1
296,300,306,298,1
295,298,306,296,1
294,295,307,293,1
295,294,307,290,1
297,292,306,289,1
298,292,304,289,1
301,293,304,291,1
304,295,305,295,1
307,299,307,298,1
308,302,309,300,1
308,305,310,300,1
308,307,310,299,1
307,308,310,299,1
305,308,310,300,1
303,308,310,303,1
301,307,308,307,1
299,307,307,311,1
298,306,307,313,1
297,305,307,311,1
296,304,306,308,1
296,302,304,304,1
296,299,302,301,1
296,297,300,298,1
297,296,300,298,1
298,296,302,300,1
300,296,304,303,1
300,298,307,307,1
301,300,310,311,1
301,303,313,314,1
302,305,315,315,1
303,307,316,315,1
305,309,318,315,1
306,310,318,316,1
306,311,318,319,1
307,311,317,322,1
307,311,316,324,1
307,311,314,326,1
307,311,312,326,1
307,310,310,322,1
306,308,307,317,1
303,304,306,311,1
302,301,305,306,1
302,298,305,303,1
304,297,305,302,1
306,297,307,306,1
308,297,308,313,1
309,297,310,320,1
307,299,311,327,1
304,301,312,331,1
302,304,312,333,1
300,307,311,333,1
300,311,311,330,1
302,314,310,325,1
302,315,308,318,1
301,315,306,312,1
300,314,305,306,1
299,312,305,301,1
299,311,306,297,1
300,310,307,293,1
300,308,306,291,1
301,307,305,289,1
302,305,305,289,1
303,304,306,291,1
303,303,307,293,1
304,303,307,296,1
304,304,308,299,1
306,306,310,301,1
307,308,310,302,1
307,310,311,303,1
306,313,311,304,1
305,314,312,307,1
305,315,314,308,1
305,315,314,309,1
305,316,315,307,1
306,315,313,306,1
307,314,312,305,1
309,312,309,304,1
309,310,306,302,1
310,307,304,297,1
309,304,302,292,1
307,300,299,287,1
303,297,299,284,1
301,294,299,283,1
300,293,300,285,1
303,293,301,289,1
305,294,303,295,1
307,295,306,300,1
307,298,309,304,1
305,300,311,307,1
302,302,313,310,1
300,305,313,314,1
300,308,314,319,1
304,311,316,325,1
309,313,317,330,1
312,314,317,334,1
313,315,315,336,1
312,314,314,339,1
311,313,313,340,1
310,311,312,340,1
310,309,310,337,1
310,306,309,330,1
312,304,307,321,1
313,301,306,311,1
313,299,307,302,1
315,298,308,296,1
316,298,310,295,1
318,300,312,297,1
317,303,313,300,1
314,305,313,302,1
310,307,314,304,1
308,310,314,304,1
306,312,314,304,1
305,313,314,304,1
303,313,314,304,1
302,314,313,304,1
301,313,312,304,1
300,312,311,304,1
301,312,310,304,1
302,311,310,305,1
304,309,309,305,1
306,307,309,307,1
308,304,308,308,1
310,300,307,310,1
312,299,307,312,1
314,298,308,316,1
315,299,309,319,1
314,301,310,322,1
313,303,310,323,1
311,306,309,321,1
309,308,309,318,1
307,310,308,315,1
306,311,306,311,1
305,312,305,308,1
303,312,304,305,1
302,311,303,303,1
301,310,303,302,1
301,308,302,302,1
300,306,302,304,1
301,304,302,306,1
301,303,302,309,1
302,302,302,311,1
302,300,302,311,1
303,299,301,308,1
303,298,300,306,1
304,297,298,305,1
304,297,298,305,1
305,298,299,305,1
307,300,301,306,1
307,303,302,308,1
307,306,303,309,1
306,308,304,309,1
305,310,303,311,1
307,312,302,313,1
308,313,301,315,1
308,313,300,318,1
306,312,300,321,1
303,310,300,325,1
301,310,300,329,1
302,309,301,331,1
304,308,301,330,1
305,306,302,327,1
305,304,302,325,1
303,303,301,324,1
300,301,301,324,1
296,299,301,322,1
293,298,301,320,1
293,298,302,317,1
296,298,303,314,1
299,300,304,313,1
303,303,305,312,1
308,306,305,313,1
313,309,305,313,1
317,312,305,313,1
319,314,305,313,1
320,315,304,312,1
321,315,303,309,1
320,315,302,306,1
319,313,300,301,1
318,311,298,297,1
316,309,295,295,1
316,306,294,295,1
316,304,295,298,1
316,302,297,305,1
314,301,300,313,1
312,302,302,320,1
310,302,303,326,1
309,303,304,331,1
307,305,306,334,1
305,308,307,334,1
303,309,309,333,1
300,311,309,330,1
297,312,308,326,1
295,311,306,320,1
295,310,303,311,1
298,307,301,300,1
302,306,300,291,1
306,305,300,284,1
310,305,300,279,1
313,305,299,277,1
313,304,298,275,1
313,302,297,277,1
312,301,298,280,1
313,300,300,284,1
315,299,301,288,1
317,298,302,292,1
318,298,303,294,1
317,299,304,296,1
315,300,305,299,1
313,303,307,301,1
310,305,308,302,1
308,306,309,301,1
306,307,309,300,1
304,307,309,298,1
303,306,307,296,1
302,305,306,294,1
301,304,302,290,1
301,304,299,287,1
301,303,296,283,1
302,302,294,280,1
303,300,293,278,1
304,299,293,278,1
305,297,294,280,1
306,296,296,284,1
306,295,298,289,1
306,294,300,296,1
306,295,302,303,1
305,297,304,311,1
302,299,308,318,1
298,302,313,324,1
294,305,319,327,1
293,307,324,328,1
292,308,326,327,1
294,310,326,324,1
297,311,323,319,1
300,312,319,313,1
305,312,312,306,1
309,311,304,299,1
313,310,298,294,1
314,309,293,289,1
314,307,291,287,1
313,305,290,286,1
312,302,291,287,1
311,299,292,290,1
309,297,293,296,1
308,296,295,305,1
312,297,298,314,1
319,299,302,323,1
324,302,305,332,1
326,306,309,338,1
325,310,310,339,1
322,314,310,337,1
318,316,309,333,1
315,318,308,329,1
312,319,308,326,1
311,320,308,323,1
311,321,307,319,1
312,321,307,313,1
313,319,307,305,1
314,317,306,298,1
314,315,305,295,1
312,312,304,294,1
309,309,303,295,1
306,307,302,298,1
304,306,303,303,1
302,306,305,308,1
301,307,307,312,1
302,308,308,313,1
304,310,309,312,1
306,313,310,309,1
307,314,311,305,1
307,315,311,301,1
307,316,311,298,1
307,316,310,297,1
307,316,309,296,1
306,315,309,295,1
306,315,307,293,1
305,315,305,289,1
305,313,303,285,1
304,310,302,280,1
302,307,300,275,1
302,303,299,271,1
302,301,299,269,1
302,299,300,269,1
301,297,301,271,1
301,297,303,274,1
301,297,306,277,1
302,298,310,280,1
302,300,316,283,1
304,304,321,287,1
304,307,325,292,1
305,310,326,296,1
305,312,325,300,1
305,314,322,303,1
304,316,318,307,1
302,318,314,309,1
300,319,310,310,1
297,318,307,309,1
295,316,305,306,1
293,314,304,303,1
293,312,302,301,1
295,309,302,300,1
300,307,303,301,1
307,305,304,304,1
314,304,305,308,1
319,304,304,314,1
322,305,304,319,1
323,306,305,326,1
322,308,307,331,1
319,310,307,334,1
316,312,308,334,1
311,313,308,331,1
307,313,307,326,1
305,314,306,321,1
305,314,305,315,1
307,314,303,308,1
311,313,301,301,1
312,311,300,295,1
312,310,298,290,1
310,310,297,287,1
309,310,295,285,1
309,309,295,284,1
311,307,294,284,1
314,305,295,286,1
315,304,297,289,1
314,303,299,292,1
311,303,300,294,1
307,303,302,295,1
305,305,303,297,1
303,307,303,298,1
301,309,302,298,1
300,310,300,295,1
298,312,298,293,1
296,313,296,291,1
295,314,297,293,1
295,314,299,296,1
296,315,300,302,1
297,316,301,307,1
297,316,302,311,1
297,315,302,313,1
295,314,303,313,1
293,312,303,311,1
290,309,302,308,1
290,306,302,305,1
293,303,303,303,1
295,301,304,302,1
297,300,305,301,1
300,301,306,301,1
302,304,307,300,1
304,307,307,296,1
305,309,306,292,1
305,311,306,289,1
305,313,306,287,1
304,313,307,287,1
303,313,307,288,1
303,313,307,291,1
302,312,308,294,1
302,311,308,298,1
302,310,308,304,1
302,309,307,308,1
302,307,307,311,1
300,305,305,312,1
298,302,303,312,1
296,300,301,312,1
295,298,299,313,1
295,298,299,315,1
296,299,303,318,1
298,301,308,320,1
300,304,313,321,1
301,307,317,321,1
302,309,318,319,1
302,310,316,314,1
302,310,313,309,1
301,310,308,305,1
299,310,304,303,1
296,309,301,302,1
292,310,299,304,1
289,309,299,307,1
286,308,299,310,1
283,306,298,311,1
281,304,298,312,1
283,302,298,312,1
291,299,299,310,1
301,297,300,310,1
310,296,303,310,1
317,295,306,311,1
321,296,309,313,1
323,299,311,313,1
323,302,312,314,1
322,305,313,313,1
321,307,312,311,1
319,309,311,311,1
316,311,309,311,1
313,312,307,310,1
309,313,306,309,1
307,315,307,308,1
306,315,307,308,1
305,316,308,309,1
304,315,308,310,1
303,313,308,311,1
303,311,307,312,1
303,308,307,310,1
304,305,306,307,1
304,303,307,305,1
304,301,307,305,1
304,300,308,306,1
305,300,310,308,1
305,301,313,309,1
305,302,316,307,1
304,303,317,303,1
301,304,317,301,1
299,305,314,303,1
296,306,310,307,1
293,308,306,311,1
290,310,301,314,1
288,311,297,314,1
289,311,296,313,1
291,312,297,311,1
294,312,300,310,1
297,312,303,308,1
300,312,305,306,1
305,311,308,306,1
310,310,309,306,1
315,308,309,307,1
315,306,308,308,1
312,303,307,309,1
307,301,306,308,1
302,300,304,305,1
298,301,304,302,1
296,303,305,299,1
295,305,306,296,1
295,307,306,294,1
294,309,306,294,1
291,310,306,293,1
288,310,306,291,1
286,310,307,288,1
284,309,307,283,1
285,308,309,280,1
288,307,310,279,1
293,306,311,280,1
298,305,311,283,1
303,304,311,286,1
306,302,311,288,1
307,300,311,291,1
308,299,310,292,1
307,298,310,293,1
306,298,310,295,1
303,300,311,299,1
300,302,313,303,1
299,304,315,307,1
297,307,316,311,1
296,309,317,313,1
294,310,316,316,1
292,311,316,317,1
289,311,315,319,1
288,312,313,321,1
290,311,312,320,1
293,310,311,318,1
298,308,309,314,1
305,306,308,310,1
311,305,306,304,1
314,303,304,300,1
316,301,303,296,1
316,299,303,294,1
317,298,303,292,1
318,297,304,292,1
318,297,305,293,1
317,299,307,294,1
316,300,312,294,1
314,303,318,292,1
312,305,321,290,1
309,306,323,287,1
305,307,322,285,1
302,308,320,284,1
301,309,317,285,1
301,310,313,288,1
303,310,310,292,1
304,311,308,296,1
306,312,306,299,1
306,312,304,301,1
305,311,301,301,1
304,309,299,301,1
304,307,299,300,1
305,304,299,299,1
306,303,301,301,1
306,303,304,305,1
307,304,307,309,1
308,305,309,314,1
308,306,312,319,1
308,307,312,322,1
307,308,312,324,1
306,309,310,324,1
306,310,309,323,1
306,311,309,322,1
306,311,310,321,1
306,312,310,321,1
305,312,309,323,1
304,311,309,326,1
304,311,310,331,1
304,310,310,334,1
307,309,310,333,1
309,307,309,329,1
310,305,309,322,1
309,303,310,315,1
309,302,312,310,1
310,301,315,306,1
311,301,316,303,1
311,302,317,302,1
311,303,318,302,1
310,305,317,304,1
310,307,316,306,1
310,309,315,309,1
310,310,313,311,1
310,310,311,312,1
309,309,309,311,1
306,308,307,309,1
301,306,306,307,1
294,305,306,303,1
288,304,306,301,1
282,304,306,298,1
277,302,305,296,1
275,300,304,296,1
281,299,304,298,1
294,299,304,300,1
306,298,305,302,1
314,298,307,305,1
319,299,308,310,1
321,300,310,316,1
322,302,312,321,1
322,305,314,322,1
322,307,315,320,1
320,309,316,314,1
318,311,317,306,1
315,311,317,300,1
312,311,318,297,1
310,311,320,295,1
309,311,321,294,1
308,311,322,294,1
308,311,323,295,1
309,310,323,295,1
310,309,321,295,1
311,308,318,295,1
312,305,314,297,1
313,303,309,299,1
313,302,306,302,1
314,302,306,306,1
314,301,308,310,1
314,302,311,313,1
313,305,314,315,1
311,307,317,314,1
309,309,317,310,1
306,310,316,306,1
304,310,313,301,1
302,310,309,299,1
302,311,305,296,1
304,311,302,293,1
306,311,301,289,1
308,309,300,285,1
311,308,300,283,1
314,306,299,281,1
315,304,299,281,1
312,302,299,282,1
308,300,298,288,1
304,300,299,294,1
302,299,301,303,1
301,300,305,311,1
301,301,309,317,1
300,303,312,322,1
299,306,314,326,1
299,309,316,329,1
300,312,317,330,1
301,314,316,331,1
302,316,315,331,1
303,317,314,330,1
303,317,313,328,1
302,316,312,325,1
301,314,312,321,1
301,313,310,317,1
300,312,309,313,1
300,311,308,309,1
300,309,307,305,1
299,307,306,301,1
300,304,305,299,1
300,302,305,298,1
300,301,306,298,1
299,300,306,299,1
297,300,306,300,1
294,300,307,299,1
290,302,308,298,1
288,303,309,297,1
288,305,310,296,1
292,306,310,295,1
296,307,311,293,1
299,308,310,292,1
299,308,308,292,1
298,308,306,293,1
298,308,305,295,1
303,308,305,297,1
310,308,305,301,1
317,308,306,305,1
319,308,307,308,1
319,306,307,308,1
318,305,307,307,1
318,304,307,306,1
318,303,307,305,1
320,304,307,304,1
320,305,309,305,1
319,307,311,307,1
317,309,315,311,1
314,311,319,315,1
311,312,323,319,1
308,313,325,322,1
306,313,325,322,1
306,313,322,322,1
306,312,318,322,1
307,310,313,324,1
308,309,309,327,1
309,308,306,329,1
310,308,305,329,1
311,307,305,326,1
311,307,305,320,1
310,306,306,312,1
309,305,305,305,1
308,304,305,300,1
306,302,304,297,1
306,301,305,296,1
307,301,306,297,1
308,303,307,299,1
311,306,308,302,1
312,309,310,304,1
312,311,310,304,1
310,312,309,304,1
308,313,308,304,1
307,313,307,305,1
307,314,307,306,1
307,314,307,307,1
306,315,308,308,1
305,315,309,307,1
305,314,310,306,1
304,314,311,305,1
304,313,310,305,1
305,312,309,307,1
304,310,309,310,1
302,309,309,316,1
302,308,310,325,1
302,308,312,335,1
303,309,314,345,1
304,310,315,352,1
304,312,317,356,1
306,314,318,356,1
307,316,318,352,1
309,317,317,347,1
310,318,315,341,1
310,317,313,334,1
307,315,310,326,1
303,314,308,319,1
300,312,307,311,1
299,312,306,303,1
297,311,304,296,1
296,310,303,290,1
297,308,302,284,1
301,306,302,280,1
306,304,302,279,1
311,301,302,280,1
315,299,303,282,1
317,298,304,284,1
318,298,305,287,1
317,299,307,291,1
315,300,309,295,1
313,303,311,299,1
310,305,315,303,1
307,307,319,305,1
304,308,323,306,1
301,309,325,307,1
298,309,323,307,1
297,307,319,306,1
298,307,315,306,1
301,306,309,306,1
302,305,305,306,1
303,305,301,306,1
303,304,299,305,1
305,303,297,303,1
308,302,297,300,1
312,301,297,297,1
314,301,298,296,1
316,301,299,296,1
318,302,302,299,1
319,304,305,303,1
321,306,309,308,1
321,310,313,313,1
321,313,316,319,1
320,316,316,322,1
316,317,314,323,1
310,317,310,325,1
306,317,306,326,1
302,317,303,327,1
299,316,301,328,1
298,316,299,329,1
298,315,296,327,1
299,313,293,321,1
300,311,292,314,1
301,309,294,304,1
302,307,297,296,1
304,304,301,290,1
306,302,304,289,1
307,301,306,292,1
309,302,307,298,1
310,304,309,305,1
310,306,310,312,1
309,308,312,318,1
307,310,314,321,1
306,311,314,322,1
305,313,314,321,1
306,313,313,318,1
306,313,311,315,1
306,313,309,312,1
304,313,309,310,1
303,312,309,309,1
301,311,308,307,1
300,309,307,306,1
301,306,306,306,1
303,304,304,307,1
305,303,303,309,1
305,302,302,310,1
305,302,301,307,1
306,301,301,303,1
309,300,301,300,1
312,301,302,299,1
314,303,305,301,1
314,306,309,302,1
310,308,313,303,1
306,310,316,304,1
302,312,316,305,1
300,313,315,307,1
302,313,312,310,1
306,312,311,313,1
308,312,311,315,1
310,311,312,316,1
312,311,313,317,1
313,310,312,316,1
313,308,310,314,1
313,306,307,312,1
313,305,304,310,1
313,304,301,309,1
312,303,299,309,1
309,302,298,309,1
306,300,296,309,1
303,300,295,309,1
304,300,296,310,1
307,301,298,313,1
310,303,300,317,1
310,306,301,320,1
310,308,303,324,1
309,310,303,325,1
308,312,304,324,1
309,312,304,321,1
310,312,304,315,1
311,312,304,311,1
311,311,304,307,1
311,310,303,303,1
309,309,302,299,1
308,306,301,295,1
307,304,300,294,1
308,303,302,295,1
308,302,303,298,1
308,302,304,303,1
308,303,306,309,1
307,304,307,313,1
306,305,307,317,1
304,307,308,319,1
303,309,308,320,1
302,310,308,320,1
302,311,307,317,1
301,311,308,314,1
299,311,308,312,1
299,310,308,310,1
298,310,308,306,1
298,308,306,300,1
299,307,304,294,1
300,304,302,290,1
301,301,300,286,1
302,298,298,283,1
304,296,297,281,1
305,293,298,281,1
307,292,299,283,1
308,292,301,286,1
310,294,304,291,1
311,296,307,297,1
312,299,310,303,1
312,303,313,308,1
310,306,312,312,1
309,310,310,314,1
308,312,309,316,1
307,313,307,318,1
306,313,306,319,1
304,312,305,318,1
302,311,304,316,1
297,310,303,313,1
292,308,302,311,1
286,307,302,309,1
284,305,300,306,1
288,303,299,305,1
298,300,299,305,1
310,298,299,307,1
318,297,300,311,1
324,297,303,315,1
328,299,306,318,1
330,302,309,322,1
329,305,311,324,1
325,308,313,325,1
320,311,313,324,1
315,312,313,322,1
310,313,313,319,1
305,312,313,316,1
302,312,314,312,1
299,311,317,309,1
298,309,319,306,1
296,309,320,304,1
294,308,319,302,1
293,307,317,300,1
294,306,313,299,1
295,303,309,298,1
295,301,304,297,1
296,299,301,298,1
297,297,300,298,1
298,296,300,300,1
297,296,302,302,1
295,297,303,306,1
292,299,304,311,1
290,300,305,314,1
289,301,305,316,1
291,302,306,317,1
296,304,306,317,1
301,305,306,315,1
305,307,306,314,1
308,309,306,310,1
308,310,305,303,1
307,311,305,296,1
306,311,305,290,1
305,311,304,287,1
305,310,305,286,1
305,309,305,287,1
304,306,305,289,1
304,304,305,291,1
304,303,306,293,1
304,302,307,295,1
305,302,309,297,1
307,303,312,299,1
308,304,313,300,1
307,307,313,301,1
306,309,312,302,1
304,311,312,302,1
303,312,312,302,1
302,314,312,303,1
301,316,312,305,1
300,317,311,307,1
299,317,311,309,1
298,315,311,310,1
297,314,311,310,1
297,312,311,309,1
297,311,311,310,1
298,309,311,312,1
300,307,312,316,1
303,305,311,320,1
309,303,310,324,1
313,303,309,328,1
313,303,309,330,1
309,304,308,329,1
303,306,308,328,1
296,307,308,324,1
289,308,307,320,1
285,310,307,315,1
286,310,307,311,1
291,311,308,308,1
297,312,308,306,1
303,312,308,305,1
307,312,308,303,1
309,310,307,303,1
311,309,307,302,1
313,307,306,300,1
314,305,304,297,1
316,302,303,293,1
317,300,302,292,1
319,299,303,292,1
319,298,305,294,1
317,299,307,296,1
313,300,310,300,1
310,302,312,306,1
306,304,316,313,1
304,306,320,320,1
301,308,324,324,1
298,310,326,328,1
296,311,325,331,1
294,313,322,335,1
295,315,317,337,1
296,317,313,337,1
298,318,309,336,1
300,320,305,333,1
301,320,303,328,1
302,319,302,322,1
301,317,300,315,1
300,313,298,310,1
300,310,296,307,1
302,307,294,305,1
303,305,294,305,1
305,303,296,304,1
306,302,299,304,1
306,301,302,303,1
305,302,304,300,1
303,303,306,296,1
300,304,309,291,1
298,304,310,289,1
298,305,310,287,1
300,306,309,286,1
302,306,307,287,1
303,307,307,291,1
304,307,307,296,1
304,307,309,303,1
305,307,310,310,1
305,307,310,316,1
305,306,309,319,1
303,304,307,323,1
302,304,304,327,1
302,303,302,332,1
303,304,300,335,1
305,303,299,337,1
308,304,300,336,1
313,305,301,332,1
316,307,302,325,1
317,308,303,319,1
315,309,302,313,1
310,309,301,307,1
303,309,300,302,1
296,309,299,296,1
292,308,299,290,1
291,307,299,284,1
294,306,301,279,1
297,306,304,273,1
300,305,308,271,1
301,305,311,270,1
300,304,312,270,1
299,303,311,270,1
301,302,308,272,1
306,300,304,274,1
311,299,300,276,1
312,297,297,279,1
312,298,295,283,1
310,299,296,288,1
310,302,298,295,1
310,305,300,302,1
309,308,300,307,1
308,310,299,311,1
308,311,298,315,1
308,311,297,320,1
309,311,298,324,1
309,310,298,327,1
309,309,300,328,1
308,308,301,327,1
306,307,301,323,1
303,306,301,317,1
300,305,300,310,1
298,303,298,304,1
297,302,297,300,1
298,301,298,298,1
301,301,299,296,1
305,301,300,296,1
309,302,300,297,1
311,304,301,299,1
311,307,302,301,1
310,311,302,301,1
309,313,301,300,1
306,315,298,296,1
304,315,296,290,1
302,314,294,285,1
301,313,292,280,1
301,311,290,278,1
301,310,289,277,1
302,308,288,279,1
302,306,289,282,1
303,304,290,286,1
303,302,291,290,1
304,300,292,293,1
306,298,293,294,1
310,296,295,294,1
312,295,296,292,1
313,294,298,290,1
310,294,299,289,1
307,295,300,289,1
302,298,301,289,1
299,301,301,292,1
299,305,301,298,1
303,309,302,304,1
307,312,302,308,1
309,313,303,309,1
310,314,303,309,1
310,313,304,307,1
309,313,304,306,1
306,311,305,304,1
303,310,306,303,1
301,309,310,302,1
300,308,313,303,1
299,306,317,304,1
298,304,319,307,1
296,303,319,310,1
294,301,319,313,1
292,301,316,314,1
290,301,312,313,1
289,301,308,312,1
289,302,304,310,1
291,303,303,307,1
298,304,302,304,1
306,305,301,300,1
312,306,300,296,1
314,306,298,291,1
312,305,295,288,1
309,304,293,286,1
305,303,293,287,1
303,303,294,288,1
300,303,295,291,1
299,304,296,295,1
300,304,296,301,1
303,304,296,307,1
306,304,296,315,1
309,304,297,324,1
312,305,299,332,1
314,305,301,336,1
316,305,304,336,1
315,306,306,333,1
314,307,307,328,1
313,309,308,324,1
312,310,309,320,1
309,311,309,314,1
307,312,308,308,1
304,310,306,301,1
301,309,305,294,1
301,307,303,287,1
301,305,302,283,1
302,304,301,280,1
303,303,301,279,1
303,302,301,279,1
303,301,302,279,1
302,299,301,281,1
301,297,300,285,1
301,297,300,290,1
301,295,301,296,1
301,295,302,302,1
301,296,303,308,1
303,298,305,314,1
303,301,307,319,1
303,304,309,323,1
303,307,310,325,1
303,309,310,324,1
303,311,309,321,1
303,312,308,317,1
303,312,307,311,1
304,312,307,305,1
305,310,307,301,1
306,309,306,299,1
307,307,305,297,1
306,305,305,297,1
304,303,304,297,1
302,301,304,297,1
299,299,304,297,1
297,297,305,298,1
295,296,306,299,1
293,297,307,301,1
292,297,310,303,1
294,299,312,305,1
298,301,314,308,1
302,303,314,309,1
304,304,312,309,1
301,304,310,309,1
298,304,308,309,1
294,304,308,309,1
291,305,310,309,1
289,305,313,311,1
292,307,316,313,1
296,307,319,315,1
300,307,320,317,1
302,305,318,317,1
302,304,316,315,1
302,302,311,312,1
303,300,306,308,1
306,298,302,306,1
311,297,301,308,1
315,297,303,314,1
315,298,306,322,1
313,299,310,328,1
311,300,311,331,1
309,302,311,332,1
308,304,309,330,1
308,306,306,323,1
307,308,304,315,1
307,308,302,308,1
308,309,301,303,1
311,309,301,302,1
312,308,301,303,1
311,308,301,304,1
308,308,302,307,1
306,308,302,307,1
306,308,302,305,1
305,307,302,300,1
304,306,303,295,1
303,305,303,291,1
301,303,303,289,1
300,303,304,290,1
299,303,306,293,1
298,305,308,297,1
298,307,311,303,1
298,310,313,307,1
297,312,313,311,1
296,313,313,311,1
296,313,313,311,1
295,312,312,309,1
296,311,311,306,1
298,310,310,303,1
301,308,309,300,1
303,306,308,298,1
304,304,308,298,1
304,303,307,299,1
303,302,308,301,1
302,301,310,303,1
301,299,311,305,1
300,297,312,308,1
299,296,312,310,1
298,295,311,312,1
296,295,309,314,1
295,296,308,315,1
294,298,307,316,1
296,302,307,316,1
298,305,306,314,1
300,309,304,312,1
303,311,303,311,1
305,312,302,309,1
305,313,301,308,1
303,313,301,306,1
302,313,302,305,1
300,313,302,305,1
300,312,303,304,1
300,310,303,305,1
300,308,304,305,1
301,305,304,306,1
302,302,304,307,1
303,299,303,307,1
304,297,301,308,1
304,296,300,308,1
305,297,303,311,1
308,299,311,314,1
310,302,318,317,1
310,305,322,319,1
310,308,324,319,1
310,310,324,317,1
310,311,322,315,1
310,312,316,313,1
308,312,310,311,1
307,311,306,311,1
307,311,305,314,1
308,312,306,317,1
309,312,307,319,1
311,312,307,320,1
311,312,307,321,1
312,310,308,321,1
313,307,310,321,1
313,305,311,324,1
313,303,312,329,1
313,302,314,334,1
311,302,316,338,1
309,303,318,342,1
307,305,319,344,1
305,308,318,344,1
304,310,317,341,1
304,310,315,334,1
305,309,313,327,1
306,308,311,322,1
304,308,310,319,1
301,307,310,317,1
296,306,309,313,1
291,305,310,308,1
287,304,309,303,1
284,303,307,299,1
282,302,305,299,1
284,300,304,301,1
290,298,303,304,1
297,297,304,307,1
304,296,305,309,1
310,297,307,310,1
314,298,308,308,1
317,300,310,305,1
317,302,312,302,1
317,303,314,298,1
316,304,315,294,1
314,304,316,290,1
311,303,318,287,1
309,303,319,285,1
307,304,319,285,1
306,304,318,289,1
306,305,316,296,1
308,306,314,303,1
311,307,311,308,1
312,307,308,311,1
312,306,307,312,1
311,305,309,311,1
310,303,312,311,1
308,302,315,311,1
307,300,316,312,1
306,299,317,314,1
306,299,318,317,1
308,301,318,320,1
309,303,316,321,1
310,305,313,319,1
311,307,310,314,1
311,309,307,306,1
310,310,304,300,1
310,310,303,296,1
308,310,302,293,1
305,309,302,291,1
302,308,302,289,1
300,307,301,289,1
298,306,301,291,1
299,305,302,294,1
302,304,302,297,1
305,303,301,299,1
309,301,301,302,1
311,300,301,305,1
313,299,301,310,1
315,300,302,316,1
316,302,306,322,1
317,305,310,327,1
315,308,313,330,1
310,310,314,329,1
306,311,315,326,1
302,312,315,322,1
300,312,315,319,1
299,312,314,317,1
300,313,314,315,1
302,313,312,311,1
303,312,311,306,1
304,311,308,300,1
304,309,305,297,1
305,307,302,296,1
307,305,301,295,1
309,303,300,294,1
309,300,300,295,1
309,299,300,297,1
308,299,302,303,1
307,300,304,309,1
306,300,307,317,1
304,301,308,322,1
301,302,309,327,1
301,303,308,329,1
305,305,307,329,1
311,307,308,328,1
317,311,308,327,1
319,315,308,327,1
317,318,308,324,1
312,319,307,320,1
309,319,307,315,1
306,317,306,309,1
306,314,305,302,1
308,310,303,293,1
311,306,302,286,1
313,302,301,281,1
313,299,301,281,1
312,297,303,282,1
311,296,305,283,1
309,296,308,283,1
308,296,309,284,1
309,298,309,284,1
310,300,308,284,1
311,303,305,285,1
311,304,302,285,1
310,306,297,286,1
309,308,293,287,1
308,309,291,288,1
308,311,290,289,1
306,311,290,290,1
304,312,290,292,1
301,312,291,294,1
298,312,291,294,1
296,310,291,293,1
297,308,291,293,1
299,306,292,294,1
302,305,294,297,1
305,304,297,301,1
309,303,300,306,1
312,304,304,311,1
314,305,307,315,1
316,306,310,317,1
316,308,309,315,1
316,309,308,310,1
316,310,305,305,1
317,311,303,303,1
317,312,301,302,1
316,312,300,301,1
314,313,300,301,1
311,313,299,300,1
308,313,298,299,1
304,312,296,298,1
301,310,296,298,1
300,308,297,300,1
301,307,298,301,1
303,305,299,302,1
304,303,300,302,1
306,303,300,303,1
306,302,301,304,1
307,301,302,306,1
307,301,303,309,1
306,302,304,312,1
305,304,305,314,1
305,307,306,314,1
304,309,309,312,1
303,311,311,310,1
302,312,314,311,1
302,314,315,314,1
300,315,314,319,1
299,314,314,326,1
297,313,315,334,1
297,311,316,342,1
295,310,317,348,1
294,308,318,351,1
293,307,317,351,1
294,305,316,347,1
299,304,314,340,1
306,303,313,331,1
311,302,312,319,1
314,300,310,307,1
315,299,309,296,1
315,299,307,288,1
312,299,306,284,1
307,301,304,281,1
299,302,302,282,1
294,304,301,284,1
293,305,301,287,1
296,306,302,289,1
302,306,304,290,1
308,306,308,290,1
313,306,313,290,1
315,305,316,292,1
315,304,317,293,1
313,303,316,294,1
309,301,312,294,1
306,299,308,296,1
302,298,304,298,1
300,298,301,302,1
299,298,301,305,1
301,299,303,309,1
305,301,306,315,1
309,303,309,320,1
311,306,312,322,1
312,309,313,323,1
311,312,312,321,1
309,315,311,318,1
309,317,309,314,1
309,320,306,312,1
310,320,304,309,1
313,319,303,308,1
316,318,303,307,1
319,316,303,307,1
320,314,303,306,1
319,312,303,305,1
316,310,302,304,1
312,308,300,302,1
309,306,299,302,1
307,304,299,302,1
307,304,301,303,1
308,304,304,305,1
308,305,306,306,1
308,305,309,307,1
307,307,312,308,1
307,309,313,310,1
308,311,312,312,1
308,313,310,313,1
307,313,307,312,1
307,313,305,309,1
307,311,303,306,1
306,311,301,303,1
305,309,299,300,1
302,308,299,298,1
300,308,301,297,1
298,307,302,296,1
297,306,302,295,1
298,304,302,296,1
302,303,301,295,1
307,302,301,295,1
311,301,301,296,1
314,300,302,297,1
314,300,304,300,1
312,301,306,304,1
308,304,308,309,1
304,306,312,314,1
300,309,317,317,1
300,310,322,320,1
303,311,324,324,1
308,312,324,327,1
311,312,323,331,1
313,313,321,334,1
314,315,317,335,1
315,316,313,334,1
315,316,308,330,1
314,316,304,324,1
313,315,302,317,1
312,312,300,310,1
311,309,298,303,1
311,305,298,298,1
311,303,298,296,1
312,300,297,294,1
313,300,296,293,1
314,300,295,293,1
314,301,293,292,1
312,303,293,290,1
310,304,293,286,1
307,305,293,281,1
304,306,293,276,1
302,305,293,272,1
301,304,294,270,1
300,303,296,270,1
299,302,296,273,1
298,302,297,281,1
297,302,298,290,1
298,302,300,300,1
301,302,303,309,1
308,303,304,318,1
314,303,306,323,1
319,302,307,325,1
323,301,309,324,1
325,301,312,324,1
325,301,314,322,1
322,302,315,320,1
318,303,315,318,1
313,304,314,315,1
308,305,312,312,1
306,307,309,311,1
305,307,308,311,1
303,308,307,312,1
298,308,305,314,1
291,307,303,316,1
289,307,303,317,1
289,307,305,317,1
292,308,307,316,1
298,307,307,311,1
303,306,307,303,1
308,304,305,296,1
311,302,302,290,1
313,301,300,289,1
315,300,300,290,1
317,300,302,292,1
318,300,304,295,1
317,301,306,298,1
315,302,308,301,1
313,305,309,301,1
310,307,310,300,1
307,309,309,298,1
304,311,309,297,1
302,312,308,297,1
301,312,308,295,1
300,311,308,293,1
299,310,309,291,1
300,309,312,291,1
301,308,314,291,1
302,307,315,293,1
303,306,315,295,1
304,304,314,299,1
304,302,312,305,1
305,301,310,311,1
306,300,308,316,1
306,299,306,319,1
306,300,304,320,1
307,301,302,319,1
307,303,301,317,1
307,305,300,313,1
306,308,300,308,1
305,310,299,305,1
304,311,298,301,1
302,311,297,299,1
300,311,296,298,1
299,310,296,297,1
300,309,296,297,1
301,308,296,297,1
303,308,297,297,1
304,307,297,299,1
303,305,297,302,1
303,303,297,306,1
304,301,298,311,1
306,300,301,316,1
308,299,304,319,1
311,299,307,321,1
312,299,311,322,1
313,301,314,322,1
312,303,317,321,1
311,305,319,320,1
309,307,319,318,1
307,309,318,314,1
305,311,315,310,1
302,312,313,304,1
300,312,310,298,1
298,311,308,292,1
296,310,305,286,1
292,309,303,282,1
289,308,301,279,1
286,306,300,279,1
286,304,299,281,1
291,301,299,286,1
297,300,299,291,1
303,298,300,298,1
308,298,301,304,1
311,298,303,312,1
313,301,305,318,1
315,304,308,322,1
317,308,311,325,1
317,313,316,326,1
317,316,321,325,1
315,318,325,322,1
314,319,328,318,1
311,318,327,312,1
309,317,324,309,1
309,315,320,309,1
309,315,315,312,1
307,313,309,315,1
305,312,303,315,1
303,311,298,313,1
302,310,295,309,1
302,309,293,306,1
304,309,293,303,1
305,307,292,300,1
306,305,292,299,1
305,304,294,299,1
303,304,296,301,1
300,304,298,306,1
297,304,301,312,1
294,305,303,315,1
293,306,304,317,1
292,307,304,317,1
294,309,304,315,1
298,311,305,313,1
302,313,305,310,1
304,314,305,306,1
306,315,304,301,1
307,315,302,297,1
308,314,301,294,1
310,312,300,293,1
310,310,300,293,1
311,308,301,293,1
312,305,302,293,1
313,302,303,293,1
315,300,306,295,1
316,299,309,298,1
315,298,312,301,1
312,299,313,305,1
309,300,314,309,1
307,303,313,313,1
307,305,312,316,1
306,308,310,317,1
306,311,308,317,1
306,313,305,316,1
306,314,303,315,1
305,314,302,312,1
303,314,301,309,1
302,313,301,305,1
302,312,301,302,1
302,311,301,298,1
302,309,300,294,1
304,306,299,291,1
305,303,298,288,1
307,301,298,289,1
307,299,298,292,1
306,299,299,296,1
304,300,300,301,1
302,302,301,304,1
300,304,302,305,1
299,307,303,304,1
299,309,303,303,1
302,311,303,301,1
305,313,303,298,1
307,314,302,295,1
309,315,301,293,1
310,315,301,291,1
310,315,303,290,1
308,314,306,290,1
305,314,310,291,1
302,313,313,293,1
300,311,314,296,1
300,309,314,302,1
300,307,312,307,1
301,306,310,314,1
303,305,308,321,1
305,305,307,329,1
305,306,306,336,1
304,308,306,342,1
302,310,307,347,1
302,313,309,350,1
304,315,310,349,1
306,316,310,343,1
309,316,310,332,1
309,317,310,320,1
308,317,310,311,1
306,317,310,305,1
305,317,310,302,1
304,317,312,302,1
304,317,314,302,1
305,317,316,303,1
306,316,317,304,1
308,314,316,305,1
311,312,315,306,1
313,311,315,308,1
313,309,315,312,1
312,308,315,317,1
310,308,313,322,1
308,308,312,326,1
306,309,310,329,1
304,310,309,328,1
303,311,308,325,1
303,311,308,320,1
302,312,307,318,1
300,312,306,317,1
299,312,306,320,1
298,312,306,324,1
300,312,305,328,1
303,311,305,330,1
305,310,305,329,1
307,308,305,327,1
308,306,304,323,1
309,304,304,320,1
310,302,304,318,1
310,301,304,316,1
310,300,305,315,1
309,301,306,313,1
308,302,309,310,1
306,303,312,305,1
304,304,317,301,1
302,306,323,298,1
299,307,326,296,1
295,308,325,295,1
292,309,323,294,1
290,309,319,294,1
290,310,313,293,1
292,310,306,291,1
295,310,298,288,1
299,310,292,286,1
302,309,288,285,1
304,307,286,283,1
305,306,287,283,1
306,304,289,286,1
307,302,292,291,1
308,302,295,297,1
310,301,298,305,1
311,300,299,311,1
312,301,299,318,1
313,303,300,324,1
313,305,301,330,1
312,308,303,333,1
310,310,305,333,1
308,312,306,331,1
304,313,306,326,1
303,314,305,320,1
302,314,305,313,1
303,314,305,306,1
304,312,305,300,1
306,311,305,294,1
307,309,305,289,1
309,307,305,287,1
314,305,304,287,1
318,303,305,288,1
320,301,306,291,1
319,300,307,296,1
315,298,308,302,1
311,298,310,308,1
307,298,311,313,1
305,301,313,316,1
304,304,315,319,1
303,307,316,320,1
302,309,315,318,1
300,310,314,316,1
298,310,311,312,1
295,309,309,308,1
292,307,305,305,1
291,306,302,303,1
291,304,301,303,1
292,304,302,305,1
293,303,304,308,1
295,302,306,311,1
296,301,307,312,1
297,299,306,312,1
298,296,304,311,1
301,294,303,309,1
302,293,302,305,1
302,293,301,302,1
301,293,300,300,1
300,295,300,299,1
298,298,300,298,1
295,300,300,296,1
292,302,299,293,1
293,303,299,291,1
298,305,300,292,1
303,306,301,295,1
306,308,301,299,1
308,308,301,301,1
310,308,302,301,1
312,308,303,300,1
313,307,306,299,1
313,307,310,296,1
311,305,313,295,1
308,303,315,293,1
304,302,315,293,1
302,300,313,294,1
300,299,311,295,1
301,298,307,297,1
302,298,304,301,1
305,299,303,307,1
307,301,303,314,1
310,303,303,321,1
310,305,304,326,1
310,307,305,329,1
308,309,306,330,1
307,310,306,327,1
303,311,304,323,1
301,311,301,316,1
299,310,298,309,1
301,309,296,303,1
306,308,297,299,1
310,306,297,294,1
314,304,298,289,1
315,302,298,284,1
316,299,298,279,1
315,296,298,275,1
315,293,299,274,1
314,292,300,276,1
315,292,301,280,1
316,293,302,284,1
317,295,303,288,1
318,298,304,292,1
320,300,304,294,1
320,302,303,296,1
318,304,302,297,1
313,305,301,297,1
309,306,299,298,1
305,307,297,300,1
303,307,297,302,1
301,308,298,304,1
300,310,301,309,1
300,310,303,314,1
300,309,304,319,1
301,308,304,323,1
303,305,304,325,1
305,302,304,327,1
307,300,304,328,1
308,298,303,327,1
310,297,303,325,1
311,298,303,323,1
312,299,304,323,1
312,301,305,322,1
310,304,305,319,1
308,306,306,313,1
306,307,306,308,1
304,307,306,304,1
302,307,305,302,1
300,307,303,303,1
299,307,302,305,1
300,306,301,308,1
302,305,301,311,1
305,304,302,312,1
308,302,301,311,1
309,301,301,308,1
307,300,301,305,1
303,299,300,301,1
300,298,299,299,1
300,298,299,298,1
302,299,300,297,1
307,301,303,297,1
311,303,305,297,1
314,305,307,296,1
315,307,307,293,1
314,308,307,289,1
312,309,306,286,1
309,309,306,285,1
306,308,306,285,1
303,308,305,287,1
301,306,304,288,1
299,305,305,290,1
297,304,307,291,1
297,303,308,292,1
298,301,309,292,1
302,299,309,293,1
309,298,310,296,1
315,297,309,302,1
319,297,307,308,1
320,297,305,313,1
319,298,306,318,1
318,298,307,324,1
317,300,308,332,1
319,302,309,338,1
321,303,308,342,1
321,304,306,344,1
320,305,304,343,1
317,306,304,340,1
313,306,305,335,1
308,307,305,329,1
302,307,305,320,1
297,307,305,311,1
294,307,303,303,1
294,306,302,297,1
296,304,300,294,1
300,302,299,292,1
303,300,298,292,1
305,298,297,293,1
308,298,296,295,1
308,298,296,298,1
309,299,296,300,1
308,300,298,301,1
307,302,302,300,1
306,303,305,299,1
304,304,307,299,1
303,305,309,299,1
301,306,311,298,1
301,307,311,299,1
300,309,311,300,1
300,309,310,301,1
299,310,309,302,1
300,310,306,303,1
299,310,304,304,1
300,309,302,306,1
300,306,301,306,1
300,304,300,304,1
300,301,299,304,1
300,299,299,304,1
300,298,299,307,1
301,299,302,311,1
304,300,305,316,1
307,302,308,321,1
311,305,311,325,1
312,308,314,329,1
310,311,316,330,1
304,312,317,328,1
297,313,316,323,1
291,312,314,318,1
287,312,311,312,1
287,312,308,309,1
289,312,305,307,1
293,312,303,305,1
298,312,302,304,1
303,311,301,303,1
306,309,301,304,1
309,308,301,305,1
309,306,301,307,1
309,304,301,310,1
308,302,302,314,1
307,302,303,317,1
306,301,304,317,1
303,301,305,317,1
298,302,306,317,1
294,303,307,317,1
293,304,308,317,1
294,306,307,315,1
294,306,306,314,1
295,307,306,312,1
297,307,309,312,1
302,308,312,311,1
308,308,315,310,1
314,308,318,308,1
319,308,318,306,1
322,307,315,304,1
324,306,312,301,1
325,304,308,297,1
327,302,303,292,1
327,300,300,288,1
326,299,298,287,1
323,298,299,288,1
319,298,300,292,1
315,299,303,295,1
311,301,305,298,1
306,302,306,299,1
301,303,307,298,1
298,304,307,298,1
298,306,308,298,1
301,307,308,299,1
302,308,309,300,1
303,309,309,304,1
304,309,309,309,1
305,308,308,314,1
307,307,306,317,1
309,306,304,319,1
312,305,302,318,1
314,302,301,314,1
316,299,300,308,1
317,297,299,303,1
315,294,299,300,1
313,293,299,299,1
310,293,299,297,1
305,294,298,295,1
299,296,297,292,1
294,299,297,291,1
293,303,299,293,1
294,307,302,295,1
295,310,304,297,1
295,313,304,298,1
293,315,304,299,1
292,315,304,300,1
290,315,303,301,1
291,315,303,303,1
293,314,303,304,1
296,313,303,306,1
301,312,302,306,1
306,308,301,306,1
311,305,301,306,1
314,303,301,308,1
315,302,302,310,1
316,300,303,313,1
316,300,304,316,1
316,301,305,318,1
316,303,306,319,1
315,306,306,320,1
314,309,306,318,1
312,311,305,315,1
310,311,305,313,1
308,312,306,312,1
308,311,310,313,1
310,310,313,313,1
311,309,317,314,1
312,307,318,314,1
312,306,316,314,1
311,304,313,312,1
309,303,309,311,1
309,303,306,310,1
310,303,303,309,1
311,302,302,308,1
311,302,302,307,1
312,301,303,308,1
314,302,305,310,1
315,302,307,314,1
315,303,309,317,1
312,305,311,319,1
310,307,313,320,1
311,308,314,321,1
312,309,315,319,1
314,310,314,318,1
313,311,312,316,1
312,310,310,315,1
311,309,309,314,1
309,308,307,313,1
308,307,305,310,1
309,306,304,308,1
311,305,303,307,1
314,304,301,306,1
316,302,300,308,1
318,302,299,311,1
318,302,300,315,1
318,303,302,320,1
317,304,307,325,1
316,305,311,328,1
317,306,314,330,1
317,308,316,331,1
316,308,315,330,1
314,308,314,329,1
313,308,313,324,1
311,307,311,319,1
308,306,309,314,1
303,304,307,311,1
296,303,306,308,1
289,303,304,306,1
284,303,302,303,1
284,302,300,303,1
287,303,298,306,1
291,303,297,312,1
297,304,299,320,1
303,305,304,330,1
310,307,310,338,1
315,309,314,344,1
320,310,317,348,1
322,312,317,347,1
323,313,317,346,1
322,315,315,344,1
321,316,311,343,1
319,317,308,339,1
317,318,306,332,1
315,318,306,322,1
313,318,304,308,1
311,316,303,295,1
308,314,302,283,1
306,311,301,275,1
304,310,300,271,1
302,307,300,270,1
300,305,300,270,1
300,302,301,272,1
300,300,305,274,1
301,298,308,279,1
304,296,312,284,1
307,295,313,288,1
309,295,313,291,1
312,296,312,294,1
315,298,309,296,1
318,302,305,298,1
320,306,301,297,1
321,309,299,295,1
320,312,297,294,1
317,314,298,294,1
314,316,298,295,1
310,317,298,297,1
306,318,298,300,1
302,318,298,302,1
299,318,299,303,1
298,317,301,303,1
298,315,303,302,1
299,313,304,301,1
300,311,305,301,1
302,308,304,301,1
303,305,304,301,1
304,303,306,301,1
303,301,308,300,1
301,302,310,301,1
297,303,312,302,1
292,304,312,303,1
288,306,312,304,1
289,308,312,303,1
297,310,311,301,1
309,311,310,300,1
320,313,310,301,1
326,314,309,304,1
326,314,308,307,1
321,314,307,309,1
313,314,306,309,1
307,313,306,308,1
303,311,305,306,1
302,308,306,306,1
303,306,307,309,1
305,305,310,314,1
308,305,312,322,1
310,306,314,329,1
312,307,317,334,1
313,309,320,336,1
313,311,322,335,1
313,313,321,331,1
312,316,318,326,1
310,317,315,322,1
307,320,310,319,1
305,321,307,316,1
304,322,304,312,1
301,322,301,306,1
298,320,298,299,1
294,319,296,293,1
291,315,294,288,1
291,312,292,282,1
294,308,292,278,1
299,305,294,276,1
305,303,297,276,1
310,302,300,278,1
313,301,303,281,1
315,301,306,283,1
315,302,307,286,1
313,303,307,290,1
312,305,307,293,1
310,308,310,295,1
309,310,313,296,1
307,311,317,297,1
306,312,318,298,1
305,313,317,299,1
304,313,315,300,1
304,312,312,301,1
304,311,308,301,1
305,310,304,300,1
307,309,300,299,1
308,308,295,297,1
309,306,291,296,1
310,305,289,295,1
310,303,289,296,1
309,302,290,297,1
308,302,292,299,1
308,301,296,301,1
307,302,300,304,1
307,304,305,306,1
307,306,309,308,1
308,309,312,308,1
307,311,314,308,1
306,312,316,309,1
305,314,316,310,1
303,315,317,313,1
302,316,317,315,1
301,317,316,315,1
300,316,315,315,1
300,315,315,313,1
300,313,314,311,1
299,312,313,307,1
298,310,311,304,1
297,307,308,302,1
296,304,306,303,1
296,302,304,306,1
297,300,303,310,1
298,300,303,314,1
300,300,304,318,1
302,301,306,322,1
303,303,308,328,1
303,305,310,333,1
305,308,312,337,1
307,311,313,337,1
309,313,313,334,1
311,315,312,326,1
311,315,310,317,1
309,316,308,305,1
307,316,305,293,1
305,316,303,282,1
302,314,301,274,1
301,311,299,270,1
303,308,299,268,1
308,304,300,270,1
313,302,302,272,1
315,299,304,276,1
315,298,306,281,1
313,299,308,286,1
310,301,311,291,1
307,304,312,295,1
305,307,313,297,1
305,310,313,295,1
306,312,310,293,1
306,313,309,291,1
307,315,308,291,1
307,316,308,292,1
306,317,308,293,1
306,317,310,293,1
305,317,312,291,1
305,316,313,289,1
304,315,316,288,1
303,313,318,288,1
302,311,319,288,1
304,309,319,289,1
306,306,317,289,1
309,304,314,289,1
312,302,311,290,1
315,301,309,290,1
317,301,308,291,1
318,301,308,294,1
316,303,307,298,1
312,305,305,302,1
307,307,303,306,1
302,309,302,311,1
298,312,301,314,1
295,314,302,317,1
292,316,302,320,1
291,317,303,321,1
291,318,304,322,1
293,319,307,323,1
296,320,309,324,1
299,320,310,324,1
302,319,310,324,1
303,317,308,324,1
304,314,306,323,1
305,311,304,323,1
307,308,303,322,1
310,305,303,322,1
312,304,304,323,1
313,305,305,322,1
312,307,306,319,1
310,308,305,315,1
308,309,305,310,1
305,310,304,304,1
304,310,304,300,1
304,311,304,297,1
304,311,305,296,1
304,312,306,294,1
303,312,307,293,1
303,312,307,291,1
302,311,308,290,1
300,311,307,290,1
299,310,307,292,1
299,309,306,295,1
300,307,306,301,1
300,305,306,309,1
300,303,307,320,1
300,302,309,330,1
301,301,311,338,1
303,302,312,343,1
306,304,314,348,1
310,305,316,349,1
316,308,317,346,1
319,309,319,342,1
318,312,320,337,1
314,314,321,335,1
307,316,321,332,1
301,317,323,328,1
298,316,326,324,1
297,315,327,320,1
298,314,326,314,1
301,312,323,305,1
304,309,318,295,1
307,307,311,284,1
311,304,305,276,1
313,302,299,271,1
314,299,296,270,1
314,297,295,271,1
313,297,295,273,1
312,297,297,276,1
310,299,299,280,1
309,301,302,283,1
307,304,304,285,1
306,307,305,288,1
306,309,306,290,1
306,311,307,292,1
306,312,307,295,1
304,312,308,298,1
302,313,309,301,1
300,313,310,303,1
300,312,311,306,1
301,311,311,309,1
302,309,311,311,1
304,308,312,315,1
306,307,316,319,1
308,305,319,321,1
310,304,321,322,1
312,304,323,323,1
314,304,324,323,1
316,304,323,323,1
317,305,320,322,1
317,306,316,320,1
315,307,311,318,1
311,307,308,314,1
307,308,307,310,1
305,309,307,306,1
305,309,308,302,1
306,309,310,299,1
307,309,310,296,1
309,308,310,294,1
309,308,308,292,1
309,307,308,291,1
308,306,307,290,1
308,303,307,290,1
308,302,306,291,1
308,301,305,294,1
309,300,306,297,1
310,300,306,302,1
311,301,308,306,1
312,303,309,311,1
311,306,311,316,1
311,309,313,320,1
308,311,313,321,1
304,313,313,322,1
300,313,311,322,1
297,313,309,320,1
294,312,309,318,1
294,311,310,316,1
298,311,312,314,1
304,310,315,313,1
311,310,318,312,1
314,308,322,313,1
314,306,324,315,1
312,304,324,321,1
312,302,323,326,1
315,300,320,328,1
319,299,317,327,1
323,299,313,326,1
325,300,310,324,1
325,300,308,323,1
322,301,307,321,1
317,302,307,318,1
312,304,308,315,1
307,305,307,312,1
304,307,307,312,1
303,309,307,313,1
302,312,306,314,1
302,313,305,313,1
302,314,304,313,1
303,315,303,313,1
303,315,302,313,1
303,315,302,313,1
303,313,303,312,1
304,311,303,312,1
305,309,303,313,1
306,307,304,315,1
308,306,305,317,1
310,305,307,319,1
311,304,310,321,1
313,305,312,322,1
313,306,313,324,1
311,308,313,324,1
307,309,312,322,1
304,310,311,319,1
301,310,310,315,1
300,310,310,309,1
300,309,308,302,1
302,309,308,295,1
304,309,307,290,1
304,307,307,288,1
303,306,308,289,1
301,305,309,291,1
300,305,310,294,1
301,303,311,297,1
305,302,312,300,1
310,301,312,304,1
315,301,311,307,1
319,301,311,310,1
320,301,311,313,1
320,302,312,316,1
319,303,312,317,1
317,305,311,316,1
315,307,308,314,1
313,308,305,311,1
311,309,304,307,1
308,309,302,301,1
304,309,300,294,1
299,308,299,288,1
295,307,297,284,1
292,306,297,283,1
291,305,296,284,1
290,304,297,286,1
292,303,299,290,1
297,302,301,293,1
303,302,303,296,1
307,301,304,299,1
309,302,305,303,1
309,302,307,307,1
308,303,308,310,1
308,304,311,312,1
309,305,312,312,1
311,308,314,310,1
314,309,316,308,1
317,311,319,307,1
319,312,321,306,1
320,311,321,306,1
319,311,320,306,1
317,310,317,306,1
315,309,312,304,1
312,307,307,303,1
310,306,303,303,1
310,304,301,303,1
310,302,299,304,1
312,300,300,306,1
312,298,301,309,1
310,297,302,314,1
305,296,304,319,1
300,295,307,324,1
297,296,309,327,1
298,297,311,328,1
304,298,313,327,1
313,300,315,325,1
322,302,317,323,1
327,304,318,321,1
330,304,317,319,1
328,304,316,317,1
322,304,314,314,1
315,304,311,312,1
310,304,309,310,1
306,303,308,309,1
305,304,307,308,1
304,303,306,304,1
305,302,305,299,1
305,300,304,295,1
305,298,303,292,1
304,296,303,290,1
305,295,303,290,1
306,294,305,294,1
308,295,308,300,1
310,297,311,307,1
311,300,313,314,1
312,303,315,319,1
311,305,316,323,1
309,307,316,325,1
307,308,316,327,1
306,308,315,325,1
304,308,315,321,1
303,308,314,316,1
302,308,313,312,1
303,307,311,308,1
303,306,309,305,1
304,305,308,303,1
304,303,306,300,1
305,301,305,297,1
306,299,305,295,1
308,296,305,294,1
309,296,306,294,1
311,295,307,294,1
312,296,308,295,1
312,297,310,297,1
313,300,312,297,1
312,301,313,295,1
310,302,313,292,1
307,303,311,290,1
303,303,310,290,1
295,303,308,291,1
288,302,305,293,1
285,301,304,294,1
287,301,304,296,1
291,301,307,296,1
294,302,312,297,1
297,303,317,299,1
302,303,319,303,1
307,303,319,306,1
312,301,316,309,1
315,300,312,311,1
319,299,308,311,1
320,298,304,312,1
320,299,300,311,1
319,299,298,310,1
317,300,299,308,1
316,302,300,306,1
315,304,301,306,1
314,305,301,306,1
311,307,300,305,1
307,309,300,306,1
304,310,301,308,1
303,311,302,309,1
302,311,302,309,1
302,311,303,309,1
304,311,303,309,1
304,311,302,306,1
304,309,300,301,1
304,306,298,296,1
303,303,297,293,1
302,300,298,293,1
302,298,299,294,1
302,297,302,296,1
302,297,305,301,1
301,299,309,309,1
300,302,311,321,1
302,305,314,334,1
304,307,315,346,1
304,309,316,354,1
303,309,316,359,1
302,310,314,360,1
301,310,312,357,1
302,310,310,352,1
303,310,309,345,1
305,310,306,336,1
307,309,303,324,1
310,307,299,314,1
314,306,297,305,1
316,304,295,298,1
316,302,295,291,1
315,300,295,285,1
313,298,295,279,1
312,297,296,277,1
310,297,298,277,1
310,298,300,279,1
309,300,303,281,1
308,303,304,284,1
308,305,304,286,1
308,306,303,287,1
305,306,303,288,1
303,307,303,289,1
302,307,303,291,1
301,308,302,294,1
300,308,302,298,1
301,308,304,302,1
301,307,307,306,1
303,307,311,310,1
306,306,314,313,1
309,304,316,315,1
311,303,315,316,1
312,302,312,317,1
314,301,308,319,1
313,302,304,321,1
311,303,302,321,1
309,304,301,322,1
308,306,302,322,1
308,308,304,321,1
307,309,306,320,1
307,310,308,317,1
306,310,309,314,1
305,309,308,310,1
302,308,306,305,1
298,307,303,301,1
295,306,301,299,1
294,305,299,298,1
292,304,299,298,1
291,304,298,297,1
291,303,298,296,1
292,302,298,294,1
294,301,298,293,1
297,299,299,293,1
300,298,301,293,1
304,298,304,294,1
308,299,307,297,1
313,300,309,300,1
318,303,312,304,1
320,306,313,306,1
320,308,313,308,1
320,311,312,309,1
319,312,310,309,1
317,313,309,309,1
314,314,308,309,1
312,314,307,309,1
311,313,307,311,1
311,312,308,313,1
311,311,308,316,1
311,311,308,318,1
311,309,308,320,1
309,306,308,322,1
306,304,308,325,1
303,302,308,329,1
300,301,307,332,1
298,300,307,334,1
297,301,307,335,1
296,303,308,334,1
295,305,308,332,1
298,308,309,330,1
301,310,309,328,1
304,312,309,326,1
306,313,309,322,1
307,314,310,318,1
308,314,312,315,1
308,314,311,310,1
308,313,310,305,1
307,311,308,297,1
305,309,306,289,1
304,306,306,282,1
304,304,305,278,1
305,302,303,277,1
306,299,301,278,1
307,297,299,281,1
308,295,298,284,1
310,295,299,289,1
311,296,303,293,1
311,298,308,296,1
311,300,312,298,1
310,303,313,300,1
310,305,313,301,1
310,306,311,301,1
310,307,308,302,1
309,307,305,303,1
308,306,302,304,1
305,304,300,305,1
299,303,299,304,1
291,301,298,305,1
286,299,298,307,1
286,298,299,309,1
290,298,300,312,1
298,298,302,315,1
308,298,305,316,1
319,299,309,318,1
326,300,314,318,1
330,303,317,318,1
330,305,318,318,1
328,308,316,318,1
325,311,314,320,1
320,314,311,322,1
315,316,308,324,1
310,317,306,324,1
307,318,305,324,1
304,318,305,321,1
303,317,305,316,1
301,315,305,311,1
300,314,305,306,1
300,312,305,304,1
300,312,305,304,1
300,312,304,305,1
300,311,304,306,1
301,310,303,304,1
301,308,303,302,1
301,306,303,302,1
302,305,304,305,1
302,304,305,310,1
303,303,308,315,1
303,304,310,321,1
303,306,312,326,1
304,308,313,327,1
304,309,313,324,1
304,310,313,320,1
305,310,312,314,1
305,310,312,308,1
306,310,311,302,1
306,310,311,298,1
307,311,310,296,1
307,311,309,294,1
307,312,308,292,1
308,311,307,290,1
307,309,306,289,1
307,307,305,289,1
307,305,305,291,1
308,304,306,294,1
310,303,307,297,1
311,303,308,300,1
312,303,310,303,1
314,305,311,305,1
315,307,312,308,1
315,309,312,312,1
314,311,313,316,1
312,312,314,318,1
310,313,316,320,1
307,312,316,322,1
303,311,314,325,1
297,310,309,323,1
291,307,304,315,1
287,303,299,304,1
287,301,297,295,1
289,300,296,291,1
293,300,296,291,1
298,299,296,293,1
303,299,297,297,1
310,299,297,302,1
316,300,299,307,1
320,302,301,311,1
323,304,302,314,1
324,306,304,318,1
324,309,305,321,1
323,313,305,322,1
321,315,305,320,1
319,317,304,317,1
318,317,303,313,1
316,317,304,310,1
315,316,303,309,1
313,315,304,308,1
312,314,305,308,1
311,313,306,309,1
311,312,307,311,1
312,311,309,313,1
310,310,310,316,1
308,307,309,319,1
305,305,309,321,1
304,304,309,325,1
304,303,310,330,1
306,304,310,334,1
309,305,310,338,1
312,306,310,339,1
314,308,311,338,1
315,310,310,336,1
316,311,308,332,1
316,310,306,326,1
316,309,304,318,1
315,308,302,309,1
312,307,300,301,1
306,306,299,295,1
299,305,297,294,1
293,304,297,299,1
289,304,297,306,1
290,304,298,314,1
294,304,299,317,1
299,304,301,319,1
303,303,304,318,1
307,303,308,315,1
309,302,312,311,1
310,301,315,305,1
311,301,316,301,1
310,301,315,299,1
309,302,313,296,1
306,303,309,293,1
304,304,304,288,1
300,305,300,283,1
298,306,296,280,1
297,306,294,279,1
296,307,294,281,1
298,307,295,284,1
299,308,297,288,1
301,309,299,292,1
303,309,300,296,1
304,308,301,298,1
306,307,303,301,1
308,305,304,305,1
309,302,305,310,1
311,301,306,314,1
312,299,308,318,1
313,298,309,319,1
312,298,309,319,1
312,300,309,319,1
310,301,310,318,1
309,303,310,315,1
306,305,309,311,1
302,306,308,308,1
299,305,308,306,1
297,305,307,304,1
297,304,306,302,1
298,302,304,300,1
301,302,303,299,1
306,303,304,298,1
311,305,304,298,1
316,306,305,296,1
319,307,304,296,1
322,306,303,297,1
323,305,301,300,1
322,304,300,305,1
321,303,300,308,1
319,303,302,311,1
318,304,305,312,1
318,305,308,310,1
316,307,311,307,1
314,308,313,303,1
312,310,313,301,1
310,311,313,301,1
310,312,313,302,1
309,312,312,304,1
309,312,310,307,1
310,312,308,310,1
309,312,305,312,1
308,312,304,313,1
309,312,304,313,1
309,311,304,313,1
310,309,304,313,1
311,307,306,315,1
314,306,309,317,1
317,304,313,318,1
320,303,317,318,1
322,303,319,318,1
322,304,320,318,1
322,305,320,318,1
320,307,318,319,1
317,309,314,320,1
313,311,311,321,1
307,312,307,322,1
303,312,305,322,1
299,311,302,322,1
