302,299,316,309,1
309,298,317,305,1
316,298,317,302,1
318,298,317,299,1
317,299,316,297,1
316,301,315,298,1
314,304,314,298,1
311,307,314,298,1
306,311,314,296,1
302,313,314,295,1
300,313,313,294,1
298,312,310,292,1
297,311,307,289,1
296,308,304,286,1
295,306,303,281,1
296,304,303,278,1
299,303,305,277,1
303,302,308,278,1
307,301,310,281,1
309,300,313,286,1
311,300,316,291,1
312,301,319,297,1
314,303,320,302,1
314,306,322,308,1
314,309,322,314,1
315,312,323,319,1
316,313,321,323,1
316,314,321,327,1
316,314,320,329,1
314,313,318,327,1
312,312,316,321,1
310,310,312,312,1
310,308,309,302,1
311,307,306,292,1
311,306,304,286,1
308,305,304,283,1
306,303,304,285,1
305,302,306,289,1
305,301,308,294,1
305,300,310,299,1
306,300,313,303,1
306,302,314,306,1
306,303,315,309,1
306,306,315,311,1
304,308,315,312,1
302,311,314,311,1
299,313,313,309,1
297,314,312,306,1
298,315,311,303,1
301,315,311,300,1
305,315,310,297,1
308,315,310,296,1
311,314,310,294,1
312,313,310,293,1
312,313,310,294,1
312,312,310,295,1
312,311,309,296,1
312,309,309,297,1
311,307,308,298,1
311,305,308,298,1
310,304,308,300,1
309,304,308,303,1
307,305,310,307,1
306,306,312,312,1
304,308,313,316,1
301,311,315,320,1
298,312,315,321,1
295,313,315,322,1
293,313,313,323,1
294,312,311,323,1
298,312,308,322,1
302,312,307,319,1
305,312,307,313,1
306,311,306,306,1
306,309,306,299,1
306,307,306,293,1
306,306,306,288,1
305,304,306,284,1
305,303,306,282,1
305,301,306,282,1
304,301,308,285,1
305,301,312,290,1
311,301,317,296,1
319,303,320,302,1
323,305,322,305,1
324,307,322,306,1
322,308,320,304,1
318,309,316,301,1
313,310,313,300,1
310,311,309,301,1
309,311,307,304,1
310,312,304,307,1
310,311,304,311,1
311,312,304,314,1
312,312,305,317,1
313,311,307,317,1
314,309,308,313,1
314,306,310,306,1
312,303,310,302,1
309,299,309,299,1
307,297,307,297,1
305,296,305,292,1
305,296,304,287,1
308,297,306,284,1
312,299,310,285,1
316,301,314,289,1
319,304,317,294,1
320,305,319,299,1
319,306,321,305,1
318,307,322,309,1
314,308,323,311,1
308,310,323,310,1
301,310,322,307,1
294,311,320,304,1
291,311,317,303,1
291,311,312,303,1
295,310,309,305,1
301,309,308,306,1
308,309,310,308,1
315,308,312,311,1
320,308,314,315,1
321,308,315,322,1
321,309,315,333,1
320,312,317,346,1
319,314,318,358,1
318,317,318,365,1
318,318,319,365,1
318,318,320,359,1
318,317,321,347,1
316,316,320,332,1
312,313,320,316,1
308,310,318,300,1
303,307,316,286,1
300,305,314,273,1
299,303,313,266,1
301,302,312,261,1
304,301,312,258,1
306,301,311,257,1
306,299,311,259,1
304,298,310,263,1
304,298,311,269,1
304,298,313,276,1
304,300,315,285,1
304,302,318,294,1
303,305,321,302,1
306,308,323,308,1
313,312,323,313,1
320,314,322,316,1
324,316,319,317,1
324,317,317,318,1
321,318,314,319,1
319,319,312,322,1
314,319,311,323,1
309,316,310,321,1
305,314,310,314,1
304,310,310,306,1
306,306,311,298,1
307,302,312,291,1
308,298,312,287,1
309,295,313,286,1
309,292,313,285,1
309,291,313,285,1
310,290,313,285,1
311,291,311,286,1
312,293,309,286,1
313,295,309,286,1
314,298,310,286,1
316,300,312,286,1
318,302,313,286,1
320,302,313,285,1
322,303,314,288,1
322,305,313,291,1
322,306,313,296,1
323,308,314,300,1
322,309,315,305,1
319,309,317,310,1
315,309,319,315,1
311,308,320,320,1
307,307,321,326,1
304,307,323,332,1
302,306,323,339,1
302,305,322,346,1
305,305,322,348,1
310,304,322,347,1
314,305,321,342,1
316,308,320,334,1
314,310,318,324,1
311,311,317,313,1
306,311,316,304,1
302,310,314,296,1
300,309,313,291,1
301,308,311,288,1
304,306,311,287,1
306,305,310,286,1
307,304,309,285,1
307,303,311,284,1
307,302,313,285,1
306,303,316,288,1
305,303,317,291,1
303,304,318,295,1
301,304,319,298,1
300,305,320,302,1
298,306,321,308,1
296,307,321,313,1
292,308,321,314,1
291,308,320,312,1
295,308,319,308,1
299,309,318,304,1
302,310,318,301,1
303,310,317,299,1
302,309,316,296,1
301,309,315,292,1
300,309,313,290,1
301,308,311,288,1
303,307,309,288,1
305,305,308,287,1
305,303,310,287,1
304,301,312,288,1
302,299,314,291,1
298,298,315,293,1
295,297,315,297,1
293,298,314,301,1
292,300,313,307,1
293,303,315,311,1
296,305,317,314,1
298,306,319,314,1
300,308,320,312,1
301,310,321,308,1
302,310,320,304,1
301,310,320,303,1
301,310,320,304,1
301,309,319,306,1
300,308,318,308,1
299,307,318,310,1
298,305,318,312,1
296,303,318,311,1
293,302,318,309,1
291,300,317,307,1
290,298,316,303,1
288,297,316,299,1
289,296,316,295,1
293,296,317,293,1
299,296,318,293,1
304,297,320,294,1
307,298,321,296,1
308,301,320,296,1
307,303,320,295,1
306,304,320,293,1
303,304,321,291,1
301,305,321,292,1
298,305,321,294,1
294,306,321,298,1
286,306,321,304,1
282,306,321,312,1
283,306,320,319,1
289,307,318,326,1
294,306,316,331,1
299,306,315,335,1
303,307,315,338,1
308,306,317,340,1
310,306,318,341,1
312,306,320,341,1
312,308,320,340,1
311,310,321,336,1
309,311,320,330,1
306,313,319,320,1
302,313,318,310,1
299,313,315,299,1
297,311,312,289,1
295,309,310,282,1
295,307,309,281,1
295,307,308,284,1
295,306,309,291,1
297,306,311,298,1
300,306,313,304,1
302,304,314,306,1
304,302,314,306,1
309,299,314,304,1
315,297,312,301,1
317,293,311,296,1
315,290,309,290,1
309,287,308,285,1
301,286,307,283,1
297,287,307,282,1
295,290,308,285,1
296,294,309,289,1
298,299,311,294,1
300,305,314,298,1
301,310,315,301,1
301,314,316,305,1
301,317,315,310,1
299,318,314,315,1
300,319,312,321,1
301,319,311,325,1
303,318,311,324,1
305,314,310,319,1
306,310,309,310,1
307,306,308,301,1
307,302,308,295,1
307,300,308,292,1
306,298,308,290,1
305,298,309,291,1
303,299,311,294,1
301,301,312,297,1
299,304,314,301,1
301,307,314,302,1
304,309,314,304,1
307,310,314,304,1
307,311,314,303,1
306,312,313,302,1
304,311,312,300,1
302,311,312,300,1
301,310,312,302,1
304,309,313,308,1
307,309,313,317,1
310,309,312,324,1
312,308,311,330,1
314,306,310,333,1
314,305,310,334,1
316,304,310,331,1
317,303,310,325,1
318,302,309,316,1
318,302,307,306,1
316,302,307,296,1
312,302,307,286,1
305,302,308,279,1
298,302,307,276,1
292,302,306,274,1
287,303,305,276,1
286,305,307,280,1
290,306,308,285,1
299,307,310,292,1
308,308,311,300,1
315,308,311,308,1
319,309,313,316,1
318,308,313,321,1
313,307,313,321,1
306,304,312,318,1
300,301,312,310,1
299,298,311,302,1
301,296,311,295,1
305,296,312,290,1
307,296,313,289,1
308,298,315,291,1
307,300,315,295,1
304,302,315,299,1
301,304,314,303,1
299,306,313,306,1
298,307,312,306,1
296,308,310,304,1
294,308,308,302,1
292,308,306,301,1
293,308,305,304,1
298,308,306,308,1
304,307,308,312,1
307,306,309,313,1
309,305,309,311,1
309,303,308,310,1
309,301,308,309,1
307,301,308,308,1
306,301,308,306,1
305,302,308,306,1
304,303,309,305,1
302,304,310,305,1
301,306,310,304,1
300,306,310,304,1
299,306,310,304,1
298,304,309,302,1
297,304,309,300,1
298,304,309,298,1
299,304,310,296,1
302,304,311,295,1
303,304,312,295,1
303,304,312,296,1
303,303,312,298,1
302,302,311,300,1
303,302,311,304,1
303,301,310,311,1
304,300,311,317,1
307,299,312,325,1
310,300,314,333,1
311,301,316,341,1
311,301,318,347,1
310,302,318,349,1
310,303,318,347,1
311,304,316,340,1
311,305,314,332,1
310,305,311,320,1
306,306,307,309,1
300,305,305,299,1
295,305,305,292,1
293,305,306,289,1
295,305,306,288,1
298,305,306,287,1
300,304,305,287,1
300,303,305,288,1
299,302,306,289,1
298,302,308,292,1
298,303,310,297,1
298,303,311,302,1
299,303,312,304,1
303,303,312,307,1
309,303,313,310,1
314,304,314,316,1
317,305,315,321,1
318,307,316,324,1
319,308,315,321,1
319,309,315,315,1
318,309,313,306,1
317,309,312,297,1
315,310,311,290,1
312,309,310,286,1
308,309,308,284,1
306,309,306,284,1
305,310,304,287,1
304,309,304,290,1
304,308,304,294,1
307,307,304,297,1
310,304,306,300,1
311,302,308,302,1
308,301,309,303,1
303,300,310,303,1
302,300,311,304,1
302,301,312,305,1
303,303,312,307,1
303,305,313,309,1
304,307,314,311,1
304,309,314,313,1
303,311,315,315,1
303,312,315,315,1
302,313,314,314,1
302,313,313,311,1
302,312,312,310,1
303,311,311,310,1
305,310,309,313,1
310,307,309,316,1
315,305,308,321,1
318,302,307,325,1
319,300,306,329,1
319,298,306,332,1
319,297,307,330,1
318,296,308,322,1
319,296,308,310,1
320,296,309,299,1
322,296,311,290,1
324,298,311,284,1
325,299,311,282,1
325,300,311,282,1
322,300,311,283,1
317,301,311,283,1
312,301,309,284,1
307,302,308,284,1
304,303,307,286,1
303,304,308,288,1
302,305,308,288,1
302,306,307,287,1
303,305,306,287,1
304,303,306,287,1
304,301,307,289,1
303,300,308,292,1
300,299,310,296,1
296,299,312,300,1
292,299,312,303,1
292,300,313,306,1
299,302,313,306,1
306,304,313,306,1
311,306,313,306,1
313,307,313,307,1
315,309,312,309,1
315,311,311,309,1
316,312,310,308,1
316,313,310,306,1
316,313,310,304,1
315,312,309,302,1
313,310,308,300,1
312,308,307,300,1
311,306,306,301,1
311,304,306,301,1
310,303,306,303,1
310,302,307,307,1
311,302,309,314,1
310,302,311,320,1
309,301,313,324,1
309,302,314,326,1
307,304,316,326,1
306,307,318,326,1
306,310,320,325,1
306,313,320,323,1
304,315,320,322,1
299,316,318,321,1
293,317,316,321,1
292,317,315,322,1
300,317,314,324,1
312,317,314,325,1
320,316,313,326,1
324,315,312,325,1
324,312,311,323,1
323,309,310,323,1
322,306,311,325,1
323,304,313,326,1
323,303,314,327,1
323,302,315,326,1
321,301,316,327,1
320,302,315,328,1
319,303,315,330,1
317,306,315,333,1
316,309,315,335,1
315,312,315,336,1
313,314,315,334,1
312,316,314,328,1
312,317,312,318,1
313,316,311,305,1
315,315,308,295,1
317,313,306,288,1
317,311,305,284,1
316,308,305,282,1
314,305,305,282,1
311,302,304,284,1
308,300,304,287,1
307,299,305,290,1
308,298,305,294,1
310,299,307,299,1
310,301,308,303,1
309,302,308,308,1
309,304,309,312,1
309,306,309,316,1
309,309,309,318,1
310,311,308,318,1
309,313,307,314,1
308,314,307,309,1
306,314,307,305,1
303,314,307,302,1
300,313,307,300,1
298,312,306,298,1
298,311,305,298,1
301,310,304,298,1
304,308,304,298,1
307,306,304,297,1
311,303,304,300,1
314,301,304,306,1
317,301,305,315,1
318,302,306,325,1
319,303,307,333,1
318,304,309,338,1
316,306,309,340,1
313,309,308,339,1
310,311,308,335,1
308,314,308,326,1
308,314,308,315,1
308,313,306,305,1
307,311,305,296,1
306,310,304,290,1
307,309,303,289,1
308,308,302,293,1
310,308,300,298,1
311,308,299,301,1
312,307,299,304,1
313,307,300,306,1
314,307,302,307,1
315,307,304,307,1
315,307,306,307,1
315,307,307,308,1
314,307,308,310,1
313,307,308,312,1
311,308,308,314,1
310,310,307,315,1
309,312,307,316,1
308,314,308,319,1
307,315,309,324,1
305,316,311,331,1
303,317,313,337,1
301,317,315,344,1
298,316,317,348,1
294,316,318,347,1
290,315,317,342,1
288,312,313,332,1
289,310,309,321,1
296,307,304,310,1
304,305,301,301,1
311,302,299,292,1
316,300,299,285,1
319,298,301,280,1
320,298,303,277,1
321,299,305,276,1
321,301,307,276,1
317,304,308,277,1
312,307,309,279,1
307,308,310,280,1
305,309,310,280,1
304,308,309,281,1
305,308,308,282,1
305,308,308,285,1
305,308,308,289,1
304,309,307,292,1
304,309,307,294,1
302,309,307,296,1
300,308,306,299,1
299,307,306,303,1
298,306,306,309,1
297,305,305,315,1
296,304,304,320,1
293,304,303,324,1
292,305,305,329,1
294,307,309,333,1
297,310,313,336,1
299,312,315,338,1
301,313,317,338,1
303,314,317,337,1
308,314,316,333,1
313,313,315,326,1
315,313,312,319,1
316,311,309,312,1
314,310,308,304,1
310,308,306,296,1
304,307,305,290,1
298,306,305,287,1
291,305,304,284,1
286,303,304,285,1
284,302,304,288,1
284,301,306,294,1
286,301,308,301,1
291,303,310,308,1
301,304,312,314,1
314,306,314,319,1
323,308,315,324,1
325,310,315,331,1
321,312,313,337,1
316,313,312,339,1
311,313,312,339,1
308,313,312,336,1
309,314,314,331,1
313,314,316,326,1
315,315,317,322,1
313,316,316,320,1
311,316,315,318,1
309,315,314,316,1
310,314,314,316,1
312,312,315,318,1
313,310,315,320,1
315,308,315,321,1
316,306,316,320,1
315,304,316,318,1
313,303,315,313,1
310,302,315,307,1
308,303,314,301,1
305,304,312,295,1
302,305,310,289,1
300,305,309,285,1
299,306,309,283,1
298,307,309,283,1
296,307,308,284,1
294,307,307,285,1
295,306,307,287,1
296,306,308,291,1
300,306,309,296,1
304,306,312,304,1
308,306,314,313,1
311,305,315,324,1
313,305,316,334,1
315,305,317,344,1
316,305,317,350,1
317,305,317,351,1
318,306,315,345,1
319,307,312,333,1
319,307,310,319,1
317,307,308,305,1
313,306,306,294,1
307,306,304,288,1
302,306,302,284,1
296,306,302,281,1
290,306,303,280,1
283,306,304,279,1
276,305,304,280,1
270,304,303,283,1
269,303,302,288,1
272,302,301,293,1
276,301,303,301,1
278,300,306,308,1
282,299,309,316,1
292,299,311,323,1
303,300,313,329,1
313,301,315,337,1
322,303,317,344,1
329,305,319,349,1
334,306,320,350,1
336,308,320,349,1
335,309,318,345,1
333,311,315,339,1
330,312,310,332,1
326,312,305,324,1
322,311,301,319,1
318,311,300,314,1
315,310,301,310,1
312,310,304,307,1
309,310,306,305,1
305,309,307,305,1
303,308,307,304,1
302,307,307,306,1
303,306,307,309,1
305,305,307,315,1
307,304,307,322,1
310,304,307,327,1
311,303,307,329,1
312,302,308,328,1
312,303,308,323,1
312,305,309,317,1
312,307,309,311,1
311,308,309,304,1
310,308,309,300,1
308,309,309,297,1
306,308,309,296,1
306,308,309,295,1
306,306,309,297,1
307,305,311,301,1
308,304,311,306,1
309,303,312,311,1
308,303,313,315,1
306,302,313,316,1
302,302,312,317,1
299,302,310,317,1
295,302,309,317,1
291,303,306,316,1
289,304,303,314,1
290,305,302,311,1
293,306,302,308,1
298,308,303,304,1
304,309,305,302,1
311,310,307,301,1
317,310,309,300,1
319,310,311,299,1
318,310,312,298,1
313,309,313,298,1
304,308,312,298,1
294,307,312,297,1
288,307,311,297,1
283,306,312,297,1
280,305,311,297,1
283,303,309,297,1
293,301,307,298,1
303,300,306,299,1
311,301,306,302,1
317,302,308,308,1
323,304,311,315,1
328,307,314,323,1
331,311,316,332,1
331,314,316,340,1
330,318,316,347,1
327,320,315,353,1
323,322,315,356,1
319,322,314,356,1
315,320,313,353,1
311,319,312,347,1
307,316,311,341,1
305,314,311,332,1
304,312,311,321,1
304,310,311,310,1
305,307,311,304,1
304,304,310,303,1
303,302,309,306,1
302,300,308,311,1
303,299,307,316,1
304,299,307,320,1
304,301,307,322,1
305,301,309,321,1
306,302,310,318,1
306,303,310,312,1
304,304,310,305,1
301,304,309,300,1
300,306,308,296,1
303,308,308,294,1
306,309,308,293,1
310,309,308,294,1
314,308,310,294,1
317,308,310,293,1
319,307,310,292,1
320,306,309,289,1
319,304,308,288,1
316,302,308,286,1
311,300,308,286,1
304,299,308,286,1
295,298,309,287,1
287,298,310,287,1
283,299,310,289,1
284,301,311,290,1
289,302,310,292,1
295,305,308,295,1
299,307,305,299,1
300,309,304,304,1
301,311,306,309,1
303,313,309,315,1
304,314,311,319,1
305,314,312,320,1
306,313,312,318,1
308,312,312,314,1
310,310,311,309,1
311,308,311,304,1
310,305,310,300,1
307,302,309,297,1
306,299,307,297,1
307,298,305,298,1
306,297,305,299,1
303,298,305,300,1
299,298,305,301,1
299,300,305,301,1
303,302,305,302,1
308,304,305,304,1
312,306,305,306,1
313,308,305,308,1
313,310,305,310,1
311,311,306,314,1
309,312,307,319,1
309,313,308,327,1
312,313,309,334,1
314,313,310,337,1
316,312,309,338,1
317,309,309,336,1
317,306,307,329,1
316,303,304,319,1
313,300,302,307,1
307,297,300,297,1
303,295,301,292,1
301,295,303,291,1
302,296,306,294,1
302,298,309,300,1
304,301,311,308,1
304,305,312,318,1
304,309,313,324,1
304,312,314,327,1
303,314,314,330,1
302,315,314,333,1
303,317,314,335,1
305,318,314,337,1
309,318,313,338,1
311,318,311,336,1
311,315,309,328,1
307,311,306,318,1
299,307,303,308,1
290,303,302,299,1
285,301,301,291,1
287,299,300,286,1
295,299,301,283,1
304,299,303,283,1
312,300,305,282,1
318,302,307,281,1
320,303,309,280,1
319,304,310,279,1
314,304,309,279,1
309,305,309,281,1
304,306,309,282,1
301,306,310,283,1
298,306,311,285,1
297,306,311,288,1
297,306,311,291,1
299,307,311,294,1
300,307,310,297,1
301,306,308,300,1
301,305,306,303,1
303,303,305,306,1
305,301,306,309,1
308,299,307,312,1
310,299,308,315,1
311,299,309,317,1
311,301,309,317,1
310,303,310,313,1
307,305,310,310,1
302,307,310,308,1
293,308,309,309,1
286,310,308,311,1
287,311,307,315,1
297,312,308,319,1
310,313,308,321,1
318,313,308,320,1
322,312,307,314,1
322,310,305,304,1
320,306,304,296,1
315,303,305,293,1
312,301,306,296,1
309,300,307,301,1
308,299,308,306,1
309,299,309,309,1
310,299,309,310,1
310,299,308,312,1
312,299,308,313,1
313,301,308,314,1
313,303,308,312,1
313,304,308,307,1
313,305,307,301,1
312,306,307,296,1
311,306,307,293,1
308,306,307,292,1
304,306,307,292,1
300,305,307,291,1
296,305,308,290,1
295,304,308,289,1
295,303,308,286,1
296,302,307,285,1
298,300,306,284,1
300,299,306,286,1
302,298,306,289,1
304,298,307,294,1
304,297,307,302,1
304,298,309,313,1
305,300,311,324,1
305,304,314,332,1
305,309,316,339,1
304,313,317,342,1
303,316,317,342,1
303,317,316,339,1
303,317,315,334,1
302,316,314,327,1
303,315,312,317,1
306,312,311,306,1
309,309,308,296,1
310,306,305,287,1
309,303,303,281,1
308,301,302,280,1
307,300,301,281,1
307,298,302,286,1
307,296,303,290,1
305,295,304,293,1
302,294,304,294,1
301,294,304,296,1
302,295,305,298,1
304,297,306,302,1
305,299,307,306,1
305,301,308,309,1
305,304,309,312,1
303,305,309,314,1
299,305,309,314,1
293,306,309,312,1
288,305,310,310,1
285,305,310,307,1
283,304,308,305,1
283,304,307,303,1
287,304,305,302,1
292,303,304,301,1
300,303,304,300,1
305,303,304,301,1
309,302,305,303,1
311,301,306,307,1
312,300,307,314,1
314,301,310,321,1
313,302,313,329,1
312,304,316,336,1
313,306,319,341,1
314,308,320,345,1
314,310,320,346,1
312,312,318,342,1
309,313,315,335,1
308,313,312,328,1
309,312,310,321,1
310,310,307,315,1
310,309,305,310,1
310,308,303,306,1
310,306,301,304,1
310,304,300,302,1
310,302,299,301,1
311,301,298,299,1
312,300,298,299,1
312,299,299,298,1
312,298,302,297,1
313,299,304,298,1
313,300,306,298,1
314,302,307,298,1
314,303,308,299,1
314,305,308,299,1
312,306,307,300,1
311,307,307,302,1
309,308,307,306,1
308,308,307,311,1
306,309,306,317,1
303,309,306,321,1
301,309,306,324,1
299,310,306,325,1
298,310,306,324,1
300,310,305,320,1
304,309,304,316,1
310,307,304,311,1
314,307,303,309,1
315,306,303,309,1
313,306,304,310,1
309,307,304,314,1
305,309,305,317,1
301,311,306,318,1
298,313,307,316,1
297,314,308,313,1
299,315,309,309,1
302,315,309,306,1
303,315,308,305,1
305,314,308,306,1
306,314,307,308,1
306,313,307,310,1
307,312,306,314,1
309,311,307,317,1
311,311,308,320,1
313,310,309,319,1
315,309,308,314,1
315,307,306,307,1
316,305,305,300,1
314,303,304,295,1
310,302,303,291,1
304,301,304,289,1
298,302,305,287,1
292,303,305,287,1
289,305,305,287,1
289,308,303,287,1
292,310,300,287,1
295,311,299,288,1
298,311,299,289,1
301,311,300,291,1
303,311,302,296,1
307,311,304,304,1
313,311,306,313,1
317,312,309,322,1
321,312,310,331,1
321,312,311,337,1
320,310,310,337,1
317,309,309,333,1
314,307,307,328,1
312,305,306,323,1
313,304,306,320,1
315,304,306,317,1
318,304,306,314,1
321,304,307,310,1
322,305,308,307,1
320,306,309,304,1
317,307,309,302,1
313,307,309,302,1
309,308,309,303,1
306,308,309,305,1
305,308,309,307,1
305,309,310,308,1
305,308,310,309,1
306,308,310,309,1
306,307,308,308,1
304,305,306,306,1
303,303,304,302,1
302,301,301,298,1
301,299,301,298,1
300,298,301,301,1
299,298,303,306,1
300,300,306,312,1
301,303,309,317,1
302,307,313,323,1
303,311,316,328,1
303,315,318,331,1
306,317,318,332,1
311,318,318,332,1
315,318,317,333,1
317,317,317,335,1
318,317,316,338,1
317,317,315,341,1
315,318,315,342,1
311,319,314,340,1
306,319,313,333,1
304,318,312,319,1
305,313,309,299,1
311,308,307,281,1
316,303,306,268,1
319,299,305,262,1
318,296,304,260,1
313,295,305,262,1
306,296,305,266,1
296,298,306,271,1
282,300,305,275,1
268,303,304,278,1
262,305,303,280,1
265,307,302,281,1
274,308,302,283,1
285,308,301,285,1
297,309,301,288,1
311,310,303,289,1
321,311,306,290,1
326,310,310,293,1
327,310,312,297,1
324,309,314,301,1
319,307,314,304,1
314,306,315,308,1
311,304,315,312,1
309,303,316,316,1
308,303,317,319,1
309,303,317,320,1
310,303,316,317,1
309,303,315,314,1
307,304,313,311,1
304,306,313,310,1
301,307,314,311,1
295,309,316,314,1
289,310,316,317,1
284,312,316,318,1
285,313,315,319,1
293,313,314,318,1
302,313,312,317,1
309,312,310,314,1
313,311,309,310,1
315,310,308,306,1
317,309,307,303,1
320,307,307,302,1
322,306,307,301,1
324,305,306,301,1
326,303,306,299,1
327,302,306,299,1
326,301,308,301,1
322,302,310,304,1
317,304,311,308,1
312,307,311,311,1
308,310,311,317,1
306,311,311,323,1
305,312,311,331,1
306,312,313,336,1
308,313,313,339,1
310,313,313,339,1
313,313,312,336,1
315,312,310,333,1
315,310,309,327,1
312,308,307,320,1
307,305,304,314,1
302,302,303,308,1
294,300,302,304,1
286,298,303,305,1
280,297,303,307,1
277,298,303,309,1
278,300,303,308,1
281,302,303,304,1
286,304,303,298,1
291,307,302,293,1
296,310,301,292,1
298,312,301,293,1
299,314,302,295,1
301,315,303,296,1
305,316,302,296,1
312,315,302,296,1
321,314,301,295,1
328,313,300,293,1
331,312,300,291,1
331,311,300,289,1
327,310,300,288,1
322,308,301,288,1
316,307,301,290,1
311,306,301,293,1
308,305,302,297,1
307,305,303,302,1
307,306,305,307,1
308,306,307,312,1
309,307,309,317,1
309,308,311,320,1
306,308,311,321,1
302,308,310,319,1
298,308,307,315,1
295,307,305,312,1
294,307,304,310,1
294,307,303,308,1
298,308,303,307,1
302,308,303,306,1
306,308,303,305,1
309,308,303,304,1
310,307,303,302,1
311,306,303,301,1
311,304,303,300,1
311,302,303,300,1
312,300,304,301,1
314,299,305,304,1
317,300,305,307,1
320,300,306,309,1
322,302,306,308,1
322,302,307,306,1
319,304,308,303,1
315,304,308,299,1
310,305,308,295,1
305,304,307,292,1
300,304,306,291,1
297,305,306,292,1
295,306,307,296,1
296,307,307,301,1
298,309,307,305,1
302,309,305,310,1
307,309,303,315,1
310,307,302,322,1
313,306,302,332,1
314,305,304,342,1
313,304,306,348,1
310,305,308,351,1
306,306,310,350,1
304,308,312,345,1
303,309,312,336,1
302,310,312,324,1
305,311,311,311,1
307,310,311,298,1
308,309,310,290,1
306,308,310,285,1
304,308,309,282,1
303,308,308,280,1
304,308,307,279,1
305,308,307,281,1
307,308,306,283,1
308,307,305,286,1
306,304,305,289,1
300,302,306,293,1
293,301,307,298,1
290,299,307,302,1
293,300,307,304,1
298,301,308,304,1
303,302,310,301,1
307,304,311,298,1
310,306,313,297,1
311,309,314,299,1
311,311,314,302,1
309,312,313,306,1
309,313,312,310,1
309,314,311,313,1
310,314,310,313,1
309,314,310,311,1
307,313,310,307,1
305,312,309,303,1
302,311,308,300,1
302,309,307,297,1
304,307,307,295,1
308,304,307,294,1
312,301,306,293,1
314,299,306,294,1
314,297,305,296,1
311,297,304,299,1
308,297,305,302,1
307,299,306,303,1
307,301,308,302,1
306,304,310,300,1
307,307,312,300,1
308,310,314,301,1
309,312,315,303,1
309,314,317,307,1
309,315,318,313,1
306,315,318,319,1
303,316,318,327,1
301,316,318,335,1
301,317,320,341,1
300,316,321,344,1
300,315,321,346,1
302,312,320,345,1
305,309,318,340,1
308,305,315,332,1
309,302,312,321,1
310,300,310,309,1
310,299,309,297,1
310,299,309,286,1
309,300,311,279,1
307,302,312,274,1
306,303,313,274,1
304,303,315,277,1
304,304,315,282,1
305,305,316,287,1
306,304,316,292,1
307,305,316,299,1
307,305,316,306,1
305,304,315,309,1
304,303,314,309,1
302,302,313,307,1
300,300,313,304,1
297,299,312,301,1
296,298,312,298,1
298,297,313,297,1
300,298,313,297,1
300,299,314,299,1
299,300,314,302,1
302,301,315,306,1
306,304,316,310,1
311,307,318,314,1
314,310,320,318,1
316,313,319,322,1
316,314,318,327,1
315,316,316,331,1
314,316,314,333,1
313,315,313,331,1
313,313,311,328,1
311,310,311,323,1
306,308,311,320,1
301,307,311,316,1
298,306,311,313,1
300,305,311,310,1
305,304,312,308,1
311,303,313,306,1
315,302,313,305,1
317,301,313,305,1
316,301,313,305,1
314,300,313,304,1
310,301,312,301,1
307,301,311,298,1
305,302,309,295,1
307,302,307,296,1
309,302,307,298,1
308,301,306,301,1
305,301,306,304,1
304,301,305,306,1
305,301,304,308,1
307,301,303,308,1
309,301,304,308,1
311,301,305,306,1
313,300,307,306,1
315,300,308,306,1
316,299,309,309,1
317,299,310,313,1
317,300,311,319,1
315,301,313,325,1
313,303,314,329,1
308,305,314,330,1
306,307,314,329,1
308,309,314,326,1
312,312,313,322,1
316,312,312,318,1
318,313,310,314,1
318,313,308,310,1
316,312,306,306,1
312,311,306,303,1
307,310,306,300,1
303,309,306,298,1
302,307,307,296,1
302,304,307,295,1
301,301,307,294,1
299,298,308,294,1
302,296,308,295,1
309,295,308,296,1
315,294,309,298,1
318,295,308,299,1
319,295,307,302,1
317,297,307,308,1
315,299,307,316,1
314,302,309,324,1
313,305,310,328,1
311,308,310,328,1
308,309,309,324,1
305,311,308,317,1
303,311,307,310,1
301,312,305,304,1
300,312,304,302,1
298,310,303,302,1
296,308,303,304,1
294,306,304,305,1
295,305,305,306,1
297,304,305,308,1
300,302,303,309,1
302,302,301,310,1
305,302,303,310,1
309,303,306,311,1
316,304,310,312,1
324,306,312,312,1
329,308,313,313,1
328,309,311,312,1
320,309,308,311,1
309,308,304,311,1
299,308,302,308,1
294,307,301,303,1
293,306,300,295,1
295,305,300,288,1
300,303,300,283,1
305,302,300,282,1
309,301,299,284,1
312,300,299,287,1
314,298,298,291,1
317,297,298,296,1
321,296,298,303,1
326,296,300,311,1
330,297,303,321,1
332,298,305,331,1
330,301,307,341,1
326,304,309,348,1
320,307,310,353,1
311,309,308,354,1
303,309,306,351,1
295,309,304,346,1
290,309,303,338,1
289,308,304,328,1
290,308,305,315,1
295,307,305,301,1
301,306,304,289,1
305,305,302,281,1
306,304,299,276,1
305,303,296,273,1
303,302,294,272,1
303,300,292,274,1
303,298,291,276,1
304,297,290,281,1
304,296,289,285,1
303,297,289,290,1
304,298,293,295,1
305,301,298,300,1
308,303,303,304,1
309,305,306,308,1
310,307,309,312,1
310,308,309,314,1
309,308,310,314,1
309,308,309,312,1
310,308,308,309,1
309,308,308,305,1
308,307,307,302,1
306,307,304,301,1
303,306,302,305,1
299,304,300,312,1
294,303,299,318,1
294,302,299,322,1
299,300,299,323,1
304,298,299,321,1
308,296,300,318,1
311,295,301,314,1
312,295,303,310,1
309,296,304,306,1
305,298,303,303,1
300,300,303,300,1
299,302,302,298,1
302,303,302,297,1
307,304,302,297,1
311,305,302,299,1
313,306,302,302,1
313,307,302,306,1
311,308,302,310,1
309,309,301,315,1
307,309,301,321,1
308,309,303,325,1
308,308,304,326,1
305,306,304,325,1
300,302,304,323,1
294,299,304,319,1
289,295,304,315,1
287,292,303,311,1
290,291,303,308,1
297,292,303,307,1
304,295,303,303,1
308,298,303,297,1
311,300,302,290,1
312,302,301,285,1
311,303,299,282,1
310,303,298,281,1
309,305,297,282,1
307,305,298,285,1
305,306,299,288,1
302,307,301,291,1
299,308,301,293,1
297,308,301,297,1
298,308,301,301,1
301,307,300,307,1
304,305,302,313,1
308,304,304,317,1
310,304,306,322,1
312,304,307,327,1
313,304,308,333,1
313,306,309,340,1
314,308,311,345,1
314,311,312,348,1
313,313,311,345,1
311,314,309,339,1
307,315,306,329,1
302,315,302,318,1
296,314,297,307,1
291,314,293,300,1
287,313,291,294,1
284,312,293,290,1
284,311,296,286,1
287,307,299,284,1
292,305,300,282,1
297,302,301,280,1
303,301,303,280,1
308,299,304,282,1
311,299,305,284,1
314,300,306,287,1
315,302,306,290,1
315,303,306,292,1
311,305,307,293,1
307,307,308,293,1
302,308,309,293,1
298,310,311,294,1
296,310,312,297,1
295,311,313,304,1
295,312,313,313,1
295,312,313,321,1
295,312,311,327,1
296,312,311,332,1
298,311,311,335,1
301,311,311,336,1
302,310,311,334,1
302,309,310,329,1
299,306,309,323,1
294,304,308,317,1
289,302,308,313,1
284,299,308,310,1
282,297,309,306,1
286,296,310,304,1
291,296,310,303,1
294,297,309,305,1
296,300,308,308,1
302,303,310,313,1
309,307,312,315,1
315,309,313,314,1
319,312,314,311,1
320,313,312,306,1
318,314,310,301,1
314,314,307,298,1
307,313,306,298,1
301,311,304,299,1
297,308,301,299,1
296,305,298,298,1
299,301,296,297,1
303,299,298,298,1
307,297,302,301,1
310,296,307,303,1
311,297,310,303,1
310,297,311,301,1
308,299,311,300,1
305,300,311,300,1
302,302,310,303,1
299,304,310,307,1
297,307,309,312,1
295,309,310,317,1
296,311,311,320,1
299,312,311,322,1
303,312,310,323,1
307,312,308,321,1
312,310,307,317,1
315,307,307,312,1
317,304,307,306,1
315,301,306,300,1
312,298,305,295,1
306,295,303,292,1
302,293,302,292,1
299,294,302,294,1
297,295,302,298,1
296,297,304,300,1
300,298,306,302,1
303,300,309,302,1
305,301,310,300,1
304,303,309,297,1
302,304,308,296,1
302,305,307,296,1
303,305,307,298,1
305,304,307,300,1
306,304,308,302,1
307,304,308,305,1
306,303,308,306,1
307,303,308,306,1
308,302,308,306,1
310,301,308,306,1
312,299,308,307,1
311,297,309,309,1
309,296,309,310,1
304,296,309,314,1
296,296,310,320,1
285,298,311,326,1
274,300,312,330,1
269,302,312,330,1
273,303,312,327,1
283,303,312,322,1
297,303,313,317,1
310,303,314,312,1
320,303,315,308,1
324,303,317,308,1
325,305,318,311,1
323,307,317,313,1
320,308,315,313,1
316,309,312,312,1
314,308,309,312,1
313,307,308,313,1
313,305,308,314,1
311,304,308,314,1
310,303,309,312,1
307,303,309,309,1
304,303,309,307,1
301,304,309,305,1
300,305,310,306,1
299,308,311,310,1
302,310,312,315,1
307,312,311,319,1
310,313,310,321,1
311,312,308,321,1
311,311,307,318,1
311,308,305,315,1
311,306,304,310,1
310,304,303,305,1
309,303,302,301,1
308,302,300,297,1
306,300,298,295,1
303,298,296,294,1
302,298,296,296,1
304,298,298,298,1
306,299,301,302,1
308,301,304,307,1
310,303,306,311,1
309,304,307,313,1
309,305,309,313,1
307,307,310,313,1
304,308,311,313,1
301,308,310,313,1
302,308,309,312,1
306,308,307,312,1
310,308,306,311,1
312,308,305,310,1
312,307,304,308,1
312,306,304,307,1
310,305,304,306,1
308,304,304,307,1
307,303,305,310,1
306,302,305,316,1
306,303,307,324,1
307,303,308,331,1
309,304,310,338,1
310,306,311,344,1
310,308,311,350,1
312,311,310,356,1
314,313,310,361,1
316,315,311,361,1
319,315,311,356,1
319,315,310,347,1
317,314,308,334,1
314,312,305,320,1
311,310,303,307,1
309,308,302,298,1
305,307,301,290,1
298,306,300,284,1
289,305,299,278,1
281,303,297,274,1
276,303,297,272,1
276,301,297,272,1
282,300,298,274,1
293,300,298,280,1
305,299,300,289,1
316,300,302,300,1
324,302,305,310,1
329,304,308,318,1
331,306,310,322,1
331,308,311,322,1
328,310,311,321,1
325,311,310,320,1
320,311,308,319,1
318,311,306,316,1
317,311,304,313,1
316,310,301,308,1
315,309,298,304,1
311,307,296,299,1
306,305,295,295,1
302,304,296,292,1
299,302,298,291,1
297,300,299,291,1
298,298,300,292,1
300,297,301,294,1
306,297,302,297,1
312,297,304,302,1
318,299,305,306,1
322,302,307,310,1
324,304,307,313,1
323,307,308,314,1
320,310,307,312,1
315,311,306,310,1
312,313,306,308,1
310,315,305,308,1
309,317,305,308,1
308,318,305,309,1
308,317,305,310,1
306,316,307,312,1
304,315,309,315,1
303,313,310,317,1
302,311,310,319,1
302,309,309,319,1
303,307,308,319,1
302,305,307,317,1
302,303,306,315,1
305,302,305,313,1
310,301,305,311,1
314,301,304,308,1
314,302,304,304,1
313,303,303,300,1
311,305,304,298,1
308,307,305,296,1
305,309,305,295,1
304,310,306,295,1
303,310,307,295,1
303,311,308,296,1
303,312,308,298,1
304,312,307,301,1
304,313,307,305,1
304,313,306,310,1
304,312,305,315,1
304,310,303,320,1
305,307,303,323,1
308,305,303,325,1
311,304,303,328,1
314,304,303,328,1
314,304,304,327,1
313,305,305,327,1
309,306,307,329,1
303,307,309,329,1
298,307,309,328,1
291,308,310,323,1
284,307,308,319,1
278,307,306,314,1
277,306,304,310,1
284,306,304,308,1
295,306,305,307,1
306,307,307,306,1
314,307,308,303,1
319,308,308,300,1
322,308,308,297,1
323,307,307,294,1
325,306,306,293,1
326,305,307,295,1
327,305,308,299,1
325,306,309,302,1
319,305,308,302,1
312,305,307,302,1
305,306,305,301,1
303,307,303,300,1
304,309,303,302,1
306,310,303,305,1
308,312,303,309,1
308,313,302,313,1
308,313,300,316,1
308,313,297,317,1
307,312,297,316,1
306,312,299,313,1
306,310,302,312,1
306,309,305,311,1
306,306,307,309,1
307,303,308,306,1
307,300,308,305,1
308,297,307,304,1
310,294,307,303,1
312,293,307,303,1
314,293,307,304,1
316,294,308,307,1
316,297,308,311,1
311,300,308,313,1
307,304,307,312,1
304,306,307,310,1
301,309,308,307,1
297,310,308,306,1
293,311,308,306,1
290,312,308,306,1
292,312,307,307,1
295,313,307,309,1
296,313,307,311,1
297,311,307,313,1
298,309,307,313,1
301,307,308,315,1
305,305,309,317,1
308,304,310,319,1
308,302,310,319,1
308,302,311,316,1
307,302,311,312,1
305,304,312,308,1
303,306,313,305,1
302,308,313,302,1
301,310,312,301,1
301,313,311,298,1
302,314,309,294,1
304,314,308,289,1
305,313,307,284,1
305,311,307,283,1
305,309,306,283,1
305,307,306,286,1
305,306,305,291,1
303,305,304,299,1
302,304,304,309,1
300,302,304,317,1
296,301,306,321,1
289,300,307,322,1
284,300,308,320,1
280,301,308,316,1
277,302,307,313,1
277,304,306,311,1
281,305,308,311,1
290,308,310,312,1
301,310,311,311,1
310,311,311,308,1
316,311,310,305,1
319,311,309,302,1
319,311,308,300,1
318,312,308,300,1
316,311,308,301,1
315,311,309,304,1
315,310,310,308,1
316,309,311,312,1
317,308,310,314,1
317,305,309,314,1
316,303,307,315,1
313,301,307,317,1
310,299,306,319,1
309,299,307,320,1
309,299,308,320,1
309,300,310,318,1
307,302,311,314,1
305,304,311,311,1
304,306,310,311,1
304,308,309,311,1
306,310,307,313,1
310,311,307,315,1
313,312,308,317,1
315,312,309,318,1
314,312,309,317,1
311,311,309,313,1
306,310,309,306,1
301,308,307,299,1
298,305,306,294,1
297,303,304,290,1
297,301,303,290,1
298,300,303,292,1
299,299,303,297,1
301,300,305,303,1
302,301,306,310,1
299,302,307,315,1
295,303,306,315,1
295,305,303,313,1
297,305,300,309,1
298,305,297,306,1
300,304,296,303,1
301,303,298,300,1
302,302,300,298,1
302,302,301,297,1
301,302,302,296,1
299,301,302,297,1
297,300,302,299,1
298,300,303,301,1
300,299,302,301,1
302,299,301,301,1
304,298,299,302,1
307,298,300,305,1
309,299,302,308,1
312,299,305,310,1
313,300,308,312,1
314,301,311,316,1
314,303,314,319,1
313,306,315,322,1
311,310,314,322,1
309,312,313,319,1
306,313,312,318,1
304,314,311,319,1
302,314,309,323,1
301,315,307,325,1
299,313,306,323,1
296,312,304,315,1
292,309,302,306,1
289,307,300,297,1
288,305,299,290,1
287,303,299,288,1
287,301,299,287,1
288,300,299,289,1
291,299,299,293,1
294,300,301,299,1
297,301,303,308,1
300,302,306,316,1
303,304,308,322,1
306,306,309,325,1
309,307,310,326,1
312,309,310,326,1
314,310,310,324,1
314,310,309,321,1
314,311,308,319,1
315,312,306,319,1
316,312,305,318,1
316,312,304,317,1
315,311,304,314,1
313,310,304,310,1
310,309,304,306,1
308,307,302,302,1
307,304,300,302,1
306,302,299,304,1
307,300,300,307,1
308,301,303,309,1
311,301,306,309,1
313,303,308,308,1
314,304,310,305,1
316,306,310,301,1
318,307,309,297,1
319,309,308,292,1
317,309,306,289,1
312,309,304,288,1
305,308,303,290,1
300,308,302,292,1
296,308,303,297,1
294,307,303,300,1
294,307,304,303,1
296,307,304,306,1
297,305,305,307,1
298,304,305,306,1
299,303,305,306,1
299,302,306,306,1
298,301,306,307,1
296,301,307,309,1
299,302,308,311,1
303,303,308,313,1
306,305,308,313,1
308,306,307,312,1
307,308,305,308,1
306,309,303,305,1
304,309,302,303,1
302,310,303,301,1
301,311,304,302,1
300,311,305,305,1
300,311,306,309,1
300,310,308,312,1
299,308,310,315,1
300,307,310,321,1
300,305,310,330,1
300,303,309,338,1
303,302,309,343,1
306,302,309,342,1
309,303,309,335,1
311,303,309,326,1
312,303,309,317,1
313,304,310,309,1
312,306,310,303,1
310,307,309,298,1
307,308,307,294,1
303,309,306,289,1
300,309,305,284,1
298,308,305,279,1
296,308,304,276,1
294,307,305,275,1
292,307,304,276,1
290,306,304,278,1
288,305,304,281,1
288,303,304,284,1
290,302,304,287,1
295,300,304,290,1
299,298,303,292,1
302,297,303,295,1
305,296,303,299,1
308,296,304,304,1
312,298,304,309,1
314,301,306,314,1
314,304,310,319,1
312,307,313,322,1
307,310,315,323,1
300,312,314,324,1
296,313,312,326,1
298,314,312,328,1
306,316,313,330,1
312,318,314,330,1
316,319,314,332,1
317,319,315,333,1
318,317,314,333,1
318,315,314,332,1
319,312,314,330,1
319,309,313,327,1
316,306,310,321,1
312,303,309,312,1
308,301,308,302,1
304,300,308,293,1
302,300,308,288,1
300,301,308,284,1
299,302,307,283,1
297,303,304,284,1
296,305,303,285,1
296,306,304,288,1
296,307,305,290,1
297,308,306,293,1
298,308,307,295,1
299,308,307,297,1
300,308,308,299,1
301,308,308,301,1
303,309,308,303,1
304,308,308,305,1
304,307,309,307,1
305,306,309,308,1
304,304,309,309,1
303,303,309,311,1
302,303,309,312,1
301,303,309,315,1
300,304,308,317,1
301,305,308,319,1
302,307,307,321,1
301,310,306,322,1
299,311,306,324,1
301,312,305,327,1
304,313,306,328,1
305,313,307,328,1
307,313,309,329,1
307,314,310,331,1
308,314,311,332,1
307,313,310,331,1
307,312,309,326,1
308,310,308,319,1
308,307,307,311,1
309,304,306,303,1
310,301,304,296,1
311,298,303,292,1
312,297,302,289,1
313,297,303,288,1
314,298,304,289,1
314,299,306,291,1
312,302,308,293,1
307,304,309,296,1
302,307,308,299,1
297,308,306,302,1
295,309,305,304,1
297,310,304,306,1
300,311,304,306,1
302,312,304,303,1
303,311,303,300,1
305,311,303,298,1
306,310,303,297,1
307,309,303,298,1
307,307,303,300,1
305,305,303,303,1
304,304,303,308,1
303,303,304,314,1
302,303,304,321,1
303,304,306,328,1
304,306,308,335,1
307,308,310,339,1
310,311,312,340,1
314,313,311,337,1
315,315,310,330,1
315,315,308,323,1
314,315,308,318,1
312,314,307,312,1
311,311,306,304,1
310,309,305,296,1
310,307,303,290,1
308,306,302,286,1
308,306,301,286,1
307,306,301,287,1
307,305,300,289,1
307,305,299,293,1
309,304,299,297,1
310,304,300,300,1
311,305,301,305,1
311,306,303,310,1
308,307,305,314,1
302,308,306,317,1
295,309,307,317,1
292,309,306,315,1
293,308,305,311,1
299,309,304,309,1
307,309,304,307,1
314,310,304,304,1
319,310,304,301,1
322,311,303,299,1
323,311,303,300,1
322,311,304,304,1
321,311,305,311,1
318,311,306,319,1
316,310,307,325,1
313,309,306,328,1
312,306,305,330,1
311,305,304,331,1
311,304,304,330,1
311,303,304,327,1
311,304,305,324,1
312,305,306,321,1
313,307,306,317,1
313,309,306,311,1
313,311,304,305,1
311,311,302,302,1
310,311,302,302,1
311,311,302,305,1
311,311,304,310,1
310,311,305,314,1
308,311,306,318,1
305,311,307,320,1
303,310,308,321,1
299,309,308,319,1
296,308,308,315,1
293,306,308,310,1
293,304,308,305,1
297,301,308,302,1
303,300,308,300,1
308,299,308,301,1
312,300,308,304,1
314,301,309,309,1
312,303,309,315,1
308,305,309,321,1
301,307,308,326,1
299,308,308,330,1
299,309,308,333,1
301,310,308,332,1
304,310,307,329,1
308,310,307,323,1
313,310,306,316,1
316,309,305,308,1
317,307,304,301,1
315,305,301,296,1
312,302,296,293,1
308,300,293,291,1
307,298,291,291,1
309,297,292,294,1
314,297,295,299,1
319,299,300,304,1
323,301,303,307,1
325,304,306,308,1
324,306,307,307,1
319,308,308,305,1
312,310,308,305,1
304,312,308,306,1
300,312,309,309,1
298,314,309,313,1
299,315,308,317,1
300,315,308,319,1
302,316,308,320,1
306,316,308,319,1
311,315,307,318,1
316,313,306,318,1
320,311,305,320,1
319,308,303,324,1
316,306,301,328,1
312,304,300,329,1
308,303,298,324,1
305,302,297,317,1
304,301,298,310,1
304,301,299,305,1
303,302,301,301,1
302,303,301,299,1
299,304,302,296,1
297,305,301,292,1
297,306,301,288,1
299,307,300,286,1
300,307,299,284,1
301,307,298,284,1
302,306,298,285,1
303,306,298,286,1
306,306,300,286,1
309,306,301,286,1
312,305,303,287,1
313,303,304,289,1
312,301,305,292,1
312,300,307,297,1
311,299,308,302,1
308,298,309,308,1
306,299,310,312,1
305,301,312,315,1
304,303,312,316,1
302,306,313,316,1
301,308,313,315,1
300,310,314,316,1
298,312,314,318,1
298,312,313,321,1
301,312,312,323,1
308,312,311,325,1
313,313,310,327,1
316,312,307,329,1
316,311,303,328,1
313,309,299,326,1
308,306,296,320,1
302,303,294,312,1
296,300,294,305,1
294,299,295,299,1
295,298,297,296,1
298,299,300,296,1
300,300,303,297,1
303,302,305,299,1
310,303,307,302,1
316,305,310,304,1
319,307,312,307,1
320,310,313,310,1
319,312,314,311,1
317,313,313,310,1
315,313,311,305,1
312,311,309,298,1
309,308,306,292,1
307,306,305,287,1
305,303,303,284,1
304,301,302,284,1
305,300,302,286,1
307,299,302,290,1
312,298,302,296,1
318,297,302,301,1
324,297,302,307,1
329,298,303,316,1
333,300,304,325,1
333,304,306,332,1
331,307,308,334,1
326,310,307,331,1
318,311,306,323,1
309,311,305,317,1
302,311,304,315,1
300,311,302,317,1
301,311,302,318,1
302,311,301,315,1
303,311,300,307,1
304,310,300,296,1
305,310,300,287,1
306,309,300,282,1
307,307,301,280,1
308,305,302,282,1
310,304,304,287,1
312,302,305,290,1
313,301,306,291,1
314,301,307,292,1
316,301,308,293,1
317,302,310,295,1
318,304,311,299,1
318,306,313,304,1
315,308,313,310,1
310,309,312,316,1
303,310,311,321,1
295,311,310,325,1
291,313,310,329,1
293,313,310,331,1
297,314,310,331,1
302,314,309,329,1
305,314,308,324,1
307,313,307,318,1
308,311,306,310,1
308,308,305,302,1
308,304,304,295,1
308,301,305,290,1
308,298,305,287,1
308,297,306,286,1
308,296,306,286,1
308,296,307,288,1
308,298,308,291,1
307,300,309,295,1
306,302,310,298,1
303,304,309,301,1
299,305,308,302,1
296,305,305,303,1
293,306,302,303,1
292,307,299,303,1
293,308,299,302,1
298,307,301,302,1
302,307,302,301,1
307,305,303,300,1
311,304,304,300,1
314,303,305,302,1
316,302,305,304,1
318,302,306,307,1
317,302,307,309,1
315,301,307,310,1
314,301,307,310,1
312,301,307,309,1
309,301,306,306,1
307,302,306,304,1
304,302,305,302,1
303,304,305,303,1
302,305,305,306,1
301,306,305,309,1
302,306,305,315,1
303,307,304,320,1
302,307,304,324,1
301,307,303,323,1
298,306,302,320,1
295,305,301,315,1
293,303,300,308,1
292,301,299,303,1
296,300,298,298,1
300,299,298,294,1
306,298,299,292,1
310,299,300,295,1
312,299,303,300,1
311,301,305,306,1
308,302,307,312,1
307,304,309,316,1
307,306,310,319,1
308,308,308,322,1
311,310,307,326,1
315,312,306,330,1
317,313,307,334,1
316,314,309,337,1
312,315,310,337,1
307,315,311,335,1
303,315,311,330,1
302,313,310,321,1
304,309,308,311,1
308,306,305,301,1
312,301,304,294,1
314,299,303,289,1
315,297,304,287,1
315,296,304,285,1
312,296,305,285,1
309,297,306,285,1
307,298,307,288,1
303,301,309,293,1
300,305,309,300,1
297,309,308,305,1
294,312,306,310,1
292,314,305,313,1
290,316,305,316,1
291,316,305,317,1
295,315,304,314,1
302,313,302,307,1
309,312,300,299,1
315,310,297,292,1
319,308,294,285,1
320,306,292,281,1
322,303,292,280,1
322,302,293,281,1
320,300,296,282,1
318,299,299,285,1
316,299,301,288,1
314,301,304,291,1
314,303,305,294,1
312,305,306,297,1
309,306,307,301,1
306,307,307,307,1
304,309,307,314,1
303,309,307,320,1
303,310,307,325,1
302,311,306,327,1
303,311,305,326,1
304,310,304,320,1
305,310,302,313,1
307,309,301,306,1
308,308,301,302,1
308,307,301,302,1
308,305,302,303,1
306,304,304,305,1
303,302,306,310,1
298,301,308,316,1
295,301,310,324,1
298,302,313,332,1
304,304,315,339,1
307,306,317,344,1
307,308,316,345,1
307,309,315,344,1
307,310,313,340,1
307,309,310,334,1
307,308,308,326,1
307,307,306,315,1
307,304,303,305,1
308,303,301,297,1
308,302,301,293,1
307,300,300,292,1
307,299,300,293,1
307,299,301,294,1
307,298,301,295,1
306,297,300,293,1
306,296,300,292,1
307,297,301,292,1
312,297,303,295,1
316,298,304,299,1
320,300,303,305,1
321,303,302,310,1
318,304,303,312,1
313,306,304,312,1
308,308,303,312,1
300,310,302,310,1
294,311,302,308,1
291,312,304,307,1
295,312,307,308,1
300,312,309,310,1
305,311,310,312,1
308,310,311,313,1
310,308,310,314,1
311,305,309,315,1
312,303,308,314,1
311,301,306,313,1
310,299,306,312,1
309,299,306,311,1
307,300,307,308,1
305,302,307,303,1
302,303,306,297,1
301,304,305,293,1
301,306,304,291,1
302,307,303,291,1
301,308,302,292,1
299,309,302,294,1
297,310,304,295,1
295,310,304,296,1
294,309,305,295,1
293,307,304,293,1
295,306,304,289,1
298,304,303,288,1
302,303,303,288,1
307,302,303,291,1
310,301,303,295,1
313,300,304,301,1
315,299,305,308,1
316,299,306,315,1
318,300,307,322,1
319,301,307,326,1
318,303,307,327,1
315,304,305,326,1
313,305,304,324,1
311,306,303,323,1
309,308,303,322,1
306,308,302,318,1
301,307,301,311,1
294,306,299,306,1
286,305,299,302,1
279,305,299,301,1
273,304,301,302,1
269,304,301,304,1
267,304,302,306,1
272,303,303,308,1
284,302,304,309,1
298,301,305,309,1
308,301,307,309,1
314,301,307,309,1
317,302,308,309,1
319,304,309,308,1
320,306,310,308,1
321,308,311,307,1
319,310,311,307,1
317,310,311,307,1
313,311,310,308,1
308,311,310,310,1
305,311,309,314,1
302,312,309,319,1
301,312,308,323,1
301,312,307,327,1
301,312,305,330,1
302,310,304,333,1
303,309,303,334,1
303,306,301,332,1
302,305,300,325,1
301,303,301,318,1
302,302,302,311,1
303,301,304,306,1
303,301,306,300,1
302,301,308,296,1
300,303,311,292,1
299,304,313,291,1
301,307,314,292,1
304,309,314,296,1
305,312,314,302,1
305,313,313,309,1
303,314,312,317,1
302,315,311,326,1
303,317,311,335,1
305,319,310,341,1
307,318,310,345,1
309,317,309,345,1
310,315,308,341,1
311,312,307,334,1
310,309,306,326,1
309,305,306,316,1
308,301,306,307,1
305,297,308,298,1
303,296,308,291,1
300,296,309,287,1
296,298,310,286,1
291,300,309,286,1
286,302,308,287,1
282,304,306,286,1
279,305,304,283,1
278,305,300,280,1
280,306,299,278,1
284,307,300,280,1
289,308,302,282,1
294,308,304,286,1
298,308,305,289,1
301,307,306,293,1
303,306,307,299,1
304,304,307,305,1
305,303,307,309,1
306,301,306,310,1
309,300,305,311,1
312,300,303,310,1
313,300,302,309,1
312,301,302,308,1
307,302,302,307,1
302,304,303,306,1
296,305,303,304,1
291,306,303,302,1
287,307,303,300,1
286,308,304,298,1
286,309,305,297,1
288,309,306,298,1
289,309,306,300,1
288,309,307,304,1
290,308,308,308,1
294,307,308,311,1
299,306,308,315,1
302,305,308,319,1
304,305,307,323,1
306,304,307,328,1
307,304,307,333,1
305,305,305,337,1
304,305,303,337,1
305,306,302,334,1
309,307,303,329,1
313,309,304,324,1
314,310,306,319,1
314,311,306,315,1
312,311,308,312,1
309,310,309,309,1
307,310,309,308,1
305,309,308,307,1
303,308,306,307,1
301,308,305,308,1
300,309,304,310,1
300,309,304,312,1
301,307,304,311,1
302,305,304,309,1
300,303,302,308,1
297,300,300,308,1
292,298,299,307,1
286,296,300,307,1
282,297,301,307,1
282,299,302,305,1
286,301,304,300,1
292,303,304,293,1
299,304,304,286,1
302,306,304,282,1
304,308,304,282,1
306,309,304,285,1
306,310,306,289,1
305,311,305,295,1
304,310,306,301,1
302,309,305,304,1
299,307,306,304,1
296,305,306,303,1
294,303,307,303,1
293,301,308,305,1
293,300,309,309,1
296,300,310,315,1
299,300,312,322,1
301,300,312,329,1
302,301,312,335,1
302,302,312,338,1
302,303,311,336,1
301,304,308,328,1
298,304,304,319,1
293,304,301,311,1
288,305,299,305,1
287,305,300,301,1
289,306,301,299,1
291,306,303,297,1
294,306,304,296,1
295,307,305,298,1
297,307,305,301,1
299,307,306,305,1
301,306,306,308,1
303,305,305,309,1
304,305,305,310,1
306,304,305,311,1
307,302,306,311,1
308,302,308,312,1
309,302,309,314,1
309,301,310,315,1
309,301,311,316,1
309,302,311,314,1
309,302,311,311,1
307,302,309,308,1
304,302,306,305,1
300,303,304,304,1
299,303,302,306,1
301,304,301,310,1
302,305,301,316,1
301,306,302,324,1
298,307,302,332,1
296,308,303,336,1
294,308,305,334,1
294,307,305,328,1
296,305,304,319,1
299,303,304,311,1
304,301,304,306,1
307,301,305,304,1
309,300,307,304,1
310,301,308,306,1
310,303,310,309,1
311,305,311,312,1
310,307,311,313,1
310,309,311,314,1
309,311,312,315,1
308,313,312,316,1
305,315,312,317,1
303,317,311,318,1
299,318,310,319,1
296,318,309,320,1
295,317,308,320,1
295,315,307,319,1
297,311,304,315,1
299,307,302,310,1
302,304,298,308,1
304,301,297,307,1
307,300,296,309,1
309,300,297,311,1
310,301,299,313,1
310,302,302,313,1
309,304,303,313,1
310,306,304,313,1
311,309,304,313,1
313,312,303,314,1
314,313,303,314,1
314,314,302,312,1
313,314,300,311,1
311,313,299,310,1
308,312,299,309,1
307,311,300,308,1
306,310,301,307,1
305,310,301,306,1
305,308,302,305,1
304,306,302,304,1
303,303,302,304,1
301,302,302,305,1
299,300,302,307,1
298,300,303,309,1
298,301,304,311,1
299,303,306,313,1
299,305,307,313,1
300,307,309,312,1
301,309,309,309,1
302,310,308,307,1
303,311,307,308,1
303,312,307,310,1
302,313,306,314,1
300,313,306,318,1
299,313,306,321,1
296,312,306,323,1
293,311,307,322,1
290,309,306,317,1
290,307,306,312,1
293,304,305,307,1
298,302,304,306,1
303,299,304,310,1
306,298,304,316,1
307,297,304,322,1
310,298,303,327,1
314,299,301,329,1
317,301,301,327,1
318,303,302,322,1
317,305,304,315,1
314,307,305,307,1
310,308,307,301,1
307,309,307,296,1
305,309,308,293,1
302,308,309,290,1
300,307,309,288,1
299,307,309,286,1
299,305,308,286,1
301,303,307,286,1
306,302,306,287,1
312,300,305,289,1
316,299,304,292,1
317,298,303,295,1
316,297,302,299,1
314,298,301,302,1
310,299,302,304,1
305,300,303,303,1
301,302,304,301,1
297,304,305,298,1
295,307,306,296,1
295,309,307,296,1
297,311,308,297,1
300,311,308,300,1
302,310,309,302,1
305,309,309,304,1
307,308,308,305,1
309,308,307,306,1
310,307,306,307,1
309,305,304,309,1
309,303,304,310,1
310,300,303,314,1
311,298,303,320,1
313,298,305,327,1
314,297,307,335,1
315,299,310,342,1
316,300,312,346,1
315,303,313,346,1
314,305,313,344,1
312,307,312,337,1
310,308,310,328,1
308,308,308,319,1
307,308,305,310,1
305,307,303,302,1
304,305,302,293,1
304,303,300,285,1
303,302,299,277,1
303,301,298,272,1
303,301,298,269,1
305,300,298,269,1
308,299,298,271,1
311,298,298,276,1
314,298,298,282,1
317,297,299,289,1
319,297,300,295,1
321,297,302,300,1
322,299,304,302,1
321,300,305,303,1
317,302,307,304,1
313,304,307,304,1
309,306,307,307,1
307,307,306,312,1
305,308,306,317,1
304,310,305,320,1
305,310,305,322,1
308,310,306,319,1
312,309,307,315,1
314,309,307,310,1
315,308,307,307,1
312,307,306,305,1
305,305,305,307,1
298,304,304,310,1
296,303,304,314,1
300,302,305,317,1
305,302,305,317,1
308,303,305,315,1
309,304,304,313,1
308,306,305,314,1
308,308,306,317,1
312,311,306,323,1
315,314,307,329,1
318,316,307,333,1
319,318,307,333,1
319,317,308,330,1
317,316,307,326,1
315,315,307,320,1
313,315,306,313,1
310,314,305,308,1
308,313,304,304,1
306,312,303,300,1
305,310,302,295,1
304,308,300,290,1
304,305,299,284,1
304,302,298,279,1
303,299,298,275,1
301,299,298,274,1
298,299,298,275,1
294,301,297,277,1
289,303,295,280,1
285,306,293,285,1
287,308,294,289,1
295,310,295,292,1
304,312,297,295,1
312,313,299,297,1
318,313,301,299,1
323,313,302,302,1
327,313,303,305,1
328,312,304,309,1
328,311,304,313,1
326,310,305,317,1
324,310,304,320,1
322,309,303,323,1
320,307,302,326,1
320,304,302,328,1
320,303,303,330,1
321,302,304,332,1
321,303,306,332,1
321,304,307,329,1
319,305,308,322,1
317,307,307,315,1
313,307,306,309,1
310,308,304,304,1
308,307,304,303,1
307,307,303,304,1
308,306,304,305,1
310,305,305,307,1
313,304,307,308,1
318,304,308,309,1
321,303,309,309,1
323,303,309,308,1
324,302,307,309,1
324,302,305,310,1
324,300,303,312,1
323,300,301,314,1
323,300,300,315,1
323,302,300,317,1
321,304,300,319,1
317,306,302,319,1
310,308,304,318,1
303,310,306,319,1
298,313,309,321,1
296,315,311,325,1
297,316,312,329,1
298,317,313,332,1
298,318,313,335,1
300,318,312,339,1
304,318,312,343,1
306,318,311,343,1
306,317,309,339,1
305,314,307,330,1
305,311,304,317,1
308,306,302,302,1
310,302,300,287,1
312,297,299,273,1
313,294,298,265,1
313,292,297,260,1
312,292,297,260,1
310,292,298,263,1
309,295,300,267,1
306,297,302,272,1
304,300,303,276,1
302,302,303,280,1
299,305,303,284,1
297,308,304,288,1
296,310,303,290,1
294,312,302,292,1
292,313,302,292,1
295,313,302,294,1
302,313,302,296,1
308,313,302,299,1
313,311,301,303,1
315,309,301,307,1
317,307,301,311,1
319,305,302,316,1
321,304,303,320,1
321,305,305,325,1
321,306,307,326,1
318,308,308,324,1
315,310,309,320,1
312,312,309,316,1
310,313,309,314,1
309,314,308,312,1
308,314,307,309,1
309,315,307,308,1
310,315,306,307,1
311,314,306,306,1
311,313,306,306,1
310,312,306,305,1
308,310,306,302,1
306,308,306,299,1
305,306,305,295,1
305,303,304,291,1
307,300,303,288,1
308,299,301,286,1
311,298,299,286,1
313,298,299,287,1
314,298,300,290,1
313,300,303,294,1
312,301,304,298,1
310,303,306,303,1
308,305,308,307,1
306,305,310,310,1
303,306,310,314,1
302,308,310,319,1
301,309,309,325,1
300,309,308,332,1
301,310,308,337,1
303,311,308,338,1
306,311,308,336,1
307,312,307,332,1
307,311,307,329,1
306,311,307,329,1
306,311,309,331,1
307,310,310,331,1
308,310,311,330,1
307,310,312,328,1
304,310,314,328,1
298,311,315,326,1
292,311,317,323,1
287,311,318,319,1
286,310,317,315,1
289,309,315,309,1
294,309,311,303,1
298,308,307,298,1
303,308,303,293,1
308,306,300,290,1
312,305,298,288,1
314,304,296,288,1
314,303,295,289,1
314,302,293,291,1
315,302,293,292,1
319,302,295,292,1
322,301,297,291,1
324,301,299,290,1
325,302,301,290,1
324,303,304,291,1
322,304,306,294,1
319,306,308,297,1
315,307,309,300,1
309,308,309,304,1
305,309,309,308,1
302,309,309,312,1
303,310,309,312,1
305,310,309,310,1
309,310,308,306,1
311,308,307,304,1
313,307,306,301,1
312,304,303,300,1
310,303,301,299,1
307,301,299,299,1
303,299,297,299,1
299,297,297,298,1
297,295,297,296,1
301,293,298,295,1
308,293,299,293,1
317,293,300,291,1
324,293,302,289,1
330,295,304,289,1
333,296,305,289,1
332,298,306,291,1
327,300,307,292,1
320,302,307,296,1
313,304,307,301,1
305,305,307,306,1
299,307,308,311,1
297,308,308,314,1
297,309,307,318,1
297,309,307,320,1
297,309,307,320,1
297,309,307,320,1
297,307,306,318,1
297,304,305,317,1
298,302,303,317,1
302,299,304,317,1
307,297,304,315,1
312,296,306,312,1
316,296,307,310,1
319,297,308,312,1
320,299,309,315,1
319,301,310,318,1
314,304,310,318,1
306,305,309,314,1
297,307,309,308,1
290,307,309,300,1
284,307,308,293,1
280,306,307,286,1
278,305,307,281,1
281,304,306,280,1
288,304,305,280,1
296,303,305,281,1
303,302,305,283,1
307,301,305,284,1
309,301,306,286,1
310,301,306,290,1
310,302,309,298,1
310,304,311,309,1
309,306,313,323,1
307,308,313,335,1
305,310,313,345,1
304,312,313,351,1
302,313,313,351,1
300,314,312,342,1
298,313,309,330,1
297,313,307,317,1
299,312,305,306,1
302,311,303,296,1
307,309,300,287,1
311,308,298,281,1
315,307,296,275,1
316,305,295,271,1
316,304,294,268,1
315,303,295,269,1
314,302,296,273,1
313,301,298,279,1
311,300,300,286,1
311,299,303,293,1
309,299,306,299,1
305,300,308,305,1
299,301,310,310,1
300,304,312,313,1
306,305,313,313,1
314,307,313,313,1
320,309,314,315,1
322,310,314,316,1
322,311,314,315,1
320,311,315,313,1
316,312,315,308,1
311,311,314,304,1
307,311,312,299,1
304,309,310,296,1
303,307,309,296,1
303,304,309,297,1
304,301,309,298,1
305,299,309,300,1
306,297,310,302,1
306,297,311,303,1
306,297,311,303,1
305,298,311,303,1
305,300,311,301,1
305,302,311,300,1
305,305,311,299,1
305,308,310,297,1
305,310,310,295,1
304,312,309,294,1
304,313,308,293,1
304,313,307,292,1
304,312,306,293,1
304,312,305,296,1
305,312,305,300,1
306,312,305,304,1
307,310,305,309,1
309,308,305,316,1
311,307,305,322,1
312,305,305,324,1
312,304,306,325,1
310,303,308,325,1
308,303,309,324,1
305,303,310,323,1
304,304,312,321,1
304,306,313,319,1
304,308,313,314,1
305,309,312,309,1
306,310,311,305,1
306,311,310,301,1
306,312,309,299,1
306,311,308,298,1
306,311,307,297,1
306,310,307,298,1
306,310,307,301,1
306,309,306,304,1
307,308,306,309,1
308,307,307,314,1
308,307,307,319,1
307,307,307,324,1
306,307,308,328,1
306,308,309,331,1
306,309,311,332,1
307,310,313,331,1
308,312,313,327,1
308,312,311,320,1
308,312,309,313,1
306,312,307,306,1
305,313,305,303,1
303,314,305,300,1
302,315,304,297,1
303,316,304,293,1
303,316,303,288,1
302,315,302,284,1
303,315,300,282,1
306,313,300,284,1
311,311,300,289,1
315,309,300,296,1
319,306,301,303,1
321,303,302,310,1
321,301,304,314,1
320,300,307,313,1
315,298,308,309,1
309,299,309,305,1
302,299,310,302,1
297,301,310,301,1
293,303,311,300,1
291,305,310,298,1
292,306,309,296,1
292,307,309,294,1
294,307,308,293,1
300,308,309,293,1
307,308,309,292,1
311,308,310,292,1
311,308,311,293,1
309,308,312,294,1
308,307,311,295,1
309,305,309,296,1
309,304,308,296,1
309,303,307,297,1
309,302,306,299,1
309,302,305,301,1
309,302,305,303,1
310,303,306,305,1
312,306,308,307,1
314,308,310,310,1
317,309,312,313,1
320,310,312,316,1
324,311,312,320,1
326,311,310,326,1
324,311,308,332,1
320,313,307,339,1
315,315,307,343,1
311,317,307,344,1
307,316,305,342,1
303,314,304,340,1
301,312,303,337,1
300,311,304,334,1
301,309,307,331,1
302,308,309,329,1
301,307,311,329,1
300,307,313,329,1
301,308,314,330,1
303,309,315,332,1
305,310,316,331,1
307,311,315,328,1
310,311,313,321,1
311,311,311,312,1
312,312,308,302,1
312,312,304,293,1
309,311,302,286,1
306,310,300,280,1
305,308,299,275,1
304,306,298,270,1
303,303,298,267,1
303,301,298,266,1
300,299,298,268,1
298,298,299,274,1
297,298,302,284,1
298,299,305,295,1
300,300,308,307,1
301,301,310,318,1
303,303,312,327,1
303,305,314,333,1
303,306,314,336,1
303,307,314,334,1
304,307,314,330,1
304,307,314,322,1
304,308,313,315,1
303,308,311,308,1
301,308,308,302,1
300,308,306,298,1
299,307,303,294,1
300,305,302,289,1
301,304,301,285,1
301,303,300,282,1
301,302,300,282,1
301,300,302,286,1
302,299,304,291,1
301,298,306,295,1
298,298,307,299,1
294,298,308,303,1
292,299,310,305,1
291,300,310,307,1
294,302,311,309,1
300,304,312,312,1
309,306,312,316,1
322,308,312,320,1
332,309,312,324,1
336,311,311,326,1
336,311,310,330,1
334,312,310,335,1
330,312,310,339,1
323,311,311,342,1
316,310,311,343,1
310,308,311,342,1
304,305,310,338,1
301,304,310,332,1
301,304,310,326,1
303,304,309,318,1
306,304,308,309,1
309,304,307,301,1
310,305,306,296,1
311,306,306,294,1
312,308,306,295,1
313,308,306,298,1
311,309,307,302,1
310,309,308,307,1
310,311,308,310,1
311,311,307,311,1
310,312,307,310,1
308,313,305,308,1
305,313,303,304,1
303,313,302,298,1
303,312,302,292,1
303,310,303,286,1
303,308,304,282,1
303,305,305,282,1
302,302,307,286,1
302,301,309,294,1
305,301,311,304,1
310,303,314,313,1
315,305,315,321,1
319,306,315,327,1
319,308,313,329,1
315,309,311,329,1
310,310,310,327,1
303,311,309,324,1
298,311,309,319,1
294,311,308,314,1
291,310,307,308,1
291,309,306,303,1
293,308,305,299,1
296,308,304,297,1
299,308,303,296,1
301,307,302,295,1
301,305,302,296,1
301,304,302,297,1
299,302,303,299,1
300,301,304,302,1
303,300,306,304,1
306,300,308,306,1
309,300,308,308,1
310,301,308,308,1
309,302,308,307,1
306,303,308,305,1
304,303,308,302,1
302,303,307,300,1
300,303,306,299,1
299,303,306,301,1
298,303,306,304,1
298,303,307,307,1
297,304,307,310,1
297,305,307,312,1
297,306,307,313,1
295,306,305,311,1
291,305,303,308,1
287,304,301,308,1
283,304,301,312,1
283,304,301,318,1
284,305,303,325,1
287,307,307,333,1
288,309,310,340,1
287,310,312,345,1
288,311,312,347,1
292,312,311,348,1
299,313,309,347,1
306,313,307,342,1
312,313,305,332,1
316,312,303,318,1
319,311,302,305,1
320,310,303,295,1
321,308,303,289,1
320,306,304,289,1
318,304,304,292,1
317,304,304,297,1
315,303,303,302,1
315,303,302,306,1
314,303,302,308,1
314,304,304,311,1
314,305,305,314,1
316,305,306,315,1
318,306,307,317,1
318,307,308,318,1
315,308,309,317,1
312,308,310,312,1
308,307,309,305,1
305,306,307,297,1
303,305,305,290,1
303,305,303,284,1
304,304,301,281,1
308,303,300,279,1
311,302,301,280,1
312,302,301,283,1
309,302,301,286,1
304,302,301,289,1
301,302,301,294,1
300,302,301,300,1
301,302,302,307,1
302,302,303,314,1
304,303,305,321,1
307,305,307,327,1
309,307,308,332,1
311,309,309,333,1
311,309,309,333,1
311,310,309,332,1
311,310,307,329,1
310,311,305,324,1
308,311,302,317,1
305,310,299,309,1
301,309,297,299,1
297,307,295,291,1
295,306,295,284,1
296,305,295,281,1
298,304,295,278,1
299,302,294,277,1
297,300,294,277,1
296,299,294,279,1
296,298,295,283,1
297,297,297,289,1
298,297,299,295,1
299,298,301,301,1
301,300,303,306,1
305,302,305,311,1
310,305,306,316,1
313,308,307,319,1
312,310,306,320,1
310,312,305,321,1
306,313,306,321,1
303,313,307,321,1
299,314,307,322,1
295,314,308,323,1
290,314,308,324,1
286,314,307,324,1
285,314,305,321,1
286,312,304,318,1
288,310,302,314,1
295,308,301,312,1
304,307,300,311,1
313,306,300,309,1
318,305,300,307,1
320,303,300,304,1
320,302,301,302,1
319,302,301,301,1
317,302,302,300,1
316,304,301,299,1
313,306,302,301,1
312,308,303,307,1
311,310,304,316,1
310,311,304,325,1
309,312,305,334,1
309,312,305,339,1
308,311,305,340,1
308,310,305,337,1
309,308,305,329,1
311,307,306,320,1
313,304,306,311,1
315,303,306,304,1
319,301,306,301,1
321,301,307,300,1
321,301,307,302,1
317,302,307,303,1
310,303,306,303,1
305,304,305,301,1
302,306,304,299,1
302,308,304,297,1
302,310,304,296,1
303,311,304,296,1
305,311,305,298,1
309,312,306,303,1
313,313,307,310,1
314,315,308,318,1
312,317,309,324,1
306,319,310,325,1
299,318,311,321,1
292,316,310,314,1
288,313,309,304,1
286,309,307,295,1
286,306,306,289,1
290,305,306,288,1
296,305,306,291,1
302,306,306,295,1
306,306,305,298,1
309,307,304,302,1
311,309,305,304,1
313,310,305,306,1
313,312,306,304,1
313,313,305,301,1
310,314,304,298,1
307,314,303,296,1
304,315,303,296,1
303,316,303,296,1
302,317,304,297,1
300,317,304,297,1
298,316,305,297,1
294,315,306,297,1
291,314,307,298,1
289,312,308,302,1
290,309,309,307,1
296,307,309,312,1
303,305,309,314,1
311,304,309,315,1
316,303,308,312,1
319,303,307,310,1
320,303,306,307,1
318,304,303,304,1
314,305,302,301,1
309,305,301,298,1
304,306,301,297,1
301,306,301,296,1
299,307,301,299,1
298,307,302,303,1
298,308,303,308,1
300,308,304,312,1
301,308,305,314,1
301,307,305,316,1
300,306,304,320,1
299,305,303,324,1
300,304,303,326,1
301,304,303,325,1
303,303,303,321,1
303,303,304,318,1
303,304,305,315,1
300,306,307,312,1
299,310,309,310,1
302,313,309,309,1
305,314,308,309,1
306,315,308,310,1
307,316,308,314,1
307,316,308,318,1
306,316,309,321,1
305,315,308,320,1
304,314,307,313,1
303,312,306,304,1
303,310,305,294,1
302,309,303,285,1
300,308,302,279,1
299,306,301,277,1
300,304,301,278,1
302,303,302,283,1
306,302,303,288,1
311,301,303,291,1
315,301,304,293,1
318,302,304,295,1
320,303,304,298,1
320,305,305,300,1
318,307,305,302,1
316,309,305,305,1
315,311,306,308,1
315,312,307,310,1
315,313,307,312,1
313,313,307,313,1
310,314,306,314,1
306,313,307,317,1
303,313,306,318,1
300,312,307,319,1
299,311,307,318,1
299,311,308,316,1
301,311,309,313,1
302,311,310,310,1
302,311,311,307,1
301,310,311,304,1
299,310,312,303,1
298,311,312,303,1
298,311,311,302,1
296,312,310,300,1
294,312,308,297,1
292,313,306,295,1
291,313,306,293,1
289,313,305,290,1
290,313,305,289,1
293,313,305,290,1
298,313,304,290,1
302,312,304,290,1
305,311,303,289,1
306,310,302,288,1
306,308,300,288,1
307,306,298,289,1
309,305,296,290,1
312,304,297,293,1
313,305,300,298,1
313,307,302,305,1
313,309,304,311,1
311,311,306,315,1
309,313,307,316,1
306,315,307,317,1
302,317,308,319,1
298,317,307,320,1
294,317,307,321,1
288,316,306,320,1
286,315,306,320,1
290,315,306,320,1
298,314,307,319,1
304,314,307,318,1
308,314,307,315,1
310,312,307,314,1
311,310,306,315,1
312,308,306,320,1
312,307,308,328,1
313,306,309,335,1
313,306,311,339,1
312,307,311,340,1
310,307,312,338,1
309,309,311,333,1
308,310,311,326,1
306,311,309,317,1
304,312,307,309,1
303,312,307,301,1
301,312,307,297,1
301,310,306,292,1
301,309,305,289,1
301,308,305,285,1
301,306,304,282,1
301,305,303,280,1
302,304,303,279,1
303,303,302,280,1
304,302,302,281,1
305,301,301,285,1
304,301,302,289,1
303,301,304,295,1
303,302,305,302,1
303,303,306,308,1
304,304,308,314,1
305,305,309,319,1
304,307,309,323,1
303,309,310,326,1
303,311,311,329,1
303,313,311,330,1
302,314,310,329,1
298,314,308,325,1
294,313,306,320,1
291,311,305,316,1
289,309,304,312,1
286,307,303,310,1
284,304,302,307,1
283,302,301,303,1
285,300,301,300,1
291,299,302,298,1
298,299,303,296,1
302,298,303,294,1
305,298,303,293,1
306,299,304,294,1
306,300,305,296,1
304,302,306,298,1
302,304,307,298,1
301,306,308,298,1
303,307,309,298,1
307,309,309,299,1
310,309,308,301,1
310,309,308,304,1
309,309,307,307,1
307,310,306,309,1
304,310,306,309,1
302,311,307,307,1
301,310,307,304,1
299,310,306,302,1
297,309,305,302,1
296,307,305,303,1
296,305,304,303,1
298,303,303,302,1
300,300,302,302,1
302,300,303,303,1
302,301,304,307,1
302,304,306,313,1
300,307,307,319,1
298,310,309,325,1
295,313,308,329,1
293,314,308,332,1
294,314,307,333,1
295,314,307,330,1
294,313,307,323,1
292,312,306,315,1
292,311,305,308,1
294,310,303,304,1
296,309,301,303,1
298,308,300,306,1
301,307,301,309,1
306,306,301,313,1
309,305,301,316,1
310,304,302,317,1
310,304,303,317,1
308,305,303,316,1
307,306,303,315,1
307,308,303,317,1
308,311,303,321,1
309,313,304,326,1
308,315,304,328,1
308,317,304,327,1
310,318,303,324,1
312,318,303,321,1
316,317,303,319,1
317,316,303,318,1
319,315,302,317,1
318,313,301,317,1
316,312,301,316,1
313,310,301,315,1
310,308,302,314,1
307,306,302,313,1
303,304,302,314,1
300,303,302,314,1
298,303,301,313,1
296,303,301,308,1
296,304,300,302,1
296,305,299,297,1
296,306,299,292,1
297,307,300,289,1
298,308,300,288,1
299,310,301,288,1
300,312,302,289,1
299,313,303,290,1
298,314,303,291,1
296,315,304,293,1
293,316,303,295,1
292,315,304,298,1
294,315,304,300,1
298,314,304,302,1
302,313,305,304,1
306,311,305,305,1
310,308,306,309,1
311,307,305,314,1
310,305,305,319,1
306,305,303,325,1
302,304,302,330,1
298,304,302,331,1
297,305,302,329,1
298,306,301,323,1
300,308,301,316,1
303,310,301,310,1
306,311,301,307,1
308,312,301,308,1
310,313,301,311,1
312,313,301,315,1
314,312,300,320,1
315,312,300,325,1
316,312,300,327,1
315,312,300,327,1
314,311,299,322,1
313,309,299,316,1
312,306,299,309,1
311,304,300,303,1
310,302,299,296,1
306,299,300,291,1
300,297,300,287,1
295,297,301,285,1
297,298,303,286,1
304,301,304,288,1
311,304,305,293,1
315,308,305,298,1
314,310,306,301,1
312,312,305,302,1
309,313,305,302,1
307,313,304,301,1
307,313,304,301,1
307,312,304,300,1
306,311,303,300,1
304,309,302,301,1
304,308,300,304,1
304,306,298,307,1
304,304,300,313,1
304,304,303,320,1
303,304,306,330,1
303,305,308,338,1
305,306,309,342,1
307,307,309,343,1
310,309,309,340,1
313,311,310,335,1
316,311,309,327,1
318,312,308,318,1
319,312,306,308,1
316,312,305,298,1
311,311,304,290,1
305,309,303,284,1
298,309,303,281,1
291,308,302,281,1
284,307,300,282,1
278,306,299,284,1
276,305,297,286,1
281,303,297,290,1
287,302,297,293,1
295,301,298,295,1
300,301,299,297,1
304,301,300,302,1
306,302,302,306,1
309,304,304,309,1
310,306,305,310,1
310,307,305,310,1
309,308,305,311,1
307,308,306,311,1
307,308,306,313,1
307,307,306,314,1
306,307,305,315,1
306,306,304,315,1
306,306,302,315,1
306,307,301,312,1
306,308,299,309,1
306,309,298,305,1
305,309,297,302,1
304,308,297,300,1
304,307,298,299,1
307,306,299,300,1
311,306,301,303,1
315,305,303,306,1
318,305,306,308,1
320,305,307,309,1
321,305,309,309,1
321,305,310,309,1
318,306,311,310,1
314,307,311,313,1
312,308,312,316,1
309,310,313,320,1
306,311,313,323,1
303,312,312,324,1
302,313,310,322,1
300,313,309,320,1
299,312,307,318,1
298,311,306,316,1
299,309,305,314,1
302,307,304,312,1
306,305,304,311,1
309,304,304,312,1
312,303,304,314,1
314,303,304,316,1
316,304,305,317,1
314,305,304,315,1
311,306,303,312,1
308,306,303,308,1
304,307,302,304,1
301,308,301,302,1
299,309,300,300,1
299,310,300,300,1
300,312,300,300,1
301,313,300,301,1
301,314,299,301,1
300,314,298,302,1
299,313,298,300,1
298,312,299,297,1
296,310,300,295,1
294,307,301,295,1
292,304,301,300,1
292,302,301,308,1
296,302,302,317,1
300,303,303,323,1
305,305,305,328,1
310,308,308,329,1
314,311,310,327,1
316,314,310,322,1
314,315,309,317,1
308,316,307,312,1
302,316,306,308,1
296,315,304,305,1
294,314,303,303,1
297,312,302,303,1
304,309,301,302,1
312,307,300,300,1
319,305,300,298,1
323,303,300,295,1
322,302,300,293,1
318,300,299,292,1
311,299,298,292,1
303,297,297,292,1
297,296,297,293,1
293,296,298,295,1
288,297,299,297,1
285,298,300,298,1
286,300,300,299,1
291,303,300,298,1
297,304,300,295,1
304,307,300,294,1
308,309,301,294,1
312,311,300,297,1
312,313,299,301,1
310,315,299,306,1
308,316,300,311,1
305,317,300,314,1
304,316,300,315,1
302,314,300,314,1
302,312,299,312,1
304,309,299,311,1
306,306,298,312,1
308,304,299,314,1
309,302,300,318,1
309,302,300,322,1
310,303,300,323,1
311,304,299,322,1
313,306,299,317,1
313,307,299,312,1
313,308,300,308,1
312,309,301,307,1
310,310,303,307,1
307,311,304,308,1
302,310,304,311,1
298,310,305,314,1
294,310,305,318,1
293,310,304,320,1
293,309,304,321,1
297,308,303,319,1
300,306,301,314,1
303,305,298,309,1
305,303,297,304,1
308,302,297,300,1
310,302,299,299,1
313,303,301,300,1
317,304,303,302,1
320,305,305,304,1
322,305,306,302,1
323,305,305,300,1
321,305,304,296,1
315,304,302,292,1
305,303,301,289,1
296,302,300,288,1
289,302,300,287,1
288,301,300,287,1
292,301,301,286,1
297,300,302,287,1
302,299,303,288,1
307,298,303,291,1
309,297,302,297,1
310,295,301,307,1
309,294,301,317,1
310,294,301,324,1
311,294,302,328,1
313,296,303,329,1
315,297,304,327,1
316,299,304,323,1
315,302,304,318,1
312,304,302,311,1
310,305,302,304,1
308,308,303,299,1
307,309,304,296,1
306,311,306,295,1
306,311,307,294,1
305,311,308,294,1
304,309,309,296,1
304,307,311,297,1
305,305,311,299,1
307,303,311,299,1
308,301,309,301,1
309,301,308,303,1
311,302,307,306,1
312,303,307,312,1
312,303,308,318,1
313,303,309,325,1
313,304,310,329,1
312,305,310,329,1
311,306,311,326,1
311,308,310,323,1
310,309,310,319,1
309,310,310,316,1
306,312,310,314,1
303,312,309,312,1
298,311,308,313,1
294,311,307,313,1
291,309,307,315,1
289,307,307,316,1
289,305,306,316,1
292,303,306,316,1
298,301,306,316,1
303,299,306,315,1
307,297,306,310,1
309,296,305,303,1
310,296,304,295,1
310,296,303,289,1
309,297,301,285,1
307,299,299,283,1
304,301,297,285,1
301,303,297,288,1
299,306,298,291,1
300,308,301,294,1
301,309,303,295,1
302,308,304,294,1
304,308,305,293,1
306,308,306,292,1
305,308,307,293,1
302,307,307,295,1
299,306,306,297,1
300,304,304,297,1
305,302,304,297,1
309,300,303,297,1
311,299,303,298,1
310,298,302,299,1
308,297,302,299,1
305,297,302,298,1
302,297,304,296,1
300,297,306,296,1
302,299,308,297,1
307,302,309,298,1
312,304,310,299,1
313,307,309,299,1
312,308,307,299,1
312,310,306,301,1
311,311,306,303,1
309,311,306,306,1
307,311,305,307,1
305,310,304,308,1
303,310,303,307,1
302,308,302,306,1
302,306,303,305,1
303,305,304,304,1
305,303,303,302,1
308,301,301,303,1
310,300,299,307,1
311,299,299,311,1
311,299,300,313,1
310,300,303,315,1
308,303,305,315,1
305,305,308,313,1
303,307,310,310,1
302,309,310,307,1
301,310,310,304,1
302,312,310,304,1
303,312,310,307,1
303,311,312,310,1
301,310,312,314,1
298,307,312,317,1
295,305,311,319,1
293,303,308,320,1
292,303,306,320,1
294,302,304,319,1
299,302,304,315,1
305,302,304,311,1
311,302,305,307,1
314,302,306,304,1
316,303,307,301,1
316,303,309,299,1
313,304,310,297,1
311,304,310,295,1
308,305,311,293,1
306,306,310,293,1
304,306,309,293,1
302,306,307,294,1
301,306,305,297,1
302,308,303,300,1
303,308,302,302,1
303,309,302,303,1
303,309,302,306,1
303,309,303,309,1
305,309,305,315,1
306,308,306,320,1
307,307,307,326,1
305,306,308,331,1
302,305,308,335,1
298,306,308,338,1
296,308,309,338,1
297,310,310,337,1
300,312,309,332,1
301,314,308,323,1
303,314,306,312,1
305,314,305,299,1
309,314,304,288,1
311,313,303,281,1
313,313,303,278,1
313,312,302,277,1
312,310,301,278,1
312,309,301,280,1
312,307,302,282,1
313,305,302,284,1
315,303,302,288,1
314,302,302,291,1
308,300,302,295,1
302,300,301,298,1
304,298,302,301,1
312,299,304,304,1
319,301,307,307,1
321,303,309,309,1
322,306,310,308,1
321,309,311,307,1
317,311,311,307,1
312,312,311,308,1
305,311,310,310,1
300,311,310,312,1
297,310,309,313,1
297,310,309,315,1
297,309,308,317,1
298,309,307,318,1
298,308,308,319,1
297,308,308,319,1
295,307,308,319,1
291,305,308,318,1
288,303,306,318,1
287,301,304,320,1
287,299,303,321,1
291,298,303,321,1
296,297,303,318,1
300,298,304,314,1
302,300,304,309,1
301,303,305,302,1
300,305,305,296,1
297,307,306,291,1
296,308,305,287,1
295,307,306,284,1
295,306,306,281,1
296,305,306,281,1
298,305,305,283,1
300,305,304,286,1
301,306,302,291,1
301,306,300,295,1
300,307,299,300,1
300,307,298,305,1
302,307,298,310,1
303,306,300,313,1
306,306,302,315,1
309,305,306,318,1
312,306,310,321,1
313,308,313,324,1
312,310,316,327,1
311,312,315,331,1
309,313,314,335,1
305,315,312,340,1
300,316,311,343,1
296,317,308,342,1
294,317,307,338,1
294,316,307,331,1
297,315,306,323,1
301,313,306,316,1
304,312,304,310,1
306,310,301,304,1
307,307,299,299,1
307,304,299,295,1
306,302,300,290,1
305,300,301,286,1
302,298,302,283,1
298,297,303,282,1
297,297,303,284,1
300,297,305,286,1
309,300,306,288,1
316,302,307,288,1
320,303,307,287,1
320,304,306,285,1
322,304,304,283,1
324,304,302,284,1
326,304,302,287,1
329,305,302,290,1
330,306,303,293,1
330,307,304,297,1
326,308,306,300,1
320,309,307,303,1
314,309,308,306,1
310,308,308,308,1
308,307,308,310,1
306,307,309,310,1
304,306,308,309,1
301,307,307,308,1
300,308,307,307,1
299,309,307,308,1
300,311,308,311,1
300,312,309,315,1
301,313,309,319,1
301,313,309,321,1
300,312,308,322,1
298,311,307,319,1
294,309,307,315,1
289,307,307,310,1
284,305,307,305,1
280,303,305,301,1
278,302,304,300,1
278,301,303,301,1
281,300,302,304,1
288,299,302,309,1
296,298,303,312,1
304,298,304,312,1
311,298,305,310,1
314,298,307,306,1
313,300,308,302,1
310,302,309,299,1
308,304,309,296,1
309,306,308,295,1
313,308,309,297,1
315,309,310,300,1
317,311,312,305,1
318,311,313,310,1
320,312,313,314,1
322,312,312,317,1
325,311,312,318,1
327,309,311,316,1
326,308,310,310,1
324,305,309,303,1
319,301,308,297,1
314,299,307,296,1
309,297,307,300,1
306,298,307,307,1
304,299,308,315,1
302,300,309,319,1
300,302,310,321,1
298,303,312,321,1
296,304,313,322,1
297,306,312,323,1
302,309,310,323,1
310,311,307,320,1
317,313,305,312,1
319,313,303,299,1
318,311,301,287,1
315,310,300,280,1
312,309,299,278,1
310,309,299,281,1
307,308,300,286,1
304,308,300,291,1
303,307,301,296,1
302,305,301,299,1
303,304,302,301,1
305,303,304,304,1
308,303,307,307,1
313,303,310,310,1
317,304,312,312,1
319,305,312,312,1
319,306,311,310,1
317,305,309,307,1
314,305,308,303,1
311,304,308,301,1
306,304,307,299,1
300,304,305,298,1
293,303,303,297,1
287,303,301,296,1
284,302,300,296,1
287,302,299,296,1
294,302,298,297,1
302,302,299,297,1
309,301,300,298,1
313,300,302,299,1
313,298,302,300,1
312,297,303,302,1
313,296,304,304,1
313,296,306,305,1
314,297,306,305,1
313,299,307,305,1
312,301,307,306,1
309,303,307,305,1
307,305,307,305,1
306,307,307,307,1
307,308,308,312,1
309,309,309,318,1
311,310,311,327,1
312,311,312,336,1
313,312,312,344,1
312,312,312,349,1
312,311,311,347,1
312,308,310,337,1
311,305,308,322,1
308,301,306,307,1
306,297,304,297,1
304,294,303,292,1
302,294,304,290,1
298,294,305,292,1
295,296,307,296,1
295,298,309,300,1
299,302,310,304,1
304,305,310,304,1
307,307,310,302,1
308,309,309,300,1
307,310,308,299,1
306,311,306,300,1
305,312,304,302,1
304,312,303,304,1
303,312,302,307,1
301,312,302,312,1
300,312,303,315,1
300,310,305,318,1
300,307,306,319,1
299,304,307,320,1
298,301,307,321,1
296,299,306,322,1
296,297,305,319,1
298,297,304,314,1
301,298,304,309,1
304,299,304,303,1
304,302,305,297,1
304,304,305,291,1
303,306,305,287,1
303,306,305,285,1
303,307,305,283,1
305,308,306,283,1
307,308,307,283,1
307,308,308,283,1
307,308,308,285,1
307,308,308,288,1
307,308,308,291,1
306,306,309,295,1
303,305,309,299,1
299,303,309,304,1
296,302,310,310,1
296,301,311,316,1
298,300,312,320,1
302,300,312,323,1
305,301,311,324,1
307,303,310,322,1
309,305,308,317,1
312,306,306,312,1
315,307,305,304,1
316,307,305,298,1
316,308,305,294,1
314,308,305,293,1
309,309,306,293,1
303,309,305,295,1
297,308,305,297,1
293,308,304,299,1
291,307,303,301,1
291,305,301,303,1
293,303,300,303,1
295,301,300,304,1
298,300,302,305,1
301,300,303,307,1
304,300,305,309,1
307,300,306,310,1
309,301,308,310,1
309,302,310,309,1
308,304,312,311,1
306,306,313,316,1
304,308,314,323,1
303,310,315,329,1
302,312,315,334,1
302,313,315,336,1
301,315,315,336,1
303,315,316,336,1
305,315,316,334,1
306,315,315,330,1
305,314,314,325,1
303,312,312,318,1
300,310,311,312,1
298,306,309,306,1
296,303,307,302,1
293,301,305,298,1
290,300,303,296,1
290,301,299,292,1
293,302,295,288,1
296,303,294,283,1
299,303,295,280,1
302,304,298,279,1
304,306,300,280,1
303,307,302,282,1
303,308,304,288,1
302,308,305,297,1
302,309,306,303,1
302,309,306,307,1
301,310,306,308,1
300,309,306,307,1
298,308,306,304,1
297,306,306,300,1
298,304,305,298,1
304,302,305,298,1
311,301,306,301,1
317,300,306,307,1
321,300,307,313,1
322,301,309,317,1
322,301,310,320,1
320,302,311,320,1
317,303,310,319,1
313,305,308,315,1
308,306,306,310,1
304,308,304,305,1
302,309,304,302,1
301,310,305,301,1
300,309,306,301,1
298,308,308,301,1
296,307,308,304,1
295,305,308,307,1
296,304,307,311,1
298,303,308,314,1
303,301,308,316,1
308,300,308,318,1
314,300,309,320,1
321,300,309,320,1
326,301,308,319,1
330,301,308,317,1
336,302,308,312,1
339,303,307,307,1
336,303,305,302,1
324,303,303,297,1
309,303,302,294,1
294,305,301,292,1
284,307,302,292,1
277,309,303,293,1
275,310,304,296,1
278,311,305,302,1
286,312,305,310,1
293,312,306,321,1
300,313,307,330,1
304,313,308,336,1
306,313,309,338,1
308,312,309,337,1
308,311,310,333,1
309,309,311,326,1
309,308,310,319,1
309,307,310,310,1
309,306,309,302,1
308,306,307,295,1
307,306,306,290,1
305,307,304,285,1
303,309,303,281,1
301,310,303,277,1
300,310,302,275,1
299,311,302,275,1
300,311,302,277,1
301,310,303,279,1
302,310,303,284,1
302,310,303,289,1
302,309,302,295,1
301,308,302,302,1
301,308,301,308,1
301,306,301,313,1
302,305,301,315,1
302,303,301,315,1
303,303,301,314,1
304,304,302,314,1
304,305,302,313,1
302,307,302,311,1
299,308,302,310,1
294,310,301,310,1
288,309,301,308,1
284,308,301,304,1
286,306,300,299,1
291,304,299,293,1
296,302,297,290,1
300,302,297,290,1
305,302,297,291,1
311,303,297,293,1
315,304,298,294,1
316,304,299,294,1
317,303,301,295,1
317,303,304,297,1
316,303,307,302,1
314,304,310,309,1
313,305,312,317,1
311,306,314,325,1
309,308,315,333,1
309,309,316,338,1
308,312,316,340,1
306,314,316,338,1
304,316,315,333,1
303,317,313,324,1
301,318,312,314,1
300,318,310,305,1
299,316,308,299,1
299,314,305,295,1
300,312,301,292,1
299,310,298,291,1
300,308,298,290,1
302,306,299,288,1
303,304,301,288,1
304,303,302,289,1
303,301,302,294,1
303,300,302,302,1
302,301,303,312,1
303,301,306,323,1
304,304,309,335,1
306,307,312,347,1
309,312,315,356,1
313,316,315,360,1
316,318,314,355,1
317,318,311,343,1
316,316,307,328,1
312,313,304,311,1
308,310,301,296,1
304,307,300,284,1
300,306,300,278,1
298,305,302,277,1
297,306,303,279,1
296,305,304,283,1
295,305,304,288,1
294,304,304,294,1
295,304,305,299,1
296,304,307,303,1
299,304,308,305,1
300,304,309,305,1
302,304,309,304,1
303,306,308,304,1
305,307,308,305,1
306,309,308,305,1
305,309,307,305,1
301,310,307,306,1
298,311,306,308,1
292,311,305,307,1
284,311,305,304,1
275,310,305,301,1
266,309,305,299,1
263,307,304,297,1
270,306,303,296,1
284,305,302,295,1
298,305,300,295,1
312,304,300,296,1
323,303,300,297,1
330,302,301,296,1
331,301,302,296,1
328,301,304,299,1
323,301,307,305,1
318,303,310,314,1
314,307,312,324,1
312,311,314,334,1
313,315,316,342,1
315,318,316,347,1
317,321,315,348,1
319,323,312,342,1
321,321,309,331,1
320,319,306,319,1
319,316,304,308,1
319,313,304,302,1
319,312,304,299,1
318,310,304,297,1
315,307,303,295,1
313,305,301,292,1
313,303,297,288,1
314,302,293,287,1
317,301,294,285,1
319,300,297,285,1
320,301,300,287,1
319,303,304,289,1
315,305,306,291,1
310,306,307,292,1
304,308,306,293,1
301,309,305,293,1
299,310,305,294,1
298,311,305,297,1
296,313,305,302,1
294,314,304,306,1
293,316,303,311,1
293,316,301,314,1
295,316,298,316,1
297,315,297,316,1
299,314,298,317,1
302,313,299,317,1
304,311,299,320,1
305,309,301,322,1
305,308,301,323,1
305,307,300,325,1
306,306,299,325,1
307,305,298,325,1
309,306,299,324,1
311,308,300,321,1
312,309,301,318,1
313,311,302,315,1
313,313,301,312,1
311,314,300,305,1
304,314,297,297,1
294,314,295,288,1
282,313,293,281,1
272,311,295,277,1
265,309,297,275,1
262,308,299,275,1
264,306,301,277,1
270,304,302,281,1
278,302,303,285,1
287,301,303,291,1
297,301,303,298,1
308,301,303,305,1
317,303,304,312,1
321,306,307,316,1
323,309,309,317,1
327,311,310,316,1
328,314,310,316,1
327,315,309,314,1
322,315,309,313,1
315,315,308,312,1
309,316,308,312,1
304,316,308,312,1
302,315,308,312,1
300,314,307,312,1
300,313,305,310,1
303,311,304,307,1
308,310,303,305,1
314,308,302,307,1
319,307,302,313,1
322,306,304,320,1
325,306,307,325,1
326,306,310,330,1
324,307,311,333,1
318,308,310,334,1
310,309,310,333,1
303,310,309,331,1
301,311,310,330,1
302,311,310,327,1
305,312,308,324,1
306,312,306,318,1
307,313,304,311,1
307,313,304,304,1
307,313,304,298,1
306,313,305,296,1
305,312,305,296,1
302,311,304,298,1
300,310,304,300,1
299,308,303,302,1
298,306,302,304,1
300,304,302,305,1
302,303,302,306,1
304,303,303,307,1
307,305,304,307,1
308,306,305,305,1
307,308,305,303,1
305,309,305,301,1
304,310,305,300,1
304,311,305,299,1
305,311,305,299,1
305,312,305,301,1
304,312,304,304,1
303,312,304,307,1
303,312,303,310,1
304,313,303,310,1
305,313,302,309,1
306,313,301,307,1
306,311,300,304,1
306,308,300,302,1
308,305,301,300,1
312,303,303,298,1
316,301,304,298,1
318,301,305,300,1
317,301,306,302,1
315,302,305,304,1
311,304,304,304,1
307,305,303,303,1
303,307,303,301,1
300,308,304,299,1
297,308,304,298,1
295,309,305,299,1
295,310,306,301,1
294,310,306,304,1
294,310,307,308,1
293,310,307,312,1
293,310,307,316,1
294,309,307,318,1
297,308,306,321,1
302,306,306,324,1
308,304,306,328,1
312,302,307,331,1
313,302,307,331,1
309,301,306,328,1
303,301,305,324,1
297,302,305,321,1
292,304,306,321,1
288,305,308,320,1
288,306,310,320,1
293,307,312,319,1
303,307,313,319,1
314,308,315,318,1
322,307,314,316,1
327,307,313,313,1
326,305,311,307,1
322,303,308,299,1
315,300,304,292,1
310,298,301,288,1
309,298,298,289,1
311,299,296,293,1
314,299,296,298,1
315,300,299,304,1
315,302,304,311,1
313,303,309,314,1
310,305,313,316,1
307,306,315,317,1
305,309,317,319,1
306,311,318,321,1
309,313,317,322,1
312,313,313,321,1
314,311,309,319,1
315,309,306,315,1
315,307,305,312,1
313,306,306,308,1
309,305,307,304,1
303,305,308,300,1
297,304,309,298,1
293,304,309,298,1
291,303,309,300,1
294,302,308,304,1
297,301,308,311,1
301,299,308,320,1
305,299,310,328,1
307,299,312,334,1
309,301,314,336,1
308,303,315,333,1
306,306,316,325,1
304,308,317,316,1
301,309,316,308,1
298,310,314,302,1
296,310,311,297,1
295,309,309,295,1
293,308,309,294,1
291,307,309,294,1
289,307,309,294,1
289,307,309,291,1
290,307,308,286,1
293,306,305,281,1
296,304,303,279,1
302,303,301,281,1
306,303,301,285,1
308,303,302,292,1
307,303,304,299,1
304,304,306,305,1
300,306,308,310,1
297,309,310,312,1
297,311,310,313,1
302,313,309,312,1
307,314,309,311,1
310,315,311,313,1
311,316,311,314,1
308,316,311,313,1
306,314,309,311,1
305,312,308,310,1
304,311,309,309,1
304,309,310,309,1
305,308,312,308,1
306,307,312,307,1
306,305,312,306,1
307,302,311,306,1
305,300,310,307,1
304,298,308,308,1
302,297,307,308,1
300,297,306,307,1
299,298,305,306,1
297,299,304,304,1
294,300,304,300,1
295,301,302,297,1
302,303,300,293,1
307,304,298,292,1
309,307,298,292,1
308,309,299,293,1
306,310,301,296,1
303,311,302,300,1
302,311,304,304,1
302,311,305,307,1
304,310,306,310,1
306,309,306,310,1
308,306,306,311,1
310,304,307,312,1
310,301,308,314,1
310,298,309,317,1
309,297,310,319,1
310,297,310,319,1
310,298,311,317,1
310,300,310,312,1
309,302,308,307,1
305,305,306,302,1
302,307,304,299,1
300,310,302,300,1
299,312,302,303,1
300,314,302,307,1
303,314,304,311,1
307,314,306,313,1
310,313,307,315,1
314,313,309,319,1
317,313,310,326,1
320,311,310,333,1
320,309,309,341,1
319,307,308,346,1
318,305,307,350,1
316,304,306,350,1
316,303,305,345,1
316,302,305,334,1
316,301,306,319,1
315,301,308,303,1
315,300,309,290,1
313,300,310,280,1
312,300,310,274,1
310,300,309,272,1
307,301,307,271,1
302,302,306,273,1
298,302,304,275,1
295,303,305,278,1
293,303,305,280,1
291,303,306,283,1
290,303,307,286,1
292,302,307,290,1
298,300,306,294,1
304,299,305,297,1
309,297,303,300,1
314,295,303,303,1
318,294,303,308,1
321,295,304,313,1
321,296,306,319,1
320,297,307,322,1
317,298,309,323,1
313,299,309,320,1
309,298,307,316,1
306,299,305,312,1
305,299,303,309,1
306,301,303,307,1
308,303,302,306,1
309,304,303,304,1
307,306,303,303,1
304,307,304,301,1
301,307,304,300,1
299,305,303,298,1
300,302,302,295,1
300,299,301,293,1
299,296,301,291,1
297,294,301,290,1
297,293,303,291,1
302,293,305,292,1
308,295,307,294,1
312,297,310,299,1
314,301,312,304,1
313,305,313,310,1
313,308,315,316,1
312,311,316,322,1
311,313,317,326,1
310,315,316,330,1
310,315,314,334,1
310,315,311,335,1
310,313,307,334,1
312,311,304,332,1
314,309,301,328,1
316,306,301,321,1
318,303,301,315,1
319,302,302,311,1
321,300,302,307,1
321,300,302,302,1
321,299,302,297,1
319,300,303,292,1
317,300,303,289,1
314,300,303,289,1
312,302,302,289,1
312,304,303,288,1
312,305,303,287,1
312,306,304,284,1
310,306,304,282,1
307,306,304,282,1
301,306,304,283,1
295,306,304,288,1
290,306,304,296,1
289,306,304,304,1
291,306,303,308,1
296,306,302,309,1
302,305,302,308,1
308,304,301,306,1
313,303,302,304,1
316,302,304,304,1
318,302,307,305,1
318,303,310,307,1
318,304,312,310,1
318,305,313,312,1
316,306,313,313,1
314,308,313,311,1
312,309,312,308,1
310,310,311,303,1
308,310,309,297,1
307,309,307,292,1
307,308,305,290,1
308,307,303,291,1
310,307,303,292,1
312,307,303,295,1
315,307,304,297,1
317,306,305,302,1
317,305,305,306,1
316,303,305,309,1
315,302,305,312,1
314,300,306,314,1
311,300,307,317,1
307,300,308,319,1
304,302,309,319,1
305,303,309,318,1
309,305,308,314,1
313,306,307,309,1
315,307,305,304,1
316,308,304,299,1
315,308,303,296,1
313,308,301,295,1
311,309,300,297,1
308,309,300,301,1
305,310,301,305,1
300,309,303,309,1
296,308,303,313,1
293,307,303,318,1
292,305,303,324,1
295,303,303,329,1
300,302,302,334,1
308,301,304,339,1
315,302,305,344,1
319,304,306,348,1
321,308,307,348,1
320,311,308,343,1
315,313,309,333,1
310,314,308,322,1
304,313,307,309,1
300,313,306,296,1
295,312,305,285,1
292,311,305,278,1
294,309,305,273,1
297,308,303,272,1
298,306,302,274,1
299,305,302,278,1
300,305,302,281,1
301,305,303,284,1
303,304,303,285,1
303,303,302,285,1
303,301,302,284,1
303,300,302,285,1
304,299,302,288,1
305,300,303,293,1
308,301,304,301,1
311,302,306,311,1
315,305,308,321,1
320,307,310,330,1
322,309,310,333,1
321,309,309,331,1
318,308,307,324,1
313,307,305,316,1
308,306,304,307,1
305,305,303,300,1
304,304,302,295,1
304,304,302,294,1
306,304,302,294,1
308,303,302,295,1
311,302,302,296,1
313,301,302,298,1
314,299,303,301,1
314,299,304,303,1
313,298,304,304,1
311,299,305,304,1
308,300,305,304,1
306,302,305,302,1
306,304,306,301,1
308,306,306,299,1
309,307,306,297,1
307,307,305,296,1
304,308,304,295,1
303,308,303,294,1
301,309,303,294,1
301,310,304,295,1
302,309,303,296,1
303,309,302,300,1
304,308,301,305,1
305,307,302,311,1
306,305,304,316,1
306,304,304,321,1
305,304,306,326,1
305,305,307,329,1
306,308,308,330,1
308,309,308,328,1
311,310,307,325,1
314,310,306,320,1
317,310,305,317,1
317,310,304,315,1
316,311,304,314,1
315,311,304,314,1
314,311,304,314,1
312,312,304,313,1
309,312,303,310,1
308,312,303,305,1
308,312,303,301,1
306,313,304,299,1
305,312,304,299,1
304,312,304,300,1
306,311,304,302,1
310,310,304,305,1
313,309,304,308,1
315,310,304,312,1
313,311,306,316,1
310,312,308,319,1
306,314,310,322,1
304,315,312,323,1
304,316,312,322,1
305,316,312,319,1
308,316,310,312,1
313,314,308,305,1
316,312,308,299,1
317,310,309,295,1
317,309,310,293,1
315,309,311,293,1
313,308,312,294,1
312,307,312,297,1
310,306,311,301,1
309,306,309,306,1
307,304,309,312,1
307,303,309,316,1
307,301,308,317,1
308,300,307,315,1
310,299,307,311,1
313,299,306,306,1
316,300,306,301,1
317,301,306,298,1
315,303,305,296,1
310,305,304,295,1
305,307,302,298,1
302,309,302,303,1
300,311,304,309,1
300,314,306,317,1
301,316,309,321,1
302,316,311,321,1
301,315,310,316,1
300,313,307,311,1
298,310,305,307,1
299,308,304,305,1
299,306,304,305,1
299,305,303,305,1
299,303,303,305,1
301,303,304,305,1
305,303,306,306,1
308,304,308,308,1
309,304,310,310,1
310,305,311,311,1
309,306,312,312,1
309,308,312,313,1
312,309,312,316,1
314,310,311,319,1
316,310,310,319,1
315,308,308,316,1
312,307,305,312,1
308,305,304,308,1
305,304,303,303,1
304,303,304,299,1
304,304,304,298,1
303,305,305,300,1
301,306,306,302,1
300,308,306,307,1
299,308,308,311,1
299,307,309,312,1
300,305,310,310,1
300,304,309,306,1
299,303,307,301,1
296,303,305,296,1
293,304,301,294,1
290,307,298,295,1
290,312,298,297,1
292,316,299,299,1
295,317,302,299,1
299,317,305,298,1
304,314,306,298,1
311,312,308,301,1
316,310,308,304,1
318,308,308,308,1
316,306,307,310,1
312,304,305,309,1
310,303,304,307,1
310,302,305,304,1
315,300,307,300,1
318,300,309,297,1
318,300,310,296,1
314,301,311,296,1
309,302,311,297,1
304,303,311,298,1
300,304,311,301,1
296,306,310,304,1
293,308,309,308,1
296,309,308,313,1
300,309,307,317,1
304,309,304,319,1
305,308,303,319,1
306,307,302,318,1
305,307,304,318,1
306,307,306,318,1
309,306,309,318,1
313,305,311,317,1
318,304,312,316,1
320,302,311,316,1
319,300,309,316,1
315,300,308,314,1
310,299,308,312,1
304,300,308,309,1
300,301,309,305,1
296,302,309,302,1
297,304,310,299,1
298,306,310,296,1
300,308,309,293,1
300,309,308,290,1
299,309,308,287,1
300,309,307,287,1
300,307,306,288,1
301,306,304,292,1
301,305,304,297,1
302,304,303,301,1
301,303,304,305,1
302,303,305,306,1
304,302,305,304,1
305,301,305,302,1
307,300,304,300,1
309,299,304,299,1
309,299,304,300,1
309,300,304,302,1
310,301,306,306,1
311,303,308,310,1
312,306,310,314,1
311,309,310,318,1
308,311,309,320,1
304,312,308,321,1
303,312,307,320,1
303,312,306,319,1
302,311,305,316,1
300,311,305,314,1
299,310,306,312,1
298,309,307,310,1
299,309,308,309,1
300,307,309,309,1
301,306,310,309,1
302,304,311,309,1
304,301,311,308,1
306,299,310,305,1
306,297,310,303,1
308,297,309,301,1
309,298,308,300,1
310,300,308,298,1
310,301,308,298,1
309,303,307,299,1
306,304,307,303,1
303,305,307,306,1
299,305,307,309,1
294,307,307,307,1
291,307,308,304,1
294,309,308,301,1
301,309,308,298,1
309,309,307,297,1
315,308,306,295,1
318,306,306,295,1
320,304,305,296,1
319,302,305,297,1
316,300,305,299,1
312,298,305,301,1
308,297,306,303,1
306,297,306,303,1
306,297,306,302,1
307,298,307,299,1
306,299,306,297,1
305,300,305,297,1
303,302,303,300,1
302,304,303,305,1
302,305,303,308,1
302,307,303,309,1
303,307,303,309,1
305,306,304,307,1
310,306,305,304,1
314,306,306,302,1
315,305,306,301,1
309,303,307,300,1
303,301,307,301,1
300,300,309,305,1
301,300,310,308,1
301,300,310,312,1
303,300,310,314,1
306,301,310,315,1
308,303,310,316,1
309,304,310,315,1
309,306,311,311,1
309,308,311,306,1
308,310,310,299,1
307,311,309,294,1
304,312,309,291,1
303,313,308,288,1
300,314,307,288,1
298,315,307,288,1
295,314,307,289,1
294,312,308,289,1
292,310,308,291,1
292,309,308,293,1
293,307,308,298,1
298,305,307,304,1
303,304,307,311,1
309,303,309,318,1
315,303,311,325,1
320,304,313,332,1
323,306,315,336,1
324,309,317,337,1
324,312,317,335,1
322,313,316,329,1
318,315,314,321,1
316,315,313,313,1
317,316,311,307,1
319,317,310,302,1
319,317,309,300,1
317,317,309,298,1
314,317,308,298,1
310,316,308,297,1
305,315,306,297,1
302,313,305,297,1
300,312,303,298,1
301,310,301,298,1
301,309,300,296,1
302,307,300,293,1
302,306,300,290,1
301,305,301,289,1
298,305,300,289,1
295,305,301,291,1
293,305,302,293,1
291,305,303,295,1
290,305,303,296,1
289,306,303,297,1
288,307,302,297,1
289,307,301,297,1
293,307,300,299,1
298,307,300,306,1
302,307,301,314,1
306,307,302,321,1
307,306,304,326,1
307,306,304,327,1
304,305,305,327,1
300,304,305,324,1
297,303,305,322,1
298,303,304,320,1
300,303,304,318,1
305,303,303,316,1
312,304,304,313,1
317,305,305,311,1
321,307,305,309,1
322,308,306,308,1
322,309,305,308,1
320,310,305,308,1
315,309,304,308,1
310,309,303,307,1
304,308,301,306,1
300,308,300,304,1
298,307,298,301,1
297,305,297,296,1
296,303,296,290,1
292,302,295,285,1
285,300,293,280,1
276,299,293,279,1
269,298,293,280,1
269,298,294,284,1
279,298,295,288,1
293,300,298,293,1
305,303,301,298,1
313,306,303,302,1
315,310,305,305,1
314,315,306,309,1
312,319,306,312,1
310,321,306,316,1
310,322,307,319,1
310,321,306,322,1
311,320,305,325,1
311,317,303,325,1
310,314,301,323,1
309,312,300,321,1
308,310,300,319,1
309,308,300,316,1
310,307,300,312,1
313,307,300,307,1
316,307,300,303,1
320,306,301,299,1
321,306,302,297,1
321,305,303,295,1
320,304,304,295,1
318,304,305,294,1
315,304,304,295,1
311,305,304,294,1
307,306,304,293,1
303,306,304,291,1
298,308,302,289,1
295,308,299,287,1
292,308,296,286,1
291,308,295,287,1
291,307,295,290,1
292,307,296,296,1
293,307,298,304,1
293,306,299,311,1
293,305,301,315,1
292,304,302,318,1
289,302,303,318,1
287,300,303,315,1
286,299,303,312,1
288,299,304,310,1
291,300,305,308,1
294,303,307,307,1
298,306,308,305,1
302,309,308,303,1
304,312,308,300,1
306,315,308,298,1
308,316,309,297,1
312,317,310,295,1
316,317,309,295,1
320,317,308,296,1
322,316,305,298,1
321,315,303,301,1
318,314,303,304,1
313,313,305,308,1
307,312,308,309,1
302,311,309,310,1
298,309,310,311,1
298,308,310,312,1
300,307,311,313,1
303,305,310,312,1
307,304,308,310,1
310,303,307,307,1
313,303,307,305,1
316,304,307,305,1
319,306,307,308,1
322,309,308,313,1
325,311,309,318,1
326,313,309,322,1
326,314,309,326,1
322,315,309,328,1
314,315,308,329,1
304,314,307,328,1
294,313,306,325,1
287,312,305,320,1
283,310,303,312,1
283,306,301,303,1
284,303,300,295,1
287,300,300,288,1
291,298,301,285,1
295,298,302,285,1
300,300,303,286,1
303,302,304,288,1
305,305,306,290,1
305,307,307,290,1
305,308,308,290,1
305,309,308,289,1
305,310,308,289,1
305,311,307,289,1
304,311,305,291,1
304,312,305,293,1
305,312,306,296,1
305,311,307,298,1
305,310,307,301,1
304,308,306,304,1
304,307,305,307,1
304,305,305,311,1
304,303,305,315,1
305,301,305,321,1
308,300,306,326,1
310,300,308,331,1
310,300,309,335,1
307,301,309,337,1
299,303,310,334,1
291,306,310,329,1
291,308,309,321,1
295,310,307,314,1
300,311,305,307,1
304,311,304,303,1
308,311,304,300,1
310,311,303,298,1
311,311,302,297,1
311,311,302,296,1
310,311,302,295,1
311,310,302,293,1
313,309,302,293,1
317,308,301,293,1
320,307,302,293,1
323,306,303,293,1
324,304,302,294,1
322,303,300,297,1
317,303,296,300,1
309,304,293,305,1
301,306,293,311,1
297,309,298,316,1
296,312,303,321,1
297,313,308,324,1
298,314,310,324,1
297,313,311,323,1
292,312,311,320,1
288,311,310,318,1
287,310,309,315,1
288,310,309,310,1
292,309,308,305,1
298,308,307,300,1
307,307,306,296,1
315,305,306,293,1
321,303,306,294,1
324,302,307,296,1
325,301,308,300,1
324,302,310,304,1
323,302,311,310,1
322,304,312,315,1
321,305,312,321,1
318,307,312,324,1
315,309,311,325,1
314,310,310,325,1
314,312,309,322,1
315,313,307,318,1
315,314,306,313,1
313,315,304,307,1
310,315,302,303,1
305,314,302,300,1
302,313,302,298,1
300,312,302,296,1
301,309,302,294,1
303,307,302,294,1
305,305,302,296,1
307,303,303,301,1
309,302,304,308,1
311,302,306,315,1
311,303,307,321,1
312,305,309,326,1
310,307,311,329,1
308,309,311,329,1
306,309,310,324,1
303,307,306,316,1
300,305,303,306,1
299,305,302,297,1
298,305,301,292,1
298,305,302,291,1
298,306,303,291,1
298,305,304,293,1
299,304,304,296,1
302,303,304,299,1
306,300,304,302,1
312,299,305,307,1
318,298,306,314,1
322,299,308,322,1
324,300,309,326,1
323,302,311,327,1
321,304,312,325,1
317,306,312,322,1
311,309,312,317,1
306,311,311,314,1
300,313,310,311,1
294,314,308,310,1
287,315,306,310,1
281,316,304,311,1
276,316,303,311,1
277,317,303,312,1
282,317,305,313,1
288,316,307,316,1
295,316,308,319,1
302,315,309,321,1
310,314,309,321,1
318,312,308,319,1
326,310,307,313,1
330,308,306,305,1
330,306,305,297,1
327,305,304,291,1
322,303,304,287,1
318,303,305,286,1
315,303,305,286,1
316,304,304,288,1
318,305,304,290,1
318,306,304,292,1
316,308,305,294,1
312,309,304,295,1
307,310,303,295,1
304,311,302,294,1
303,312,302,294,1
303,312,303,294,1
303,312,304,296,1
304,312,305,300,1
304,311,305,304,1
305,310,305,309,1
306,309,304,313,1
307,308,304,315,1
309,308,305,317,1
311,308,306,319,1
313,308,307,319,1
313,309,308,320,1
312,310,309,320,1
309,311,309,320,1
306,313,309,318,1
304,313,308,313,1
300,313,307,306,1
296,312,305,299,1
292,312,304,294,1
291,312,303,291,1
289,311,301,288,1
290,310,299,286,1
293,310,297,285,1
298,309,296,285,1
304,308,297,286,1
310,306,297,288,1
314,305,299,293,1
317,304,302,300,1
320,304,304,308,1
321,305,306,315,1
322,306,308,319,1
321,307,310,323,1
320,308,310,326,1
318,310,311,327,1
317,311,310,326,1
315,311,309,324,1
314,312,308,322,1
312,312,307,321,1
310,313,306,321,1
308,313,306,322,1
306,312,306,324,1
305,311,306,325,1
305,309,307,324,1
306,308,306,320,1
308,306,306,312,1
310,303,304,303,1
311,301,304,297,1
311,299,303,293,1
309,298,303,292,1
306,299,303,292,1
304,300,303,295,1
304,302,305,299,1
303,304,308,302,1
300,305,310,306,1
294,306,310,310,1
288,307,310,315,1
282,307,310,321,1
278,307,310,326,1
279,308,308,329,1
288,310,306,329,1
299,311,304,326,1
308,313,303,321,1
314,314,303,315,1
317,313,303,310,1
319,311,302,305,1
318,308,301,301,1
316,306,301,298,1
313,303,301,297,1
311,300,301,297,1
310,299,302,299,1
311,299,303,301,1
313,300,304,304,1
314,302,305,304,1
315,303,305,302,1
314,305,305,299,1
312,306,306,295,1
310,307,305,291,1
309,308,305,288,1
308,309,304,287,1
308,309,303,287,1
308,308,303,289,1
308,307,301,293,1
307,307,300,296,1
306,305,299,299,1
305,304,298,302,1
303,303,297,303,1
300,301,297,304,1
300,300,298,305,1
302,300,300,307,1
304,301,301,311,1
305,303,303,315,1
306,305,305,317,1
306,307,307,317,1
305,308,307,315,1
305,309,308,312,1
305,310,309,309,1
308,311,310,305,1
310,311,311,301,1
312,311,312,297,1
313,311,313,295,1
312,311,312,295,1
311,311,311,298,1
309,311,311,300,1
307,309,309,301,1
306,307,309,302,1
307,304,307,304,1
308,301,307,307,1
308,299,307,311,1
309,298,307,314,1
310,298,306,316,1
310,297,306,317,1
310,298,306,319,1
309,299,308,320,1
308,300,309,319,1
307,301,309,315,1
306,302,309,311,1
304,303,308,306,1
303,303,307,303,1
302,302,307,303,1
302,302,307,307,1
302,302,307,312,1
303,301,306,316,1
307,300,305,320,1
309,299,304,322,1
309,297,304,323,1
310,296,303,324,1
311,295,303,324,1
314,296,304,322,1
317,298,307,320,1
317,301,310,319,1
316,305,312,320,1
313,309,313,324,1
309,312,313,328,1
303,314,313,331,1
296,314,313,331,1
292,314,311,328,1
293,313,309,321,1
300,312,307,313,1
307,311,306,304,1
311,310,305,296,1
311,308,304,289,1
309,307,302,284,1
306,307,299,281,1
303,306,298,278,1
302,304,298,278,1
302,303,300,280,1
303,302,302,287,1
304,302,305,297,1
305,303,307,308,1
307,304,309,321,1
310,307,311,332,1
314,309,314,340,1
318,312,315,342,1
321,314,315,339,1
323,315,314,331,1
323,314,312,322,1
322,314,311,311,1
318,313,309,300,1
314,313,309,290,1
310,312,308,283,1
305,311,307,279,1
302,311,305,279,1
299,311,305,283,1
296,311,305,287,1
295,310,305,289,1
295,308,304,290,1
297,306,304,290,1
299,305,304,290,1
300,303,304,290,1
301,303,305,291,1
304,303,305,292,1
307,304,307,293,1
310,306,310,295,1
312,309,311,297,1
309,311,309,298,1
303,312,307,299,1
297,314,306,301,1
293,314,306,304,1
291,314,307,308,1
292,314,308,314,1
297,314,308,319,1
306,315,309,325,1
314,315,309,328,1
318,314,310,327,1
318,313,310,321,1
315,310,309,314,1
312,306,307,308,1
308,301,305,304,1
303,298,304,303,1
300,297,304,306,1
298,297,304,312,1
301,298,305,318,1
306,300,306,322,1
311,303,307,322,1
313,305,307,319,1
314,306,308,314,1
314,308,307,312,1
314,309,306,315,1
313,310,305,322,1
311,311,306,328,1
307,312,306,333,1
302,313,308,334,1
295,312,309,330,1
287,311,310,324,1
283,309,310,317,1
287,307,310,311,1
297,305,307,308,1
308,304,306,305,1
318,304,305,303,1
330,304,305,301,1
341,304,305,299,1
348,305,304,297,1
347,306,303,294,1
340,306,301,292,1
330,306,300,290,1
320,307,299,288,1
312,309,300,286,1
305,310,302,285,1
300,311,304,283,1
299,311,305,283,1
298,310,307,283,1
299,309,307,285,1
300,308,307,287,1
299,306,307,288,1
299,304,307,290,1
299,302,307,293,1
300,301,308,298,1
302,301,309,303,1
304,301,311,309,1
305,301,312,314,1
305,303,312,317,1
305,304,311,318,1
305,305,310,315,1
305,306,308,310,1
304,307,307,305,1
301,307,306,299,1
299,308,305,294,1
299,309,305,290,1
299,309,305,287,1
299,309,305,286,1
298,309,305,286,1
295,308,303,288,1
290,307,301,290,1
286,305,298,292,1
286,304,298,294,1
291,302,299,296,1
301,300,302,297,1
312,300,306,299,1
320,299,308,301,1
323,299,310,304,1
324,300,312,310,1
324,302,315,318,1
322,305,316,328,1
320,310,317,336,1
319,313,317,342,1
317,315,315,343,1
315,317,314,343,1
312,318,313,341,1
309,317,312,337,1
307,314,312,334,1
306,311,310,331,1
306,307,309,332,1
306,304,308,332,1
305,301,306,331,1
303,298,304,326,1
302,296,302,319,1
300,296,301,311,1
300,296,300,300,1
303,296,300,288,1
308,296,301,279,1
311,296,303,273,1
313,297,304,273,1
312,299,305,276,1
310,301,307,280,1
310,303,307,283,1
311,304,307,284,1
311,304,307,283,1
312,305,306,281,1
313,305,305,279,1
313,305,304,277,1
313,305,303,277,1
311,304,302,278,1
307,303,301,280,1
301,302,300,283,1
296,302,300,288,1
297,301,300,293,1
303,301,300,300,1
309,300,301,308,1
312,301,303,315,1
314,302,306,322,1
314,304,308,327,1
313,305,311,330,1
311,307,312,329,1
307,309,313,327,1
304,309,313,324,1
302,310,313,321,1
300,310,312,318,1
298,310,311,314,1
297,309,311,309,1
296,309,310,305,1
296,308,310,303,1
296,307,310,303,1
296,306,308,302,1
296,305,306,300,1
296,302,304,299,1
297,300,302,300,1
299,299,301,303,1
301,298,302,307,1
302,297,303,312,1
303,298,305,316,1
304,299,307,319,1
306,301,309,320,1
307,303,310,321,1
308,305,311,321,1
309,307,311,321,1
307,309,310,322,1
305,310,309,322,1
302,311,308,322,1
300,311,306,320,1
299,311,304,320,1
300,311,303,320,1
302,311,303,320,1
303,311,304,317,1
303,310,305,314,1
303,308,306,312,1
304,306,307,314,1
306,305,307,318,1
308,304,308,322,1
311,303,309,325,1
313,303,310,325,1
313,302,311,323,1
312,304,311,320,1
309,305,311,317,1
306,306,311,313,1
307,305,311,309,1
313,304,310,304,1
318,303,309,301,1
320,301,308,301,1
319,300,306,303,1
315,300,305,303,1
310,300,304,303,1
306,301,303,301,1
303,302,302,299,1
302,302,300,296,1
302,302,300,293,1
304,301,300,291,1
307,300,299,292,1
309,300,300,293,1
312,299,301,296,1
314,300,304,300,1
316,302,307,305,1
316,305,310,311,1
313,307,312,316,1
309,309,311,318,1
304,309,310,317,1
302,309,309,314,1
300,308,309,310,1
299,307,309,307,1
296,306,309,306,1
292,305,309,307,1
289,304,308,308,1
286,304,305,311,1
286,304,302,314,1
288,303,300,315,1
289,301,300,316,1
290,298,302,317,1
291,297,303,318,1
296,296,305,320,1
303,296,308,321,1
308,296,311,320,1
310,297,312,319,1
311,298,312,316,1
313,300,312,313,1
316,303,311,310,1
320,304,310,307,1
324,305,307,304,1
325,304,304,302,1
324,304,302,300,1
322,302,301,300,1
319,302,300,301,1
316,302,301,303,1
313,303,302,307,1
311,303,303,311,1
310,304,304,314,1
311,304,304,317,1
312,304,304,318,1
312,303,303,319,1
310,302,303,321,1
306,302,303,323,1
300,303,304,326,1
293,304,304,327,1
288,305,305,327,1
283,307,306,325,1
280,308,307,322,1
282,309,308,318,1
287,309,309,314,1
291,308,308,310,1
297,306,308,305,1
303,304,307,301,1
310,303,307,299,1
316,303,308,298,1
320,303,309,299,1
320,304,310,301,1
317,304,310,302,1
314,303,310,302,1
312,301,307,302,1
310,300,305,302,1
310,298,304,301,1
311,297,303,301,1
313,296,304,302,1
314,296,304,305,1
313,298,305,308,1
310,299,305,311,1
307,302,306,313,1
305,304,307,314,1
304,305,308,316,1
303,306,308,316,1
302,306,307,318,1
301,305,307,318,1
303,304,306,318,1
306,303,305,316,1
312,302,304,314,1
318,302,303,310,1
321,301,302,307,1
319,301,302,304,1
315,300,302,302,1
310,299,302,301,1
306,298,303,300,1
303,298,303,299,1
299,298,303,300,1
296,298,303,306,1
294,299,305,315,1
293,301,308,325,1
293,304,310,334,1
292,307,312,338,1
292,310,312,338,1
292,311,312,334,1
292,312,312,327,1
292,311,310,316,1
290,310,308,304,1
287,308,306,294,1
286,306,303,285,1
288,304,300,280,1
291,302,297,279,1
294,300,294,279,1
295,298,294,280,1
295,296,296,282,1
294,295,299,287,1
293,295,300,292,1
295,296,300,298,1
298,298,302,304,1
301,300,304,310,1
305,304,308,314,1
307,306,310,317,1
307,309,312,318,1
306,311,312,319,1
303,312,312,320,1
301,313,311,321,1
299,313,309,320,1
301,313,307,318,1
304,312,305,315,1
307,311,304,312,1
309,311,305,309,1
308,311,304,305,1
307,310,304,302,1
305,309,304,299,1
304,308,304,299,1
304,307,304,300,1
305,306,305,303,1
307,306,306,308,1
310,306,307,312,1
312,306,308,317,1
313,307,310,321,1
312,307,309,325,1
309,308,308,328,1
309,310,307,331,1
309,311,307,331,1
310,312,306,329,1
309,312,304,324,1
308,311,303,318,1
306,310,302,310,1
303,309,303,303,1
301,307,303,298,1
298,306,303,293,1
297,305,303,288,1
295,304,304,286,1
293,302,304,285,1
292,302,305,287,1
293,302,306,290,1
298,302,306,295,1
303,303,306,300,1
306,304,306,304,1
308,306,307,306,1
308,308,307,307,1
307,310,308,305,1
307,312,307,303,1
308,313,308,302,1
308,313,308,304,1
307,314,309,308,1
306,314,309,312,1
304,315,310,315,1
302,315,310,318,1
301,315,310,320,1
301,314,308,320,1
300,312,304,318,1
300,309,301,313,1
300,305,299,307,1
302,302,298,305,1
304,300,299,303,1
307,298,300,301,1
308,296,301,299,1
309,295,302,299,1
310,296,304,300,1
313,298,306,303,1
316,301,307,306,1
315,303,307,310,1
312,305,307,317,1
308,308,308,324,1
305,311,308,329,1
303,313,309,330,1
300,313,310,329,1
295,313,310,329,1
292,312,310,329,1
294,311,309,329,1
300,311,309,329,1
306,310,309,329,1
310,310,309,328,1
313,310,308,325,1
313,309,308,318,1
312,308,307,309,1
309,307,305,302,1
305,306,305,297,1
301,307,304,293,1
297,307,304,289,1
294,307,305,287,1
294,307,306,287,1
297,307,308,288,1
300,307,310,291,1
303,308,310,295,1
303,308,310,299,1
301,308,309,303,1
297,308,307,307,1
293,308,305,309,1
290,307,304,311,1
291,306,304,312,1
296,305,304,313,1
304,303,305,314,1
311,301,306,313,1
314,300,308,312,1
315,299,310,310,1
315,300,312,308,1
316,300,313,307,1
318,302,314,308,1
321,304,314,311,1
322,307,314,313,1
322,308,314,314,1
320,309,313,314,1
316,310,311,311,1
311,310,310,309,1
307,311,309,307,1
304,311,308,306,1
301,311,307,305,1
298,311,306,303,1
295,310,304,302,1
294,309,302,300,1
297,307,301,301,1
303,306,301,303,1
309,305,302,306,1
315,305,305,310,1
320,306,308,314,1
323,308,311,317,1
324,310,312,318,1
323,312,313,318,1
321,314,312,318,1
317,314,311,318,1
310,315,310,319,1
302,316,309,320,1
296,316,307,321,1
294,316,306,320,1
295,317,306,319,1
297,317,307,317,1
300,315,307,313,1
302,314,306,309,1
302,311,304,306,1
303,309,303,306,1
304,307,302,308,1
306,306,302,314,1
309,306,303,322,1
310,307,304,330,1
310,307,305,338,1
310,308,305,342,1
308,309,305,342,1
306,311,306,338,1
305,312,308,335,1
303,314,310,332,1
302,315,311,330,1
301,316,312,329,1
301,317,311,327,1
301,316,310,322,1
302,315,308,314,1
301,314,307,304,1
299,311,305,293,1
297,308,303,281,1
296,305,301,272,1
298,302,298,265,1
299,299,297,260,1
299,297,297,260,1
298,296,297,263,1
298,296,298,268,1
301,296,300,274,1
306,298,302,280,1
311,300,305,286,1
316,303,307,291,1
318,306,308,294,1
318,308,309,296,1
317,310,308,298,1
315,312,307,300,1
310,313,305,302,1
306,314,304,304,1
303,315,304,306,1
304,315,305,306,1
306,314,305,306,1
309,314,305,307,1
312,313,304,309,1
314,312,303,311,1
314,310,301,312,1
314,308,301,313,1
314,306,302,314,1
315,305,304,315,1
316,304,306,315,1
317,305,308,315,1
315,306,310,314,1
313,308,311,312,1
309,310,311,309,1
305,311,311,306,1
301,312,310,303,1
298,312,309,301,1
297,313,309,300,1
300,313,308,300,1
305,313,307,300,1
309,312,306,301,1
312,311,306,302,1
313,310,306,304,1
314,310,305,306,1
314,308,305,309,1
314,307,306,313,1
313,306,306,319,1
313,305,308,327,1
313,305,309,336,1
313,306,311,346,1
314,307,312,355,1
316,308,313,362,1
317,309,313,366,1
318,311,313,366,1
317,312,313,360,1
313,312,312,350,1
307,312,311,338,1
301,311,309,328,1
296,310,307,320,1
293,308,304,313,1
291,307,303,307,1
291,306,301,302,1
292,305,300,297,1
294,305,299,293,1
295,304,298,290,1
297,304,297,288,1
298,303,297,287,1
299,302,297,286,1
300,300,298,286,1
301,300,300,287,1
301,299,302,292,1
301,300,304,300,1
303,301,306,308,1
304,303,308,313,1
306,304,308,314,1
309,304,309,311,1
314,305,310,307,1
319,305,309,301,1
322,305,308,295,1
322,304,307,290,1
319,304,307,287,1
316,303,307,287,1
312,302,308,289,1
309,300,309,293,1
307,298,310,297,1
306,297,310,301,1
306,296,311,304,1
305,296,311,306,1
304,296,310,306,1
306,298,308,304,1
308,300,307,302,1
308,303,306,300,1
307,305,304,300,1
304,307,301,299,1
303,309,299,300,1
305,310,299,301,1
307,311,302,304,1
308,312,305,306,1
307,312,306,307,1
306,311,307,308,1
304,310,307,308,1
303,309,308,307,1
301,308,308,305,1
302,307,308,302,1
305,305,308,299,1
309,304,307,296,1
313,302,307,297,1
314,301,307,300,1
314,301,307,306,1
315,301,308,312,1
314,302,309,317,1
313,303,311,321,1
312,305,312,324,1
312,307,313,328,1
312,309,314,332,1
311,311,314,335,1
309,312,315,337,1
306,313,315,338,1
303,314,315,337,1
299,315,314,334,1
296,315,313,331,1
297,313,311,327,1
301,311,309,324,1
307,309,307,322,1
312,306,305,320,1
314,304,304,319,1
315,301,303,316,1
315,300,303,314,1
315,299,305,312,1
313,300,307,312,1
311,301,310,313,1
310,304,312,313,1
309,306,314,313,1
308,308,315,310,1
307,308,314,303,1
305,308,312,296,1
302,307,310,289,1
299,306,307,285,1
298,305,305,282,1
298,305,303,282,1
299,305,302,284,1
300,306,302,288,1
302,307,302,292,1
302,308,303,296,1
303,308,304,301,1
306,307,304,305,1
309,307,304,309,1
312,307,304,312,1
313,308,305,316,1
314,308,306,319,1
314,309,309,320,1
314,311,312,321,1
314,313,313,322,1
314,315,314,323,1
313,317,314,322,1
313,319,314,322,1
313,320,312,323,1
314,319,311,326,1
314,318,309,327,1
316,316,307,325,1
317,314,305,319,1
317,310,303,311,1
315,307,301,302,1
313,303,300,294,1
312,300,300,289,1
312,299,299,287,1
312,299,298,288,1
312,300,297,290,1
310,301,297,292,1
306,303,297,296,1
301,305,299,300,1
296,308,301,305,1
291,311,304,309,1
286,315,304,313,1
280,317,305,318,1
276,320,307,324,1
277,321,308,328,1
280,322,310,331,1
284,323,310,331,1
286,322,310,330,1
288,321,308,326,1
293,319,306,322,1
299,318,304,317,1
303,315,303,313,1
305,312,303,311,1
305,310,303,310,1
305,308,303,310,1
305,308,305,312,1
306,308,307,313,1
305,309,309,314,1
303,309,310,313,1
302,310,310,310,1
302,310,309,306,1
306,310,308,301,1
309,310,308,297,1
310,310,307,294,1
310,310,307,293,1
309,310,306,295,1
308,310,306,297,1
307,310,306,300,1
306,310,306,301,1
305,310,305,301,1
305,310,304,301,1
305,309,302,301,1
306,307,302,302,1
307,306,303,305,1
308,305,304,307,1
309,303,304,308,1
307,302,304,308,1
303,300,305,307,1
298,300,305,305,1
294,300,305,304,1
292,302,305,306,1
296,303,306,308,1
302,305,307,311,1
310,306,308,314,1
317,308,308,314,1
322,308,307,311,1
324,309,306,305,1
323,310,305,300,1
320,310,304,297,1
317,309,303,296,1
314,309,304,296,1
312,308,303,296,1
311,308,303,296,1
311,307,303,297,1
312,307,304,299,1
314,307,304,301,1
318,306,304,304,1
324,305,304,308,1
331,304,305,312,1
334,304,306,315,1
331,303,306,317,1
323,304,306,318,1
313,305,305,317,1
304,306,304,315,1
299,307,304,313,1
298,309,304,312,1
301,310,305,313,1
303,312,306,316,1
306,314,305,318,1
307,315,305,320,1
306,315,305,319,1
305,314,304,316,1
304,312,303,312,1
305,309,302,308,1
307,307,301,306,1
309,306,301,306,1
310,305,301,307,1
307,305,302,310,1
303,306,304,312,1
298,308,306,312,1
294,310,307,312,1
291,311,308,313,1
289,311,308,315,1
289,310,307,318,1
291,310,306,321,1
296,309,306,322,1
300,307,306,321,1
302,306,306,320,1
302,305,306,318,1
300,305,306,315,1
299,305,305,311,1
298,304,305,305,1
299,303,304,298,1
298,300,303,290,1
297,298,301,284,1
294,296,300,281,1
290,295,299,281,1
287,295,298,283,1
287,295,298,287,1
293,296,298,291,1
299,298,299,295,1
303,300,300,298,1
310,302,302,301,1
318,304,304,302,1
324,306,306,304,1
325,307,307,305,1
321,309,307,305,1
315,309,306,304,1
311,309,305,303,1
308,308,304,303,1
307,307,304,303,1
309,306,303,302,1
312,304,302,301,1
316,303,301,302,1
320,301,300,304,1
323,300,300,306,1
324,301,300,309,1
325,302,301,314,1
325,304,303,320,1
324,306,305,329,1
323,309,308,337,1
320,311,309,342,1
316,312,310,343,1
314,312,309,340,1
313,311,308,335,1
315,310,307,327,1
317,308,307,319,1
319,305,307,310,1
319,302,307,303,1
316,300,306,297,1
313,298,306,292,1
311,297,305,289,1
312,295,303,288,1
314,294,302,287,1
318,294,301,289,1
319,294,300,291,1
316,295,300,294,1
311,298,301,299,1
307,301,302,304,1
304,303,303,308,1
302,305,302,312,1
300,307,300,314,1
298,308,300,314,1
294,309,301,314,1
292,309,303,313,1
290,309,304,313,1
289,310,306,312,1
287,310,306,315,1
287,311,307,322,1
289,310,308,330,1
295,310,308,336,1
301,308,309,340,1
307,306,308,339,1
313,304,308,334,1
317,303,309,326,1
321,302,309,315,1
324,301,310,305,1
324,301,310,296,1
321,300,310,289,1
316,300,309,286,1
312,301,308,284,1
306,301,306,283,1
301,303,305,283,1
295,305,304,284,1
291,305,304,284,1
287,306,304,284,1
286,306,304,284,1
287,307,303,285,1
291,307,302,285,1
294,307,302,285,1
296,307,302,287,1
297,306,302,289,1
297,305,302,291,1
295,304,301,295,1
293,302,300,299,1
292,301,301,302,1
295,301,302,305,1
302,301,303,311,1
308,303,305,317,1
314,306,305,322,1
318,309,306,327,1
321,312,307,329,1
321,314,308,330,1
321,316,308,329,1
320,316,308,328,1
318,315,307,326,1
316,313,307,325,1
314,311,306,322,1
312,309,306,319,1
311,308,305,315,1
314,307,304,309,1
318,306,302,302,1
321,304,301,294,1
323,301,299,288,1
322,297,297,282,1
317,294,296,279,1
309,293,295,279,1
304,292,296,283,1
303,294,300,289,1
307,297,305,297,1
310,302,310,305,1
312,306,313,314,1
312,310,315,322,1
312,314,316,327,1
310,316,316,331,1
309,318,315,332,1
306,317,313,330,1
303,315,310,327,1
300,312,308,323,1
298,310,308,318,1
299,308,307,314,1
301,307,306,310,1
304,306,304,306,1
306,304,303,303,1
307,302,301,302,1
309,300,299,301,1
310,299,297,298,1
311,297,297,295,1
311,297,299,294,1
310,298,301,295,1
308,300,304,299,1
306,302,306,304,1
304,303,307,309,1
303,305,308,312,1
303,305,307,313,1
303,305,305,310,1
304,306,305,306,1
305,306,305,302,1
306,307,305,297,1
303,307,305,294,1
299,307,306,293,1
294,306,305,293,1
292,304,305,295,1
294,302,304,296,1
298,301,304,298,1
302,299,303,298,1
304,299,303,299,1
305,299,303,299,1
304,300,303,299,1
304,301,304,299,1
302,302,304,300,1
300,304,304,301,1
299,305,304,302,1
301,306,303,303,1
306,307,303,304,1
309,308,303,305,1
309,308,304,306,1
306,308,304,307,1
302,308,304,308,1
299,308,304,309,1
299,308,303,310,1
299,307,302,311,1
302,306,302,312,1
304,304,301,312,1
306,303,301,313,1
308,302,300,313,1
311,301,300,314,1
314,300,300,315,1
319,300,301,315,1
326,302,302,315,1
332,304,304,316,1
335,306,305,316,1
333,307,306,317,1
328,307,306,319,1
318,308,305,321,1
308,309,305,323,1
300,310,305,324,1
294,310,307,323,1
289,309,307,322,1
288,307,307,323,1
293,305,305,325,1
297,303,303,328,1
300,301,301,328,1
302,298,299,326,1
305,297,299,322,1
309,296,299,319,1
313,296,300,315,1
314,297,301,312,1
312,299,303,309,1
309,301,303,309,1
305,303,304,308,1
302,306,303,307,1
299,307,303,304,1
298,308,304,301,1
298,308,305,298,1
298,308,307,295,1
298,308,308,295,1
297,309,307,296,1
296,310,307,298,1
296,310,305,299,1
295,310,303,298,1
295,309,301,295,1
295,307,300,291,1
296,306,301,288,1
298,304,302,287,1
301,303,303,289,1
303,303,303,296,1
303,304,305,305,1
302,304,307,312,1
302,305,309,317,1
303,307,310,318,1
306,309,311,316,1
311,310,310,311,1
314,310,309,304,1
317,310,309,297,1
316,310,308,292,1
312,309,308,289,1
308,309,307,288,1
304,310,307,287,1
300,310,306,287,1
295,309,305,287,1
292,307,303,286,1
290,304,302,286,1
291,302,302,285,1
293,300,302,285,1
298,299,302,286,1
302,300,303,290,1
306,301,305,294,1
308,302,306,299,1
308,304,307,304,1
305,306,308,310,1
302,309,309,315,1
300,311,309,320,1
299,313,311,323,1
300,315,311,324,1
304,317,312,325,1
310,317,312,324,1
314,317,311,324,1
316,316,311,323,1
318,314,310,322,1
319,312,309,321,1
320,311,308,320,1
319,309,307,320,1
317,308,307,319,1
314,307,307,315,1
309,305,306,311,1
305,304,305,309,1
304,304,304,309,1
305,304,304,311,1
307,305,304,313,1
309,307,303,315,1
310,309,302,315,1
309,311,302,313,1
308,312,302,308,1
304,312,302,302,1
301,312,301,298,1
298,312,300,296,1
296,313,300,295,1
294,313,300,296,1
290,313,299,297,1
290,313,300,300,1
296,313,302,305,1
304,314,304,310,1
311,313,305,314,1
314,312,307,316,1
313,310,307,316,1
311,308,308,315,1
308,307,309,312,1
305,308,310,308,1
303,309,310,305,1
300,311,309,304,1
299,313,308,305,1
298,314,308,306,1
299,316,308,307,1
301,317,308,307,1
304,318,309,307,1
306,318,308,308,1
307,317,307,308,1
308,316,307,311,1
307,314,308,318,1
307,312,308,326,1
306,310,307,333,1
304,308,307,337,1
303,307,308,338,1
302,305,308,335,1
302,305,309,328,1
302,305,309,318,1
301,305,309,307,1
299,305,309,297,1
295,305,308,290,1
291,306,307,286,1
290,307,305,285,1
290,308,303,285,1
293,308,302,287,1
297,308,301,288,1
304,308,300,291,1
311,309,302,294,1
317,310,303,299,1
320,311,306,306,1
321,312,309,314,1
319,314,311,323,1
314,314,311,331,1
308,313,311,337,1
304,312,310,342,1
300,310,310,344,1
298,309,310,344,1
295,308,311,341,1
294,308,311,334,1
295,308,312,327,1
300,309,312,320,1
307,311,313,315,1
312,313,312,311,1
315,315,311,307,1
317,316,310,306,1
318,316,311,307,1
317,316,311,311,1
314,316,311,314,1
309,314,310,314,1
303,312,307,310,1
297,308,304,305,1
293,305,302,300,1
292,302,301,296,1
297,300,302,294,1
305,298,303,294,1
313,297,306,295,1
316,296,307,297,1
318,296,308,299,1
318,297,309,303,1
317,299,309,309,1
314,302,310,316,1
312,305,311,323,1
309,309,312,329,1
307,311,313,333,1
305,314,313,335,1
304,316,313,335,1
303,316,312,332,1
303,316,311,325,1
303,314,309,317,1
303,312,306,307,1
302,310,302,297,1
299,307,300,289,1
298,305,299,285,1
300,303,299,285,1
301,302,301,288,1
302,301,303,295,1
303,301,305,306,1
303,301,307,317,1
304,302,309,326,1
303,303,311,333,1
302,304,312,336,1
301,305,312,336,1
301,306,310,331,1
300,307,309,324,1
297,307,308,316,1
294,307,307,308,1
296,305,305,302,1
301,303,303,297,1
308,302,299,294,1
312,300,295,292,1
315,299,293,291,1
316,298,294,291,1
317,298,297,293,1
316,297,300,297,1
314,296,304,302,1
311,296,308,308,1
308,297,310,314,1
305,297,310,318,1
303,298,310,319,1
302,299,310,317,1
300,299,309,313,1
302,300,308,310,1
307,301,308,306,1
311,301,307,303,1
313,301,307,299,1
313,302,306,297,1
313,302,305,294,1
312,303,304,290,1
312,304,304,287,1
311,305,305,286,1
310,306,306,285,1
308,306,306,286,1
305,306,307,289,1
304,306,307,293,1
305,306,307,299,1
307,305,308,304,1
309,304,308,309,1
309,304,309,315,1
310,304,310,323,1
310,305,311,333,1
311,306,312,342,1
311,308,314,349,1
311,310,314,350,1
310,311,314,347,1
309,312,312,340,1
308,312,311,329,1
306,311,309,316,1
305,309,308,304,1
302,308,306,294,1
299,306,304,289,1
297,305,302,288,1
297,304,300,290,1
301,303,299,292,1
305,303,300,294,1
307,302,301,296,1
309,302,302,298,1
310,302,304,299,1
311,302,304,299,1
311,302,304,300,1
312,303,305,301,1
313,304,308,305,1
314,306,310,313,1
313,308,310,322,1
310,309,310,328,1
307,310,309,330,1
305,311,307,330,1
303,311,305,327,1
302,311,303,322,1
301,311,300,317,1
301,311,297,311,1
302,310,296,306,1
302,309,296,302,1
300,308,296,300,1
299,307,296,299,1
301,306,295,299,1
303,305,294,298,1
308,304,292,298,1
312,303,292,298,1
316,302,293,301,1
320,302,297,305,1
320,304,300,310,1
317,305,303,315,1
312,306,305,316,1
306,307,306,316,1
302,308,306,314,1
301,309,306,310,1
300,309,305,305,1
301,308,304,300,1
300,307,304,297,1
298,305,303,294,1
293,304,302,291,1
290,302,301,291,1
294,301,300,290,1
302,299,299,291,1
310,296,298,291,1
317,294,297,293,1
321,293,297,295,1
324,293,298,298,1
325,294,300,302,1
324,296,302,304,1
321,299,304,306,1
316,301,305,307,1
310,303,305,308,1
302,305,305,310,1
296,306,305,314,1
294,309,306,320,1
294,312,308,324,1
295,314,308,326,1
296,315,309,325,1
297,316,308,325,1
299,315,306,325,1
300,313,305,326,1
302,311,304,329,1
303,309,303,332,1
304,307,301,331,1
304,304,300,327,1
303,301,299,319,1
303,298,299,311,1
304,297,299,305,1
305,296,299,302,1
305,297,300,303,1
304,299,302,308,1
302,301,304,314,1
299,304,306,319,1
296,306,307,323,1
295,308,308,326,1
297,310,308,327,1
300,311,308,326,1
302,312,307,323,1
302,311,307,320,1
303,311,307,315,1
302,310,306,310,1
302,308,305,305,1
302,307,304,302,1
305,304,302,301,1
309,302,301,303,1
314,299,301,306,1
320,298,302,308,1
324,299,304,308,1
326,300,306,306,1
325,302,307,302,1
323,305,308,300,1
320,308,309,298,1
316,310,309,296,1
311,312,310,295,1
308,313,311,294,1
306,313,312,293,1
304,313,311,291,1
302,312,311,289,1
301,311,310,290,1
301,310,308,292,1
302,309,307,295,1
304,308,306,300,1
304,306,305,305,1
305,303,304,310,1
305,302,304,312,1
303,300,305,312,1
298,300,305,311,1
296,300,305,308,1
297,301,306,303,1
297,302,305,297,1
295,304,304,289,1
290,305,302,284,1
287,306,300,281,1
288,307,299,279,1
292,308,296,278,1
298,307,295,277,1
304,307,296,277,1
309,307,298,281,1
315,307,300,286,1
318,307,302,291,1
319,306,303,296,1
319,304,303,300,1
316,303,301,302,1
311,302,301,303,1
306,302,301,307,1
301,301,302,313,1
299,302,304,321,1
299,304,306,330,1
301,306,308,339,1
303,309,311,346,1
306,312,313,351,1
310,315,314,351,1
312,317,314,345,1
312,317,312,335,1
309,318,310,326,1
305,317,309,319,1
301,316,308,315,1
298,314,307,311,1
295,312,306,309,1
293,310,305,306,1
291,307,304,303,1
290,305,302,302,1
290,302,301,301,1
292,300,299,300,1
295,299,298,299,1
299,298,297,299,1
303,298,298,299,1
308,298,300,299,1
313,299,302,296,1
318,301,303,293,1
322,302,304,291,1
323,304,304,290,1
321,305,305,291,1
317,307,306,293,1
312,308,306,297,1
306,311,306,301,1
301,313,306,306,1
298,314,307,310,1
297,315,308,313,1
296,314,309,316,1
296,312,309,318,1
296,310,310,324,1
296,308,310,329,1
296,306,309,334,1
296,304,308,337,1
297,303,308,336,1
297,301,307,333,1
299,300,308,327,1
301,300,310,321,1
304,300,311,315,1
305,302,311,310,1
306,304,311,307,1
304,306,310,304,1
301,308,309,301,1
298,308,307,298,1
296,308,305,295,1
293,308,303,293,1
294,307,303,290,1
300,306,302,287,1
308,306,303,285,1
314,306,304,282,1
315,305,303,280,1
314,304,301,279,1
311,303,300,280,1
310,302,299,285,1
311,302,300,292,1
313,303,302,301,1
313,304,304,314,1
312,305,306,326,1
309,307,308,336,1
305,310,309,340,1
302,311,308,337,1
