302,311,310,310,1
301,311,310,309,1
300,311,309,308,1
300,310,309,306,1
299,309,309,305,1
299,308,308,305,1
299,307,308,304,1
300,305,307,303,1
300,303,307,302,1
300,301,306,301,1
301,300,305,300,1
302,298,305,301,1
303,298,306,301,1
304,298,307,303,1
305,299,308,305,1
305,300,310,306,1
305,302,310,308,1
304,304,311,308,1
303,305,310,308,1
301,307,310,307,1
300,308,309,305,1
300,309,308,304,1
300,309,306,304,1
300,309,305,303,1
299,309,304,304,1
299,309,304,304,1
298,309,303,304,1
298,309,302,303,1
298,308,301,303,1
298,306,300,303,1
299,304,300,303,1
300,302,301,303,1
301,302,301,303,1
302,302,303,305,1
303,302,304,306,1
304,304,306,308,1
304,306,307,308,1
303,308,307,309,1
302,310,307,307,1
302,311,307,306,1
302,311,307,305,1
302,312,307,304,1
302,312,307,303,1
302,312,306,302,1
303,311,306,302,1
303,311,306,301,1
304,310,305,300,1
304,309,304,299,1
305,308,304,298,1
306,306,303,298,1
307,304,302,298,1
309,302,302,298,1
310,301,303,299,1
311,301,304,301,1
312,302,305,303,1
312,303,306,304,1
312,305,307,306,1
311,308,307,306,1
309,309,307,307,1
308,310,306,306,1
307,311,306,305,1
306,311,306,304,1
305,311,305,303,1
305,311,305,302,1
305,310,304,301,1
305,309,305,300,1
305,307,304,299,1
305,305,304,299,1
305,304,304,299,1
305,302,304,299,1
306,301,304,300,1
308,300,304,302,1
309,299,304,303,1
310,299,305,304,1
310,301,305,306,1
310,302,306,308,1
310,304,307,308,1
308,306,308,308,1
307,309,308,307,1
306,310,309,306,1
305,311,309,305,1
304,312,308,303,1
304,311,308,302,1
304,311,308,300,1
304,310,308,299,1
305,308,308,298,1
305,307,308,298,1
306,305,308,297,1
307,302,307,296,1
307,300,307,297,1
308,298,306,298,1
309,297,306,300,1
309,297,307,302,1
310,298,307,304,1
311,299,308,306,1
311,301,309,308,1
310,303,311,309,1
309,305,312,309,1
308,306,314,308,1
307,307,314,307,1
306,307,314,305,1
305,307,314,304,1
304,308,313,303,1
304,308,312,302,1
305,308,312,301,1
304,308,311,300,1
304,307,310,300,1
304,305,309,299,1
303,304,308,299,1
303,303,307,299,1
304,301,307,299,1
305,300,308,301,1
306,299,309,303,1
308,300,310,305,1
309,301,311,308,1
310,302,312,311,1
310,303,312,312,1
309,304,312,313,1
308,305,311,313,1
306,306,310,311,1
305,306,309,310,1
304,307,309,309,1
304,307,309,307,1
303,306,309,305,1
303,306,308,303,1
303,306,308,303,1
303,305,308,302,1
304,304,307,301,1
304,303,306,300,1
305,301,306,299,1
306,299,306,300,1
307,298,305,301,1
309,298,306,302,1
310,298,307,304,1
311,299,308,305,1
311,300,309,307,1
311,303,310,309,1
311,305,310,309,1
310,308,309,309,1
308,310,309,308,1
307,311,309,308,1
306,312,308,307,1
306,312,307,307,1
306,312,307,306,1
306,311,306,306,1
306,311,306,306,1
306,310,305,305,1
306,309,305,304,1
306,307,305,303,1
307,305,305,303,1
308,304,305,304,1
309,302,306,305,1
311,301,307,306,1
312,301,308,308,1
313,302,310,310,1
314,303,311,312,1
314,305,312,313,1
313,307,312,313,1
312,309,312,313,1
310,311,312,312,1
309,311,311,310,1
308,312,310,309,1
308,312,309,307,1
308,311,309,306,1
307,310,308,305,1
307,309,308,304,1
306,308,307,303,1
306,307,307,302,1
306,305,306,302,1
307,303,306,302,1
307,302,306,302,1
309,301,306,303,1
310,300,306,304,1
311,301,306,305,1
312,302,307,307,1
312,303,307,309,1
312,305,308,309,1
311,307,309,309,1
310,309,309,307,1
309,310,309,306,1
307,311,308,304,1
305,311,308,303,1
303,311,307,302,1
303,311,306,301,1
302,310,306,300,1
302,309,306,299,1
303,309,306,299,1
303,308,305,298,1
304,307,305,298,1
304,305,305,297,1
305,304,305,298,1
305,302,306,299,1
307,301,306,301,1
308,302,307,303,1
309,302,308,305,1
309,304,310,307,1
309,306,310,309,1
308,309,310,310,1
307,311,310,310,1
306,312,309,309,1
305,313,308,309,1
304,313,307,309,1
303,313,306,308,1
303,312,305,308,1
302,312,305,307,1
301,311,305,307,1
301,311,305,307,1
301,309,304,306,1
300,308,304,305,1
301,306,303,304,1
301,304,303,304,1
303,304,303,304,1
304,303,304,306,1
305,303,305,307,1
305,304,306,309,1
306,305,307,311,1
306,308,308,311,1
305,310,309,312,1
304,312,308,311,1
303,314,307,310,1
302,314,306,309,1
300,315,306,307,1
300,315,305,306,1
299,315,304,305,1
300,315,303,304,1
300,314,302,304,1
300,314,301,303,1
300,313,301,303,1
300,311,301,303,1
300,310,301,303,1
301,308,301,303,1
303,307,302,304,1
304,306,303,305,1
305,306,304,307,1
306,307,305,308,1
307,309,306,310,1
307,311,308,311,1
307,313,308,311,1
306,315,307,311,1
305,316,307,310,1
304,316,306,309,1
302,316,306,308,1
301,316,305,307,1
300,316,305,306,1
300,315,305,305,1
299,315,305,305,1
299,314,304,304,1
298,313,304,304,1
299,311,303,303,1
299,309,303,303,1
301,307,303,303,1
302,305,303,305,1
303,305,304,307,1
304,305,306,309,1
305,305,307,311,1
306,307,309,312,1
305,309,309,313,1
304,310,309,313,1
303,312,308,313,1
302,313,307,312,1
301,313,306,311,1
301,313,305,310,1
300,312,304,310,1
300,311,303,310,1
299,310,303,309,1
299,308,302,309,1
299,307,301,308,1
298,305,300,307,1
298,304,299,306,1
298,302,298,305,1
299,300,298,306,1
300,298,298,306,1
301,298,298,308,1
301,298,300,309,1
302,299,301,310,1
303,302,303,311,1
303,304,304,312,1
303,307,305,312,1
302,310,306,311,1
301,311,306,310,1
300,312,305,309,1
299,312,305,308,1
298,312,305,307,1
298,311,304,305,1
297,311,304,304,1
297,310,303,304,1
297,308,302,303,1
297,307,301,302,1
298,305,300,301,1
298,303,299,300,1
299,301,299,300,1
299,300,299,301,1
301,299,301,303,1
302,298,302,304,1
303,299,304,306,1
304,301,306,308,1
304,303,306,310,1
304,306,306,310,1
303,308,306,310,1
303,310,305,309,1
302,311,305,308,1
301,312,305,308,1
301,312,304,307,1
301,311,304,306,1
302,311,304,305,1
303,310,304,305,1
303,309,304,305,1
303,308,303,304,1
304,306,302,304,1
304,304,302,304,1
306,302,302,305,1
307,301,303,306,1
308,301,304,307,1
310,301,305,309,1
311,302,306,311,1
311,304,308,312,1
311,305,309,313,1
310,308,310,312,1
309,309,310,312,1
308,311,310,311,1
306,312,309,310,1
305,312,308,309,1
305,311,307,309,1
304,311,307,308,1
304,311,306,307,1
304,310,306,306,1
305,309,306,304,1
305,307,306,303,1
305,306,305,302,1
305,304,304,303,1
306,303,304,303,1
306,301,305,304,1
307,301,305,305,1
308,301,306,306,1
309,302,306,307,1
310,303,306,309,1
310,305,307,310,1
310,307,307,310,1
309,308,307,310,1
308,309,306,309,1
306,309,306,308,1
305,310,306,306,1
304,311,305,305,1
303,311,305,304,1
302,311,304,303,1
302,311,305,303,1
302,310,305,302,1
301,309,304,301,1
302,307,304,301,1
302,305,304,302,1
303,303,304,303,1
305,301,305,304,1
306,300,306,305,1
307,299,307,307,1
308,300,308,309,1
308,300,309,310,1
309,301,311,311,1
308,303,311,311,1
307,305,311,311,1
306,307,311,310,1
306,308,310,309,1
305,309,309,308,1
304,309,309,307,1
304,309,308,306,1
304,309,308,305,1
303,308,307,304,1
303,307,307,304,1
303,306,306,302,1
303,304,305,301,1
304,302,304,300,1
305,301,304,300,1
305,300,304,301,1
306,299,305,302,1
306,299,306,304,1
307,300,308,306,1
307,301,309,307,1
307,302,310,309,1
307,304,310,309,1
306,305,309,308,1
306,306,308,307,1
305,307,307,305,1
304,308,306,304,1
303,308,305,304,1
302,308,304,302,1
302,307,304,301,1
303,307,303,300,1
302,306,303,298,1
302,305,302,297,1
303,303,301,297,1
303,301,300,296,1
305,299,300,296,1
307,298,300,297,1
309,297,300,299,1
310,297,301,300,1
312,298,303,302,1
312,299,304,303,1
312,302,306,304,1
312,304,306,304,1
312,306,307,304,1
311,308,307,303,1
310,309,307,303,1
309,309,307,302,1
308,310,307,302,1
307,309,306,301,1
306,309,305,300,1
306,309,305,300,1
305,309,305,299,1
306,308,304,298,1
306,307,303,298,1
307,305,303,298,1
308,303,302,298,1
309,302,303,299,1
311,302,303,300,1
312,302,304,302,1
313,303,306,304,1
313,304,307,306,1
312,306,308,308,1
311,307,308,309,1
310,309,308,310,1
308,310,308,309,1
308,311,307,308,1
307,311,307,308,1
306,311,306,307,1
305,311,306,307,1
306,310,306,306,1
306,310,305,306,1
306,308,305,305,1
307,307,304,304,1
307,305,303,303,1
308,303,303,303,1
308,302,303,304,1
309,300,304,305,1
310,299,305,306,1
311,299,307,308,1
312,300,308,309,1
312,303,309,310,1
312,305,309,312,1
311,307,309,312,1
309,309,309,312,1
308,310,308,310,1
307,310,308,309,1
306,311,307,308,1
305,310,306,308,1
305,309,306,307,1
305,308,305,306,1
304,307,305,305,1
304,306,304,304,1
304,305,304,303,1
304,303,303,302,1
305,302,303,302,1
305,301,302,302,1
306,300,302,303,1
308,300,302,304,1
310,301,303,307,1
311,301,304,308,1
311,302,305,310,1
311,304,306,311,1
311,305,307,311,1
310,306,308,311,1
309,307,307,311,1
308,308,306,311,1
307,308,305,310,1
306,308,304,309,1
305,308,304,309,1
303,308,304,308,1
303,307,303,307,1
303,306,304,306,1
304,304,304,306,1
305,302,304,305,1
305,300,303,305,1
305,298,303,305,1
307,297,303,306,1
308,296,303,308,1
309,296,304,309,1
310,296,305,311,1
311,298,307,313,1
311,300,307,315,1
310,303,308,315,1
310,305,308,314,1
308,307,308,313,1
306,308,308,311,1
305,309,307,310,1
304,309,307,309,1
304,309,306,308,1
303,308,305,307,1
303,307,304,306,1
302,306,304,305,1
302,305,303,305,1
302,303,303,304,1
303,301,302,303,1
303,300,302,303,1
304,298,303,303,1
306,298,303,304,1
307,298,304,306,1
308,298,305,308,1
308,300,306,310,1
308,303,307,311,1
308,305,307,311,1
307,307,308,311,1
306,308,307,310,1
305,308,306,308,1
304,308,306,307,1
303,307,305,305,1
303,306,304,305,1
303,306,304,304,1
303,305,304,304,1
303,304,304,304,1
303,303,303,303,1
303,302,303,303,1
304,300,302,302,1
305,298,302,303,1
307,297,302,305,1
309,297,303,307,1
310,298,304,309,1
310,299,305,311,1
310,301,307,312,1
310,303,308,314,1
309,305,308,314,1
307,306,308,313,1
306,308,307,312,1
305,309,306,311,1
304,310,305,309,1
304,310,304,308,1
304,311,303,307,1
304,311,303,306,1
304,311,302,306,1
304,310,302,306,1
304,309,301,305,1
304,308,301,305,1
304,307,301,304,1
305,305,301,304,1
306,304,301,304,1
308,304,302,305,1
309,303,303,307,1
310,304,304,309,1
311,305,306,310,1
311,307,307,312,1
310,309,308,311,1
309,310,308,311,1
308,311,307,310,1
307,312,307,309,1
306,312,307,307,1
306,312,306,306,1
305,312,305,305,1
305,311,304,304,1
304,311,304,304,1
305,310,303,303,1
305,309,303,302,1
305,308,302,301,1
306,306,301,301,1
307,304,301,301,1
308,303,302,303,1
309,302,302,304,1
311,301,303,306,1
312,302,304,307,1
313,303,305,309,1
313,305,306,309,1
313,306,306,309,1
312,307,307,309,1
311,309,306,309,1
310,310,306,309,1
310,310,306,309,1
309,310,305,308,1
308,310,305,307,1
308,309,305,306,1
307,309,305,305,1
307,308,304,304,1
307,307,304,303,1
308,305,303,302,1
308,303,302,301,1
309,302,302,300,1
310,300,302,301,1
312,299,303,302,1
313,299,304,305,1
314,299,304,306,1
313,301,305,309,1
313,302,306,311,1
312,304,306,312,1
310,306,306,312,1
308,307,306,311,1
307,308,306,310,1
306,308,306,308,1
304,308,306,306,1
303,308,306,305,1
302,307,306,304,1
303,307,306,304,1
304,306,306,304,1
305,305,305,304,1
306,304,305,304,1
307,302,305,304,1
308,300,305,306,1
310,299,306,307,1
311,299,307,308,1
312,299,308,309,1
312,301,308,311,1
312,304,310,313,1
312,307,310,314,1
311,309,311,314,1
310,311,310,313,1
308,313,310,312,1
308,314,309,310,1
307,315,308,310,1
306,315,309,309,1
305,315,309,308,1
305,315,309,308,1
305,314,309,307,1
305,314,309,306,1
305,312,309,306,1
305,310,309,305,1
306,309,309,304,1
307,306,309,304,1
308,305,309,305,1
309,304,310,306,1
311,303,311,308,1
313,304,312,310,1
314,305,312,312,1
314,306,313,314,1
314,308,313,314,1
313,309,313,314,1
311,310,312,313,1
310,310,311,312,1
309,311,310,311,1
309,310,310,311,1
309,310,310,310,1
309,309,310,310,1
310,308,309,310,1
310,307,309,310,1
310,306,308,309,1
310,304,307,308,1
311,302,307,308,1
312,301,307,308,1
313,299,307,308,1
314,298,307,309,1
315,298,308,309,1
316,300,310,310,1
315,302,311,311,1
315,305,312,312,1
314,307,313,312,1
312,310,312,311,1
311,311,312,310,1
310,312,312,308,1
309,312,311,307,1
308,313,310,306,1
308,313,309,305,1
308,313,309,305,1
307,313,309,304,1
307,312,309,304,1
307,311,308,304,1
307,309,307,303,1
307,307,306,303,1
308,306,304,303,1
308,305,304,304,1
310,304,304,306,1
311,305,305,308,1
311,306,306,310,1
311,307,307,311,1
311,310,307,313,1
310,312,308,314,1
309,313,308,313,1
308,315,308,312,1
307,316,308,310,1
306,316,308,308,1
304,317,308,306,1
304,316,307,305,1
303,315,307,305,1
303,314,306,304,1
303,312,306,303,1
303,310,305,302,1
303,307,305,301,1
304,305,304,301,1
304,303,304,301,1
306,301,304,302,1
307,301,304,302,1
308,301,305,304,1
309,302,305,305,1
309,304,306,307,1
309,306,308,308,1
309,309,308,308,1
308,311,308,308,1
307,313,308,307,1
305,314,308,307,1
305,314,307,306,1
305,314,307,305,1
305,313,306,304,1
305,312,305,304,1
306,311,304,303,1
306,310,303,302,1
306,309,303,301,1
307,307,302,301,1
307,305,302,301,1
307,304,302,301,1
307,302,302,302,1
308,302,304,304,1
310,302,305,306,1
310,303,307,308,1
311,304,308,309,1
311,306,309,311,1
310,308,310,312,1
309,310,310,312,1
309,311,311,313,1
307,312,311,312,1
306,313,311,312,1
305,313,311,312,1
304,312,311,311,1
303,311,311,310,1
302,311,311,309,1
301,310,311,307,1
300,309,311,305,1
301,307,310,305,1
301,306,309,304,1
302,305,309,304,1
304,304,309,305,1
306,303,309,307,1
307,303,309,309,1
309,304,309,311,1
310,305,310,313,1
311,307,311,315,1
311,309,312,315,1
310,310,311,315,1
309,312,310,313,1
308,313,309,312,1
307,313,309,310,1
305,313,308,309,1
304,312,308,307,1
303,311,308,306,1
302,310,307,304,1
302,309,306,303,1
302,308,305,302,1
302,307,304,302,1
303,306,303,301,1
303,304,302,302,1
304,302,302,304,1
305,301,303,305,1
307,300,304,308,1
308,300,305,310,1
309,301,306,311,1
309,303,307,313,1
309,305,307,313,1
308,306,307,312,1
307,307,307,311,1
306,309,307,310,1
305,309,306,309,1
303,310,306,308,1
302,310,305,308,1
302,310,305,307,1
302,309,304,307,1
303,309,304,306,1
304,308,304,305,1
304,307,304,305,1
305,306,304,305,1
307,304,303,305,1
309,303,303,306,1
310,302,304,307,1
311,302,305,308,1
312,302,306,310,1
312,303,307,312,1
312,304,308,313,1
312,305,308,313,1
311,306,307,313,1
310,308,307,313,1
309,309,306,312,1
308,311,305,312,1
308,311,305,311,1
308,312,305,310,1
308,312,304,310,1
308,311,304,311,1
307,310,304,310,1
307,309,303,310,1
308,307,302,309,1
308,305,301,308,1
309,303,301,308,1
310,301,301,308,1
311,300,301,310,1
313,299,302,312,1
313,300,304,314,1
313,301,306,315,1
313,302,308,316,1
312,304,309,316,1
311,306,309,315,1
310,307,308,314,1
310,308,308,313,1
309,309,308,311,1
308,309,307,310,1
307,308,306,309,1
306,308,305,308,1
306,308,305,308,1
306,307,304,307,1
306,306,304,306,1
306,304,304,305,1
306,302,304,305,1
306,300,304,305,1
307,299,304,306,1
308,298,305,307,1
309,298,306,308,1
310,299,306,310,1
311,301,307,312,1
311,303,308,312,1
311,305,309,312,1
310,307,309,312,1
309,308,308,311,1
308,309,307,310,1
308,309,307,309,1
307,308,306,308,1
307,308,306,307,1
307,306,305,306,1
307,305,305,306,1
307,304,305,306,1
307,302,304,306,1
308,301,304,306,1
308,299,304,306,1
309,297,304,307,1
310,296,305,307,1
311,295,306,308,1
312,295,307,309,1
313,296,308,311,1
313,298,309,312,1
313,300,309,314,1
313,302,309,314,1
312,304,309,313,1
311,306,308,312,1
310,308,307,311,1
309,309,306,309,1
309,309,305,308,1
308,309,305,307,1
308,308,304,305,1
307,308,303,304,1
307,308,303,304,1
307,307,302,304,1
307,306,302,303,1
308,304,302,303,1
308,302,302,304,1
309,301,303,304,1
310,300,303,306,1
311,300,304,307,1
312,301,305,309,1
312,304,306,311,1
312,307,307,312,1
312,310,308,313,1
311,312,308,312,1
310,314,308,311,1
309,315,307,310,1
308,316,307,308,1
307,315,307,308,1
307,315,307,307,1
307,313,307,306,1
307,312,307,305,1
307,310,306,305,1
307,308,306,305,1
307,306,305,304,1
308,304,305,304,1
310,302,305,304,1
311,301,305,305,1
312,300,305,307,1
313,300,305,308,1
314,301,306,310,1
315,302,306,311,1
314,304,307,312,1
313,306,308,312,1
312,308,308,311,1
311,310,308,310,1
310,311,309,309,1
309,311,308,308,1
308,311,307,307,1
307,311,306,306,1
306,310,305,305,1
305,309,305,304,1
306,307,304,303,1
306,306,304,302,1
307,304,304,302,1
307,302,303,301,1
308,300,303,301,1
309,298,303,302,1
310,297,303,303,1
311,298,304,304,1
312,298,305,305,1
313,300,307,307,1
312,302,308,308,1
311,304,309,309,1
309,307,309,308,1
308,308,308,307,1
307,309,307,306,1
306,310,307,306,1
305,310,306,305,1
305,310,305,305,1
304,310,305,305,1
304,310,304,305,1
304,309,304,304,1
303,308,304,304,1
303,307,303,303,1
303,306,303,303,1
304,305,303,303,1
305,304,304,304,1
307,304,305,306,1
309,304,306,308,1
310,304,307,310,1
311,305,308,312,1
311,307,308,313,1
310,309,308,313,1
309,310,307,312,1
308,311,307,311,1
306,312,306,310,1
306,312,306,309,1
305,312,305,308,1
304,312,305,307,1
303,310,304,306,1
303,310,303,306,1
302,309,303,305,1
301,308,303,304,1
301,306,302,302,1
301,304,301,301,1
301,301,300,302,1
302,299,300,302,1
304,297,300,304,1
305,297,301,306,1
307,297,303,308,1
308,298,304,309,1
308,300,306,311,1
307,302,307,310,1
305,304,307,309,1
304,306,307,308,1
304,307,306,308,1
303,308,306,307,1
303,307,306,306,1
302,307,307,305,1
302,307,306,304,1
303,306,306,304,1
303,305,305,304,1
304,304,304,302,1
304,302,303,301,1
305,300,303,299,1
305,298,302,299,1
305,297,302,299,1
306,296,303,300,1
307,296,304,302,1
307,297,306,304,1
307,299,307,306,1
307,301,308,307,1
306,304,308,308,1
305,306,309,307,1
303,307,308,307,1
302,308,308,306,1
300,309,307,305,1
298,309,306,305,1
298,309,306,305,1
297,308,305,305,1
298,308,305,305,1
298,307,305,305,1
298,305,304,304,1
299,303,304,303,1
299,301,304,302,1
301,299,304,302,1
302,297,305,303,1
304,296,306,304,1
305,297,307,306,1
306,297,309,308,1
306,298,311,309,1
306,300,312,310,1
306,302,312,310,1
305,304,311,309,1
304,305,311,308,1
303,306,310,307,1
302,306,309,306,1
302,306,308,304,1
302,306,307,304,1
301,305,306,303,1
301,305,306,302,1
302,305,304,302,1
303,304,303,301,1
303,303,303,300,1
304,302,302,300,1
305,301,302,300,1
307,300,302,301,1
308,299,303,302,1
309,298,305,304,1
309,299,306,306,1
310,300,307,308,1
309,302,308,310,1
308,305,308,311,1
307,308,308,311,1
306,309,307,310,1
305,311,306,309,1
304,312,306,308,1
304,312,306,307,1
303,312,307,305,1
303,312,306,304,1
303,311,306,303,1
303,310,306,302,1
303,310,306,301,1
303,308,304,300,1
303,307,304,300,1
304,304,303,300,1
306,302,303,301,1
307,301,304,302,1
308,300,305,304,1
309,300,306,306,1
310,301,307,307,1
310,303,309,308,1
309,304,310,309,1
308,306,310,308,1
308,308,310,307,1
306,309,311,305,1
305,309,310,303,1
304,310,310,302,1
304,310,309,299,1
305,310,309,298,1
305,310,308,297,1
305,310,308,297,1
305,310,308,296,1
306,309,307,296,1
306,308,306,296,1
306,306,306,297,1
307,305,305,298,1
307,304,306,301,1
307,303,306,303,1
307,303,307,305,1
307,304,307,307,1
307,306,308,308,1
306,308,309,309,1
305,309,309,308,1
304,310,309,308,1
302,311,308,307,1
301,311,307,306,1
300,312,306,305,1
300,312,305,305,1
300,311,305,304,1
300,310,304,303,1
301,309,304,302,1
301,308,304,301,1
301,307,304,299,1
303,306,303,299,1
304,304,303,299,1
306,302,303,301,1
307,301,304,303,1
307,301,305,305,1
308,301,306,307,1
309,303,307,309,1
309,304,308,310,1
309,306,308,311,1
308,308,308,310,1
307,311,307,309,1
306,312,307,308,1
305,313,307,307,1
304,313,307,307,1
304,313,307,306,1
304,312,307,305,1
304,312,307,304,1
304,311,306,304,1
304,310,306,303,1
304,308,305,303,1
304,306,304,304,1
305,304,303,304,1
307,302,303,306,1
308,301,304,307,1
310,300,305,310,1
311,300,307,311,1
312,301,308,313,1
312,302,310,314,1
312,304,310,314,1
311,305,311,313,1
310,307,310,312,1
309,308,310,310,1
307,308,308,308,1
306,308,307,307,1
306,308,306,305,1
306,308,304,303,1
306,307,304,302,1
306,306,303,302,1
305,305,303,301,1
305,304,302,301,1
306,302,302,300,1
307,301,302,301,1
308,299,303,302,1
309,298,304,303,1
310,298,304,305,1
312,298,305,308,1
312,299,306,310,1
313,301,306,312,1
312,303,306,313,1
310,305,306,313,1
309,307,306,313,1
307,308,305,311,1
305,309,304,310,1
305,310,304,309,1
305,309,303,308,1
304,309,303,307,1
304,308,303,307,1
304,307,303,307,1
304,306,303,306,1
305,304,302,306,1
305,302,302,305,1
305,300,301,305,1
306,299,301,306,1
308,298,301,307,1
309,298,301,308,1
309,298,302,310,1
310,300,304,311,1
310,302,305,313,1
309,304,306,314,1
308,306,306,314,1
307,308,306,313,1
305,309,305,312,1
304,310,305,311,1
303,311,304,310,1
302,311,304,310,1
301,311,304,309,1
301,310,304,308,1
301,310,303,308,1
301,308,302,307,1
302,307,301,306,1
303,305,301,305,1
305,303,300,305,1
306,302,300,305,1
307,301,301,307,1
308,301,302,308,1
309,302,303,310,1
308,303,304,311,1
308,305,305,313,1
307,308,305,314,1
306,310,305,314,1
305,312,305,314,1
304,313,305,313,1
303,313,305,312,1
302,312,305,311,1
301,312,305,310,1
301,311,305,308,1
301,310,305,307,1
301,310,304,305,1
301,309,304,304,1
301,308,303,304,1
301,306,303,304,1
302,305,303,305,1
303,304,303,306,1
305,304,303,308,1
306,304,304,310,1
307,304,305,312,1
308,304,306,313,1
307,306,307,314,1
307,307,307,314,1
306,309,307,313,1
305,311,307,312,1
305,312,306,311,1
304,313,305,310,1
304,314,304,309,1
304,314,303,308,1
304,314,303,307,1
304,313,302,306,1
304,312,303,305,1
303,311,303,303,1
304,310,303,302,1
305,309,303,302,1
306,307,302,302,1
308,306,303,303,1
310,305,303,304,1
311,304,305,306,1
312,304,306,307,1
312,305,307,310,1
313,307,307,311,1
312,309,307,311,1
310,311,307,311,1
309,312,306,310,1
307,312,306,309,1
305,312,305,308,1
304,312,305,307,1
303,312,305,306,1
302,312,305,305,1
302,312,304,304,1
302,311,304,303,1
303,310,303,303,1
303,309,302,302,1
304,307,302,302,1
305,305,301,302,1
307,304,301,303,1
309,303,302,305,1
310,303,302,307,1
312,303,303,309,1
312,304,305,310,1
312,305,306,311,1
312,307,308,312,1
312,309,308,312,1
311,310,308,311,1
310,311,308,310,1
309,312,307,309,1
308,313,306,308,1
307,313,305,307,1
305,313,303,305,1
305,312,302,305,1
305,311,301,305,1
304,309,300,305,1
304,307,300,304,1
305,305,299,304,1
305,303,300,303,1
307,301,301,303,1
308,301,303,304,1
309,301,304,305,1
310,302,305,307,1
310,304,307,309,1
310,306,308,311,1
309,308,309,312,1
307,310,310,311,1
305,311,312,311,1
304,312,312,310,1
304,311,312,310,1
303,311,312,309,1
302,310,311,308,1
302,309,310,307,1
302,307,309,307,1
302,306,308,306,1
302,304,307,305,1
302,303,305,304,1
303,302,304,303,1
304,301,303,303,1
305,300,303,304,1
306,299,303,306,1
307,299,304,308,1
308,299,306,310,1
307,301,307,312,1
307,303,308,313,1
306,305,310,313,1
305,308,311,312,1
304,309,311,311,1
303,310,311,309,1
302,311,311,307,1
301,311,311,306,1
300,310,310,304,1
300,310,310,304,1
300,309,310,303,1
300,309,309,303,1
300,308,308,302,1
301,306,307,301,1
301,304,306,301,1
302,302,305,301,1
303,301,305,303,1
304,301,305,304,1
306,301,305,305,1
307,302,306,308,1
308,303,306,310,1
308,305,307,311,1
308,307,307,312,1
307,309,307,312,1
306,310,307,311,1
305,311,307,310,1
304,311,306,310,1
303,311,304,309,1
302,311,304,308,1
301,310,303,308,1
301,309,303,308,1
300,308,302,308,1
300,307,302,307,1
300,306,301,307,1
300,305,300,307,1
300,303,300,307,1
301,302,300,308,1
302,301,301,309,1
303,301,301,311,1
305,301,303,313,1
305,302,304,314,1
306,303,305,315,1
305,305,306,315,1
304,307,307,315,1
303,307,307,314,1
303,308,307,313,1
302,308,307,311,1
301,308,306,310,1
300,308,305,308,1
300,308,305,307,1
300,308,305,306,1
300,307,304,306,1
301,307,304,304,1
301,305,303,303,1
301,304,302,302,1
302,302,302,301,1
304,301,302,301,1
305,300,303,302,1
307,300,304,303,1
309,301,305,304,1
310,302,306,306,1
311,304,307,307,1
310,306,308,308,1
309,308,308,308,1
308,310,309,308,1
306,312,308,307,1
305,313,307,306,1
304,314,306,304,1
304,313,306,303,1
303,313,305,303,1
302,312,305,303,1
302,311,304,302,1
302,310,304,302,1
302,308,303,302,1
303,307,303,302,1
304,305,304,302,1
304,303,304,303,1
305,302,306,304,1
307,302,307,305,1
308,302,308,307,1
309,304,309,309,1
310,306,311,310,1
309,308,312,310,1
309,309,313,310,1
307,311,313,308,1
307,311,312,307,1
306,312,312,306,1
305,313,312,304,1
305,312,312,304,1
305,312,311,303,1
306,311,310,302,1
306,311,309,302,1
306,310,308,301,1
306,309,307,300,1
306,307,307,300,1
307,306,307,300,1
307,304,307,301,1
309,303,308,303,1
310,303,308,305,1
311,304,310,307,1
311,305,310,309,1
311,307,311,311,1
310,310,312,312,1
309,311,312,311,1
308,312,311,310,1
307,312,310,308,1
306,312,309,307,1
305,313,308,306,1
304,313,307,305,1
304,313,305,305,1
303,313,304,304,1
303,314,303,303,1
303,313,303,302,1
303,312,303,301,1
304,310,303,301,1
305,307,303,301,1
306,304,304,302,1
307,303,304,304,1
308,302,305,306,1
309,302,306,307,1
309,303,308,308,1
310,304,310,309,1
310,306,311,309,1
309,307,311,309,1
308,308,311,308,1
308,309,310,308,1
307,310,310,307,1
306,311,308,307,1
305,312,307,306,1
305,312,306,304,1
304,311,306,303,1
304,311,306,302,1
304,310,306,302,1
304,309,305,301,1
304,307,305,301,1
304,305,304,301,1
305,304,304,302,1
306,302,305,303,1
307,301,306,304,1
307,302,307,306,1
308,304,308,308,1
307,306,309,309,1
307,308,310,309,1
306,310,309,309,1
305,312,309,308,1
304,313,308,306,1
303,313,307,305,1
302,314,306,304,1
302,313,306,303,1
301,313,306,302,1
300,312,306,301,1
300,312,306,301,1
300,312,306,300,1
300,311,305,299,1
301,310,305,299,1
302,308,305,300,1
304,307,305,301,1
305,306,305,303,1
307,306,306,306,1
308,306,307,308,1
310,307,308,311,1
310,309,309,312,1
310,311,309,312,1
309,312,309,312,1
307,313,309,311,1
305,314,309,309,1
304,314,309,308,1
303,314,309,307,1
302,314,309,307,1
302,313,308,307,1
302,312,308,307,1
301,311,308,307,1
301,309,308,306,1
300,307,308,305,1
300,305,308,304,1
301,302,309,304,1
302,301,309,305,1
304,299,310,307,1
305,298,311,308,1
306,298,312,311,1
308,299,313,312,1
308,301,315,314,1
308,303,315,315,1
307,305,316,315,1
306,307,316,314,1
305,308,315,313,1
304,308,314,312,1
303,309,313,310,1
302,309,312,309,1
302,310,311,307,1
301,310,311,306,1
301,310,310,305,1
300,309,309,305,1
300,308,308,304,1
301,306,307,304,1
302,304,307,304,1
304,303,306,306,1
305,301,306,307,1
307,301,306,309,1
308,301,306,311,1
309,301,307,313,1
310,303,308,314,1
309,306,308,314,1
308,309,308,314,1
307,310,308,313,1
305,311,306,312,1
303,312,306,311,1
302,312,305,311,1
301,312,305,310,1
301,311,305,309,1
300,310,305,308,1
299,308,305,308,1
299,307,305,307,1
299,305,304,306,1
300,303,303,306,1
301,302,303,305,1
303,300,302,305,1
304,299,303,306,1
305,299,304,308,1
307,300,305,310,1
308,301,307,311,1
308,303,308,313,1
308,305,309,313,1
307,307,310,313,1
305,308,309,312,1
304,310,308,312,1
302,310,307,310,1
301,310,306,309,1
300,311,305,308,1
299,310,304,306,1
299,310,303,305,1
298,309,303,304,1
299,308,303,304,1
299,306,302,303,1
299,303,302,302,1
300,301,303,302,1
302,300,303,302,1
303,298,303,302,1
304,298,304,304,1
306,298,305,306,1
308,300,307,307,1
308,301,308,309,1
308,303,308,310,1
308,304,308,311,1
307,305,307,310,1
306,306,307,310,1
305,307,306,309,1
304,307,305,307,1
304,307,304,307,1
304,306,304,306,1
303,305,303,305,1
303,303,304,305,1
303,302,303,304,1
303,301,303,303,1
303,299,303,303,1
304,298,303,303,1
306,297,303,304,1
307,296,303,305,1
308,297,303,307,1
309,297,304,308,1
308,299,305,310,1
307,301,306,311,1
306,304,307,312,1
305,306,306,311,1
303,307,305,309,1
302,308,305,307,1
300,310,304,306,1
300,311,303,305,1
300,311,303,304,1
301,310,303,303,1
302,309,303,303,1
302,308,303,303,1
303,306,302,302,1
303,304,302,302,1
304,302,301,301,1
305,301,300,301,1
307,299,300,302,1
308,298,301,303,1
310,298,302,304,1
311,298,303,306,1
311,299,304,308,1
311,301,305,310,1
310,303,306,311,1
309,305,306,310,1
308,307,305,309,1
307,308,304,308,1
305,308,303,307,1
304,309,303,305,1
304,309,303,305,1
303,309,302,304,1
304,308,302,303,1
304,307,302,302,1
304,307,302,301,1
305,305,301,300,1
305,303,301,299,1
306,300,300,299,1
306,299,300,300,1
307,297,300,301,1
308,297,300,303,1
309,297,302,306,1
310,298,303,308,1
311,299,305,310,1
311,301,307,310,1
310,303,307,310,1
309,305,306,308,1
307,306,306,307,1
306,307,305,306,1
305,308,304,305,1
304,308,304,304,1
304,308,303,303,1
304,308,303,303,1
304,307,303,302,1
304,307,302,302,1
304,305,302,301,1
304,304,301,301,1
304,303,301,301,1
305,302,300,302,1
307,301,301,303,1
309,301,302,304,1
310,302,303,306,1
311,303,304,307,1
312,305,306,308,1
311,308,307,308,1
310,310,307,307,1
309,312,307,306,1
307,313,306,305,1
306,313,305,305,1
304,314,305,304,1
303,314,304,304,1
302,315,304,303,1
302,314,303,303,1
302,314,303,303,1
303,314,303,302,1
303,312,302,301,1
304,311,301,300,1
304,309,301,301,1
305,307,300,301,1
307,305,300,302,1
309,304,300,303,1
310,304,301,304,1
311,304,302,306,1
312,305,303,307,1
312,306,305,308,1
312,307,307,307,1
310,309,307,306,1
309,310,308,304,1
307,311,308,303,1
306,312,308,302,1
305,312,307,301,1
305,312,306,300,1
304,312,305,299,1
305,312,305,299,1
306,311,304,299,1
306,310,304,298,1
307,309,304,298,1
308,308,304,297,1
309,307,305,298,1
310,306,305,299,1
312,306,305,301,1
313,306,306,303,1
314,307,307,305,1
314,309,308,307,1
314,311,310,308,1
313,313,311,308,1
311,314,311,307,1
309,315,310,306,1
308,316,310,305,1
306,316,310,304,1
305,317,309,303,1
304,316,309,302,1
305,316,308,301,1
305,315,307,300,1
306,313,306,299,1
306,310,306,299,1
307,308,305,298,1
308,306,305,298,1
309,304,305,299,1
311,302,306,300,1
313,301,307,302,1
314,302,308,304,1
315,304,310,306,1
316,307,312,309,1
315,310,312,310,1
314,312,313,311,1
312,314,313,310,1
311,315,313,309,1
310,316,312,307,1
310,315,311,305,1
309,315,310,304,1
309,314,310,303,1
308,314,310,301,1
308,313,309,301,1
308,312,309,299,1
307,310,307,298,1
308,309,305,297,1
308,307,304,296,1
309,305,304,297,1
310,304,303,298,1
312,304,304,299,1
313,305,305,301,1
313,306,307,303,1
314,308,308,305,1
313,310,309,306,1
313,312,309,307,1
311,313,309,306,1
309,314,308,305,1
308,314,307,304,1
306,314,307,303,1
306,314,306,302,1
305,314,306,301,1
305,313,306,300,1
305,312,306,300,1
305,311,306,300,1
305,309,305,300,1
305,307,304,300,1
306,305,304,301,1
307,303,304,302,1
308,301,304,303,1
309,300,304,304,1
310,301,305,305,1
311,302,306,306,1
311,304,307,307,1
310,306,308,307,1
308,308,309,308,1
307,310,309,307,1
306,311,309,307,1
305,311,309,306,1
304,311,308,305,1
303,311,307,304,1
303,310,307,303,1
302,310,306,302,1
302,309,306,301,1
303,307,306,300,1
303,306,306,298,1
303,304,305,298,1
304,303,304,297,1
306,302,304,297,1
307,301,304,298,1
309,301,305,300,1
310,301,306,301,1
310,303,308,303,1
311,305,310,304,1
310,307,310,306,1
309,309,310,306,1
307,311,310,306,1
306,312,310,305,1
305,312,309,304,1
304,312,308,303,1
304,312,307,301,1
303,312,307,300,1
304,311,307,300,1
305,311,306,300,1
305,310,305,299,1
306,309,305,298,1
306,307,304,297,1
307,305,304,297,1
308,304,303,298,1
310,302,303,299,1
310,302,304,301,1
311,302,304,303,1
312,303,305,305,1
312,304,306,308,1
311,305,307,309,1
310,307,307,309,1
309,309,307,308,1
308,310,306,307,1
307,310,306,305,1
306,311,305,304,1
306,311,304,303,1
306,310,304,302,1
305,310,303,302,1
305,309,303,301,1
305,308,303,300,1
305,307,303,299,1
305,304,302,299,1
306,302,302,300,1
307,300,302,301,1
309,299,303,302,1
310,298,303,303,1
312,298,305,305,1
312,298,307,307,1
312,299,308,309,1
312,301,310,310,1
311,303,310,310,1
311,304,310,309,1
309,305,309,308,1
308,306,308,307,1
307,306,306,306,1
306,307,304,305,1
306,307,304,304,1
306,306,304,304,1
305,306,303,304,1
305,305,304,304,1
304,304,304,304,1
304,302,304,304,1
304,300,304,304,1
305,298,304,304,1
307,297,305,306,1
307,296,306,307,1
309,296,307,309,1
310,298,307,311,1
311,299,308,313,1
311,301,309,313,1
311,303,310,312,1
309,304,310,311,1
308,306,310,309,1
306,307,309,308,1
305,308,307,306,1
305,308,306,306,1
305,308,306,305,1
305,308,306,305,1
305,307,306,305,1
305,306,306,305,1
305,304,306,305,1
305,303,306,305,1
305,302,306,304,1
305,300,306,305,1
306,300,307,307,1
308,300,308,309,1
309,301,309,311,1
311,302,310,313,1
311,304,312,314,1
311,306,313,315,1
310,308,313,314,1
309,310,313,313,1
308,311,312,311,1
307,312,311,310,1
306,312,309,309,1
305,313,308,308,1
305,312,306,307,1
305,312,305,307,1
304,311,304,307,1
304,310,304,307,1
304,308,303,306,1
305,307,303,307,1
306,305,303,307,1
307,303,303,308,1
308,302,303,309,1
308,301,304,311,1
308,302,305,312,1
308,303,305,314,1
308,305,307,316,1
308,307,307,317,1
308,309,308,316,1
307,310,308,316,1
306,311,308,315,1
305,312,308,313,1
304,312,307,313,1
304,311,307,311,1
303,310,307,310,1
303,309,307,309,1
303,308,307,308,1
303,306,307,307,1
303,305,306,305,1
303,303,305,305,1
304,301,305,305,1
305,300,305,306,1
306,299,305,308,1
308,298,306,309,1
309,298,307,311,1
309,300,308,312,1
310,302,309,314,1
309,304,309,315,1
307,306,309,315,1
306,308,309,315,1
305,310,308,314,1
304,310,308,313,1
304,311,307,313,1
304,311,306,311,1
303,311,306,310,1
303,311,306,310,1
303,310,306,310,1
303,309,305,310,1
303,308,304,311,1
304,306,303,311,1
304,304,303,312,1
305,302,302,313,1
306,301,302,314,1
306,301,303,315,1
306,302,304,316,1
306,304,306,317,1
306,305,307,319,1
306,307,308,319,1
305,309,308,319,1
304,310,308,317,1
303,311,307,316,1
301,312,307,314,1
300,312,306,313,1
299,312,306,311,1
298,311,305,311,1
298,310,305,311,1
299,309,305,311,1
299,308,305,311,1
300,306,305,311,1
300,304,304,310,1
302,302,305,310,1
303,300,305,310,1
305,299,306,310,1
307,298,307,311,1
308,298,308,313,1
310,299,309,314,1
310,301,310,315,1
310,304,310,316,1
310,307,311,316,1
309,309,310,315,1
308,310,310,314,1
307,311,310,313,1
306,311,310,312,1
304,311,310,311,1
303,311,310,310,1
303,310,311,309,1
303,309,311,308,1
303,308,311,308,1
303,306,311,307,1
304,304,310,307,1
305,303,309,308,1
306,301,309,308,1
308,300,309,310,1
309,299,309,311,1
311,300,310,313,1
312,301,311,315,1
313,303,313,316,1
312,306,314,317,1
312,308,314,316,1
311,309,314,316,1
309,310,313,314,1
308,310,312,312,1
306,310,311,310,1
305,310,310,309,1
304,309,309,307,1
304,309,308,306,1
303,309,307,306,1
303,308,307,305,1
304,307,306,304,1
304,307,306,304,1
305,306,306,303,1
307,304,306,303,1
309,303,307,304,1
311,303,308,306,1
313,303,309,309,1
313,304,310,311,1
314,305,311,313,1
314,308,312,313,1
313,310,313,313,1
312,312,313,312,1
311,313,312,311,1
309,314,312,310,1
309,315,311,309,1
308,315,310,308,1
307,315,309,307,1
306,313,308,306,1
306,313,307,305,1
307,312,306,304,1
307,311,306,303,1
308,309,305,302,1
308,307,304,302,1
310,305,304,302,1
310,304,304,304,1
311,303,305,306,1
311,303,306,309,1
312,304,308,311,1
312,305,309,313,1
311,307,311,313,1
311,308,311,313,1
310,310,311,313,1
310,310,310,311,1
309,311,309,310,1
308,311,308,309,1
307,310,308,308,1
307,310,307,307,1
307,309,307,307,1
307,309,306,307,1
307,309,307,307,1
308,307,306,307,1
308,306,306,307,1
308,305,306,307,1
309,303,306,308,1
310,302,305,309,1
311,302,306,311,1
312,302,306,312,1
312,302,307,314,1
312,303,308,314,1
312,305,309,314,1
310,306,310,314,1
309,307,310,313,1
308,308,310,312,1
308,308,310,311,1
307,308,309,310,1
307,309,309,308,1
306,309,308,308,1
306,309,308,307,1
306,308,308,306,1
305,308,308,305,1
306,307,308,304,1
306,305,307,303,1
307,304,306,303,1
307,302,305,303,1
308,301,305,304,1
308,301,305,306,1
309,301,306,309,1
309,302,307,312,1
309,304,309,314,1
307,306,310,315,1
306,308,311,315,1
305,310,310,315,1
303,312,310,314,1
302,313,309,313,1
301,313,308,312,1
300,313,307,310,1
300,313,306,308,1
301,312,305,306,1
301,310,304,305,1
302,309,304,303,1
302,307,303,302,1
303,304,302,301,1
303,302,302,301,1
304,301,302,301,1
305,299,302,303,1
307,298,303,305,1
308,298,304,307,1
309,300,306,309,1
309,302,307,311,1
309,304,309,313,1
308,306,309,313,1
307,309,309,313,1
306,311,309,313,1
305,312,308,312,1
304,312,308,311,1
304,312,307,310,1
304,312,307,309,1
304,310,306,308,1
304,309,306,307,1
305,307,305,307,1
305,305,305,305,1
305,304,305,305,1
306,302,305,304,1
307,300,305,305,1
308,298,305,306,1
310,298,305,308,1
311,298,306,310,1
312,299,307,312,1
312,300,308,313,1
311,303,309,314,1
309,305,309,314,1
308,306,308,314,1
307,307,308,312,1
306,308,307,310,1
305,309,306,309,1
304,309,305,309,1
304,308,304,308,1
304,308,303,307,1
304,307,303,306,1
304,306,303,305,1
304,305,303,304,1
304,303,302,303,1
305,302,302,302,1
306,300,302,303,1
307,300,302,303,1
309,299,302,305,1
310,300,303,306,1
311,300,304,308,1
312,302,304,310,1
312,303,305,312,1
312,305,305,312,1
310,307,305,311,1
308,308,305,309,1
307,309,305,308,1
306,309,305,306,1
305,309,305,306,1
304,309,305,305,1
304,309,305,305,1
304,309,305,304,1
304,308,304,304,1
305,307,304,304,1
305,306,303,304,1
306,304,303,304,1
307,302,303,304,1
308,301,303,304,1
309,300,303,306,1
309,300,304,307,1
310,301,305,309,1
310,302,306,311,1
310,304,307,312,1
309,306,307,312,1
308,308,307,312,1
307,310,306,311,1
306,311,305,310,1
305,311,305,309,1
305,311,304,308,1
305,311,304,307,1
305,311,304,306,1
305,311,304,305,1
305,311,303,304,1
305,310,304,303,1
305,308,303,302,1
306,306,303,301,1
307,305,303,302,1
308,303,303,303,1
309,302,304,305,1
310,302,305,307,1
310,303,307,309,1
311,305,308,311,1
311,307,309,312,1
310,309,310,312,1
309,311,310,312,1
307,312,310,311,1
306,313,309,310,1
306,313,309,309,1
305,313,308,308,1
305,312,307,307,1
305,313,306,306,1
305,312,305,306,1
305,312,305,306,1
306,310,304,305,1
307,309,303,304,1
308,306,302,303,1
309,304,302,303,1
310,302,303,304,1
311,301,303,305,1
312,301,304,307,1
311,302,306,309,1
311,304,307,311,1
311,306,308,312,1
309,309,310,311,1
308,310,310,311,1
307,311,309,309,1
306,312,308,308,1
305,312,307,306,1
304,312,306,305,1
304,310,305,304,1
303,309,304,303,1
303,308,304,303,1
304,307,303,303,1
304,306,302,303,1
305,304,302,302,1
306,302,301,303,1
307,299,300,304,1
308,298,300,305,1
309,297,301,307,1
310,297,302,309,1
311,298,303,311,1
311,300,305,312,1
311,302,306,313,1
310,303,307,313,1
309,305,307,312,1
308,307,306,310,1
307,307,306,308,1
307,308,306,307,1
306,308,305,305,1
306,308,305,304,1
306,308,304,304,1
306,308,304,303,1
307,307,305,303,1
307,306,304,302,1
308,305,303,301,1
308,303,303,301,1
310,301,302,301,1
311,299,302,302,1
312,299,302,303,1
313,299,303,304,1
314,300,304,306,1
314,302,306,308,1
314,304,307,310,1
312,306,308,311,1
310,308,307,311,1
308,310,307,312,1
307,311,306,312,1
306,312,306,311,1
305,313,305,310,1
305,313,304,310,1
305,312,304,309,1
305,310,304,308,1
304,309,304,306,1
304,308,303,305,1
304,306,302,303,1
305,303,302,302,1
306,301,302,301,1
307,300,303,301,1
308,299,304,302,1
309,299,305,304,1
309,300,306,306,1
309,302,308,307,1
308,303,310,309,1
307,306,311,308,1
305,307,311,307,1
304,309,311,306,1
303,310,310,305,1
301,311,310,304,1
301,312,309,303,1
300,312,308,303,1
301,312,307,302,1
301,312,307,301,1
301,312,306,301,1
301,311,306,300,1
302,310,305,299,1
302,309,305,299,1
303,307,305,300,1
304,306,305,301,1
305,305,306,302,1
306,304,307,304,1
307,305,308,305,1
308,305,308,306,1
309,306,308,307,1
308,308,308,307,1
307,309,308,307,1
306,311,307,306,1
305,312,306,305,1
304,313,306,304,1
304,313,305,303,1
303,312,304,301,1
302,312,303,300,1
301,311,303,298,1
301,310,303,298,1
301,308,303,297,1
301,307,303,297,1
301,306,302,297,1
302,305,302,298,1
303,304,303,300,1
304,304,303,301,1
306,304,304,303,1
307,304,306,305,1
308,305,308,307,1
308,306,310,307,1
308,308,310,307,1
307,310,311,306,1
306,311,310,305,1
306,312,310,304,1
306,313,310,303,1
305,314,309,303,1
305,314,309,303,1
304,314,309,303,1
304,313,308,303,1
304,313,307,302,1
304,311,307,302,1
304,310,306,301,1
304,309,305,301,1
304,307,305,302,1
305,306,305,304,1
306,305,306,306,1
307,305,307,309,1
307,305,308,311,1
308,306,310,313,1
308,308,312,315,1
308,309,312,315,1
308,311,312,315,1
307,313,312,313,1
307,314,311,312,1
306,314,310,310,1
305,313,310,309,1
304,313,309,307,1
303,311,309,306,1
303,310,308,305,1
303,309,308,304,1
303,307,307,304,1
304,306,306,303,1
305,304,305,302,1
306,303,304,302,1
308,302,304,303,1
310,301,304,304,1
311,301,306,306,1
312,302,307,308,1
312,304,309,310,1
312,306,311,312,1
311,308,312,312,1
310,310,312,311,1
308,311,312,310,1
306,312,311,309,1
304,312,310,308,1
303,312,310,308,1
303,312,310,308,1
302,311,311,308,1
302,311,310,308,1
303,310,310,308,1
303,309,310,307,1
303,307,309,306,1
304,305,308,305,1
305,304,307,305,1
306,302,307,305,1
308,301,307,306,1
309,301,308,307,1
310,303,309,308,1
310,305,310,309,1
310,307,311,310,1
310,310,311,310,1
309,312,311,309,1
308,312,311,309,1
307,313,311,308,1
306,312,310,307,1
306,312,310,307,1
305,312,310,306,1
305,312,309,306,1
305,311,309,306,1
306,310,308,307,1
306,309,308,309,1
306,308,307,313,1
307,306,307,318,1
308,305,307,323,1
310,304,309,329,1
311,304,311,334,1
313,305,313,339,1
314,307,316,346,1
315,309,319,353,1
315,312,321,359,1
314,315,324,362,1
313,317,324,363,1
312,319,324,362,1
311,320,323,359,1
310,320,322,354,1
309,321,320,350,1
309,321,317,345,1
309,320,314,340,1
308,318,311,334,1
308,316,308,326,1
307,314,306,318,1
307,311,304,311,1
308,309,303,306,1
308,306,303,302,1
309,305,304,301,1
310,305,305,303,1
312,305,307,310,1
313,306,310,320,1
313,308,314,332,1
313,312,318,344,1
313,315,321,356,1
312,317,324,365,1
312,318,325,369,1
310,316,325,368,1
308,314,323,364,1
307,309,320,360,1
306,304,315,356,1
303,299,311,350,1
299,294,307,340,1
298,293,306,331,1
301,296,308,323,1
305,300,310,315,1
309,301,311,305,1
310,300,312,296,1
309,299,313,289,1
308,297,313,286,1
308,297,313,285,1
309,298,312,285,1
310,301,310,283,1
313,305,310,279,1
315,308,310,273,1
318,310,309,267,1
318,310,309,262,1
313,310,305,258,1
306,308,299,254,1
299,306,291,251,1
293,303,285,248,1
288,300,282,247,1
285,299,282,248,1
283,300,283,250,1
284,302,284,251,1
286,302,285,252,1
290,300,284,253,1
293,298,284,254,1
297,297,284,258,1
299,296,285,262,1
301,297,286,269,1
302,299,287,276,1
302,301,288,284,1
302,304,290,290,1
300,306,291,293,1
299,307,291,295,1
298,307,291,295,1
297,307,291,294,1
297,306,290,291,1
297,305,290,290,1
297,304,290,290,1
297,304,290,291,1
297,303,291,294,1
297,303,292,302,1
297,304,292,315,1
298,305,292,330,1
299,306,294,347,1
301,309,297,365,1
303,311,301,387,1
304,314,306,412,1
307,317,313,438,1
308,322,319,463,1
310,327,325,481,1
310,332,328,492,1
308,334,330,492,1
307,333,329,481,1
305,331,328,461,1
302,330,325,434,1
299,330,321,403,1
297,330,317,374,1
295,331,312,357,1
294,330,306,355,1
295,328,303,369,1
297,328,304,394,1
301,331,310,421,1
306,332,320,445,1
311,332,332,461,1
316,334,342,468,1
319,335,350,465,1
320,333,354,455,1
320,322,353,441,1
320,303,350,425,1
321,275,342,406,1
324,245,332,386,1
327,221,320,361,1
329,205,311,331,1
330,197,302,295,1
327,189,297,252,1
320,181,297,212,1
312,181,298,177,1
304,194,297,150,1
297,219,292,135,1
289,252,284,134,1
284,288,275,142,1
281,316,265,152,1
280,330,256,161,1
279,330,249,169,1
278,322,245,179,1
278,312,244,194,1
281,302,247,211,1
284,293,251,229,1
287,287,255,247,1
290,284,259,261,1
292,287,261,271,1
294,294,263,275,1
296,303,264,274,1
297,311,262,268,1
294,317,260,259,1
290,323,258,248,1
285,330,257,237,1
281,337,254,227,1
278,339,253,217,1
278,335,255,209,1
279,326,263,204,1
279,310,271,200,1
280,279,278,196,1
283,241,284,194,1
284,211,290,193,1
281,191,289,192,1
276,175,281,194,1
275,164,272,198,1
279,166,268,205,1
288,184,268,216,1
295,213,269,228,1
302,239,268,243,1
308,257,264,259,1
314,267,252,272,1
316,273,238,283,1
315,278,227,300,1
315,285,223,323,1
315,291,223,344,1
315,295,226,358,1
315,298,230,365,1
312,300,235,362,1
307,298,241,349,1
301,292,246,329,1
297,285,250,304,1
294,279,255,278,1
294,276,261,257,1
297,273,267,240,1
300,271,275,226,1
305,272,284,219,1
309,277,294,218,1
311,287,301,221,1
309,296,302,226,1
299,297,297,230,1
281,290,290,230,1
266,282,285,229,1
262,288,288,230,1
268,307,299,234,1
281,321,314,238,1
294,326,329,244,1
301,326,341,250,1
298,326,348,257,1
290,326,348,264,1
282,328,341,270,1
275,331,327,274,1
268,327,311,276,1
264,310,296,276,1
261,280,285,272,1
256,245,278,267,1
249,209,273,262,1
241,177,271,257,1
235,153,271,254,1
231,140,277,255,1
236,139,289,262,1
258,155,301,271,1
287,190,305,279,1
297,238,299,281,1
285,280,284,277,1
265,302,265,268,1
250,308,248,259,1
242,306,236,252,1
242,304,227,250,1
249,304,222,250,1
258,301,217,251,1
260,294,212,252,1
255,292,208,255,1
245,291,205,259,1
237,285,202,264,1
232,279,199,268,1
232,279,194,270,1
236,293,190,271,1
241,320,185,273,1
247,355,182,278,1
254,392,179,284,1
261,411,174,288,1
265,402,168,285,1
266,366,163,276,1
267,317,159,264,1
264,264,155,250,1
251,216,154,236,1
234,177,156,225,1
219,161,162,217,1
209,188,173,222,1
211,246,189,241,1
233,304,206,265,1
265,339,215,285,1
285,343,209,296,1
283,325,192,301,1
266,297,173,304,1
244,269,158,306,1
228,252,147,311,1
217,247,140,316,1
212,250,133,320,1
210,256,130,323,1
211,260,129,326,1
214,261,130,328,1
220,263,133,330,1
230,270,138,331,1
241,277,142,331,1
249,284,142,330,1
252,290,140,328,1
245,298,136,325,1
237,305,134,321,1
234,313,132,317,1
236,320,132,314,1
242,329,134,313,1
249,338,137,315,1
257,347,143,320,1
265,353,151,326,1
270,356,159,333,1
273,356,168,338,1
273,357,177,342,1
273,358,187,345,1
273,360,197,347,1
273,359,208,347,1
275,358,217,347,1
281,356,227,345,1
291,353,235,343,1
305,349,240,340,1
323,345,239,338,1
338,341,233,333,1
349,337,223,328,1
352,333,214,322,1
353,329,208,318,1
357,325,202,315,1
363,322,203,313,1
364,323,217,315,1
354,325,243,320,1
330,327,275,326,1
302,326,311,332,1
282,325,345,338,1
270,325,375,347,1
264,326,399,354,1
261,326,419,360,1
261,325,434,363,1
262,324,445,366,1
261,324,452,367,1
260,324,458,368,1
259,326,463,371,1
260,327,468,374,1
265,327,472,377,1
273,328,475,377,1
286,327,475,378,1
301,324,471,381,1
318,320,463,386,1
332,316,455,392,1
348,312,450,403,1
368,309,446,423,1
387,305,435,455,1
397,300,414,490,1
399,291,381,515,1
396,278,342,520,1
400,270,303,518,1
424,273,266,520,1
454,285,233,518,1
466,300,209,502,1
450,316,199,472,1
427,330,205,440,1
430,340,225,415,1
472,348,259,402,1
534,349,301,395,1
571,344,341,392,1
535,332,373,386,1
428,318,396,372,1
328,308,415,349,1
252,303,433,323,1
195,304,451,301,1
179,309,471,288,1
202,314,489,288,1
242,319,504,298,1
290,324,511,313,1
350,326,508,335,1
422,326,495,367,1
497,325,468,407,1
560,321,424,450,1
597,315,371,491,1
619,306,319,535,1
650,299,274,572,1
700,297,247,584,1
736,301,242,559,1
718,308,252,499,1
645,314,274,424,1
567,316,301,346,1
528,312,324,276,1
512,303,344,223,1
465,294,357,192,1
369,289,364,181,1
287,287,364,183,1
222,289,355,190,1
173,292,338,197,1
142,295,314,204,1
160,298,287,212,1
217,298,247,213,1
273,293,192,208,1
305,288,149,201,1
315,287,117,196,1
320,291,91,199,1
351,302,79,213,1
406,314,90,233,1
454,323,126,252,1
471,329,172,263,1
460,329,214,269,1
450,325,245,270,1
456,318,271,273,1
449,312,289,275,1
386,305,285,273,1
295,301,260,272,1
226,301,242,277,1
174,308,249,290,1
135,318,287,307,1
110,329,346,323,1
124,339,407,336,1
170,346,458,348,1
222,349,489,357,1
258,347,487,359,1
279,344,448,356,1
290,340,379,352,1
294,338,294,352,1
287,336,224,353,1
269,336,174,362,1
242,342,152,378,1
220,348,170,394,1
210,349,213,402,1
210,345,261,396,1
211,337,303,380,1
209,325,333,360,1
208,311,346,345,1
214,299,348,338,1
225,292,352,340,1
240,292,365,352,1
256,298,382,365,1
266,306,395,366,1
271,311,406,350,1
277,315,415,327,1
288,318,418,304,1
298,319,411,288,1
305,316,387,280,1
308,310,343,284,1
305,304,267,297,1
301,298,205,317,1
301,294,158,347,1
317,298,123,389,1
355,306,96,436,1
403,316,75,475,1
447,324,68,499,1
473,330,88,513,1
476,337,132,524,1
466,343,199,532,1
453,348,285,525,1
434,349,373,497,1
416,346,439,446,1
415,337,475,382,1
426,323,491,323,1
441,306,496,281,1
448,290,488,259,1
443,279,466,251,1
436,273,426,253,1
424,272,368,265,1
399,275,303,283,1
353,282,241,302,1
290,292,197,320,1
250,306,172,336,1
245,320,157,342,1
255,325,137,333,1
265,322,116,320,1
267,317,112,306,1
264,312,142,294,1
259,309,198,283,1
249,306,263,270,1
234,299,327,258,1
219,288,382,247,1
208,276,426,237,1
204,263,458,228,1
213,252,474,221,1
234,243,477,218,1
259,238,472,222,1
266,237,459,231,1
241,237,442,241,1
206,239,425,251,1
200,247,410,264,1
226,264,397,284,1
259,284,388,306,1
283,303,381,324,1
300,316,376,336,1
316,325,371,341,1
326,331,367,342,1
328,333,366,339,1
330,332,370,331,1
332,328,377,317,1
332,324,384,303,1
332,317,390,293,1
333,311,390,287,1
334,307,382,280,1
338,305,370,275,1
344,304,359,272,1
350,305,347,271,1
357,306,336,271,1
363,307,326,274,1
369,310,317,278,1
372,312,311,281,1
375,313,307,283,1
376,312,301,283,1
375,309,295,284,1
387,305,290,283,1
402,303,285,281,1
398,300,281,278,1
376,300,278,276,1
350,302,277,275,1
329,304,279,274,1
315,307,282,276,1
308,309,285,279,1
304,310,288,282,1
300,311,291,284,1
300,312,294,285,1
306,313,297,285,1
312,314,301,284,1
313,314,306,283,1
311,313,311,282,1
308,310,317,284,1
308,304,321,287,1
311,298,327,290,1
316,296,330,292,1
321,297,331,292,1
325,300,329,291,1
328,302,325,291,1
333,304,322,290,1
337,306,322,290,1
340,308,322,290,1
340,310,322,290,1
337,311,324,292,1
333,314,328,294,1
328,315,329,296,1
325,316,331,297,1
328,315,334,296,1
330,314,337,293,1
327,312,338,290,1
321,311,339,290,1
327,312,342,296,1
343,314,345,303,1
360,317,347,308,1
375,319,348,314,1
383,321,352,324,1
376,323,355,336,1
354,322,352,340,1
331,318,344,334,1
316,314,334,323,1
310,309,325,312,1
310,306,320,306,1
316,305,320,303,1
322,306,322,299,1
327,307,326,293,1
330,308,334,287,1
328,308,345,284,1
313,308,355,284,1
293,311,360,288,1
282,314,359,294,1
286,317,357,299,1
301,316,356,304,1
317,316,355,306,1
328,315,356,308,1
331,315,357,308,1
328,316,358,307,1
319,315,357,307,1
307,314,355,305,1
295,312,351,302,1
287,312,345,298,1
288,313,336,296,1
294,315,325,297,1
297,320,315,300,1
295,326,307,305,1
295,332,305,312,1
301,339,310,319,1
309,344,320,319,1
316,342,329,314,1
320,334,335,307,1
323,325,340,299,1
324,315,342,293,1
328,307,343,288,1
333,301,344,285,1
336,297,345,284,1
334,295,345,286,1
330,295,342,288,1
326,295,339,291,1
322,296,335,294,1
317,296,333,298,1
312,297,332,302,1
304,298,334,308,1
296,299,334,314,1
289,300,333,319,1
283,298,332,321,1
280,295,333,320,1
280,293,333,317,1
283,293,333,311,1
283,295,332,303,1
283,297,332,298,1
288,298,335,296,1
297,300,338,294,1
304,301,338,293,1
308,301,337,292,1
310,301,336,292,1
315,302,335,294,1
326,303,336,297,1
337,304,336,301,1
342,304,338,305,1
341,305,339,308,1
335,305,341,311,1
329,304,343,314,1
323,303,343,317,1
314,302,339,319,1
303,301,333,319,1
293,300,327,319,1
284,301,323,317,1
279,303,317,314,1
279,306,307,313,1
280,310,299,311,1
279,313,294,306,1
278,314,290,297,1
277,313,289,287,1
273,310,293,280,1
272,308,298,277,1
275,308,306,280,1
283,308,314,287,1
289,308,321,297,1
295,309,326,309,1
304,311,328,320,1
312,313,330,333,1
315,314,331,344,1
313,316,332,354,1
310,318,332,362,1
308,319,333,368,1
306,321,334,370,1
304,322,335,368,1
298,322,336,363,1
289,321,336,355,1
279,319,333,346,1
269,318,329,337,1
262,316,325,330,1
259,315,322,323,1
260,314,319,318,1
264,312,315,312,1
269,309,311,306,1
276,303,307,300,1
282,297,304,296,1
287,291,300,291,1
290,287,293,287,1
293,286,285,284,1
297,286,276,282,1
296,287,270,284,1
295,288,270,290,1
296,289,277,297,1
296,290,288,303,1
294,291,300,306,1
292,292,311,306,1
292,293,320,303,1
294,293,326,299,1
296,294,328,295,1
299,294,327,290,1
299,295,325,286,1
299,297,321,283,1
297,298,315,281,1
290,300,307,281,1
282,300,298,282,1
277,300,292,284,1
275,300,292,286,1
275,300,297,289,1
280,300,303,293,1
288,300,309,298,1
292,299,312,304,1
291,297,316,312,1
293,297,320,321,1
301,298,323,329,1
308,300,325,335,1
310,302,326,339,1
305,304,327,340,1
295,305,327,340,1
283,307,326,339,1
273,309,323,336,1
268,312,320,334,1
270,314,317,332,1
277,315,314,331,1
281,315,311,328,1
283,314,308,325,1
281,311,306,321,1
276,307,304,317,1
270,302,302,312,1
266,298,301,307,1
261,295,300,304,1
260,292,299,302,1
267,290,299,302,1
285,290,300,304,1
309,291,305,307,1
328,294,311,310,1
333,298,315,312,1
326,302,320,313,1
313,304,322,313,1
299,305,325,311,1
290,304,327,309,1
292,303,328,307,1
301,302,327,304,1
309,300,324,302,1
315,298,317,301,1
317,297,304,300,1
316,297,289,302,1
313,297,278,306,1
308,298,271,313,1
305,300,265,324,1
301,302,261,337,1
294,304,256,349,1
286,304,253,358,1
279,305,251,364,1
274,306,255,365,1
273,306,259,360,1
279,307,258,349,1
289,307,255,336,1
299,306,253,323,1
305,305,256,312,1
305,305,265,305,1
303,304,278,300,1
302,304,293,297,1
303,302,308,294,1
305,300,319,292,1
308,297,328,291,1
313,294,334,291,1
316,291,339,292,1
311,288,342,296,1
301,287,340,300,1
293,286,333,307,1
290,286,327,315,1
290,287,321,321,1
288,287,316,325,1
285,289,311,326,1
283,292,308,325,1
282,295,307,323,1
284,300,306,321,1
288,304,307,323,1
294,308,308,328,1
301,310,308,334,1
310,312,309,339,1
318,312,305,342,1
320,311,298,341,1
313,310,290,337,1
299,308,281,329,1
280,305,274,320,1
263,303,274,314,1
253,301,281,310,1
256,299,291,310,1
272,298,300,313,1
289,296,309,317,1
301,296,314,321,1
306,296,318,323,1
308,298,320,325,1
307,302,321,324,1
304,305,321,320,1
301,309,321,314,1
298,311,321,306,1
293,312,320,299,1
289,311,319,294,1
284,310,318,291,1
281,307,317,291,1
277,305,317,292,1
278,304,318,295,1
282,303,319,298,1
287,303,320,302,1
293,303,320,306,1
299,304,320,311,1
306,305,319,313,1
312,304,317,314,1
315,303,315,314,1
318,302,314,315,1
321,302,314,317,1
327,303,313,320,1
332,305,309,324,1
333,305,301,325,1
325,304,291,325,1
309,304,282,325,1
291,303,278,327,1
272,302,277,331,1
257,302,279,336,1
255,303,282,339,1
268,303,283,338,1
286,304,285,336,1
300,308,288,332,1
309,312,289,326,1
314,314,289,322,1
314,314,291,319,1
312,311,297,319,1
310,307,304,319,1
308,305,314,319,1
307,303,324,318,1
307,302,330,315,1
307,301,333,311,1
308,300,333,308,1
307,299,332,306,1
302,300,329,304,1
293,301,328,303,1
282,302,326,302,1
270,302,325,300,1
261,303,325,299,1
260,306,327,299,1
268,309,329,301,1
283,311,331,302,1
299,312,332,303,1
309,310,333,303,1
313,308,332,302,1
313,305,329,302,1
312,302,322,302,1
309,301,315,302,1
306,301,311,303,1
304,301,309,304,1
304,303,310,306,1
304,304,312,307,1
304,305,314,308,1
305,304,315,307,1
305,303,313,305,1
303,301,310,303,1
301,299,308,301,1
297,297,307,300,1
293,296,305,298,1
289,296,306,296,1
285,295,309,296,1
282,296,315,298,1
281,299,321,301,1
276,303,327,304,1
267,308,333,308,1
257,311,336,313,1
246,313,336,318,1
239,314,332,321,1
245,314,327,325,1
267,316,325,329,1
292,319,325,333,1
312,322,326,340,1
324,323,327,346,1
328,323,327,350,1
328,319,326,347,1
324,313,323,341,1
319,309,321,332,1
313,307,321,323,1
307,309,322,316,1
304,313,321,310,1
304,317,319,305,1
305,318,317,301,1
305,317,317,296,1
305,313,316,291,1
306,308,316,286,1
306,303,316,285,1
299,299,315,288,1
289,296,315,296,1
279,297,315,306,1
274,300,316,317,1
274,304,317,325,1
275,309,318,329,1
274,313,319,330,1
276,317,321,328,1
281,319,321,325,1
285,319,322,319,1
285,319,322,314,1
283,316,325,310,1
282,313,328,307,1
281,311,331,305,1
281,308,334,304,1
283,305,334,302,1
287,304,330,299,1
292,304,322,296,1
294,304,314,294,1
293,303,309,293,1
288,302,306,295,1
282,300,304,298,1
277,299,305,303,1
275,298,308,310,1
276,299,311,317,1
278,300,312,323,1
280,302,309,328,1
281,305,304,329,1
279,307,303,327,1
276,307,308,324,1
274,306,320,319,1
275,306,334,314,1
274,307,348,310,1
272,308,359,306,1
270,310,365,303,1
270,312,365,302,1
272,316,360,304,1
277,321,353,307,1
284,327,345,313,1
290,332,339,320,1
294,332,335,326,1
298,328,332,331,1
301,323,329,333,1
304,318,329,332,1
307,314,333,331,1
309,311,341,329,1
307,308,350,325,1
301,305,357,319,1
293,300,358,312,1
285,293,354,307,1
281,288,345,304,1
279,283,332,303,1
279,279,316,302,1
280,277,301,301,1
283,278,289,299,1
284,281,282,299,1
285,288,280,302,1
285,301,284,307,1
285,318,293,313,1
288,331,307,317,1
295,340,322,317,1
303,344,338,316,1
308,343,353,317,1
311,339,364,321,1
312,335,371,327,1
311,332,374,331,1
308,329,375,331,1
304,325,377,327,1
298,322,380,322,1
293,320,383,317,1
290,318,385,314,1
290,313,385,310,1
293,307,377,305,1
297,298,361,299,1
301,290,340,293,1
304,284,321,289,1
303,282,306,286,1
298,284,292,285,1
292,288,281,285,1
286,294,275,287,1
284,301,272,290,1
282,309,272,293,1
281,316,274,296,1
279,320,278,299,1
276,322,283,303,1
274,324,291,310,1
273,327,304,320,1
273,329,326,331,1
272,330,354,341,1
271,331,384,348,1
272,329,410,352,1
279,327,429,354,1
288,324,436,353,1
294,322,435,350,1
297,323,425,345,1
297,325,404,337,1
296,325,378,328,1
295,324,350,319,1
296,319,323,311,1
299,310,301,304,1
302,298,284,300,1
301,287,274,299,1
294,280,267,300,1
284,279,262,304,1
276,286,255,312,1
275,298,247,320,1
280,313,242,325,1
289,328,242,325,1
299,339,246,320,1
308,344,251,313,1
313,344,256,308,1
314,343,259,304,1
312,341,264,301,1
308,340,270,299,1
304,340,277,299,1
301,338,288,301,1
299,337,302,304,1
299,336,319,308,1
299,334,338,312,1
301,330,359,317,1
303,327,379,323,1
305,323,393,329,1
309,319,400,332,1
312,316,401,333,1
312,314,400,332,1
310,314,398,329,1
308,312,393,325,1
304,310,384,321,1
299,308,372,318,1
294,307,356,315,1
291,309,339,312,1
291,312,322,309,1
295,313,308,305,1
301,311,294,298,1
304,307,282,292,1
303,305,277,289,1
301,308,278,290,1
301,315,283,294,1
306,321,290,299,1
312,324,297,305,1
317,324,303,309,1
319,322,310,311,1
320,318,318,315,1
321,315,328,318,1
319,312,336,319,1
315,311,338,321,1
309,311,335,322,1
303,312,331,324,1
299,313,325,324,1
295,313,316,319,1
292,315,308,313,1
287,317,300,308,1
280,319,297,307,1
274,322,297,309,1
271,324,297,313,1
272,325,298,317,1
281,323,299,318,1
291,320,302,317,1
302,317,304,316,1
311,313,303,316,1
318,309,298,318,1
322,305,293,320,1
321,304,291,323,1
318,307,294,324,1
313,312,301,324,1
307,316,307,322,1
302,320,307,319,1
301,322,304,314,1
303,322,301,309,1
308,320,300,303,1
315,316,299,298,1
321,312,298,295,1
323,308,299,292,1
320,306,301,290,1
315,306,305,290,1
310,309,311,290,1
304,314,317,291,1
298,320,323,292,1
296,326,328,295,1
297,328,330,299,1
299,325,329,303,1
299,316,325,306,1
297,308,319,309,1
293,302,313,310,1
289,300,309,311,1
287,299,307,312,1
288,299,308,312,1
291,300,310,314,1
298,305,312,316,1
308,312,314,320,1
318,318,317,325,1
326,323,319,333,1
332,325,322,342,1
334,326,325,348,1
332,326,328,348,1
330,325,328,345,1
329,324,327,342,1
329,322,326,339,1
326,319,324,337,1
316,316,322,334,1
306,315,322,333,1
297,314,325,332,1
292,313,332,331,1
289,311,339,327,1
290,309,345,318,1
294,306,349,306,1
300,304,350,295,1
304,305,348,289,1
307,306,344,286,1
309,309,338,286,1
311,312,330,286,1
311,313,324,288,1
312,315,322,291,1
312,314,323,295,1
312,312,325,299,1
311,310,324,304,1
308,310,321,308,1
306,312,314,310,1
305,313,307,312,1
304,313,302,312,1
301,311,299,311,1
297,309,297,308,1
293,305,296,304,1
290,304,296,300,1
289,303,297,299,1
288,303,298,300,1
288,303,299,302,1
294,304,300,305,1
305,306,302,310,1
316,309,307,315,1
322,313,311,319,1
321,316,313,322,1
318,319,314,322,1
314,322,314,320,1
313,324,313,317,1
312,325,312,315,1
311,325,311,313,1
308,323,310,309,1
306,318,312,304,1
307,313,315,300,1
310,307,319,297,1
314,302,322,294,1
316,299,324,292,1
314,295,323,290,1
308,292,322,289,1
303,291,322,288,1
301,292,322,289,1
301,296,322,290,1
302,302,323,291,1
301,308,325,293,1
299,314,326,296,1
302,318,325,301,1
309,322,324,307,1
319,325,323,313,1
327,326,323,319,1
334,328,325,324,1
337,328,325,326,1
333,329,323,326,1
323,326,318,322,1
312,321,310,318,1
298,314,303,315,1
278,307,296,311,1
257,304,292,308,1
245,300,292,305,1
244,297,296,302,1
254,295,303,300,1
269,293,311,300,1
287,294,319,302,1
301,296,325,305,1
311,299,329,309,1
316,300,332,312,1
316,301,332,312,1
313,302,331,310,1
309,304,329,308,1
304,307,328,306,1
298,312,326,303,1
291,314,326,301,1
286,313,325,299,1
286,311,324,297,1
290,307,323,294,1
302,303,324,293,1
320,301,326,296,1
336,299,326,301,1
341,298,324,308,1
337,299,322,314,1
331,300,320,321,1
327,304,320,329,1
325,309,319,335,1
322,314,318,336,1
319,317,316,334,1
316,320,314,329,1
313,321,313,324,1
310,320,311,318,1
307,318,309,309,1
304,315,306,301,1
301,312,304,293,1
301,308,302,287,1
305,304,302,281,1
310,301,303,278,1
315,300,306,275,1
320,301,308,274,1
325,303,309,274,1
331,305,309,276,1
337,306,309,281,1
340,308,310,286,1
338,310,311,291,1
332,313,312,294,1
320,316,313,297,1
305,318,313,297,1
290,319,312,297,1
281,319,312,296,1
275,319,312,293,1
275,317,312,290,1
281,316,313,287,1
287,313,312,287,1
291,312,312,288,1
292,311,310,292,1
287,310,309,295,1
284,309,307,298,1
282,308,305,299,1
281,307,303,299,1
283,306,304,298,1
292,308,307,296,1
302,310,309,296,1
311,315,312,299,1
316,320,315,305,1
315,324,317,314,1
312,326,316,323,1
306,326,312,331,1
299,324,306,336,1
293,320,300,336,1
289,317,296,334,1
290,313,295,330,1
294,311,297,323,1
298,309,302,317,1
302,309,307,310,1
305,308,311,305,1
308,307,313,300,1
310,304,313,295,1
310,301,312,290,1
311,300,311,285,1
311,301,310,283,1
311,301,310,283,1
311,302,312,286,1
315,302,315,290,1
323,304,320,294,1
334,307,325,299,1
341,311,328,303,1
341,315,329,306,1
338,317,327,307,1
333,318,323,306,1
328,318,316,303,1
325,319,310,301,1
325,319,304,299,1
326,318,299,298,1
326,316,296,297,1
323,313,291,297,1
319,311,288,297,1
314,307,286,297,1
310,303,289,297,1
306,299,293,297,1
302,295,296,297,1
297,293,300,296,1
290,292,303,294,1
284,293,308,293,1
283,297,312,295,1
291,303,313,300,1
307,310,312,306,1
322,316,309,311,1
329,321,307,314,1
329,324,304,314,1
325,326,303,312,1
321,326,302,308,1
319,325,301,303,1
316,323,301,299,1
311,320,301,296,1
305,318,301,294,1
302,317,301,293,1
299,315,300,293,1
296,313,299,298,1
293,311,299,308,1
291,310,301,321,1
293,310,303,333,1
299,310,305,344,1
309,311,306,353,1
320,313,307,359,1
327,314,307,358,1
326,314,305,351,1
319,315,303,338,1
311,316,298,323,1
308,316,292,306,1
310,317,287,291,1
314,317,284,279,1
317,318,282,270,1
315,319,282,266,1
311,320,284,265,1
308,321,288,266,1
306,321,294,268,1
302,320,299,270,1
297,318,304,272,1
293,316,305,276,1
292,314,304,280,1
293,313,302,283,1
300,312,300,287,1
309,313,299,291,1
318,314,300,298,1
325,316,304,305,1
331,318,308,310,1
336,319,309,311,1
339,320,308,312,1
338,320,308,313,1
332,320,309,314,1
323,321,310,314,1
315,322,312,311,1
309,323,313,307,1
306,322,313,302,1
306,320,312,298,1
307,317,311,295,1
311,312,309,292,1
315,308,306,289,1
320,305,302,286,1
323,302,298,283,1
322,300,295,283,1
321,300,292,286,1
320,302,291,292,1
317,305,291,298,1
313,309,291,303,1
311,313,291,307,1
311,316,293,310,1
312,319,297,313,1
312,321,302,315,1
311,322,304,316,1
307,323,304,316,1
304,323,303,316,1
306,322,301,316,1
314,321,300,317,1
324,320,301,316,1
331,317,303,314,1
332,315,305,310,1
327,313,306,307,1
318,313,306,305,1
311,314,306,303,1
308,314,305,300,1
307,313,304,296,1
303,312,301,291,1
300,310,298,286,1
302,308,295,281,1
307,307,295,280,1
313,307,294,282,1
316,309,295,286,1
318,311,297,291,1
318,313,299,297,1
317,316,302,301,1
316,316,303,304,1
315,316,304,306,1
314,314,303,307,1
312,311,302,306,1
309,308,299,304,1
305,305,294,301,1
301,301,290,299,1
299,297,288,296,1
298,294,288,295,1
298,292,292,297,1
299,292,297,303,1
302,294,302,310,1
307,298,307,315,1
312,304,310,319,1
314,311,311,318,1
313,316,308,316,1
311,319,305,313,1
313,320,301,310,1
317,320,296,306,1
321,318,292,303,1
323,316,289,298,1
323,313,285,294,1
318,312,281,291,1
313,312,277,291,1
308,314,277,296,1
305,316,279,303,1
303,317,284,311,1
301,318,291,319,1
302,316,300,326,1
304,315,308,332,1
306,314,316,336,1
308,313,321,337,1
309,311,325,334,1
312,309,327,324,1
315,307,326,313,1
318,304,323,301,1
320,303,318,291,1
318,302,314,285,1
312,304,311,281,1
303,306,308,280,1
295,310,306,280,1
293,314,305,281,1
299,317,305,282,1
307,319,306,285,1
313,319,306,288,1
316,318,306,289,1
321,315,306,291,1
327,313,305,291,1
333,311,303,291,1
336,310,301,293,1
332,309,299,297,1
322,309,299,300,1
309,309,299,305,1
295,311,300,312,1
287,312,302,320,1
285,311,305,329,1
288,310,307,337,1
296,310,310,343,1
303,311,311,346,1
305,311,312,345,1
306,310,313,342,1
308,311,313,338,1
312,313,310,333,1
315,316,304,328,1
318,316,299,322,1
318,313,295,315,1
316,310,294,306,1
314,307,294,299,1
312,306,296,294,1
311,307,297,292,1
310,309,299,292,1
308,309,300,295,1
308,309,302,299,1
310,308,302,304,1
313,308,303,308,1
314,309,304,311,1
313,309,304,313,1
313,309,301,313,1
314,309,296,310,1
318,310,290,306,1
322,310,285,303,1
324,310,283,300,1
325,311,286,299,1
324,310,292,297,1
322,309,300,297,1
320,307,305,297,1
315,304,308,297,1
308,302,308,298,1
302,300,305,298,1
296,298,302,299,1
294,296,300,300,1
293,295,299,299,1
294,295,299,299,1
303,297,301,298,1
318,300,303,298,1
333,302,305,297,1
340,304,306,296,1
341,305,308,296,1
337,307,309,297,1
328,310,309,298,1
318,313,310,300,1
307,315,309,300,1
298,317,308,300,1
290,318,306,298,1
286,319,304,297,1
285,318,301,297,1
289,317,299,299,1
297,316,297,305,1
301,314,296,313,1
300,313,296,322,1
294,311,295,330,1
286,311,294,333,1
282,311,291,333,1
287,311,290,331,1
297,310,289,328,1
307,310,289,322,1
313,309,290,317,1
317,309,293,312,1
319,311,297,308,1
324,313,301,306,1
329,316,304,304,1
335,318,307,301,1
339,318,309,297,1
340,316,310,296,1
335,313,310,294,1
327,310,308,293,1
320,307,305,292,1
314,304,301,292,1
309,300,297,292,1
306,297,296,295,1
310,296,296,299,1
315,297,299,305,1
316,298,302,313,1
313,301,304,317,1
308,303,305,317,1
305,306,305,312,1
304,308,304,306,1
305,309,304,301,1
306,310,305,296,1
308,311,306,291,1
308,311,306,287,1
308,310,305,283,1
308,310,305,280,1
309,309,305,278,1
312,308,306,278,1
318,307,308,280,1
326,307,311,283,1
334,306,312,288,1
343,305,312,294,1
350,304,310,300,1
351,302,307,308,1
343,302,302,316,1
330,303,297,323,1
315,306,291,330,1
304,309,287,338,1
300,313,286,344,1
302,317,286,347,1
304,319,289,344,1
306,320,292,336,1
304,318,297,325,1
301,315,301,314,1
298,311,305,304,1
295,308,307,296,1
294,304,308,291,1
293,302,310,288,1
293,300,312,287,1
292,302,314,287,1
289,304,316,291,1
282,306,318,295,1
273,307,319,299,1
264,308,318,305,1
263,308,316,312,1
269,308,315,318,1
281,309,314,322,1
298,310,312,324,1
313,310,310,323,1
322,311,306,320,1
323,310,304,317,1
321,310,302,313,1
323,310,301,310,1
327,310,301,308,1
332,310,300,306,1
336,310,300,305,1
338,311,301,307,1
337,312,301,309,1
334,312,302,313,1
330,311,304,317,1
327,310,306,323,1
325,309,307,328,1
324,308,307,329,1
325,307,308,325,1
328,305,307,317,1
332,304,304,307,1
336,302,298,300,1
339,301,292,294,1
338,300,287,289,1
334,300,284,287,1
328,301,285,286,1
322,303,289,286,1
319,305,295,285,1
319,308,300,282,1
322,311,304,280,1
328,313,308,280,1
334,313,311,280,1
335,313,312,281,1
328,312,312,283,1
313,309,311,285,1
299,306,309,288,1
290,304,307,293,1
287,302,307,297,1
286,300,307,301,1
288,299,309,303,1
294,298,311,304,1
299,298,314,304,1
305,299,315,304,1
308,301,316,303,1
309,304,315,302,1
307,307,315,303,1
306,310,315,305,1
306,311,314,309,1
304,312,311,313,1
301,312,307,317,1
296,311,305,321,1
291,310,303,323,1
284,308,303,322,1
279,306,303,318,1
278,304,302,312,1
279,302,300,305,1
280,299,297,301,1
281,297,294,299,1
281,296,290,300,1
285,295,289,303,1
295,296,288,307,1
306,299,290,312,1
317,302,292,315,1
324,304,294,316,1
328,305,296,316,1
328,306,299,314,1
327,307,303,310,1
327,308,308,304,1
327,308,312,299,1
327,308,315,296,1
326,309,319,297,1
324,309,323,299,1
321,308,325,302,1
318,308,327,305,1
313,307,326,307,1
309,306,325,309,1
305,305,324,311,1
306,304,323,311,1
313,304,321,311,1
321,305,317,311,1
328,305,313,310,1
327,304,308,307,1
322,303,303,304,1
316,302,298,301,1
310,301,294,296,1
304,300,291,291,1
297,300,289,287,1
292,300,289,284,1
292,302,292,283,1
297,305,297,284,1
303,309,304,284,1
308,312,310,284,1
314,312,312,284,1
317,311,313,284,1
322,308,312,286,1
326,306,312,289,1
327,305,313,294,1
326,304,314,299,1
326,304,315,304,1
329,304,317,308,1
337,304,319,310,1
345,303,320,311,1
348,302,321,312,1
343,301,320,314,1
331,298,317,315,1
316,296,312,314,1
301,294,306,311,1
290,292,301,306,1
281,290,297,300,1
275,290,295,294,1
272,294,294,290,1
270,299,297,291,1
271,305,301,297,1
281,310,306,305,1
292,313,310,314,1
301,314,312,320,1
308,314,313,324,1
311,313,314,326,1
312,312,314,326,1
310,310,314,328,1
305,310,314,329,1
300,310,313,329,1
298,311,312,327,1
299,310,312,322,1
303,309,310,316,1
306,307,307,307,1
309,306,304,296,1
310,304,301,285,1
311,304,298,277,1
309,303,298,272,1
307,303,299,270,1
305,302,300,270,1
304,301,302,271,1
303,299,304,272,1
304,298,305,274,1
305,296,307,275,1
306,294,309,278,1
305,294,310,282,1
307,295,312,287,1
310,295,315,293,1
315,295,318,298,1
319,297,319,303,1
322,299,318,308,1
325,301,315,313,1
325,304,311,316,1
323,307,308,320,1
317,310,307,324,1
308,312,307,327,1
296,313,307,329,1
286,313,308,329,1
277,313,309,326,1
270,312,308,319,1
270,311,306,308,1
280,308,305,298,1
294,305,304,290,1
308,302,304,287,1
318,299,303,286,1
325,297,304,288,1
329,296,305,291,1
330,296,306,294,1
328,297,307,298,1
321,300,308,301,1
313,303,308,304,1
308,305,308,306,1
304,306,308,309,1
300,306,308,314,1
297,306,308,319,1
298,305,309,325,1
303,306,309,328,1
310,307,308,329,1
312,308,304,328,1
310,308,299,324,1
305,308,292,319,1
300,307,287,314,1
297,307,284,310,1
296,306,284,308,1
296,305,287,310,1
300,305,292,313,1
305,305,298,317,1
310,305,304,321,1
315,306,308,322,1
318,307,311,320,1
318,308,313,315,1
317,308,314,309,1
316,307,315,301,1
315,306,316,295,1
315,305,317,290,1
318,305,318,287,1
321,304,317,286,1
321,301,315,289,1
317,299,312,296,1
311,298,309,306,1
307,298,308,316,1
307,298,308,324,1
310,297,308,328,1
313,296,308,328,1
315,296,308,328,1
316,296,308,327,1
317,297,308,327,1
319,299,308,326,1
320,301,308,326,1
322,304,306,323,1
324,305,303,320,1
324,307,299,314,1
321,307,296,307,1
316,308,295,300,1
311,308,298,293,1
306,308,302,288,1
302,307,305,286,1
298,307,308,285,1
295,307,309,288,1
294,307,310,292,1
295,307,310,297,1
297,307,309,301,1
300,305,308,303,1
303,303,306,304,1
304,300,305,304,1
303,297,305,304,1
302,297,305,302,1
300,297,305,300,1
300,298,306,298,1
301,300,306,298,1
307,303,307,296,1
317,305,307,294,1
326,306,306,291,1
328,307,304,288,1
326,307,302,284,1
324,306,301,281,1
322,306,299,279,1
319,306,298,278,1
314,306,298,280,1
309,305,299,284,1
304,304,298,288,1
298,303,298,292,1
293,302,297,295,1
289,300,297,298,1
290,299,299,300,1
296,298,301,302,1
306,299,303,304,1
313,300,305,306,1
316,301,306,309,1
315,302,309,311,1
313,305,312,312,1
313,307,315,313,1
312,308,317,314,1
311,309,317,315,1
311,309,316,315,1
312,308,313,315,1
315,307,308,314,1
317,307,302,314,1
321,306,296,315,1
326,305,290,315,1
331,305,285,316,1
333,304,282,317,1
328,302,283,318,1
318,300,287,318,1
305,298,294,319,1
294,297,301,320,1
287,297,309,321,1
288,298,316,321,1
294,300,322,319,1
301,301,326,316,1
305,303,328,313,1
306,304,328,310,1
305,306,326,310,1
301,307,324,312,1
296,308,321,314,1
292,310,317,317,1
291,312,313,318,1
289,314,309,318,1
289,314,306,314,1
293,312,304,310,1
301,311,304,302,1
310,308,305,294,1
316,305,305,288,1
320,303,304,285,1
322,300,301,284,1
325,298,300,283,1
329,297,299,281,1
333,297,300,281,1
337,298,301,282,1
338,300,302,284,1
332,303,302,286,1
319,307,301,288,1
304,310,299,291,1
291,313,297,294,1
281,315,296,299,1
276,316,296,302,1
272,314,297,303,1
277,310,297,302,1
288,306,298,302,1
300,303,298,302,1
307,301,300,304,1
312,300,300,304,1
315,300,301,305,1
320,299,302,305,1
323,299,303,307,1
323,299,305,310,1
320,300,307,313,1
321,302,309,316,1
325,304,311,318,1
327,306,312,318,1
325,308,312,318,1
321,308,312,316,1
314,307,311,313,1
308,305,309,308,1
304,302,307,302,1
302,299,304,294,1
301,297,302,286,1
301,294,301,279,1
301,293,300,272,1
303,293,299,270,1
307,295,299,271,1
310,298,301,276,1
314,301,303,283,1
317,303,305,293,1
317,304,308,303,1
316,305,310,314,1
315,304,311,321,1
314,303,309,325,1
313,302,306,325,1
313,303,302,322,1
310,303,299,319,1
302,304,297,316,1
291,304,296,313,1
280,305,294,310,1
280,307,292,309,1
286,308,290,307,1
292,308,289,308,1
295,308,290,309,1
302,308,293,311,1
309,308,299,312,1
315,307,304,310,1
318,306,308,307,1
318,305,310,302,1
317,303,311,297,1
316,302,312,291,1
315,301,314,287,1
315,302,316,288,1
316,303,318,296,1
318,303,320,304,1
318,303,321,312,1
316,303,322,318,1
312,304,321,319,1
306,305,319,315,1
301,305,317,309,1
298,306,313,302,1
297,308,309,294,1
298,308,306,288,1
299,308,304,283,1
301,308,302,279,1
302,307,300,275,1
302,305,298,273,1
303,303,296,271,1
305,301,296,271,1
308,300,298,272,1
312,299,299,276,1
315,297,300,280,1
317,296,301,286,1
316,296,303,294,1
313,297,305,301,1
307,300,309,308,1
303,303,313,314,1
300,307,317,318,1
303,311,320,319,1
314,314,321,319,1
325,317,322,317,1
328,317,321,313,1
323,316,318,306,1
315,312,314,299,1
308,308,308,294,1
303,305,303,291,1
301,303,299,289,1
301,301,298,289,1
303,300,299,290,1
305,300,301,292,1
306,299,302,296,1
306,298,304,301,1
304,298,305,307,1
303,300,307,313,1
300,300,309,318,1
294,302,310,321,1
288,305,309,321,1
288,307,306,318,1
290,309,303,316,1
293,311,302,317,1
295,313,304,318,1
300,314,307,317,1
304,313,309,313,1
307,312,308,310,1
307,311,307,308,1
306,310,304,309,1
307,310,302,310,1
308,310,300,311,1
310,310,300,313,1
313,310,302,315,1
315,308,305,319,1
317,307,308,322,1
319,306,311,324,1
318,306,314,324,1
316,307,314,323,1
313,309,313,324,1
308,311,311,327,1
303,314,308,329,1
300,316,307,329,1
301,317,306,328,1
306,317,307,324,1
318,315,310,317,1
329,312,313,306,1
336,308,314,296,1
334,306,314,289,1
324,304,314,287,1
312,301,312,286,1
304,299,310,284,1
305,297,308,282,1
311,296,306,280,1
314,295,305,277,1
313,294,303,275,1
311,294,302,273,1
309,294,299,275,1
308,295,298,278,1
305,296,297,281,1
303,297,297,286,1
301,299,298,291,1
300,301,302,295,1
298,302,306,299,1
296,304,311,301,1
294,306,315,301,1
293,309,319,303,1
294,312,320,305,1
295,314,319,307,1
297,314,318,310,1
299,314,317,313,1
300,313,317,315,1
300,311,315,315,1
296,308,312,314,1
293,305,308,313,1
296,302,306,312,1
301,300,308,310,1
303,298,310,308,1
303,298,314,305,1
303,299,317,304,1
306,300,318,302,1
310,301,317,300,1
312,301,316,298,1
315,302,314,297,1
318,303,312,297,1
320,305,310,300,1
321,308,308,305,1
319,310,306,309,1
315,311,305,313,1
311,312,303,318,1
308,312,302,322,1
306,311,300,325,1
305,310,298,324,1
305,308,296,320,1
308,306,294,315,1
310,305,293,311,1
312,304,293,309,1
312,304,295,308,1
308,303,298,308,1
305,304,302,309,1
304,305,307,308,1
305,307,312,307,1
306,308,315,305,1
306,308,317,304,1
305,308,318,306,1
304,307,319,309,1
304,307,319,313,1
304,307,319,318,1
305,308,317,321,1
309,308,314,323,1
314,307,309,321,1
319,306,302,316,1
323,305,296,310,1
323,303,292,301,1
318,301,292,293,1
313,299,296,288,1
309,299,302,287,1
308,300,308,290,1
309,301,312,295,1
310,303,315,302,1
310,306,317,310,1
305,310,316,318,1
299,313,314,325,1
293,315,311,330,1
288,315,310,333,1
285,315,310,335,1
282,314,311,334,1
281,312,312,329,1
281,310,311,321,1
282,307,310,310,1
284,305,309,299,1
285,304,308,288,1
283,302,306,279,1
280,301,304,272,1
281,298,303,269,1
288,296,303,268,1
296,294,303,270,1
302,293,306,276,1
308,293,311,283,1
313,295,315,293,1
317,297,319,302,1
321,300,321,309,1
324,304,320,314,1
325,307,318,318,1
323,311,316,320,1
320,314,313,319,1
315,317,310,316,1
311,317,305,313,1
308,316,301,309,1
305,315,299,305,1
303,313,296,300,1
304,309,293,294,1
311,304,290,290,1
317,300,287,287,1
320,296,285,287,1
320,293,285,289,1
318,291,289,291,1
317,290,294,294,1
317,292,299,297,1
317,295,303,298,1
318,298,307,299,1
317,302,309,298,1
313,305,310,298,1
309,307,309,299,1
305,309,309,301,1
304,311,309,303,1
303,312,309,304,1
304,313,309,304,1
308,314,310,305,1
314,315,310,308,1
319,316,311,311,1
323,315,311,314,1
323,313,310,316,1
321,312,307,316,1
319,310,303,314,1
314,307,298,312,1
306,305,292,309,1
299,304,287,308,1
294,304,284,308,1
291,304,285,307,1
290,305,288,306,1
290,305,294,305,1
294,304,300,303,1
301,303,307,303,1
306,300,313,301,1
310,298,318,300,1
311,298,321,298,1
307,299,322,298,1
301,301,323,297,1
295,303,322,297,1
292,304,321,299,1
293,305,319,300,1
296,304,318,301,1
299,303,317,302,1
301,302,316,304,1
304,301,314,307,1
309,300,314,310,1
314,299,314,313,1
319,298,314,316,1
322,298,314,319,1
321,298,315,320,1
317,299,315,319,1
312,299,315,318,1
305,300,314,319,1
299,302,312,322,1
295,304,311,328,1
292,307,310,332,1
292,309,308,333,1
295,310,305,330,1
298,309,301,324,1
300,307,299,317,1
302,305,299,311,1
305,303,303,310,1
308,301,307,309,1
310,298,311,308,1
311,297,314,305,1
311,294,316,301,1
311,293,316,297,1
311,292,315,296,1
311,294,314,295,1
312,297,313,294,1
315,300,312,294,1
319,303,311,293,1
322,306,310,292,1
323,307,310,292,1
323,307,308,291,1
319,306,307,289,1
313,305,306,286,1
305,304,306,284,1
295,303,307,286,1
286,303,307,290,1
279,303,307,295,1
278,304,307,300,1
285,305,306,306,1
298,306,304,310,1
310,307,302,313,1
316,307,300,314,1
315,306,298,313,1
310,306,299,310,1
306,307,301,308,1
306,308,305,306,1
310,309,309,304,1
315,310,311,301,1
317,310,311,297,1
317,310,310,293,1
315,309,307,291,1
309,307,304,289,1
302,306,300,288,1
296,305,296,289,1
294,303,292,290,1
294,300,288,290,1
297,298,286,290,1
302,295,285,290,1
307,293,287,290,1
312,293,292,290,1
313,293,298,293,1
312,294,304,297,1
311,295,309,301,1
312,297,312,306,1
313,300,316,311,1
314,304,319,314,1
315,306,320,315,1
315,309,321,316,1
315,312,322,317,1
314,314,322,318,1
314,314,322,318,1
313,314,321,316,1
312,314,318,312,1
310,312,314,307,1
309,310,311,303,1
309,309,309,303,1
312,309,309,306,1
318,309,308,312,1
322,309,309,319,1
325,308,309,328,1
324,308,311,336,1
322,308,313,343,1
319,307,314,346,1
315,307,315,346,1
311,307,315,342,1
306,306,312,336,1
302,305,308,329,1
301,306,304,320,1
303,307,299,312,1
307,309,295,305,1
310,311,293,301,1
311,313,294,296,1
309,314,297,292,1
306,314,302,289,1
302,312,307,287,1
303,309,311,286,1
308,306,312,286,1
314,303,312,288,1
316,300,313,292,1
315,298,313,296,1
312,297,312,299,1
308,296,309,299,1
305,296,305,299,1
303,297,302,298,1
299,298,300,297,1
293,298,300,295,1
285,299,303,295,1
278,300,306,294,1
278,300,309,295,1
287,301,312,297,1
299,302,315,299,1
309,302,318,301,1
316,303,321,304,1
318,303,322,306,1
316,303,322,307,1
310,303,320,307,1
299,303,317,307,1
287,303,313,308,1
280,302,311,308,1
282,301,310,309,1
290,302,308,310,1
300,301,304,311,1
309,300,300,313,1
318,301,297,314,1
327,301,295,314,1
332,302,294,312,1
334,304,296,311,1
334,307,301,309,1
334,309,306,307,1
335,310,308,302,1
333,310,310,298,1
331,310,310,295,1
327,309,311,293,1
322,308,311,292,1
315,306,310,293,1
309,304,309,295,1
305,303,310,297,1
301,303,310,300,1
298,302,310,302,1
297,300,309,303,1
297,299,308,304,1
299,298,308,306,1
303,299,308,307,1
306,300,310,309,1
308,302,312,311,1
309,304,314,313,1
309,306,315,315,1
310,307,315,318,1
311,307,314,323,1
312,307,311,329,1
313,307,307,335,1
313,306,304,340,1
314,305,302,343,1
317,303,302,342,1
319,303,304,336,1
321,303,307,323,1
321,302,308,308,1
320,300,308,295,1
316,299,308,285,1
311,297,308,280,1
307,297,307,278,1
304,297,306,278,1
303,298,304,280,1
303,302,304,284,1
304,307,303,288,1
305,312,304,293,1
306,315,305,298,1
308,318,308,301,1
307,320,311,303,1
303,322,314,306,1
298,323,315,311,1
292,323,315,316,1
287,323,313,319,1
283,320,310,320,1
281,318,307,318,1
283,315,305,313,1
285,311,303,308,1
291,308,303,303,1
302,306,304,301,1
314,305,305,301,1
321,305,307,303,1
324,304,307,304,1
323,304,307,304,1
323,306,308,302,1
322,309,309,300,1
321,311,310,297,1
318,313,310,294,1
315,315,311,291,1
313,315,311,289,1
311,315,310,285,1
309,315,309,282,1
306,314,309,280,1
304,314,309,278,1
303,313,309,278,1
302,313,308,280,1
302,313,308,284,1
304,313,308,287,1
306,311,308,291,1
308,309,307,294,1
312,307,307,298,1
315,306,306,302,1
318,306,304,306,1
320,305,302,309,1
321,306,302,313,1
321,308,303,315,1
317,310,306,316,1
311,311,309,313,1
307,311,312,310,1
302,311,315,309,1
294,311,316,307,1
284,310,316,306,1
279,310,315,303,1
281,308,310,300,1
288,307,303,298,1
298,305,296,295,1
308,304,291,292,1
318,303,289,290,1
323,301,290,290,1
324,299,291,293,1
321,297,294,296,1
316,297,300,301,1
312,297,307,304,1
309,300,313,304,1
308,303,317,305,1
306,307,319,306,1
305,311,319,309,1
305,315,318,311,1
306,317,316,312,1
307,320,314,310,1
307,321,312,307,1
305,321,309,304,1
302,320,307,301,1
299,319,306,300,1
296,317,307,301,1
295,315,308,304,1
297,314,309,309,1
301,313,309,313,1
307,311,310,316,1
313,308,309,317,1
317,304,309,317,1
318,301,308,318,1
317,299,307,318,1
315,300,307,316,1
314,302,307,312,1
313,304,308,308,1
312,308,309,306,1
307,311,310,302,1
303,313,310,297,1
303,315,310,292,1
304,315,309,293,1
303,315,308,299,1
302,315,307,308,1
302,315,307,318,1
303,315,308,324,1
304,315,308,328,1
304,315,309,329,1
304,314,309,330,1
304,313,309,329,1
305,312,308,328,1
306,311,307,325,1
309,309,306,322,1
312,307,306,318,1
315,306,305,316,1
317,306,304,315,1
318,306,303,313,1
317,307,302,311,1
313,308,302,308,1
307,308,300,304,1
304,308,298,300,1
305,308,296,294,1
308,307,294,288,1
309,306,294,282,1
308,306,297,279,1
306,305,301,278,1
306,305,307,279,1
306,304,311,280,1
305,303,314,282,1
306,302,314,284,1
309,300,314,288,1
311,300,313,291,1
314,299,312,294,1
314,300,313,299,1
314,303,314,306,1
313,306,317,313,1
311,309,321,321,1
308,312,324,328,1
306,314,323,332,1
303,315,319,333,1
300,317,313,333,1
295,317,307,331,1
291,317,303,328,1
290,315,300,325,1
294,313,300,321,1
299,311,303,316,1
302,309,306,311,1
306,308,309,306,1
310,307,312,300,1
311,305,312,293,1
312,304,312,287,1
313,302,311,284,1
316,301,310,284,1
320,301,308,285,1
323,301,308,288,1
325,301,309,291,1
322,300,310,295,1
316,300,311,297,1
309,301,312,299,1
302,302,312,301,1
297,304,313,303,1
292,307,312,305,1
290,309,311,305,1
295,310,310,305,1
305,310,310,305,1
314,309,310,306,1
319,309,309,307,1
323,308,309,308,1
325,308,309,309,1
324,307,310,312,1
323,306,310,316,1
321,304,310,322,1
320,303,311,326,1
319,302,311,329,1
316,302,311,328,1
313,303,312,325,1
310,305,312,321,1
308,307,313,315,1
306,309,314,309,1
304,311,314,304,1
304,313,313,300,1
304,314,311,299,1
304,314,308,301,1
306,314,306,304,1
310,314,307,309,1
316,314,309,313,1
321,313,309,313,1
325,312,307,310,1
330,309,303,306,1
334,305,299,302,1
333,300,296,300,1
328,297,294,299,1
320,294,294,298,1
311,294,298,298,1
305,296,303,299,1
302,298,310,301,1
300,301,315,303,1
299,303,319,305,1
299,306,319,307,1
299,308,316,308,1
297,309,312,307,1
295,309,308,306,1
294,309,306,307,1
294,309,308,309,1
293,309,312,311,1
290,309,313,312,1
286,308,313,311,1
281,306,312,310,1
279,304,310,308,1
279,303,307,306,1
282,302,306,304,1
288,301,309,303,1
299,300,315,305,1
310,299,322,310,1
318,300,326,315,1
316,301,330,317,1
307,304,332,319,1
298,307,334,321,1
290,311,334,323,1
286,313,333,322,1
284,314,330,318,1
287,315,326,312,1
294,314,323,306,1
303,313,319,301,1
310,310,314,296,1
314,307,308,292,1
316,304,303,288,1
318,303,300,286,1
320,302,299,285,1
322,301,299,283,1
325,299,299,283,1
330,298,300,284,1
337,297,301,288,1
344,296,302,294,1
346,296,304,300,1
342,297,306,306,1
331,298,309,311,1
319,300,312,314,1
309,302,313,315,1
300,302,314,314,1
293,302,312,314,1
288,303,310,314,1
285,305,308,317,1
284,307,307,319,1
285,310,307,321,1
287,313,309,325,1
290,316,310,330,1
296,317,311,336,1
302,316,311,340,1
308,314,309,340,1
311,310,307,337,1
314,307,305,332,1
313,304,303,323,1
311,303,299,312,1
308,303,294,299,1
307,303,291,288,1
307,304,291,280,1
307,305,293,276,1
306,306,298,275,1
306,307,305,276,1
307,308,313,279,1
308,309,319,283,1
308,310,322,288,1
304,311,324,292,1
300,311,324,298,1
293,311,323,304,1
286,310,323,308,1
282,309,322,310,1
281,308,320,309,1
281,307,318,307,1
281,306,316,304,1
284,304,314,300,1
291,303,312,295,1
301,302,310,291,1
309,302,309,289,1
313,302,308,289,1
312,304,309,293,1
308,306,311,297,1
304,307,313,304,1
301,308,314,309,1
298,309,313,314,1
297,310,312,318,1
297,310,308,319,1
300,310,305,319,1
301,310,302,318,1
304,309,299,313,1
309,308,299,307,1
318,306,301,302,1
323,304,304,298,1
324,301,306,294,1
319,298,307,293,1
313,297,308,293,1
308,297,311,297,1
306,298,314,303,1
305,301,316,309,1
305,304,317,314,1
306,306,316,316,1
310,308,314,317,1
319,309,312,316,1
328,310,310,314,1
333,310,307,312,1
332,311,305,311,1
328,312,303,309,1
324,313,302,309,1
321,313,302,310,1
321,314,303,314,1
322,314,303,319,1
322,314,302,325,1
322,313,300,329,1
319,311,299,334,1
315,309,297,337,1
311,306,296,337,1
306,302,295,334,1
300,298,297,331,1
293,296,300,328,1
288,295,305,324,1
286,297,311,318,1
286,299,316,310,1
288,302,319,302,1
289,305,320,294,1
291,306,320,287,1
293,306,318,281,1
293,307,317,278,1
295,307,314,277,1
297,306,310,278,1
298,306,304,280,1
299,306,296,282,1
297,305,290,284,1
291,304,286,287,1
286,303,285,293,1
285,302,287,301,1
284,301,291,309,1
285,300,298,318,1
289,300,305,326,1
297,301,313,333,1
305,302,319,339,1
311,303,322,341,1
315,305,322,340,1
317,306,319,333,1
318,307,314,325,1
317,306,310,317,1
315,307,307,310,1
313,307,307,304,1
310,308,309,298,1
307,308,311,292,1
302,307,313,286,1
298,306,314,280,1
294,304,313,277,1
293,303,313,277,1
295,301,312,280,1
300,300,311,285,1
305,297,309,292,1
308,295,307,298,1
311,292,306,301,1
312,292,305,304,1
311,291,306,307,1
309,293,308,310,1
308,295,311,314,1
310,300,313,317,1
316,304,314,320,1
325,308,315,323,1
332,311,315,326,1
333,314,315,330,1
326,315,314,333,1
314,315,312,336,1
305,313,309,337,1
299,310,307,336,1
302,306,305,331,1
311,302,305,324,1
321,299,305,316,1
327,295,305,307,1
330,293,304,301,1
329,292,303,298,1
326,293,302,296,1
320,295,302,295,1
315,298,302,296,1
311,302,302,297,1
312,305,302,296,1
316,307,302,295,1
316,308,304,295,1
313,308,306,295,1
307,308,307,295,1
300,309,307,297,1
292,309,306,301,1
284,310,305,308,1
278,310,305,316,1
279,309,305,323,1
288,308,308,329,1
299,305,312,331,1
306,302,313,329,1
308,300,310,326,1
308,298,304,323,1
307,298,299,320,1
306,300,296,319,1
307,302,297,318,1
310,304,301,318,1
317,307,307,319,1
323,310,313,321,1
325,312,316,321,1
325,314,317,320,1
322,315,317,319,1
321,316,316,319,1
321,315,315,321,1
320,314,315,323,1
318,313,314,324,1
314,311,313,322,1
308,309,310,318,1
300,306,306,311,1
298,304,301,304,1
300,301,296,298,1
306,298,293,293,1
311,296,292,289,1
313,294,294,287,1
315,292,299,287,1
318,292,304,288,1
320,293,309,291,1
320,296,313,295,1
320,298,316,297,1
319,301,318,298,1
318,303,318,297,1
316,303,316,295,1
317,302,314,292,1
321,303,312,290,1
325,303,310,291,1
326,303,309,294,1
323,304,307,296,1
318,304,307,297,1
314,304,306,296,1
311,304,305,295,1
305,304,304,294,1
298,304,304,293,1
291,304,303,293,1
287,303,301,295,1
287,303,299,297,1
290,302,297,299,1
294,301,296,300,1
297,302,298,299,1
300,303,301,299,1
301,306,306,299,1
304,308,311,299,1
307,309,315,300,1
308,310,318,302,1
306,310,318,303,1
299,311,317,303,1
285,310,315,303,1
270,310,313,302,1
261,309,311,302,1
257,309,309,302,1
259,308,305,302,1
264,308,303,303,1
273,307,302,305,1
287,307,302,310,1
301,306,303,319,1
312,305,305,331,1
319,304,307,343,1
321,303,309,352,1
321,302,312,356,1
320,302,314,356,1
318,302,316,351,1
317,304,317,345,1
318,306,318,336,1
317,309,318,327,1
316,312,317,318,1
315,315,315,310,1
316,317,314,303,1
319,318,313,298,1
321,317,313,294,1
319,316,310,291,1
315,313,305,290,1
310,309,298,289,1
306,304,292,291,1
305,302,288,294,1
307,300,288,300,1
311,300,290,307,1
313,299,296,314,1
311,298,302,318,1
306,298,308,319,1
303,299,312,317,1
303,300,314,313,1
302,302,314,308,1
300,303,312,303,1
298,304,310,299,1
300,306,309,297,1
305,308,307,297,1
308,310,305,298,1
308,311,303,300,1
307,312,302,301,1
305,311,304,302,1
303,310,306,299,1
302,307,307,295,1
302,303,308,291,1
303,300,308,288,1
306,297,310,288,1
311,295,310,291,1
315,294,311,293,1
318,295,312,296,1
317,297,313,298,1
314,301,313,299,1
307,304,313,300,1
300,308,313,301,1
292,310,311,301,1
286,311,310,299,1
281,312,308,298,1
278,312,306,298,1
280,311,305,298,1
286,311,305,298,1
294,309,305,298,1
300,308,307,298,1
306,306,308,299,1
312,305,309,300,1
315,304,310,302,1
317,303,310,304,1
317,303,310,307,1
316,304,310,311,1
312,304,310,313,1
307,304,309,314,1
302,305,309,314,1
300,306,309,315,1
301,307,309,316,1
304,308,308,317,1
307,309,307,318,1
307,310,307,319,1
307,311,307,321,1
304,312,306,322,1
299,313,306,323,1
293,313,306,323,1
289,313,306,324,1
290,312,307,324,1
299,310,308,324,1
313,307,307,323,1
328,304,307,320,1
335,301,306,319,1
333,298,306,317,1
326,297,306,315,1
318,297,306,311,1
311,299,306,307,1
305,302,306,304,1
300,305,306,302,1
297,309,303,301,1
296,312,297,299,1
296,314,291,298,1
297,316,287,299,1
297,316,287,303,1
300,315,289,309,1
305,313,295,316,1
312,310,302,323,1
319,307,310,329,1
322,305,314,333,1
324,303,317,335,1
326,302,318,336,1
325,303,315,339,1
320,305,312,339,1
313,308,308,337,1
306,309,305,332,1
303,310,304,325,1
301,310,304,317,1
299,310,306,308,1
296,311,308,301,1
292,311,310,295,1
289,311,312,292,1
288,310,313,291,1
289,309,313,290,1
290,308,313,290,1
290,308,311,290,1
292,308,310,290,1
295,308,308,291,1
294,307,308,292,1
290,307,307,292,1
288,305,307,293,1
290,304,306,293,1
294,302,305,293,1
299,301,305,293,1
305,300,305,293,1
312,299,305,294,1
315,300,306,295,1
317,301,307,297,1
316,302,308,298,1
313,303,310,299,1
309,304,312,300,1
305,305,314,301,1
304,306,316,302,1
305,306,316,303,1
305,307,316,303,1
306,307,314,304,1
309,308,313,305,1
312,309,311,306,1
314,309,308,307,1
315,308,305,308,1
317,306,302,309,1
320,304,301,308,1
323,302,300,307,1
326,299,299,306,1
325,297,299,304,1
317,295,299,304,1
307,295,300,304,1
300,295,302,305,1
296,297,304,307,1
298,300,306,309,1
303,302,307,312,1
305,304,307,314,1
305,306,308,316,1
304,309,308,318,1
303,311,308,319,1
304,313,309,319,1
305,314,309,318,1
304,316,309,316,1
302,317,309,315,1
299,317,309,316,1
298,316,309,317,1
298,314,309,320,1
299,312,308,323,1
301,308,308,324,1
303,304,308,325,1
305,301,309,324,1
303,300,310,322,1
304,300,311,317,1
307,301,312,310,1
312,303,313,302,1
315,304,312,297,1
317,307,306,292,1
318,308,298,289,1
318,310,287,290,1
316,311,279,292,1
313,311,275,295,1
309,311,279,298,1
306,310,288,301,1
302,309,299,303,1
298,307,309,305,1
296,306,316,306,1
295,304,321,309,1
296,303,322,314,1
299,303,323,320,1
302,302,322,328,1
302,302,321,334,1
301,302,320,337,1
299,303,320,334,1
299,304,318,330,1
299,305,318,325,1
301,306,319,318,1
303,307,320,311,1
304,307,321,304,1
305,308,322,299,1
302,308,322,297,1
297,308,322,296,1
289,308,321,296,1
284,308,320,297,1
282,308,319,299,1
283,308,318,301,1
287,307,318,303,1
296,307,317,304,1
305,306,317,304,1
316,306,316,304,1
325,305,316,304,1
331,304,316,304,1
332,304,316,305,1
329,305,317,308,1
323,306,318,313,1
318,307,319,319,1
315,309,319,327,1
315,311,319,334,1
314,312,319,339,1
310,313,320,339,1
303,314,320,334,1
297,316,321,326,1
292,318,321,318,1
289,320,320,311,1
288,319,318,305,1
289,318,316,299,1
292,315,315,296,1
297,313,314,296,1
300,309,313,298,1
301,307,311,303,1
301,305,310,309,1
302,305,311,314,1
304,306,312,318,1
304,308,312,319,1
300,309,311,318,1
298,310,308,316,1
298,311,306,313,1
299,312,305,309,1
300,312,306,304,1
300,310,309,299,1
299,308,312,293,1
299,306,314,286,1
298,303,316,279,1
299,301,317,275,1
301,302,316,273,1
304,303,316,274,1
307,304,316,275,1
309,305,315,277,1
310,307,315,279,1
311,307,315,282,1
311,306,314,286,1
312,305,314,291,1
312,304,314,296,1
313,304,314,301,1
315,306,316,306,1
318,308,318,311,1
319,310,319,313,1
317,313,319,312,1
314,315,319,310,1
309,316,319,308,1
303,317,319,307,1
295,316,316,307,1
288,314,311,308,1
283,312,304,311,1
283,310,299,314,1
288,309,295,316,1
294,310,293,319,1
300,311,294,320,1
303,312,297,319,1
305,312,301,317,1
310,312,305,317,1
316,311,310,319,1
321,311,315,320,1
320,311,318,318,1
315,311,319,314,1
310,310,319,307,1
308,310,318,302,1
309,310,317,299,1
310,310,316,298,1
311,310,314,299,1
311,311,312,301,1
309,312,310,304,1
307,313,308,308,1
304,313,307,311,1
300,313,307,312,1
297,312,306,311,1
293,311,304,308,1
291,309,301,303,1
292,306,299,299,1
294,304,298,297,1
296,303,301,298,1
298,303,304,302,1
302,303,307,306,1
301,304,309,312,1
296,305,311,316,1
293,307,311,319,1
294,310,312,320,1
301,312,310,320,1
310,314,309,319,1
318,316,309,318,1
325,317,309,319,1
331,318,310,318,1
333,318,310,317,1
331,317,310,316,1
324,315,310,314,1
318,313,309,311,1
314,311,307,306,1
310,309,303,299,1
306,307,299,294,1
304,305,297,290,1
303,305,297,290,1
305,304,298,293,1
307,304,302,299,1
310,304,307,308,1
311,304,313,316,1
312,305,316,321,1
311,307,317,323,1
310,307,316,323,1
308,308,314,321,1
305,307,311,319,1
301,307,308,316,1
298,307,305,311,1
295,307,304,306,1
294,307,302,301,1
293,307,301,296,1
291,305,300,292,1
292,303,298,288,1
298,301,297,285,1
303,299,296,283,1
310,298,294,283,1
315,298,293,284,1
319,298,293,285,1
319,299,292,287,1
316,299,291,290,1
314,300,292,294,1
313,301,294,298,1
312,304,299,302,1
313,306,304,306,1
313,307,308,308,1
315,308,311,309,1
315,309,312,308,1
315,310,312,308,1
312,312,311,305,1
306,313,307,301,1
298,313,303,296,1
289,312,298,291,1
283,311,294,289,1
285,309,291,289,1
295,307,292,291,1
306,305,294,293,1
313,303,299,297,1
317,303,304,303,1
320,303,309,309,1
321,304,313,315,1
325,306,316,322,1
328,309,319,328,1
330,311,319,333,1
328,313,319,336,1
323,314,317,336,1
319,316,315,336,1
316,316,313,336,1
315,315,311,332,1
314,314,308,326,1
309,312,306,318,1
302,311,303,308,1
293,308,300,299,1
286,305,298,291,1
280,302,297,288,1
277,300,297,287,1
278,299,299,289,1
282,298,302,292,1
288,298,304,295,1
292,298,306,297,1
294,299,306,296,1
294,299,308,294,1
297,300,308,292,1
304,300,309,291,1
309,301,307,290,1
312,302,305,292,1
315,304,303,295,1
318,305,302,301,1
321,306,303,310,1
323,308,306,320,1
326,310,309,330,1
326,311,311,335,1
322,311,312,337,1
315,311,313,336,1
305,309,313,334,1
296,308,314,329,1
287,306,313,324,1
284,305,313,318,1
285,305,312,313,1
291,304,311,309,1
298,304,310,306,1
306,305,308,304,1
315,306,305,304,1
319,307,303,305,1
315,309,302,306,1
308,311,302,307,1
302,312,302,308,1
297,313,303,307,1
295,313,304,306,1
299,313,304,305,1
305,311,305,302,1
309,308,305,299,1
312,304,304,296,1
312,301,302,296,1
310,298,300,297,1
308,296,298,300,1
308,294,297,302,1
308,294,297,300,1
311,295,300,298,1
317,297,303,297,1
324,300,305,296,1
327,304,305,296,1
323,307,302,295,1
314,309,298,295,1
307,310,293,296,1
304,310,289,298,1
304,310,286,300,1
306,311,287,305,1
308,311,291,310,1
308,312,298,316,1
306,312,305,323,1
302,313,312,328,1
296,313,317,330,1
288,313,320,329,1
282,312,321,324,1
275,310,320,318,1
270,306,318,310,1
270,302,317,304,1
275,299,316,300,1
284,298,314,298,1
295,297,311,296,1
304,298,309,296,1
310,300,305,297,1
314,303,303,298,1
316,306,302,300,1
316,308,304,304,1
314,310,308,307,1
311,310,311,310,1
306,310,314,312,1
300,309,316,313,1
298,308,316,312,1
298,307,316,311,1
298,306,316,308,1
297,306,314,306,1
293,305,312,303,1
289,304,311,301,1
285,303,311,302,1
281,303,312,303,1
278,303,313,306,1
277,304,314,309,1
279,305,315,310,1
288,307,316,311,1
301,309,315,313,1
316,310,314,314,1
326,311,314,313,1
329,313,315,312,1
327,315,315,310,1
322,316,315,308,1
318,317,313,307,1
316,316,309,305,1
318,315,305,301,1
320,313,303,297,1
318,311,302,292,1
314,308,302,290,1
311,306,304,288,1
309,304,305,288,1
308,302,307,289,1
307,301,308,291,1
307,299,309,295,1
307,299,310,302,1
309,300,311,310,1
311,301,312,317,1
312,302,312,322,1
313,302,313,324,1
312,303,313,324,1
311,303,314,322,1
308,304,314,319,1
305,304,314,314,1
303,304,314,311,1
303,305,313,306,1
304,307,311,302,1
304,308,307,300,1
305,309,304,300,1
304,310,301,303,1
304,310,299,309,1
305,309,302,315,1
307,309,306,320,1
308,308,313,323,1
309,309,320,324,1
310,309,326,323,1
311,309,329,320,1
312,309,330,317,1
312,308,330,312,1
310,308,329,307,1
306,307,325,301,1
303,307,319,297,1
302,305,313,292,1
303,304,308,288,1
305,303,305,285,1
305,302,302,283,1
302,302,300,283,1
296,302,298,283,1
289,302,296,286,1
281,303,293,288,1
275,302,291,290,1
274,301,290,290,1
281,300,292,288,1
293,299,299,287,1
308,299,305,287,1
319,299,311,289,1
323,301,317,292,1
320,303,320,295,1
313,306,322,298,1
308,308,323,300,1
306,310,323,300,1
304,311,321,300,1
302,311,318,300,1
302,312,314,301,1
304,312,311,301,1
309,313,307,301,1
317,313,304,302,1
329,313,300,302,1
336,313,299,302,1
337,313,298,300,1
332,312,299,299,1
326,309,301,301,1
320,307,304,304,1
316,305,308,309,1
314,305,312,316,1
314,306,315,321,1
312,306,318,324,1
309,307,320,325,1
306,309,320,323,1
302,309,319,319,1
299,309,316,313,1
298,308,314,308,1
299,309,311,303,1
299,309,309,303,1
300,310,308,304,1
302,311,308,307,1
303,311,308,310,1
305,311,308,312,1
308,310,309,314,1
311,309,308,316,1
313,308,307,319,1
314,306,306,324,1
313,304,305,330,1
312,303,306,335,1
311,302,306,337,1
310,300,306,336,1
308,300,305,333,1
304,301,305,327,1
299,304,305,320,1
295,306,304,311,1
292,308,303,304,1
294,310,304,301,1
296,312,305,303,1
299,313,305,307,1
299,315,303,310,1
296,315,299,311,1
294,315,295,309,1
296,315,291,305,1
301,315,290,300,1
305,314,291,293,1
307,312,295,287,1
309,310,301,283,1
311,308,306,283,1
314,307,310,285,1
316,305,313,289,1
315,304,315,294,1
311,303,317,298,1
308,303,317,302,1
308,305,317,304,1
310,306,317,304,1
313,309,317,302,1
317,310,316,300,1
320,312,316,299,1
321,313,315,298,1
319,313,315,299,1
315,313,313,298,1
309,311,310,297,1
305,309,306,295,1
303,307,302,293,1
303,306,298,290,1
304,304,295,288,1
303,302,293,288,1
301,300,294,291,1
298,297,296,296,1
298,295,298,300,1
302,294,300,304,1
313,294,302,308,1
325,296,305,311,1
337,300,309,313,1
342,304,313,314,1
339,308,317,313,1
327,311,319,311,1
311,313,320,308,1
297,312,320,305,1
287,311,319,301,1
284,310,318,298,1
290,308,316,297,1
299,307,314,295,1
307,306,313,292,1
311,305,312,289,1
311,304,312,288,1
310,304,311,289,1
309,303,311,290,1
309,303,311,294,1
311,303,312,297,1
313,302,311,300,1
315,302,311,304,1
316,302,310,308,1
314,303,309,312,1
310,304,308,315,1
305,306,306,318,1
301,308,305,320,1
298,310,305,323,1
296,311,305,325,1
294,312,305,326,1
292,313,305,325,1
291,313,305,322,1
294,312,304,320,1
299,311,304,318,1
302,310,302,315,1
303,309,301,311,1
300,308,300,308,1
296,307,300,304,1
291,306,300,301,1
289,305,302,299,1
290,305,302,301,1
294,305,303,304,1
298,307,303,309,1
302,309,301,316,1
306,310,298,321,1
309,311,295,325,1
311,312,293,327,1
312,312,292,328,1
313,313,294,330,1
313,314,299,331,1
313,315,305,330,1
314,315,310,327,1
317,315,313,322,1
320,315,314,316,1
322,314,312,309,1
323,312,307,302,1
326,309,302,297,1
330,306,296,295,1
332,304,292,294,1
331,302,290,295,1
325,301,291,297,1
316,301,295,299,1
307,302,301,298,1
300,304,307,296,1
294,306,312,294,1
289,309,316,291,1
286,311,317,288,1
285,313,317,285,1
285,312,316,283,1
286,310,314,283,1
288,307,312,285,1
287,306,311,288,1
287,305,310,292,1
288,305,308,296,1
289,304,307,298,1
290,303,306,299,1
292,302,305,301,1
295,301,307,303,1
299,300,308,304,1
299,300,309,307,1
296,301,309,308,1
295,302,310,309,1
300,305,311,309,1
311,307,313,308,1
322,310,315,307,1
331,313,316,305,1
333,314,316,303,1
325,314,315,302,1
313,314,314,300,1
300,313,313,299,1
290,313,312,298,1
282,313,311,299,1
275,312,310,301,1
270,311,307,304,1
270,309,305,304,1
275,307,304,303,1
282,305,304,301,1
292,303,304,300,1
300,300,306,301,1
304,299,309,302,1
306,299,311,305,1
306,300,312,308,1
305,302,313,312,1
306,305,314,317,1
310,307,316,320,1
316,310,317,324,1
321,312,318,326,1
322,313,317,324,1
320,313,315,319,1
318,313,313,312,1
314,312,310,305,1
310,312,307,300,1
308,311,302,299,1
307,309,295,300,1
306,307,288,300,1
306,305,283,300,1
305,304,280,299,1
307,302,281,300,1
310,302,286,301,1
313,302,293,305,1
316,303,298,308,1
317,304,300,311,1
317,305,298,313,1
317,307,292,315,1
318,308,288,320,1
322,309,286,327,1
325,310,289,334,1
325,310,295,339,1
323,311,303,339,1
318,311,310,335,1
312,312,314,328,1
306,312,317,318,1
300,311,318,306,1
295,310,318,296,1
291,310,317,288,1
289,309,316,284,1
289,308,314,283,1
291,307,313,282,1
296,305,311,282,1
302,303,310,282,1
306,301,308,282,1
307,299,305,282,1
308,299,304,282,1
310,299,303,281,1
308,300,303,279,1
302,301,304,277,1
294,302,304,278,1
286,303,304,280,1
281,304,306,283,1
278,305,307,287,1
280,306,308,290,1
286,307,309,292,1
292,308,309,292,1
297,307,309,292,1
300,307,308,291,1
300,305,307,290,1
298,303,306,290,1
297,302,304,291,1
295,301,304,293,1
294,300,304,296,1
293,300,304,300,1
292,302,305,305,1
291,304,306,310,1
292,307,308,315,1
294,310,308,319,1
296,313,309,322,1
298,314,309,324,1
299,314,310,324,1
301,314,311,324,1
304,313,311,323,1
307,312,311,324,1
308,311,312,325,1
307,309,313,327,1
305,308,314,330,1
302,307,314,332,1
302,306,313,332,1
306,305,312,331,1
310,303,310,328,1
313,302,308,325,1
313,302,307,321,1
313,303,307,319,1
315,304,307,320,1
319,306,309,324,1
324,307,310,327,1
326,309,310,328,1
324,310,308,324,1
318,310,306,318,1
313,309,303,312,1
310,309,301,308,1
310,309,299,306,1
309,311,298,304,1
309,312,297,300,1
309,312,296,297,1
308,312,295,293,1
304,311,293,291,1
298,310,292,289,1
291,307,291,291,1
284,304,289,293,1
279,301,289,295,1
278,298,289,297,1
282,297,291,299,1
287,298,295,301,1
291,299,301,304,1
294,301,307,307,1
297,304,313,313,1
299,306,318,321,1
299,308,321,330,1
297,310,322,336,1
295,310,322,339,1
294,309,321,337,1
294,309,319,330,1
295,307,315,322,1
296,306,313,315,1
298,307,312,310,1
301,307,311,307,1
303,307,309,304,1
304,306,305,301,1
305,305,302,299,1
305,303,300,298,1
306,301,299,297,1
309,298,299,297,1
312,298,301,298,1
311,299,303,298,1
305,302,306,297,1
296,305,308,296,1
288,307,309,297,1
284,309,310,299,1
285,310,310,301,1
288,311,309,304,1
291,311,308,307,1
297,311,307,311,1
303,309,306,314,1
309,308,306,316,1
314,307,304,315,1
317,305,303,312,1
320,304,301,306,1
320,302,301,301,1
319,300,301,299,1
314,298,301,298,1
309,296,301,300,1
303,296,302,303,1
298,297,302,308,1
295,298,302,314,1
296,299,303,320,1
299,301,303,326,1
303,302,303,331,1
308,304,304,334,1
315,306,305,335,1
321,308,307,333,1
327,309,308,329,1
331,310,308,325,1
330,310,308,319,1
326,309,307,314,1
320,307,306,309,1
314,305,303,305,1
309,303,301,301,1
306,300,300,298,1
306,298,301,296,1
307,296,302,296,1
307,295,305,297,1
308,294,304,299,1
308,295,303,304,1
307,296,301,311,1
307,298,301,316,1
307,300,302,319,1
306,301,305,320,1
307,302,306,319,1
307,303,306,316,1
307,303,305,311,1
307,303,303,307,1
309,304,303,304,1
311,304,304,300,1
313,303,307,298,1
314,303,311,296,1
312,302,315,295,1
306,299,317,295,1
298,297,317,295,1
292,296,316,295,1
290,294,314,296,1
293,293,313,298,1
303,293,314,301,1
319,294,314,304,1
333,297,314,308,1
337,300,313,313,1
330,303,310,318,1
315,305,307,323,1
296,306,305,327,1
278,307,303,331,1
264,307,303,335,1
257,306,303,339,1
259,307,304,341,1
270,307,306,342,1
286,310,308,340,1
301,312,310,337,1
313,312,310,331,1
320,310,310,326,1
327,308,309,319,1
332,306,309,312,1
333,304,308,310,1
329,303,309,312,1
323,302,310,316,1
317,303,311,320,1
313,305,312,324,1
310,307,313,326,1
307,309,312,325,1
306,310,310,322,1
307,312,309,320,1
308,314,308,318,1
309,314,307,315,1
307,314,306,312,1
305,313,303,309,1
305,311,301,305,1
306,310,299,300,1
307,308,297,297,1
307,306,294,295,1
309,304,292,295,1
312,302,291,295,1
316,300,291,298,1
319,298,293,300,1
319,298,296,302,1
317,298,299,302,1
313,298,303,302,1
308,299,306,302,1
302,301,310,304,1
298,304,311,307,1
295,307,311,309,1
297,309,311,309,1
305,311,310,308,1
313,312,308,307,1
318,312,307,307,1
319,312,305,306,1
318,310,304,304,1
315,309,303,303,1
313,309,301,301,1
311,309,299,299,1
308,308,296,298,1
304,307,293,298,1
298,306,292,299,1
292,305,292,302,1
290,304,294,305,1
294,304,299,307,1
299,304,302,308,1
303,305,304,309,1
304,307,303,309,1
303,310,301,310,1
302,312,298,310,1
302,313,296,309,1
302,313,298,308,1
304,313,302,309,1
307,312,307,311,1
309,312,311,312,1
310,311,313,312,1
308,310,313,312,1
305,309,312,312,1
303,307,310,311,1
304,306,306,310,1
306,304,304,309,1
309,303,302,307,1
311,303,302,307,1
313,303,303,309,1
316,303,307,312,1
318,304,311,315,1
317,304,315,318,1
314,305,318,321,1
310,307,320,323,1
305,309,319,324,1
303,310,318,324,1
306,312,318,324,1
310,313,317,323,1
313,314,315,321,1
315,314,312,318,1
314,314,309,314,1
311,314,307,311,1
310,314,306,310,1
310,313,305,311,1
309,311,305,315,1
309,309,306,320,1
312,307,307,324,1
316,305,309,326,1
322,303,311,328,1
324,301,312,329,1
323,301,313,326,1
317,302,312,320,1
313,303,311,313,1
311,306,309,304,1
312,308,307,296,1
313,309,306,288,1
313,309,305,282,1
312,309,305,279,1
310,309,304,277,1
307,308,304,277,1
301,307,304,278,1
295,306,304,282,1
293,306,304,287,1
293,305,303,293,1
289,304,303,297,1
282,303,303,299,1
278,302,303,302,1
278,302,304,307,1
283,303,305,313,1
290,305,306,319,1
297,306,305,323,1
303,307,304,324,1
308,309,303,323,1
309,311,303,321,1
308,313,304,317,1
309,315,306,313,1
310,316,309,308,1
310,316,311,303,1
308,316,313,299,1
308,315,314,297,1
309,315,315,297,1
309,315,316,300,1
311,315,316,306,1
312,315,315,313,1
313,315,312,318,1
311,314,307,322,1
307,311,301,323,1
303,309,296,324,1
301,307,293,322,1
301,305,293,318,1
302,305,295,313,1
305,305,300,307,1
309,306,306,303,1
313,308,311,301,1
315,308,315,299,1
315,309,317,299,1
311,309,318,301,1
307,309,319,304,1
302,310,319,309,1
301,310,319,315,1
301,310,318,321,1
302,310,316,326,1
302,310,315,328,1
302,309,314,329,1
301,308,313,328,1
300,306,312,327,1
299,304,311,325,1
299,303,310,325,1
299,304,310,324,1
300,305,309,321,1
303,306,308,317,1
309,307,307,311,1
316,308,306,304,1
324,308,305,297,1
329,307,305,292,1
330,306,306,288,1
326,305,306,286,1
316,304,305,286,1
304,304,304,287,1
290,304,302,289,1
283,304,299,293,1
286,305,297,297,1
295,306,296,304,1
303,307,297,312,1
306,308,300,319,1
307,307,303,323,1
305,307,305,322,1
303,305,307,318,1
303,305,309,313,1
303,305,311,308,1
303,305,312,304,1
304,306,313,302,1
305,308,315,301,1
307,310,318,300,1
307,313,320,301,1
306,315,319,302,1
305,316,317,305,1
305,316,315,306,1
304,314,313,308,1
304,313,312,309,1
304,312,308,308,1
303,311,303,305,1
303,309,297,301,1
303,307,292,295,1
301,305,290,290,1
299,303,292,288,1
299,301,294,291,1
299,300,297,297,1
299,300,299,305,1
298,301,302,312,1
299,303,305,317,1
300,306,310,322,1
301,309,315,324,1
301,311,318,325,1
304,313,321,322,1
305,314,322,317,1
305,315,323,311,1
303,316,322,305,1
301,315,321,301,1
300,315,319,298,1
299,314,317,297,1
296,313,313,298,1
293,312,308,300,1
290,310,303,301,1
289,308,301,303,1
295,306,299,304,1
304,305,297,305,1
311,303,294,303,1
316,301,289,301,1
319,300,286,298,1
320,298,284,297,1
322,298,285,298,1
324,299,288,300,1
328,301,295,303,1
332,302,301,304,1
333,304,305,306,1
330,305,308,306,1
323,306,312,307,1
315,306,314,306,1
307,306,315,305,1
301,304,315,304,1
300,303,313,305,1
301,302,310,307,1
305,301,306,310,1
311,300,301,313,1
317,299,298,317,1
324,298,297,321,1
328,298,300,324,1
325,298,303,325,1
318,299,308,326,1
309,302,312,325,1
301,304,314,322,1
295,307,315,317,1
291,309,315,313,1
293,310,314,309,1
297,311,313,307,1
300,312,313,307,1
302,314,313,308,1
303,316,313,311,1
305,317,313,315,1
308,318,312,317,1
309,318,311,318,1
309,318,309,319,1
308,317,308,322,1
306,315,306,326,1
303,313,304,328,1
303,311,303,329,1
305,309,302,329,1
309,307,302,326,1
313,306,303,322,1
315,306,304,315,1
314,306,305,307,1
311,307,304,302,1
308,309,302,300,1
304,311,301,298,1
300,312,299,296,1
296,312,296,290,1
293,311,296,284,1
290,310,298,281,1
289,309,301,279,1
289,308,304,280,1
290,307,308,282,1
291,307,311,285,1
291,307,313,289,1
293,306,313,291,1
300,304,311,293,1
311,302,308,294,1
321,300,306,295,1
327,299,306,297,1
326,299,307,300,1
320,300,308,302,1
313,302,309,304,1
306,304,311,305,1
302,306,312,304,1
298,309,312,301,1
293,310,312,296,1
292,311,310,291,1
293,311,309,287,1
294,312,308,285,1
295,312,306,286,1
295,312,306,289,1
294,312,305,295,1
294,312,305,301,1
297,312,304,308,1
302,311,303,316,1
307,309,302,324,1
311,307,302,330,1
313,306,301,332,1
315,305,298,331,1
316,305,293,328,1
317,305,288,324,1
317,307,284,319,1
317,309,284,313,1
314,312,288,306,1
310,313,294,297,1
305,313,301,289,1
304,313,307,284,1
306,313,312,282,1
308,312,314,284,1
309,311,314,289,1
306,312,313,296,1
304,312,312,305,1
305,312,311,312,1
310,313,311,317,1
314,313,309,318,1
315,312,307,317,1
312,311,307,314,1
305,310,306,309,1
296,308,304,306,1
290,306,302,302,1
290,305,300,300,1
290,304,299,298,1
286,304,299,298,1
278,305,300,296,1
273,306,303,294,1
273,307,304,290,1
277,308,306,286,1
282,308,307,282,1
288,308,309,281,1
294,307,309,283,1
299,306,309,285,1
302,306,308,288,1
304,306,307,292,1
305,306,306,297,1
305,306,305,303,1
306,306,304,310,1
308,307,305,319,1
312,308,306,327,1
316,309,307,333,1
317,311,307,338,1
316,313,308,341,1
316,314,309,342,1
315,316,311,340,1
314,316,311,336,1
311,317,311,330,1
312,317,310,323,1
317,316,309,317,1
321,315,309,311,1
322,315,309,304,1
320,314,309,298,1
314,313,309,292,1
307,312,307,288,1
298,309,304,285,1
292,306,302,285,1
288,304,299,285,1
287,301,297,285,1
288,299,295,286,1
290,297,293,288,1
294,296,291,290,1
296,296,291,292,1
298,298,292,295,1
299,301,296,297,1
300,305,301,299,1
301,308,306,301,1
302,310,309,303,1
302,312,312,306,1
303,313,312,308,1
306,315,309,310,1
309,316,304,312,1
310,315,298,310,1
308,314,294,307,1
307,313,291,304,1
306,312,291,304,1
303,311,294,306,1
300,310,298,309,1
300,307,302,313,1
307,306,306,317,1
316,306,310,321,1
319,306,313,324,1
316,307,315,328,1
311,308,316,330,1
306,310,317,331,1
303,311,318,332,1
302,312,318,331,1
302,312,317,328,1
300,311,315,323,1
297,310,312,315,1
295,310,306,306,1
296,309,301,297,1
300,309,295,292,1
302,308,292,290,1
299,307,290,291,1
295,304,292,294,1
293,301,296,297,1
292,298,300,300,1
291,296,304,303,1
292,294,308,306,1
294,294,311,308,1
297,294,313,308,1
300,295,313,306,1
301,297,314,305,1
301,298,315,302,1
302,300,316,300,1
307,302,315,297,1
312,304,313,294,1
311,305,310,292,1
304,307,308,293,1
299,309,307,297,1
298,310,307,300,1
298,310,306,303,1
299,310,306,307,1
299,310,307,312,1
298,310,307,314,1
299,309,308,315,1
301,308,308,313,1
305,307,309,310,1
309,305,309,307,1
311,303,309,306,1
311,303,310,306,1
310,302,311,308,1
308,302,312,309,1
310,303,311,310,1
317,304,308,309,1
324,305,305,307,1
325,305,301,307,1
320,306,300,313,1
312,308,300,323,1
305,310,303,334,1
301,312,306,342,1
301,314,309,346,1
302,315,312,345,1
302,315,312,340,1
301,314,311,332,1
299,312,310,324,1
299,309,309,315,1
301,306,307,307,1
305,302,307,303,1
311,300,307,303,1
316,298,308,303,1
320,297,309,301,1
323,297,309,298,1
321,299,309,294,1
313,301,308,290,1
301,303,308,286,1
291,305,307,283,1
286,307,305,282,1
285,307,303,283,1
287,308,302,284,1
292,308,301,287,1
300,307,302,290,1
310,307,302,293,1
318,306,301,295,1
323,305,300,297,1
324,304,298,297,1
324,302,296,297,1
323,299,296,296,1
321,298,298,297,1
316,297,302,298,1
311,297,305,299,1
306,297,308,298,1
302,297,310,295,1
300,297,311,291,1
299,298,311,289,1
299,299,309,289,1
299,300,306,289,1
297,301,302,290,1
296,301,300,292,1
295,301,299,296,1
295,301,301,299,1
294,302,304,302,1
293,303,307,302,1
293,303,309,302,1
297,304,310,302,1
299,304,310,301,1
298,304,309,299,1
295,302,308,296,1
295,300,306,295,1
300,299,305,296,1
309,298,303,298,1
317,299,303,304,1
323,300,302,311,1
328,303,303,318,1
329,306,304,325,1
327,310,305,331,1
323,312,306,334,1
319,314,309,337,1
316,316,311,339,1
314,316,313,342,1
311,316,314,343,1
309,316,314,341,1
306,314,314,336,1
304,313,312,329,1
304,312,311,323,1
303,310,308,318,1
301,307,304,315,1
300,305,300,313,1
302,303,298,313,1
304,301,298,314,1
306,300,299,315,1
308,300,302,316,1
310,300,304,316,1
310,302,307,316,1
310,303,308,313,1
308,304,307,308,1
305,303,306,301,1
299,302,305,293,1
293,301,305,288,1
289,301,306,286,1
288,301,307,286,1
289,302,308,289,1
291,304,308,294,1
293,306,309,301,1
295,309,309,309,1
299,310,310,317,1
302,311,312,324,1
305,310,313,329,1
308,308,313,330,1
308,304,313,330,1
309,301,313,327,1
312,298,312,323,1
314,297,312,318,1
316,297,313,313,1
316,298,312,307,1
314,300,312,304,1
310,303,310,301,1
306,305,308,300,1
303,307,304,298,1
301,309,300,297,1
301,311,295,295,1
302,313,291,293,1
303,313,288,290,1
304,313,287,286,1
304,311,289,284,1
303,310,293,282,1
300,308,297,281,1
298,305,300,282,1
295,302,302,283,1
294,299,304,286,1
293,296,305,290,1
290,294,305,295,1
291,293,303,299,1
294,294,301,304,1
295,295,299,308,1
295,298,298,311,1
294,301,298,311,1
295,304,300,310,1
300,306,304,308,1
306,307,308,306,1
312,309,310,305,1
314,310,312,304,1
313,311,314,303,1
314,312,315,305,1
318,312,316,307,1
323,312,316,311,1
327,311,315,314,1
331,309,314,319,1
331,308,313,324,1
327,307,312,328,1
319,306,311,331,1
314,305,311,331,1
311,304,311,329,1
311,303,311,327,1
311,304,309,323,1
309,306,304,320,1
303,307,298,318,1
298,309,293,317,1
294,311,291,317,1
292,312,294,318,1
293,313,299,318,1
296,314,305,319,1
300,314,310,321,1
302,315,314,322,1
301,314,315,321,1
298,312,313,317,1
296,310,311,312,1
296,307,309,305,1
296,303,307,300,1
297,300,305,298,1
298,298,304,297,1
300,297,304,296,1
303,297,305,295,1
305,298,305,291,1
306,300,305,288,1
303,301,306,286,1
299,303,306,286,1
293,305,307,286,1
286,306,308,288,1
282,307,307,289,1
281,309,306,293,1
286,309,304,296,1
294,309,304,301,1
301,309,305,305,1
307,307,306,309,1
310,305,306,313,1
310,303,306,313,1
306,300,305,311,1
300,297,304,309,1
298,296,304,311,1
300,296,304,314,1
304,298,304,319,1
306,300,304,324,1
306,302,302,327,1
305,306,300,328,1
303,308,297,325,1
303,310,294,319,1
303,310,293,312,1
305,310,294,305,1
309,309,297,299,1
313,308,301,295,1
314,307,305,292,1
315,306,308,291,1
312,305,307,290,1
308,303,304,290,1
304,301,299,289,1
299,298,295,289,1
295,297,294,290,1
292,295,294,291,1
296,295,297,292,1
307,295,301,292,1
318,296,303,291,1
324,296,305,291,1
328,297,307,293,1
330,300,310,297,1
332,303,311,302,1
333,306,311,305,1
333,309,310,308,1
331,311,308,309,1
326,313,306,309,1
321,314,304,309,1
317,315,301,310,1
313,315,301,313,1
306,315,300,316,1
298,314,299,319,1
294,313,298,320,1
295,310,299,322,1
298,307,301,326,1
303,305,304,330,1
308,304,307,333,1
313,302,309,334,1
314,301,311,332,1
313,302,314,328,1
312,303,316,325,1
312,304,318,324,1
313,306,319,324,1
314,309,318,325,1
314,311,316,325,1
312,313,314,323,1
309,313,311,319,1
306,313,308,313,1
307,313,306,308,1
307,310,304,303,1
305,308,302,299,1
299,307,302,297,1
291,305,302,297,1
285,304,302,296,1
279,302,302,296,1
279,300,302,297,1
286,299,303,299,1
300,298,303,301,1
312,298,304,302,1
321,297,305,301,1
325,298,305,298,1
327,299,306,295,1
326,302,308,291,1
321,304,309,287,1
314,307,309,285,1
308,309,308,285,1
307,311,309,287,1
310,311,309,291,1
313,311,309,296,1
314,310,309,300,1
312,309,309,304,1
307,308,308,307,1
302,305,309,309,1
295,304,309,313,1
291,302,309,318,1
293,299,309,324,1
298,297,309,328,1
304,297,308,330,1
308,298,308,329,1
312,299,306,326,1
313,302,303,321,1
314,304,300,317,1
315,306,297,312,1
316,307,293,308,1
317,308,291,304,1
318,309,290,303,1
318,310,292,305,1
319,311,295,308,1
318,312,297,309,1
317,312,301,308,1
316,312,305,308,1
316,311,309,308,1
317,310,313,308,1
320,309,316,307,1
324,307,317,305,1
327,304,316,304,1
327,302,314,302,1
323,300,312,302,1
318,299,311,301,1
315,299,312,302,1
314,299,314,304,1
313,300,317,306,1
311,301,318,305,1
309,303,318,301,1
305,304,317,297,1
300,306,315,296,1
296,308,313,296,1
292,309,311,297,1
287,311,310,297,1
282,311,309,297,1
279,312,309,297,1
275,312,308,297,1
271,311,308,298,1
270,310,308,299,1
275,308,309,302,1
281,307,310,306,1
286,307,311,311,1
291,306,311,315,1
302,306,311,320,1
313,307,311,322,1
322,308,311,323,1
329,309,311,322,1
335,311,310,319,1
336,313,310,316,1
335,313,310,312,1
331,312,311,308,1
325,312,312,304,1
319,310,312,301,1
314,309,313,298,1
312,307,313,297,1
311,306,313,295,1
310,306,313,295,1
308,306,312,295,1
307,305,311,297,1
305,305,310,300,1
305,303,309,304,1
306,302,308,309,1
309,301,308,312,1
312,301,309,314,1
314,302,309,314,1
315,303,311,313,1
315,304,312,312,1
313,305,312,309,1
313,306,312,307,1
317,306,311,305,1
322,307,311,303,1
327,307,310,302,1
328,307,309,301,1
323,308,307,300,1
314,308,305,300,1
304,309,302,303,1
297,310,300,310,1
295,310,299,317,1
295,309,296,321,1
299,308,292,322,1
305,307,287,321,1
312,305,283,318,1
318,304,281,314,1
319,304,280,309,1
313,303,283,305,1
304,303,289,301,1
296,304,299,299,1
293,305,309,298,1
294,307,316,298,1
297,308,321,299,1
301,310,323,300,1
303,311,324,300,1
305,311,324,299,1
305,311,323,299,1
302,310,321,301,1
296,310,318,303,1
291,310,315,305,1
290,310,311,305,1
291,308,309,303,1
292,307,307,302,1
293,305,306,301,1
297,304,306,301,1
302,303,307,304,1
307,303,309,307,1
308,303,312,309,1
306,304,313,310,1
301,305,313,310,1
297,307,314,311,1
295,308,314,315,1
295,309,314,319,1
298,309,314,325,1
303,310,314,329,1
308,310,314,332,1
309,310,313,334,1
306,310,312,334,1
298,308,310,331,1
288,307,307,324,1
281,305,304,314,1
280,303,302,304,1
286,301,300,295,1
296,299,299,289,1
304,298,300,286,1
310,297,301,286,1
314,297,302,288,1
317,298,304,289,1
320,299,305,292,1
322,301,306,295,1
322,304,306,298,1
322,306,305,303,1
321,307,304,306,1
319,308,302,309,1
316,309,300,313,1
313,310,301,315,1
311,310,302,317,1
309,311,303,317,1
307,311,304,316,1
306,311,306,314,1
303,310,306,312,1
301,309,306,310,1
298,306,306,307,1
295,304,306,305,1
296,301,305,304,1
301,300,304,305,1
308,300,304,307,1
315,300,303,307,1
320,301,302,307,1
320,304,301,305,1
314,306,301,302,1
305,308,301,298,1
294,310,302,294,1
290,310,303,291,1
291,310,305,291,1
293,309,306,292,1
295,308,307,295,1
297,307,307,299,1
297,306,305,302,1
300,305,302,303,1
309,303,298,303,1
324,302,295,303,1
337,301,294,301,1
343,301,295,298,1
339,302,297,296,1
325,302,299,295,1
304,303,301,298,1
285,306,304,302,1
271,309,304,307,1
265,311,302,312,1
265,313,298,315,1
270,315,294,316,1
280,316,292,316,1
292,316,293,318,1
303,315,297,322,1
310,314,303,328,1
314,313,308,333,1
315,313,312,336,1
313,312,314,336,1
311,312,315,333,1
307,311,316,326,1
304,309,314,319,1
300,307,312,313,1
296,305,310,308,1
294,304,307,305,1
295,302,305,303,1
300,302,304,302,1
308,302,303,301,1
315,302,305,302,1
320,304,306,303,1
322,305,308,303,1
323,307,310,303,1
322,309,313,302,1
320,310,314,303,1
317,310,315,306,1
314,310,314,309,1
309,310,313,312,1
306,311,312,316,1
303,312,309,319,1
302,313,306,321,1
301,313,301,324,1
300,312,298,326,1
298,311,297,326,1
294,309,298,326,1
292,307,301,324,1
294,305,304,323,1
298,304,307,321,1
301,302,308,320,1
299,302,308,321,1
294,302,309,322,1
288,304,311,321,1
282,306,312,318,1
279,308,313,313,1
277,308,313,308,1
277,308,313,303,1
280,308,311,298,1
285,307,310,294,1
292,306,308,290,1
298,305,306,288,1
303,303,305,289,1
307,302,304,290,1
312,302,303,291,1
318,301,303,293,1
324,300,303,294,1
328,301,304,295,1
329,301,305,296,1
329,303,306,297,1
328,305,307,297,1
328,307,307,295,1
329,310,307,293,1
331,313,307,293,1
331,315,304,293,1
324,316,300,294,1
314,318,296,295,1
309,319,292,298,1
308,320,290,300,1
310,320,290,302,1
311,319,292,303,1
311,318,293,303,1
309,317,292,303,1
305,315,291,303,1
302,313,290,303,1
300,311,291,302,1
302,308,295,300,1
306,306,300,299,1
310,304,306,301,1
312,303,310,306,1
312,303,314,312,1
309,305,317,317,1
302,307,319,320,1
294,310,320,321,1
289,312,321,321,1
288,314,321,320,1
291,315,320,320,1
295,316,319,319,1
298,316,318,318,1
299,316,316,316,1
298,315,314,313,1
295,314,312,309,1
291,313,310,306,1
290,311,308,304,1
291,310,308,303,1
293,308,307,304,1
297,306,306,306,1
300,305,303,310,1
303,304,302,315,1
304,303,300,322,1
304,303,300,328,1
306,304,302,333,1
311,305,306,338,1
314,306,310,340,1
313,307,312,339,1
309,308,312,337,1
302,308,313,335,1
297,309,313,334,1
297,311,314,333,1
300,312,314,331,1
302,314,313,327,1
303,314,312,324,1
303,314,311,320,1
302,313,310,316,1
301,310,308,310,1
298,307,306,304,1
294,303,303,298,1
291,300,300,292,1
290,297,299,287,1
293,295,300,283,1
298,294,301,284,1
305,295,303,289,1
312,297,305,298,1
314,298,305,307,1
311,301,305,314,1
308,303,304,320,1
305,306,304,323,1
303,308,304,322,1
303,310,303,318,1
306,311,301,310,1
310,310,299,301,1
311,309,298,294,1
307,307,296,288,1
302,306,297,284,1
298,305,299,282,1
297,304,301,281,1
305,303,303,282,1
315,303,305,284,1
321,303,308,289,1
323,303,312,295,1
319,303,316,301,1
312,302,318,307,1
305,303,320,311,1
302,304,320,313,1
303,305,319,315,1
304,307,317,315,1
305,308,315,316,1
306,310,312,316,1
306,310,308,316,1
305,310,302,314,1
305,308,297,311,1
304,307,294,308,1
304,306,292,306,1
304,305,293,303,1
303,303,295,299,1
303,301,300,295,1
304,298,304,291,1
307,297,307,289,1
310,295,310,289,1
311,295,312,291,1
308,295,314,293,1
304,296,316,295,1
298,297,317,296,1
292,299,318,297,1
287,301,319,298,1
283,302,319,300,1
282,303,318,303,1
284,302,316,306,1
290,302,312,308,1
302,302,308,310,1
316,303,304,311,1
326,303,300,315,1
326,303,299,320,1
320,303,299,325,1
312,303,301,327,1
306,303,304,327,1
304,302,307,326,1
303,302,310,325,1
304,301,313,325,1
306,302,315,325,1
308,304,317,326,1
309,305,319,327,1
310,307,320,327,1
311,309,321,325,1
312,310,321,321,1
313,311,320,318,1
311,311,319,316,1
306,311,318,315,1
302,310,317,315,1
300,309,315,314,1
299,308,313,311,1
