287,303,290,289,1
286,303,290,280,1
286,304,291,274,1
286,304,292,270,1
286,303,292,268,1
287,302,293,269,1
288,300,293,271,1
289,297,295,273,1
290,296,296,277,1
291,295,298,282,1
292,295,299,287,1
293,297,301,292,1
294,301,304,297,1
297,304,306,299,1
300,306,307,302,1
305,309,307,305,1
308,311,307,307,1
307,312,306,309,1
301,313,304,313,1
293,313,303,315,1
285,313,303,317,1
280,311,302,316,1
277,309,301,312,1
276,306,298,306,1
277,303,294,300,1
277,301,290,296,1
279,298,286,296,1
281,297,284,298,1
284,298,284,301,1
287,299,285,305,1
288,301,287,309,1
289,303,289,313,1
293,305,292,318,1
297,308,295,320,1
298,310,297,320,1
298,311,294,317,1
297,312,292,313,1
296,312,288,310,1
292,312,285,308,1
290,312,282,308,1
290,311,280,310,1
290,310,277,311,1
291,308,276,308,1
293,305,274,304,1
294,303,271,299,1
290,301,269,297,1
285,299,267,297,1
281,297,267,297,1
279,296,270,299,1
278,295,276,303,1
284,296,284,306,1
298,297,294,310,1
313,299,303,312,1
320,300,309,312,1
318,301,312,311,1
310,301,312,309,1
301,302,311,307,1
296,303,310,305,1
294,305,309,304,1
296,308,308,303,1
299,309,308,301,1
302,310,306,300,1
303,311,306,299,1
303,311,306,300,1
302,311,308,302,1
302,310,310,305,1
302,310,311,308,1
304,309,313,310,1
308,309,316,313,1
311,309,317,316,1
314,310,319,318,1
316,311,320,318,1
318,312,321,318,1
319,313,322,317,1
319,313,321,316,1
319,312,319,314,1
320,310,318,313,1
321,308,318,311,1
323,307,320,309,1
327,306,323,306,1
330,306,326,302,1
332,306,328,297,1
330,305,329,291,1
325,303,331,286,1
321,300,332,282,1
319,298,333,282,1
320,296,332,283,1
320,295,330,286,1
321,294,326,290,1
321,296,325,297,1
321,298,325,305,1
321,302,327,312,1
320,305,329,319,1
318,308,331,322,1
317,310,332,321,1
317,310,332,318,1
317,309,333,314,1
317,307,333,309,1
318,304,334,303,1
318,302,336,298,1
319,300,337,294,1
321,299,337,291,1
322,298,336,290,1
323,299,334,290,1
323,299,335,290,1
323,299,337,291,1
325,299,340,292,1
330,300,342,295,1
337,301,345,298,1
341,301,346,300,1
344,302,347,302,1
344,303,348,304,1
342,304,349,304,1
336,305,350,303,1
326,305,352,303,1
315,306,354,303,1
305,306,355,302,1
305,307,354,302,1
314,307,353,301,1
325,308,352,299,1
336,307,351,298,1
344,308,352,299,1
351,308,353,303,1
353,308,355,306,1
352,308,358,310,1
351,308,361,314,1
351,307,362,316,1
351,307,361,318,1
351,306,357,317,1
350,306,354,316,1
349,306,353,318,1
349,308,353,320,1
349,309,356,323,1
349,311,359,324,1
350,312,363,324,1
351,313,367,324,1
352,314,371,324,1
353,314,377,322,1
353,315,383,319,1
350,314,388,315,1
343,314,388,312,1
336,313,383,312,1
330,313,376,311,1
328,312,370,311,1
329,311,363,310,1
334,308,357,309,1
340,306,353,309,1
347,303,351,309,1
352,302,352,312,1
356,301,353,316,1
359,302,356,323,1
361,303,357,329,1
361,305,355,332,1
360,307,352,331,1
358,308,348,326,1
358,309,344,319,1
360,310,341,313,1
361,309,340,307,1
362,310,341,303,1
360,310,341,300,1
356,310,339,298,1
352,310,337,297,1
347,310,333,296,1
344,310,332,297,1
342,310,333,298,1
343,309,337,301,1
344,308,343,303,1
347,306,350,306,1
349,304,357,307,1
351,303,362,307,1
353,302,366,306,1
355,302,368,305,1
356,303,368,305,1
358,304,366,304,1
359,304,364,302,1
361,305,360,299,1
365,305,357,298,1
369,306,354,296,1
370,306,352,295,1
368,307,349,296,1
365,308,347,299,1
363,310,345,304,1
364,311,345,307,1
367,312,348,310,1
368,313,351,312,1
368,312,353,315,1
366,312,351,319,1
364,310,347,322,1
362,309,340,323,1
360,308,332,324,1
358,307,327,324,1
356,307,326,325,1
355,309,328,326,1
354,312,332,327,1
353,314,336,326,1
354,317,337,322,1
354,318,335,317,1
353,317,332,313,1
352,316,329,312,1
348,315,326,313,1
346,315,323,316,1
344,316,320,320,1
343,315,319,323,1
345,314,319,324,1
352,312,318,323,1
360,309,317,319,1
367,306,315,315,1
371,303,313,313,1
373,301,312,312,1
373,301,311,313,1
374,302,310,314,1
374,303,310,316,1
372,305,311,317,1
370,307,313,317,1
369,308,315,317,1
367,311,317,316,1
367,312,320,314,1
366,314,323,311,1
366,314,326,309,1
367,314,328,308,1
367,312,328,308,1
366,310,325,307,1
363,308,321,308,1
358,306,316,310,1
354,304,312,312,1
353,304,310,313,1
354,303,309,313,1
355,303,309,311,1
357,302,310,309,1
359,303,311,308,1
364,304,312,308,1
369,306,313,309,1
373,309,314,310,1
374,311,313,310,1
372,312,312,310,1
367,312,312,311,1
362,312,311,314,1
359,313,311,319,1
357,315,312,324,1
357,317,313,329,1
359,319,314,334,1
362,320,312,335,1
366,321,308,334,1
368,320,301,328,1
365,316,293,319,1
358,310,286,308,1
350,305,281,299,1
344,302,282,295,1
340,299,288,295,1
340,300,296,299,1
343,300,306,305,1
348,302,317,312,1
354,304,326,319,1
358,306,330,324,1
361,309,330,326,1
362,312,327,323,1
362,314,320,319,1
362,315,313,317,1
361,317,307,315,1
360,319,304,314,1
359,319,304,314,1
358,319,305,312,1
359,318,308,310,1
362,316,310,307,1
363,313,311,304,1
363,309,309,302,1
364,305,306,301,1
369,302,303,299,1
371,298,302,296,1
369,297,302,293,1
364,297,303,291,1
360,298,305,289,1
359,300,305,289,1
359,303,305,291,1
358,306,304,294,1
356,308,302,297,1
353,309,300,300,1
348,310,298,303,1
344,309,295,305,1
340,309,293,306,1
338,308,293,306,1
338,307,295,305,1
339,307,297,303,1
343,307,301,301,1
349,308,305,299,1
354,307,308,297,1
358,305,310,296,1
363,305,313,299,1
365,306,315,302,1
366,308,318,305,1
366,310,320,307,1
364,311,323,308,1
359,311,325,309,1
354,313,326,310,1
350,315,326,312,1
348,316,326,314,1
346,317,325,317,1
345,317,324,320,1
345,316,323,321,1
345,314,322,322,1
345,313,320,321,1
345,311,319,322,1
343,310,318,321,1
340,308,315,319,1
337,306,313,315,1
336,304,312,310,1
337,301,313,304,1
338,298,314,297,1
338,297,314,292,1
340,296,315,289,1
341,297,316,288,1
340,298,318,290,1
340,301,321,291,1
338,303,323,292,1
336,306,325,293,1
334,308,327,295,1
333,309,327,297,1
331,308,324,296,1
331,306,320,294,1
330,303,315,291,1
330,300,311,287,1
329,299,308,285,1
327,299,308,285,1
325,298,310,286,1
324,298,311,287,1
324,298,314,288,1
325,297,317,288,1
328,297,319,288,1
332,296,319,289,1
336,297,318,290,1
338,298,317,292,1
338,300,318,297,1
338,304,318,303,1
337,307,317,308,1
334,310,315,311,1
330,312,313,313,1
326,313,314,315,1
322,313,315,317,1
319,313,315,319,1
317,314,315,320,1
314,314,315,320,1
312,314,315,318,1
312,313,315,313,1
317,312,314,309,1
325,310,311,304,1
330,307,307,299,1
332,303,303,294,1
331,301,300,289,1
329,298,300,287,1
327,297,304,287,1
327,297,306,289,1
327,297,306,291,1
324,298,303,293,1
320,300,298,295,1
315,301,290,295,1
309,303,284,294,1
302,304,283,293,1
296,305,287,294,1
294,307,293,296,1
295,308,299,298,1
300,308,304,300,1
303,309,308,303,1
304,309,311,305,1
305,309,311,304,1
306,307,309,299,1
307,303,306,295,1
307,299,305,292,1
305,295,305,292,1
302,291,306,293,1
299,290,307,297,1
296,291,307,300,1
294,293,307,303,1
295,296,308,306,1
298,300,308,308,1
300,303,307,308,1
300,305,307,305,1
300,307,306,303,1
300,308,306,299,1
301,309,306,297,1
301,310,307,296,1
303,310,308,295,1
302,310,308,295,1
301,309,309,295,1
299,307,309,296,1
297,304,309,297,1
295,302,311,297,1
294,300,313,297,1
293,298,315,297,1
292,296,318,299,1
291,295,321,300,1
289,294,323,299,1
288,294,323,297,1
287,295,322,294,1
287,298,320,290,1
288,301,317,287,1
289,305,314,286,1
291,308,311,286,1
293,308,308,289,1
293,307,307,296,1
291,306,306,303,1
289,306,305,310,1
288,306,304,317,1
288,306,301,320,1
287,304,298,320,1
282,301,296,316,1
275,297,294,309,1
270,294,293,302,1
270,290,290,296,1
274,289,289,293,1
282,288,289,292,1
289,289,290,293,1
293,292,294,296,1
295,297,298,300,1
295,302,300,303,1
295,306,301,304,1
293,309,300,304,1
291,310,296,304,1
289,310,290,304,1
288,309,283,303,1
287,308,277,300,1
288,307,272,296,1
288,305,269,294,1
288,304,267,292,1
287,303,266,289,1
286,301,266,286,1
286,300,267,286,1
288,300,268,288,1
289,300,270,294,1
290,299,272,299,1
293,299,275,303,1
297,299,279,305,1
300,300,282,306,1
300,301,283,305,1
297,302,283,304,1
291,304,282,301,1
286,305,282,299,1
280,306,281,297,1
275,307,281,294,1
271,306,279,292,1
271,306,276,290,1
272,306,271,289,1
272,305,266,290,1
270,305,262,290,1
269,305,259,291,1
272,303,256,293,1
277,302,255,295,1
281,300,255,297,1
283,299,257,300,1
284,299,260,303,1
286,299,263,306,1
288,300,267,309,1
289,300,270,310,1
290,302,274,307,1
291,303,278,303,1
291,305,282,298,1
289,306,287,296,1
286,307,291,295,1
281,307,295,295,1
277,307,296,297,1
275,308,295,299,1
274,308,293,303,1
274,308,289,307,1
275,307,286,310,1
276,306,283,312,1
277,305,282,312,1
279,304,282,312,1
280,303,282,313,1
282,301,283,313,1
283,300,285,312,1
285,298,288,310,1
287,298,293,308,1
288,298,297,306,1
289,300,298,304,1
289,301,296,303,1
288,303,292,303,1
287,305,287,304,1
286,306,282,305,1
285,307,277,308,1
281,307,275,310,1
278,308,275,313,1
279,307,276,315,1
283,306,279,315,1
287,305,281,312,1
289,303,280,308,1
290,301,277,305,1
291,299,273,304,1
291,297,272,303,1
293,295,275,304,1
295,295,280,304,1
297,295,284,305,1
299,296,287,306,1
300,298,286,306,1
300,301,282,305,1
299,304,280,302,1
299,307,278,299,1
298,310,280,298,1
295,311,281,297,1
288,311,282,295,1
284,310,281,294,1
283,309,281,294,1
285,308,281,292,1
288,306,279,292,1
291,305,277,293,1
293,303,274,295,1
295,300,272,296,1
295,298,270,294,1
295,296,269,290,1
294,295,269,285,1
292,294,271,282,1
290,294,274,282,1
288,295,277,286,1
286,297,280,292,1
285,299,282,300,1
285,302,282,308,1
286,304,281,313,1
286,306,280,314,1
285,308,280,315,1
283,309,282,313,1
282,309,283,310,1
281,309,284,305,1
281,308,283,301,1
280,306,280,296,1
280,303,276,292,1
281,301,272,288,1
286,297,269,288,1
290,294,267,289,1
292,292,266,293,1
293,291,266,297,1
291,290,265,299,1
288,289,263,300,1
282,288,260,299,1
276,289,256,295,1
274,292,254,291,1
275,296,253,287,1
278,300,253,284,1
281,304,253,284,1
282,305,254,286,1
281,306,253,290,1
279,307,252,295,1
276,307,251,298,1
272,307,249,299,1
270,308,249,301,1
268,310,251,303,1
267,312,254,304,1
267,313,258,304,1
267,312,261,304,1
268,309,264,305,1
269,306,267,307,1
272,304,270,307,1
274,303,273,306,1
274,304,273,302,1
272,304,270,296,1
268,305,265,290,1
265,307,260,286,1
269,310,257,284,1
275,312,256,284,1
281,313,256,284,1
284,314,256,284,1
285,312,256,284,1
284,310,257,284,1
279,307,258,284,1
272,306,259,284,1
264,305,259,285,1
257,303,260,288,1
254,301,261,293,1
253,300,261,299,1
253,300,262,304,1
254,301,263,311,1
255,302,264,319,1
255,305,264,328,1
255,308,264,336,1
255,311,263,343,1
256,314,263,347,1
257,315,262,346,1
259,315,261,342,1
261,313,260,336,1
262,311,257,326,1
263,308,255,317,1
264,306,253,308,1
266,305,251,300,1
269,303,251,292,1
273,301,251,286,1
273,300,253,283,1
270,298,256,281,1
261,297,258,280,1
253,296,259,281,1
247,296,259,283,1
243,296,258,287,1
240,297,256,290,1
239,298,254,293,1
242,298,253,296,1
249,299,253,298,1
255,301,255,300,1
256,303,260,302,1
254,305,266,306,1
250,308,270,309,1
245,308,272,314,1
241,307,274,319,1
240,306,276,324,1
240,305,277,328,1
239,305,277,332,1
238,305,278,334,1
239,306,279,336,1
242,307,281,336,1
246,307,285,335,1
248,306,287,332,1
247,304,288,327,1
244,301,286,323,1
242,297,283,317,1
246,294,279,310,1
254,293,276,302,1
263,293,275,297,1
271,296,275,294,1
277,299,276,294,1
283,301,277,295,1
290,302,277,298,1
293,304,277,301,1
286,306,278,303,1
274,306,279,304,1
263,306,282,303,1
255,305,285,302,1
249,305,287,302,1
243,305,288,303,1
239,304,289,304,1
238,303,289,304,1
238,302,288,304,1
240,300,287,304,1
242,298,286,304,1
243,297,287,306,1
242,296,290,310,1
239,297,295,314,1
235,299,299,317,1
235,302,302,320,1
239,306,303,321,1
244,309,302,320,1
245,310,299,318,1
245,310,297,316,1
245,309,295,314,1
247,308,294,313,1
248,308,294,311,1
249,307,295,312,1
251,306,297,313,1
254,305,298,315,1
257,304,301,316,1
260,302,304,314,1
263,300,307,310,1
264,298,309,307,1
265,295,311,305,1
264,293,312,303,1
263,292,312,303,1
262,293,311,305,1
260,294,311,308,1
259,297,311,313,1
257,299,312,318,1
254,302,313,322,1
251,303,312,326,1
249,304,312,327,1
248,305,312,326,1
249,305,313,323,1
250,305,314,318,1
253,305,316,313,1
255,305,319,308,1
256,304,320,306,1
257,304,320,304,1
256,303,318,306,1
255,301,315,309,1
255,300,312,314,1
255,299,310,320,1
256,298,310,324,1
257,298,311,330,1
258,299,311,334,1
258,301,312,336,1
258,304,314,334,1
257,306,319,330,1
255,308,324,325,1
254,309,329,322,1
254,309,334,319,1
254,309,337,315,1
254,309,338,312,1
255,308,336,310,1
254,307,333,310,1
253,306,330,310,1
250,305,326,312,1
247,303,323,315,1
245,302,321,317,1
242,301,324,319,1
238,301,329,322,1
236,302,334,324,1
246,303,338,325,1
265,303,341,324,1
282,303,340,322,1
292,303,337,321,1
295,303,335,321,1
295,303,332,321,1
294,304,330,322,1
294,305,328,324,1
293,306,327,326,1
290,308,327,327,1
286,309,327,329,1
282,310,326,329,1
279,311,326,329,1
280,312,327,329,1
282,312,328,330,1
285,311,329,330,1
286,309,330,331,1
282,307,331,330,1
279,306,333,329,1
280,305,335,327,1
283,304,337,325,1
284,303,337,323,1
283,303,333,322,1
282,303,329,322,1
282,305,324,323,1
281,307,321,325,1
281,310,319,328,1
280,312,318,330,1
279,312,319,331,1
275,311,321,332,1
272,310,326,334,1
268,310,332,338,1
265,309,337,341,1
260,308,340,340,1
257,306,342,334,1
253,304,345,326,1
252,303,347,319,1
258,302,349,313,1
272,300,349,308,1
285,299,348,305,1
296,298,346,305,1
302,298,344,306,1
304,300,341,309,1
304,302,339,312,1
303,306,341,316,1
302,309,343,320,1
302,312,345,321,1
302,313,345,323,1
302,313,344,324,1
302,311,343,324,1
301,310,341,323,1
298,309,339,321,1
294,308,337,319,1
290,308,336,316,1
288,308,335,315,1
286,307,336,314,1
285,305,338,314,1
284,303,338,314,1
283,301,339,314,1
284,299,337,314,1
284,300,334,315,1
285,301,331,316,1
287,303,328,319,1
288,304,326,322,1
287,306,326,324,1
283,308,326,324,1
276,309,326,322,1
272,309,326,319,1
276,309,327,315,1
283,308,327,311,1
289,307,327,307,1
292,305,327,304,1
291,305,329,302,1
289,304,332,301,1
287,304,335,301,1
286,304,337,303,1
287,302,338,306,1
288,300,337,310,1
290,298,335,313,1
295,297,331,314,1
300,298,328,316,1
304,300,325,319,1
306,303,324,322,1
305,305,325,324,1
304,307,328,327,1
303,310,331,329,1
303,312,334,330,1
303,314,336,331,1
305,315,335,333,1
306,316,333,333,1
308,317,327,331,1
308,316,320,328,1
305,314,315,323,1
300,312,311,319,1
294,310,309,314,1
289,308,306,310,1
288,305,304,306,1
289,303,303,304,1
292,301,303,303,1
295,299,304,302,1
297,298,305,302,1
300,297,305,304,1
303,296,305,306,1
308,297,304,309,1
311,299,304,311,1
311,302,305,312,1
306,303,306,312,1
299,303,307,312,1
295,303,306,313,1
292,303,306,315,1
290,304,306,319,1
291,305,308,322,1
292,306,310,326,1
293,307,313,332,1
294,308,316,337,1
295,309,319,340,1
296,308,320,342,1
297,307,321,342,1
297,306,322,344,1
296,305,323,346,1
294,303,324,348,1
293,301,324,347,1
292,301,326,345,1
291,303,326,341,1
286,304,325,335,1
282,305,323,327,1
287,304,321,318,1
296,304,319,309,1
304,304,318,302,1
308,304,318,296,1
310,304,320,293,1
310,305,322,291,1
310,306,322,291,1
310,305,320,290,1
309,305,316,290,1
310,305,312,291,1
310,303,309,292,1
310,301,308,293,1
311,299,307,295,1
311,297,307,298,1
311,295,306,301,1
311,295,306,306,1
311,297,305,311,1
310,299,306,316,1
307,301,308,320,1
304,304,311,321,1
300,306,316,322,1
299,308,321,322,1
303,310,327,322,1
310,311,332,324,1
314,312,335,326,1
313,313,338,327,1
311,314,341,326,1
309,314,342,325,1
308,313,339,322,1
306,312,332,319,1
304,310,324,317,1
301,308,318,316,1
299,306,314,315,1
297,305,312,315,1
298,304,310,313,1
303,303,310,313,1
310,303,310,312,1
315,304,311,313,1
319,306,313,315,1
321,307,314,318,1
322,309,315,321,1
321,311,315,325,1
318,313,314,326,1
313,313,313,327,1
307,313,314,327,1
303,313,315,328,1
300,313,319,327,1
300,313,323,325,1
301,312,327,322,1
302,310,329,318,1
303,308,328,312,1
304,305,322,307,1
305,302,315,301,1
307,300,311,296,1
309,299,311,294,1
314,299,314,294,1
318,301,320,297,1
321,303,324,303,1
324,307,329,311,1
326,310,330,317,1
327,312,327,322,1
326,314,323,326,1
323,315,321,330,1
318,315,319,334,1
312,314,317,336,1
307,312,315,337,1
304,311,314,335,1
304,309,312,329,1
304,306,311,319,1
304,303,309,309,1
304,300,307,302,1
304,297,305,298,1
304,295,304,298,1
305,294,304,301,1
305,293,305,303,1
305,293,307,307,1
306,293,311,310,1
306,294,313,311,1
306,297,316,312,1
308,300,318,312,1
316,303,319,312,1
327,305,319,310,1
337,306,319,310,1
344,306,319,311,1
345,306,319,311,1
343,306,318,311,1
337,305,317,310,1
329,305,317,309,1
322,304,317,309,1
313,303,318,309,1
304,303,319,308,1
296,303,320,307,1
291,303,319,306,1
290,302,319,307,1
291,302,319,309,1
293,301,319,312,1
295,302,320,316,1
296,303,320,322,1
297,306,319,327,1
298,310,318,331,1
298,312,316,332,1
295,313,312,330,1
289,313,309,326,1
283,312,307,321,1
276,310,307,317,1
272,309,306,314,1
268,307,307,310,1
268,306,307,305,1
269,304,306,301,1
273,304,304,297,1
282,304,303,296,1
298,304,302,296,1
313,304,303,299,1
325,304,305,303,1
335,305,311,307,1
342,307,316,313,1
347,309,319,318,1
350,310,321,321,1
349,310,320,322,1
342,310,316,320,1
331,310,309,317,1
319,311,303,315,1
310,312,301,311,1
304,312,301,307,1
300,312,302,303,1
298,311,303,302,1
297,310,304,300,1
297,308,305,299,1
297,306,304,299,1
298,305,302,300,1
299,305,301,303,1
301,305,300,307,1
304,304,298,310,1
308,304,296,312,1
310,303,296,313,1
310,305,296,314,1
308,306,296,314,1
304,307,297,313,1
299,308,299,312,1
295,309,303,310,1
296,311,308,307,1
301,311,313,305,1
306,312,315,304,1
310,312,315,305,1
311,311,313,307,1
311,310,310,311,1
309,309,306,315,1
307,308,303,319,1
303,307,299,321,1
300,305,297,324,1
297,304,296,325,1
295,303,298,326,1
294,303,301,325,1
294,303,304,321,1
295,304,305,315,1
297,304,303,311,1
299,305,302,308,1
303,307,300,306,1
307,308,299,305,1
312,308,299,304,1
318,308,299,304,1
325,308,300,305,1
330,308,300,306,1
331,307,301,306,1
324,306,302,306,1
313,306,303,304,1
301,306,302,300,1
292,306,300,296,1
288,307,298,293,1
288,306,295,294,1
291,305,294,296,1
293,303,293,298,1
294,301,293,300,1
293,300,294,303,1
293,299,297,304,1
295,299,300,306,1
300,300,303,310,1
304,301,306,315,1
306,303,308,320,1
303,305,309,323,1
297,308,310,325,1
289,312,309,325,1
281,314,309,326,1
274,315,308,325,1
269,316,308,323,1
265,316,307,321,1
265,316,307,316,1
272,314,306,310,1
281,313,305,304,1
286,310,305,300,1
290,308,304,298,1
297,306,303,297,1
304,304,305,298,1
310,303,309,299,1
312,302,315,302,1
312,302,320,306,1
311,302,324,310,1
309,303,327,314,1
306,306,325,318,1
303,308,320,319,1
300,310,316,322,1
295,312,315,326,1
294,312,315,330,1
299,313,315,333,1
305,313,316,335,1
310,313,317,335,1
312,312,317,333,1
313,312,315,329,1
312,312,310,323,1
309,310,305,314,1
305,307,301,305,1
303,305,299,298,1
302,303,299,294,1
303,301,300,293,1
305,300,302,293,1
307,299,303,296,1
309,299,301,300,1
309,300,298,306,1
309,302,296,312,1
309,304,296,319,1
309,306,297,324,1
309,308,299,328,1
311,310,302,330,1
313,312,306,330,1
315,313,309,328,1
315,313,312,325,1
314,312,313,323,1
311,310,314,320,1
308,308,313,317,1
304,305,313,312,1
303,303,313,307,1
302,302,313,303,1
304,301,312,300,1
307,300,313,299,1
311,299,314,298,1
314,298,315,299,1
315,298,316,300,1
315,300,316,302,1
314,301,318,303,1
310,303,319,303,1
305,305,320,302,1
300,306,320,302,1
294,306,319,301,1
293,307,315,301,1
297,307,311,301,1
307,306,307,302,1
320,307,304,303,1
331,306,302,304,1
335,306,301,304,1
331,306,298,302,1
322,305,297,301,1
314,303,296,300,1
307,302,297,300,1
301,301,297,302,1
299,302,299,304,1
300,302,303,306,1
304,303,307,305,1
311,304,310,304,1
317,306,312,301,1
323,307,312,299,1
327,309,309,298,1
330,309,306,299,1
332,310,303,302,1
330,309,301,305,1
324,309,301,307,1
317,309,301,310,1
311,310,303,310,1
307,310,305,309,1
304,309,308,305,1
300,307,310,299,1
297,304,309,294,1
297,301,304,289,1
300,298,299,287,1
306,296,295,287,1
314,295,292,290,1
321,296,290,295,1
326,298,290,299,1
329,301,291,302,1
331,303,292,306,1
330,305,292,309,1
326,307,290,311,1
321,308,288,312,1
314,308,287,313,1
309,308,287,313,1
305,308,287,312,1
304,308,287,310,1
305,308,286,307,1
306,307,285,305,1
307,307,284,302,1
310,306,281,301,1
316,304,278,299,1
322,302,274,299,1
326,300,272,300,1
329,299,271,302,1
331,299,272,305,1
332,299,274,310,1
332,300,276,316,1
333,303,279,321,1
334,306,279,322,1
334,309,276,317,1
332,309,270,307,1
329,309,265,297,1
326,309,261,291,1
322,308,258,286,1
320,308,258,283,1
320,306,262,281,1
321,305,268,276,1
322,303,273,272,1
323,302,278,268,1
323,300,281,266,1
323,299,282,265,1
323,297,280,266,1
323,295,278,269,1
325,294,277,272,1
327,294,277,276,1
331,295,277,280,1
335,296,278,284,1
337,298,278,289,1
334,301,279,294,1
323,304,280,298,1
309,307,279,302,1
298,309,279,305,1
290,310,278,307,1
285,311,278,308,1
280,311,278,308,1
276,311,277,307,1
278,310,277,304,1
285,310,277,300,1
292,309,278,294,1
299,309,278,286,1
304,308,279,279,1
308,305,280,277,1
312,303,282,277,1
316,300,284,280,1
319,299,286,285,1
321,300,288,291,1
322,302,290,298,1
321,304,292,305,1
319,308,293,312,1
317,311,293,318,1
314,314,295,322,1
310,315,295,324,1
305,314,294,323,1
301,312,291,319,1
298,310,288,314,1
298,310,285,308,1
299,309,284,303,1
300,307,286,298,1
299,305,288,294,1
295,303,289,291,1
289,301,288,291,1
283,300,286,291,1
279,299,283,293,1
277,298,281,295,1
279,298,280,297,1
284,298,282,299,1
290,299,285,301,1
292,300,288,304,1
293,301,291,306,1
291,303,291,306,1
290,305,288,305,1
289,305,286,303,1
290,305,286,300,1
290,305,285,297,1
291,305,284,293,1
291,305,282,290,1
290,305,280,287,1
289,304,277,284,1
288,303,276,282,1
286,302,275,281,1
286,301,275,280,1
286,299,275,280,1
287,298,277,282,1
289,297,279,283,1
290,297,281,286,1
288,297,282,289,1
286,299,282,294,1
284,301,283,299,1
284,303,283,303,1
281,306,283,307,1
279,308,282,311,1
288,310,281,319,1
303,312,281,328,1
315,313,282,336,1
319,314,283,340,1
317,314,286,339,1
312,313,290,334,1
307,312,295,328,1
305,312,299,320,1
304,311,301,312,1
305,310,303,303,1
304,309,304,294,1
303,308,305,286,1
301,306,305,281,1
300,305,304,280,1
299,304,301,281,1
298,303,299,285,1
298,304,299,291,1
299,306,301,297,1
301,309,303,303,1
302,312,306,308,1
304,315,307,313,1
308,316,308,316,1
313,315,307,316,1
316,313,306,312,1
317,312,304,308,1
313,310,302,303,1
308,308,299,299,1
304,308,295,298,1
304,307,293,297,1
306,306,291,298,1
308,305,291,300,1
311,303,293,301,1
313,302,295,303,1
314,301,298,304,1
314,301,301,304,1
316,300,302,303,1
319,301,305,301,1
323,303,309,298,1
327,305,314,295,1
329,306,317,292,1
328,307,317,289,1
325,308,316,288,1
321,309,313,289,1
319,310,309,288,1
319,310,304,287,1
320,310,300,287,1
321,310,296,288,1
322,310,292,289,1
322,309,289,291,1
319,309,287,293,1
314,308,287,295,1
308,307,287,299,1
304,307,285,301,1
304,306,283,303,1
305,306,281,304,1
306,305,280,306,1
307,307,281,308,1
308,309,283,311,1
308,311,286,313,1
308,314,289,315,1
308,316,292,316,1
308,317,295,314,1
310,317,297,312,1
313,317,299,310,1
315,317,300,307,1
316,315,301,303,1
318,313,301,299,1
320,311,303,295,1
320,309,304,293,1
317,308,305,293,1
317,307,306,294,1
324,305,307,297,1
333,305,308,302,1
338,306,307,307,1
336,307,306,314,1
329,309,306,319,1
318,310,308,323,1
309,313,310,327,1
302,316,313,331,1
298,318,313,333,1
294,320,311,333,1
291,320,308,331,1
291,319,304,328,1
297,317,302,323,1
305,316,302,318,1
310,315,303,313,1
313,313,306,307,1
313,311,309,302,1
314,309,310,298,1
315,306,310,295,1
317,304,308,293,1
320,302,307,292,1
325,300,305,292,1
329,299,304,294,1
330,300,303,298,1
325,301,304,302,1
318,303,305,307,1
312,306,306,312,1
308,310,308,316,1
306,313,309,318,1
306,315,308,318,1
306,315,306,318,1
308,316,304,317,1
311,316,302,316,1
314,316,302,314,1
317,315,305,313,1
318,314,311,312,1
318,313,317,312,1
317,312,323,313,1
316,311,327,313,1
315,310,328,315,1
317,309,328,318,1
319,309,325,324,1
321,308,321,331,1
322,307,316,337,1
322,307,310,341,1
319,308,305,343,1
315,310,302,341,1
308,313,300,336,1
300,314,299,326,1
293,315,298,315,1
287,315,296,303,1
283,315,293,293,1
287,314,288,285,1
296,313,284,280,1
305,313,283,278,1
312,312,286,278,1
315,312,289,279,1
317,312,291,281,1
318,311,293,282,1
320,310,295,284,1
323,308,297,286,1
328,306,298,289,1
330,305,299,292,1
327,305,302,295,1
321,305,305,299,1
317,305,307,304,1
317,307,307,309,1
318,309,306,314,1
318,312,304,317,1
317,313,301,319,1
315,314,299,319,1
312,315,299,318,1
310,316,302,317,1
309,317,305,315,1
307,318,310,313,1
307,318,314,311,1
307,318,315,309,1
307,317,314,307,1
310,317,313,306,1
315,315,312,305,1
324,312,311,304,1
334,310,312,304,1
341,308,314,303,1
343,306,316,304,1
340,306,318,305,1
334,306,319,306,1
326,307,317,305,1
315,307,312,303,1
305,308,306,301,1
299,308,303,299,1
297,309,302,298,1
297,309,302,298,1
297,309,301,297,1
297,309,302,297,1
298,310,303,298,1
301,310,304,300,1
304,310,305,302,1
307,310,305,304,1
308,310,305,307,1
310,308,306,312,1
311,307,309,316,1
313,307,312,319,1
315,307,314,320,1
315,308,316,319,1
315,309,319,319,1
315,310,322,320,1
316,312,323,321,1
316,313,323,321,1
316,314,321,321,1
316,315,320,320,1
315,316,318,318,1
314,316,318,316,1
313,315,320,313,1
311,314,322,311,1
311,313,325,310,1
311,312,325,308,1
313,310,322,304,1
316,308,316,298,1
319,305,311,295,1
322,303,307,294,1
324,301,305,295,1
323,300,303,298,1
318,300,303,302,1
310,301,304,306,1
302,302,305,310,1
296,304,307,313,1
292,306,308,314,1
291,309,310,313,1
295,311,311,313,1
305,313,313,313,1
313,315,314,314,1
318,315,316,315,1
317,315,317,316,1
314,315,316,318,1
311,314,315,320,1
308,313,313,319,1
308,311,309,316,1
311,309,303,310,1
316,307,298,303,1
321,304,296,297,1
327,301,296,292,1
332,299,296,290,1
337,297,295,288,1
340,297,296,289,1
342,298,297,290,1
342,300,299,292,1
337,302,300,294,1
328,305,301,296,1
318,308,302,298,1
311,311,303,302,1
306,313,304,306,1
301,315,304,310,1
297,317,304,315,1
293,318,305,319,1
292,319,306,323,1
293,318,308,326,1
296,316,309,328,1
301,313,310,328,1
309,311,310,325,1
317,309,309,320,1
320,307,309,315,1
319,305,310,313,1
315,304,312,312,1
310,304,312,313,1
305,304,310,313,1
302,305,306,312,1
299,306,302,310,1
297,307,302,308,1
296,308,304,307,1
294,309,307,306,1
294,309,309,304,1
295,309,311,303,1
298,309,312,303,1
299,309,310,303,1
299,307,304,301,1
299,304,297,298,1
299,302,290,297,1
301,300,285,297,1
303,299,285,298,1
305,298,287,299,1
307,298,290,300,1
309,298,293,300,1
309,298,297,298,1
308,298,300,296,1
306,299,303,295,1
307,300,304,297,1
308,302,305,301,1
309,304,305,306,1
308,305,304,310,1
308,306,301,313,1
307,307,299,316,1
306,308,300,317,1
305,308,302,316,1
303,307,305,313,1
300,306,309,308,1
297,304,313,305,1
293,303,316,303,1
287,303,317,301,1
283,302,316,296,1
284,300,312,292,1
290,298,309,289,1
302,296,306,288,1
315,295,305,289,1
326,295,306,291,1
335,296,308,293,1
342,298,310,295,1
343,300,312,297,1
338,303,313,298,1
329,305,313,299,1
319,306,311,300,1
312,307,308,300,1
309,308,305,301,1
308,309,303,302,1
309,310,300,302,1
309,311,297,303,1
308,311,295,303,1
306,310,293,303,1
302,308,292,303,1
296,305,292,303,1
292,303,294,304,1
293,301,298,305,1
299,300,302,308,1
304,300,305,310,1
307,300,307,313,1
308,301,308,315,1
308,303,311,316,1
307,306,314,317,1
307,309,315,319,1
306,312,317,319,1
306,314,319,320,1
307,315,320,321,1
310,315,321,322,1
318,315,322,322,1
326,314,322,321,1
333,313,321,319,1
336,311,320,314,1
334,310,319,308,1
328,308,317,303,1
318,307,314,298,1
307,305,311,295,1
296,304,309,293,1
289,302,307,292,1
287,301,305,292,1
287,300,303,292,1
286,300,300,293,1
286,300,297,295,1
287,302,298,298,1
290,304,300,301,1
295,307,304,303,1
301,309,309,305,1
306,311,313,309,1
308,312,317,313,1
310,312,319,319,1
310,312,321,324,1
309,312,323,328,1
310,312,324,331,1
311,311,325,331,1
313,311,325,326,1
313,310,321,317,1
312,309,316,309,1
309,307,312,301,1
305,305,308,297,1
299,303,306,294,1
295,301,305,295,1
296,300,306,298,1
301,301,307,300,1
303,303,306,301,1
300,305,303,300,1
296,309,301,300,1
295,313,301,301,1
302,314,301,303,1
312,316,304,307,1
320,317,306,310,1
323,317,308,314,1
322,317,309,317,1
319,316,308,318,1
316,315,306,316,1
313,314,306,311,1
312,312,306,306,1
314,309,306,301,1
318,306,304,297,1
324,303,302,295,1
331,301,299,294,1
338,300,297,296,1
343,301,295,299,1
341,303,294,301,1
332,304,293,302,1
320,306,295,304,1
312,307,298,304,1
307,309,302,306,1
303,310,305,307,1
299,310,307,308,1
295,311,309,309,1
293,312,310,310,1
292,313,310,310,1
295,314,311,310,1
298,314,313,311,1
299,315,315,313,1
301,315,316,315,1
302,314,316,316,1
305,313,315,316,1
306,311,313,317,1
307,310,311,317,1
308,309,311,318,1
308,309,311,319,1
309,309,311,320,1
310,311,311,321,1
308,312,311,321,1
304,315,312,321,1
301,318,313,319,1
299,319,314,316,1
296,319,314,313,1
294,318,312,309,1
293,315,308,303,1
295,312,304,297,1
298,310,301,292,1
300,308,299,289,1
301,307,297,288,1
301,305,294,286,1
301,304,293,285,1
301,302,293,285,1
301,301,294,285,1
309,301,297,288,1
322,301,301,293,1
333,302,305,299,1
337,303,308,305,1
334,305,310,310,1
325,307,310,313,1
317,310,310,316,1
313,313,310,316,1
309,314,312,315,1
304,314,315,314,1
300,314,320,313,1
299,313,324,314,1
298,313,327,315,1
298,312,325,316,1
299,311,320,318,1
300,311,315,320,1
299,310,310,322,1
293,309,305,324,1
287,307,303,326,1
286,306,301,327,1
291,306,300,328,1
301,306,298,328,1
310,307,296,329,1
316,308,294,329,1
321,310,292,327,1
324,312,291,325,1
324,313,290,321,1
321,314,290,318,1
316,315,291,313,1
310,314,292,307,1
306,314,293,301,1
305,313,297,295,1
306,312,302,291,1
308,311,307,288,1
309,310,311,287,1
310,309,313,288,1
311,307,314,290,1
311,305,314,292,1
311,303,315,296,1
312,302,317,301,1
317,303,320,306,1
324,305,324,312,1
330,305,328,317,1
334,305,329,322,1
336,306,328,325,1
334,306,325,324,1
330,307,319,320,1
323,308,314,316,1
317,309,310,313,1
312,310,308,310,1
308,311,308,307,1
304,311,307,305,1
299,310,307,302,1
295,309,307,301,1
291,308,307,300,1
288,308,307,300,1
284,307,304,301,1
282,305,301,303,1
284,304,299,305,1
289,302,296,307,1
295,301,295,309,1
300,301,296,310,1
305,301,299,313,1
309,303,302,314,1
312,305,303,313,1
313,307,304,312,1
314,309,305,310,1
316,312,309,309,1
319,314,313,309,1
321,315,317,310,1
323,315,319,312,1
322,314,320,315,1
320,313,321,317,1
315,313,320,319,1
309,313,318,321,1
303,312,316,323,1
301,311,313,324,1
300,310,311,325,1
298,307,308,326,1
297,305,309,327,1
298,304,312,327,1
303,304,317,326,1
306,305,319,326,1
308,306,320,325,1
310,309,318,324,1
311,310,314,320,1
312,311,310,316,1
313,311,306,312,1
314,311,303,308,1
314,310,300,303,1
313,310,297,299,1
310,309,293,295,1
307,308,290,293,1
304,307,288,292,1
300,305,288,292,1
301,304,289,292,1
305,303,292,292,1
309,301,297,292,1
312,299,302,293,1
315,298,306,296,1
320,298,308,301,1
326,298,307,306,1
330,299,303,311,1
329,300,299,314,1
323,302,295,317,1
316,305,292,317,1
308,307,291,316,1
300,309,290,313,1
295,310,289,310,1
297,311,290,308,1
303,313,292,306,1
308,313,292,305,1
310,313,292,304,1
313,313,291,303,1
314,313,290,303,1
313,311,288,303,1
310,309,287,303,1
308,306,284,305,1
309,304,283,306,1
316,302,283,308,1
322,301,286,310,1
326,300,288,313,1
326,300,289,314,1
321,301,289,314,1
314,303,289,315,1
304,306,290,315,1
295,307,291,315,1
290,308,293,315,1
293,308,296,316,1
299,308,299,316,1
304,308,300,317,1
306,308,301,317,1
307,308,300,317,1
306,309,299,316,1
304,308,299,315,1
302,308,299,316,1
301,307,299,316,1
301,306,300,317,1
302,305,301,318,1
306,304,301,319,1
310,303,302,318,1
312,301,303,314,1
312,300,305,311,1
307,301,308,309,1
300,302,312,309,1
292,304,316,309,1
289,306,318,310,1
292,308,319,311,1
299,309,320,311,1
306,309,320,312,1
311,308,319,313,1
313,306,316,315,1
314,305,314,316,1
315,304,312,317,1
316,304,312,317,1
316,304,311,318,1
315,304,311,317,1
313,304,311,315,1
309,303,312,313,1
309,302,315,312,1
313,302,319,310,1
319,301,323,310,1
325,301,325,310,1
328,303,326,311,1
329,304,324,311,1
328,306,323,310,1
326,306,322,308,1
324,307,321,305,1
322,307,320,302,1
319,307,320,300,1
316,307,319,299,1
313,307,318,300,1
311,308,317,302,1
312,308,317,303,1
313,307,318,302,1
313,305,319,300,1
313,304,320,299,1
313,302,321,298,1
311,300,322,299,1
310,298,322,301,1
311,298,323,304,1
312,298,323,306,1
312,300,322,309,1
311,303,322,311,1
308,306,322,315,1
306,311,323,319,1
310,315,324,323,1
314,318,325,325,1
317,320,325,326,1
320,319,324,324,1
324,318,323,321,1
329,316,323,317,1
333,315,322,315,1
335,313,322,314,1
335,311,322,312,1
333,309,320,309,1
329,306,318,305,1
325,304,315,302,1
323,303,314,299,1
319,303,314,298,1
312,302,316,299,1
303,302,322,301,1
300,303,328,305,1
302,305,334,308,1
306,307,337,311,1
308,310,337,313,1
309,311,332,314,1
309,313,326,315,1
309,314,319,317,1
312,316,314,319,1
315,317,310,321,1
319,318,309,322,1
323,319,309,324,1
325,318,309,325,1
321,316,310,325,1
312,313,311,323,1
301,311,313,319,1
295,308,315,315,1
292,305,315,314,1
290,303,315,315,1
289,302,315,317,1
290,303,316,319,1
296,305,317,323,1
306,309,319,324,1
314,312,320,322,1
320,314,320,320,1
321,316,320,318,1
321,317,320,318,1
318,317,318,319,1
317,316,318,319,1
316,316,317,318,1
317,316,316,316,1
316,316,315,312,1
315,316,316,307,1
314,315,318,303,1
313,313,320,300,1
312,311,322,299,1
313,310,324,301,1
315,309,327,304,1
317,308,327,308,1
319,307,324,311,1
321,306,319,312,1
323,306,315,312,1
323,306,313,313,1
323,307,312,314,1
322,309,312,316,1
321,312,312,319,1
320,315,312,322,1
318,317,311,328,1
317,319,310,337,1
316,321,310,348,1
315,323,310,358,1
312,325,310,363,1
308,326,309,364,1
307,326,309,361,1
308,324,311,354,1
310,319,313,348,1
310,314,314,340,1
309,310,314,331,1
308,307,313,320,1
309,305,311,305,1
313,304,309,293,1
317,303,308,284,1
320,304,307,280,1
322,306,307,278,1
321,309,308,278,1
316,312,310,279,1
310,315,311,282,1
305,318,312,285,1
305,320,313,290,1
307,320,314,296,1
311,320,314,302,1
313,319,313,310,1
314,318,312,316,1
315,316,311,319,1
317,313,310,318,1
318,309,309,317,1
317,305,308,313,1
314,302,308,307,1
313,299,307,298,1
315,297,306,289,1
319,297,307,282,1
323,297,307,278,1
326,298,307,277,1
329,300,306,277,1
332,303,304,280,1
334,305,301,284,1
335,308,299,288,1
338,310,298,291,1
340,311,299,293,1
340,311,302,294,1
336,311,310,296,1
330,311,318,298,1
322,311,326,300,1
315,311,332,302,1
311,311,335,304,1
309,310,335,306,1
311,309,333,309,1
315,308,330,311,1
319,306,326,312,1
322,304,323,312,1
323,302,320,312,1
324,302,319,312,1
324,302,318,312,1
325,304,318,313,1
323,306,319,316,1
322,308,318,318,1
319,309,316,322,1
317,311,314,326,1
316,313,311,330,1
315,314,308,329,1
315,313,305,325,1
317,312,304,321,1
323,312,304,317,1
330,311,304,312,1
335,310,304,305,1
338,308,304,300,1
337,305,304,296,1
331,302,304,293,1
319,301,304,291,1
307,300,304,292,1
299,301,304,295,1
296,302,305,301,1
297,305,306,306,1
303,308,308,309,1
313,312,311,310,1
322,315,313,308,1
327,317,314,307,1
328,318,313,304,1
326,318,312,300,1
323,318,309,296,1
320,317,307,293,1
319,316,304,291,1
320,315,302,292,1
319,315,300,297,1
319,314,300,302,1
319,314,300,309,1
320,312,301,315,1
321,310,302,323,1
322,309,303,329,1
323,309,305,334,1
324,310,307,335,1
325,311,307,334,1
324,312,307,332,1
322,313,305,330,1
318,314,302,326,1
314,314,299,319,1
311,313,297,313,1
310,312,296,307,1
310,311,295,304,1
307,310,293,302,1
303,309,290,300,1
304,307,286,298,1
307,306,283,295,1
311,306,280,292,1
314,305,277,288,1
316,303,275,283,1
321,302,273,281,1
329,301,272,281,1
335,300,273,281,1
335,299,274,281,1
331,298,277,283,1
326,299,280,284,1
321,301,283,287,1
317,304,285,291,1
312,307,286,294,1
308,310,285,297,1
307,312,279,299,1
308,312,271,298,1
309,311,265,298,1
310,309,261,299,1
309,307,262,302,1
307,306,268,306,1
306,305,275,311,1
305,305,280,315,1
302,305,281,315,1
299,304,277,313,1
299,304,272,311,1
303,303,267,310,1
308,304,263,309,1
312,303,261,308,1
313,303,261,305,1
315,302,263,302,1
315,302,267,298,1
314,302,269,293,1
313,303,268,286,1
312,304,263,279,1
311,304,258,272,1
311,304,253,268,1
312,303,251,266,1
312,302,252,267,1
310,302,253,268,1
306,303,253,271,1
303,303,252,274,1
300,304,249,277,1
296,305,247,282,1
292,307,246,286,1
289,308,248,290,1
287,309,253,294,1
286,308,258,299,1
285,307,264,304,1
286,306,267,307,1
287,305,268,306,1
289,304,267,302,1
289,304,264,299,1
288,305,261,295,1
286,306,257,291,1
283,306,254,289,1
280,307,252,287,1
279,308,252,288,1
278,310,254,289,1
278,310,255,290,1
278,310,256,290,1
277,310,254,289,1
275,309,252,288,1
276,307,249,286,1
278,305,245,286,1
280,303,240,286,1
280,302,234,286,1
278,300,228,288,1
279,300,223,291,1
279,300,221,296,1
279,300,219,302,1
279,301,217,307,1
279,302,215,311,1
278,303,212,312,1
276,304,208,313,1
275,305,205,312,1
274,306,203,309,1
273,306,200,304,1
273,306,196,298,1
271,305,192,290,1
270,305,189,284,1
272,304,186,280,1
275,304,181,276,1
279,303,177,273,1
280,302,175,272,1
279,301,174,273,1
276,300,174,274,1
273,299,173,276,1
274,299,172,279,1
276,300,171,281,1
274,301,169,283,1
270,303,167,286,1
266,306,165,289,1
261,309,162,292,1
260,311,157,295,1
260,313,154,299,1
260,315,152,302,1
258,315,153,307,1
254,315,155,312,1
247,316,156,315,1
239,315,155,318,1
239,314,153,319,1
246,312,151,317,1
254,310,149,312,1
260,306,148,306,1
265,303,149,299,1
268,300,152,293,1
269,299,153,289,1
269,297,153,286,1
270,298,149,285,1
271,299,143,283,1
271,299,138,280,1
270,299,136,278,1
266,299,139,277,1
264,300,146,277,1
262,302,158,278,1
260,303,174,279,1
258,304,190,280,1
256,305,204,279,1
254,306,218,279,1
254,306,232,280,1
257,306,242,282,1
262,306,250,286,1
267,305,257,290,1
267,303,264,295,1
264,302,271,296,1
256,300,277,298,1
248,298,286,299,1
242,297,297,299,1
241,297,310,299,1
243,298,322,300,1
246,300,332,304,1
250,302,339,310,1
253,304,343,314,1
255,307,345,318,1
255,309,343,319,1
254,310,339,319,1
252,311,335,316,1
250,311,331,312,1
247,309,328,307,1
243,306,325,299,1
237,303,324,293,1
231,300,325,288,1
227,298,327,284,1
227,297,329,281,1
232,295,333,279,1
239,293,337,278,1
244,292,342,278,1
248,291,345,280,1
251,290,348,282,1
252,291,350,286,1
253,293,353,289,1
254,296,357,292,1
256,299,359,294,1
257,302,359,297,1
259,304,360,300,1
261,305,359,305,1
261,305,357,310,1
255,306,355,316,1
245,306,354,320,1
234,307,354,321,1
227,309,355,319,1
223,309,356,313,1
223,307,358,304,1
224,305,361,295,1
228,302,364,291,1
233,301,369,291,1
237,299,372,294,1
239,298,375,298,1
241,298,377,303,1
242,299,379,308,1
245,300,378,311,1
245,302,376,314,1
243,305,372,315,1
241,309,366,315,1
239,311,358,315,1
240,312,351,315,1
244,313,345,315,1
248,313,339,314,1
253,313,334,312,1
259,311,330,311,1
265,310,326,311,1
268,308,322,309,1
267,306,319,304,1
265,303,315,297,1
263,299,310,289,1
262,295,307,282,1
262,291,305,275,1
262,289,307,271,1
262,287,313,269,1
263,288,322,270,1
263,290,334,272,1
260,293,350,273,1
257,296,369,276,1
253,300,385,279,1
248,302,396,281,1
245,303,401,281,1
243,304,403,281,1
242,304,405,283,1
240,305,407,287,1
240,305,410,292,1
245,305,414,299,1
252,305,417,306,1
258,306,420,312,1
267,305,422,316,1
275,305,424,318,1
281,303,425,316,1
286,302,427,313,1
289,301,429,310,1
292,301,430,308,1
293,299,432,308,1
293,299,432,307,1
292,300,434,307,1
292,303,437,307,1
292,306,440,305,1
293,308,441,303,1
294,309,440,302,1
296,309,436,301,1
298,309,432,299,1
301,309,428,300,1
304,310,426,301,1
302,310,426,302,1
297,310,428,303,1
290,309,430,302,1
284,306,431,301,1
280,303,431,298,1
277,301,430,295,1
280,299,428,293,1
285,298,427,293,1
292,298,426,295,1
297,298,425,298,1
300,299,426,301,1
303,301,427,304,1
304,303,429,307,1
305,306,430,307,1
307,308,431,306,1
307,310,431,305,1
306,311,432,305,1
303,312,433,307,1
297,312,435,311,1
292,311,435,316,1
288,311,435,321,1
286,311,435,324,1
288,311,435,323,1
295,309,435,319,1
302,307,434,314,1
307,304,432,312,1
310,303,431,313,1
314,302,430,316,1
317,302,430,319,1
319,303,430,320,1
318,304,428,316,1
314,305,425,311,1
309,307,422,304,1
306,308,417,300,1
305,309,412,301,1
307,310,410,304,1
309,311,408,305,1
311,310,406,302,1
311,309,403,297,1
311,307,400,292,1
313,306,399,288,1
316,305,398,286,1
319,304,397,286,1
323,303,396,286,1
324,302,395,288,1
324,300,395,291,1
324,298,399,296,1
324,298,404,302,1
325,299,409,309,1
327,301,414,317,1
329,303,417,322,1
332,305,417,324,1
334,305,413,323,1
331,305,403,320,1
328,305,393,316,1
324,305,387,311,1
320,305,384,307,1
316,306,384,303,1
311,307,384,300,1
306,307,384,297,1
305,307,383,298,1
306,307,381,298,1
307,306,379,298,1
308,304,377,297,1
311,302,376,296,1
320,300,375,296,1
332,299,375,296,1
343,298,375,297,1
349,300,375,300,1
351,302,374,302,1
348,304,372,304,1
341,306,370,305,1
335,308,368,304,1
330,310,365,302,1
328,311,361,301,1
328,311,356,301,1
328,310,352,302,1
328,309,347,304,1
329,308,344,305,1
330,308,343,304,1
331,307,343,301,1
334,306,343,296,1
336,304,344,291,1
338,303,345,289,1
339,301,346,289,1
341,300,345,289,1
342,299,342,289,1
344,298,338,291,1
344,299,334,294,1
343,300,333,297,1
341,301,334,300,1
339,302,337,303,1
336,303,340,304,1
332,305,343,305,1
329,305,345,305,1
326,306,346,302,1
323,307,346,300,1
319,308,345,299,1
316,309,344,300,1
315,310,344,301,1
317,311,345,303,1
320,311,347,306,1
320,311,349,306,1
317,311,349,306,1
314,309,347,304,1
309,307,345,302,1
303,305,344,302,1
296,303,344,303,1
296,302,343,304,1
308,301,341,305,1
328,300,337,305,1
349,302,334,304,1
360,304,332,305,1
362,307,331,305,1
354,311,331,306,1
343,315,332,306,1
334,317,331,305,1
331,317,329,304,1
332,315,326,302,1
333,315,322,301,1
335,314,318,300,1
336,313,316,299,1
337,312,313,297,1
336,309,309,295,1
336,307,305,294,1
335,304,301,295,1
335,302,300,298,1
334,300,300,301,1
335,299,302,302,1
336,300,304,303,1
336,301,305,304,1
335,303,307,305,1
333,305,308,305,1
334,306,306,302,1
337,306,304,299,1
340,306,304,299,1
342,307,307,301,1
341,307,310,303,1
340,307,313,305,1
338,308,315,305,1
337,308,316,305,1
334,308,318,305,1
331,308,318,304,1
329,307,318,303,1
327,305,316,301,1
325,302,314,299,1
324,301,312,298,1
324,299,311,299,1
328,299,310,301,1
334,299,309,305,1
339,301,308,308,1
342,304,308,312,1
342,307,308,312,1
341,309,308,310,1
340,310,308,309,1
339,311,307,309,1
339,311,305,310,1
339,311,303,311,1
338,309,301,312,1
337,308,300,314,1
336,307,299,318,1
336,307,300,322,1
339,307,300,325,1
345,307,301,327,1
351,308,301,327,1
357,307,302,325,1
361,306,303,324,1
361,305,305,324,1
359,306,307,324,1
355,306,309,322,1
350,308,313,320,1
345,309,319,319,1
339,310,325,317,1
335,312,329,316,1
330,313,331,315,1
326,314,328,314,1
322,314,322,312,1
321,314,314,310,1
324,314,306,308,1
328,314,299,307,1
331,313,296,308,1
333,313,295,309,1
335,314,295,310,1
334,314,296,311,1
331,313,297,314,1
329,313,301,317,1
331,313,308,322,1
335,313,318,327,1
342,313,326,330,1
349,313,331,332,1
353,313,334,332,1
352,314,335,330,1
349,316,336,327,1
346,317,334,323,1
343,318,332,320,1
342,318,329,318,1
342,316,327,315,1
344,313,324,311,1
346,310,322,308,1
347,308,320,307,1
346,307,317,307,1
343,306,315,309,1
341,305,313,311,1
340,304,312,313,1
341,304,313,313,1
343,303,315,314,1
346,302,318,314,1
349,301,322,316,1
350,301,328,317,1
346,302,333,317,1
339,304,338,318,1
334,306,340,320,1
333,308,340,321,1
334,310,337,322,1
335,313,333,321,1
336,314,330,320,1
337,315,327,320,1
337,314,326,321,1
337,314,325,320,1
336,312,323,319,1
335,311,321,316,1
334,309,320,310,1
335,308,320,305,1
337,306,320,300,1
339,304,319,298,1
342,303,320,299,1
344,302,319,302,1
347,301,317,308,1
349,301,315,314,1
350,303,313,322,1
350,305,313,330,1
351,309,313,337,1
351,312,314,340,1
349,313,313,338,1
347,315,313,334,1
345,316,313,324,1
342,317,313,313,1
342,317,312,303,1
342,315,310,295,1
342,314,310,290,1
342,312,310,288,1
342,312,310,289,1
341,312,310,291,1
339,312,310,294,1
340,311,309,299,1
341,311,308,304,1
344,311,308,310,1
349,310,307,314,1
354,310,308,317,1
359,309,309,319,1
365,310,312,322,1
373,312,315,325,1
381,313,316,328,1
384,315,315,328,1
380,316,312,328,1
364,317,307,325,1
341,318,302,319,1
320,317,297,311,1
305,316,292,304,1
300,317,288,300,1
303,318,285,299,1
308,319,282,298,1
312,318,279,297,1
315,315,280,297,1
317,312,283,297,1
318,310,287,299,1
321,309,292,302,1
326,308,296,304,1
333,308,297,308,1
338,309,296,312,1
340,311,296,316,1
336,314,297,320,1
329,316,300,324,1
324,319,302,326,1
324,320,302,325,1
326,319,301,321,1
328,317,298,314,1
330,315,296,308,1
332,314,295,304,1
333,313,297,303,1
333,313,300,303,1
333,313,303,304,1
331,312,303,304,1
329,310,302,304,1
328,307,297,304,1
328,306,290,304,1
329,304,283,305,1
328,304,278,307,1
326,304,275,310,1
322,305,272,313,1
318,307,270,316,1
314,309,270,318,1
312,311,272,318,1
310,313,276,317,1
310,313,280,315,1
311,313,283,311,1
313,311,283,305,1
315,308,283,299,1
317,306,282,295,1
317,304,280,291,1
317,303,278,287,1
315,304,274,284,1
313,303,270,282,1
312,303,267,282,1
310,301,266,284,1
309,300,268,287,1
307,299,270,292,1
305,299,273,299,1
304,299,277,308,1
305,299,281,317,1
308,301,285,324,1
315,303,286,328,1
321,306,287,330,1
322,310,286,329,1
320,313,286,326,1
317,315,285,321,1
313,316,283,315,1
311,316,282,308,1
308,314,280,302,1
307,312,278,297,1
307,311,277,293,1
310,309,275,290,1
314,308,274,289,1
320,308,273,288,1
329,306,274,287,1
338,304,276,288,1
343,303,278,289,1
338,301,281,292,1
325,300,281,296,1
308,300,280,300,1
295,302,279,306,1
289,304,277,311,1
290,307,278,313,1
297,309,279,313,1
305,310,281,311,1
312,311,283,308,1
316,312,285,304,1
317,311,288,300,1
314,310,288,297,1
309,309,289,295,1
305,308,288,294,1
302,308,288,292,1
299,307,285,289,1
295,306,282,286,1
291,305,279,283,1
290,303,277,282,1
292,302,275,284,1
293,300,275,286,1
293,301,275,289,1
298,302,276,292,1
306,305,279,297,1
313,307,284,300,1
316,310,287,301,1
316,312,289,302,1
315,313,290,301,1
313,313,291,300,1
311,314,291,298,1
310,314,289,297,1
310,313,287,297,1
311,312,284,297,1
312,311,282,299,1
313,310,281,302,1
313,308,281,305,1
314,307,286,309,1
316,306,294,314,1
317,304,303,317,1
317,303,310,320,1
316,303,315,321,1
315,303,317,322,1
313,303,314,322,1
312,304,309,321,1
312,305,304,321,1
311,307,300,319,1
309,309,297,317,1
309,311,297,314,1
311,311,298,309,1
314,311,300,304,1
318,311,303,300,1
321,310,304,294,1
323,310,303,288,1
323,309,299,284,1
320,307,295,283,1
315,305,292,284,1
311,303,291,287,1
309,301,291,292,1
308,299,293,297,1
308,298,295,303,1
310,298,298,307,1
312,300,299,309,1
314,302,300,309,1
317,305,302,309,1
321,307,304,311,1
324,310,307,312,1
326,311,310,313,1
328,312,314,312,1
329,312,318,310,1
330,311,321,308,1
332,310,320,306,1
334,309,317,305,1
336,308,312,305,1
333,307,306,308,1
327,307,301,312,1
319,307,297,316,1
313,307,294,320,1
307,307,293,323,1
301,307,293,325,1
297,305,293,322,1
295,304,295,316,1
294,302,297,309,1
291,301,298,302,1
287,301,300,297,1
288,302,302,294,1
294,304,304,293,1
299,305,306,293,1
302,307,309,294,1
306,309,309,295,1
310,310,308,296,1
313,311,307,296,1
314,310,306,297,1
316,309,306,298,1
318,308,306,298,1
321,307,306,298,1
324,305,305,297,1
327,303,306,295,1
330,301,306,294,1
330,299,305,294,1
330,298,304,295,1
330,297,304,297,1
330,296,305,299,1
328,296,308,301,1
326,297,311,303,1
324,298,313,305,1
322,300,313,305,1
320,302,312,304,1
318,303,310,303,1
316,304,308,301,1
314,305,305,299,1
312,306,303,298,1
309,306,302,296,1
308,306,301,295,1
309,306,301,294,1
311,305,302,294,1
317,305,303,295,1
326,304,303,297,1
336,302,302,299,1
342,301,301,303,1
343,300,301,309,1
339,298,300,315,1
332,298,301,322,1
327,300,305,329,1
322,302,307,334,1
318,305,309,336,1
314,308,309,335,1
311,311,310,332,1
309,314,310,327,1
308,314,309,319,1
307,313,308,309,1
307,311,306,299,1
307,309,303,290,1
308,308,299,283,1
308,307,297,280,1
310,307,294,278,1
315,305,292,277,1
321,303,291,278,1
325,301,291,281,1
325,300,292,286,1
324,299,295,292,1
323,299,298,297,1
323,299,302,303,1
323,300,308,306,1
323,301,315,309,1
321,303,320,310,1
321,304,323,311,1
323,306,324,311,1
324,308,321,312,1
319,310,317,315,1
311,311,308,318,1
305,311,297,321,1
304,310,287,322,1
304,308,279,322,1
303,308,275,319,1
304,307,273,315,1
305,306,275,310,1
310,306,277,303,1
315,304,279,296,1
319,302,280,290,1
320,300,282,286,1
320,298,284,285,1
320,299,287,288,1
320,300,290,292,1
319,303,293,297,1
320,306,296,300,1
319,308,298,302,1
318,311,300,302,1
317,312,302,302,1
316,314,304,302,1
314,314,304,301,1
312,314,306,299,1
312,314,307,299,1
312,314,308,302,1
312,313,307,305,1
310,312,307,308,1
308,311,305,308,1
304,309,303,306,1
301,306,299,304,1
300,304,298,304,1
305,302,297,304,1
313,301,298,302,1
319,300,299,299,1
322,300,299,296,1
323,300,298,294,1
323,302,296,293,1
322,303,292,293,1
321,305,287,293,1
319,307,282,292,1
321,308,277,291,1
328,309,276,292,1
336,309,279,293,1
342,309,285,295,1
344,310,292,298,1
343,310,299,300,1
339,310,305,303,1
336,308,311,304,1
331,306,314,305,1
324,304,315,305,1
316,302,313,305,1
309,300,313,307,1
307,300,314,311,1
309,301,316,314,1
312,303,318,317,1
315,305,318,319,1
318,308,318,320,1
318,311,316,320,1
317,314,312,317,1
315,316,305,311,1
314,316,298,306,1
315,316,292,303,1
315,315,288,301,1
315,314,286,300,1
315,313,285,300,1
316,312,286,301,1
318,312,289,302,1
319,312,291,302,1
321,312,291,300,1
324,310,289,298,1
327,308,288,297,1
329,306,291,297,1
327,305,295,298,1
325,304,300,300,1
323,304,305,302,1
322,304,309,304,1
321,304,309,305,1
319,304,305,305,1
317,306,301,304,1
315,308,296,304,1
312,310,294,304,1
310,312,291,303,1
306,313,289,303,1
303,313,288,303,1
298,312,287,303,1
295,311,287,305,1
302,310,287,307,1
313,310,288,306,1
321,309,289,305,1
326,307,290,303,1
327,305,292,302,1
326,302,292,300,1
324,300,290,298,1
321,300,288,297,1
318,303,286,298,1
315,305,285,299,1
313,307,285,298,1
312,308,284,297,1
311,308,284,294,1
310,309,284,292,1
309,310,285,289,1
307,311,286,288,1
305,311,287,288,1
303,312,288,290,1
302,311,289,296,1
303,310,288,301,1
308,309,288,305,1
312,307,289,308,1
314,306,289,312,1
316,304,290,316,1
318,303,292,319,1
319,301,295,319,1
320,300,298,318,1
319,299,300,315,1
316,299,301,310,1
312,300,300,304,1
311,302,299,298,1
311,303,297,294,1
313,306,296,292,1
316,307,294,292,1
318,309,293,293,1
319,310,291,296,1
320,310,289,298,1
320,310,286,298,1
318,308,283,299,1
314,306,280,299,1
310,305,277,300,1
307,305,276,300,1
303,304,275,298,1
301,302,277,297,1
301,300,281,299,1
302,298,286,302,1
304,296,291,307,1
305,295,295,310,1
307,295,299,314,1
308,297,302,316,1
310,300,304,317,1
312,303,304,315,1
314,305,301,310,1
316,308,297,306,1
318,310,292,303,1
319,311,286,301,1
317,311,281,299,1
314,310,278,296,1
310,309,278,295,1
304,308,279,294,1
299,307,281,294,1
294,305,282,294,1
290,302,283,294,1
289,299,285,296,1
290,298,289,298,1
292,296,293,301,1
294,294,297,302,1
298,294,299,304,1
308,294,301,306,1
315,295,302,310,1
315,297,301,314,1
306,299,300,316,1
295,302,298,315,1
292,303,295,312,1
296,305,293,307,1
303,306,292,305,1
307,307,292,303,1
309,306,293,304,1
310,306,295,307,1
311,306,297,311,1
312,306,298,315,1
314,305,295,317,1
315,303,291,317,1
315,301,286,317,1
316,300,284,318,1
317,298,285,319,1
317,298,287,320,1
314,298,289,320,1
314,298,290,320,1
318,299,289,320,1
324,301,287,320,1
330,303,282,321,1
332,305,275,322,1
330,306,270,323,1
325,307,267,324,1
319,309,269,323,1
315,310,274,320,1
312,310,282,316,1
310,309,288,310,1
309,306,295,305,1
307,304,301,300,1
306,302,305,297,1
305,300,308,296,1
305,298,308,296,1
305,297,307,297,1
306,296,305,300,1
307,295,303,304,1
310,294,302,308,1
312,294,301,310,1
313,296,301,311,1
313,299,302,310,1
314,302,304,307,1
315,304,306,305,1
315,307,307,305,1
311,308,306,306,1
305,309,304,307,1
298,309,303,308,1
293,308,301,309,1
291,306,297,309,1
289,304,293,309,1
291,302,291,308,1
293,301,292,307,1
298,300,295,305,1
301,299,302,302,1
304,298,307,299,1
305,297,310,298,1
305,297,311,300,1
305,297,310,302,1
304,298,309,305,1
303,300,306,308,1
303,303,301,310,1
302,306,295,310,1
300,308,289,309,1
298,309,284,307,1
296,310,280,305,1
296,311,277,304,1
296,312,275,304,1
297,313,275,304,1
297,313,275,306,1
298,314,276,309,1
298,313,276,314,1
297,313,276,316,1
294,311,275,318,1
287,308,274,320,1
281,305,274,320,1
282,302,277,317,1
289,300,281,314,1
297,299,287,312,1
304,300,292,310,1
308,301,297,310,1
309,303,301,310,1
307,305,304,311,1
305,307,307,312,1
302,308,308,312,1
300,309,306,310,1
298,309,303,307,1
297,309,300,304,1
297,309,297,301,1
298,308,293,298,1
299,307,289,296,1
298,306,285,295,1
296,305,282,294,1
294,304,280,294,1
293,303,281,294,1
293,301,283,295,1
291,300,286,296,1
290,299,290,299,1
292,299,292,302,1
296,299,291,305,1
303,301,288,308,1
308,304,284,310,1
314,306,280,311,1
317,307,277,310,1
317,307,275,310,1
314,306,276,309,1
308,306,278,308,1
301,306,281,307,1
294,306,283,307,1
290,307,285,308,1
287,307,287,311,1
286,306,289,313,1
287,304,291,316,1
288,302,292,320,1
290,300,291,323,1
292,297,288,325,1
294,296,285,327,1
295,296,283,329,1
297,296,284,329,1
297,298,289,329,1
297,300,297,329,1
298,303,305,330,1
299,306,308,332,1
298,310,306,333,1
297,312,299,332,1
294,314,290,330,1
294,314,281,325,1
295,313,275,319,1
297,312,271,310,1
300,311,270,302,1
303,309,270,297,1
306,306,270,292,1
310,305,268,290,1
312,304,266,290,1
312,303,263,292,1
309,301,261,295,1
303,300,259,295,1
297,297,259,292,1
292,295,258,288,1
289,295,259,287,1
288,296,261,288,1
286,298,266,289,1
285,300,272,290,1
285,303,278,290,1
284,305,284,291,1
285,305,288,291,1
286,305,292,292,1
287,305,296,293,1
287,305,298,293,1
287,305,299,294,1
286,305,300,294,1
285,304,301,293,1
283,303,301,292,1
281,301,299,292,1
281,300,295,293,1
285,298,290,296,1
292,296,286,301,1
297,295,284,307,1
301,295,283,313,1
303,296,284,318,1
305,299,285,321,1
308,303,288,322,1
310,306,293,321,1
310,309,297,319,1
310,311,301,315,1
307,312,303,309,1
303,312,305,303,1
297,311,306,298,1
294,310,307,294,1
292,309,308,291,1
293,307,307,289,1
295,306,306,287,1
298,305,304,287,1
298,304,301,288,1
297,302,298,289,1
295,301,296,291,1
294,299,296,293,1
292,298,299,295,1
289,298,304,297,1
288,299,310,301,1
290,302,319,305,1
293,305,330,309,1
295,309,340,316,1
297,312,348,322,1
298,315,352,328,1
299,316,353,334,1
302,318,348,338,1
305,318,340,343,1
308,319,329,343,1
310,318,318,339,1
311,317,310,332,1
313,315,307,325,1
313,313,308,317,1
314,312,310,310,1
315,310,314,302,1
315,307,317,295,1
316,305,319,292,1
317,304,320,294,1
317,303,319,298,1
317,304,317,304,1
317,306,316,310,1
320,308,317,315,1
323,310,318,316,1
323,312,320,317,1
322,313,321,317,1
318,314,323,316,1
314,314,324,315,1
309,314,325,314,1
304,315,325,313,1
297,315,324,312,1
291,315,324,312,1
289,314,323,313,1
289,313,323,314,1
291,310,324,313,1
293,307,326,311,1
296,305,329,310,1
299,304,331,310,1
302,303,333,311,1
306,303,334,313,1
309,304,334,315,1
312,305,336,317,1
314,307,338,319,1
316,309,339,321,1
316,310,339,322,1
317,311,338,322,1
317,312,336,321,1
317,311,334,320,1
315,310,332,319,1
313,309,329,318,1
311,307,325,316,1
308,305,322,313,1
306,304,319,310,1
305,302,317,305,1
306,301,315,302,1
306,300,312,300,1
307,299,308,299,1
309,297,308,300,1
311,297,312,303,1
311,296,317,308,1
312,297,323,312,1
316,300,329,317,1
319,302,334,321,1
320,305,338,324,1
316,308,341,325,1
311,310,342,325,1
305,311,340,321,1
303,311,336,317,1
302,312,330,313,1
302,312,323,309,1
302,312,318,306,1
303,310,314,302,1
305,308,313,301,1
307,307,313,301,1
308,304,315,302,1
306,302,317,303,1
303,300,319,305,1
299,299,321,309,1
297,299,321,315,1
296,300,320,323,1
295,302,318,329,1
294,303,317,334,1
295,305,316,336,1
299,306,314,336,1
304,308,313,334,1
309,309,311,329,1
311,310,308,321,1
311,310,305,313,1
310,310,303,306,1
308,310,302,300,1
306,309,301,297,1
304,309,302,296,1
303,307,302,298,1
304,306,304,303,1
304,306,305,309,1
305,305,306,316,1
306,304,308,322,1
307,303,311,326,1
306,303,314,327,1
304,302,317,324,1
303,301,319,322,1
302,302,321,322,1
302,303,321,324,1
302,305,319,323,1
301,308,315,321,1
302,310,311,317,1
305,311,307,312,1
309,311,304,307,1
313,311,302,301,1
316,311,300,295,1
319,309,298,291,1
319,308,296,288,1
316,305,294,287,1
312,303,292,286,1
307,301,290,285,1
302,298,290,285,1
297,297,291,287,1
292,295,291,291,1
288,295,292,296,1
286,296,295,303,1
285,297,299,310,1
284,300,304,316,1
284,303,309,320,1
285,306,314,322,1
286,309,319,323,1
286,311,321,324,1
287,313,320,326,1
288,314,315,327,1
290,314,309,327,1
289,315,302,328,1
286,314,296,328,1
283,313,290,325,1
279,311,287,322,1
275,309,284,317,1
269,306,283,311,1
268,302,283,305,1
273,299,284,300,1
281,298,285,298,1
288,297,286,298,1
294,298,286,299,1
299,298,285,302,1
300,298,282,304,1
300,299,280,304,1
296,300,279,304,1
292,302,279,303,1
288,303,281,300,1
285,304,285,297,1
283,305,289,296,1
283,306,292,297,1
282,307,293,298,1
281,307,290,299,1
280,305,287,300,1
280,303,286,301,1
280,302,286,301,1
279,300,287,301,1
279,298,288,302,1
281,296,288,303,1
283,296,287,305,1
284,297,287,306,1
283,298,287,306,1
279,300,288,306,1
274,303,289,306,1
270,306,290,306,1
268,309,291,307,1
269,311,292,308,1
273,313,292,308,1
278,315,292,308,1
282,315,292,309,1
286,316,292,309,1
289,317,293,310,1
289,317,295,311,1
287,317,297,310,1
281,315,297,309,1
276,312,296,307,1
274,309,293,306,1
275,305,289,306,1
277,302,287,306,1
280,299,289,308,1
284,298,292,311,1
287,298,294,315,1
287,299,294,319,1
286,301,294,322,1
286,304,293,325,1
285,307,293,324,1
284,310,293,321,1
283,312,296,316,1
283,313,302,311,1
282,314,307,307,1
281,314,312,304,1
280,313,315,303,1
280,312,316,304,1
280,312,314,305,1
281,311,309,304,1
283,309,302,302,1
286,307,298,300,1
289,304,298,296,1
292,301,301,293,1
296,299,304,293,1
300,297,307,297,1
303,298,308,303,1
303,299,305,309,1
301,300,302,314,1
300,303,298,317,1
297,305,296,317,1
294,307,294,314,1
289,308,293,311,1
286,310,292,306,1
282,311,292,303,1
280,311,291,299,1
278,311,291,297,1
277,310,292,296,1
278,310,293,296,1
278,309,294,299,1
277,308,293,303,1
277,307,291,308,1
278,305,289,312,1
279,304,287,314,1
280,304,287,315,1
283,305,290,315,1
290,305,296,312,1
298,306,304,310,1
304,306,312,308,1
305,306,317,308,1
302,307,320,308,1
296,309,322,306,1
290,311,322,304,1
285,313,322,302,1
280,313,320,300,1
277,314,318,300,1
276,314,313,300,1
276,313,307,301,1
276,312,301,302,1
276,312,298,304,1
278,312,297,305,1
280,311,299,305,1
283,309,303,305,1
286,308,306,304,1
288,306,310,304,1
289,305,313,306,1
289,304,318,309,1
289,305,322,313,1
287,306,326,316,1
284,308,329,316,1
282,310,332,316,1
282,312,333,315,1
285,313,334,314,1
290,313,334,314,1
296,313,335,313,1
300,314,335,312,1
300,314,335,310,1
296,312,333,307,1
292,310,331,304,1
291,308,329,303,1
294,306,327,302,1
300,304,326,302,1
308,303,326,303,1
315,303,327,306,1
320,303,328,308,1
324,303,329,312,1
324,302,331,317,1
320,303,332,322,1
313,304,334,326,1
307,306,335,327,1
303,309,336,324,1
300,310,336,318,1
297,311,336,312,1
296,311,337,307,1
296,311,339,303,1
297,311,341,299,1
298,311,342,296,1
298,310,341,295,1
298,310,340,296,1
298,310,338,297,1
297,309,337,299,1
297,308,336,301,1
298,306,337,304,1
299,305,340,308,1
300,303,346,314,1
301,302,352,321,1
304,302,357,328,1
306,303,360,334,1
308,304,359,339,1
311,307,353,343,1
314,309,347,345,1
317,311,341,342,1
321,311,337,337,1
323,311,333,331,1
324,310,330,325,1
320,308,328,319,1
313,306,329,314,1
306,305,330,312,1
301,305,333,312,1
297,305,335,311,1
294,304,335,308,1
290,302,333,304,1
290,301,331,301,1
293,300,328,300,1
296,299,327,301,1
300,299,328,304,1
304,299,329,308,1
307,300,331,312,1
308,302,334,315,1
308,305,338,319,1
305,308,340,321,1
303,309,342,324,1
300,311,343,327,1
299,311,340,330,1
299,312,335,330,1
300,313,327,331,1
301,312,320,331,1
303,312,314,329,1
304,312,310,327,1
306,311,308,325,1
307,309,308,323,1
306,307,312,323,1
304,305,316,325,1
301,304,321,327,1
297,303,324,328,1
293,301,327,327,1
289,301,330,325,1
286,300,331,322,1
288,301,331,319,1
294,303,331,318,1
301,305,329,316,1
307,307,325,316,1
309,308,318,314,1
308,308,310,311,1
306,307,303,307,1
305,307,298,304,1
307,307,294,303,1
308,308,294,302,1
309,309,297,303,1
310,310,303,304,1
309,311,309,306,1
307,311,313,308,1
305,310,315,310,1
304,309,315,311,1
305,307,312,313,1
306,306,310,315,1
307,306,309,318,1
309,306,311,321,1
310,307,315,324,1
311,309,319,326,1
313,311,324,327,1
313,313,325,326,1
313,316,325,326,1
311,318,323,326,1
308,319,319,327,1
304,318,313,328,1
301,317,307,328,1
300,316,302,329,1
302,316,300,331,1
304,316,302,332,1
306,315,305,330,1
308,313,308,325,1
311,310,311,318,1
315,306,313,311,1
319,302,313,307,1
321,301,313,307,1
322,300,312,308,1
322,300,311,309,1
322,302,310,310,1
320,304,310,311,1
316,306,309,311,1
311,309,309,311,1
305,310,309,308,1
299,311,308,306,1
294,312,308,305,1
291,313,310,305,1
290,313,313,308,1
294,313,317,310,1
301,313,321,312,1
309,313,324,314,1
314,312,327,316,1
317,311,330,318,1
319,309,330,319,1
321,307,329,320,1
323,304,325,321,1
325,302,320,321,1
327,301,315,321,1
329,300,311,320,1
330,301,307,319,1
330,303,304,318,1
329,305,302,315,1
329,307,303,312,1
328,308,305,307,1
328,309,306,303,1
329,309,306,298,1
329,308,305,296,1
328,306,304,295,1
323,306,303,296,1
318,305,300,299,1
311,304,298,301,1
305,303,295,303,1
302,302,292,303,1
300,302,291,304,1
299,302,291,304,1
299,301,293,303,1
300,301,298,304,1
302,301,304,306,1
303,302,310,309,1
304,303,315,313,1
305,305,317,316,1
305,308,318,317,1
303,310,319,317,1
301,311,320,317,1
298,312,320,318,1
296,311,320,319,1
294,311,321,321,1
295,311,321,323,1
299,312,322,326,1
304,311,324,328,1
307,311,324,329,1
306,309,322,329,1
306,307,319,327,1
309,305,315,325,1
314,304,311,321,1
318,303,307,317,1
321,302,304,314,1
322,302,303,312,1
322,302,303,312,1
322,304,306,312,1
321,306,309,315,1
319,308,312,316,1
317,309,313,315,1
315,309,314,311,1
313,309,315,306,1
311,309,315,303,1
311,308,314,301,1
310,308,311,300,1
310,308,307,301,1
309,309,302,303,1
309,309,299,304,1
309,309,297,305,1
310,309,297,306,1
311,307,299,309,1
313,305,301,310,1
316,303,303,312,1
319,302,307,313,1
324,302,312,314,1
329,302,316,316,1
333,304,319,318,1
336,307,321,320,1
336,310,322,323,1
330,313,322,324,1
320,316,320,324,1
307,317,315,322,1
298,318,309,320,1
294,317,304,317,1
295,315,301,313,1
299,314,300,310,1
302,312,303,308,1
304,311,309,308,1
305,310,316,307,1
305,308,321,306,1
304,306,323,307,1
303,303,321,309,1
302,301,320,311,1
304,300,318,313,1
308,300,319,315,1
314,302,320,316,1
321,303,319,315,1
325,305,317,314,1
326,307,312,312,1
325,308,308,310,1
322,309,305,307,1
318,310,303,305,1
313,312,304,304,1
309,312,305,305,1
306,313,306,307,1
303,313,306,309,1
301,312,304,311,1
300,311,300,311,1
301,309,296,310,1
302,308,292,310,1
303,306,290,310,1
302,304,289,310,1
302,303,290,311,1
302,301,294,310,1
304,301,300,308,1
305,301,307,304,1
306,302,312,302,1
307,304,315,301,1
309,306,317,300,1
311,307,317,300,1
312,308,316,302,1
310,309,315,305,1
306,310,314,308,1
300,310,311,310,1
293,312,307,310,1
287,312,303,310,1
287,313,299,310,1
294,312,297,310,1
301,310,295,310,1
307,308,296,310,1
311,306,298,309,1
314,304,301,308,1
315,302,303,306,1
315,300,305,303,1
314,299,306,301,1
312,299,305,298,1
309,299,304,296,1
307,301,301,294,1
304,303,298,293,1
302,305,295,292,1
301,307,292,291,1
301,308,288,291,1
301,310,284,292,1
302,311,283,294,1
303,312,285,295,1
304,312,289,298,1
303,312,293,301,1
299,312,296,306,1
298,310,298,310,1
297,308,299,313,1
296,305,299,314,1
296,302,300,315,1
296,300,302,316,1
296,300,303,318,1
294,301,304,319,1
292,302,305,318,1
294,302,305,315,1
299,304,305,314,1
303,306,306,312,1
303,307,307,309,1
301,309,306,304,1
298,310,305,297,1
296,311,304,290,1
294,312,303,286,1
293,312,302,284,1
291,312,300,282,1
291,311,299,282,1
292,310,297,281,1
294,307,294,280,1
296,305,289,280,1
298,303,283,281,1
301,302,278,283,1
302,300,276,286,1
303,299,277,289,1
303,299,280,294,1
302,298,287,298,1
301,299,294,303,1
300,301,300,307,1
299,303,305,311,1
299,305,309,314,1
298,307,310,315,1
297,308,307,316,1
297,309,304,315,1
297,310,300,312,1
295,311,297,308,1
294,312,294,305,1
292,312,293,302,1
292,311,295,299,1
293,310,296,296,1
296,307,295,293,1
301,305,294,292,1
306,302,293,292,1
311,300,292,293,1
314,299,292,293,1
314,298,294,292,1
310,298,296,291,1
304,300,300,291,1
298,302,304,293,1
294,305,307,295,1
291,307,308,297,1
292,309,309,298,1
294,311,309,299,1
297,312,308,298,1
298,312,307,297,1
297,312,305,297,1
295,312,303,298,1
293,312,303,300,1
292,311,303,303,1
292,309,303,307,1
292,306,304,312,1
292,304,304,318,1
292,302,304,324,1
291,300,306,327,1
290,299,308,328,1
287,299,310,327,1
283,301,310,322,1
280,303,310,315,1
279,305,310,308,1
281,306,310,303,1
282,307,309,299,1
280,308,307,298,1
280,309,306,298,1
284,310,306,297,1
288,310,306,294,1
291,309,305,291,1
294,308,304,288,1
300,306,300,286,1
304,304,295,286,1
305,302,289,285,1
305,301,284,285,1
305,300,283,285,1
306,299,284,285,1
306,297,289,287,1
305,296,292,289,1
304,295,294,292,1
302,296,295,295,1
302,297,295,300,1
301,299,296,305,1
300,301,296,309,1
298,303,298,312,1
296,306,301,315,1
294,308,305,317,1
293,309,308,318,1
292,310,310,318,1
292,311,312,318,1
292,311,313,320,1
292,312,314,320,1
294,311,314,317,1
296,309,313,310,1
299,306,312,304,1
302,302,310,301,1
306,298,310,300,1
309,296,310,303,1
312,295,310,306,1
314,294,311,309,1
315,295,312,312,1
314,297,314,313,1
312,300,317,314,1
308,302,318,314,1
303,303,318,313,1
298,304,316,310,1
295,305,313,308,1
293,306,309,307,1
291,307,306,306,1
290,308,304,306,1
288,308,302,306,1
287,306,299,305,1
286,306,298,306,1
286,307,299,309,1
289,306,302,312,1
293,305,303,312,1
297,302,303,311,1
301,300,304,309,1
306,299,308,308,1
312,297,312,307,1
317,297,315,307,1
315,298,319,308,1
307,299,321,309,1
298,302,323,309,1
292,304,322,307,1
289,305,320,303,1
286,306,318,299,1
283,306,316,298,1
283,306,316,297,1
285,306,316,298,1
288,306,314,299,1
291,305,309,302,1
296,303,304,305,1
300,301,299,308,1
302,299,296,309,1
304,297,294,311,1
303,296,293,313,1
301,295,290,313,1
299,295,289,313,1
299,297,291,312,1
300,299,294,310,1
301,301,299,309,1
301,303,303,310,1
302,305,306,311,1
303,308,307,312,1
304,310,306,312,1
305,312,304,310,1
306,313,304,308,1
307,313,304,305,1
307,312,306,302,1
307,311,307,300,1
306,310,309,299,1
306,309,310,300,1
305,307,308,301,1
305,306,306,304,1
305,304,302,307,1
305,303,299,308,1
306,303,297,307,1
306,303,296,307,1
306,303,298,307,1
306,304,300,310,1
305,306,303,313,1
305,309,305,315,1
305,311,305,315,1
305,313,303,314,1
305,315,298,312,1
305,316,293,309,1
304,316,290,304,1
302,315,287,299,1
301,313,288,295,1
302,312,291,293,1
304,311,293,291,1
307,310,293,291,1
311,308,293,291,1
315,306,293,290,1
318,303,294,289,1
319,300,296,290,1
320,299,298,294,1
320,299,302,299,1
320,300,306,304,1
318,301,310,309,1
316,304,314,315,1
313,307,319,323,1
310,310,322,329,1
306,313,323,333,1
305,315,323,336,1
307,316,320,338,1
310,318,318,338,1
312,318,316,336,1
311,318,317,330,1
310,316,319,322,1
310,315,320,314,1
310,313,321,309,1
308,311,321,306,1
305,310,320,303,1
301,308,317,299,1
300,305,313,293,1
301,303,309,288,1
304,300,307,285,1
309,299,307,285,1
314,299,310,287,1
319,301,313,293,1
321,304,315,299,1
320,306,315,305,1
316,308,314,308,1
311,309,314,310,1
308,310,315,312,1
305,312,316,314,1
303,312,316,316,1
301,312,316,316,1
299,313,317,316,1
299,312,317,315,1
302,311,316,314,1
307,309,314,312,1
311,308,311,309,1
315,306,310,306,1
318,304,308,304,1
321,303,307,304,1
323,304,308,305,1
326,304,309,308,1
328,305,311,311,1
329,306,312,314,1
328,307,313,319,1
326,309,314,322,1
323,310,314,323,1
319,310,314,321,1
315,310,315,316,1
312,309,316,309,1
310,309,316,301,1
310,308,317,294,1
312,308,320,289,1
314,307,322,287,1
315,305,324,288,1
315,304,325,289,1
314,302,324,292,1
312,300,324,295,1
312,299,324,299,1
312,298,324,302,1
314,299,325,305,1
317,300,325,306,1
319,301,325,306,1
320,302,326,306,1
319,304,326,307,1
316,306,325,309,1
311,307,325,311,1
309,309,324,314,1
309,312,322,318,1
312,314,319,320,1
314,314,315,321,1
315,314,313,320,1
315,314,312,318,1
314,314,314,316,1
313,314,317,312,1
311,312,319,308,1
308,311,320,304,1
306,309,320,303,1
304,306,321,305,1
303,304,321,309,1
303,302,322,312,1
305,301,322,317,1
307,302,323,323,1
307,304,322,328,1
309,307,320,333,1
311,311,317,332,1
313,314,313,328,1
312,315,312,321,1
311,316,312,315,1
310,315,315,310,1
309,315,319,306,1
310,313,322,302,1
313,312,325,298,1
315,310,328,297,1
314,309,332,297,1
314,307,335,300,1
314,306,336,305,1
315,305,338,310,1
316,304,338,316,1
317,303,336,323,1
318,303,333,327,1
319,303,331,327,1
318,302,328,322,1
315,300,325,314,1
312,300,323,307,1
309,301,320,299,1
309,303,315,292,1
309,305,309,288,1
310,307,303,286,1
310,309,299,286,1
311,310,296,289,1
312,311,295,292,1
313,311,296,296,1
313,311,297,300,1
315,311,298,303,1
319,310,297,305,1
324,309,296,307,1
326,307,295,309,1
325,305,295,313,1
323,303,296,316,1
320,301,299,318,1
318,300,303,320,1
317,300,307,321,1
317,301,311,322,1
316,302,315,322,1
316,304,317,321,1
314,306,317,320,1
312,308,316,317,1
309,309,315,314,1
309,310,313,312,1
311,310,312,310,1
314,310,310,308,1
317,309,309,306,1
319,308,310,304,1
321,307,310,304,1
321,306,311,305,1
321,304,312,305,1
321,302,313,305,1
322,301,311,306,1
323,300,308,309,1
323,300,306,311,1
322,301,304,313,1
318,301,304,315,1
313,303,304,317,1
306,305,305,318,1
296,307,306,317,1
286,309,308,314,1
280,311,309,311,1
284,312,310,308,1
291,313,310,307,1
298,313,310,307,1
304,313,308,306,1
308,312,304,305,1
312,311,298,301,1
317,309,293,297,1
319,307,289,291,1
317,304,286,286,1
313,301,285,285,1
308,299,288,287,1
305,298,292,292,1
306,298,297,298,1
308,299,301,305,1
310,300,304,312,1
311,302,305,318,1
309,304,305,322,1
304,307,306,323,1
299,309,308,322,1
295,311,312,319,1
292,313,316,316,1
290,314,318,314,1
289,314,319,312,1
290,313,317,310,1
293,313,314,307,1
297,311,311,302,1
306,309,308,296,1
315,307,308,291,1
320,306,309,288,1
320,304,311,287,1
318,303,314,288,1
315,302,317,290,1
313,301,320,293,1
312,302,320,299,1
312,304,317,307,1
312,306,311,317,1
313,308,304,327,1
314,309,298,336,1
314,309,291,343,1
314,309,286,349,1
313,310,285,354,1
312,311,286,357,1
310,313,291,357,1
309,313,297,352,1
310,313,303,341,1
312,312,306,329,1
316,310,309,316,1
320,307,312,305,1
325,304,313,297,1
329,300,312,290,1
328,297,310,284,1
325,294,310,282,1
320,292,312,282,1
313,291,315,284,1
304,292,319,288,1
296,294,319,291,1
291,297,318,294,1
288,301,315,297,1
286,304,309,296,1
285,306,302,295,1
285,308,295,294,1
286,309,292,294,1
286,309,291,297,1
286,310,293,301,1
288,310,296,305,1
293,311,300,310,1
297,311,302,313,1
300,311,304,315,1
301,309,305,315,1
302,306,305,315,1
304,304,304,314,1
305,302,303,312,1
306,300,303,310,1
308,299,302,307,1
309,300,302,305,1
311,301,301,304,1
313,303,301,304,1
316,305,301,304,1
317,306,300,305,1
316,309,300,306,1
315,310,299,308,1
312,312,298,310,1
309,313,296,312,1
304,313,293,313,1
300,313,289,313,1
296,311,287,311,1
295,310,284,310,1
295,308,282,310,1
295,306,280,312,1
293,305,279,312,1
293,303,280,312,1
297,301,284,311,1
303,301,292,310,1
308,302,300,311,1
310,304,306,313,1
312,307,311,315,1
312,309,312,316,1
311,311,312,317,1
310,313,311,316,1
312,313,307,312,1
313,313,302,308,1
314,312,298,304,1
314,312,297,302,1
314,310,297,300,1
316,309,298,300,1
318,308,298,300,1
317,306,296,298,1
316,305,294,298,1
314,303,292,299,1
313,300,293,301,1
311,298,295,303,1
309,297,298,307,1
308,296,302,311,1
308,295,304,315,1
309,297,305,319,1
310,299,306,321,1
311,302,304,321,1
312,305,301,320,1
311,308,298,316,1
310,311,297,311,1
308,312,300,307,1
306,314,307,305,1
304,315,313,305,1
303,316,317,307,1
300,316,319,309,1
297,314,318,311,1
297,313,313,313,1
301,311,308,314,1
305,310,304,315,1
307,308,301,313,1
307,306,299,309,1
308,303,297,305,1
310,300,297,303,1
313,299,296,302,1
314,298,297,302,1
315,299,297,303,1
316,301,297,304,1
315,304,298,303,1
314,306,299,302,1
312,308,299,300,1
308,309,300,298,1
304,310,301,297,1
298,310,300,296,1
293,310,299,297,1
289,310,298,299,1
288,310,298,303,1
288,310,299,310,1
292,310,301,317,1
298,309,304,322,1
304,308,308,323,1
310,306,309,320,1
315,303,309,314,1
321,302,307,309,1
327,301,304,306,1
330,302,300,304,1
329,303,299,304,1
325,304,298,305,1
318,304,299,305,1
313,305,298,305,1
309,306,296,305,1
307,306,293,304,1
307,306,290,302,1
310,307,287,301,1
317,307,284,300,1
323,307,281,299,1
328,307,278,299,1
329,307,278,300,1
327,306,279,300,1
322,306,284,302,1
317,305,288,303,1
312,303,293,304,1
310,303,297,304,1
309,303,300,304,1
309,303,303,305,1
311,303,305,306,1
314,304,308,308,1
319,305,310,309,1
321,306,312,310,1
320,307,314,309,1
315,308,315,309,1
307,309,314,309,1
299,309,310,311,1
295,311,304,312,1
293,311,299,313,1
294,312,294,312,1
297,311,289,309,1
300,311,284,307,1
302,309,279,304,1
304,307,276,303,1
306,305,275,302,1
309,302,279,301,1
311,300,287,302,1
313,299,294,304,1
317,299,301,308,1
319,299,307,311,1
318,300,310,313,1
315,302,311,314,1
313,303,312,314,1
312,305,313,314,1
312,307,313,314,1
311,308,312,312,1
311,308,309,309,1
311,308,305,308,1
311,307,302,308,1
312,307,301,311,1
311,307,301,315,1
308,307,304,320,1
304,307,306,325,1
301,307,307,327,1
299,307,306,327,1
298,308,306,326,1
299,309,306,323,1
300,309,307,319,1
300,309,307,314,1
299,308,309,311,1
299,309,313,309,1
301,310,315,310,1
304,311,317,307,1
306,310,316,304,1
306,310,315,302,1
306,310,312,302,1
308,310,310,304,1
313,309,307,307,1
319,309,306,310,1
322,310,306,312,1
321,310,307,312,1
317,310,307,310,1
312,309,308,308,1
306,307,308,304,1
303,304,309,299,1
300,301,308,294,1
300,297,306,289,1
299,295,303,284,1
300,295,299,282,1
301,295,297,281,1
301,297,295,282,1
300,299,295,284,1
300,301,296,287,1
300,303,297,289,1
299,305,298,292,1
299,307,297,294,1
298,307,295,295,1
298,308,292,298,1
298,308,290,302,1
297,308,289,307,1
299,309,289,310,1
300,309,290,313,1
300,307,291,314,1
302,305,293,315,1
306,303,299,314,1
309,301,305,310,1
309,299,311,307,1
309,298,315,305,1
309,298,318,305,1
310,299,319,307,1
310,301,316,308,1
312,303,312,309,1
314,306,308,308,1
314,308,304,305,1
312,310,302,302,1
307,311,300,300,1
302,312,300,302,1
298,313,298,303,1
297,312,295,303,1
296,311,292,303,1
297,309,290,303,1
298,308,291,304,1
298,306,294,305,1
296,305,298,306,1
295,303,303,306,1
294,301,307,306,1
294,299,310,306,1
296,297,312,305,1
299,295,312,307,1
303,295,311,309,1
305,296,311,311,1
306,297,311,314,1
305,298,313,316,1
304,300,315,317,1
302,302,315,317,1
300,304,314,316,1
297,307,311,315,1
294,308,308,311,1
294,308,305,308,1
294,307,301,307,1
297,306,298,308,1
300,306,296,312,1
302,306,295,319,1
301,306,296,327,1
298,307,298,336,1
295,307,299,344,1
296,306,302,349,1
298,304,304,349,1
302,303,305,345,1
309,301,307,338,1
313,301,308,329,1
314,301,308,321,1
311,302,306,316,1
307,303,304,313,1
303,304,303,312,1
301,304,303,312,1
299,305,304,312,1
299,306,307,311,1
300,307,310,307,1
300,306,310,303,1
299,305,309,298,1
296,303,307,295,1
293,302,306,293,1
291,301,305,292,1
293,299,303,292,1
297,298,302,291,1
301,296,302,292,1
304,296,304,294,1
307,296,308,298,1
310,297,311,303,1
310,299,314,308,1
310,302,315,314,1
308,304,313,318,1
305,305,310,319,1
302,305,308,319,1
300,306,308,320,1
303,307,310,321,1
308,308,313,320,1
313,308,316,318,1
316,309,318,315,1
317,309,317,311,1
316,308,313,307,1
314,307,307,302,1
311,304,302,298,1
308,302,298,296,1
306,300,297,297,1
304,299,296,299,1
303,298,295,302,1
306,298,295,307,1
309,300,296,313,1
311,302,297,317,1
313,304,299,320,1
315,305,301,320,1
314,306,304,318,1
311,306,308,318,1
307,307,312,318,1
305,308,313,318,1
302,309,311,317,1
301,310,306,314,1
299,311,304,312,1
298,311,304,311,1
299,311,307,312,1
303,310,311,312,1
308,307,316,312,1
313,304,318,311,1
315,300,316,309,1
313,298,312,309,1
309,296,307,310,1
306,295,304,311,1
304,295,301,313,1
306,297,300,314,1
311,298,300,315,1
316,301,302,316,1
319,304,305,316,1
318,306,307,315,1
315,307,306,314,1
310,306,306,314,1
303,306,304,314,1
296,305,303,314,1
290,305,304,313,1
287,304,306,314,1
286,304,309,314,1
284,304,311,315,1
283,303,312,316,1
287,302,311,317,1
293,301,310,321,1
300,301,311,326,1
307,301,313,331,1
312,302,316,334,1
316,303,317,332,1
320,304,317,328,1
323,304,316,324,1
325,304,314,320,1
325,305,313,315,1
322,306,312,310,1
318,306,313,305,1
312,307,316,303,1
305,308,321,301,1
298,308,325,303,1
293,309,329,305,1
293,309,329,304,1
297,309,325,302,1
302,307,318,300,1
305,306,310,299,1
308,305,303,298,1
309,303,300,298,1
309,302,300,300,1
308,302,303,303,1
309,303,306,308,1
311,304,311,314,1
314,306,316,320,1
316,308,321,325,1
318,310,325,329,1
318,312,325,332,1
316,313,321,332,1
313,314,315,329,1
308,314,310,327,1
304,314,306,324,1
300,313,302,321,1
298,312,296,316,1
297,310,291,312,1
300,308,289,308,1
306,307,289,307,1
313,306,292,308,1
319,305,295,309,1
323,304,298,310,1
323,302,300,312,1
320,302,303,314,1
315,302,305,317,1
309,304,307,320,1
300,307,309,324,1
291,311,310,328,1
282,314,311,332,1
276,316,310,335,1
276,318,310,334,1
279,317,308,329,1
282,316,305,322,1
288,314,301,315,1
293,312,297,308,1
298,311,293,301,1
302,309,291,297,1
305,308,290,294,1
307,306,289,294,1
309,305,288,296,1
311,303,290,300,1
313,302,294,305,1
315,301,300,311,1
316,301,306,317,1
316,302,311,323,1
317,303,314,327,1
319,306,316,330,1
322,308,317,330,1
324,310,318,329,1
324,311,318,327,1
322,312,320,325,1
321,313,321,324,1
318,314,321,322,1
311,315,321,319,1
303,315,322,316,1
297,315,324,312,1
293,315,325,310,1
291,314,325,309,1
291,312,324,307,1
292,310,321,305,1
293,307,315,302,1
295,304,308,298,1
296,302,300,295,1
298,300,294,293,1
300,300,290,292,1
302,300,288,292,1
303,302,290,294,1
303,304,296,298,1
301,306,303,301,1
298,308,310,303,1
294,309,315,304,1
295,310,319,304,1
299,311,319,303,1
303,310,317,303,1
305,310,317,304,1
307,309,316,305,1
309,308,313,307,1
309,308,310,308,1
309,306,307,309,1
309,306,305,310,1
310,305,304,311,1
311,304,305,312,1
312,303,307,312,1
312,302,310,313,1
313,300,310,314,1
313,300,311,315,1
312,301,311,314,1
312,301,312,314,1
311,303,311,313,1
307,305,309,312,1
304,306,309,312,1
302,308,308,312,1
302,309,308,312,1
303,310,306,311,1
304,310,305,310,1
304,309,305,310,1
302,308,305,312,1
301,307,306,313,1
298,305,308,314,1
296,304,309,315,1
295,303,311,316,1
294,302,313,317,1
295,302,315,319,1
298,301,317,320,1
302,301,317,318,1
306,302,315,315,1
309,303,310,311,1
311,303,305,308,1
315,304,299,305,1
317,305,295,302,1
317,306,290,301,1
315,306,287,301,1
312,307,285,301,1
309,307,286,300,1
305,308,292,302,1
302,309,299,306,1
302,310,304,311,1
304,310,306,315,1
304,310,307,317,1
304,309,307,317,1
305,308,309,320,1
308,307,311,323,1
310,306,314,326,1
311,305,315,326,1
310,303,315,325,1
306,302,313,322,1
302,302,310,320,1
300,304,307,318,1
300,306,304,317,1
300,309,301,316,1
302,311,298,315,1
305,313,297,312,1
308,314,296,307,1
307,314,293,301,1
304,314,292,295,1
299,313,291,292,1
293,312,290,292,1
289,311,289,294,1
286,310,288,298,1
285,309,286,301,1
286,307,285,304,1
290,305,284,307,1
298,303,285,311,1
306,302,288,316,1
313,302,294,321,1
318,303,301,328,1
321,304,307,332,1
323,306,312,331,1
322,307,315,323,1
320,307,316,312,1
318,307,315,302,1
316,306,312,294,1
314,306,309,291,1
313,306,305,290,1
314,305,302,290,1
316,304,298,290,1
316,303,293,290,1
315,303,292,290,1
313,302,293,292,1
310,302,296,294,1
306,301,299,295,1
302,301,301,299,1
298,301,301,305,1
296,301,302,313,1
297,303,303,321,1
300,304,304,327,1
303,307,305,331,1
306,309,306,332,1
306,311,309,331,1
305,312,313,328,1
303,311,317,323,1
302,310,319,319,1
301,309,318,315,1
302,310,315,312,1
302,311,312,306,1
302,310,307,299,1
302,309,303,292,1
302,308,300,288,1
304,306,298,285,1
307,305,298,284,1
307,304,300,286,1
306,303,305,291,1
308,302,310,297,1
310,302,314,303,1
313,302,317,307,1
316,302,320,310,1
320,302,319,311,1
321,303,314,312,1
320,304,308,311,1
316,306,303,310,1
312,307,298,310,1
310,308,293,310,1
308,309,289,311,1
308,310,287,312,1
309,311,286,314,1
311,313,286,314,1
311,312,286,313,1
310,311,286,311,1
310,308,287,310,1
311,306,291,307,1
311,303,297,305,1
312,300,301,304,1
313,298,304,303,1
312,296,306,302,1
310,296,305,300,1
307,296,305,300,1
304,298,304,301,1
299,300,304,303,1
295,303,303,306,1
293,306,302,307,1
294,309,301,307,1
297,311,301,307,1
301,313,301,307,1
304,314,301,305,1
306,315,301,304,1
308,316,300,304,1
310,317,299,304,1
310,316,299,304,1
311,315,301,306,1
313,314,303,309,1
314,313,304,312,1
315,310,302,312,1
316,308,298,312,1
317,304,293,312,1
319,303,288,312,1
320,302,286,313,1
320,301,287,315,1
320,301,293,318,1
320,302,302,321,1
318,303,309,321,1
314,304,315,320,1
308,305,319,318,1
301,306,321,315,1
296,308,323,312,1
295,308,324,309,1
295,309,324,307,1
293,309,323,308,1
289,309,320,310,1
285,309,317,313,1
284,308,313,317,1
288,308,311,319,1
292,307,309,321,1
295,305,310,321,1
298,304,311,317,1
299,303,312,312,1
298,303,312,307,1
297,304,313,306,1
298,306,314,306,1
303,307,316,307,1
308,309,318,309,1
311,310,321,311,1
312,310,325,311,1
311,309,328,311,1
309,310,331,309,1
306,310,330,307,1
305,310,327,306,1
305,310,321,306,1
306,310,315,307,1
308,310,308,307,1
313,309,300,309,1
318,308,291,311,1
322,306,281,315,1
325,306,276,320,1
326,306,275,324,1
327,308,280,329,1
326,309,288,334,1
326,311,298,334,1
325,311,308,330,1
322,312,315,322,1
316,311,316,315,1
307,311,315,308,1
299,310,313,304,1
294,309,310,300,1
291,309,308,297,1
288,308,305,296,1
287,308,301,296,1
288,307,298,294,1
291,307,295,290,1
295,306,294,286,1
297,305,294,282,1
298,303,294,282,1
299,301,295,283,1
300,300,295,285,1
302,299,296,288,1
304,299,297,292,1
305,300,297,296,1
306,301,299,300,1
306,303,302,304,1
307,306,305,307,1
308,309,308,310,1
308,312,308,312,1
309,314,308,314,1
310,316,308,315,1
312,317,307,316,1
313,316,306,316,1
314,315,305,316,1
314,313,304,316,1
315,312,304,315,1
317,310,301,314,1
322,309,296,313,1
327,306,289,312,1
330,304,281,313,1
329,302,274,317,1
324,301,270,324,1
316,301,271,334,1
306,303,275,344,1
299,306,285,350,1
297,309,295,351,1
299,310,304,345,1
299,311,310,334,1
295,311,314,322,1
289,311,317,312,1
287,311,318,304,1
291,311,316,298,1
297,311,312,295,1
301,311,306,294,1
304,310,301,294,1
308,309,298,297,1
311,308,297,298,1
312,307,298,300,1
313,305,298,302,1
310,303,297,304,1
306,302,296,305,1
304,301,297,306,1
303,301,300,308,1
303,302,306,310,1
304,303,312,313,1
305,304,319,314,1
304,306,326,315,1
302,308,333,315,1
299,309,337,315,1
297,310,339,316,1
296,311,338,317,1
295,312,332,317,1
294,314,323,318,1
295,315,315,320,1
296,315,309,322,1
297,315,308,325,1
299,313,309,327,1
302,311,312,330,1
307,309,316,334,1
313,307,320,340,1
319,305,322,347,1
324,304,321,352,1
329,304,317,352,1
330,304,311,347,1
327,304,302,336,1
320,302,294,322,1
310,299,286,309,1
303,298,281,298,1
300,298,280,291,1
299,298,281,286,1
300,300,283,283,1
302,301,285,281,1
305,302,288,280,1
311,301,292,281,1
318,301,296,281,1
324,300,301,284,1
328,299,304,286,1
329,298,306,290,1
326,296,307,294,1
319,295,306,299,1
310,294,305,302,1
302,294,304,305,1
297,294,302,308,1
294,296,301,311,1
293,298,301,311,1
294,300,300,311,1
295,303,300,312,1
297,305,300,312,1
298,306,302,313,1
299,308,304,313,1
299,309,304,312,1
299,309,303,312,1
299,310,302,313,1
299,310,303,315,1
300,310,305,317,1
300,310,307,319,1
301,309,307,319,1
302,307,307,320,1
305,305,307,320,1
309,303,310,321,1
314,302,312,321,1
317,302,316,323,1
318,301,318,323,1
316,301,319,323,1
311,301,319,322,1
306,301,320,320,1
301,301,321,316,1
297,302,319,312,1
294,303,315,309,1
296,304,309,306,1
305,303,304,303,1
320,303,299,299,1
332,303,293,295,1
339,303,288,293,1
343,303,285,291,1
342,304,283,290,1
333,304,282,290,1
320,303,281,290,1
308,303,282,291,1
299,302,284,292,1
294,302,289,293,1
294,301,295,293,1
295,300,301,295,1
297,300,306,297,1
299,301,310,300,1
300,302,312,302,1
300,303,313,304,1
300,305,313,305,1
298,306,311,306,1
297,308,308,308,1
297,309,306,311,1
298,309,307,312,1
300,309,308,313,1
301,309,309,313,1
303,309,310,314,1
303,308,310,316,1
304,307,309,317,1
304,306,309,317,1
305,304,309,319,1
305,302,309,320,1
306,301,310,321,1
308,301,310,325,1
311,301,309,328,1
313,302,308,331,1
316,305,307,334,1
320,307,305,335,1
326,308,302,335,1
331,309,299,335,1
332,309,299,334,1
330,308,301,332,1
325,308,303,327,1
319,307,304,318,1
311,304,306,305,1
303,302,306,294,1
296,298,304,286,1
290,296,302,282,1
288,294,299,279,1
288,292,296,278,1
290,291,293,279,1
291,291,295,282,1
293,291,299,287,1
295,292,304,291,1
296,293,307,294,1
297,295,308,297,1
297,297,308,299,1
298,300,308,302,1
300,303,309,306,1
301,306,310,310,1
302,309,311,313,1
303,310,313,317,1
303,311,314,320,1
303,311,316,323,1
302,311,318,327,1
302,311,319,329,1
301,310,320,331,1
299,310,319,330,1
296,309,319,326,1
294,307,317,318,1
295,304,315,308,1
298,301,314,300,1
302,297,314,296,1
304,295,315,296,1
305,294,318,300,1
306,294,318,304,1
310,296,317,310,1
315,299,316,313,1
317,303,315,314,1
317,306,316,314,1
318,308,317,315,1
321,310,317,316,1
324,312,315,316,1
326,312,313,317,1
326,312,309,316,1
327,311,307,315,1
326,309,305,313,1
321,308,303,309,1
312,306,302,304,1
305,304,300,301,1
301,303,300,299,1
301,300,302,299,1
302,299,307,298,1
304,298,313,297,1
307,298,317,297,1
310,299,320,297,1
312,300,320,297,1
311,302,317,298,1
309,305,314,300,1
307,309,312,302,1
307,313,311,306,1
308,316,311,312,1
309,319,311,318,1
308,320,313,323,1
307,320,316,329,1
306,320,319,333,1
304,319,319,336,1
301,317,316,337,1
299,315,311,334,1
299,313,305,328,1
300,310,298,322,1
301,308,291,317,1
303,306,284,314,1
306,304,280,312,1
309,304,279,311,1
312,304,280,309,1
314,305,285,306,1
314,306,294,303,1
313,307,302,300,1
309,309,310,298,1
304,311,315,296,1
299,313,317,294,1
296,315,315,291,1
294,316,311,290,1
292,316,309,290,1
291,315,309,293,1
291,316,311,297,1
293,316,315,303,1
295,317,319,308,1
298,316,321,313,1
301,315,322,316,1
305,313,321,317,1
308,312,319,316,1
309,310,314,312,1
310,308,309,308,1
309,307,306,305,1
304,307,304,301,1
297,307,305,297,1
291,308,307,293,1
288,310,309,290,1
287,312,311,289,1
285,314,312,290,1
282,315,312,293,1
286,316,310,298,1
297,317,308,304,1
310,316,307,312,1
320,314,308,318,1
326,311,309,323,1
327,309,312,324,1
326,307,314,319,1
323,305,317,310,1
321,304,320,303,1
318,303,323,298,1
313,302,324,296,1
309,302,322,295,1
307,303,318,295,1
306,304,314,297,1
307,307,313,299,1
308,309,313,301,1
306,311,313,301,1
304,313,314,302,1
302,314,315,303,1
301,316,316,306,1
302,316,318,309,1
304,317,317,312,1
306,316,314,313,1
307,315,308,313,1
306,313,302,311,1
303,311,297,310,1
301,308,293,309,1
298,306,291,308,1
295,305,291,306,1
292,305,293,304,1
291,304,294,303,1
291,303,294,301,1
293,304,295,299,1
298,305,299,300,1
304,307,305,301,1
308,308,310,303,1
310,311,314,305,1
309,312,318,306,1
308,313,322,308,1
307,313,325,310,1
307,313,326,312,1
309,313,325,312,1
311,312,323,309,1
314,312,320,306,1
318,311,317,302,1
320,309,313,296,1
319,306,310,290,1
316,304,307,284,1
313,302,306,282,1
312,301,306,285,1
311,302,307,292,1
310,303,309,301,1
307,304,310,310,1
303,305,310,318,1
298,307,308,322,1
291,308,307,322,1
285,310,308,319,1
281,311,310,315,1
279,312,311,308,1
276,312,312,298,1
271,311,309,288,1
269,310,305,282,1
276,309,302,280,1
290,308,301,280,1
304,307,303,280,1
315,306,307,281,1
323,304,312,282,1
328,303,316,286,1
332,303,318,290,1
335,303,318,297,1
336,303,316,303,1
334,303,311,307,1
329,303,305,311,1
324,304,300,313,1
317,305,297,314,1
311,307,300,314,1
306,309,305,313,1
303,309,313,310,1
301,310,320,307,1
300,311,324,305,1
299,311,323,303,1
300,312,320,303,1
301,313,315,303,1
304,313,310,303,1
306,314,306,304,1
308,313,302,304,1
308,311,300,304,1
308,309,299,304,1
308,306,301,305,1
307,303,303,305,1
305,301,305,307,1
302,300,307,308,1
299,301,310,310,1
297,303,311,313,1
296,305,313,315,1
298,308,313,317,1
300,310,311,317,1
300,312,308,317,1
300,313,305,316,1
301,313,303,312,1
302,313,302,309,1
303,313,301,306,1
304,312,301,303,1
306,312,304,303,1
309,311,306,303,1
311,308,309,304,1
313,305,310,307,1
314,302,311,311,1
315,299,311,315,1
315,298,310,319,1
316,298,309,323,1
317,298,308,324,1
316,299,309,323,1
314,301,310,321,1
312,304,313,320,1
310,308,317,318,1
306,311,321,316,1
303,313,324,312,1
300,315,324,306,1
298,316,321,298,1
296,316,317,290,1
295,315,314,284,1
295,315,311,281,1
295,314,309,280,1
296,313,307,280,1
296,312,306,281,1
295,310,305,283,1
293,308,305,285,1
292,306,305,287,1
295,304,307,291,1
300,303,309,296,1
304,301,311,300,1
305,301,313,304,1
306,303,314,308,1
305,304,315,311,1
307,307,315,312,1
312,309,314,311,1
320,311,312,310,1
329,313,310,309,1
336,314,309,309,1
338,316,308,310,1
338,317,308,312,1
336,317,306,317,1
332,315,304,321,1
328,314,301,325,1
324,313,298,327,1
319,311,296,329,1
313,308,295,328,1
305,306,293,324,1
298,303,291,320,1
294,301,290,315,1
293,300,290,310,1
294,300,293,306,1
295,301,297,301,1
295,303,302,298,1
295,306,308,294,1
294,309,314,292,1
294,311,319,293,1
295,312,320,297,1
296,313,317,301,1
298,313,310,305,1
301,312,302,310,1
306,311,296,314,1
310,310,293,316,1
311,309,290,317,1
311,307,288,314,1
311,305,285,310,1
313,303,284,306,1
315,301,284,302,1
317,300,284,300,1
319,299,284,299,1
319,300,285,298,1
318,300,285,297,1
316,301,285,297,1
312,302,282,296,1
309,303,276,296,1
309,304,270,295,1
311,305,264,295,1
312,305,260,296,1
312,307,261,299,1
312,308,266,303,1
311,309,274,307,1
309,309,284,309,1
305,309,294,309,1
303,308,302,308,1
304,307,308,304,1
306,306,309,301,1
306,306,311,299,1
306,306,312,299,1
306,305,312,300,1
307,304,312,300,1
307,303,312,300,1
309,304,312,302,1
310,304,312,305,1
310,305,313,308,1
310,307,315,311,1
308,309,315,313,1
305,311,313,316,1
303,312,310,318,1
301,313,306,319,1
299,313,302,319,1
298,313,300,318,1
297,313,301,315,1
298,314,304,309,1
299,313,306,304,1
300,311,306,299,1
301,309,305,296,1
303,307,303,295,1
306,306,302,295,1
310,305,302,297,1
315,305,304,300,1
320,305,307,304,1
323,305,313,308,1
326,306,320,310,1
328,307,326,311,1
328,308,329,311,1
327,309,328,312,1
325,311,324,313,1
321,312,317,314,1
317,313,308,315,1
313,312,298,315,1
310,311,291,316,1
309,310,287,318,1
309,310,287,320,1
310,310,290,319,1
310,309,295,315,1
309,307,300,310,1
307,305,304,305,1
306,304,306,301,1
305,302,306,299,1
305,302,306,299,1
305,303,305,300,1
306,304,304,302,1
308,305,305,303,1
312,307,307,303,1
317,310,308,302,1
321,312,306,301,1
323,314,304,299,1
324,315,300,298,1
324,315,295,296,1
322,316,288,295,1
320,315,282,295,1
316,315,277,297,1
311,313,273,298,1
304,312,275,301,1
299,311,284,304,1
300,310,296,308,1
305,308,307,312,1
310,306,316,314,1
313,304,322,315,1
315,303,324,315,1
316,302,322,316,1
315,302,319,318,1
313,302,315,319,1
310,304,313,320,1
308,306,311,320,1
306,307,310,319,1
305,310,310,318,1
305,312,310,316,1
305,313,312,312,1
306,313,312,305,1
306,313,312,298,1
305,312,310,292,1
305,311,309,288,1
305,310,309,287,1
304,307,308,287,1
304,305,308,288,1
305,303,308,291,1
306,302,308,293,1
307,300,308,297,1
307,300,306,302,1
306,299,303,307,1
308,299,299,312,1
309,301,298,318,1
310,304,301,324,1
309,307,306,329,1
305,310,311,332,1
300,313,315,333,1
295,315,318,333,1
292,316,322,331,1
292,315,331,330,1
294,313,340,328,1
296,311,343,324,1
298,310,341,318,1
302,307,336,309,1
307,305,330,298,1
310,302,323,287,1
312,300,316,279,1
312,297,311,275,1
312,297,308,275,1
311,296,307,279,1
310,296,307,284,1
310,297,307,290,1
311,299,308,295,1
313,302,309,300,1
316,306,310,304,1
318,309,308,307,1
318,311,305,307,1
317,312,300,306,1
314,313,297,305,1
311,314,294,305,1
307,314,292,304,1
302,314,290,303,1
297,314,289,304,1
292,313,291,306,1
289,312,295,308,1
288,309,301,309,1
288,305,307,308,1
289,302,311,306,1
291,300,312,305,1
296,299,313,307,1
302,300,314,310,1
305,301,314,316,1
306,303,314,322,1
303,305,314,330,1
299,307,315,337,1
296,310,314,343,1
295,312,315,347,1
294,312,318,344,1
293,312,319,339,1
293,313,318,332,1
293,313,316,324,1
293,311,315,314,1
295,307,317,304,1
299,305,318,297,1
305,302,317,294,1
309,300,315,292,1
312,298,314,292,1
313,296,313,292,1
313,296,310,292,1
312,296,308,292,1
309,296,309,293,1
304,296,312,293,1
299,297,317,293,1
296,300,317,294,1
294,303,315,293,1
294,307,312,293,1
294,311,309,293,1
293,312,306,293,1
292,313,302,294,1
291,314,297,296,1
289,314,296,300,1
289,314,296,304,1
291,315,299,307,1
292,315,303,308,1
294,315,308,307,1
297,313,312,306,1
299,311,316,304,1
300,308,319,302,1
302,307,319,302,1
305,306,319,303,1
308,307,320,307,1
309,309,323,312,1
307,311,325,318,1
307,315,325,324,1
306,318,326,330,1
306,320,327,332,1
303,320,327,331,1
299,319,326,326,1
297,317,321,321,1
297,317,316,315,1
298,316,310,308,1
296,313,308,299,1
293,311,304,291,1
289,310,301,287,1
287,309,295,286,1
287,307,293,288,1
289,306,294,291,1
292,304,296,296,1
297,304,297,300,1
301,304,299,303,1
305,304,305,306,1
309,304,314,308,1
313,306,322,308,1
315,307,327,308,1
313,310,330,307,1
307,311,331,306,1
301,312,328,305,1
295,313,322,305,1
291,313,314,306,1
289,314,305,308,1
290,313,297,312,1
290,313,289,316,1
291,313,285,319,1
292,311,286,322,1
292,309,289,323,1
293,306,292,324,1
295,305,293,324,1
298,304,294,324,1
302,303,297,325,1
306,303,300,326,1
309,303,306,328,1
310,304,316,330,1
311,305,325,334,1
312,308,330,338,1
310,312,332,343,1
307,315,330,345,1
303,316,326,343,1
302,316,320,339,1
303,315,312,332,1
303,313,305,321,1
302,310,300,310,1
302,306,297,298,1
301,302,296,288,1
301,300,299,281,1
302,298,305,278,1
305,297,310,278,1
310,297,313,279,1
313,297,313,281,1
313,298,311,283,1
311,299,310,285,1
307,301,311,286,1
303,302,314,288,1
299,303,317,289,1
296,305,319,291,1
295,307,317,293,1
294,309,312,295,1
292,311,305,296,1
291,312,300,297,1
290,314,297,298,1
291,316,297,299,1
293,317,297,300,1
294,318,297,299,1
296,317,296,298,1
298,316,297,298,1
300,314,299,300,1
302,312,300,304,1
306,310,298,308,1
309,308,297,313,1
313,306,297,317,1
315,305,299,321,1
313,304,301,325,1
308,303,306,326,1
306,303,312,324,1
308,303,316,321,1
309,303,320,318,1
307,303,320,315,1
305,304,320,313,1
304,306,319,312,1
302,307,316,311,1
300,309,314,311,1
299,309,316,310,1
298,309,317,309,1
298,309,317,308,1
300,310,315,308,1
300,309,313,310,1
300,308,310,312,1
300,306,304,315,1
302,305,297,320,1
304,305,290,326,1
307,304,285,330,1
309,304,285,334,1
312,305,289,337,1
315,306,297,337,1
318,308,304,333,1
321,309,309,325,1
324,310,311,316,1
325,311,310,308,1
325,312,308,303,1
324,314,307,301,1
323,315,304,300,1
321,316,301,301,1
316,316,298,303,1
309,317,296,307,1
301,316,297,312,1
294,315,299,316,1
288,313,300,320,1
287,312,299,323,1
289,312,298,324,1
291,313,296,323,1
293,312,295,321,1
295,312,294,319,1
296,312,293,318,1
297,312,294,318,1
298,312,297,318,1
299,313,303,319,1
300,313,305,319,1
301,312,305,318,1
302,311,303,315,1
303,309,298,312,1
304,308,294,306,1
304,306,291,302,1
303,305,292,299,1
301,305,296,298,1
299,305,301,298,1
297,306,306,298,1
293,305,309,297,1
288,304,311,296,1
283,303,311,295,1
283,301,308,294,1
288,300,305,294,1
299,299,304,296,1
312,300,306,300,1
323,302,308,304,1
329,305,310,309,1
330,308,312,311,1
326,312,313,313,1
319,314,313,314,1
313,316,313,315,1
309,316,311,317,1
308,316,308,318,1
307,316,304,320,1
307,315,301,321,1
307,314,299,321,1
306,313,298,320,1
306,310,298,317,1
306,308,298,314,1
306,307,297,310,1
308,305,296,308,1
311,304,295,307,1
313,302,296,309,1
317,302,296,314,1
320,302,295,321,1
324,304,294,327,1
325,306,294,330,1
320,308,296,331,1
311,310,302,331,1
301,313,311,330,1
294,314,318,329,1
293,316,321,328,1
296,317,318,325,1
300,316,314,322,1
301,315,309,317,1
301,313,304,312,1
300,311,299,306,1
299,308,296,299,1
298,305,295,293,1
299,303,295,289,1
302,301,295,287,1
304,299,297,287,1
306,298,297,289,1
307,298,298,292,1
309,298,300,295,1
312,299,300,298,1
314,302,301,301,1
315,305,302,304,1
314,307,302,306,1
312,309,302,308,1
309,310,302,309,1
306,310,302,311,1
305,311,302,313,1
304,311,302,315,1
304,312,302,317,1
305,311,303,319,1
306,310,305,320,1
306,310,306,319,1
307,310,307,318,1
308,309,307,317,1
308,308,305,317,1
310,306,300,317,1
314,305,292,317,1
317,303,284,316,1
315,303,275,316,1
315,303,269,316,1
320,304,267,316,1
323,306,268,316,1
322,308,271,314,1
316,310,277,309,1
308,311,282,305,1
304,312,287,302,1
302,313,293,301,1
302,313,298,301,1
302,314,303,302,1
304,313,306,304,1
306,313,308,305,1
307,311,307,306,1
306,309,306,305,1
305,306,305,307,1
305,304,304,309,1
307,304,302,311,1
308,303,300,313,1
309,303,299,312,1
309,302,300,312,1
309,303,302,312,1
310,305,307,313,1
310,308,311,315,1
309,311,313,317,1
307,312,314,319,1
305,313,312,321,1
304,314,310,324,1
305,315,308,326,1
306,315,305,329,1
306,315,302,332,1
307,314,299,332,1
307,311,299,329,1
307,307,300,324,1
308,304,299,317,1
313,301,294,309,1
318,299,288,299,1
323,296,284,291,1
326,294,284,285,1
329,293,288,282,1
334,293,294,284,1
337,295,303,288,1
335,299,313,294,1
327,303,320,300,1
317,307,322,305,1
307,310,321,309,1
301,311,319,313,1
296,311,318,316,1
294,312,316,318,1
293,311,313,319,1
292,311,310,318,1
293,312,309,316,1
293,311,309,312,1
295,309,309,308,1
296,308,309,306,1
298,307,308,305,1
300,305,306,305,1
301,303,304,306,1
303,302,302,308,1
304,302,302,311,1
305,302,303,314,1
307,303,305,317,1
309,305,307,320,1
311,307,308,321,1
312,310,308,320,1
312,312,307,319,1
309,314,307,318,1
306,315,306,317,1
301,315,305,316,1
298,315,304,315,1
296,315,304,313,1
297,314,303,312,1
299,312,304,311,1
299,309,305,309,1
299,306,306,308,1
304,304,305,307,1
310,301,305,308,1
312,299,306,308,1
312,297,309,310,1
313,296,311,311,1
316,296,312,314,1
321,298,312,316,1
327,300,313,317,1
331,302,314,317,1
332,304,313,316,1
329,305,314,315,1
324,306,315,315,1
319,306,316,314,1
315,306,317,313,1
311,307,316,312,1
307,307,315,312,1
304,307,313,313,1
301,307,311,314,1
299,306,313,315,1
298,304,315,316,1
299,303,314,317,1
300,302,313,319,1
302,302,311,321,1
303,302,309,325,1
304,303,309,329,1
305,306,310,333,1
307,308,311,338,1
309,312,313,342,1
311,314,313,344,1
312,316,313,343,1
311,318,312,340,1
311,319,311,337,1
311,320,311,332,1
312,321,311,327,1
313,320,309,321,1
313,319,305,315,1
313,318,301,311,1
313,316,296,307,1
313,314,291,304,1
313,312,287,302,1
314,310,284,300,1
315,308,282,299,1
314,305,284,300,1
315,304,288,303,1
316,303,294,306,1
317,304,299,311,1
316,306,303,315,1
314,308,307,317,1
309,310,308,318,1
303,311,305,315,1
296,311,301,310,1
291,311,297,304,1
289,311,295,300,1
289,311,294,298,1
289,312,295,298,1
290,312,298,298,1
291,313,303,300,1
291,313,307,301,1
292,312,308,302,1
294,311,308,304,1
295,310,306,306,1
297,308,303,309,1
301,307,301,314,1
306,306,303,319,1
313,306,309,323,1
317,307,315,325,1
316,308,319,326,1
312,311,321,326,1
310,313,322,323,1
309,314,322,318,1
309,314,320,313,1
309,313,320,308,1
310,313,320,305,1
311,313,320,301,1
309,313,320,297,1
308,312,322,293,1
306,311,323,291,1
305,311,323,290,1
302,310,320,289,1
300,309,317,290,1
302,308,315,291,1
308,307,315,294,1
314,306,314,295,1
316,305,313,296,1
315,305,312,298,1
312,306,311,301,1
310,307,310,306,1
308,308,309,311,1
307,310,308,315,1
305,312,306,320,1
305,313,305,325,1
304,314,304,328,1
304,314,303,328,1
302,313,301,324,1
301,313,298,318,1
300,312,297,310,1
301,310,296,301,1
302,308,297,293,1
306,305,298,288,1
309,302,299,284,1
314,299,299,282,1
318,297,298,281,1
320,296,297,281,1
321,296,298,283,1
320,297,303,289,1
321,298,309,297,1
323,301,311,305,1
324,303,309,313,1
320,306,304,318,1
314,308,297,322,1
309,310,293,322,1
304,313,291,321,1
301,314,294,317,1
297,315,298,312,1
294,314,305,307,1
292,314,312,303,1
292,312,319,301,1
294,311,324,301,1
297,309,327,300,1
299,306,330,298,1
301,302,332,296,1
300,299,333,296,1
301,296,332,297,1
301,294,330,300,1
301,293,332,305,1
300,293,338,311,1
300,295,343,317,1
302,299,345,321,1
302,304,342,321,1
301,308,336,319,1
298,310,328,317,1
297,312,321,315,1
296,312,315,316,1
297,312,312,317,1
296,311,313,318,1
293,309,318,318,1
293,307,322,316,1
294,306,322,310,1
296,304,317,302,1
299,303,309,296,1
302,302,302,293,1
303,301,298,293,1
304,301,295,296,1
302,301,294,300,1
301,302,295,305,1
302,303,300,310,1
305,306,305,314,1
308,309,310,317,1
311,312,313,318,1
313,314,315,318,1
314,315,315,317,1
314,316,315,315,1
314,315,312,312,1
314,315,310,309,1
313,314,306,305,1
312,313,303,301,1
311,310,300,298,1
311,308,297,294,1
311,305,296,290,1
312,302,297,287,1
315,299,299,285,1
321,297,300,286,1
327,296,300,290,1
331,295,300,297,1
331,294,303,306,1
329,294,305,315,1
324,296,308,323,1
319,298,309,328,1
312,300,312,331,1
307,302,315,333,1
302,302,316,332,1
299,303,315,330,1
297,303,313,327,1
298,303,311,323,1
298,302,310,319,1
298,301,309,314,1
297,300,310,309,1
297,298,314,304,1
297,297,316,299,1
297,296,314,295,1
297,294,309,292,1
297,292,305,290,1
298,291,302,291,1
300,291,301,292,1
304,292,302,295,1
312,294,305,298,1
324,297,311,302,1
334,299,317,306,1
339,302,322,309,1
338,304,325,312,1
336,306,325,315,1
332,308,323,317,1
326,308,318,320,1
316,309,313,321,1
303,308,306,320,1
291,308,299,316,1
282,307,291,312,1
277,306,286,306,1
275,303,283,300,1
277,301,282,296,1
281,299,281,293,1
285,298,281,292,1
288,296,281,291,1
290,294,284,291,1
292,294,285,294,1
293,294,288,297,1
293,295,294,302,1
293,297,303,307,1
293,299,314,310,1
294,302,321,313,1
298,304,324,315,1
307,308,325,318,1
315,312,329,319,1
320,315,335,320,1
321,317,340,320,1
318,317,343,320,1
314,316,340,319,1
309,315,334,318,1
305,313,328,316,1
302,310,322,314,1
301,307,316,311,1
304,304,309,308,1
309,301,304,305,1
313,299,300,302,1
316,299,298,300,1
318,298,295,301,1
320,299,294,302,1
322,301,292,304,1
323,303,291,304,1
324,305,294,305,1
323,306,298,307,1
322,308,302,309,1
322,308,305,310,1
322,309,306,311,1
322,309,307,312,1
319,309,306,312,1
314,309,305,313,1
308,308,304,314,1
303,307,305,315,1
297,306,305,316,1
294,304,306,317,1
292,302,306,317,1
293,301,306,318,1
296,300,307,320,1
301,300,307,321,1
305,301,308,320,1
309,302,309,317,1
311,304,310,313,1
311,306,311,308,1
310,309,310,304,1
307,311,310,303,1
304,313,309,304,1
302,315,307,307,1
302,316,305,310,1
302,316,303,313,1
305,315,302,315,1
311,313,303,315,1
320,311,305,314,1
325,309,306,311,1
325,306,307,306,1
320,303,305,299,1
315,301,302,292,1
312,299,298,289,1
311,298,295,288,1
311,298,295,287,1
312,299,298,288,1
312,301,302,288,1
312,303,306,290,1
309,305,307,289,1
305,307,306,289,1
300,308,303,290,1
295,309,301,293,1
290,310,301,296,1
289,311,302,300,1
293,312,304,303,1
300,312,306,303,1
308,312,307,304,1
313,311,307,303,1
316,308,305,301,1
317,306,299,298,1
314,304,293,296,1
309,303,287,295,1
307,302,280,294,1
308,302,274,295,1
311,301,269,298,1
313,303,269,302,1
313,305,274,306,1
313,308,282,309,1
312,311,291,310,1
309,313,301,310,1
305,315,308,309,1
301,317,314,309,1
296,317,318,310,1
292,318,322,310,1
290,318,324,311,1
291,317,324,312,1
298,316,322,314,1
309,314,320,315,1
323,312,318,314,1
333,309,318,312,1
341,306,318,310,1
346,304,321,310,1
345,303,322,312,1
335,302,320,313,1
323,302,317,314,1
311,303,314,315,1
303,305,315,318,1
299,307,317,319,1
298,309,318,319,1
297,311,319,318,1
297,312,318,319,1
295,313,317,320,1
293,314,314,323,1
293,315,311,325,1
293,316,308,325,1
294,317,306,322,1
295,315,304,317,1
297,314,299,312,1
298,312,294,309,1
300,310,290,307,1
302,309,290,304,1
303,307,294,302,1
308,305,298,300,1
317,304,304,299,1
323,303,310,297,1
323,303,313,297,1
317,304,313,297,1
308,305,311,297,1
300,307,308,297,1
295,309,304,296,1
293,311,303,296,1
294,312,303,297,1
296,313,305,299,1
297,313,306,299,1
297,313,306,299,1
296,312,306,299,1
296,311,304,299,1
295,310,304,299,1
294,308,303,298,1
293,306,303,299,1
292,304,304,300,1
292,302,304,303,1
291,301,305,305,1
289,300,306,307,1
288,300,308,307,1
288,300,309,307,1
290,301,309,308,1
295,303,308,310,1
299,306,306,309,1
303,308,306,309,1
306,310,307,310,1
308,312,307,311,1
309,313,306,314,1
307,313,305,316,1
303,311,305,318,1
302,310,305,318,1
305,308,305,315,1
307,307,305,311,1
307,305,304,306,1
304,304,303,302,1
302,303,300,298,1
301,302,297,293,1
300,301,294,289,1
301,301,291,288,1
304,300,290,289,1
308,301,292,293,1
310,302,296,297,1
312,304,301,302,1
311,306,304,305,1
310,307,303,305,1
306,307,300,304,1
303,307,296,303,1
302,307,294,302,1
305,308,294,301,1
309,308,297,302,1
312,308,302,302,1
311,307,308,304,1
305,306,316,304,1
299,304,322,305,1
294,302,329,305,1
292,300,332,307,1
293,299,329,309,1
295,299,322,312,1
297,299,313,313,1
299,298,305,312,1
299,299,301,310,1
298,300,302,309,1
297,302,305,308,1
296,304,308,307,1
294,306,311,305,1
293,307,312,303,1
293,308,309,300,1
295,307,305,298,1
298,307,300,298,1
302,306,296,298,1
307,306,293,298,1
313,307,291,300,1
316,307,291,301,1
316,307,292,303,1
315,308,295,305,1
313,308,298,307,1
311,308,300,309,1
307,307,301,312,1
304,305,301,314,1
303,304,301,318,1
303,304,300,320,1
303,304,298,320,1
303,305,295,318,1
303,307,292,315,1
303,308,291,311,1
302,309,289,307,1
299,309,290,303,1
296,309,291,300,1
293,309,292,298,1
289,309,292,295,1
284,308,293,292,1
282,307,295,289,1
286,306,297,287,1
294,305,299,286,1
302,305,300,286,1
310,304,300,288,1
315,303,301,290,1
318,302,302,293,1
319,302,304,297,1
318,303,306,302,1
317,304,307,306,1
315,306,307,309,1
314,309,306,313,1
312,311,305,316,1
310,313,304,318,1
308,314,305,318,1
307,314,307,317,1
305,314,306,317,1
303,314,304,318,1
302,314,302,319,1
301,312,299,318,1
302,311,298,317,1
302,309,298,315,1
302,308,300,313,1
302,307,303,312,1
300,306,305,310,1
301,304,305,309,1
304,302,304,309,1
307,301,302,307,1
308,301,301,306,1
307,301,301,306,1
306,302,304,306,1
305,304,308,306,1
306,306,313,304,1
307,308,315,303,1
307,308,316,303,1
308,309,318,303,1
308,308,318,304,1
307,309,318,306,1
306,309,317,310,1
305,310,318,314,1
304,309,318,318,1
303,308,319,322,1
302,307,322,325,1
302,306,324,325,1
303,304,325,321,1
304,303,325,316,1
304,300,321,310,1
302,299,315,306,1
299,299,310,305,1
297,301,306,306,1
296,304,303,309,1
296,307,299,311,1
298,309,296,311,1
302,311,295,312,1
307,311,295,312,1
311,311,298,312,1
313,312,302,310,1
314,312,304,306,1
313,311,303,299,1
313,309,302,292,1
312,307,301,287,1
313,307,300,285,1
316,306,297,286,1
319,305,292,287,1
322,304,288,289,1
324,303,285,293,1
327,305,284,297,1
328,306,283,302,1
324,307,285,306,1
318,309,289,311,1
310,311,295,317,1
303,313,301,323,1
299,314,308,327,1
297,314,313,327,1
298,313,315,326,1
300,312,313,322,1
304,311,311,318,1
306,311,308,311,1
308,310,306,304,1
307,309,306,299,1
304,309,306,296,1
300,308,307,295,1
296,307,306,296,1
292,306,305,298,1
289,304,304,299,1
287,302,303,299,1
285,301,302,297,1
287,300,303,296,1
290,300,305,295,1
295,300,309,295,1
297,301,312,296,1
298,303,315,298,1
297,304,316,299,1
297,306,316,300,1
299,306,314,300,1
301,306,311,301,1
303,306,307,301,1
305,307,300,302,1
307,306,294,304,1
308,307,290,306,1
310,306,287,309,1
311,305,286,311,1
310,303,284,314,1
309,302,284,318,1
309,301,287,321,1
311,301,292,323,1
314,300,298,322,1
316,299,306,320,1
318,298,314,319,1
318,298,322,318,1
317,299,329,317,1
314,301,332,313,1
307,303,333,307,1
302,304,331,301,1
298,306,328,298,1
296,307,323,297,1
296,309,320,297,1
298,309,319,299,1
300,311,320,302,1
301,311,321,306,1
303,311,320,311,1
303,311,318,312,1
302,309,316,311,1
301,307,313,306,1
299,305,308,302,1
297,303,304,298,1
295,301,301,297,1
294,300,300,297,1
298,299,301,299,1
304,299,304,301,1
310,300,306,303,1
314,301,308,306,1
316,304,309,307,1
317,306,306,309,1
318,308,303,310,1
321,310,298,313,1
325,311,294,316,1
329,312,291,319,1
332,312,293,322,1
334,311,297,325,1
333,309,300,326,1
329,307,302,326,1
322,304,304,324,1
316,301,306,320,1
312,299,310,315,1
310,296,312,309,1
308,295,312,304,1
306,294,312,299,1
304,294,311,297,1
302,295,311,296,1
300,297,311,298,1
297,298,310,299,1
295,299,310,298,1
293,300,311,296,1
291,301,311,293,1
290,302,310,291,1
291,303,309,289,1
291,303,309,288,1
291,303,309,288,1
292,304,309,289,1
292,304,309,290,1
293,304,309,291,1
293,303,309,292,1
294,302,308,294,1
295,301,305,295,1
296,300,303,297,1
297,298,301,301,1
298,298,301,306,1
298,298,302,312,1
298,300,304,317,1
299,303,306,320,1
303,306,308,322,1
308,309,309,322,1
315,311,308,320,1
320,312,305,316,1
323,312,301,312,1
320,312,296,310,1
310,311,289,311,1
299,311,282,312,1
294,310,278,315,1
292,309,279,319,1
293,308,281,321,1
294,307,285,325,1
296,304,291,327,1
297,302,297,327,1
298,300,303,325,1
303,298,307,320,1
309,297,310,314,1
315,296,312,307,1
317,296,313,301,1
318,296,314,296,1
317,297,314,294,1
316,298,313,293,1
313,299,313,292,1
310,301,311,291,1
308,303,310,292,1
306,305,310,294,1
305,307,310,298,1
305,308,309,303,1
306,309,308,308,1
307,309,308,313,1
308,308,306,316,1
308,306,305,318,1
309,304,305,318,1
309,302,308,317,1
311,301,311,314,1
316,300,314,312,1
322,299,315,310,1
328,300,314,308,1
334,300,311,307,1
337,302,306,308,1
337,304,301,309,1
333,306,298,313,1
324,309,294,318,1
315,310,292,322,1
308,311,292,324,1
302,312,294,323,1
297,313,296,322,1
293,313,297,320,1
290,312,297,317,1
289,310,297,313,1
290,308,297,309,1
293,305,296,304,1
298,303,296,303,1
303,302,296,302,1
306,301,297,302,1
308,301,298,300,1
309,301,300,300,1
309,301,302,301,1
309,302,303,303,1
311,303,304,305,1
311,306,306,307,1
312,307,307,306,1
313,309,309,306,1
312,309,310,305,1
311,309,310,307,1
309,309,308,310,1
305,310,306,313,1
301,311,304,316,1
301,311,303,318,1
302,311,305,319,1
303,310,307,319,1
303,309,309,316,1
304,308,309,310,1
307,305,307,305,1
308,302,304,300,1
309,299,301,298,1
310,298,297,297,1
311,297,295,298,1
312,298,292,300,1
312,299,290,304,1
312,301,291,307,1
311,304,291,309,1
307,307,293,308,1
302,310,296,307,1
299,311,302,308,1
299,313,310,312,1
297,314,318,318,1
295,315,323,322,1
295,314,324,326,1
300,313,322,328,1
306,312,317,328,1
312,311,309,326,1
315,310,304,321,1
318,308,301,317,1
319,306,302,313,1
320,305,304,311,1
321,304,308,310,1
321,303,311,309,1
320,304,313,309,1
320,306,314,308,1
320,308,314,306,1
319,310,312,303,1
320,310,308,302,1
321,311,303,301,1
323,311,297,302,1
325,311,295,304,1
325,311,297,308,1
322,310,302,313,1
317,309,307,317,1
310,308,311,320,1
305,306,312,320,1
301,305,311,318,1
300,304,309,314,1
301,302,307,310,1
304,299,305,306,1
306,297,304,304,1
308,295,304,305,1
311,295,305,307,1
313,295,307,310,1
316,296,308,312,1
319,298,307,313,1
321,301,305,312,1
322,304,302,310,1
320,308,299,307,1
318,311,297,303,1
317,314,296,302,1
316,316,299,303,1
315,317,304,306,1
311,316,308,308,1
304,314,309,311,1
298,313,308,315,1
293,311,305,318,1
291,309,303,321,1
291,307,304,322,1
292,305,307,323,1
296,303,311,323,1
300,303,314,322,1
302,302,315,319,1
304,302,315,316,1
306,301,315,312,1
307,301,313,308,1
307,301,311,304,1
306,302,311,301,1
305,303,309,300,1
303,305,307,300,1
300,305,305,301,1
295,306,304,302,1
288,305,302,302,1
283,303,298,300,1
281,301,294,297,1
281,300,291,296,1
280,300,289,297,1
278,300,289,300,1
277,300,289,303,1
283,300,291,308,1
293,301,295,314,1
303,301,300,321,1
312,302,305,326,1
321,303,310,331,1
328,305,315,335,1
333,307,318,338,1
334,310,319,339,1
332,311,319,336,1
327,312,319,331,1
321,312,320,327,1
315,313,321,323,1
310,314,323,320,1
307,315,324,317,1
306,315,321,313,1
306,315,316,311,1
307,314,309,308,1
308,313,303,305,1
311,310,299,304,1
314,308,297,304,1
318,306,296,305,1
320,305,295,306,1
322,304,293,308,1
320,305,292,310,1
317,306,291,311,1
314,308,292,313,1
313,311,294,315,1
310,313,297,315,1
306,314,299,313,1
301,314,301,312,1
296,314,304,310,1
293,314,306,308,1
290,314,308,305,1
289,313,310,301,1
290,313,312,299,1
293,312,314,297,1
295,310,318,296,1
298,307,321,294,1
300,304,322,293,1
305,300,320,292,1
312,297,317,293,1
319,296,314,295,1
323,295,312,300,1
324,296,311,306,1
323,298,312,313,1
322,301,312,319,1
318,305,313,322,1
310,309,313,320,1
301,312,311,314,1
293,314,309,307,1
286,315,308,302,1
281,314,308,300,1
279,314,308,298,1
281,313,308,299,1
285,314,309,299,1
290,315,309,301,1
295,315,308,302,1
300,315,305,303,1
304,313,303,303,1
308,311,301,303,1
309,308,299,305,1
309,307,299,307,1
308,305,299,311,1
307,305,301,316,1
305,305,304,319,1
298,305,307,320,1
290,306,309,320,1
285,307,309,317,1
285,308,308,312,1
286,309,306,306,1
288,310,302,301,1
293,310,299,298,1
299,310,297,297,1
304,311,297,298,1
308,312,298,299,1
310,312,300,301,1
311,311,304,302,1
309,310,309,302,1
306,308,313,303,1
303,306,318,304,1
302,303,324,306,1
302,302,329,309,1
301,301,331,312,1
302,301,332,315,1
303,302,331,319,1
303,304,329,324,1
305,307,325,328,1
306,311,321,330,1
306,314,316,331,1
305,316,312,329,1
303,317,307,326,1
302,318,304,324,1
302,318,302,323,1
303,317,302,323,1
305,315,303,323,1
307,314,304,322,1
309,313,305,322,1
310,312,305,321,1
310,310,303,318,1
308,307,301,315,1
307,304,297,311,1
306,301,296,307,1
307,298,296,304,1
310,297,297,300,1
312,296,297,297,1
314,297,296,294,1
315,299,296,292,1
315,302,297,292,1
313,305,297,293,1
308,308,299,294,1
304,309,302,295,1
299,309,306,296,1
295,309,308,297,1
292,307,309,299,1
290,306,309,300,1
291,306,309,302,1
293,306,310,304,1
295,306,310,304,1
296,305,309,305,1
297,305,307,305,1
297,303,306,306,1
298,303,306,308,1
301,303,307,312,1
305,304,309,316,1
307,306,311,319,1
308,307,313,320,1
309,308,314,321,1
310,309,313,319,1
310,310,312,317,1
310,311,311,315,1
310,311,309,311,1
305,311,308,306,1
295,311,307,302,1
286,311,307,300,1
284,311,306,299,1
286,310,306,298,1
287,309,306,297,1
288,308,306,297,1
289,307,305,298,1
291,305,304,298,1
292,303,303,299,1
294,302,303,301,1
299,301,304,305,1
307,301,305,309,1
316,302,306,313,1
321,304,307,317,1
321,306,308,320,1
314,308,308,323,1
305,310,308,325,1
298,312,307,328,1
294,313,307,329,1
293,314,307,330,1
294,314,308,329,1
296,313,308,326,1
300,312,308,321,1
303,311,307,314,1
305,310,306,306,1
307,308,304,301,1
307,307,303,299,1
306,305,303,298,1
306,303,303,299,1
306,302,303,300,1
305,301,303,301,1
303,300,304,301,1
301,300,307,300,1
301,302,309,300,1
302,304,310,300,1
305,305,311,301,1
310,306,311,302,1
315,307,311,304,1
320,308,311,308,1
323,309,311,312,1
323,310,311,316,1
322,310,310,320,1
319,310,308,323,1
316,309,305,322,1
312,307,300,319,1
307,305,295,313,1
303,304,291,307,1
301,302,289,302,1
303,300,289,300,1
305,299,290,300,1
308,299,291,302,1
311,299,293,305,1
312,300,298,307,1
311,302,306,310,1
308,304,314,313,1
305,307,322,316,1
302,310,328,319,1
299,312,330,320,1
299,312,328,319,1
300,312,324,316,1
303,312,317,313,1
309,312,311,312,1
316,311,308,312,1
321,310,306,312,1
322,309,306,311,1
320,307,309,309,1
318,306,314,309,1
315,304,319,309,1
312,302,321,309,1
309,299,321,310,1
306,298,321,312,1
304,297,321,313,1
302,297,320,315,1
299,299,317,317,1
295,302,315,319,1
293,305,313,322,1
291,309,312,323,1
289,311,311,323,1
288,312,311,323,1
289,312,310,322,1
292,311,310,321,1
293,309,311,317,1
291,307,312,312,1
287,304,313,306,1
288,302,312,302,1
294,300,311,299,1
304,299,310,298,1
316,298,306,297,1
324,296,300,297,1
327,294,291,295,1
324,293,284,294,1
318,293,280,293,1
311,295,279,293,1
307,297,281,294,1
304,300,284,296,1
303,303,288,296,1
302,305,293,297,1
302,307,297,297,1
302,308,301,299,1
300,308,304,300,1
299,308,306,303,1
298,307,307,306,1
299,307,308,309,1
301,306,308,312,1
303,305,307,314,1
305,304,306,316,1
306,304,305,316,1
308,303,306,316,1
308,303,307,315,1
307,302,309,314,1
306,302,312,313,1
307,302,314,313,1
309,302,315,314,1
312,303,316,314,1
314,305,316,314,1
316,307,315,312,1
316,308,312,309,1
315,309,308,305,1
312,310,305,303,1
309,310,302,301,1
308,310,301,301,1
307,309,301,301,1
308,310,301,303,1
310,309,300,307,1
312,309,299,310,1
314,308,297,314,1
315,308,296,319,1
315,307,295,323,1
313,305,293,325,1
312,304,294,325,1
312,302,294,324,1
314,301,295,321,1
315,299,298,318,1
314,299,299,313,1
312,299,300,308,1
310,301,301,303,1
309,302,303,299,1
309,303,304,297,1
310,304,305,297,1
311,305,306,298,1
311,306,308,297,1
310,306,309,295,1
308,306,311,293,1
307,306,314,292,1
309,305,316,290,1
313,304,318,291,1
315,303,320,293,1
317,300,320,296,1
317,298,318,300,1
315,297,315,305,1
312,297,314,312,1
307,298,314,320,1
299,299,317,328,1
291,302,321,334,1
287,305,327,339,1
288,307,331,342,1
293,309,334,344,1
298,310,334,342,1
300,311,332,337,1
299,312,330,331,1
298,312,327,324,1
297,312,323,318,1
296,311,318,310,1
295,309,314,300,1
293,307,309,292,1
291,305,305,286,1
293,303,302,284,1
298,300,299,284,1
302,298,297,285,1
302,297,298,287,1
302,296,300,290,1
305,297,301,293,1
311,298,299,297,1
315,301,298,301,1
317,304,295,303,1
316,306,293,303,1
315,307,291,302,1
312,308,290,301,1
310,309,292,299,1
308,310,294,299,1
306,312,296,300,1
305,312,298,301,1
305,312,300,304,1
306,312,302,308,1
307,311,304,311,1
308,310,306,314,1
311,308,307,317,1
314,308,307,320,1
317,307,308,322,1
320,307,308,321,1
324,306,309,320,1
328,305,311,320,1
333,305,312,322,1
335,305,314,326,1
333,307,315,329,1
328,310,316,331,1
319,312,315,329,1
309,312,313,324,1
300,312,310,317,1
294,312,306,309,1
289,312,305,302,1
288,312,305,296,1
291,311,305,291,1
295,309,307,289,1
300,308,307,289,1
304,306,306,290,1
307,304,305,291,1
308,302,303,292,1
310,300,300,293,1
310,300,298,295,1
311,299,297,298,1
310,299,297,302,1
310,300,298,305,1
311,301,302,307,1
313,303,308,308,1
314,304,315,309,1
315,306,319,308,1
315,306,321,307,1
314,307,322,305,1
312,307,320,304,1
308,308,317,304,1
302,309,312,303,1
299,309,306,304,1
299,309,302,304,1
300,310,300,305,1
299,310,299,304,1
298,310,298,303,1
297,308,300,302,1
297,305,304,303,1
298,303,310,305,1
297,300,317,308,1
295,299,322,311,1
294,299,327,315,1
295,300,329,320,1
297,302,329,323,1
298,306,326,324,1
297,309,321,322,1
300,312,315,320,1
306,313,308,318,1
312,314,303,316,1
314,315,301,315,1
313,315,303,314,1
312,316,307,316,1
310,316,310,320,1
309,315,313,322,1
307,314,314,321,1
306,311,316,317,1
306,308,319,314,1
307,305,322,313,1
309,304,323,314,1
310,304,321,316,1
309,304,317,316,1
308,304,312,316,1
305,305,308,313,1
302,306,303,308,1
300,308,300,302,1
300,309,297,297,1
302,311,296,292,1
306,312,297,289,1
310,314,297,288,1
314,315,298,287,1
315,315,299,289,1
312,315,298,290,1
305,314,297,292,1
299,313,296,292,1
296,312,295,292,1
295,310,295,293,1
296,308,296,295,1
298,306,297,299,1
304,305,300,305,1
310,305,301,311,1
314,306,300,317,1
317,307,299,322,1
318,309,298,326,1
319,311,298,329,1
319,313,299,329,1
316,314,301,329,1
312,314,307,328,1
308,315,312,328,1
304,315,317,328,1
301,315,319,326,1
298,314,320,325,1
294,313,320,324,1
291,312,319,326,1
289,313,318,326,1
288,312,315,324,1
286,311,311,318,1
285,309,307,308,1
283,306,304,297,1
283,304,303,288,1
283,302,301,282,1
284,301,301,279,1
286,300,300,279,1
291,301,302,281,1
299,302,304,285,1
306,305,307,289,1
312,307,307,292,1
314,309,305,295,1
315,310,302,296,1
314,311,299,298,1
312,311,296,301,1
309,312,296,304,1
305,312,300,308,1
301,312,305,312,1
298,311,311,316,1
297,310,319,319,1
296,310,326,321,1
298,309,330,321,1
303,307,330,320,1
310,305,325,319,1
314,304,319,320,1
317,305,314,322,1
316,305,311,322,1
314,306,312,319,1
311,307,315,315,1
310,308,320,309,1
311,308,323,302,1
313,308,324,296,1
316,308,321,293,1
318,308,316,292,1
321,308,312,291,1
322,307,308,290,1
323,306,304,288,1
322,304,302,286,1
320,303,299,286,1
316,302,298,286,1
312,301,298,286,1
308,300,300,287,1
306,299,303,289,1
307,298,306,292,1
306,297,308,296,1
304,298,309,300,1
303,299,309,305,1
303,302,308,308,1
303,303,308,311,1
303,305,308,311,1
302,307,308,310,1
299,309,308,309,1
296,311,307,309,1
294,312,307,309,1
296,313,307,309,1
299,314,307,310,1
302,314,307,311,1
304,314,305,313,1
303,313,302,314,1
302,312,300,316,1
302,310,299,318,1
303,308,299,319,1
305,306,301,318,1
309,304,302,315,1
313,303,304,312,1
316,302,305,309,1
318,302,307,307,1
317,303,309,308,1
313,304,309,310,1
307,306,308,313,1
302,306,306,315,1
297,307,303,316,1
293,307,302,315,1
289,307,301,313,1
288,308,302,309,1
288,307,304,304,1
292,307,306,300,1
296,305,309,297,1
298,304,310,294,1
299,302,310,293,1
301,300,309,295,1
303,298,307,297,1
305,296,307,302,1
307,295,308,307,1
309,294,309,311,1
310,294,310,315,1
309,295,310,318,1
306,296,310,321,1
307,298,309,322,1
309,300,309,321,1
312,302,308,318,1
312,305,309,315,1
312,308,307,314,1
312,310,307,311,1
312,311,306,306,1
312,311,305,302,1
312,310,305,298,1
313,309,305,297,1
314,308,305,299,1
314,307,304,300,1
313,306,303,302,1
312,304,302,304,1
313,302,301,306,1
316,301,300,306,1
321,300,299,302,1
325,300,300,297,1
325,300,304,293,1
323,302,308,291,1
319,304,314,292,1
314,307,317,293,1
308,309,320,294,1
304,311,320,295,1
302,313,317,296,1
302,313,312,295,1
303,313,306,294,1
303,313,301,293,1
304,312,297,293,1
302,311,295,296,1
301,310,294,301,1
299,309,295,307,1
298,307,298,315,1
298,306,301,322,1
300,305,305,329,1
305,304,308,332,1
311,304,306,332,1
317,304,301,327,1
321,304,294,320,1
324,305,288,312,1
325,306,285,305,1
322,308,286,300,1
317,309,289,297,1
311,311,291,295,1
305,311,293,295,1
302,311,294,294,1
300,310,293,292,1
299,308,291,290,1
298,307,291,289,1
296,306,292,289,1
295,305,293,288,1
294,304,294,287,1
293,302,295,287,1
293,301,297,288,1
