302,315,304,303,0
302,318,303,300,0
302,319,303,297,0
301,316,302,295,0
301,310,301,292,0
300,302,301,291,0
300,294,300,292,0
301,283,301,295,0
302,272,302,297,0
303,263,304,301,0
304,258,305,304,0
304,258,307,306,0
303,261,308,305,0
301,266,309,304,0
299,268,309,302,0
299,266,309,301,0
300,266,309,301,0
302,272,311,302,0
305,280,313,304,0
307,289,313,306,0
304,299,313,308,0
298,307,311,309,0
293,314,310,309,0
293,319,308,308,0
296,318,308,307,0
298,309,307,305,0
298,296,307,303,0
299,283,308,301,0
300,273,308,300,0
300,271,308,300,0
301,275,308,301,0
302,285,308,303,0
303,297,308,305,0
304,306,308,306,0
305,313,307,307,0
305,318,306,308,0
306,320,305,309,0
306,319,303,310,0
306,316,302,309,0
305,312,301,309,0
306,308,302,308,0
306,302,303,306,0
306,294,305,304,0
304,286,306,301,0
302,281,307,301,0
300,281,306,300,0
298,283,305,300,0
295,286,305,300,0
294,288,305,302,0
297,292,305,303,0
306,299,305,305,0
316,308,304,307,0
317,314,304,307,0
307,313,304,308,0
294,306,305,308,0
286,297,307,309,0
283,284,307,310,0
284,270,306,309,0
288,260,306,309,0
293,256,305,308,0
295,261,305,309,0
297,272,304,309,0
297,283,305,308,0
298,293,304,307,0
298,298,305,308,0
300,296,305,310,0
302,291,307,313,0
306,287,310,315,0
311,288,311,318,0
315,296,312,320,0
317,308,311,322,0
320,319,311,322,0
321,326,310,320,0
320,328,309,316,0
318,325,308,312,0
314,322,309,309,0
311,319,310,308,0
310,318,309,308,0
310,318,308,308,0
311,318,308,310,0
313,318,306,312,0
311,316,305,313,0
308,310,304,312,0
306,302,302,309,0
304,294,301,305,0
303,287,302,302,0
304,284,302,299,0
306,284,302,297,0
307,285,302,295,0
307,286,302,293,0
306,286,303,292,0
304,286,304,292,0
300,287,306,293,0
298,286,310,294,0
296,286,312,296,0
296,286,314,298,0
298,285,314,301,0
300,284,314,303,0
301,282,312,306,0
302,282,309,307,0
303,283,305,306,0
304,287,303,306,0
304,294,302,306,0
304,301,303,308,0
304,305,304,309,0
304,306,305,311,0
305,307,306,312,0
305,308,305,313,0
306,307,305,312,0
306,307,304,311,0
305,303,303,309,0
303,294,302,307,0
301,280,301,304,0
299,272,301,301,0
298,269,301,301,0
297,265,302,301,0
297,267,304,302,0
299,276,306,303,0
302,290,307,302,0
304,307,306,301,0
304,318,305,300,0
305,323,304,300,0
308,320,304,301,0
311,313,303,301,0
311,306,302,302,0
311,301,299,302,0
310,297,299,302,0
310,293,298,302,0
309,290,300,303,0
308,288,302,304,0
307,288,303,306,0
305,289,306,308,0
304,291,308,309,0
303,291,308,309,0
303,289,307,307,0
303,286,306,304,0
305,286,304,302,0
309,289,303,302,0
315,294,303,302,0
318,295,303,303,0
314,293,304,302,0
305,290,305,302,0
296,286,306,303,0
289,284,307,303,0
286,287,306,305,0
289,296,305,308,0
298,305,304,312,0
308,308,304,316,0
312,309,305,319,0
314,311,306,320,0
315,313,306,321,0
315,314,307,321,0
314,316,308,319,0
313,321,308,318,0
312,327,308,318,0
309,329,309,318,0
307,324,310,318,0
305,314,309,318,0
304,306,308,319,0
305,302,306,319,0
305,299,305,319,0
305,295,303,317,0
305,289,301,314,0
304,282,300,310,0
303,273,298,305,0
301,264,296,300,0
297,256,296,297,0
292,252,299,295,0
288,260,303,297,0
289,280,307,302,0
295,304,310,306,0
301,320,311,310,0
306,331,310,312,0
309,335,309,313,0
311,334,307,312,0
312,328,305,308,0
311,318,303,304,0
308,304,302,302,0
304,292,301,301,0
302,289,300,304,0
301,296,299,308,0
302,302,299,311,0
303,304,298,313,0
303,302,297,312,0
304,299,296,310,0
304,297,296,307,0
305,292,297,306,0
305,287,298,304,0
304,282,299,303,0
304,280,301,302,0
303,283,303,301,0
304,291,304,302,0
304,301,306,303,0
304,310,306,304,0
305,318,305,303,0
306,322,303,302,0
305,325,300,302,0
304,326,299,302,0
302,322,299,302,0
302,317,300,303,0
303,311,303,305,0
305,307,306,307,0
307,305,309,310,0
310,304,311,313,0
311,303,312,315,0
312,301,312,316,0
313,298,310,316,0
312,293,307,317,0
309,288,306,317,0
307,283,305,317,0
307,281,305,316,0
308,282,306,314,0
307,282,307,314,0
304,282,308,313,0
300,282,308,312,0
297,284,308,310,0
296,291,307,308,0
296,301,306,307,0
298,311,305,307,0
300,316,304,306,0
303,315,303,304,0
307,313,302,303,0
311,311,302,303,0
316,307,301,304,0
316,299,301,304,0
309,287,301,304,0
299,274,301,304,0
292,264,302,306,0
289,260,303,308,0
291,259,305,310,0
292,261,306,311,0
290,270,308,312,0
287,284,310,311,0
286,298,312,310,0
289,309,315,309,0
295,315,316,310,0
301,316,316,310,0
307,316,315,308,0
310,317,313,305,0
311,317,309,301,0
310,317,305,298,0
309,317,303,297,0
308,316,301,298,0
307,316,299,298,0
305,316,298,299,0
303,315,298,301,0
303,311,299,304,0
304,306,299,307,0
307,303,301,310,0
310,303,303,312,0
311,304,304,314,0
308,304,306,315,0
305,303,309,316,0
306,301,313,315,0
309,301,316,313,0
308,302,317,310,0
305,305,317,308,0
305,307,316,307,0
307,304,314,305,0
305,299,310,304,0
304,293,305,303,0
303,288,302,306,0
306,284,301,311,0
309,281,301,316,0
310,279,301,320,0
309,279,301,322,0
308,280,301,322,0
308,285,301,321,0
308,290,301,319,0
307,293,301,315,0
306,295,301,311,0
305,298,301,306,0
304,300,302,302,0
304,300,302,301,0
304,297,303,301,0
304,289,303,301,0
303,280,302,302,0
302,272,302,302,0
301,269,302,302,0
301,271,302,302,0
302,278,304,301,0
306,288,306,301,0
310,296,307,301,0
313,295,307,300,0
315,286,306,298,0
315,276,304,297,0
313,270,303,296,0
309,269,304,297,0
306,269,304,297,0
304,275,304,298,0
304,293,304,299,0
308,314,304,303,0
314,325,304,305,0
320,326,304,307,0
319,322,303,309,0
313,318,303,309,0
304,314,302,308,0
298,311,301,306,0
295,308,301,305,0
294,306,301,303,0
294,308,302,302,0
296,313,303,303,0
298,318,305,306,0
302,320,307,307,0
304,316,307,308,0
306,311,307,308,0
304,306,308,311,0
301,301,308,313,0
297,294,307,315,0
295,285,307,317,0
295,280,308,318,0
297,278,309,320,0
301,275,310,320,0
305,271,311,320,0
307,266,310,319,0
305,262,309,318,0
301,262,306,318,0
295,267,305,319,0
293,276,306,320,0
297,286,309,320,0
306,291,310,317,0
314,294,310,313,0
319,297,308,310,0
321,302,307,308,0
322,306,305,305,0
322,309,304,303,0
318,313,304,302,0
313,313,304,302,0
310,312,304,302,0
307,310,304,302,0
305,313,305,302,0
304,321,306,302,0
305,331,308,303,0
306,337,310,305,0
308,339,311,308,0
309,336,311,310,0
310,332,310,311,0
311,327,309,311,0
310,324,308,310,0
310,320,308,310,0
309,315,308,311,0
308,310,308,313,0
307,308,308,314,0
306,306,306,312,0
306,302,305,308,0
306,297,304,304,0
308,290,304,301,0
308,279,306,300,0
306,265,308,300,0
305,251,310,299,0
304,245,312,298,0
302,249,313,298,0
300,260,313,299,0
299,276,309,301,0
302,293,304,302,0
306,306,299,302,0
312,317,296,301,0
316,326,294,302,0
314,330,293,302,0
310,325,294,303,0
305,315,297,304,0
303,304,301,306,0
301,294,305,309,0
300,288,307,310,0
298,286,308,311,0
298,288,308,311,0
297,292,308,311,0
298,294,307,310,0
300,296,306,310,0
303,299,305,313,0
307,304,305,317,0
310,307,305,321,0
313,308,306,322,0
314,306,305,320,0
313,303,304,316,0
310,299,304,313,0
304,295,306,313,0
298,293,309,314,0
293,294,310,315,0
292,296,309,314,0
295,297,306,312,0
302,299,302,308,0
308,301,298,304,0
311,303,295,299,0
314,305,293,295,0
314,305,292,292,0
311,304,292,290,0
307,305,292,289,0
304,313,293,288,0
302,325,295,288,0
301,333,298,289,0
300,338,300,291,0
303,338,302,295,0
307,332,304,300,0
309,324,306,304,0
307,317,307,306,0
303,313,307,309,0
299,312,307,311,0
301,313,307,311,0
305,317,306,311,0
307,319,304,311,0
308,319,303,310,0
308,317,302,310,0
308,314,302,310,0
308,308,302,310,0
308,301,302,308,0
308,294,302,306,0
308,289,302,303,0
308,285,303,301,0
309,283,304,301,0
309,282,306,302,0
309,282,307,302,0
307,283,307,302,0
304,284,308,300,0
301,284,310,298,0
299,282,310,296,0
298,281,307,294,0
297,283,305,296,0
298,288,304,300,0
302,288,306,306,0
306,280,306,309,0
311,268,303,308,0
313,257,299,306,0
308,252,296,304,0
301,252,295,303,0
299,259,295,304,0
302,270,296,307,0
305,286,297,311,0
306,303,299,313,0
305,317,300,314,0
303,328,302,314,0
302,336,303,314,0
301,342,305,314,0
301,341,305,314,0
302,341,306,314,0
304,343,306,312,0
305,346,306,309,0
307,347,305,305,0
308,347,305,302,0
308,346,304,301,0
308,343,302,302,0
307,339,301,303,0
304,332,301,304,0
301,323,300,305,0
296,311,300,305,0
290,296,301,304,0
289,280,301,303,0
291,268,301,301,0
297,260,300,299,0
302,257,299,298,0
307,259,299,299,0
310,265,301,302,0
312,278,304,305,0
315,293,306,309,0
317,309,308,311,0
317,321,307,311,0
315,329,306,309,0
313,333,305,306,0
312,332,304,302,0
312,333,304,299,0
312,336,303,297,0
310,337,302,295,0
305,331,301,294,0
300,321,300,295,0
296,311,300,298,0
295,305,302,301,0
296,300,303,306,0
298,296,305,311,0
301,297,307,314,0
303,301,308,314,0
305,305,309,315,0
306,309,311,316,0
306,312,312,318,0
306,313,314,320,0
305,313,315,321,0
303,313,316,320,0
300,311,316,315,0
295,306,316,309,0
289,297,314,302,0
283,280,312,296,0
280,260,310,291,0
283,237,308,286,0
288,215,303,282,0
293,201,297,280,0
299,203,294,283,0
309,221,297,291,0
324,249,300,300,0
328,281,303,307,0
322,311,305,311,0
313,335,307,313,0
307,349,308,316,0
303,355,311,318,0
302,355,313,320,0
302,353,313,321,0
301,351,313,321,0
300,348,311,319,0
299,345,309,316,0
298,342,307,313,0
297,341,306,311,0
297,343,305,309,0
297,348,305,308,0
298,352,304,305,0
298,352,302,302,0
299,347,300,298,0
299,338,299,296,0
301,328,299,296,0
305,315,300,297,0
309,301,301,298,0
312,289,302,298,0
312,280,303,297,0
310,276,306,296,0
307,276,306,296,0
305,278,306,297,0
302,281,304,299,0
298,288,305,302,0
296,301,308,306,0
298,318,311,309,0
303,331,312,311,0
308,339,311,312,0
312,341,309,310,0
315,336,307,308,0
316,328,306,306,0
317,314,306,302,0
317,299,306,299,0
317,287,306,298,0
317,281,307,297,0
316,280,308,298,0
314,282,309,298,0
311,282,309,299,0
311,280,310,298,0
314,281,313,299,0
317,283,315,300,0
318,282,318,302,0
318,277,319,304,0
317,269,317,304,0
314,261,313,304,0
311,255,307,304,0
307,255,302,302,0
304,260,298,299,0
301,268,296,296,0
299,277,297,293,0
298,287,297,293,0
298,298,298,293,0
299,310,297,293,0
300,327,295,293,0
302,348,294,293,0
303,364,293,292,0
303,370,293,291,0
305,369,292,291,0
307,365,294,291,0
311,359,296,293,0
314,351,298,296,0
316,344,300,297,0
316,338,302,298,0
314,332,303,298,0
311,325,304,297,0
308,316,305,297,0
306,308,305,298,0
305,302,306,299,0
307,299,307,300,0
311,297,306,299,0
314,295,303,299,0
314,295,300,299,0
315,296,299,301,0
317,297,299,302,0
317,295,300,303,0
312,290,301,303,0
303,285,302,305,0
296,281,304,308,0
291,280,305,311,0
288,278,306,316,0
287,279,308,319,0
287,280,310,321,0
290,281,312,322,0
294,283,313,322,0
299,283,313,320,0
302,285,312,317,0
301,296,311,314,0
298,310,309,313,0
293,321,307,312,0
289,326,305,313,0
289,328,304,312,0
295,328,304,311,0
300,328,303,309,0
302,323,301,307,0
303,314,302,306,0
305,301,304,305,0
306,289,307,304,0
307,280,311,306,0
308,274,315,309,0
312,273,317,312,0
315,277,317,314,0
315,285,313,314,0
312,294,309,312,0
309,305,305,311,0
306,317,302,309,0
305,330,301,307,0
304,341,301,306,0
304,349,301,306,0
304,348,302,306,0
304,335,302,305,0
303,316,302,303,0
300,295,300,301,0
296,272,298,297,0
293,248,296,293,0
293,227,296,289,0
297,218,298,286,0
302,231,301,286,0
308,265,305,288,0
313,304,308,290,0
316,331,311,295,0
317,339,312,299,0
316,334,312,302,0
313,326,310,304,0
310,321,309,307,0
310,323,309,311,0
311,329,308,315,0
311,339,308,317,0
312,348,307,317,0
312,354,305,317,0
312,357,305,316,0
311,357,304,315,0
310,355,306,314,0
309,349,307,313,0
309,339,308,312,0
310,332,307,310,0
312,325,306,308,0
312,317,307,306,0
310,309,311,303,0
306,304,317,299,0
302,297,323,295,0
298,289,327,292,0
297,279,329,291,0
298,270,329,291,0
299,260,326,292,0
301,250,318,295,0
307,251,311,299,0
315,264,308,304,0
321,287,305,309,0
320,310,301,313,0
315,329,296,313,0
311,341,292,311,0
309,347,290,306,0
309,345,289,304,0
310,335,291,303,0
313,323,292,303,0
315,314,293,303,0
318,308,292,304,0
318,304,291,304,0
319,301,291,304,0
321,297,292,305,0
323,291,295,305,0
320,283,298,303,0
313,273,300,302,0
306,270,302,300,0
301,279,304,299,0
299,295,305,298,0
301,306,307,299,0
304,310,310,299,0
309,311,313,299,0
313,309,317,301,0
315,308,317,303,0
313,311,315,304,0
309,315,313,304,0
304,314,312,302,0
302,307,312,300,0
301,296,313,298,0
302,284,313,298,0
303,276,312,298,0
304,272,309,298,0
304,273,306,299,0
303,278,305,302,0
301,286,307,305,0
298,290,311,308,0
294,294,314,311,0
289,299,317,314,0
287,305,315,317,0
291,307,308,320,0
299,308,300,322,0
307,309,295,322,0
312,315,293,322,0
316,325,294,322,0
319,334,294,322,0
320,340,294,323,0
319,339,294,324,0
315,335,297,324,0
310,327,300,321,0
306,317,305,317,0
301,302,308,313,0
297,288,309,309,0
292,276,306,305,0
287,264,302,303,0
283,253,297,300,0
285,247,294,299,0
297,252,295,300,0
320,271,299,305,0
341,294,305,309,0
347,317,312,313,0
338,335,318,315,0
324,345,321,316,0
312,347,322,315,0
305,345,319,313,0
302,340,312,310,0
302,334,304,308,0
303,321,297,306,0
307,307,294,305,0
310,298,293,304,0
313,295,294,303,0
315,297,296,303,0
316,302,298,302,0
315,307,300,301,0
314,311,301,300,0
313,316,302,298,0
311,320,303,297,0
309,316,302,296,0
307,304,302,296,0
304,290,302,296,0
303,284,303,297,0
305,288,306,300,0
308,292,309,301,0
310,289,312,303,0
312,280,314,306,0
315,272,316,307,0
318,266,315,307,0
319,264,313,305,0
319,264,311,304,0
313,266,309,302,0
307,268,309,302,0
302,271,309,302,0
300,280,307,303,0
299,293,304,304,0
299,301,301,303,0
299,309,298,302,0
298,317,297,300,0
296,327,298,299,0
295,338,299,299,0
296,348,300,299,0
298,358,303,299,0
301,365,304,300,0
304,365,305,300,0
306,365,305,301,0
307,365,307,302,0
308,361,308,302,0
307,354,308,302,0
307,347,307,302,0
306,339,305,303,0
306,332,305,305,0
305,326,303,309,0
303,320,303,314,0
300,315,303,319,0
300,312,305,322,0
305,310,306,323,0
308,310,306,320,0
305,311,305,314,0
297,313,303,306,0
288,316,302,300,0
284,316,303,296,0
288,313,307,295,0
297,299,310,295,0
305,283,312,294,0
309,273,311,292,0
311,266,309,292,0
312,263,307,294,0
314,263,306,297,0
316,263,305,300,0
317,265,305,302,0
319,267,306,305,0
319,274,307,306,0
319,284,311,306,0
317,293,317,305,0
316,296,325,304,0
314,297,332,305,0
314,294,336,307,0
315,292,333,309,0
317,297,322,311,0
319,309,311,311,0
321,325,302,312,0
320,340,297,313,0
313,352,295,313,0
306,355,294,312,0
301,351,294,308,0
299,344,295,304,0
300,339,295,301,0
301,336,295,300,0
302,333,295,300,0
303,329,295,302,0
304,321,296,304,0
305,310,297,305,0
304,298,298,305,0
304,289,299,306,0
303,283,300,306,0
304,283,303,306,0
304,289,307,309,0
306,300,312,313,0
309,309,318,317,0
311,314,320,318,0
311,315,320,317,0
309,317,318,314,0
305,320,315,312,0
302,324,311,311,0
301,326,306,310,0
300,329,303,309,0
301,334,300,308,0
301,341,299,306,0
301,347,300,305,0
301,349,300,304,0
302,343,300,304,0
302,329,299,306,0
303,311,299,309,0
303,292,300,312,0
304,278,301,315,0
306,273,303,319,0
309,279,305,323,0
310,285,307,327,0
311,286,308,328,0
311,282,309,327,0
312,278,309,323,0
313,276,308,316,0
313,276,305,309,0
313,278,301,302,0
310,278,297,296,0
306,276,294,292,0
302,273,293,289,0
298,277,294,289,0
296,287,298,291,0
295,299,304,294,0
294,313,308,297,0
297,327,310,300,0
302,339,312,304,0
308,345,313,307,0
313,346,313,308,0
318,343,312,306,0
320,340,311,303,0
320,335,309,300,0
318,329,309,298,0
316,323,309,298,0
313,318,311,299,0
310,316,312,301,0
307,316,312,303,0
305,318,311,305,0
304,321,309,305,0
305,323,307,303,0
307,325,303,298,0
309,326,300,294,0
313,327,298,292,0
318,328,298,291,0
323,326,300,293,0
329,321,301,297,0
333,313,302,302,0
329,302,304,307,0
318,288,305,312,0
306,274,307,315,0
298,265,309,315,0
291,259,312,312,0
288,261,316,308,0
288,280,323,305,0
294,305,331,306,0
303,326,339,307,0
310,337,343,308,0
312,338,339,309,0
310,334,328,308,0
307,328,316,305,0
304,318,307,303,0
303,308,303,300,0
304,300,302,297,0
304,295,301,297,0
302,291,301,298,0
298,288,300,300,0
295,285,299,304,0
296,284,298,307,0
300,287,299,312,0
303,292,300,316,0
304,299,302,318,0
304,303,304,319,0
304,302,305,318,0
303,296,304,315,0
304,288,304,312,0
308,279,304,309,0
310,271,303,306,0
309,268,302,304,0
305,271,301,302,0
302,280,301,302,0
302,293,301,301,0
307,309,301,301,0
311,329,303,300,0
313,347,306,300,0
313,356,308,300,0
313,353,310,300,0
314,342,311,302,0
314,331,311,305,0
315,321,310,308,0
315,312,309,312,0
314,306,308,316,0
312,303,308,319,0
310,301,307,320,0
309,298,306,320,0
308,295,305,321,0
308,292,304,323,0
307,292,304,325,0
305,295,304,325,0
304,301,304,323,0
303,306,304,318,0
303,309,304,311,0
302,309,303,302,0
301,307,302,294,0
302,303,303,290,0
303,300,303,287,0
305,297,304,287,0
306,294,303,288,0
307,292,303,290,0
307,293,304,292,0
307,296,306,294,0
308,298,307,294,0
308,296,307,294,0
308,294,307,294,0
308,293,307,295,0
307,294,307,296,0
305,299,306,297,0
302,306,305,297,0
299,311,303,297,0
296,312,301,295,0
295,313,301,294,0
300,316,304,296,0
309,317,309,300,0
318,315,315,307,0
322,313,320,313,0
322,315,323,316,0
323,320,324,318,0
322,325,321,317,0
315,328,320,317,0
307,328,321,316,0
300,325,322,313,0
296,320,324,308,0
295,315,324,303,0
299,310,322,299,0
304,304,316,296,0
305,292,307,293,0
301,278,301,291,0
295,262,298,289,0
288,247,299,288,0
284,236,303,288,0
286,230,307,292,0
295,239,311,298,0
304,260,313,305,0
313,285,311,312,0
318,306,308,316,0
321,321,304,319,0
322,330,301,319,0
322,336,299,318,0
322,340,299,317,0
321,341,300,314,0
319,343,301,311,0
317,345,302,308,0
315,344,303,304,0
313,340,303,302,0
311,334,302,300,0
308,327,301,300,0
306,320,302,299,0
304,313,304,299,0
302,306,307,298,0
300,298,311,296,0
299,289,313,295,0
298,280,312,294,0
297,274,309,295,0
295,274,306,298,0
294,280,305,302,0
294,290,305,306,0
297,297,306,308,0
299,300,307,309,0
301,299,306,311,0
302,296,306,312,0
305,296,307,313,0
308,299,308,312,0
313,308,309,308,0
316,319,310,304,0
314,326,309,300,0
309,329,308,298,0
304,328,307,296,0
302,326,306,296,0
302,322,306,296,0
302,318,306,297,0
302,314,307,299,0
300,313,307,301,0
300,312,308,305,0
300,308,309,309,0
301,302,311,313,0
301,293,312,318,0
300,281,313,322,0
299,269,315,324,0
299,260,316,324,0
298,258,316,322,0
298,262,313,319,0
297,269,310,316,0
298,280,309,313,0
298,293,309,309,0
299,303,310,305,0
300,307,311,304,0
301,304,312,303,0
302,302,311,304,0
303,305,310,306,0
302,314,309,308,0
303,323,308,310,0
300,329,305,309,0
297,332,301,306,0
297,333,298,304,0
299,332,297,302,0
302,328,298,300,0
303,323,298,298,0
305,320,299,297,0
308,319,300,296,0
313,318,302,297,0
318,315,304,298,0
320,312,306,300,0
320,310,309,301,0
319,310,309,301,0
315,310,309,302,0
312,312,310,302,0
309,313,311,302,0
306,310,314,302,0
304,302,317,302,0
303,294,316,302,0
301,284,311,301,0
299,275,304,299,0
298,267,299,297,0
298,264,296,295,0
298,271,295,292,0
299,283,295,292,0
300,295,296,292,0
301,302,298,293,0
301,306,300,294,0
302,305,301,296,0
303,296,302,298,0
304,279,304,302,0
304,264,305,307,0
305,262,308,311,0
308,274,310,317,0
313,290,311,322,0
317,304,311,324,0
317,313,310,323,0
316,319,309,321,0
313,323,309,320,0
311,324,309,318,0
309,324,310,314,0
307,321,310,310,0
308,317,310,305,0
309,315,311,301,0
311,316,312,298,0
314,317,313,297,0
314,317,312,297,0
312,315,314,300,0
309,310,316,303,0
307,305,320,306,0
305,301,321,309,0
303,298,319,311,0
302,297,317,311,0
302,300,314,311,0
302,306,312,310,0
302,311,310,309,0
303,312,306,308,0
303,310,303,306,0
304,307,300,305,0
306,303,299,304,0
308,300,300,303,0
307,302,302,303,0
305,309,305,303,0
303,319,308,303,0
303,324,309,304,0
305,322,307,306,0
309,316,306,309,0
312,309,305,312,0
313,301,305,314,0
313,296,304,314,0
310,292,303,314,0
309,290,303,312,0
308,288,302,309,0
306,287,303,307,0
301,286,303,306,0
294,286,304,307,0
290,286,306,308,0
287,284,309,309,0
290,282,310,309,0
295,283,310,308,0
299,290,308,308,0
302,299,306,309,0
306,305,305,311,0
309,304,305,313,0
311,299,305,314,0
311,292,307,314,0
309,289,308,313,0
308,288,310,312,0
311,291,313,310,0
316,297,314,306,0
319,303,314,303,0
320,311,310,299,0
319,321,307,296,0
317,333,306,295,0
315,341,304,295,0
313,344,303,295,0
311,343,302,295,0
310,341,303,296,0
310,338,304,297,0
311,332,306,299,0
310,324,308,300,0
308,316,311,301,0
306,308,313,301,0
305,297,313,299,0
304,283,310,297,0
304,272,304,295,0
305,269,299,295,0
308,270,297,297,0
312,274,296,301,0
315,278,297,304,0
317,283,298,305,0
318,287,300,305,0
320,293,302,306,0
320,300,304,308,0
317,307,307,310,0
312,312,309,311,0
307,313,311,312,0
303,310,313,313,0
300,307,315,314,0
300,303,316,313,0
301,300,316,314,0
302,298,315,314,0
303,295,311,315,0
301,293,305,315,0
298,289,300,315,0
295,285,296,313,0
291,280,293,307,0
289,276,291,300,0
288,272,291,295,0
290,271,292,293,0
293,276,292,294,0
298,290,293,296,0
304,309,294,299,0
308,323,295,302,0
312,327,298,305,0
313,323,302,309,0
310,317,305,309,0
304,310,305,307,0
298,306,305,304,0
295,308,303,303,0
297,312,303,303,0
302,315,303,306,0
307,316,305,312,0
315,314,306,319,0
319,312,308,324,0
316,312,309,328,0
312,314,310,330,0
309,317,311,329,0
309,318,311,326,0
309,318,310,323,0
309,315,310,318,0
309,312,310,314,0
308,309,308,309,0
307,310,306,304,0
306,313,304,302,0
306,312,303,301,0
306,305,304,301,0
307,296,305,299,0
306,288,305,297,0
304,280,304,293,0
299,269,302,289,0
293,258,301,286,0
285,254,301,285,0
281,255,301,286,0
283,258,302,289,0
291,255,304,294,0
301,252,305,300,0
309,261,307,305,0
313,281,309,310,0
315,300,310,313,0
316,317,311,314,0
317,328,311,313,0
319,335,310,311,0
319,339,310,308,0
319,342,309,306,0
319,343,309,304,0
318,343,310,303,0
316,342,310,301,0
314,339,311,300,0
312,336,313,300,0
310,333,316,300,0
308,331,318,299,0
305,328,320,298,0
301,328,319,299,0
300,327,316,300,0
304,326,312,302,0
310,321,307,304,0
315,315,301,306,0
316,311,297,307,0
313,310,295,309,0
310,312,295,312,0
307,313,296,314,0
304,312,297,315,0
302,305,299,314,0
301,296,301,312,0
300,285,302,310,0
299,278,303,310,0
296,272,304,310,0
293,267,304,311,0
292,266,306,311,0
294,268,308,311,0
298,272,310,309,0
303,281,311,306,0
307,296,313,304,0
312,308,315,304,0
319,315,313,303,0
325,318,309,302,0
326,318,305,301,0
324,317,302,299,0
320,314,300,297,0
317,310,298,295,0
314,306,296,293,0
313,300,296,293,0
312,293,298,295,0
313,286,301,295,0
316,283,303,295,0
314,286,303,294,0
309,298,302,294,0
303,314,302,293,0
300,324,301,292,0
299,322,299,292,0
300,310,299,292,0
302,295,301,295,0
307,284,304,301,0
311,277,310,308,0
315,274,315,315,0
317,279,320,320,0
319,289,321,323,0
317,300,319,323,0
313,311,315,320,0
309,322,312,316,0
306,332,310,311,0
305,342,308,306,0
304,349,306,302,0
304,349,305,300,0
305,346,304,300,0
307,340,304,301,0
308,330,305,302,0
310,319,307,303,0
311,311,309,303,0
310,304,310,304,0
309,299,312,304,0
309,294,313,306,0
309,290,313,307,0
309,286,313,310,0
309,282,311,311,0
309,279,309,313,0
309,274,308,313,0
310,269,308,314,0
309,266,307,312,0
308,267,305,310,0
304,268,303,306,0
300,268,302,302,0
298,269,299,299,0
297,276,297,297,0
297,292,296,296,0
299,312,294,298,0
302,332,294,300,0
305,344,295,302,0
308,349,297,303,0
311,344,299,301,0
312,334,302,299,0
311,324,303,298,0
309,316,304,300,0
306,312,305,303,0
304,308,306,307,0
302,304,306,310,0
301,303,306,313,0
302,306,306,315,0
304,312,307,317,0
307,320,307,318,0
309,329,306,317,0
310,338,306,313,0
312,339,306,309,0
316,329,306,304,0
318,311,304,299,0
315,290,302,294,0
311,271,301,290,0
308,257,300,287,0
306,254,298,286,0
304,261,298,287,0
303,272,299,290,0
304,287,301,295,0
310,301,305,300,0
321,312,305,304,0
328,316,304,308,0
328,314,302,312,0
322,310,302,316,0
316,309,303,318,0
312,313,305,319,0
310,318,308,319,0
309,323,309,318,0
307,326,308,316,0
305,325,307,314,0
303,322,306,313,0
302,318,305,311,0
301,313,304,308,0
301,304,304,306,0
300,293,304,304,0
299,284,303,303,0
299,277,303,303,0
300,272,303,303,0
302,272,303,304,0
305,281,303,304,0
308,297,304,305,0
312,313,305,307,0
314,326,307,310,0
316,334,309,312,0
316,336,313,315,0
315,335,317,317,0
314,331,321,318,0
312,325,324,318,0
312,321,325,317,0
313,321,325,316,0
312,324,324,314,0
308,329,322,313,0
304,335,319,311,0
300,340,317,309,0
297,341,315,307,0
292,335,313,304,0
289,326,309,301,0
287,315,306,300,0
291,309,303,301,0
300,302,301,304,0
309,292,299,307,0
316,284,298,309,0
320,282,297,311,0
322,283,296,313,0
322,288,297,315,0
321,298,298,317,0
319,308,300,320,0
319,317,301,321,0
317,322,302,321,0
313,325,302,320,0
308,328,303,319,0
303,329,303,316,0
300,329,303,312,0
300,330,303,307,0
302,330,303,303,0
304,329,302,300,0
305,326,301,298,0
306,323,300,298,0
307,320,299,298,0
307,316,299,300,0
307,311,299,303,0
307,307,300,306,0
306,305,303,308,0
304,302,305,311,0
303,295,308,312,0
303,284,311,313,0
304,269,313,312,0
304,252,314,310,0
304,236,313,309,0
303,232,311,311,0
305,250,312,315,0
315,286,315,322,0
328,321,317,327,0
336,345,316,328,0
333,359,313,324,0
320,364,310,318,0
307,364,307,312,0
298,360,306,308,0
294,351,305,305,0
293,339,304,302,0
294,327,305,299,0
296,317,307,298,0
298,311,309,298,0
301,307,312,300,0
303,306,313,302,0
305,304,314,304,0
306,303,313,306,0
307,302,312,308,0
308,304,311,310,0
308,306,311,311,0
305,305,311,312,0
303,303,312,313,0
299,301,313,313,0
298,300,313,314,0
297,301,311,315,0
297,303,307,316,0
297,304,303,316,0
298,303,301,317,0
298,302,300,317,0
299,299,299,318,0
299,295,299,318,0
298,288,299,317,0
297,280,301,317,0
297,272,304,319,0
296,263,306,321,0
294,261,308,322,0
292,270,309,322,0
292,289,309,323,0
297,309,309,324,0
306,327,309,325,0
313,343,308,323,0
316,356,308,320,0
315,360,307,314,0
313,356,306,308,0
313,349,305,303,0
311,339,305,299,0
308,329,303,297,0
301,320,303,295,0
296,311,305,295,0
295,303,307,295,0
301,299,308,297,0
307,299,309,298,0
314,301,309,300,0
318,306,310,302,0
320,311,310,305,0
320,314,310,308,0
320,316,310,311,0
317,317,309,313,0
314,318,308,315,0
311,318,308,317,0
309,317,307,318,0
308,315,308,319,0
306,314,308,319,0
304,312,309,318,0
301,308,311,317,0
297,303,313,315,0
292,298,314,310,0
288,292,315,306,0
288,285,316,303,0
291,275,316,301,0
296,264,313,302,0
298,252,311,304,0
298,243,311,306,0
296,240,311,306,0
298,249,310,306,0
303,266,313,307,0
312,288,318,312,0
322,315,322,319,0
329,340,319,325,0
329,357,310,328,0
321,364,302,328,0
312,364,296,327,0
306,359,294,324,0
304,355,294,323,0
303,353,295,321,0
304,352,296,321,0
304,351,297,320,0
304,348,298,320,0
305,345,298,322,0
305,340,299,324,0
306,333,299,324,0
306,328,299,323,0
306,324,299,321,0
306,322,299,318,0
305,319,300,315,0
305,318,300,310,0
305,316,300,305,0
305,315,299,300,0
304,314,299,297,0
303,314,299,295,0
301,312,299,294,0
300,312,299,295,0
299,312,299,296,0
298,311,299,297,0
296,309,299,297,0
295,307,299,297,0
295,305,299,298,0
295,305,299,300,0
296,306,300,303,0
297,307,301,306,0
299,309,302,309,0
300,314,303,311,0
302,318,304,312,0
301,318,305,312,0
298,315,305,310,0
292,308,307,309,0
287,298,309,308,0
283,281,307,307,0
281,265,305,308,0
281,266,304,312,0
286,280,305,317,0
297,297,306,321,0
309,310,309,322,0
316,319,313,321,0
322,330,318,319,0
326,339,323,316,0
326,345,324,312,0
322,345,320,309,0
317,341,311,306,0
312,335,305,304,0
310,328,301,305,0
309,322,301,305,0
309,316,303,306,0
309,312,307,305,0
309,309,310,304,0
308,308,312,303,0
308,308,313,303,0
306,309,312,302,0
304,309,308,302,0
303,309,303,301,0
301,308,299,302,0
301,307,298,304,0
301,306,298,305,0
301,304,300,306,0
300,302,301,307,0
300,302,302,308,0
301,301,303,310,0
303,299,303,312,0
304,297,302,313,0
306,293,302,314,0
307,287,302,314,0
308,281,302,313,0
310,278,302,311,0
311,278,302,307,0
313,280,303,302,0
313,280,305,298,0
312,279,307,295,0
310,279,307,291,0
305,281,305,289,0
295,284,301,288,0
283,285,299,289,0
274,286,300,293,0
273,295,304,300,0
280,310,307,307,0
291,324,309,314,0
303,333,311,319,0
312,336,311,322,0
315,336,311,323,0
315,336,311,324,0
314,337,311,323,0
311,336,310,322,0
309,331,309,321,0
307,324,308,320,0
305,315,308,320,0
304,309,309,320,0
303,309,309,320,0
303,311,310,320,0
303,315,310,319,0
303,319,311,318,0
303,320,311,317,0
303,321,311,317,0
304,320,311,317,0
305,320,311,317,0
305,319,311,316,0
305,317,310,313,0
305,316,309,310,0
306,317,308,308,0
308,321,307,308,0
308,323,306,308,0
307,323,305,307,0
305,323,304,307,0
303,324,304,307,0
306,326,305,310,0
311,326,306,312,0
316,322,306,314,0
318,318,304,315,0
316,313,303,314,0
311,312,302,311,0
304,313,303,309,0
300,316,306,309,0
298,320,310,311,0
298,324,315,313,0
301,326,317,313,0
303,327,318,312,0
303,327,317,310,0
302,325,315,306,0
301,321,312,303,0
299,314,307,301,0
298,306,302,300,0
297,298,298,301,0
296,293,296,302,0
295,292,297,304,0
295,291,298,306,0
295,289,300,308,0
296,286,302,309,0
297,285,304,310,0
296,285,306,312,0
293,285,307,311,0
289,287,308,311,0
288,295,308,311,0
291,301,307,311,0
295,299,306,310,0
299,296,305,308,0
301,293,304,304,0
302,294,305,302,0
302,296,306,300,0
301,300,309,298,0
301,305,312,298,0
302,312,315,298,0
303,319,316,300,0
305,323,313,302,0
305,324,307,305,0
306,321,302,308,0
306,314,299,310,0
305,305,297,312,0
305,294,297,313,0
307,286,298,313,0
309,283,300,313,0
313,284,302,311,0
314,289,303,308,0
308,295,305,305,0
301,303,305,302,0
295,313,305,299,0
293,323,304,296,0
292,330,302,293,0
290,334,301,292,0
287,338,301,290,0
286,340,303,289,0
289,340,306,290,0
296,338,310,293,0
305,333,313,297,0
311,325,314,302,0
313,319,313,306,0
313,315,312,311,0
313,312,312,316,0
311,308,310,321,0
308,305,310,325,0
304,305,310,326,0
303,306,310,324,0
306,307,311,320,0
311,308,312,317,0
315,311,312,314,0
317,315,310,311,0
314,318,309,308,0
308,320,308,307,0
302,318,308,306,0
298,312,308,307,0
299,301,310,308,0
303,286,313,309,0
308,270,313,309,0
310,264,312,308,0
313,269,311,308,0
315,280,310,309,0
316,291,308,309,0
314,299,306,309,0
312,303,305,311,0
310,304,305,313,0
309,303,305,316,0
308,299,305,316,0
306,296,304,315,0
305,296,304,312,0
303,299,304,310,0
302,302,304,308,0
298,305,303,306,0
295,307,302,306,0
293,312,302,308,0
294,317,303,312,0
300,319,306,316,0
309,320,308,318,0
315,322,309,319,0
317,323,310,318,0
317,322,310,315,0
317,323,310,313,0
316,327,311,311,0
315,330,312,311,0
315,334,312,312,0
315,338,311,313,0
314,340,310,314,0
314,340,309,312,0
313,338,308,309,0
312,334,308,306,0
311,328,307,302,0
310,320,306,298,0
308,311,305,295,0
306,302,304,293,0
304,293,303,291,0
301,285,301,290,0
298,279,300,290,0
296,274,299,290,0
294,270,298,291,0
292,275,298,292,0
291,288,299,294,0
293,301,301,296,0
300,307,303,297,0
306,311,303,296,0
309,313,304,297,0
309,314,305,299,0
310,313,306,302,0
311,313,308,305,0
311,316,308,308,0
307,322,308,308,0
305,327,306,308,0
305,329,305,308,0
303,327,305,309,0
300,325,306,311,0
299,322,308,312,0
301,316,308,311,0
305,310,308,310,0
310,303,307,309,0
312,295,307,309,0
314,286,308,311,0
315,280,311,315,0
316,278,316,318,0
318,282,320,322,0
319,286,322,323,0
319,288,322,321,0
318,289,318,315,0
316,285,310,308,0
313,278,302,300,0
311,270,295,294,0
309,266,292,290,0
309,266,290,288,0
309,277,291,289,0
309,299,294,291,0
309,321,296,295,0
309,338,298,300,0
306,348,299,303,0
303,350,298,305,0
300,346,298,306,0
299,344,298,306,0
300,340,298,306,0
301,331,299,306,0
302,322,299,306,0
302,317,299,306,0
303,316,300,305,0
304,318,301,304,0
304,319,302,304,0
305,319,303,304,0
307,317,303,302,0
307,313,303,298,0
307,308,302,293,0
306,303,303,288,0
305,300,304,285,0
303,300,307,284,0
304,300,311,285,0
306,300,315,289,0
309,301,316,293,0
310,302,311,298,0
310,302,306,302,0
311,299,302,307,0
313,296,301,313,0
314,295,302,319,0
313,296,303,323,0
310,297,304,326,0
305,299,306,327,0
302,302,307,326,0
298,307,308,324,0
297,309,308,321,0
299,307,308,315,0
301,303,308,309,0
301,298,307,304,0
301,294,307,301,0
302,292,307,298,0
305,291,306,296,0
306,293,304,293,0
307,296,302,291,0
306,300,302,290,0
307,303,303,291,0
308,302,304,292,0
312,301,303,295,0
314,301,301,298,0
314,303,301,303,0
312,307,302,307,0
310,312,304,312,0
306,316,307,316,0
301,320,309,319,0
299,325,311,322,0
299,330,312,324,0
300,334,312,325,0
300,335,313,325,0
298,331,313,323,0
296,324,312,321,0
297,316,312,317,0
299,310,312,315,0
300,309,312,312,0
301,312,312,311,0
302,316,312,308,0
304,322,311,306,0
306,327,308,304,0
307,324,305,302,0
309,316,302,301,0
311,306,299,301,0
312,299,297,301,0
312,293,297,301,0
308,285,298,300,0
304,277,299,299,0
299,272,299,300,0
296,273,299,300,0
295,278,298,299,0
297,288,298,299,0
300,303,298,300,0
304,316,299,301,0
308,325,301,303,0
310,329,303,304,0
310,329,304,305,0
309,326,305,306,0
308,321,305,306,0
307,311,305,305,0
306,299,305,304,0
305,288,304,303,0
304,282,304,303,0
304,279,304,303,0
304,275,306,304,0
305,270,309,305,0
306,264,311,307,0
308,260,313,309,0
309,254,312,309,0
309,249,311,308,0
308,251,311,308,0
307,265,311,307,0
306,284,311,305,0
304,306,310,303,0
303,326,309,303,0
305,342,309,304,0
307,353,308,305,0
308,360,308,307,0
309,362,308,309,0
307,361,307,311,0
305,358,307,312,0
304,355,308,315,0
305,348,309,317,0
310,340,310,319,0
315,332,311,318,0
318,324,311,317,0
317,318,311,314,0
316,313,311,312,0
313,308,311,309,0
310,302,312,309,0
307,296,312,310,0
302,291,311,310,0
296,289,309,310,0
291,291,307,309,0
289,297,306,309,0
291,303,306,307,0
296,305,306,304,0
301,303,305,300,0
302,297,305,296,0
300,292,305,294,0
298,288,308,294,0
298,286,312,297,0
301,285,316,300,0
310,287,318,304,0
319,292,319,305,0
322,300,316,305,0
315,308,310,305,0
305,315,304,306,0
295,319,299,307,0
288,320,297,308,0
288,319,297,310,0
290,319,298,312,0
293,318,300,314,0
295,315,302,315,0
295,313,302,316,0
295,317,303,316,0
297,323,304,315,0
298,327,305,314,0
301,328,305,312,0
305,326,305,310,0
309,322,305,306,0
313,319,306,304,0
315,315,306,304,0
315,311,305,306,0
314,307,305,307,0
313,301,305,308,0
313,297,305,310,0
314,294,307,313,0
316,294,308,316,0
317,297,309,319,0
316,304,310,320,0
314,312,309,319,0
313,318,306,315,0
312,320,304,311,0
311,322,303,307,0
310,323,303,303,0
309,319,303,300,0
307,312,305,298,0
305,301,308,296,0
305,290,312,296,0
305,280,316,297,0
306,274,318,299,0
306,274,316,301,0
306,282,310,303,0
305,293,304,305,0
304,302,301,308,0
304,309,301,310,0
304,313,302,313,0
303,314,303,316,0
303,312,304,319,0
303,310,305,321,0
304,308,305,321,0
304,309,305,320,0
304,312,304,317,0
304,316,304,313,0
304,320,304,309,0
304,327,304,307,0
304,335,304,305,0
306,340,304,304,0
308,340,305,304,0
310,336,306,305,0
312,329,307,308,0
315,324,308,310,0
317,321,308,311,0
319,322,307,311,0
319,325,306,311,0
314,327,306,311,0
305,326,307,312,0
296,322,308,312,0
289,317,310,312,0
286,314,314,312,0
288,312,319,314,0
296,310,323,315,0
304,308,323,317,0
309,308,323,318,0
312,309,322,320,0
314,309,319,322,0
314,308,312,321,0
313,308,306,318,0
310,306,301,314,0
308,301,298,311,0
307,295,296,310,0
306,294,296,309,0
305,293,297,310,0
306,291,299,310,0
307,283,302,311,0
309,273,306,311,0
311,263,309,312,0
311,254,310,311,0
308,251,309,308,0
306,255,309,304,0
307,266,307,301,0
309,278,306,300,0
311,294,305,300,0
312,311,305,300,0
311,324,304,299,0
311,332,304,298,0
310,336,304,297,0
310,337,303,298,0
312,336,303,299,0
313,333,303,300,0
313,328,302,300,0
312,324,303,301,0
311,320,303,302,0
310,318,304,304,0
309,315,306,305,0
309,315,307,307,0
309,320,308,309,0
309,327,309,310,0
309,333,309,311,0
308,336,309,312,0
306,338,309,311,0
303,339,309,310,0
299,340,309,307,0
297,341,308,304,0
298,341,307,301,0
299,341,305,299,0
299,339,304,298,0
299,335,302,297,0
301,327,300,297,0
306,317,300,300,0
312,308,303,305,0
318,301,305,307,0
321,297,305,308,0
318,293,305,309,0
313,291,306,309,0
311,291,309,308,0
312,294,312,307,0
315,300,314,307,0
316,304,316,309,0
314,302,317,311,0
313,299,318,313,0
312,300,317,314,0
312,305,317,314,0
313,312,316,315,0
314,315,314,316,0
314,315,313,316,0
314,314,311,316,0
311,313,311,315,0
309,313,311,315,0
307,316,310,314,0
306,319,310,315,0
307,320,309,315,0
308,320,307,314,0
309,318,305,313,0
309,315,304,312,0
310,311,304,311,0
310,309,304,312,0
309,308,306,314,0
308,307,307,316,0
306,304,308,317,0
304,300,308,317,0
304,295,308,316,0
303,289,307,314,0
302,284,307,312,0
299,276,307,309,0
296,270,306,305,0
294,267,306,301,0
292,270,307,297,0
292,275,306,294,0
294,283,305,290,0
299,297,303,289,0
305,309,302,289,0
310,313,301,291,0
313,313,303,295,0
315,311,305,298,0
317,308,308,302,0
317,307,311,306,0
311,308,314,308,0
301,310,317,310,0
294,314,320,310,0
293,320,323,308,0
298,326,325,307,0
304,331,324,305,0
309,331,318,303,0
310,331,310,301,0
310,332,303,300,0
310,331,300,301,0
311,329,299,302,0
313,324,298,302,0
315,319,297,303,0
318,316,297,304,0
320,315,298,304,0
320,314,299,304,0
318,313,301,305,0
315,312,303,305,0
314,310,306,305,0
313,308,309,306,0
314,308,313,308,0
314,310,315,310,0
314,310,316,311,0
314,307,315,313,0
314,304,312,314,0
313,301,308,315,0
314,298,306,316,0
315,297,304,315,0
315,300,304,315,0
315,305,304,315,0
314,311,305,315,0
313,315,305,315,0
312,315,304,314,0
312,312,304,312,0
310,307,304,310,0
308,301,305,309,0
306,296,307,308,0
304,293,309,307,0
306,291,311,308,0
307,285,313,307,0
307,276,314,307,0
307,271,314,306,0
307,271,315,306,0
307,271,316,305,0
307,267,315,303,0
306,262,313,300,0
302,261,309,297,0
299,265,306,295,0
298,265,303,293,0
298,259,301,292,0
300,257,300,291,0
303,262,301,291,0
308,267,303,294,0
314,274,307,297,0
320,286,310,300,0
324,303,311,304,0
326,319,310,307,0
327,331,310,311,0
326,337,310,314,0
328,340,311,317,0
329,342,311,317,0
332,342,310,315,0
333,342,309,314,0
329,342,309,313,0
323,342,310,312,0
314,340,311,310,0
303,337,312,308,0
292,334,312,307,0
288,330,312,306,0
289,327,311,306,0
293,323,310,306,0
297,319,308,308,0
301,317,307,309,0
304,315,306,311,0
306,313,305,312,0
308,312,305,311,0
309,311,305,309,0
310,310,306,307,0
310,310,306,305,0
311,310,307,304,0
311,311,307,301,0
310,312,307,298,0
309,313,306,297,0
309,314,306,296,0
308,314,306,297,0
307,314,306,298,0
305,314,306,299,0
302,314,307,301,0
298,314,307,303,0
297,314,308,306,0
300,312,310,307,0
306,310,312,308,0
309,306,314,309,0
307,304,314,310,0
301,302,314,311,0
295,299,313,310,0
293,293,310,308,0
295,289,305,303,0
298,289,299,298,0
298,291,296,293,0
298,288,298,288,0
299,281,302,287,0
304,277,307,288,0
309,274,310,293,0
312,271,311,298,0
316,272,312,304,0
317,278,312,308,0
318,290,311,310,0
317,303,310,310,0
316,314,308,308,0
314,321,305,306,0
311,324,303,306,0
309,324,301,308,0
307,324,301,313,0
307,323,300,317,0
307,322,300,322,0
308,321,302,326,0
309,323,303,328,0
308,327,305,328,0
306,331,307,326,0
304,333,309,321,0
303,329,309,316,0
303,320,309,313,0
303,309,308,311,0
303,301,307,308,0
302,297,307,306,0
303,297,307,303,0
303,296,306,301,0
302,296,305,298,0
300,294,304,296,0
298,291,302,293,0
297,288,302,290,0
295,284,301,290,0
295,284,301,291,0
296,290,303,294,0
299,300,306,297,0
304,308,310,300,0
309,311,314,302,0
312,310,318,303,0
313,309,322,305,0
314,309,325,307,0
313,309,325,309,0
308,313,321,310,0
302,320,314,310,0
298,326,308,309,0
296,328,304,308,0
294,329,302,307,0
293,328,301,306,0
292,329,300,304,0
294,331,301,301,0
297,330,302,297,0
302,324,302,294,0
309,316,303,292,0
313,308,303,293,0
311,303,305,294,0
307,302,306,297,0
305,303,307,300,0
305,306,306,302,0
306,308,305,305,0
307,307,304,308,0
308,305,305,312,0
307,304,307,315,0
306,306,307,318,0
304,309,307,319,0
303,312,306,316,0
301,315,306,312,0
298,319,305,307,0
294,322,304,304,0
290,323,304,302,0
289,320,304,301,0
291,313,304,301,0
293,305,304,300,0
294,299,304,299,0
295,295,304,299,0
297,293,305,298,0
298,295,307,299,0
300,299,311,302,0
302,303,316,307,0
303,305,319,311,0
304,305,319,314,0
304,302,317,316,0
303,296,313,317,0
303,288,307,315,0
306,281,302,313,0
310,284,299,312,0
312,294,297,311,0
313,305,297,309,0
312,310,298,307,0
309,307,300,305,0
305,300,301,304,0
303,293,302,301,0
302,287,303,298,0
303,284,303,296,0
303,281,303,294,0
301,278,303,294,0
300,277,304,295,0
301,279,304,298,0
302,283,305,300,0
304,289,306,302,0
305,297,308,302,0
306,308,308,303,0
307,320,308,303,0
309,328,308,303,0
309,333,308,302,0
309,335,306,301,0
308,336,305,299,0
308,336,304,297,0
307,336,304,295,0
307,337,304,295,0
310,336,305,296,0
313,333,305,297,0
312,329,304,297,0
309,323,304,299,0
305,319,303,301,0
304,317,304,303,0
304,318,304,305,0
306,321,304,308,0
307,325,303,310,0
307,326,304,313,0
307,322,307,315,0
307,316,310,313,0
308,310,313,310,0
311,306,316,307,0
316,306,317,303,0
319,309,317,300,0
318,314,317,296,0
314,319,313,292,0
309,321,306,289,0
307,321,300,287,0
307,318,295,286,0
309,314,293,286,0
313,306,293,287,0
317,295,294,288,0
315,284,296,291,0
311,275,298,294,0
306,266,300,297,0
302,256,301,301,0
300,253,303,305,0
298,256,304,308,0
298,264,304,311,0
299,275,305,313,0
300,285,306,313,0
300,292,306,311,0
301,297,307,308,0
301,298,309,306,0
300,303,311,303,0
299,310,311,302,0
300,318,311,301,0
302,327,310,301,0
302,331,309,301,0
300,325,307,300,0
297,318,303,300,0
297,313,300,300,0
301,313,299,302,0
306,317,300,305,0
309,323,301,308,0
312,328,302,310,0
313,330,303,313,0
313,329,303,316,0
312,326,304,319,0
310,321,305,320,0
308,314,307,320,0
306,308,307,317,0
304,301,307,316,0
304,297,307,314,0
304,298,306,313,0
304,303,306,310,0
304,310,305,307,0
305,321,304,304,0
305,330,303,302,0
304,333,303,300,0
304,331,303,300,0
304,326,303,301,0
307,320,303,301,0
310,316,303,302,0
313,314,303,303,0
315,311,304,305,0
314,308,306,306,0
308,303,308,306,0
302,297,310,307,0
297,291,312,308,0
298,283,314,308,0
304,275,315,307,0
307,270,313,305,0
306,271,309,301,0
303,276,305,298,0
301,286,304,296,0
301,295,305,297,0
302,304,308,300,0
303,312,312,302,0
301,316,315,303,0
298,313,315,302,0
294,301,310,300,0
293,283,304,298,0
295,267,299,298,0
299,258,297,299,0
302,259,297,300,0
305,270,298,302,0
307,283,298,305,0
307,296,301,307,0
307,307,303,308,0
306,318,305,309,0
307,326,306,311,0
308,327,306,312,0
307,326,305,314,0
307,325,305,314,0
306,329,304,313,0
306,333,304,310,0
306,335,304,307,0
306,334,305,303,0
306,332,305,299,0
306,329,305,296,0
308,326,305,293,0
310,325,304,293,0
312,324,303,292,0
313,323,300,293,0
314,320,300,299,0
314,316,302,307,0
316,306,305,315,0
315,295,306,320,0
313,287,308,322,0
309,286,310,322,0
305,287,311,320,0
302,288,310,318,0
301,284,308,314,0
299,277,306,309,0
297,269,304,303,0
295,266,303,298,0
294,271,301,295,0
294,283,300,295,0
295,298,301,295,0
297,311,301,297,0
298,322,302,301,0
301,328,303,308,0
303,327,305,316,0
305,322,307,322,0
307,318,308,327,0
309,314,310,329,0
310,311,311,328,0
310,309,312,324,0
310,307,312,318,0
307,305,312,311,0
305,303,312,305,0
302,300,313,301,0
301,296,313,298,0
300,292,311,296,0
294,291,309,295,0
288,291,307,297,0
290,292,306,302,0
300,294,306,306,0
310,297,306,309,0
315,297,306,308,0
315,298,306,307,0
312,303,306,305,0
310,309,307,305,0
308,313,307,305,0
307,317,308,305,0
307,320,309,305,0
306,324,310,307,0
306,326,311,308,0
306,326,312,311,0
305,325,312,313,0
303,322,312,316,0
299,320,310,317,0
293,320,308,316,0
289,323,306,314,0
288,328,305,312,0
292,326,306,310,0
299,316,307,308,0
306,300,309,305,0
310,283,309,301,0
312,267,308,297,0
314,254,307,295,0
319,248,308,295,0
325,255,313,298,0
331,274,320,302,0
336,298,324,304,0
334,318,325,307,0
325,328,321,309,0
315,330,314,310,0
306,326,307,311,0
301,320,302,311,0
298,314,301,311,0
297,306,301,310,0
296,300,301,309,0
296,303,300,308,0
297,310,299,307,0
299,315,299,307,0
301,314,299,305,0
300,311,299,303,0
297,307,299,301,0
295,305,299,299,0
296,304,299,297,0
299,304,300,297,0
304,306,301,297,0
308,308,302,299,0
308,308,304,300,0
307,305,305,302,0
305,302,306,304,0
304,300,307,306,0
302,300,307,307,0
299,302,305,307,0
294,306,303,307,0
288,314,301,307,0
283,323,300,309,0
284,333,300,311,0
289,340,301,312,0
293,341,303,312,0
296,338,304,310,0
298,335,306,307,0
299,331,308,306,0
301,321,312,306,0
304,308,316,307,0
309,295,319,308,0
315,287,319,310,0
319,281,316,310,0
320,276,312,310,0
321,275,309,311,0
322,279,307,312,0
327,287,306,312,0
332,294,305,311,0
336,301,304,309,0
333,310,303,306,0
322,320,304,304,0
310,326,305,302,0
301,325,305,301,0
298,322,307,302,0
300,316,308,303,0
304,304,309,306,0
307,290,309,312,0
310,282,308,318,0
312,289,307,324,0
315,305,304,327,0
316,317,302,327,0
315,322,300,324,0
310,320,300,319,0
305,317,300,314,0
301,312,301,310,0
299,306,301,306,0
298,300,303,302,0
298,298,303,299,0
300,305,303,296,0
302,316,304,295,0
302,325,304,294,0
301,328,304,293,0
300,322,304,293,0
305,308,303,294,0
314,290,303,295,0
325,274,303,294,0
331,259,306,293,0
325,252,310,290,0
312,252,314,288,0
299,259,319,286,0
291,274,321,287,0
289,291,318,290,0
292,302,312,293,0
296,306,305,295,0
299,303,299,296,0
303,295,295,297,0
306,286,294,299,0
311,282,295,302,0
320,287,298,303,0
328,292,300,304,0
328,294,301,303,0
320,297,301,303,0
311,306,299,303,0
305,322,299,304,0
302,334,301,305,0
300,334,305,305,0
299,322,311,304,0
298,304,316,303,0
299,287,317,303,0
301,271,314,305,0
304,262,311,307,0
307,267,308,309,0
310,284,305,310,0
313,302,303,311,0
314,316,301,311,0
314,324,298,312,0
314,327,297,312,0
314,325,298,313,0
317,318,302,313,0
322,305,305,312,0
325,289,307,310,0
319,276,306,307,0
308,270,305,304,0
300,268,304,300,0
297,272,302,298,0
297,284,301,297,0
297,298,302,298,0
295,310,302,298,0
295,318,302,299,0
295,326,302,301,0
296,332,302,303,0
297,335,302,305,0
299,337,303,308,0
302,339,305,312,0
305,343,308,316,0
306,344,311,321,0
302,341,312,324,0
295,334,311,324,0
288,330,308,322,0
283,330,306,316,0
281,331,305,309,0
280,330,305,304,0
282,325,303,300,0
283,318,303,298,0
286,310,303,299,0
294,301,305,300,0
303,294,307,301,0
310,294,311,301,0
314,300,314,301,0
315,311,316,301,0
316,325,315,302,0
315,335,311,304,0
314,339,307,307,0
316,338,305,311,0
320,336,306,314,0
322,333,306,316,0
320,331,306,316,0
316,329,306,315,0
312,329,305,312,0
309,327,304,310,0
306,318,304,308,0
304,299,303,306,0
302,277,303,306,0
301,260,304,306,0
302,252,305,308,0
304,249,306,312,0
306,252,308,316,0
306,260,309,318,0
307,273,309,319,0
306,287,308,318,0
306,301,306,316,0
305,313,305,313,0
305,319,304,312,0
306,318,305,312,0
307,313,307,314,0
308,305,308,316,0
307,299,310,319,0
307,297,314,320,0
308,301,318,320,0
311,310,322,319,0
315,322,326,316,0
318,330,329,314,0
321,335,330,312,0
319,337,327,310,0
314,337,320,309,0
308,332,311,307,0
302,325,303,305,0
298,316,299,303,0
296,304,297,301,0
295,291,297,300,0
296,281,298,301,0
296,277,299,303,0
297,281,300,305,0
297,289,302,308,0
299,301,304,311,0
301,317,306,313,0
304,332,307,314,0
308,341,308,312,0
310,345,308,309,0
309,345,307,305,0
307,345,307,302,0
305,345,307,299,0
304,344,306,298,0
305,341,306,297,0
307,334,305,298,0
307,324,304,298,0
305,315,302,297,0
303,307,301,296,0
301,301,299,295,0
299,297,298,293,0
301,294,298,292,0
304,293,297,292,0
309,293,298,291,0
315,293,299,292,0
314,294,301,293,0
304,297,303,295,0
293,303,307,298,0
285,307,311,300,0
282,309,315,301,0
282,303,317,302,0
282,290,318,303,0
283,276,317,305,0
286,267,313,306,0
294,271,311,309,0
304,285,309,311,0
316,299,308,311,0
327,309,305,308,0
331,313,304,304,0
326,312,304,301,0
318,309,305,300,0
312,307,307,301,0
308,309,308,304,0
306,316,308,306,0
306,324,309,308,0
305,330,310,309,0
303,333,310,310,0
302,337,311,310,0
300,341,313,309,0
298,348,313,308,0
297,355,312,306,0
296,361,310,303,0
295,363,308,300,0
294,356,308,299,0
295,343,309,300,0
296,322,311,302,0
298,298,312,305,0
299,280,312,308,0
300,268,311,311,0
301,264,309,312,0
302,269,306,312,0
303,284,304,311,0
305,301,302,312,0
307,314,301,313,0
309,320,300,313,0
311,321,302,313,0
313,319,305,314,0
311,312,308,313,0
307,301,309,311,0
302,287,309,307,0
297,275,308,305,0
293,267,308,304,0
292,264,307,304,0
294,270,307,304,0
297,289,305,304,0
299,315,304,304,0
298,338,303,303,0
297,351,303,302,0
295,352,303,301,0
294,345,303,300,0
294,335,303,299,0
296,323,304,299,0
298,313,304,300,0
301,309,305,303,0
303,310,306,306,0
303,311,307,309,0
298,312,307,310,0
292,311,310,312,0
290,312,314,314,0
293,316,320,316,0
297,321,326,318,0
300,323,330,320,0
300,324,332,323,0
301,324,329,326,0
304,325,323,329,0
309,328,316,330,0
313,329,312,330,0
313,326,308,327,0
311,323,304,323,0
308,319,302,320,0
306,311,300,317,0
305,304,299,314,0
306,299,299,312,0
307,299,299,311,0
309,301,300,311,0
310,305,301,311,0
310,311,304,312,0
309,318,306,313,0
308,322,308,313,0
307,324,309,313,0
307,324,309,313,0
308,323,309,314,0
308,320,307,314,0
309,315,306,313,0
310,307,305,312,0
312,295,305,309,0
313,281,305,306,0
309,270,306,302,0
299,262,307,296,0
290,257,307,290,0
285,257,308,286,0
286,267,308,283,0
291,281,306,283,0
296,290,305,284,0
301,296,303,286,0
304,302,301,290,0
307,310,301,295,0
309,319,301,299,0
310,326,301,303,0
310,332,302,306,0
310,336,302,310,0
308,340,304,313,0
306,342,306,314,0
303,340,307,315,0
300,338,306,314,0
299,337,304,314,0
300,336,304,313,0
301,334,304,310,0
300,329,305,308,0
298,320,306,307,0
297,313,308,307,0
299,309,311,308,0
303,308,312,308,0
308,310,310,308,0
309,310,308,308,0
309,306,305,309,0
307,300,304,310,0
305,294,304,311,0
303,288,303,311,0
304,282,301,309,0
309,281,299,309,0
316,286,298,310,0
325,291,299,313,0
330,293,302,314,0
330,293,303,314,0
322,292,304,312,0
309,294,303,309,0
299,296,302,307,0
293,300,302,306,0
290,307,302,306,0
291,318,302,308,0
295,329,301,312,0
299,335,301,316,0
303,335,302,318,0
305,333,303,319,0
305,331,305,319,0
303,330,306,320,0
300,328,307,317,0
296,326,306,313,0
293,324,306,310,0
294,323,306,308,0
297,322,306,306,0
298,321,305,306,0
297,319,303,305,0
296,314,300,303,0
294,306,299,301,0
293,298,299,299,0
294,289,300,298,0
297,279,301,297,0
299,268,302,296,0
302,266,305,297,0
306,274,309,300,0
308,287,314,303,0
310,298,317,305,0
311,306,317,306,0
310,311,313,306,0
307,312,308,307,0
304,311,304,309,0
303,309,303,312,0
305,308,304,314,0
309,305,304,314,0
310,300,301,313,0
309,294,299,311,0
307,286,297,308,0
305,274,295,305,0
303,263,294,302,0
301,258,294,299,0
302,259,295,297,0
304,266,296,296,0
305,278,297,297,0
307,297,300,300,0
309,316,302,306,0
310,326,303,312,0
312,329,304,317,0
313,326,306,322,0
315,322,310,326,0
320,319,313,330,0
322,320,316,332,0
318,325,317,334,0
309,333,317,332,0
300,342,313,329,0
295,350,309,324,0
293,357,304,319,0
294,359,302,316,0
296,351,300,313,0
300,332,299,311,0
304,312,299,309,0
308,296,298,306,0
312,288,297,304,0
314,283,296,302,0
315,278,294,301,0
315,274,293,300,0
314,273,293,301,0
313,277,293,302,0
312,286,295,302,0
311,295,296,302,0
310,300,298,301,0
309,302,300,300,0
307,300,301,298,0
302,294,298,296,0
298,286,296,297,0
297,278,297,298,0
302,272,301,299,0
308,270,306,300,0
310,270,309,299,0
309,274,310,298,0
308,287,308,298,0
310,304,306,299,0
313,317,304,302,0
317,324,302,304,0
316,326,302,308,0
310,326,304,311,0
306,323,307,313,0
307,320,311,314,0
311,318,312,315,0
313,317,312,317,0
309,315,311,317,0
303,312,308,316,0
297,307,305,313,0
294,300,302,311,0
295,291,300,309,0
300,287,298,308,0
310,290,297,310,0
320,300,295,311,0
324,311,294,311,0
320,322,294,310,0
311,332,293,308,0
303,337,293,306,0
300,338,293,303,0
299,336,293,301,0
299,332,293,299,0
299,324,294,299,0
300,317,296,299,0
301,312,298,301,0
303,309,300,303,0
305,308,303,305,0
308,309,307,307,0
311,312,309,311,0
313,313,311,314,0
313,314,311,316,0
310,313,311,316,0
305,312,309,315,0
300,310,306,313,0
294,306,304,311,0
289,297,303,309,0
286,285,302,306,0
285,278,301,303,0
290,278,302,301,0
298,284,303,301,0
305,292,306,302,0
306,301,311,305,0
304,309,316,310,0
303,315,319,314,0
302,317,319,318,0
301,316,315,320,0
300,313,309,321,0
299,309,304,321,0
300,306,302,321,0
303,303,302,320,0
305,301,301,315,0
307,300,301,310,0
308,301,301,306,0
310,301,300,304,0
311,296,300,304,0
313,291,300,305,0
315,293,300,305,0
315,302,299,306,0
314,309,298,305,0
313,311,296,304,0
312,312,296,303,0
316,314,297,302,0
321,317,299,302,0
325,318,301,301,0
327,316,303,299,0
327,311,304,297,0
325,304,306,296,0
321,298,308,296,0
317,295,310,296,0
313,293,313,296,0
310,295,316,295,0
308,300,316,293,0
306,305,313,291,0
305,309,309,290,0
303,313,305,291,0
302,316,301,292,0
301,320,299,294,0
302,323,298,294,0
305,326,298,294,0
312,327,297,294,0
313,326,297,295,0
309,319,297,296,0
306,310,298,299,0
305,302,299,302,0
306,297,300,306,0
307,296,301,309,0
308,296,302,312,0
308,300,303,314,0
309,310,304,316,0
309,323,305,318,0
310,332,307,319,0
309,329,310,318,0
309,314,312,316,0
307,295,313,313,0
307,280,314,311,0
308,273,314,310,0
308,274,313,309,0
308,280,309,306,0
308,288,305,304,0
309,297,302,303,0
310,302,299,301,0
312,303,297,302,0
313,297,296,303,0
314,285,296,305,0
316,272,297,307,0
317,261,299,308,0
315,254,300,306,0
309,256,302,304,0
304,269,305,305,0
304,289,308,309,0
306,307,311,312,0
309,320,314,315,0
311,330,317,316,0
311,337,319,315,0
310,341,320,314,0
308,341,318,312,0
306,335,313,310,0
303,325,306,309,0
300,313,301,309,0
298,302,298,308,0
297,293,297,308,0
298,296,296,309,0
300,308,296,312,0
302,319,296,314,0
302,326,297,315,0
301,330,299,317,0
300,332,302,317,0
299,332,305,317,0
301,331,306,316,0
304,328,306,316,0
307,326,305,316,0
312,326,306,316,0
317,328,308,316,0
320,331,310,315,0
321,332,312,312,0
321,326,311,308,0
320,315,310,304,0
317,309,308,301,0
311,308,306,298,0
305,307,304,296,0
299,307,302,296,0
295,305,302,297,0
293,300,301,297,0
293,294,300,298,0
295,290,300,299,0
298,287,301,300,0
305,283,303,300,0
314,277,304,300,0
321,272,305,300,0
326,271,306,300,0
329,277,308,303,0
330,288,311,306,0
328,298,313,311,0
325,307,314,314,0
322,314,314,315,0
321,318,313,314,0
315,319,312,312,0
307,318,312,311,0
302,314,311,309,0
299,310,308,307,0
299,306,304,305,0
298,304,302,303,0
299,304,300,302,0
301,306,300,302,0
303,310,300,302,0
305,312,301,302,0
306,312,302,300,0
306,310,302,298,0
306,305,302,298,0
306,298,303,300,0
304,292,304,303,0
303,285,305,306,0
302,281,306,307,0
302,280,306,306,0
302,285,304,304,0
300,297,302,302,0
296,313,300,300,0
291,328,299,299,0
289,339,299,299,0
291,348,300,300,0
296,350,301,301,0
302,343,302,302,0
305,329,303,302,0
306,315,303,303,0
308,306,304,304,0
309,301,304,305,0
309,302,307,306,0
309,307,309,309,0
308,311,312,312,0
304,310,314,312,0
299,303,314,310,0
294,295,314,308,0
293,288,314,307,0
294,286,313,306,0
296,290,311,305,0
301,297,309,306,0
309,304,308,307,0
316,309,307,309,0
321,314,306,311,0
321,318,304,312,0
318,319,303,311,0
312,316,303,310,0
307,312,302,307,0
302,311,302,305,0
300,312,301,304,0
298,312,301,304,0
298,308,300,305,0
299,299,301,305,0
302,287,303,305,0
306,279,304,304,0
308,277,306,304,0
310,281,307,304,0
312,287,308,305,0
312,294,308,304,0
312,303,308,303,0
310,311,306,300,0
308,317,305,298,0
305,320,305,298,0
301,321,306,298,0
300,319,306,299,0
302,315,306,299,0
304,306,308,299,0
305,296,309,298,0
306,287,309,298,0
306,281,310,298,0
308,276,311,300,0
310,271,313,303,0
311,267,315,305,0
308,263,314,306,0
304,262,312,306,0
304,268,310,308,0
312,282,310,310,0
320,300,310,313,0
323,317,309,315,0
322,328,307,315,0
320,332,305,316,0
318,330,303,315,0
317,327,303,315,0
317,326,303,315,0
316,326,304,313,0
314,324,304,310,0
313,319,304,307,0
311,310,303,303,0
310,300,301,302,0
311,291,299,301,0
312,286,298,302,0
312,286,299,303,0
310,289,301,305,0
308,298,305,306,0
306,307,308,308,0
304,314,310,309,0
302,318,311,311,0
300,320,311,312,0
299,320,310,313,0
299,320,309,313,0
300,319,308,314,0
300,315,307,315,0
298,307,306,316,0
292,300,306,315,0
290,296,304,313,0
294,293,302,309,0
307,293,300,305,0
327,294,299,302,0
342,295,299,299,0
344,295,299,298,0
334,295,300,299,0
322,297,301,302,0
312,303,305,305,0
306,311,309,307,0
304,317,312,309,0
304,319,314,309,0
306,319,314,310,0
307,318,313,312,0
308,319,312,314,0
308,321,309,316,0
308,322,306,318,0
307,315,302,319,0
305,301,299,318,0
302,286,297,317,0
300,273,296,316,0
298,265,295,314,0
298,259,295,313,0
301,264,296,312,0
305,279,297,312,0
310,294,299,314,0
313,300,302,316,0
315,297,306,317,0
316,292,307,318,0
317,293,307,317,0
316,299,307,315,0
314,308,310,313,0
313,319,317,311,0
311,329,322,307,0
309,336,327,303,0
305,339,329,300,0
303,340,328,299,0
305,337,321,300,0
307,332,312,299,0
308,328,302,298,0
309,324,296,296,0
309,320,292,295,0
309,317,291,294,0
308,315,290,294,0
307,314,292,296,0
308,310,294,299,0
309,306,297,303,0
310,303,299,306,0
311,298,300,309,0
312,294,300,311,0
311,290,300,312,0
310,288,300,313,0
307,291,301,314,0
305,297,301,314,0
304,304,303,313,0
307,308,305,313,0
314,310,306,311,0
317,309,306,309,0
315,305,305,305,0
311,297,303,301,0
309,291,303,299,0
309,294,303,298,0
310,302,303,298,0
308,310,303,298,0
306,313,303,298,0
304,316,303,298,0
304,319,303,298,0
305,322,304,299,0
305,323,304,300,0
306,322,306,302,0
305,319,306,303,0
303,316,307,305,0
302,314,307,307,0
299,314,306,308,0
297,314,304,309,0
297,314,301,310,0
300,313,301,312,0
306,310,303,312,0
311,306,306,311,0
313,303,308,308,0
311,300,310,305,0
308,294,310,304,0
306,287,308,303,0
303,277,304,304,0
302,268,301,305,0
300,263,299,308,0
299,265,298,312,0
299,272,299,313,0
297,279,301,313,0
297,291,304,313,0
297,308,307,315,0
296,325,308,317,0
295,331,309,318,0
297,329,309,318,0
300,325,309,317,0
302,319,308,315,0
302,314,308,313,0
302,312,306,309,0
302,316,306,306,0
305,322,306,304,0
311,328,307,304,0
315,332,306,305,0
318,334,306,305,0
318,333,306,306,0
317,334,307,307,0
317,334,308,309,0
316,335,310,311,0
316,336,310,314,0
315,337,309,316,0
314,334,306,319,0
311,327,304,321,0
308,320,301,322,0
306,314,300,320,0
305,312,298,318,0
305,309,299,316,0
304,307,300,314,0
306,307,302,313,0
308,309,301,310,0
309,308,299,305,0
310,300,297,300,0
310,288,296,297,0
309,279,296,295,0
307,275,297,294,0
305,275,297,293,0
304,278,298,293,0
305,284,298,296,0
309,292,299,301,0
314,298,300,306,0
319,300,301,309,0
321,299,301,311,0
316,297,303,311,0
310,295,304,310,0
305,298,306,309,0
303,306,308,309,0
302,317,308,311,0
302,327,309,313,0
302,334,309,316,0
301,337,309,318,0
301,336,309,318,0
301,333,309,316,0
301,325,309,315,0
302,312,310,313,0
303,300,311,312,0
304,292,311,310,0
306,291,311,309,0
308,295,311,307,0
308,302,309,304,0
309,309,308,302,0
308,314,306,302,0
307,320,304,301,0
306,325,303,301,0
307,328,303,300,0
306,329,302,298,0
305,326,301,296,0
304,316,301,295,0
303,305,301,295,0
304,299,302,296,0
305,298,303,298,0
305,298,304,300,0
300,299,305,301,0
293,301,304,301,0
288,304,303,300,0
290,306,303,301,0
297,306,303,302,0
306,305,304,304,0
313,305,305,305,0
317,305,306,307,0
319,298,307,310,0
320,289,307,313,0
319,284,308,313,0
318,290,308,312,0
315,305,309,310,0
313,320,310,308,0
311,330,313,307,0
311,333,316,306,0
310,326,319,306,0
309,315,320,305,0
307,303,317,304,0
305,296,312,304,0
306,295,309,303,0
306,297,305,302,0
306,302,302,301,0
306,309,300,301,0
307,314,298,302,0
309,307,299,303,0
312,283,301,306,0
313,252,304,308,0
312,228,310,309,0
310,225,317,312,0
311,237,323,314,0
311,255,325,315,0
309,275,321,317,0
306,284,314,317,0
302,287,308,315,0
299,298,305,312,0
297,314,304,309,0
295,326,304,307,0
295,335,307,306,0
296,341,309,307,0
298,345,310,308,0
300,349,309,310,0
302,352,308,312,0
305,352,305,313,0
308,351,303,314,0
311,345,302,315,0
313,330,301,316,0
314,313,304,317,0
313,306,307,320,0
310,307,309,321,0
306,308,310,319,0
303,306,308,314,0
301,300,307,308,0
301,293,307,303,0
303,288,308,301,0
307,280,307,300,0
310,269,305,298,0
311,263,303,296,0
315,268,300,294,0
319,279,299,294,0
321,292,299,293,0
319,298,301,292,0
317,297,303,291,0
315,288,306,292,0
307,280,309,293,0
299,274,311,296,0
295,275,311,300,0
295,281,311,304,0
296,288,312,308,0
297,298,314,310,0
299,311,315,312,0
303,323,313,315,0
307,332,311,318,0
311,338,310,320,0
314,344,310,322,0
315,348,309,322,0
315,349,309,322,0
315,346,309,321,0
314,341,309,319,0
313,335,309,315,0
313,329,308,311,0
312,323,307,307,0
311,316,306,304,0
310,308,304,300,0
310,303,303,298,0
309,300,302,297,0
310,299,303,299,0
309,299,306,302,0
310,297,308,305,0
311,297,310,309,0
312,303,311,311,0
310,314,313,312,0
305,332,315,311,0
300,351,317,310,0
297,366,320,308,0
294,373,320,305,0
294,368,315,304,0
295,355,308,305,0
297,339,304,309,0
301,324,303,314,0
305,311,305,320,0
309,301,309,326,0
312,296,312,330,0
314,300,313,332,0
314,307,311,330,0
314,313,308,325,0
314,315,305,316,0
314,313,302,303,0
314,308,299,292,0
313,302,297,284,0
313,295,297,282,0
310,289,298,282,0
309,285,299,285,0
308,285,300,288,0
307,288,301,290,0
304,295,303,291,0
299,303,304,291,0
296,307,305,292,0
292,305,305,293,0
289,301,305,294,0
288,300,305,295,0
289,299,304,296,0
290,297,303,295,0
291,292,302,295,0
293,288,302,295,0
296,286,303,298,0
300,295,304,303,0
305,308,306,308,0
308,320,308,311,0
309,327,310,314,0
308,329,313,315,0
308,329,314,315,0
306,328,315,313,0
305,329,315,311,0
304,329,314,309,0
304,328,310,307,0
303,327,305,305,0
302,330,301,304,0
300,336,299,302,0
297,345,299,302,0
293,351,300,302,0
289,350,303,303,0
289,347,305,306,0
296,340,307,310,0
304,329,308,312,0
304,313,307,314,0
298,297,305,313,0
293,282,303,311,0
292,267,302,308,0
295,253,302,303,0
303,242,304,300,0
315,239,306,298,0
326,250,306,300,0
334,272,306,304,0
336,295,306,308,0
328,316,305,311,0
317,334,306,311,0
308,346,306,311,0
301,354,306,310,0
300,355,308,311,0
301,351,310,312,0
302,344,312,314,0
302,337,313,315,0
302,332,313,316,0
303,328,313,317,0
303,324,311,317,0
303,323,309,316,0
302,329,306,316,0
302,334,305,314,0
301,332,304,313,0
300,326,304,311,0
300,320,304,309,0
300,317,305,308,0
302,310,306,307,0
303,301,306,309,0
305,291,307,311,0
307,285,307,312,0
309,281,307,313,0
308,279,307,314,0
305,286,309,315,0
303,301,312,317,0
302,320,315,317,0
301,334,317,318,0
301,344,319,318,0
301,346,320,318,0
300,343,318,319,0
300,335,311,319,0
300,324,305,316,0
301,315,300,312,0
302,311,298,307,0
302,313,298,304,0
302,323,299,303,0
302,334,301,303,0
302,337,304,303,0
303,331,305,304,0
302,324,307,305,0
303,321,307,306,0
304,321,307,306,0
304,320,307,303,0
304,318,305,300,0
303,314,301,296,0
302,309,298,292,0
302,303,295,289,0
303,295,294,287,0
306,288,295,286,0
308,282,297,287,0
310,281,300,289,0
310,288,301,291,0
310,297,301,293,0
309,304,299,296,0
308,308,298,298,0
307,308,299,300,0
308,305,301,302,0
308,301,302,305,0
307,296,304,308,0
307,297,308,313,0
308,304,311,318,0
309,315,312,324,0
308,327,311,328,0
308,336,309,332,0
308,340,308,334,0
308,340,306,335,0
305,336,305,332,0
300,330,303,328,0
294,325,302,323,0
290,319,301,318,0
290,311,302,313,0
297,300,303,308,0
308,286,305,304,0
320,273,308,300,0
323,262,311,295,0
315,254,309,289,0
301,247,304,281,0
287,242,298,273,0
279,244,294,270,0
280,256,293,273,0
284,276,294,281,0
289,298,297,290,0
292,319,300,299,0
295,335,304,305,0
299,345,306,309,0
306,350,305,311,0
314,351,304,312,0
319,349,303,313,0
320,345,301,315,0
318,340,301,317,0
314,336,302,319,0
308,332,303,319,0
306,328,305,320,0
306,323,306,321,0
307,317,308,322,0
308,312,309,322,0
307,308,309,322,0
306,306,311,320,0
305,304,312,317,0
304,305,313,314,0
302,308,314,310,0
301,314,315,307,0
300,321,314,304,0
299,326,312,301,0
301,325,308,298,0
305,320,303,295,0
311,311,299,294,0
317,300,298,293,0
320,289,297,292,0
314,280,297,293,0
302,276,297,294,0
292,280,298,297,0
288,294,300,303,0
290,311,302,309,0
296,322,304,314,0
302,329,305,316,0
307,333,307,318,0
312,338,311,318,0
315,343,312,318,0
315,346,311,316,0
311,345,309,314,0
305,341,307,311,0
299,333,306,306,0
293,320,303,303,0
289,305,302,300,0
285,292,300,298,0
285,279,299,297,0
290,269,300,297,0
297,269,303,300,0
304,285,305,304,0
309,302,307,310,0
310,312,307,315,0
309,318,307,319,0
308,320,308,323,0
307,322,307,325,0
306,323,306,326,0
304,323,305,326,0
303,322,306,325,0
301,320,308,324,0
300,315,312,323,0
297,306,313,320,0
295,296,313,317,0
292,286,313,314,0
290,274,313,312,0
293,264,314,311,0
299,264,315,311,0
304,271,316,311,0
307,281,318,311,0
308,292,315,311,0
308,300,308,309,0
308,304,301,307,0
309,304,295,305,0
312,309,294,304,0
317,316,294,304,0
321,324,295,303,0
319,330,296,301,0
313,333,297,299,0
305,334,298,299,0
300,332,298,299,0
297,328,297,299,0
296,322,297,299,0
295,318,297,300,0
296,317,298,302,0
297,317,300,304,0
298,317,301,305,0
299,315,303,306,0
299,313,304,306,0
298,311,305,308,0
298,310,305,310,0
297,310,306,314,0
298,307,307,318,0
299,304,308,321,0
300,302,309,323,0
300,301,310,322,0
300,303,311,319,0
301,308,311,316,0
302,313,312,312,0
303,314,313,308,0
304,310,312,305,0
305,302,312,303,0
305,295,310,301,0
304,289,306,301,0
300,285,302,300,0
295,281,299,299,0
292,276,299,299,0
292,273,299,298,0
294,279,299,299,0
300,295,300,301,0
306,319,302,306,0
313,339,305,312,0
317,348,308,317,0
319,347,310,321,0
318,339,311,324,0
314,328,312,326,0
308,317,313,327,0
305,307,315,325,0
303,302,316,322,0
303,304,317,318,0
305,309,318,316,0
308,313,318,316,0
309,311,318,316,0
309,304,318,316,0
309,296,317,315,0
310,287,315,315,0
313,282,312,314,0
318,286,309,313,0
318,299,306,310,0
313,309,303,307,0
304,314,301,303,0
297,315,300,299,0
291,317,301,297,0
292,320,305,297,0
303,319,309,300,0
319,312,310,303,0
332,304,311,305,0
336,301,310,306,0
331,303,308,305,0
319,305,307,304,0
309,307,307,303,0
304,308,308,303,0
303,308,310,303,0
303,309,310,303,0
302,310,309,303,0
301,312,307,303,0
301,313,306,303,0
300,313,306,304,0
301,309,305,305,0
302,302,305,305,0
304,293,305,306,0
305,286,305,306,0
305,281,305,307,0
303,277,304,308,0
302,276,305,310,0
300,280,306,310,0
299,289,306,310,0
298,299,306,309,0
298,305,306,307,0
299,309,307,304,0
298,313,309,302,0
296,318,311,298,0
294,319,314,296,0
294,311,319,294,0
298,302,324,296,0
308,302,329,300,0
318,309,327,306,0
319,314,319,314,0
315,311,309,322,0
310,308,302,328,0
308,307,298,331,0
307,309,296,331,0
307,314,294,328,0
307,318,294,322,0
307,320,294,315,0
306,324,295,308,0
305,329,295,302,0
304,335,296,298,0
304,335,297,296,0
305,328,297,295,0
305,318,297,293,0
302,305,297,291,0
295,294,297,289,0
288,286,297,289,0
285,283,299,290,0
285,285,302,294,0
289,290,305,298,0
295,294,309,302,0
301,294,311,306,0
305,292,313,309,0
309,287,313,314,0
311,281,313,318,0
313,277,311,323,0
312,276,309,326,0
311,275,306,327,0
308,276,304,325,0
308,278,303,322,0
311,287,303,321,0
316,305,303,320,0
317,322,302,320,0
315,333,302,319,0
313,336,303,318,0
309,335,306,317,0
307,333,309,315,0
305,332,312,313,0
301,327,313,311,0
295,317,312,307,0
290,304,312,303,0
290,290,311,299,0
293,283,310,297,0
296,284,309,296,0
301,289,308,296,0
305,300,307,297,0
308,315,307,299,0
311,330,308,301,0
312,342,309,303,0
311,349,311,306,0
309,347,313,308,0
307,337,313,309,0
306,323,313,309,0
305,311,312,309,0
306,307,311,309,0
307,311,309,308,0
307,315,308,307,0
306,311,308,308,0
304,300,309,311,0
304,293,312,315,0
304,288,313,319,0
303,283,315,322,0
303,275,315,322,0
304,269,312,320,0
305,268,307,320,0
307,272,302,319,0
310,274,299,319,0
313,278,297,318,0
314,283,297,317,0
315,289,298,314,0
314,292,298,309,0
314,295,298,305,0
313,301,297,302,0
313,310,297,300,0
311,318,297,300,0
309,324,298,301,0
307,327,300,301,0
307,329,302,301,0
305,328,302,302,0
302,325,302,304,0
297,320,302,305,0
292,312,303,306,0
290,304,304,309,0
292,297,306,311,0
297,293,308,312,0
303,291,311,311,0
310,290,314,309,0
315,292,317,307,0
316,293,317,306,0
318,292,313,305,0
323,294,306,308,0
326,302,300,312,0
324,313,298,319,0
319,323,298,325,0
314,330,298,328,0
311,335,298,328,0
308,337,298,325,0
306,337,298,321,0
304,336,298,317,0
302,335,298,311,0
301,334,297,307,0
300,331,295,303,0
299,327,294,300,0
299,322,294,299,0
299,317,295,299,0
299,313,297,300,0
300,309,300,301,0
300,306,303,303,0
301,306,305,305,0
301,305,307,305,0
300,304,308,306,0
299,306,308,308,0
297,309,308,310,0
296,308,308,311,0
295,299,308,311,0
293,286,308,310,0
291,273,307,308,0
289,263,306,306,0
291,258,305,305,0
293,261,306,305,0
295,274,306,305,0
295,291,308,306,0
296,306,309,307,0
299,317,310,309,0
303,325,310,310,0
305,329,310,310,0
305,330,310,310,0
305,332,310,308,0
305,334,308,307,0
305,335,307,305,0
305,336,306,303,0
305,338,304,300,0
306,338,301,297,0
305,338,298,295,0
305,336,296,294,0
304,332,294,293,0
302,327,293,292,0
301,322,293,291,0
300,316,293,291,0
300,310,294,293,0
301,305,295,295,0
302,299,295,296,0
302,296,295,298,0
301,296,295,300,0
300,296,295,304,0
300,293,297,308,0
304,287,300,312,0
308,283,303,314,0
311,278,303,313,0
313,272,304,312,0
313,263,305,310,0
314,258,308,311,0
314,266,311,315,0
310,281,314,320,0
304,296,315,327,0
301,306,315,332,0
299,312,313,334,0
295,313,309,333,0
290,311,304,328,0
286,308,300,322,0
284,306,297,314,0
288,309,297,307,0
297,316,297,301,0
307,322,297,297,0
314,327,297,296,0
317,331,297,297,0
317,331,299,301,0
317,323,301,305,0
318,315,303,308,0
318,310,304,310,0
316,308,305,310,0
313,310,306,310,0
310,312,308,310,0
309,315,311,310,0
307,316,314,309,0
306,316,318,309,0
303,315,320,309,0
299,315,317,308,0
294,317,310,307,0
289,320,303,305,0
287,318,299,305,0
288,308,296,304,0
291,294,296,305,0
294,281,297,306,0
299,272,298,309,0
304,266,300,313,0
309,266,302,317,0
313,276,305,322,0
316,291,307,325,0
316,307,308,324,0
315,320,308,321,0
313,328,307,316,0
312,330,306,311,0
310,328,305,306,0
309,326,305,303,0
307,325,305,302,0
306,325,307,303,0
305,326,309,304,0
304,326,311,305,0
303,326,312,306,0
302,326,313,306,0
301,325,312,305,0
300,324,309,305,0
300,323,306,306,0
301,321,303,306,0
302,317,301,307,0
304,312,301,309,0
304,307,301,312,0
304,302,302,315,0
302,296,305,318,0
301,289,309,320,0
299,285,314,322,0
301,287,317,323,0
304,295,318,324,0
306,306,317,323,0
303,313,313,321,0
299,313,308,317,0
297,306,303,311,0
297,295,299,306,0
299,285,296,300,0
302,272,295,296,0
303,258,294,294,0
300,250,295,293,0
296,249,297,294,0
295,257,299,296,0
299,274,302,298,0
306,295,304,301,0
312,312,306,305,0
315,323,307,309,0
316,330,307,313,0
314,336,306,314,0
312,342,304,314,0
309,346,303,313,0
305,349,302,309,0
302,349,303,307,0
300,345,304,307,0
301,338,305,310,0
307,332,305,312,0
310,328,306,314,0
307,324,306,316,0
301,318,305,315,0
297,307,304,311,0
295,290,303,306,0
295,269,302,302,0
297,253,302,298,0
299,247,301,295,0
302,252,301,292,0
306,273,301,293,0
311,300,303,296,0
316,320,304,298,0
318,329,304,299,0
319,330,303,298,0
318,329,303,298,0
316,328,302,298,0
313,327,303,299,0
312,328,304,300,0
312,328,304,300,0
311,329,305,301,0
311,328,306,303,0
312,327,307,305,0
313,326,307,307,0
312,323,307,308,0
310,319,306,310,0
308,314,307,312,0
308,311,308,315,0
308,309,310,319,0
308,311,312,323,0
307,314,314,327,0
305,318,317,329,0
303,324,320,331,0
301,330,323,330,0
300,331,325,328,0
299,328,324,324,0
299,319,319,320,0
299,306,311,316,0
299,291,305,313,0
300,275,302,311,0
300,261,301,310,0
301,255,302,308,0
300,257,303,305,0
301,265,302,302,0
302,278,300,300,0
305,290,297,299,0
308,291,296,300,0
308,280,296,302,0
307,268,297,303,0
305,268,297,303,0
304,276,298,303,0
306,289,300,304,0
309,304,302,304,0
313,319,304,303,0
314,336,305,302,0
312,353,304,302,0
310,365,305,303,0
307,373,305,303,0
305,376,304,301,0
302,372,302,299,0
298,362,299,297,0
295,347,298,296,0
293,327,299,297,0
296,310,302,300,0
302,298,305,304,0
309,284,307,309,0
313,266,306,313,0
321,247,305,319,0
331,229,305,325,0
340,219,306,331,0
343,221,308,336,0
335,235,309,339,0
323,254,310,339,0
313,275,309,334,0
306,301,309,325,0
303,324,307,316,0
303,338,306,308,0
304,342,305,301,0
305,340,304,297,0
306,335,303,295,0
307,330,301,294,0
308,327,300,295,0
309,322,299,297,0
309,316,300,299,0
310,313,300,301,0
309,317,303,304,0
310,322,306,307,0
311,326,309,310,0
311,326,310,313,0
311,321,308,313,0
309,316,304,312,0
305,313,300,309,0
303,315,300,306,0
303,319,300,304,0
304,323,302,304,0
304,325,304,306,0
303,323,307,308,0
304,320,310,312,0
306,316,313,315,0
308,314,315,317,0
309,313,316,317,0
311,312,316,314,0
312,309,315,310,0
309,304,312,307,0
304,298,312,307,0
301,291,313,310,0
304,281,314,315,0
313,270,312,319,0
320,261,309,321,0
322,255,308,323,0
319,253,309,322,0
314,254,311,320,0
309,256,315,316,0
307,265,318,313,0
307,288,316,309,0
308,316,311,306,0
310,340,305,303,0
312,354,302,301,0
313,357,299,298,0
311,354,298,295,0
307,348,299,294,0
304,338,301,294,0
303,329,302,294,0
306,318,304,295,0
309,306,304,296,0
311,296,304,298,0
312,290,305,302,0
313,287,306,307,0
313,287,307,312,0
313,292,307,315,0
314,299,307,317,0
313,301,307,317,0
312,296,306,315,0
309,285,305,311,0
306,268,303,306,0
302,247,301,300,0
299,233,301,297,0
300,239,301,298,0
306,263,302,301,0
314,292,303,305,0
318,319,302,308,0
317,340,301,309,0
308,351,300,309,0
300,354,299,308,0
299,352,299,305,0
304,345,300,301,0
310,336,299,297,0
315,324,299,293,0
321,314,299,291,0
328,308,300,291,0
331,305,302,292,0
326,303,305,292,0
313,304,307,293,0
301,310,309,295,0
294,313,309,297,0
292,310,310,300,0
292,304,309,303,0
295,302,307,307,0
298,308,305,310,0
300,318,303,311,0
301,327,301,310,0
299,332,298,308,0
298,333,297,307,0
299,331,298,306,0
303,325,300,306,0
307,317,303,306,0
308,306,305,306,0
307,294,307,305,0
307,284,308,304,0
307,283,310,302,0
306,288,310,300,0
305,295,308,299,0
306,301,306,298,0
305,303,305,299,0
304,297,305,301,0
304,283,305,301,0
305,270,305,302,0
307,264,304,304,0
309,266,303,307,0
309,270,303,311,0
310,277,304,314,0
314,284,306,315,0
319,293,307,316,0
321,300,307,315,0
321,307,306,315,0
321,312,306,314,0
320,314,307,312,0
319,313,307,311,0
317,311,308,311,0
316,307,310,311,0
315,305,311,313,0
314,311,313,314,0
313,320,314,316,0
313,329,315,317,0
313,333,315,318,0
313,334,314,316,0
313,337,313,315,0
313,340,312,315,0
314,342,312,315,0
314,339,312,316,0
316,330,311,315,0
317,318,311,312,0
318,308,310,306,0
319,304,308,301,0
317,304,306,297,0
313,306,305,294,0
310,308,303,294,0
307,307,302,296,0
306,304,302,298,0
305,302,303,302,0
306,302,304,307,0
308,303,305,310,0
310,304,305,311,0
312,305,305,311,0
313,305,305,310,0
313,302,305,308,0
309,294,304,305,0
300,284,304,301,0
292,274,305,297,0
290,268,306,292,0
297,266,308,288,0
310,266,310,286,0
321,273,312,285,0
323,291,315,287,0
314,311,315,292,0
299,325,313,298,0
286,328,310,302,0
280,321,307,304,0
281,308,304,303,0
285,289,302,302,0
292,266,303,302,0
300,249,307,304,0
307,251,314,307,0
314,273,320,313,0
321,298,326,318,0
326,316,328,322,0
327,324,323,325,0
325,326,315,325,0
321,327,309,323,0
316,328,306,320,0
313,327,304,317,0
311,325,304,313,0
310,325,304,308,0
308,325,304,303,0
306,323,303,300,0
304,319,303,299,0
303,318,303,300,0
303,322,303,303,0
305,327,304,307,0
308,328,305,313,0
309,325,306,316,0
310,318,306,317,0
308,309,306,316,0
306,299,306,313,0
304,285,305,306,0
303,270,304,301,0
304,254,302,297,0
306,243,301,296,0
308,246,301,298,0
310,264,301,303,0
312,287,303,308,0
315,308,306,313,0
317,321,308,315,0
317,323,310,314,0
315,317,310,313,0
311,305,310,311,0
308,291,309,311,0
306,281,309,311,0
306,281,310,314,0
306,295,311,318,0
307,315,312,321,0
308,332,313,324,0
311,344,313,325,0
314,348,314,323,0
315,346,314,319,0
316,339,313,314,0
315,332,312,307,0
314,326,310,302,0
312,320,310,296,0
309,316,309,293,0
305,318,309,292,0
301,323,309,293,0
295,326,308,294,0
289,327,307,295,0
288,330,308,298,0
296,332,312,303,0
308,328,316,309,0
312,322,315,314,0
309,317,314,318,0
306,312,313,320,0
307,307,312,321,0
308,303,312,320,0
308,298,312,316,0
308,293,311,311,0
307,288,310,303,0
307,282,308,296,0
306,277,307,292,0
305,275,306,291,0
304,276,306,292,0
306,280,306,295,0
309,287,305,298,0
313,294,306,303,0
318,300,308,306,0
322,301,309,309,0
322,299,309,311,0
316,296,308,312,0
306,296,306,310,0
300,301,304,308,0
297,313,302,306,0
297,336,301,306,0
299,365,302,306,0
302,390,302,308,0
304,406,304,309,0
304,410,305,311,0
304,399,307,312,0
306,376,310,311,0
310,346,315,311,0
315,318,322,311,0
318,296,328,311,0
319,284,332,312,0
320,283,330,312,0
322,289,324,310,0
326,299,315,308,0
327,308,307,305,0
321,314,302,304,0
309,316,301,305,0
299,318,303,306,0
293,316,305,309,0
291,308,308,311,0
290,295,309,313,0
289,280,310,313,0
287,267,308,311,0
286,256,305,309,0
287,245,304,306,0
288,236,303,301,0
288,232,303,297,0
290,241,305,298,0
294,254,306,301,0
298,263,308,305,0
303,266,310,308,0
307,267,311,310,0
308,267,313,312,0
307,270,316,313,0
311,273,318,314,0
317,278,320,313,0
321,280,317,310,0
319,278,310,305,0
314,275,303,301,0
309,272,298,297,0
304,269,296,294,0
301,268,294,291,0
300,271,295,290,0
300,273,296,291,0
303,266,298,292,0
305,257,300,292,0
307,258,302,292,0
309,267,303,293,0
311,278,304,294,0
312,291,305,295,0
312,302,305,295,0
312,309,305,296,0
312,311,306,298,0
311,313,307,303,0
309,320,306,309,0
307,328,304,314,0
307,336,303,318,0
312,343,304,322,0
322,349,306,327,0
334,355,308,330,0
337,361,310,333,0
330,367,311,335,0
316,374,310,333,0
305,379,308,328,0
299,383,305,320,0
296,382,304,312,0
296,375,304,305,0
296,361,305,300,0
296,343,306,297,0
296,326,306,295,0
296,315,306,296,0
297,310,306,298,0
298,310,306,302,0
298,313,306,304,0
298,319,306,306,0
298,323,306,307,0
299,324,308,306,0
299,321,312,306,0
301,318,316,304,0
302,315,319,302,0
302,313,319,302,0
301,311,316,303,0
299,311,312,304,0
297,313,310,305,0
298,320,309,306,0
301,327,307,307,0
303,333,303,307,0
302,340,298,307,0
300,349,293,307,0
300,350,290,307,0
301,333,289,307,0
302,301,291,307,0
302,262,293,306,0
301,228,296,305,0
299,204,298,303,0
298,194,299,303,0
299,198,301,304,0
302,209,302,307,0
307,218,304,309,0
310,225,305,310,0
313,233,307,309,0
314,234,308,306,0
315,232,309,304,0
315,241,309,303,0
315,263,310,304,0
315,288,310,305,0
313,308,311,306,0
310,325,312,307,0
310,339,312,307,0
314,349,311,306,0
318,355,309,303,0
317,356,309,300,0
313,352,311,299,0
305,347,312,298,0
298,340,310,297,0
295,333,308,299,0
298,322,308,302,0
310,310,308,307,0
322,300,309,310,0
327,294,309,311,0
323,289,309,311,0
316,286,310,311,0
309,285,310,310,0
305,284,310,308,0
301,284,310,306,0
298,284,308,305,0
296,284,306,306,0
295,286,305,306,0
297,295,305,306,0
302,311,307,307,0
309,324,311,308,0
317,329,315,310,0
320,330,317,311,0
315,330,317,310,0
305,329,314,307,0
298,328,309,303,0
298,324,304,299,0
301,316,301,295,0
304,304,298,293,0
305,289,297,293,0
305,277,297,296,0
303,268,300,298,0
301,262,303,300,0
301,255,304,300,0
299,249,305,299,0
300,253,307,301,0
304,269,309,304,0
311,285,311,308,0
315,294,311,310,0
315,297,312,311,0
312,294,312,311,0
307,285,313,311,0
302,272,315,312,0
298,261,318,312,0
297,260,320,311,0
297,276,323,310,0
298,297,324,310,0
301,313,325,313,0
304,323,319,316,0
309,331,310,319,0
313,336,301,321,0
316,338,295,322,0
317,340,293,321,0
317,341,295,319,0
316,342,297,317,0
314,343,299,313,0
312,342,300,309,0
308,340,300,305,0
305,338,300,302,0
303,338,300,301,0
302,338,300,301,0
304,338,302,302,0
306,341,302,302,0
306,345,302,303,0
305,346,302,303,0
303,340,302,303,0
301,323,302,303,0
300,303,302,302,0
299,286,303,304,0
298,273,304,305,0
297,268,304,305,0
296,268,303,305,0
294,271,303,305,0
293,274,303,308,0
295,277,306,311,0
301,285,309,315,0
312,297,311,318,0
324,309,311,320,0
329,316,310,317,0
323,318,309,311,0
315,315,306,306,0
308,310,304,302,0
305,304,303,300,0
305,299,303,299,0
305,295,303,298,0
303,294,302,297,0
302,294,301,296,0
301,294,300,296,0
301,295,299,298,0
301,298,301,300,0
302,301,302,304,0
301,303,304,308,0
300,302,305,312,0
298,300,305,315,0
296,292,304,315,0
293,280,301,313,0
291,265,299,310,0
291,257,298,308,0
290,260,299,305,0
291,275,301,302,0
294,297,304,301,0
297,318,307,300,0
301,333,309,300,0
303,342,309,299,0
301,345,310,298,0
299,346,311,298,0
298,345,312,298,0
300,342,313,299,0
303,334,314,301,0
306,326,316,303,0
308,319,317,305,0
309,316,313,306,0
308,314,308,307,0
307,315,304,307,0
305,315,301,309,0
306,317,299,310,0
308,320,299,312,0
309,321,300,313,0
309,318,302,315,0
309,313,304,317,0
310,305,306,317,0
310,296,307,317,0
310,285,306,314,0
312,273,305,309,0
316,264,303,303,0
320,260,303,299,0
321,262,306,296,0
317,270,310,296,0
309,282,314,297,0
304,291,314,299,0
303,301,310,304,0
303,312,303,309,0
301,317,298,313,0
298,308,294,314,0
293,290,291,312,0
290,277,291,310,0
289,278,292,309,0
292,287,295,308,0
296,299,297,305,0
299,309,299,302,0
302,317,302,301,0
305,315,304,301,0
312,307,306,302,0
321,298,306,301,0
327,290,305,300,0
324,286,304,298,0
316,287,303,296,0
310,290,303,296,0
305,295,304,297,0
304,299,304,300,0
304,303,305,302,0
305,305,306,305,0
306,306,308,308,0
307,307,309,311,0
307,308,309,312,0
306,308,309,312,0
304,308,307,310,0
302,308,306,307,0
299,312,304,304,0
297,318,303,302,0
297,324,303,303,0
298,328,303,306,0
302,329,302,309,0
306,324,302,311,0
309,316,302,312,0
311,308,303,314,0
314,300,304,314,0
318,295,308,316,0
318,291,313,318,0
314,289,319,320,0
311,288,325,322,0
308,292,327,323,0
307,299,325,324,0
305,304,321,323,0
302,305,317,319,0
299,300,313,313,0
297,289,309,305,0
294,274,305,299,0
290,255,300,294,0
286,241,295,290,0
282,240,291,289,0
283,256,291,290,0
290,279,294,296,0
303,299,298,302,0
314,314,302,305,0
320,326,303,307,0
323,335,303,308,0
323,340,302,308,0
322,340,302,307,0
322,338,300,308,0
322,334,300,308,0
322,329,299,308,0
321,322,299,308,0
320,316,299,308,0
318,312,300,308,0
315,313,300,308,0
312,317,300,308,0
308,321,300,309,0
306,322,300,309,0
304,322,301,309,0
303,319,301,309,0
302,312,301,309,0
300,304,301,311,0
298,300,299,311,0
299,302,297,309,0
302,312,296,307,0
308,324,295,304,0
315,328,296,304,0
321,321,298,304,0
323,302,301,306,0
315,274,303,307,0
304,249,305,308,0
295,234,306,308,0
290,236,308,309,0
288,262,311,310,0
290,294,315,312,0
299,315,319,313,0
314,327,323,312,0
331,332,326,311,0
345,333,328,310,0
346,332,326,309,0
334,329,319,311,0
316,328,313,313,0
301,326,309,314,0
292,323,308,313,0
289,319,308,311,0
288,315,307,308,0
289,311,307,306,0
294,309,307,304,0
298,307,306,304,0
300,308,304,304,0
299,311,302,304,0
297,317,300,305,0
294,321,301,307,0
293,320,303,310,0
294,316,305,314,0
297,309,307,318,0
299,302,310,319,0
299,297,312,319,0
296,292,314,320,0
293,289,316,321,0
293,286,317,322,0
296,284,317,320,0
299,287,314,319,0
302,294,311,317,0
304,302,308,315,0
306,306,303,308,0
307,308,299,301,0
308,306,294,295,0
308,304,292,290,0
308,302,291,287,0
307,299,290,285,0
307,297,291,284,0
306,297,291,284,0
304,303,292,283,0
302,315,293,283,0
301,326,294,284,0
302,333,296,286,0
304,338,300,290,0
306,343,303,295,0
308,340,304,299,0
309,326,303,302,0
309,305,302,304,0
310,281,301,307,0
308,260,301,309,0
303,246,301,311,0
300,240,302,313,0
297,235,303,314,0
295,227,303,312,0
293,218,303,309,0
292,212,303,306,0
293,222,303,305,0
296,249,305,306,0
301,280,307,310,0
307,310,309,315,0
314,332,311,320,0
319,347,312,323,0
321,356,312,325,0
320,361,310,325,0
316,363,308,326,0
312,365,306,326,0
310,368,307,327,0
316,371,309,327,0
325,373,309,325,0
327,370,307,320,0
322,361,304,315,0
314,348,303,312,0
309,335,304,311,0
306,326,305,309,0
304,316,307,307,0
303,305,309,306,0
303,301,312,307,0
304,304,315,310,0
306,310,318,313,0
308,313,320,315,0
309,309,320,313,0
309,301,318,309,0
309,291,314,305,0
308,281,311,301,0
306,271,309,298,0
303,264,308,296,0
301,258,308,294,0
300,258,308,293,0
299,260,309,293,0
300,263,311,293,0
300,271,313,295,0
301,284,313,297,0
302,296,310,299,0
304,302,307,301,0
306,304,304,303,0
308,306,302,303,0
309,306,302,304,0
309,310,303,305,0
308,318,306,308,0
308,327,310,310,0
309,334,313,311,0
309,337,315,311,0
306,335,316,312,0
303,328,317,313,0
303,319,316,314,0
304,312,314,316,0
305,307,311,318,0
305,305,308,318,0
304,305,306,318,0
305,304,305,317,0
309,302,305,316,0
314,301,305,313,0
313,301,304,310,0
309,301,304,307,0
305,299,306,306,0
303,296,307,304,0
304,288,308,303,0
307,280,311,303,0
313,276,314,303,0
319,281,314,303,0
325,293,311,304,0
329,307,307,306,0
330,320,306,308,0
324,331,305,309,0
312,336,304,307,0
302,336,303,305,0
302,332,304,303,0
306,324,304,302,0
305,312,305,302,0
300,299,305,302,0
295,290,304,303,0
293,290,303,305,0
294,304,303,309,0
298,324,302,314,0
302,340,303,319,0
307,348,305,325,0
310,348,307,327,0
311,341,309,325,0
311,332,310,319,0
309,326,309,312,0
307,323,308,304,0
307,321,305,296,0
310,321,303,290,0
315,327,300,286,0
322,334,300,285,0
329,336,302,286,0
329,328,304,288,0
317,309,307,290,0
302,287,308,292,0
292,269,309,295,0
291,258,310,299,0
294,256,310,303,0
297,255,308,305,0
298,249,306,304,0
297,242,305,303,0
298,235,304,303,0
300,231,304,304,0
302,230,304,307,0
304,240,305,309,0
307,260,307,312,0
311,286,310,314,0
316,310,312,316,0
320,328,314,317,0
322,338,315,317,0
319,346,316,317,0
313,349,317,315,0
306,348,316,314,0
301,342,315,314,0
300,333,314,313,0
300,319,312,313,0
298,303,307,312,0
294,289,300,311,0
293,280,297,311,0
294,273,296,312,0
296,265,296,312,0
297,259,296,311,0
299,265,296,309,0
301,280,299,309,0
304,298,301,308,0
309,315,303,307,0
313,328,304,307,0
314,333,303,306,0
315,333,303,307,0
314,330,304,308,0
312,328,305,310,0
309,328,304,310,0
306,328,304,309,0
304,325,303,307,0
304,322,303,305,0
306,323,303,305,0
307,330,304,307,0
309,336,304,311,0
309,334,305,316,0
309,329,306,320,0
308,325,307,322,0
310,322,308,323,0
313,320,309,325,0
315,319,310,326,0
314,318,311,325,0
311,318,311,323,0
307,315,311,321,0
303,312,311,320,0
300,310,311,320,0
297,310,310,319,0
294,312,309,317,0
292,314,307,313,0
293,317,306,308,0
294,320,305,304,0
297,318,304,301,0
300,311,303,299,0
304,303,302,298,0
309,301,302,298,0
313,302,302,300,0
317,306,302,301,0
322,313,302,302,0
328,320,303,302,0
332,324,307,302,0
335,322,312,302,0
332,313,317,303,0
324,299,323,304,0
315,287,326,305,0
307,280,325,304,0
302,275,324,302,0
301,277,320,301,0
302,285,314,301,0
307,297,309,302,0
313,307,305,302,0
320,315,300,301,0
325,316,296,301,0
322,313,294,302,0
313,309,293,302,0
302,309,293,303,0
296,312,293,303,0
294,313,295,303,0
296,313,296,303,0
299,316,298,302,0
299,322,299,303,0
299,323,301,304,0
300,317,302,305,0
300,306,304,306,0
301,298,304,306,0
302,294,304,306,0
302,296,303,306,0
300,303,300,305,0
299,313,298,304,0
299,321,299,306,0
303,326,302,308,0
309,327,305,309,0
315,324,306,310,0
322,318,306,310,0
330,312,305,310,0
336,304,306,308,0
335,295,305,307,0
324,286,304,306,0
308,278,304,307,0
295,271,304,308,0
288,265,304,309,0
286,260,305,310,0
287,259,305,311,0
287,264,305,310,0
286,271,304,310,0
285,278,303,308,0
286,287,303,308,0
289,304,304,308,0
293,321,305,309,0
300,335,306,309,0
307,345,308,310,0
312,348,311,312,0
315,345,313,313,0
316,337,314,313,0
314,327,315,311,0
312,319,314,308,0
313,315,313,304,0
315,319,310,301,0
316,338,306,299,0
316,359,302,297,0
317,374,299,295,0
320,383,298,294,0
323,386,299,294,0
327,379,302,296,0
326,361,306,299,0
320,335,309,303,0
313,308,311,306,0
308,282,312,310,0
303,258,311,313,0
297,239,309,314,0
292,227,304,314,0
289,230,300,313,0
288,245,300,312,0
289,262,304,308,0
292,277,310,306,0
295,291,319,306,0
298,302,326,310,0
301,309,328,316,0
304,314,323,322,0
306,316,314,328,0
307,318,307,332,0
309,319,304,334,0
310,320,304,336,0
311,322,305,335,0
312,321,306,331,0
310,315,307,327,0
308,308,307,321,0
306,299,306,313,0
304,289,305,306,0
302,279,304,299,0
303,274,305,293,0
308,281,306,289,0
316,292,306,288,0
319,299,305,289,0
317,303,305,292,0
312,304,305,295,0
309,306,302,298,0
307,307,300,299,0
305,307,299,301,0
303,304,301,302,0
302,299,303,302,0
301,292,305,301,0
297,283,307,300,0
294,280,310,301,0
293,287,313,303,0
294,306,316,305,0
296,327,317,308,0
298,342,316,309,0
301,349,314,309,0
304,350,312,310,0
306,350,310,310,0
307,348,306,310,0
307,347,304,309,0
306,346,305,309,0
305,341,307,308,0
302,333,310,305,0
294,322,311,302,0
285,312,311,299,0
281,301,313,296,0
286,290,314,293,0
294,283,314,291,0
303,282,315,292,0
311,287,316,294,0
317,295,313,296,0
320,299,307,295,0
322,297,302,294,0
322,291,300,295,0
320,285,299,297,0
319,284,300,299,0
322,286,302,303,0
325,286,303,306,0
321,284,305,307,0
310,283,306,308,0
299,284,307,308,0
293,288,306,306,0
291,298,306,304,0
292,308,305,303,0
295,313,305,303,0
298,316,306,305,0
300,317,307,309,0
301,315,308,313,0
302,311,310,317,0
303,308,310,320,0
304,312,310,323,0
306,323,310,324,0
307,338,310,322,0
308,350,312,319,0
308,356,315,314,0
308,356,319,309,0
306,352,324,305,0
304,344,326,303,0
299,335,321,301,0
295,326,313,300,0
295,317,305,300,0
302,310,299,299,0
314,309,296,299,0
323,310,294,300,0
325,309,293,302,0
317,303,294,304,0
305,294,296,305,0
294,281,300,306,0
289,272,304,309,0
289,268,310,313,0
294,272,316,315,0
297,284,320,315,0
300,296,320,315,0
301,299,317,315,0
302,294,312,314,0
304,289,308,312,0
307,291,304,310,0
311,301,301,309,0
314,311,298,309,0
316,322,296,309,0
317,329,296,310,0
318,334,296,311,0
319,339,297,312,0
319,344,297,312,0
319,347,298,313,0
320,346,302,313,0
320,341,308,312,0
317,336,314,310,0
313,329,321,310,0
309,321,326,310,0
306,311,329,309,0
304,302,327,309,0
302,297,324,309,0
301,295,317,308,0
298,292,308,307,0
297,288,300,305,0
294,285,295,304,0
294,287,293,305,0
296,293,294,305,0
295,299,296,305,0
293,306,299,305,0
293,312,302,306,0
296,315,303,306,0
299,317,304,306,0
302,320,305,306,0
307,323,306,307,0
312,325,307,307,0
315,328,307,308,0
314,330,307,309,0
312,329,306,309,0
309,326,305,310,0
308,325,305,311,0
307,330,304,312,0
307,333,305,313,0
306,329,305,313,0
307,316,306,313,0
308,303,307,312,0
308,295,307,310,0
309,292,306,308,0
310,291,305,305,0
311,288,304,304,0
310,284,304,305,0
309,284,305,308,0
307,287,306,312,0
308,292,306,316,0
316,296,306,318,0
327,298,308,321,0
338,301,311,322,0
345,305,315,324,0
342,311,319,324,0
328,319,325,324,0
310,327,329,323,0
297,329,327,322,0
290,324,319,321,0
287,314,311,319,0
286,304,304,317,0
289,303,300,316,0
293,308,297,315,0
296,316,296,314,0
297,323,298,312,0
299,325,302,311,0
303,323,306,308,0
309,319,311,305,0
316,317,312,303,0
321,314,311,301,0
319,308,309,301,0
311,302,306,301,0
303,299,304,301,0
299,298,302,301,0
298,298,301,301,0
299,297,299,301,0
300,297,298,301,0
299,297,296,301,0
298,294,295,302,0
296,289,295,303,0
298,294,296,303,0
301,309,298,303,0
305,327,298,303,0
308,339,299,303,0
309,343,300,303,0
308,338,300,305,0
305,325,302,307,0
302,308,303,310,0
300,293,303,313,0
297,276,303,314,0
296,255,303,314,0
295,234,303,313,0
297,222,303,314,0
300,226,304,317,0
304,240,308,322,0
307,257,314,326,0
314,278,317,327,0
320,298,315,323,0
320,317,312,319,0
317,331,309,314,0
313,340,307,310,0
310,344,305,307,0
308,345,304,305,0
308,342,304,303,0
308,339,303,301,0
309,334,303,300,0
310,328,303,300,0
313,321,304,301,0
315,314,305,303,0
318,309,307,306,0
319,307,309,309,0
319,307,312,313,0
316,308,315,317,0
311,308,318,321,0
306,305,321,325,0
304,301,323,329,0
307,297,322,330,0
311,295,319,329,0
312,299,315,327,0
310,312,311,327,0
306,326,309,326,0
304,335,308,323,0
300,333,307,316,0
296,320,307,306,0
293,300,308,295,0
290,276,309,285,0
287,257,306,277,0
288,245,303,273,0
293,251,301,273,0
301,276,301,277,0
309,308,301,283,0
314,329,299,291,0
315,339,299,297,0
313,343,298,302,0
309,343,298,305,0
303,340,297,307,0
300,334,297,308,0
299,330,299,308,0
302,327,302,308,0
309,325,305,308,0
318,324,309,307,0
324,325,310,305,0
323,325,307,304,0
314,317,304,303,0
304,304,303,303,0
298,293,301,304,0
297,292,300,305,0
300,297,298,306,0
305,303,298,306,0
312,309,300,307,0
321,313,304,309,0
327,314,308,312,0
329,311,311,315,0
327,306,314,318,0
320,304,314,320,0
310,305,313,321,0
298,306,311,320,0
288,300,309,317,0
282,286,306,311,0
278,280,304,305,0
280,288,303,299,0
286,300,304,294,0
291,305,304,289,0
295,304,304,285,0
298,303,304,282,0
299,305,305,282,0
301,305,305,284,0
303,303,306,287,0
304,304,308,290,0
303,307,309,294,0
302,312,311,298,0
302,317,312,300,0
305,319,312,302,0
308,319,312,304,0
309,317,310,306,0
309,310,308,307,0
306,302,304,306,0
304,293,301,305,0
301,284,299,302,0
299,273,299,298,0
297,264,302,295,0
295,261,308,295,0
295,265,316,297,0
296,275,322,299,0
296,291,321,302,0
294,309,314,307,0
295,322,309,315,0
301,326,306,322,0
307,325,304,328,0
311,324,303,331,0
312,325,303,332,0
312,329,304,332,0
313,332,308,331,0
314,331,314,329,0
314,325,320,327,0
314,318,324,322,0
314,313,324,318,0
314,310,323,312,0
313,312,319,306,0
313,316,312,303,0
312,318,306,302,0
311,318,300,302,0
310,317,297,302,0
308,317,295,302,0
307,316,294,302,0
306,313,295,302,0
307,313,297,303,0
308,314,299,303,0
309,316,301,302,0
311,318,302,301,0
315,322,302,301,0
321,324,301,301,0
329,322,300,300,0
332,312,299,298,0
324,293,300,296,0
307,265,304,294,0
293,230,311,293,0
285,200,315,293,0
281,185,315,293,0
280,198,311,295,0
281,237,306,299,0
283,282,301,306,0
287,310,299,312,0
292,316,300,316,0
300,311,304,316,0
310,307,308,315,0
320,315,311,312,0
322,327,312,309,0
318,334,311,305,0
313,336,310,303,0
311,333,308,302,0
311,328,306,302,0
311,325,304,304,0
309,324,302,305,0
305,323,301,306,0
302,322,300,307,0
301,322,300,308,0
303,321,300,309,0
305,321,300,309,0
308,320,300,307,0
311,316,299,303,0
312,311,298,299,0
311,303,298,297,0
311,294,299,294,0
311,283,300,290,0
311,273,300,286,0
313,268,299,282,0
315,267,297,282,0
320,266,296,285,0
329,266,295,292,0
337,279,296,302,0
340,303,300,313,0
336,323,306,321,0
326,334,311,326,0
314,338,313,328,0
306,337,308,328,0
300,334,301,327,0
298,332,296,326,0
297,331,294,324,0
298,331,293,322,0
299,329,293,319,0
300,326,294,317,0
301,323,294,315,0
303,321,295,314,0
303,319,295,312,0
303,318,295,310,0
303,317,295,310,0
304,315,295,312,0
304,315,296,314,0
305,315,297,316,0
306,314,298,317,0
307,311,299,318,0
309,306,300,320,0
309,300,301,320,0
307,296,302,318,0
304,293,304,314,0
305,292,306,309,0
311,290,306,304,0
318,284,304,299,0
319,272,301,294,0
310,254,299,292,0
294,236,300,292,0
282,221,304,296,0
280,227,310,304,0
282,258,316,312,0
286,293,320,318,0
293,317,321,321,0
301,328,318,321,0
307,331,312,320,0
309,330,307,318,0
311,328,304,316,0
311,325,305,312,0
310,317,307,307,0
307,304,308,302,0
305,292,308,299,0
304,283,305,297,0
305,281,303,298,0
307,291,302,301,0
309,309,302,305,0
311,330,303,309,0
313,345,304,312,0
314,352,306,314,0
314,353,308,316,0
312,348,310,319,0
310,342,310,321,0
308,336,311,321,0
310,330,311,319,0
313,323,309,316,0
315,315,306,315,0
313,306,302,314,0
313,300,300,314,0
317,298,300,314,0
322,298,301,311,0
322,298,301,306,0
317,305,302,300,0
310,316,304,295,0
305,326,306,292,0
302,330,307,293,0
300,330,308,296,0
299,327,308,299,0
297,320,307,300,0
294,313,305,301,0
294,307,305,303,0
297,302,304,303,0
301,293,304,303,0
305,282,304,302,0
307,270,304,301,0
308,261,303,301,0
309,263,303,301,0
310,273,303,303,0
313,287,303,305,0
318,299,304,308,0
325,307,306,314,0
333,313,307,319,0
335,318,309,323,0
329,321,312,325,0
318,323,315,325,0
306,323,317,324,0
297,320,320,322,0
291,314,324,320,0
288,306,327,318,0
289,297,325,318,0
293,288,321,320,0
296,282,316,321,0
298,286,312,324,0
300,298,308,326,0
302,311,305,328,0
303,320,301,330,0
307,326,298,330,0
314,328,295,328,0
324,326,294,323,0
328,319,295,317,0
322,309,297,311,0
308,298,300,306,0
295,289,303,304,0
288,282,305,303,0
288,279,307,303,0
293,277,309,304,0
296,273,310,303,0
297,270,310,302,0
296,271,309,301,0
296,282,308,302,0
297,300,308,305,0
299,318,309,309,0
301,331,310,313,0
303,339,309,316,0
303,341,305,318,0
303,338,301,320,0
304,332,298,323,0
307,324,297,326,0
309,319,297,328,0
310,315,298,327,0
309,313,299,323,0
309,313,300,316,0
308,312,300,309,0
307,308,300,303,0
306,300,302,298,0
306,287,303,295,0
306,272,303,294,0
306,259,302,294,0
307,252,301,294,0
307,257,303,294,0
305,268,306,294,0
301,282,308,294,0
299,297,309,294,0
299,308,309,295,0
302,311,309,299,0
306,307,309,303,0
310,306,308,306,0
314,310,306,309,0
317,316,305,310,0
320,319,304,311,0
319,318,304,312,0
312,317,306,315,0
302,317,308,318,0
295,319,309,320,0
289,320,309,319,0
287,323,309,317,0
289,324,308,314,0
293,322,309,310,0
296,317,312,306,0
297,308,314,302,0
297,297,317,299,0
295,284,319,297,0
294,272,316,296,0
296,267,310,297,0
303,277,305,298,0
313,299,302,300,0
321,316,300,302,0
319,320,298,302,0
311,315,297,302,0
305,304,299,303,0
299,287,301,305,0
293,275,303,307,0
290,279,305,308,0
293,297,306,309,0
300,318,306,310,0
308,335,307,309,0
314,341,309,308,0
317,338,311,308,0
318,330,314,309,0
316,321,316,311,0
313,311,316,313,0
310,301,317,315,0
308,296,316,316,0
308,299,312,316,0
308,309,307,316,0
308,321,303,316,0
309,325,303,316,0
311,320,306,316,0
313,313,311,316,0
312,306,317,318,0
311,301,323,319,0
310,298,328,318,0
311,299,329,316,0
311,303,327,312,0
310,309,320,307,0
307,313,313,303,0
305,315,306,300,0
304,311,302,297,0
303,304,300,294,0
302,297,300,293,0
303,296,300,294,0
304,300,301,296,0
305,311,301,298,0
305,323,301,299,0
305,331,301,300,0
306,331,301,301,0
307,323,302,303,0
307,312,302,304,0
307,300,302,304,0
306,294,302,304,0
305,295,303,305,0
304,299,304,307,0
302,301,304,309,0
298,303,304,312,0
295,303,303,313,0
293,305,302,313,0
294,308,303,311,0
296,306,304,310,0
303,301,307,308,0
315,298,311,306,0
327,299,314,304,0
333,301,315,304,0
334,305,316,304,0
329,310,316,305,0
320,312,315,309,0
313,311,314,312,0
309,306,311,316,0
308,298,308,318,0
308,283,306,319,0
307,265,305,318,0
306,251,305,318,0
306,245,307,318,0
306,249,309,319,0
308,263,311,320,0
308,287,312,320,0
308,313,312,319,0
307,331,313,318,0
307,341,316,318,0
307,346,319,316,0
305,346,322,314,0
306,343,324,312,0
311,340,325,309,0
321,336,320,306,0
333,331,314,303,0
334,326,308,299,0
323,319,305,295,0
307,312,304,292,0
296,304,304,291,0
289,294,306,294,0
288,283,311,298,0
291,277,314,304,0
295,275,316,308,0
295,269,313,308,0
290,259,308,303,0
283,252,304,298,0
281,252,302,294,0
286,265,302,296,0
297,290,305,301,0
306,315,308,308,0
313,331,311,312,0
315,338,313,315,0
315,340,314,315,0
314,339,313,315,0
312,334,313,312,0
311,329,314,309,0
313,321,314,306,0
313,311,313,304,0
313,298,315,304,0
312,284,315,304,0
312,273,315,306,0
311,266,314,309,0
310,267,313,311,0
307,273,313,312,0
305,286,312,313,0
304,304,312,314,0
304,324,311,316,0
305,342,309,317,0
307,356,307,319,0
310,363,305,320,0
315,363,305,319,0
320,358,304,316,0
323,350,302,312,0
318,339,299,308,0
304,325,297,303,0
293,310,299,301,0
289,296,307,301,0
291,284,315,302,0
296,277,321,303,0
303,273,324,304,0
313,271,324,304,0
325,266,321,305,0
336,259,317,304,0
344,251,312,302,0
342,242,308,301,0
335,238,308,302,0
325,245,309,305,0
311,262,310,308,0
296,284,311,312,0
286,303,311,314,0
281,314,310,314,0
278,319,309,312,0
275,323,307,308,0
276,329,307,307,0
282,337,307,307,0
287,342,308,308,0
287,343,308,309,0
282,342,310,310,0
276,338,311,311,0
275,333,312,311,0
280,324,313,312,0
293,315,313,312,0
310,304,311,311,0
323,295,309,309,0
328,286,309,306,0
329,280,311,303,0
327,283,314,301,0
322,297,317,300,0
311,312,319,300,0
300,325,315,299,0
292,333,307,298,0
287,338,302,299,0
288,333,302,300,0
292,315,304,301,0
297,291,305,299,0
299,270,305,298,0
300,262,304,300,0
305,263,306,305,0
320,267,309,312,0
347,270,311,317,0
363,275,311,318,0
356,282,309,316,0
332,290,306,314,0
308,306,306,311,0
291,323,308,309,0
284,336,311,306,0
286,337,313,303,0
291,331,313,302,0
297,326,311,302,0
305,327,308,302,0
314,332,305,303,0
318,338,302,303,0
310,336,300,301,0
294,322,298,299,0
281,304,298,300,0
284,290,303,303,0
305,289,308,310,0
342,295,309,318,0
366,297,306,325,0
363,297,305,331,0
346,303,307,333,0
323,319,309,333,0
304,336,311,330,0
289,348,311,325,0
281,355,311,319,0
277,358,311,313,0
277,353,310,306,0
279,345,309,301,0
283,337,309,297,0
287,332,309,294,0
291,330,309,295,0
296,330,309,297,0
299,326,309,300,0
301,318,310,302,0
301,309,310,304,0
301,299,310,305,0
301,293,309,305,0
302,290,308,303,0
303,292,307,301,0
305,297,304,299,0
305,303,303,298,0
305,306,302,297,0
304,304,301,295,0
301,297,300,291,0
298,283,299,287,0
295,267,298,284,0
293,255,299,282,0
293,252,300,281,0
295,258,301,280,0
298,269,302,282,0
302,283,304,286,0
305,297,305,290,0
305,309,304,295,0
305,317,301,300,0
305,320,299,304,0
306,318,298,309,0
307,312,298,313,0
310,302,299,316,0
311,291,299,318,0
311,277,300,316,0
309,264,300,309,0
307,252,301,301,0
305,245,301,293,0
303,247,302,288,0
303,265,302,287,0
304,291,302,292,0
307,314,304,300,0
310,328,307,307,0
315,332,312,312,0
322,333,316,314,0
327,333,316,314,0
327,330,313,313,0
319,324,310,311,0
310,318,307,308,0
305,312,303,305,0
299,302,299,302,0
292,295,296,300,0
289,301,295,300,0
287,316,297,303,0
287,330,300,306,0
288,337,305,309,0
288,336,312,310,0
288,330,318,310,0
289,325,324,310,0
291,325,328,312,0
293,326,328,314,0
297,324,324,317,0
299,320,317,319,0
300,321,310,322,0
300,331,304,322,0
301,346,300,322,0
304,358,298,321,0
306,359,297,319,0
306,349,297,316,0
305,332,298,312,0
303,313,298,306,0
302,298,298,301,0
302,287,300,297,0
304,275,302,293,0
307,259,303,288,0
310,239,301,285,0
315,218,300,286,0
321,204,301,290,0
326,200,302,296,0
327,204,304,301,0
316,215,304,304,0
298,241,304,306,0
286,280,305,308,0
284,316,306,311,0
287,340,308,312,0
291,349,309,312,0
294,345,310,313,0
297,336,310,313,0
300,329,311,313,0
302,326,308,313,0
303,324,304,314,0
303,319,301,314,0
303,309,299,314,0
301,295,297,312,0
297,280,296,311,0
291,268,297,310,0
285,262,298,309,0
281,269,297,307,0
284,288,296,307,0
298,310,294,309,0
320,330,296,314,0
341,343,300,318,0
356,351,306,320,0
358,356,312,322,0
346,356,316,323,0
325,346,316,322,0
306,333,314,320,0
294,320,311,319,0
288,306,309,319,0
286,292,307,321,0
286,281,305,325,0
287,270,304,331,0
289,258,304,334,0
291,247,304,334,0
293,246,304,329,0
296,266,305,322,0
299,300,306,315,0
301,331,308,310,0
301,352,310,306,0
300,360,313,304,0
303,357,315,304,0
308,349,314,305,0
308,342,310,305,0
305,345,307,305,0
299,355,305,305,0
293,362,305,305,0
289,360,307,306,0
288,351,307,308,0
288,342,306,308,0
287,336,305,307,0
285,335,304,304,0
285,332,303,301,0
285,325,304,295,0
288,319,305,291,0
296,317,308,288,0
308,307,312,289,0
320,288,315,292,0
324,272,316,297,0
317,265,312,303,0
310,264,308,309,0
307,266,305,312,0
307,268,303,312,0
308,272,300,311,0
308,279,298,309,0
307,287,297,306,0
306,293,297,303,0
305,296,296,302,0
305,301,296,302,0
305,310,295,304,0
305,317,294,304,0
306,319,295,304,0
307,312,297,305,0
308,292,299,306,0
308,262,299,307,0
304,226,300,309,0
299,198,300,312,0
293,197,300,317,0
291,232,302,322,0
294,285,303,326,0
301,339,302,327,0
308,384,300,324,0
314,412,299,322,0
318,420,299,321,0
314,414,303,322,0
307,404,309,323,0
302,395,318,324,0
302,382,324,323,0
305,369,325,320,0
308,355,323,314,0
308,336,319,308,0
306,315,312,303,0
303,296,304,300,0
297,283,299,301,0
293,279,296,305,0
294,285,296,309,0
296,293,297,313,0
298,298,299,316,0
299,297,301,317,0
299,289,302,316,0
299,270,302,313,0
297,242,304,308,0
296,211,310,304,0
296,199,320,304,0
298,215,333,306,0
303,248,346,309,0
307,285,358,312,0
307,316,365,314,0
304,336,359,313,0
304,342,342,311,0
315,342,325,311,0
329,347,310,313,0
337,356,298,317,0
334,365,290,320,0
323,372,286,321,0
310,373,286,322,0
300,363,287,322,0
295,342,289,323,0
294,318,291,324,0
295,302,292,326,0
297,306,292,327,0
297,329,291,324,0
294,362,289,318,0
292,382,290,311,0
291,377,291,303,0
292,359,293,296,0
293,336,295,290,0
294,315,297,288,0
295,301,298,289,0
300,293,301,292,0
310,288,303,295,0
319,285,303,297,0
322,281,302,299,0
320,276,300,301,0
317,273,299,303,0
315,269,298,303,0
314,259,297,304,0
314,245,297,305,0
312,228,298,302,0
311,210,299,297,0
311,193,298,293,0
314,191,297,290,0
316,220,297,290,0
316,269,302,294,0
314,316,310,299,0
311,342,320,304,0
305,348,329,310,0
302,345,332,313,0
305,338,327,314,0
314,329,320,311,0
328,315,313,306,0
335,296,304,301,0
332,288,295,298,0
324,298,289,300,0
322,311,292,306,0
329,316,299,311,0
332,316,304,313,0
324,313,308,313,0
311,306,309,310,0
300,298,308,306,0
294,296,306,303,0
292,300,303,302,0
292,309,301,302,0
294,326,300,302,0
296,340,301,302,0
296,343,301,302,0
296,339,301,301,0
296,327,304,302,0
297,309,309,304,0
298,288,315,305,0
299,267,319,306,0
300,262,324,309,0
302,274,327,313,0
304,294,326,317,0
306,310,320,320,0
311,323,312,320,0
321,332,302,317,0
327,334,296,313,0
323,333,299,309,0
307,332,310,307,0
286,329,327,305,0
276,320,346,305,0
276,304,360,306,0
278,280,362,308,0
282,252,356,309,0
288,228,345,310,0
293,214,329,309,0
295,211,314,305,0
295,217,300,301,0
294,231,291,299,0
295,253,288,298,0
297,276,288,299,0
299,294,293,303,0
304,308,299,311,0
311,320,306,320,0
317,329,311,326,0
322,333,311,330,0
324,332,307,331,0
323,328,301,330,0
320,324,297,327,0
317,320,292,320,0
312,316,288,313,0
311,316,286,304,0
313,322,287,297,0
317,334,288,290,0
320,347,289,285,0
318,360,287,281,0
307,370,284,279,0
295,376,284,279,0
289,374,287,281,0
289,363,293,284,0
289,344,299,287,0
293,324,302,291,0
300,305,303,294,0
306,279,301,297,0
309,248,301,300,0
311,227,302,304,0
314,223,303,308,0
314,226,305,313,0
313,227,306,316,0
312,227,307,317,0
312,234,307,316,0
313,255,307,315,0
317,284,310,315,0
319,304,314,316,0
318,311,318,316,0
318,306,321,317,0
321,297,323,317,0
331,283,322,315,0
341,265,318,312,0
347,254,314,310,0
348,255,314,311,0
337,265,315,314,0
318,279,314,316,0
301,299,309,318,0
292,323,304,320,0
289,344,301,321,0
290,358,299,321,0
293,370,298,319,0
296,379,297,316,0
293,384,295,312,0
289,379,294,306,0
288,367,292,299,0
286,343,289,292,0
284,303,288,288,0
282,255,287,287,0
281,220,288,289,0
284,207,291,294,0
289,210,295,299,0
295,218,298,302,0
302,244,301,305,0
308,285,303,308,0
314,324,304,309,0
318,352,303,309,0
320,367,301,307,0
322,374,304,308,0
326,377,315,312,0
335,376,326,315,0
344,370,332,316,0
348,358,336,317,0
343,340,340,318,0
332,319,342,317,0
323,305,336,314,0
318,300,326,310,0
312,294,316,304,0
302,289,310,300,0
295,291,304,298,0
292,298,299,297,0
291,311,295,296,0
291,324,292,295,0
292,336,291,294,0
293,345,290,293,0
294,348,290,291,0
294,347,290,290,0
296,347,291,291,0
299,348,293,293,0
302,345,296,297,0
304,336,299,301,0
303,328,302,306,0
302,320,304,308,0
299,307,306,306,0
299,290,306,303,0
298,271,307,300,0
294,257,310,300,0
293,250,315,301,0
296,252,320,301,0
297,262,321,300,0
295,279,321,298,0
294,298,318,297,0
298,311,314,297,0
306,319,307,296,0
315,323,301,296,0
324,325,296,298,0
331,322,295,300,0
332,314,298,303,0
326,303,305,306,0
318,293,313,309,0
311,283,320,312,0
304,273,324,314,0
298,269,323,316,0
292,273,318,319,0
294,283,309,322,0
300,297,301,323,0
307,311,297,322,0
309,323,295,320,0
308,335,295,319,0
307,348,295,319,0
307,364,297,322,0
309,379,299,325,0
310,383,300,326,0
307,377,299,325,0
302,372,299,319,0
298,370,298,312,0
295,363,298,303,0
294,348,298,295,0
294,329,300,290,0
295,304,301,288,0
295,280,304,288,0
295,269,305,292,0
296,280,307,297,0
296,305,308,303,0
296,326,308,308,0
298,332,308,312,0
301,326,309,313,0
306,316,311,312,0
310,305,314,309,0
312,296,315,305,0
308,286,315,302,0
301,276,313,300,0
296,269,309,298,0
295,266,306,296,0
298,264,303,296,0
302,267,303,297,0
303,281,304,300,0
304,296,307,304,0
309,309,310,306,0
315,322,313,307,0
322,331,315,306,0
325,338,315,306,0
320,342,315,306,0
309,343,314,305,0
299,339,312,305,0
293,332,311,304,0
294,324,309,304,0
297,320,308,303,0
300,321,306,304,0
301,325,304,304,0
301,329,303,305,0
299,337,303,305,0
297,344,302,306,0
296,346,302,306,0
296,345,302,306,0
298,342,304,307,0
303,338,308,308,0
308,333,313,310,0
313,326,316,313,0
316,320,316,314,0
316,314,314,313,0
315,311,311,311,0
313,311,309,309,0
310,311,307,306,0
304,308,306,303,0
298,302,307,301,0
295,295,307,299,0
298,290,306,296,0
304,295,305,295,0
316,301,304,294,0
333,299,304,293,0
345,289,303,292,0
343,278,301,291,0
328,273,300,292,0
315,282,299,294,0
306,300,300,297,0
302,318,302,301,0
301,331,305,307,0
303,336,308,314,0
305,334,310,320,0
305,329,312,323,0
304,321,314,324,0
302,315,316,324,0
300,314,317,323,0
300,318,318,322,0
299,324,318,318,0
299,333,318,312,0
301,341,316,306,0
304,346,312,300,0
304,342,305,296,0
300,335,300,292,0
297,338,297,291,0
295,349,299,293,0
297,353,305,299,0
303,346,313,305,0
308,334,319,310,0
311,321,322,313,0
310,309,321,312,0
305,296,319,310,0
301,285,322,310,0
305,279,326,312,0
320,280,328,316,0
332,287,325,320,0
334,295,319,321,0
328,304,310,322,0
317,313,300,322,0
304,321,292,324,0
295,328,287,328,0
290,332,286,331,0
291,337,287,334,0
297,341,288,334,0
299,343,291,333,0
300,340,292,330,0
299,329,294,325,0
297,312,294,319,0
297,292,295,313,0
299,275,296,309,0
300,266,297,307,0
302,271,299,307,0
303,287,301,307,0
304,304,302,308,0
304,319,303,309,0
303,331,303,310,0
302,340,305,310,0
302,348,308,308,0
305,355,312,306,0
307,354,315,304,0
308,349,315,301,0
309,343,312,300,0
311,339,308,301,0
313,337,305,302,0
315,338,304,302,0
316,340,302,302,0
314,339,301,300,0
311,334,300,298,0
307,322,300,298,0
304,300,299,298,0
301,269,298,298,0
299,243,298,298,0
299,234,299,299,0
300,241,299,301,0
304,255,301,304,0
309,273,303,307,0
319,295,305,312,0
333,311,310,318,0
347,321,314,322,0
352,323,314,323,0
343,321,312,321,0
325,317,310,317,0
309,314,308,313,0
297,315,306,310,0
292,320,306,306,0
292,330,306,304,0
294,340,306,303,0
295,350,306,302,0
295,357,304,301,0
296,360,302,300,0
297,357,301,299,0
299,350,302,299,0
303,343,305,301,0
306,336,307,303,0
308,323,310,304,0
307,300,312,304,0
305,267,312,302,0
302,231,308,299,0
300,199,304,296,0
298,177,301,292,0
298,171,299,289,0
301,196,299,290,0
306,248,301,297,0
313,306,305,306,0
319,347,308,316,0
323,368,311,325,0
325,375,312,332,0
325,377,313,339,0
324,378,312,344,0
323,377,311,348,0
322,375,311,350,0
321,369,310,349,0
319,361,310,344,0
317,353,311,337,0
315,345,311,328,0
314,340,312,317,0
312,337,312,305,0
311,336,313,294,0
315,336,314,287,0
323,336,314,284,0
330,333,308,282,0
329,329,300,282,0
318,325,295,283,0
303,322,293,286,0
296,320,294,290,0
294,319,295,293,0
295,319,297,294,0
295,320,299,293,0
296,322,303,292,0
297,318,307,290,0
295,302,311,288,0
293,276,310,287,0
293,255,306,288,0
296,247,301,292,0
299,250,299,300,0
304,264,299,307,0
307,281,301,314,0
310,296,302,320,0
312,311,303,324,0
313,324,304,326,0
313,332,304,324,0
312,336,304,320,0
311,337,304,316,0
310,334,305,311,0
310,328,305,305,0
309,317,305,299,0
308,307,304,292,0
308,300,301,286,0
309,298,298,282,0
312,303,296,280,0
317,310,296,281,0
320,315,297,282,0
316,311,298,283,0
304,304,299,287,0
290,308,302,293,0
281,323,306,300,0
279,340,312,306,0
286,350,316,311,0
295,350,316,313,0
301,340,315,314,0
302,326,313,313,0
302,316,310,313,0
302,310,306,313,0
304,310,304,314,0
306,314,302,314,0
309,319,301,314,0
309,321,301,314,0
308,319,300,314,0
306,314,300,314,0
305,310,300,315,0
304,306,301,316,0
305,302,304,317,0
305,298,306,319,0
306,295,309,320,0
307,295,311,322,0
309,298,312,324,0
311,308,312,325,0
312,327,310,325,0
311,352,306,324,0
310,375,303,323,0
309,388,301,321,0
310,386,299,317,0
309,374,297,311,0
306,359,296,306,0
302,346,297,304,0
301,336,303,305,0
305,331,308,306,0
310,328,311,305,0
311,323,311,304,0
313,316,310,301,0
314,305,308,298,0
317,295,306,296,0
321,286,304,295,0
321,281,304,297,0
314,283,304,299,0
305,289,304,302,0
299,293,304,303,0
297,289,303,303,0
300,278,302,302,0
306,266,301,302,0
309,260,300,302,0
305,264,301,303,0
300,279,303,303,0
297,293,305,302,0
295,303,308,301,0
293,315,313,300,0
293,328,319,301,0
295,340,325,302,0
298,345,326,302,0
301,342,320,303,0
301,336,311,305,0
301,331,304,307,0
304,322,299,307,0
308,309,297,307,0
315,298,297,307,0
320,290,298,308,0
319,291,300,310,0
317,300,303,313,0
313,312,305,315,0
310,324,306,316,0
305,331,305,317,0
300,331,304,316,0
295,322,304,315,0
291,307,304,312,0
288,291,304,310,0
287,280,304,308,0
288,278,304,308,0
290,288,305,308,0
295,303,305,310,0
300,314,305,313,0
304,320,305,317,0
308,323,306,321,0
311,326,307,326,0
313,328,308,330,0
314,329,309,332,0
314,328,309,333,0
313,328,309,332,0
311,328,310,329,0
309,329,311,323,0
307,330,312,317,0
304,330,312,312,0
302,331,312,308,0
302,330,310,305,0
306,326,305,304,0
312,322,301,304,0
318,318,299,305,0
321,315,298,304,0
319,311,300,302,0
311,307,306,301,0
302,306,311,300,0
296,308,311,300,0
294,312,309,300,0
294,314,307,299,0
296,315,305,298,0
296,314,303,298,0
294,311,303,300,0
291,303,305,302,0
289,296,309,304,0
290,291,312,306,0
293,288,313,308,0
298,285,313,310,0
301,281,312,311,0
303,276,309,311,0
302,275,304,310,0
300,279,301,307,0
300,279,299,303,0
303,274,298,299,0
307,268,297,295,0
311,267,296,293,0
316,279,293,295,0
327,299,293,299,0
342,320,295,303,0
350,336,296,305,0
342,348,297,306,0
324,357,298,305,0
306,363,301,303,0
293,361,303,301,0
286,347,305,300,0
283,326,307,300,0
283,309,308,302,0
286,302,306,305,0
290,307,305,308,0
295,315,305,312,0
300,321,307,315,0
306,323,310,316,0
310,324,311,315,0
310,323,310,312,0
305,321,308,308,0
301,321,306,305,0
297,321,305,304,0
297,320,305,302,0
298,316,305,302,0
300,307,306,304,0
302,298,306,306,0
303,294,307,308,0
302,296,307,310,0
296,305,305,311,0
288,318,303,311,0
282,328,304,312,0
285,333,306,313,0
292,331,308,312,0
301,318,306,309,0
308,297,304,304,0
311,271,302,299,0
310,253,301,297,0
309,241,301,296,0
308,233,302,296,0
313,235,305,296,0
321,251,307,296,0
331,275,309,296,0
339,296,308,296,0
339,309,306,294,0
329,316,302,293,0
311,320,301,292,0
296,327,301,293,0
287,336,301,296,0
284,347,302,299,0
285,355,303,303,0
288,362,304,305,0
291,364,305,305,0
294,360,305,305,0
296,352,305,304,0
297,339,306,305,0
299,327,307,307,0
302,321,308,310,0
304,317,310,313,0
306,307,310,315,0
308,289,310,315,0
309,269,310,315,0
309,259,309,315,0
310,260,308,315,0
310,270,307,315,0
309,283,306,316,0
309,297,305,318,0
307,308,305,320,0
304,315,305,320,0
301,318,304,319,0
303,318,304,317,0
312,313,305,313,0
319,305,304,308,0
318,298,303,302,0
313,297,301,297,0
308,298,301,294,0
305,306,301,292,0
304,321,303,293,0
305,339,303,293,0
308,349,301,295,0
313,353,300,298,0
322,352,299,301,0
331,345,299,305,0
329,332,299,309,0
319,316,298,312,0
305,297,298,313,0
297,281,300,314,0
293,272,302,316,0
293,269,305,316,0
294,271,306,316,0
295,278,306,315,0
295,288,305,312,0
295,296,304,309,0
296,298,302,307,0
298,297,302,306,0
299,301,302,306,0
301,307,302,308,0
303,309,303,310,0
303,308,305,313,0
303,307,306,316,0
303,305,305,319,0
304,302,303,322,0
304,298,303,326,0
305,290,302,329,0
305,282,302,332,0
306,275,302,332,0
307,274,303,330,0
309,275,303,327,0
309,277,303,322,0
305,278,302,315,0
300,281,303,310,0
297,288,304,305,0
298,298,304,302,0
303,308,304,300,0
306,318,305,300,0
311,325,308,302,0
315,327,311,304,0
316,324,312,306,0
314,319,311,308,0
309,316,307,308,0
302,315,302,306,0
298,317,297,305,0
296,322,293,303,0
296,324,291,301,0
298,318,291,302,0
301,307,292,303,0
303,297,295,304,0
305,292,297,306,0
307,294,299,309,0
307,303,300,311,0
308,312,300,314,0
308,317,300,316,0
308,318,299,317,0
308,318,299,316,0
308,319,299,316,0
308,323,299,315,0
306,326,299,315,0
303,330,300,316,0
304,336,300,317,0
309,343,299,316,0
314,351,297,315,0
316,358,294,313,0
314,361,292,313,0
310,356,290,313,0
305,341,290,314,0
306,320,294,316,0
315,299,301,319,0
328,282,309,320,0
338,268,313,318,0
337,259,313,315,0
325,257,312,313,0
310,260,309,312,0
303,266,306,312,0
304,271,303,311,0
304,274,300,307,0
300,276,297,303,0
295,276,295,299,0
291,276,294,296,0
289,280,293,294,0
289,286,293,295,0
291,295,294,297,0
294,302,296,301,0
297,308,298,305,0
300,314,300,309,0
303,320,302,314,0
306,326,304,318,0
309,330,306,321,0
310,331,308,323,0
311,326,309,323,0
310,315,309,322,0
310,300,308,320,0
310,289,308,318,0
311,283,307,316,0
312,280,305,312,0
310,284,303,311,0
304,296,302,312,0
300,310,301,312,0
300,321,301,312,0
302,328,303,312,0
303,326,306,311,0
302,319,310,310,0
302,307,312,310,0
302,294,312,309,0
301,281,310,307,0
300,270,307,306,0
298,269,307,305,0
297,286,306,305,0
296,311,306,305,0
295,328,308,305,0
295,333,308,306,0
297,331,307,308,0
300,326,306,311,0
301,322,308,314,0
301,321,308,316,0
299,321,307,317,0
297,323,305,317,0
296,326,304,316,0
297,330,304,313,0
299,331,304,309,0
302,331,305,304,0
305,328,307,302,0
309,325,309,300,0
312,319,312,301,0
314,310,311,302,0
316,302,309,306,0
316,298,306,310,0
315,299,304,316,0
314,305,305,320,0
313,312,307,324,0
312,319,309,324,0
311,325,308,323,0
307,330,307,322,0
304,331,305,321,0
302,325,304,319,0
301,313,305,317,0
300,297,307,314,0
300,276,308,312,0
300,253,307,310,0
302,235,306,309,0
312,227,306,310,0
326,240,307,311,0
335,268,307,313,0
333,299,308,314,0
323,323,308,313,0
313,336,308,311,0
304,337,307,309,0
300,333,307,309,0
298,329,308,309,0
297,327,308,307,0
295,328,308,305,0
291,330,307,302,0
288,331,307,298,0
286,332,307,295,0
286,331,307,295,0
287,331,307,296,0
290,330,308,297,0
294,329,309,298,0
298,327,309,299,0
301,322,309,298,0
304,315,306,297,0
304,308,303,296,0
307,303,301,297,0
318,301,302,298,0
334,302,303,300,0
349,304,304,301,0
358,310,305,303,0
355,321,308,306,0
337,328,311,309,0
315,325,313,311,0
299,317,314,312,0
290,309,314,311,0
287,302,314,310,0
288,295,314,309,0
289,287,314,308,0
291,276,314,308,0
292,266,313,308,0
294,260,313,309,0
295,258,312,308,0
296,258,311,307,0
295,256,309,304,0
295,259,308,301,0
296,275,308,300,0
298,297,308,299,0
301,317,309,297,0
303,329,310,297,0
306,333,310,297,0
308,335,308,298,0
309,336,308,298,0
308,336,307,299,0
307,335,307,300,0
307,336,306,300,0
308,336,305,299,0
309,336,304,299,0
308,333,304,299,0
306,322,306,298,0
305,306,309,296,0
306,290,312,294,0
308,279,315,294,0
309,282,314,295,0
309,299,311,296,0
308,316,309,297,0
307,321,307,298,0
305,320,306,302,0
304,314,307,307,0
303,305,307,312,0
301,302,307,316,0
300,304,307,321,0
302,311,309,325,0
304,318,312,328,0
305,323,315,329,0
305,326,317,328,0
306,326,317,324,0
307,325,315,318,0
308,323,312,310,0
309,321,308,303,0
308,320,303,298,0
308,320,299,295,0
308,323,297,294,0
308,327,295,295,0
306,328,295,295,0
304,326,297,296,0
303,321,300,299,0
303,315,303,303,0
308,308,306,308,0
317,301,309,313,0
328,291,310,317,0
333,282,309,320,0
326,277,308,322,0
314,277,306,324,0
304,283,305,325,0
298,290,304,323,0
297,296,304,320,0
299,302,305,317,0
302,308,305,311,0
303,313,305,305,0
303,317,305,300,0
302,318,304,296,0
301,311,303,294,0
299,296,302,291,0
296,274,301,287,0
294,253,300,284,0
293,242,299,281,0
294,250,299,282,0
297,268,300,284,0
302,283,303,290,0
306,295,306,297,0
310,305,310,303,0
313,313,311,307,0
314,317,311,308,0
315,317,310,308,0
315,315,309,307,0
314,310,309,305,0
312,303,309,303,0
307,297,309,302,0
302,297,309,301,0
299,302,309,301,0
298,308,308,298,0
297,312,306,296,0
295,320,303,294,0
295,332,301,294,0
298,341,301,296,0
304,341,303,299,0
309,334,304,303,0
312,326,305,306,0
312,321,305,309,0
310,317,305,311,0
309,313,304,312,0
310,312,304,314,0
313,316,304,315,0
318,326,304,314,0
322,343,303,312,0
321,364,301,309,0
313,383,301,306,0
301,389,301,304,0
293,383,303,305,0
288,366,305,306,0
286,343,306,306,0
286,317,308,306,0
290,303,309,306,0
297,303,312,306,0
305,306,313,305,0
308,304,313,302,0
306,295,311,300,0
298,283,308,300,0
290,273,306,302,0
291,267,306,305,0
302,264,306,306,0
316,266,304,307,0
327,270,302,305,0
332,273,300,303,0
326,276,299,300,0
314,277,300,299,0
303,277,303,300,0
299,276,304,302,0
300,275,305,305,0
301,277,305,307,0
301,284,305,310,0
303,291,306,312,0
304,295,306,313,0
306,300,306,313,0
309,305,306,312,0
311,310,306,309,0
314,316,307,307,0
316,320,308,306,0
318,322,309,304,0
318,320,309,303,0
315,316,309,302,0
312,311,309,302,0
308,304,309,302,0
306,298,310,303,0
304,292,310,303,0
305,287,309,303,0
307,281,308,302,0
310,276,308,304,0
316,274,310,306,0
324,272,312,306,0
328,273,310,304,0
322,280,309,301,0
314,288,307,298,0
306,292,306,294,0
301,300,305,294,0
301,314,306,295,0
303,325,306,298,0
307,332,308,301,0
310,335,310,306,0
312,335,314,311,0
314,332,317,317,0
315,329,319,320,0
314,327,320,321,0
312,326,319,319,0
309,327,317,317,0
306,327,314,316,0
304,328,310,314,0
303,329,306,311,0
303,329,303,308,0
303,327,302,305,0
303,321,302,302,0
303,311,303,299,0
302,300,304,298,0
299,292,305,297,0
295,287,306,296,0
291,286,307,295,0
289,284,307,294,0
290,279,308,294,0
296,274,310,297,0
302,275,313,301,0
308,281,314,305,0
312,290,314,308,0
314,302,312,308,0
314,313,310,307,0
311,324,309,306,0
307,335,310,305,0
304,344,311,305,0
305,346,312,305,0
310,344,313,306,0
318,336,314,308,0
322,327,313,309,0
319,318,311,308,0
312,311,307,306,0
304,306,304,304,0
298,304,301,302,0
295,304,299,301,0
296,307,300,301,0
300,313,300,303,0
305,320,301,305,0
306,328,302,305,0
305,337,302,305,0
305,345,303,306,0
307,349,305,309,0
308,345,307,311,0
309,336,310,312,0
310,325,312,313,0
310,314,314,313,0
310,304,314,313,0
310,297,314,315,0
311,294,315,317,0
315,293,316,321,0
319,293,316,323,0
322,290,315,323,0
321,284,314,323,0
318,275,313,323,0
312,265,311,323,0
307,256,310,323,0
304,250,310,321,0
302,254,309,320,0
302,269,311,318,0
302,288,312,316,0
302,304,312,312,0
302,314,311,306,0
300,322,310,301,0
299,327,309,297,0
299,331,308,293,0
300,334,307,290,0
302,335,306,288,0
305,335,306,287,0
310,334,307,286,0
314,329,308,285,0
316,322,307,285,0
312,311,306,285,0
307,293,304,286,0
308,272,304,288,0
313,254,305,289,0
317,246,304,292,0
310,258,303,296,0
292,282,302,303,0
275,305,304,310,0
270,320,307,316,0
278,326,311,321,0
292,322,313,322,0
302,315,311,320,0
302,312,307,316,0
297,312,304,313,0
293,313,304,313,0
294,312,306,314,0
295,310,308,317,0
296,309,309,318,0
297,309,309,317,0
298,309,308,313,0
300,310,307,309,0
304,312,305,304,0
311,312,303,301,0
315,310,301,301,0
311,304,300,303,0
