308,308,322,282,2
309,315,317,282,2
309,317,303,283,2
308,313,290,284,2
307,311,282,287,2
307,314,278,291,2
307,320,273,296,2
306,330,269,301,2
305,345,267,305,2
304,360,266,308,2
304,370,267,308,2
304,371,269,307,2
303,361,272,304,2
304,342,274,301,2
303,322,276,298,2
304,307,276,298,2
304,297,276,299,2
305,293,274,301,2
306,295,273,303,2
308,300,272,303,2
310,308,273,302,2
311,316,275,299,2
312,327,278,297,2
312,337,283,296,2
313,343,288,296,2
314,344,293,297,2
316,340,296,300,2
316,332,299,304,2
316,322,301,309,2
314,315,300,315,2
312,309,297,320,2
310,304,298,321,2
309,300,305,318,2
310,294,316,310,2
310,288,328,303,2
311,289,335,298,2
311,296,338,296,2
311,306,332,293,2
311,319,314,291,2
309,329,290,289,2
308,331,271,287,2
307,326,259,286,2
307,320,255,286,2
307,316,257,285,2
307,313,261,285,2
307,315,264,285,2
306,321,265,287,2
305,328,262,289,2
304,334,259,292,2
304,339,257,295,2
304,338,256,299,2
304,333,257,304,2
305,322,259,310,2
306,313,262,315,2
308,305,266,318,2
311,299,272,320,2
313,293,279,319,2
315,287,285,314,2
315,282,291,307,2
315,285,292,301,2
314,293,288,296,2
313,304,282,292,2
313,310,274,289,2
312,312,267,287,2
311,309,261,284,2
310,303,257,283,2
309,294,256,283,2
309,285,256,283,2
309,279,257,285,2
308,280,260,286,2
307,287,265,289,2
308,297,269,290,2
308,307,272,290,2
308,315,275,288,2
309,323,278,287,2
309,331,281,287,2
310,339,282,290,2
310,348,283,294,2
310,355,283,298,2
312,358,282,302,2
312,357,279,305,2
313,350,277,305,2
313,339,276,302,2
313,324,276,297,2
312,308,277,294,2
312,294,278,292,2
311,288,280,293,2
310,293,281,295,2
308,308,282,298,2
306,322,283,303,2
305,326,284,307,2
304,326,284,310,2
304,325,284,312,2
304,322,287,314,2
305,315,292,316,2
307,304,300,317,2
309,293,311,318,2
311,285,321,319,2
313,277,325,320,2
314,274,325,318,2
314,274,323,313,2
314,276,321,305,2
314,281,319,294,2
314,287,319,285,2
315,295,323,280,2
315,302,330,280,2
314,305,337,283,2
314,306,340,288,2
313,307,341,295,2
312,309,340,304,2
310,310,333,312,2
308,310,322,320,2
307,311,315,328,2
308,314,313,333,2
309,320,318,332,2
310,328,327,327,2
310,336,336,318,2
310,340,343,306,2
310,339,345,296,2
311,331,339,288,2
311,318,328,282,2
310,303,319,278,2
309,292,311,277,2
308,288,307,276,2
308,288,307,276,2
307,290,308,277,2
307,290,310,279,2
306,289,312,280,2
305,286,313,281,2
305,284,314,281,2
305,287,316,283,2
306,295,318,286,2
306,304,320,290,2
306,311,323,296,2
309,313,325,303,2
311,311,326,311,2
314,307,326,319,2
315,305,327,326,2
317,305,329,332,2
318,306,331,336,2
318,308,333,337,2
318,311,335,336,2
317,313,336,333,2
315,313,335,328,2
314,311,334,322,2
313,309,331,313,2
312,307,327,305,2
310,306,322,299,2
308,306,318,296,2
307,307,316,293,2
307,304,316,292,2
308,299,318,290,2
309,293,321,287,2
310,288,323,285,2
312,289,323,282,2
314,296,323,282,2
316,305,325,285,2
318,315,327,289,2
318,323,327,293,2
317,330,329,295,2
316,334,331,296,2
315,335,332,298,2
315,334,331,301,2
315,334,327,305,2
314,339,321,308,2
313,342,315,309,2
311,343,311,307,2
310,342,307,304,2
308,341,303,298,2
307,339,301,289,2
306,335,300,280,2
305,327,301,274,2
305,316,302,272,2
304,302,302,273,2
303,288,301,276,2
302,276,298,280,2
303,268,297,285,2
303,263,297,289,2
303,259,301,294,2
304,258,307,298,2
305,259,315,301,2
306,262,322,304,2
307,267,325,307,2
308,275,318,308,2
308,285,305,308,2
308,293,293,306,2
307,301,286,304,2
306,308,282,302,2
305,315,283,301,2
304,320,287,300,2
304,319,293,300,2
304,311,298,297,2
306,298,301,294,2
307,287,302,293,2
308,279,298,294,2
309,276,291,295,2
310,280,285,296,2
310,289,282,296,2
311,297,284,298,2
312,304,287,300,2
313,308,289,305,2
313,311,290,312,2
313,313,290,321,2
313,315,290,328,2
313,316,290,332,2
313,318,289,331,2
312,321,289,328,2
311,324,289,323,2
310,328,289,318,2
310,332,289,315,2
311,334,290,312,2
311,333,290,311,2
311,331,290,310,2
312,333,289,309,2
313,338,288,308,2
314,347,287,306,2
313,355,286,306,2
313,356,288,308,2
312,345,295,311,2
312,325,305,313,2
313,303,314,313,2
315,285,321,312,2
317,276,325,308,2
317,273,322,302,2
315,274,315,295,2
312,277,307,288,2
310,281,302,284,2
308,284,301,281,2
308,286,302,280,2
308,290,302,281,2
308,293,300,282,2
308,295,299,283,2
308,297,300,283,2
309,301,300,284,2
309,309,298,284,2
309,320,294,285,2
308,329,289,287,2
307,333,287,292,2
306,331,287,296,2
307,326,288,298,2
307,320,289,301,2
308,320,290,304,2
308,323,291,306,2
308,326,293,306,2
308,327,294,305,2
307,322,295,304,2
308,317,295,302,2
309,312,296,300,2
310,306,298,299,2
310,300,303,298,2
311,293,306,297,2
310,287,307,297,2
309,287,309,298,2
307,293,311,299,2
306,305,314,301,2
306,322,317,303,2
306,341,322,306,2
307,357,325,308,2
308,363,325,310,2
309,356,323,310,2
310,339,321,310,2
311,322,321,309,2
312,307,321,307,2
312,296,320,305,2
311,286,317,303,2
310,278,315,302,2
309,274,317,302,2
309,273,324,304,2
308,273,334,308,2
308,277,342,313,2
307,285,347,319,2
308,293,345,324,2
308,299,339,330,2
308,301,333,334,2
307,301,330,335,2
307,300,327,333,2
306,301,325,329,2
308,306,323,323,2
310,310,322,319,2
313,312,321,313,2
314,313,321,305,2
315,314,323,298,2
314,316,326,293,2
314,319,331,291,2
313,324,335,291,2
313,327,339,293,2
313,328,340,298,2
313,325,337,304,2
314,317,330,308,2
315,304,324,310,2
315,290,320,311,2
314,281,321,312,2
313,276,325,314,2
312,275,329,315,2
312,276,329,315,2
312,281,327,315,2
313,290,324,317,2
314,298,321,317,2
315,304,319,315,2
315,308,318,313,2
316,310,319,312,2
316,309,320,312,2
317,307,322,313,2
316,303,323,313,2
315,300,324,311,2
313,300,325,307,2
312,303,326,300,2
311,307,329,292,2
311,313,332,283,2
312,318,335,276,2
313,324,337,272,2
314,329,335,271,2
314,332,330,271,2
314,332,324,273,2
315,329,318,275,2
315,325,314,277,2
316,323,313,281,2
318,323,313,285,2
319,323,314,289,2
319,323,314,295,2
319,323,314,302,2
319,323,315,310,2
317,321,316,317,2
316,320,318,320,2
315,319,318,320,2
314,321,318,318,2
313,324,319,316,2
312,325,322,312,2
311,321,327,306,2
311,312,331,301,2
311,300,336,296,2
311,287,340,293,2
312,273,341,290,2
312,260,337,287,2
312,251,330,285,2
313,252,323,284,2
314,261,317,285,2
315,271,312,287,2
316,280,309,290,2
316,285,307,293,2
315,289,307,295,2
314,293,306,294,2
313,303,304,293,2
313,318,303,292,2
312,333,303,291,2
312,344,302,292,2
313,349,301,295,2
313,346,300,299,2
314,334,301,304,2
314,317,303,311,2
315,303,305,318,2
315,295,307,327,2
315,292,308,335,2
314,292,309,340,2
313,291,309,342,2
313,291,309,343,2
313,292,309,342,2
313,293,309,339,2
313,296,308,333,2
313,299,309,323,2
313,303,310,313,2
313,308,310,304,2
312,312,311,300,2
312,315,311,299,2
312,314,311,300,2
311,315,310,301,2
309,318,308,302,2
307,326,306,304,2
306,338,304,304,2
306,350,302,305,2
306,356,300,305,2
306,354,298,305,2
306,344,295,305,2
305,330,295,304,2
306,313,295,301,2
308,296,295,296,2
310,280,296,290,2
313,266,297,285,2
316,257,299,281,2
318,254,300,280,2
318,258,302,281,2
319,267,304,284,2
318,281,306,288,2
317,292,310,291,2
316,300,318,295,2
314,302,328,297,2
313,300,339,299,2
312,298,345,300,2
311,297,344,301,2
310,296,337,301,2
309,296,325,299,2
308,296,311,298,2
306,297,300,297,2
305,297,295,298,2
305,300,293,300,2
305,303,294,300,2
306,308,295,299,2
308,313,297,299,2
309,320,301,300,2
311,327,306,302,2
312,335,311,306,2
312,341,316,312,2
312,343,319,318,2
312,344,319,321,2
311,345,317,321,2
310,343,314,318,2
311,338,312,314,2
313,330,311,309,2
315,319,309,305,2
317,307,306,301,2
316,298,303,298,2
315,293,302,296,2
314,290,302,295,2
313,290,303,294,2
313,292,304,293,2
312,296,304,292,2
311,299,304,291,2
311,301,302,292,2
311,301,304,293,2
312,299,309,294,2
314,294,318,294,2
316,284,325,293,2
319,275,328,293,2
320,267,328,293,2
320,262,324,293,2
320,260,316,292,2
319,261,307,292,2
317,265,300,295,2
315,273,295,299,2
313,281,292,304,2
311,289,293,308,2
311,296,297,312,2
312,303,300,316,2
313,310,302,320,2
314,315,300,320,2
313,315,299,317,2
312,313,298,314,2
311,314,299,312,2
312,316,303,311,2
313,316,307,313,2
314,316,309,315,2
314,316,310,317,2
314,317,312,317,2
314,316,315,316,2
314,315,320,311,2
314,316,324,305,2
313,317,325,300,2
313,320,325,295,2
312,323,324,290,2
310,325,323,286,2
308,326,321,283,2
307,323,318,282,2
307,314,313,283,2
307,302,308,286,2
307,292,307,288,2
308,286,310,290,2
311,286,318,293,2
314,287,330,297,2
316,285,343,302,2
318,285,352,307,2
319,285,353,311,2
319,285,346,315,2
319,283,337,318,2
317,284,329,318,2
315,287,324,317,2
313,291,322,315,2
310,296,323,314,2
307,301,326,311,2
306,304,327,311,2
305,307,329,310,2
306,308,327,312,2
307,308,322,314,2
310,306,318,316,2
312,303,321,317,2
314,300,332,315,2
316,295,349,313,2
319,290,365,312,2
321,292,378,312,2
323,302,386,314,2
325,316,389,315,2
325,329,386,315,2
325,339,377,315,2
324,343,371,316,2
323,341,377,317,2
322,336,391,318,2
321,329,404,319,2
320,323,411,320,2
318,318,407,321,2
316,313,389,320,2
313,307,361,320,2
309,302,335,319,2
306,301,320,318,2
303,305,314,316,2
300,311,315,311,2
298,319,319,302,2
297,327,320,292,2
297,331,321,285,2
298,330,323,282,2
301,320,329,282,2
305,304,339,284,2
309,290,353,287,2
312,283,368,289,2
314,287,379,291,2
314,297,382,293,2
314,303,380,295,2
312,302,377,295,2
311,294,375,296,2
310,287,372,299,2
312,286,369,305,2
314,292,366,312,2
316,299,365,319,2
316,300,365,325,2
315,297,360,329,2
312,297,355,331,2
309,300,348,329,2
306,305,339,325,2
304,308,327,320,2
303,309,314,316,2
302,309,305,313,2
303,310,303,312,2
306,315,306,313,2
310,323,314,314,2
313,329,327,313,2
314,326,341,309,2
314,313,350,303,2
314,295,353,296,2
314,280,354,289,2
313,273,348,282,2
310,275,340,278,2
307,281,336,277,2
306,289,337,277,2
306,297,337,277,2
306,302,336,275,2
305,301,334,273,2
305,293,335,271,2
305,281,343,271,2
307,272,352,273,2
309,272,356,277,2
311,277,351,284,2
313,284,340,294,2
315,287,323,303,2
316,287,306,310,2
315,286,294,315,2
314,288,288,318,2
312,292,286,318,2
311,302,284,318,2
309,318,281,315,2
309,335,281,308,2
307,348,282,297,2
307,351,285,286,2
307,343,290,277,2
308,327,294,273,2
310,313,298,273,2
311,301,303,275,2
311,297,308,279,2
311,299,313,284,2
310,304,317,290,2
308,306,319,295,2
306,303,313,300,2
305,303,298,304,2
305,309,279,306,2
305,315,265,305,2
305,315,257,301,2
304,307,254,296,2
304,289,254,290,2
305,270,258,287,2
307,258,263,286,2
307,252,268,290,2
307,251,275,296,2
307,254,281,302,2
306,264,288,309,2
306,279,293,315,2
305,298,296,318,2
304,315,296,318,2
303,329,293,315,2
304,338,289,310,2
306,339,290,304,2
307,333,298,301,2
308,325,306,301,2
309,317,309,303,2
309,308,310,303,2
310,299,312,303,2
312,291,318,302,2
313,287,325,304,2
314,286,335,306,2
314,286,347,309,2
315,286,361,313,2
314,284,375,316,2
314,283,385,319,2
315,281,388,322,2
315,280,380,321,2
314,284,360,319,2
311,292,331,313,2
308,301,303,304,2
306,308,279,295,2
306,311,261,289,2
307,311,246,287,2
308,309,236,287,2
309,312,232,289,2
309,322,232,293,2
310,334,236,297,2
310,345,241,300,2
309,354,247,299,2
308,358,254,295,2
307,352,261,290,2
306,337,267,285,2
305,319,272,282,2
304,302,278,279,2
304,285,283,279,2
305,268,289,281,2
306,254,291,285,2
306,247,289,291,2
307,254,288,298,2
308,270,286,305,2
308,285,285,309,2
309,294,283,310,2
309,298,282,309,2
311,299,284,308,2
313,299,288,306,2
315,299,295,304,2
317,298,302,302,2
318,296,306,300,2
318,292,307,298,2
318,288,306,296,2
318,286,302,292,2
317,287,298,288,2
315,289,295,285,2
313,296,292,282,2
311,305,290,281,2
310,313,289,282,2
308,316,292,285,2
308,316,297,289,2
308,313,304,293,2
310,303,314,297,2
313,292,325,301,2
315,286,330,304,2
317,289,327,307,2
318,296,318,308,2
318,303,305,307,2
316,307,292,303,2
314,306,284,299,2
313,301,280,298,2
313,293,278,300,2
314,288,278,304,2
315,288,276,308,2
314,293,272,310,2
313,298,269,309,2
311,304,269,307,2
311,308,271,305,2
311,308,276,304,2
311,303,279,301,2
310,295,283,299,2
310,289,287,296,2
309,284,291,293,2
309,278,297,290,2
309,273,307,288,2
310,274,318,287,2
313,284,326,289,2
314,301,326,291,2
313,320,315,294,2
313,339,297,297,2
313,357,284,301,2
313,369,276,304,2
313,373,274,308,2
314,371,273,312,2
316,360,272,316,2
316,342,271,320,2
316,320,274,323,2
315,299,278,324,2
313,283,282,321,2
311,274,285,318,2
309,272,289,314,2
309,274,293,310,2
309,275,297,306,2
309,274,299,301,2
309,272,301,296,2
309,268,302,293,2
308,265,304,292,2
309,266,305,293,2
309,270,306,295,2
310,277,307,298,2
311,287,310,303,2
310,296,313,308,2
309,302,315,314,2
308,309,317,318,2
307,315,319,321,2
306,321,320,322,2
307,328,323,323,2
309,335,325,323,2
311,338,327,321,2
313,333,329,316,2
314,324,330,309,2
315,314,332,304,2
316,304,336,300,2
317,295,343,299,2
318,289,353,300,2
319,290,362,301,2
320,298,371,301,2
320,308,377,300,2
320,315,375,299,2
321,318,370,295,2
321,318,361,292,2
321,314,351,290,2
319,306,339,288,2
315,300,328,287,2
311,299,322,288,2
307,299,323,290,2
305,296,329,294,2
306,293,337,300,2
308,290,342,305,2
309,288,341,309,2
309,288,333,314,2
310,290,326,318,2
311,294,323,324,2
313,298,326,329,2
313,302,333,331,2
314,305,338,330,2
315,307,345,327,2
316,307,356,322,2
318,304,370,317,2
320,299,382,313,2
321,295,386,308,2
321,294,382,302,2
319,296,370,296,2
317,297,352,289,2
314,298,335,284,2
313,296,324,281,2
312,291,319,281,2
312,282,319,281,2
313,277,321,283,2
315,280,324,286,2
315,291,327,290,2
315,305,330,292,2
314,315,334,292,2
313,319,339,293,2
313,314,344,293,2
315,305,347,294,2
317,297,347,294,2
320,290,344,294,2
321,284,338,294,2
321,279,335,296,2
320,279,337,299,2
318,285,340,304,2
317,296,340,308,2
315,310,336,312,2
313,324,328,313,2
311,337,318,312,2
309,347,308,310,2
309,354,303,306,2
309,358,302,300,2
310,357,305,292,2
311,347,304,284,2
311,331,301,279,2
311,310,297,276,2
311,287,295,275,2
312,267,296,278,2
312,255,298,283,2
313,253,301,289,2
314,257,304,296,2
314,265,306,302,2
315,272,309,308,2
316,278,312,313,2
317,283,314,316,2
317,287,317,318,2
316,291,318,318,2
315,295,317,316,2
314,301,314,315,2
312,311,311,314,2
310,322,309,317,2
309,330,308,320,2
309,331,308,320,2
310,327,310,319,2
311,323,315,316,2
312,319,322,314,2
312,317,330,313,2
314,315,336,314,2
315,313,338,313,2
317,309,333,310,2
317,301,326,304,2
317,293,322,297,2
316,287,322,291,2
315,285,324,284,2
314,287,326,280,2
313,290,328,278,2
313,295,331,277,2
313,299,333,277,2
311,302,328,277,2
309,305,318,278,2
308,309,307,280,2
307,313,297,283,2
307,316,287,286,2
308,316,282,290,2
309,312,279,295,2
310,307,280,298,2
310,303,281,301,2
309,304,282,303,2
309,309,282,305,2
311,318,283,307,2
313,326,286,308,2
314,336,292,308,2
315,344,299,306,2
315,346,306,304,2
315,340,311,302,2
315,333,312,302,2
314,325,310,302,2
314,317,306,302,2
313,306,304,302,2
313,294,303,303,2
312,288,302,303,2
311,288,298,303,2
310,292,293,302,2
309,300,290,301,2
309,307,288,302,2
308,312,289,302,2
308,311,291,303,2
309,307,292,304,2
310,302,291,307,2
311,295,290,310,2
312,290,294,314,2
313,290,298,319,2
315,294,301,323,2
316,301,303,325,2
316,308,304,326,2
315,315,305,324,2
314,321,306,320,2
314,321,309,314,2
314,315,313,309,2
314,305,317,304,2
315,294,314,302,2
314,280,307,301,2
313,269,298,301,2
312,263,291,301,2
311,262,288,302,2
310,269,286,303,2
310,277,287,304,2
311,285,290,302,2
312,291,292,299,2
312,297,294,298,2
313,303,297,300,2
312,310,304,305,2
311,318,313,312,2
311,327,320,319,2
311,336,325,326,2
312,341,326,331,2
311,340,322,333,2
311,336,314,332,2
311,331,306,328,2
312,327,301,322,2
313,323,299,314,2
312,320,297,306,2
311,317,295,299,2
309,314,291,291,2
307,309,288,286,2
306,306,286,283,2
305,305,286,283,2
306,305,288,285,2
307,304,287,288,2
308,299,284,290,2
310,291,281,292,2
310,282,280,293,2
311,273,284,294,2
311,268,291,296,2
311,267,299,298,2
311,269,306,300,2
310,275,308,300,2
309,286,306,300,2
308,297,303,299,2
307,305,298,298,2
306,310,295,297,2
305,313,295,296,2
305,314,298,294,2
304,316,304,294,2
304,320,308,295,2
303,322,309,296,2
303,324,308,297,2
303,322,307,299,2
303,319,308,299,2
305,314,309,299,2
308,309,312,298,2
310,305,315,298,2
311,304,319,298,2
312,311,322,300,2
310,323,322,302,2
308,333,320,305,2
306,335,319,306,2
304,329,320,307,2
304,318,324,308,2
304,305,330,309,2
304,294,334,308,2
303,287,335,306,2
303,281,334,304,2
303,278,336,303,2
303,277,339,302,2
304,279,341,303,2
304,282,341,304,2
306,286,340,307,2
308,288,340,310,2
310,287,338,310,2
312,285,336,309,2
313,285,334,306,2
314,288,335,302,2
314,296,337,299,2
314,305,341,296,2
313,312,344,294,2
312,313,346,292,2
311,310,346,291,2
309,304,347,290,2
308,299,351,290,2
308,295,355,290,2
309,294,358,291,2
309,297,363,294,2
310,298,368,298,2
310,300,374,303,2
311,301,380,310,2
313,300,384,316,2
315,300,383,322,2
316,304,369,327,2
316,313,349,331,2
315,323,332,335,2
314,334,319,336,2
313,343,313,336,2
312,350,311,335,2
311,353,312,330,2
311,351,315,323,2
310,346,318,312,2
309,339,319,299,2
309,332,320,286,2
309,323,321,275,2
309,312,324,269,2
310,300,330,266,2
310,289,338,266,2
310,281,351,270,2
309,280,366,276,2
308,284,379,284,2
307,289,390,290,2
306,292,391,296,2
305,292,383,298,2
305,289,368,300,2
304,287,350,301,2
304,286,335,302,2
304,288,328,304,2
306,295,331,306,2
307,306,341,308,2
308,321,354,310,2
309,337,362,311,2
310,351,361,310,2
309,358,351,309,2
308,360,338,309,2
307,354,327,309,2
306,344,319,309,2
305,331,313,310,2
305,321,311,311,2
305,312,309,311,2
305,300,305,311,2
305,288,299,312,2
304,280,293,312,2
303,277,288,312,2
301,276,287,311,2
301,272,290,311,2
303,272,297,312,2
306,276,306,311,2
308,281,317,309,2
310,283,324,307,2
311,287,322,304,2
309,293,315,301,2
307,302,310,298,2
305,315,307,296,2
304,335,304,295,2
306,358,307,296,2
307,377,315,297,2
309,386,323,296,2
310,385,332,294,2
311,377,339,294,2
311,361,342,294,2
311,338,335,295,2
312,310,319,297,2
312,282,305,300,2
313,260,298,305,2
314,248,292,312,2
316,246,286,323,2
316,250,283,334,2
316,259,285,345,2
315,270,292,355,2
315,281,303,363,2
314,292,317,368,2
312,299,329,369,2
310,305,333,362,2
309,311,329,346,2
308,317,319,325,2
305,320,305,303,2
302,321,291,285,2
300,321,281,272,2
299,320,277,264,2
301,315,277,258,2
302,305,276,255,2
303,290,274,254,2
305,275,272,254,2
307,262,273,257,2
309,257,275,262,2
310,259,275,268,2
311,265,274,275,2
310,274,271,280,2
309,282,267,285,2
307,290,266,289,2
305,297,268,294,2
305,303,273,299,2
306,309,280,304,2
307,318,288,308,2
309,333,297,313,2
310,350,304,316,2
310,361,304,319,2
309,365,298,319,2
308,359,291,317,2
308,345,286,311,2
308,327,281,301,2
310,311,278,291,2
313,298,277,283,2
316,288,277,277,2
318,280,279,275,2
319,275,288,279,2
320,274,302,286,2
321,277,318,292,2
320,286,331,296,2
320,294,339,298,2
319,299,339,297,2
317,304,328,294,2
315,307,313,291,2
313,308,298,289,2
312,305,284,289,2
309,301,273,288,2
307,299,269,289,2
307,301,272,292,2
309,302,282,296,2
311,301,292,302,2
314,300,297,309,2
314,301,295,315,2
315,302,291,320,2
314,301,288,322,2
314,298,289,323,2
314,295,290,322,2
315,294,292,320,2
316,296,292,318,2
317,302,291,314,2
317,310,291,309,2
315,318,294,304,2
313,322,299,300,2
312,321,306,296,2
311,314,311,294,2
311,303,311,294,2
311,291,310,295,2
310,278,306,296,2
309,273,301,298,2
308,280,295,300,2
307,297,290,301,2
306,317,288,302,2
306,333,290,304,2
305,338,295,305,2
306,331,300,306,2
307,315,306,307,2
310,296,315,308,2
311,280,324,307,2
312,271,332,306,2
313,269,342,306,2
313,269,356,307,2
313,267,367,308,2
312,263,369,309,2
311,263,365,311,2
310,266,354,313,2
308,271,339,314,2
308,279,322,315,2
308,291,308,317,2
308,306,298,318,2
307,321,293,318,2
306,333,291,317,2
305,342,292,315,2
305,346,294,313,2
304,349,297,313,2
305,349,300,314,2
306,346,305,314,2
307,343,312,312,2
309,338,322,310,2
311,332,333,309,2
313,320,343,307,2
313,303,347,303,2
313,289,344,298,2
311,283,337,293,2
310,283,329,291,2
308,284,323,290,2
307,285,319,290,2
305,284,319,290,2
304,280,321,291,2
304,277,323,292,2
305,274,327,293,2
305,273,331,293,2
306,277,334,293,2
308,289,334,292,2
310,306,331,291,2
311,321,327,291,2
313,330,324,292,2
313,332,325,293,2
313,326,331,295,2
314,316,343,297,2
314,308,354,298,2
313,301,361,299,2
311,291,362,301,2
310,279,358,304,2
309,268,350,310,2
308,263,342,317,2
306,269,335,326,2
304,283,327,332,2
301,297,320,335,2
300,306,316,335,2
299,308,313,331,2
298,303,310,324,2
297,294,307,316,2
298,286,305,309,2
299,282,304,304,2
301,287,306,302,2
301,298,308,301,2
301,309,311,298,2
302,317,315,295,2
304,322,319,292,2
306,323,322,289,2
307,321,325,286,2
307,316,327,284,2
306,310,331,283,2
305,302,341,285,2
306,291,354,287,2
307,282,362,289,2
307,278,361,290,2
307,277,349,290,2
307,278,333,289,2
306,284,316,288,2
305,294,301,290,2
305,306,293,293,2
305,315,290,298,2
305,321,292,301,2
306,324,297,304,2
307,323,301,306,2
308,319,301,307,2
309,312,301,307,2
309,302,303,305,2
309,293,305,303,2
309,288,309,301,2
309,285,312,301,2
308,284,311,301,2
308,283,308,302,2
308,280,305,303,2
308,278,303,304,2
308,274,304,303,2
308,270,311,302,2
308,270,322,300,2
309,275,335,300,2
310,287,344,299,2
309,303,346,301,2
307,322,341,302,2
306,338,326,305,2
305,351,308,306,2
305,358,295,306,2
306,358,289,306,2
307,352,287,306,2
308,340,288,305,2
309,327,291,306,2
310,314,294,306,2
310,300,297,307,2
310,286,298,307,2
310,275,299,306,2
309,269,300,306,2
309,269,301,306,2
310,279,301,305,2
310,292,301,303,2
309,305,302,301,2
307,316,304,300,2
306,325,309,301,2
305,330,317,303,2
307,332,324,305,2
310,333,326,307,2
312,331,326,308,2
313,327,324,310,2
313,321,324,311,2
314,314,328,312,2
315,306,333,313,2
315,297,334,314,2
316,292,330,313,2
316,289,321,311,2
315,290,312,306,2
314,297,306,301,2
311,311,305,297,2
310,326,308,294,2
309,337,313,294,2
308,343,318,294,2
308,345,322,295,2
308,343,327,296,2
308,335,330,298,2
308,324,329,300,2
308,313,325,303,2
310,299,320,306,2
311,285,309,307,2
311,272,298,308,2
313,269,290,309,2
313,279,286,311,2
313,297,280,312,2
312,314,275,312,2
311,324,273,313,2
309,324,274,314,2
307,314,277,315,2
307,300,283,316,2
308,289,289,317,2
309,283,293,317,2
309,283,296,317,2
309,286,298,318,2
308,289,302,317,2
307,292,306,316,2
307,293,312,313,2
307,290,317,309,2
307,284,319,304,2
308,275,318,301,2
309,268,315,300,2
310,266,310,301,2
311,271,307,305,2
311,283,306,307,2
311,299,305,307,2
309,315,304,307,2
308,331,304,305,2
306,347,304,304,2
305,360,307,303,2
305,371,312,304,2
306,380,318,306,2
306,385,323,309,2
306,386,326,312,2
307,380,328,314,2
307,367,326,313,2
306,347,321,313,2
306,323,317,313,2
306,304,319,314,2
307,293,324,316,2
309,289,334,317,2
311,289,345,319,2
313,291,355,322,2
315,294,361,324,2
317,296,361,326,2
318,296,357,325,2
318,291,352,322,2
318,285,342,318,2
316,281,331,315,2
315,282,321,313,2
314,288,313,314,2
313,298,309,317,2
313,309,307,320,2
314,320,307,322,2
313,325,306,321,2
310,326,305,316,2
307,320,304,310,2
305,308,305,305,2
305,293,309,301,2
308,280,314,295,2
312,272,321,288,2
316,276,328,282,2
319,294,335,280,2
318,319,340,282,2
317,337,341,287,2
316,339,338,293,2
315,328,332,298,2
315,313,325,300,2
314,301,320,300,2
313,294,317,299,2
312,292,316,297,2
311,294,316,295,2
311,296,317,294,2
311,298,318,294,2
311,299,321,295,2
311,299,322,298,2
311,297,323,303,2
310,293,323,308,2
309,291,323,312,2
308,290,323,315,2
309,291,324,318,2
311,292,325,320,2
313,295,328,324,2
315,302,331,328,2
316,311,332,331,2
317,324,331,332,2
318,340,329,331,2
317,353,327,326,2
315,357,327,319,2
314,353,327,312,2
312,345,327,304,2
312,336,326,297,2
311,327,328,290,2
309,320,333,285,2
308,314,340,284,2
307,312,345,285,2
307,312,346,288,2
307,315,338,291,2
305,318,322,295,2
304,316,305,297,2
304,309,296,300,2
306,300,297,302,2
309,292,308,303,2
311,289,325,302,2
313,288,342,301,2
314,290,355,300,2
315,294,356,301,2
315,300,347,300,2
314,300,334,300,2
313,296,320,300,2
311,292,307,299,2
309,288,298,299,2
306,283,292,297,2
304,276,292,295,2
303,270,297,296,2
303,268,305,299,2
305,272,312,304,2
305,281,311,309,2
304,289,303,313,2
304,296,295,316,2
303,300,290,318,2
304,302,289,319,2
305,306,290,320,2
307,311,292,320,2
309,318,294,318,2
310,326,296,316,2
311,336,297,314,2
310,341,299,312,2
309,339,302,310,2
309,332,306,309,2
308,325,311,311,2
309,321,315,315,2
309,319,318,318,2
309,318,318,319,2
309,314,316,318,2
310,309,312,315,2
310,299,309,312,2
310,288,310,309,2
312,282,315,307,2
313,282,324,306,2
314,282,331,306,2
314,282,333,308,2
316,283,329,308,2
316,285,321,307,2
316,288,314,304,2
314,291,307,303,2
311,294,300,303,2
309,297,293,304,2
306,299,292,305,2
305,302,295,307,2
304,305,298,308,2
304,307,301,308,2
303,305,305,308,2
303,300,311,308,2
303,296,321,308,2
304,298,331,309,2
305,302,338,308,2
306,307,339,308,2
306,309,331,307,2
306,309,319,305,2
306,303,309,304,2
308,298,306,305,2
309,298,307,307,2
311,304,308,310,2
313,311,309,316,2
314,316,309,322,2
315,317,307,330,2
314,317,302,337,2
314,318,296,343,2
314,321,292,347,2
313,324,291,347,2
311,326,291,345,2
309,326,293,340,2
308,324,297,333,2
306,321,302,323,2
305,316,307,314,2
304,313,310,307,2
304,312,312,305,2
305,316,312,304,2
307,322,311,303,2
309,326,310,302,2
311,323,310,301,2
312,313,312,301,2
312,299,314,302,2
312,287,314,304,2
312,284,311,305,2
312,287,309,305,2
313,292,311,305,2
313,295,317,304,2
313,293,325,303,2
312,287,334,304,2
311,280,341,305,2
309,275,344,305,2
307,271,339,304,2
305,269,330,298,2
304,267,321,293,2
303,266,314,288,2
304,270,307,286,2
306,277,301,286,2
306,283,300,290,2
306,290,302,296,2
306,296,305,302,2
306,302,308,308,2
307,310,309,312,2
308,318,309,313,2
309,327,309,311,2
309,335,310,309,2
310,342,312,307,2
310,345,313,306,2
310,340,315,303,2
309,331,320,302,2
308,321,328,301,2
306,313,336,300,2
305,311,344,298,2
303,313,350,296,2
302,317,351,295,2
302,318,352,294,2
302,315,353,294,2
303,308,351,295,2
303,300,346,297,2
303,294,337,298,2
304,286,327,299,2
304,275,320,300,2
304,263,320,301,2
305,253,324,301,2
306,250,331,303,2
308,256,337,305,2
310,267,340,308,2
309,276,337,310,2
307,282,331,312,2
303,287,326,312,2
301,289,324,310,2
298,289,326,306,2
297,290,330,304,2
298,295,332,304,2
299,304,332,307,2
301,316,329,310,2
302,327,325,314,2
304,336,323,318,2
305,342,323,321,2
306,341,324,324,2
307,336,325,326,2
308,331,327,328,2
309,326,329,331,2
311,320,331,332,2
312,317,332,332,2
312,318,333,329,2
312,319,330,321,2
310,319,328,312,2
309,321,326,302,2
306,322,322,294,2
304,318,315,288,2
302,308,309,284,2
300,299,306,282,2
299,294,306,281,2
300,292,309,282,2
301,291,314,284,2
302,289,319,286,2
303,287,321,286,2
303,283,320,286,2
304,282,316,285,2
304,287,310,283,2
305,297,304,283,2
306,311,301,283,2
306,326,302,285,2
306,340,308,288,2
305,352,319,291,2
305,355,329,293,2
304,341,335,295,2
304,316,336,297,2
305,289,331,299,2
306,271,322,301,2
304,263,311,303,2
304,263,300,304,2
302,268,292,305,2
302,272,287,305,2
302,276,285,305,2
303,278,285,305,2
304,280,286,305,2
304,280,287,305,2
305,280,288,305,2
305,281,290,305,2
306,284,292,306,2
307,287,294,308,2
308,292,296,308,2
309,298,298,308,2
309,306,300,309,2
309,314,301,309,2
308,324,303,310,2
308,333,307,312,2
309,342,311,313,2
309,346,315,312,2
309,341,318,308,2
309,322,319,303,2
308,295,319,297,2
306,271,317,293,2
305,255,313,291,2
306,252,310,291,2
307,258,310,293,2
308,270,311,297,2
308,285,314,303,2
309,297,315,309,2
310,305,316,314,2
310,307,316,317,2
311,306,314,318,2
311,307,310,318,2
312,312,307,317,2
312,320,305,316,2
313,332,307,315,2
312,345,311,312,2
311,357,315,309,2
310,365,318,303,2
309,365,317,297,2
307,361,313,291,2
305,353,312,286,2
304,340,312,283,2
305,323,314,281,2
305,306,312,280,2
305,288,304,279,2
305,275,292,279,2
306,271,287,281,2
307,276,288,284,2
307,285,297,289,2
308,296,310,296,2
308,304,319,304,2
309,307,324,314,2
309,306,325,322,2
307,305,319,326,2
305,302,310,325,2
303,297,299,322,2
301,292,292,318,2
300,288,290,313,2
301,286,291,309,2
303,286,294,305,2
305,288,299,303,2
306,294,308,300,2
307,302,318,296,2
308,307,326,292,2
310,309,331,289,2
311,307,330,287,2
312,304,319,285,2
311,304,304,284,2
311,306,292,284,2
310,311,286,284,2
309,317,285,288,2
309,319,288,294,2
307,310,291,302,2
306,296,295,309,2
305,284,299,317,2
305,276,304,324,2
305,276,308,329,2
306,284,311,331,2
306,295,313,330,2
305,305,311,327,2
304,313,307,322,2
303,318,304,319,2
303,322,303,317,2
303,324,303,317,2
305,324,304,317,2
306,321,307,316,2
308,317,310,315,2
310,313,312,315,2
313,311,314,315,2
315,311,317,315,2
316,313,322,315,2
316,316,329,313,2
316,318,336,310,2
316,318,340,307,2
315,319,339,305,2
312,320,335,303,2
309,325,328,302,2
307,336,320,302,2
305,348,313,303,2
303,357,310,303,2
302,355,309,302,2
301,342,311,300,2
301,322,313,298,2
301,301,315,295,2
303,283,316,293,2
305,274,316,292,2
307,274,314,293,2
308,280,313,295,2
309,286,316,298,2
310,290,326,301,2
311,291,339,304,2
311,289,352,305,2
310,286,359,307,2
310,281,360,307,2
309,274,353,306,2
307,270,340,302,2
306,270,327,297,2
305,272,317,292,2
304,272,313,289,2
304,273,314,286,2
304,277,318,283,2
304,283,324,281,2
305,289,327,281,2
306,292,330,284,2
306,293,329,289,2
306,296,325,296,2
306,297,321,303,2
307,298,320,310,2
309,299,324,316,2
311,302,335,321,2
313,306,349,325,2
314,312,357,325,2
316,318,357,324,2
317,322,353,318,2
317,323,347,310,2
315,320,339,301,2
313,319,334,294,2
312,321,331,291,2
311,330,329,291,2
310,340,326,294,2
309,349,321,297,2
307,350,318,299,2
304,341,314,301,2
304,324,309,303,2
304,308,307,304,2
306,295,304,304,2
307,289,302,304,2
308,287,301,304,2
309,289,303,306,2
312,297,309,308,2
314,309,318,310,2
317,324,330,313,2
319,336,340,316,2
319,343,343,318,2
317,344,336,319,2
316,338,326,318,2
315,325,317,315,2
313,307,308,312,2
311,292,300,310,2
309,283,297,308,2
309,280,297,310,2
309,282,298,315,2
310,288,300,321,2
310,295,302,328,2
310,299,304,334,2
311,299,305,338,2
311,295,306,338,2
311,287,306,334,2
311,280,305,326,2
310,275,304,317,2
309,277,304,308,2
309,285,306,302,2
309,297,312,298,2
310,306,316,293,2
312,311,317,288,2
313,312,317,283,2
313,308,314,281,2
313,302,309,281,2
312,295,305,282,2
311,293,304,285,2
309,300,306,288,2
308,315,307,292,2
305,330,307,294,2
302,344,307,296,2
300,355,305,298,2
299,364,304,302,2
300,369,300,307,2
301,373,295,312,2
302,374,292,317,2
304,367,292,320,2
305,349,296,319,2
306,326,303,316,2
307,308,310,313,2
307,295,314,311,2
306,287,312,309,2
304,283,308,307,2
304,283,302,304,2
303,286,297,302,2
304,288,294,300,2
304,289,291,299,2
304,288,289,297,2
304,286,289,297,2
304,286,292,298,2
304,289,296,301,2
305,295,300,305,2
306,302,303,310,2
307,309,301,313,2
308,316,297,317,2
309,320,295,319,2
309,321,294,320,2
309,318,296,321,2
309,311,298,322,2
309,302,302,322,2
308,291,305,318,2
307,283,307,308,2
306,279,309,298,2
305,278,309,290,2
305,278,306,287,2
304,281,305,287,2
304,290,308,289,2
304,301,314,292,2
304,312,317,296,2
304,321,317,299,2
304,324,313,300,2
304,323,308,300,2
304,316,306,300,2
305,306,309,299,2
306,300,313,301,2
309,298,317,303,2
311,303,320,306,2
312,310,317,307,2
311,318,309,308,2
309,323,300,308,2
308,323,293,307,2
307,317,286,305,2
306,311,284,304,2
306,305,283,304,2
305,301,286,306,2
304,299,293,308,2
305,303,303,310,2
305,317,317,313,2
306,333,332,315,2
306,345,341,315,2
306,352,343,316,2
306,352,339,317,2
307,345,328,317,2
307,332,309,317,2
308,316,291,316,2
310,299,280,314,2
311,285,277,311,2
312,278,278,307,2
311,277,282,304,2
311,279,287,299,2
310,283,290,292,2
308,282,292,287,2
307,275,293,284,2
306,268,294,284,2
306,266,294,287,2
305,272,293,291,2
303,284,290,295,2
302,297,289,299,2
303,309,288,303,2
303,317,289,307,2
305,323,290,310,2
306,326,291,314,2
308,328,292,320,2
310,328,294,328,2
312,326,294,336,2
315,322,295,340,2
316,316,296,343,2
315,310,298,343,2
314,306,301,341,2
312,303,304,335,2
309,302,306,325,2
307,303,305,313,2
305,305,303,299,2
304,303,302,287,2
303,298,303,277,2
303,293,305,271,2
304,289,308,270,2
304,285,309,272,2
305,283,311,277,2
306,285,312,281,2
307,291,312,286,2
307,297,314,289,2
307,301,318,291,2
308,303,320,293,2
311,304,321,294,2
313,305,321,294,2
314,307,318,296,2
314,308,315,299,2
314,311,314,304,2
314,318,315,309,2
314,327,317,315,2
313,336,320,320,2
311,345,322,323,2
308,353,323,323,2
306,357,325,322,2
305,354,328,320,2
305,346,329,315,2
304,336,332,308,2
304,324,334,302,2
304,313,338,297,2
304,304,340,294,2
303,295,339,293,2
303,291,334,293,2
303,290,329,295,2
304,292,323,299,2
307,296,321,304,2
309,297,322,310,2
311,295,323,317,2
312,291,322,322,2
312,288,320,327,2
312,289,316,330,2
310,297,314,333,2
309,307,313,335,2
308,317,314,336,2
307,321,315,333,2
305,319,316,327,2
305,313,318,321,2
305,309,322,316,2
307,308,325,310,2
309,313,328,302,2
310,321,331,292,2
311,330,336,281,2
312,335,343,271,2
312,332,352,266,2
312,321,361,265,2
313,309,364,267,2
314,303,360,272,2
313,302,350,278,2
311,305,340,283,2
308,307,335,287,2
306,303,336,292,2
304,293,339,297,2
304,283,339,303,2
304,276,336,307,2
305,274,329,310,2
305,276,321,312,2
306,283,316,315,2
306,290,312,319,2
307,295,311,322,2
307,294,311,322,2
308,288,311,318,2
307,281,311,314,2
307,282,312,311,2
307,288,313,310,2
308,299,314,309,2
310,309,318,308,2
311,316,322,305,2
312,318,326,299,2
314,316,328,295,2
315,312,329,291,2
313,305,329,290,2
311,299,327,290,2
309,298,326,292,2
307,303,324,294,2
307,311,324,297,2
307,321,324,298,2
307,329,326,298,2
308,334,326,298,2
309,333,325,297,2
310,333,323,296,2
311,338,319,295,2
310,347,317,295,2
309,355,319,296,2
308,358,322,298,2
307,353,327,300,2
308,343,331,302,2
309,327,335,306,2
312,310,338,310,2
313,295,338,315,2
314,284,338,320,2
314,279,336,324,2
312,277,331,327,2
310,278,324,326,2
308,280,318,324,2
306,282,315,321,2
306,285,315,318,2
306,288,316,314,2
306,291,319,310,2
307,292,322,304,2
308,290,329,299,2
309,286,345,295,2
309,279,367,292,2
311,268,389,290,2
313,258,400,290,2
316,252,395,291,2
316,250,378,292,2
315,253,355,294,2
312,265,331,297,2
309,285,314,301,2
305,308,305,306,2
303,326,300,310,2
302,338,297,315,2
301,344,295,318,2
301,345,293,320,2
301,342,291,320,2
300,337,288,318,2
300,330,286,316,2
301,325,286,314,2
303,321,287,313,2
303,323,288,312,2
304,331,289,312,2
304,347,290,314,2
304,366,289,316,2
304,384,288,319,2
304,393,286,319,2
304,387,285,319,2
305,366,286,319,2
306,337,290,317,2
307,309,297,315,2
307,288,304,312,2
307,276,309,309,2
306,271,313,305,2
305,270,317,301,2
305,271,321,298,2
305,271,325,296,2
306,271,326,295,2
306,272,327,296,2
306,273,324,297,2
306,275,316,299,2
306,279,306,301,2
307,284,299,303,2
307,292,296,306,2
308,300,296,309,2
310,305,296,310,2
311,305,296,309,2
312,301,296,308,2
313,292,296,305,2
314,284,294,302,2
314,273,292,298,2
313,267,291,297,2
311,271,293,300,2
309,284,299,304,2
308,298,307,306,2
307,308,315,309,2
308,314,322,311,2
308,321,325,312,2
307,329,323,313,2
307,336,318,316,2
306,343,310,320,2
306,350,303,325,2
307,358,297,328,2
307,362,295,328,2
309,362,295,324,2
311,358,295,318,2
313,351,297,313,2
316,345,296,310,2
318,334,294,309,2
319,322,292,308,2
319,310,292,306,2
319,297,295,302,2
317,285,300,298,2
314,273,306,294,2
312,261,311,293,2
311,255,313,293,2
309,256,313,294,2
308,265,309,294,2
307,276,302,294,2
306,287,295,293,2
306,294,293,292,2
307,297,296,290,2
308,297,302,290,2
309,297,310,291,2
310,298,319,295,2
311,301,323,298,2
312,304,321,301,2
312,308,314,304,2
312,310,305,305,2
313,310,299,307,2
314,309,297,308,2
314,307,298,308,2
314,303,301,307,2
313,297,307,306,2
313,293,316,305,2
312,291,325,304,2
311,292,332,305,2
310,294,336,306,2
310,297,334,307,2
308,301,325,308,2
307,303,314,309,2
307,306,304,310,2
306,309,300,312,2
306,307,303,313,2
307,299,314,316,2
309,290,327,320,2
312,284,337,324,2
315,284,340,328,2
316,287,334,330,2
314,292,320,330,2
313,297,306,328,2
310,302,296,323,2
308,305,292,316,2
306,305,291,310,2
305,304,291,304,2
304,304,293,300,2
303,307,295,297,2
303,309,297,294,2
303,314,300,293,2
304,321,302,292,2
304,327,305,292,2
304,330,307,292,2
303,334,309,293,2
303,339,313,293,2
304,347,317,295,2
305,356,322,297,2
307,364,325,300,2
308,371,322,303,2
307,373,317,305,2
306,367,312,307,2
306,352,311,310,2
307,336,311,312,2
307,318,313,315,2
307,301,316,318,2
308,283,321,320,2
308,266,326,321,2
309,255,330,322,2
309,256,335,321,2
309,264,338,320,2
308,274,337,319,2
307,282,334,318,2
307,287,331,316,2
307,289,328,314,2
308,289,328,312,2
309,289,331,310,2
311,290,335,308,2
313,290,340,306,2
315,293,346,305,2
316,299,348,305,2
319,310,345,306,2
321,323,341,306,2
322,336,339,305,2
322,349,335,302,2
320,360,331,300,2
316,364,328,299,2
313,361,328,298,2
310,355,329,300,2
309,346,329,304,2
307,334,328,307,2
306,317,323,310,2
305,303,320,313,2
305,293,320,317,2
306,287,321,321,2
307,281,322,324,2
309,275,322,325,2
310,270,321,321,2
311,267,317,316,2
312,266,312,311,2
312,267,309,308,2
312,269,309,305,2
312,271,312,304,2
312,272,314,302,2
311,273,315,300,2
310,273,315,300,2
309,276,314,302,2
309,283,314,306,2
308,290,314,311,2
307,298,314,316,2
305,308,315,323,2
304,318,314,328,2
303,326,315,332,2
303,332,315,332,2
304,335,315,328,2
305,335,315,321,2
306,333,314,314,2
306,327,314,308,2
307,320,314,301,2
309,313,313,293,2
310,306,313,286,2
311,300,313,281,2
311,294,314,277,2
310,289,316,274,2
310,286,321,271,2
310,287,328,272,2
312,293,340,275,2
312,303,352,280,2
313,311,362,285,2
313,316,367,289,2
311,322,366,292,2
310,328,355,296,2
309,335,342,298,2
307,342,327,298,2
306,345,312,299,2
305,342,300,298,2
305,334,294,298,2
305,324,291,297,2
306,315,288,299,2
308,311,286,301,2
309,314,285,306,2
309,320,286,312,2
309,326,287,316,2
310,330,288,319,2
310,332,289,318,2
310,331,292,315,2
310,329,300,311,2
312,327,310,307,2
313,325,320,304,2
315,320,329,304,2
315,309,334,304,2
315,296,333,305,2
313,285,330,306,2
309,279,325,304,2
306,278,317,301,2
304,279,309,298,2
304,278,300,297,2
303,276,294,299,2
303,274,290,303,2
304,274,288,309,2
305,277,289,316,2
306,286,290,322,2
306,300,292,325,2
307,314,294,325,2
307,325,296,323,2
307,334,297,320,2
306,336,298,318,2
306,333,299,316,2
305,324,299,316,2
304,315,301,317,2
305,308,304,318,2
306,307,308,320,2
307,314,310,323,2
308,326,310,325,2
308,342,309,321,2
308,352,307,315,2
307,353,303,307,2
306,343,300,301,2
307,326,302,297,2
309,306,307,295,2
310,288,314,295,2
311,277,320,297,2
312,274,323,299,2
312,278,321,301,2
310,285,315,303,2
307,292,309,304,2
306,300,304,305,2
304,308,300,307,2
303,315,298,308,2
302,323,296,308,2
302,330,294,308,2
302,333,293,310,2
302,332,293,313,2
303,326,294,316,2
303,320,296,318,2
304,316,296,321,2
305,315,297,323,2
307,317,299,325,2
309,322,304,325,2
312,324,314,325,2
314,320,327,324,2
315,312,339,323,2
316,301,346,321,2
316,289,346,316,2
313,277,335,309,2
310,269,320,302,2
307,266,312,298,2
305,272,312,297,2
305,285,316,300,2
306,302,320,306,2
306,319,319,313,2
307,331,316,320,2
307,339,312,328,2
308,342,309,336,2
309,340,306,342,2
309,331,304,347,2
309,320,302,350,2
310,307,303,350,2
312,299,303,347,2
312,295,302,342,2
313,295,300,334,2
312,300,298,326,2
311,308,298,316,2
309,316,302,306,2
307,321,307,297,2
304,321,311,293,2
303,317,314,292,2
302,308,316,294,2
302,301,316,297,2
303,295,314,299,2
304,293,309,301,2
304,291,302,300,2
304,289,297,296,2
304,286,294,290,2
305,285,292,283,2
306,283,294,279,2
307,283,298,279,2
308,285,303,280,2
309,293,307,284,2
310,309,312,290,2
310,325,317,294,2
310,336,323,297,2
310,343,331,300,2
309,342,338,300,2
308,331,341,299,2
306,315,339,297,2
305,299,333,297,2
305,286,325,296,2
304,276,321,295,2
303,272,318,294,2
303,273,320,293,2
302,281,322,293,2
301,293,327,295,2
301,306,331,298,2
302,316,335,303,2
303,318,336,310,2
305,310,337,321,2
308,299,339,332,2
310,290,339,343,2
312,287,335,351,2
312,294,330,357,2
312,306,326,357,2
312,316,325,350,2
311,320,322,337,2
310,319,320,324,2
310,317,321,312,2
310,315,325,303,2
311,314,328,297,2
311,314,331,296,2
310,314,335,296,2
308,312,339,296,2
307,310,342,297,2
308,310,343,297,2
308,310,345,295,2
310,307,341,292,2
312,302,332,288,2
313,295,323,285,2
314,289,318,283,2
316,286,315,284,2
319,285,314,286,2
322,287,312,288,2
320,291,311,292,2
312,294,315,294,2
303,296,324,296,2
296,296,333,297,2
293,295,340,298,2
293,294,347,299,2
296,296,354,300,2
298,301,361,300,2
298,311,367,300,2
295,324,375,301,2
293,338,374,304,2
294,351,363,307,2
299,360,348,308,2
301,364,331,309,2
299,363,312,309,2
298,358,298,310,2
300,346,289,311,2
303,331,284,311,2
306,317,283,309,2
305,306,287,307,2
301,296,293,306,2
299,287,300,306,2
298,280,307,308,2
300,279,312,310,2
303,285,310,313,2
304,294,304,316,2
303,301,300,319,2
301,306,298,319,2
300,311,298,317,2
301,316,299,313,2
302,320,298,309,2
303,322,298,310,2
304,320,299,315,2
305,315,299,323,2
306,311,300,331,2
308,307,301,339,2
309,304,301,344,2
311,300,302,345,2
313,296,302,338,2
314,292,302,323,2
315,288,302,304,2
317,284,302,289,2
318,280,303,281,2
319,278,305,277,2
319,279,309,277,2
318,284,315,280,2
318,293,323,284,2
316,301,331,288,2
314,307,336,292,2
312,312,339,296,2
309,317,336,297,2
306,325,330,299,2
304,334,318,300,2
303,342,302,301,2
302,346,290,303,2
302,347,282,304,2
303,346,281,306,2
305,344,284,308,2
307,336,292,309,2
310,322,305,311,2
313,307,323,313,2
317,297,342,312,2
318,293,357,311,2
318,294,360,307,2
316,296,350,303,2
314,298,331,300,2
312,302,310,299,2
310,307,292,302,2
309,309,281,307,2
308,306,276,313,2
308,300,275,319,2
307,295,278,325,2
308,293,281,329,2
309,298,285,331,2
309,309,288,332,2
309,319,293,333,2
309,322,300,333,2
310,319,309,333,2
311,314,318,333,2
313,308,323,330,2
314,302,322,323,2
313,295,315,314,2
311,287,307,305,2
311,283,304,299,2
311,290,305,293,2
312,301,309,291,2
312,311,313,291,2
312,315,314,291,2
311,313,312,293,2
310,312,306,293,2
309,313,300,293,2
309,314,294,292,2
310,312,290,289,2
311,305,287,286,2
311,294,287,284,2
309,284,290,285,2
306,274,295,286,2
304,271,302,290,2
306,275,312,297,2
310,288,323,305,2
313,304,333,314,2
314,316,336,321,2
314,325,334,325,2
315,331,324,326,2
316,337,310,326,2
312,340,299,323,2
307,338,292,320,2
303,330,290,317,2
301,320,289,313,2
301,311,290,311,2
302,306,293,306,2
303,304,296,302,2
303,304,297,299,2
304,304,298,298,2
304,304,298,298,2
305,303,298,299,2
307,303,300,300,2
309,302,308,299,2
310,301,322,299,2
311,301,338,298,2
311,302,351,298,2
311,304,353,300,2
309,305,340,303,2
305,308,318,307,2
303,314,300,314,2
305,324,292,319,2
309,334,294,321,2
311,344,299,321,2
311,351,303,320,2
309,357,304,318,2
307,360,303,315,2
305,356,302,314,2
302,344,301,313,2
300,326,299,313,2
299,310,297,313,2
300,300,296,315,2
302,295,298,316,2
306,296,303,319,2
310,297,311,323,2
312,296,319,326,2
313,295,326,325,2
312,293,329,322,2
310,290,329,317,2
308,288,324,312,2
306,286,318,308,2
304,284,313,305,2
302,284,311,304,2
300,286,311,303,2
300,287,313,304,2
301,289,318,308,2
303,292,324,311,2
304,297,329,314,2
303,304,331,315,2
304,312,332,316,2
306,315,332,314,2
308,316,332,313,2
311,320,333,311,2
312,326,335,308,2
313,326,334,303,2
313,320,330,299,2
315,311,325,297,2
319,304,324,297,2
322,300,323,298,2
319,299,324,299,2
314,300,322,298,2
307,303,317,297,2
302,305,310,296,2
299,305,305,294,2
297,300,305,291,2
295,289,309,288,2
295,276,313,286,2
297,263,316,285,2
300,252,317,286,2
303,251,317,288,2
305,261,317,293,2
305,278,317,299,2
304,292,318,306,2
305,302,321,313,2
307,309,324,319,2
307,315,326,324,2
306,319,329,329,2
306,324,331,332,2
305,328,331,333,2
305,331,333,331,2
306,334,335,327,2
307,334,335,323,2
307,332,332,320,2
306,325,325,317,2
305,317,316,315,2
304,312,310,313,2
304,311,306,312,2
305,312,306,312,2
304,313,307,312,2
303,315,307,312,2
302,316,308,312,2
304,318,308,313,2
306,321,309,314,2
309,323,310,315,2
311,324,310,316,2
312,323,311,315,2
313,320,312,313,2
313,314,314,311,2
312,307,317,308,2
310,303,321,304,2
308,303,326,299,2
308,307,336,295,2
309,313,347,292,2
311,318,357,291,2
312,322,361,291,2
312,328,359,293,2
311,333,352,295,2
310,332,344,297,2
309,326,335,300,2
307,319,326,302,2
306,311,318,305,2
306,298,313,309,2
305,287,310,311,2
305,280,305,315,2
306,280,299,320,2
308,283,295,325,2
308,285,292,327,2
307,284,289,325,2
306,282,290,321,2
306,279,294,317,2
305,280,301,313,2
303,285,308,310,2
302,293,313,308,2
302,299,315,308,2
303,301,314,308,2
303,299,308,308,2
302,295,302,306,2
302,291,296,306,2
302,289,294,304,2
302,291,294,302,2
303,295,294,300,2
304,297,295,298,2
305,294,297,299,2
306,288,299,301,2
307,282,302,306,2
307,280,305,312,2
307,282,308,318,2
307,287,310,324,2
307,292,310,327,2
306,294,311,327,2
305,295,312,326,2
305,296,314,323,2
304,298,316,320,2
304,302,316,319,2
304,310,315,317,2
304,321,313,316,2
303,334,314,316,2
302,344,315,318,2
300,348,316,319,2
300,345,318,321,2
304,338,318,321,2
311,329,314,322,2
317,319,310,322,2
322,308,307,321,2
323,300,307,321,2
321,293,307,321,2
317,290,308,321,2
312,293,309,322,2
308,294,309,321,2
306,294,308,317,2
304,294,308,311,2
305,296,308,304,2
308,299,309,297,2
312,303,308,292,2
315,305,308,292,2
311,307,308,294,2
304,307,309,298,2
297,308,310,302,2
294,308,311,304,2
294,307,312,307,2
296,303,314,309,2
299,295,318,310,2
301,288,321,311,2
303,283,324,312,2
305,282,326,313,2
306,286,326,313,2
307,298,322,313,2
308,315,318,310,2
308,332,315,307,2
307,341,316,304,2
306,339,322,306,2
306,331,331,310,2
306,323,339,318,2
306,317,344,328,2
306,312,342,336,2
305,309,336,340,2
305,306,330,341,2
305,303,323,337,2
305,300,321,330,2
304,296,321,321,2
303,293,320,313,2
303,290,315,306,2
303,288,308,299,2
303,287,300,295,2
304,289,295,292,2
304,292,294,291,2
304,297,295,291,2
303,304,297,292,2
303,310,299,295,2
303,315,301,298,2
303,318,303,300,2
303,316,305,303,2
303,313,308,307,2
302,311,309,310,2
302,310,310,312,2
303,308,312,312,2
303,307,316,310,2
304,310,322,309,2
304,318,327,308,2
303,323,330,306,2
304,324,328,304,2
304,323,322,302,2
305,320,316,302,2
307,315,312,302,2
309,309,309,300,2
310,303,308,297,2
311,299,310,295,2
312,299,312,294,2
313,302,314,295,2
312,308,314,297,2
309,314,315,301,2
306,320,317,306,2
303,322,320,311,2
302,319,323,317,2
303,311,325,322,2
304,307,327,326,2
305,308,329,327,2
306,313,328,324,2
306,321,325,318,2
307,330,322,313,2
307,337,321,308,2
308,336,320,305,2
309,328,321,303,2
310,312,321,302,2
311,292,322,301,2
311,275,323,300,2
311,265,323,299,2
310,261,321,297,2
308,263,319,294,2
307,270,318,292,2
308,282,317,292,2
309,297,316,293,2
309,310,316,294,2
310,316,315,295,2
310,317,317,297,2
311,316,320,299,2
309,316,325,301,2
306,315,330,303,2
304,313,331,306,2
305,312,330,308,2
309,309,327,310,2
314,306,323,313,2
317,303,318,316,2
316,299,313,319,2
312,295,309,322,2
309,293,308,325,2
307,293,308,326,2
306,295,312,326,2
306,296,317,325,2
306,297,320,320,2
306,298,322,315,2
306,301,322,310,2
305,307,319,306,2
304,314,313,304,2
303,320,307,303,2
302,325,303,302,2
301,331,300,301,2
302,341,300,301,2
304,351,300,303,2
305,352,302,303,2
307,343,305,303,2
307,326,310,302,2
309,305,317,304,2
311,285,326,306,2
313,271,335,309,2
314,266,339,311,2
313,267,337,311,2
311,272,335,311,2
309,279,331,311,2
307,286,323,312,2
305,292,312,315,2
305,298,303,319,2
305,303,299,323,2
305,308,299,325,2
304,310,299,328,2
305,312,298,331,2
305,314,297,332,2
307,315,296,331,2
308,315,296,326,2
309,315,297,319,2
310,315,298,311,2
311,312,299,304,2
312,307,301,299,2
312,297,304,294,2
314,284,307,290,2
314,271,308,286,2
313,263,309,285,2
311,263,311,287,2
308,269,312,291,2
307,281,311,297,2
306,295,310,302,2
305,308,308,306,2
304,317,305,307,2
303,324,303,307,2
302,328,302,304,2
301,328,302,303,2
301,326,304,301,2
301,321,308,300,2
301,315,314,300,2
301,305,319,301,2
301,296,321,303,2
302,294,320,306,2
303,297,317,308,2
304,302,311,310,2
305,307,306,310,2
305,307,303,310,2
305,302,299,311,2
303,294,297,311,2
302,287,298,309,2
301,282,298,306,2
301,280,299,303,2
302,284,299,302,2
303,294,300,305,2
303,309,302,311,2
303,324,303,318,2
301,335,303,322,2
300,341,302,323,2
300,341,301,321,2
299,336,301,316,2
298,329,301,310,2
296,326,301,304,2
297,325,300,300,2
301,324,300,296,2
307,322,305,295,2
313,317,316,295,2
318,313,329,296,2
324,308,341,299,2
328,304,347,302,2
325,300,341,305,2
316,296,329,307,2
307,292,320,311,2
303,288,315,313,2
302,285,314,315,2
303,284,314,316,2
303,284,313,316,2
302,285,310,317,2
301,286,305,319,2
302,287,300,322,2
301,288,296,326,2
301,289,293,330,2
302,291,292,332,2
303,293,292,331,2
304,295,293,327,2
305,299,295,318,2
306,303,296,307,2
306,306,297,295,2
306,307,299,287,2
305,306,301,282,2
304,303,304,281,2
302,299,307,283,2
300,293,310,286,2
298,282,311,288,2
296,269,310,290,2
296,268,310,293,2
297,279,312,296,2
298,297,315,299,2
299,314,317,301,2
299,327,319,302,2
300,334,318,304,2
300,337,313,305,2
301,336,308,307,2
301,329,304,309,2
302,319,303,312,2
303,309,303,316,2
305,301,304,319,2
306,295,306,322,2
308,294,309,322,2
309,300,311,320,2
310,312,313,315,2
310,325,313,311,2
309,337,313,307,2
309,344,313,304,2
307,342,313,301,2
306,334,313,299,2
305,323,313,300,2
304,315,315,303,2
303,309,319,306,2
304,305,326,308,2
306,300,336,308,2
309,294,346,306,2
312,288,351,304,2
314,283,348,301,2
313,276,343,300,2
310,269,336,299,2
308,265,330,299,2
308,265,327,300,2
308,269,325,301,2
308,276,323,301,2
308,288,320,300,2
307,301,319,300,2
306,317,320,301,2
304,334,320,301,2
302,350,315,303,2
301,362,309,304,2
300,368,305,306,2
300,365,304,308,2
299,357,304,310,2
299,345,306,312,2
299,330,308,314,2
300,314,310,317,2
302,297,312,319,2
306,280,314,322,2
309,264,317,326,2
311,256,322,332,2
311,262,327,340,2
311,279,330,345,2
310,295,332,347,2
308,307,333,345,2
307,312,330,340,2
306,312,327,334,2
307,313,325,326,2
309,313,323,316,2
312,314,321,306,2
313,315,319,300,2
307,316,319,297,2
299,317,320,297,2
294,315,320,298,2
293,312,321,302,2
294,309,323,307,2
296,308,324,310,2
298,309,324,310,2
300,314,325,308,2
302,321,328,307,2
304,329,336,306,2
306,333,347,305,2
309,331,360,303,2
311,324,370,301,2
315,314,372,299,2
317,303,364,298,2
315,293,348,297,2
307,288,333,297,2
299,287,327,298,2
295,287,326,299,2
296,288,325,300,2
298,289,320,302,2
301,291,314,305,2
302,294,306,309,2
300,297,301,314,2
298,303,302,319,2
298,309,307,326,2
302,314,315,330,2
307,316,324,332,2
312,314,331,329,2
315,310,334,322,2
317,306,329,315,2
318,302,320,309,2
317,300,313,304,2
314,302,309,304,2
312,307,306,304,2
309,314,305,306,2
306,321,307,307,2
305,327,308,306,2
304,327,307,304,2
304,321,304,303,2
304,309,302,305,2
304,297,301,306,2
306,291,302,308,2
308,293,302,309,2
311,299,301,309,2
313,303,300,307,2
315,305,301,305,2
317,302,304,303,2
318,300,307,303,2
319,302,311,307,2
319,307,315,312,2
317,312,322,315,2
316,316,331,317,2
314,321,342,316,2
312,327,350,315,2
312,332,351,312,2
311,334,346,307,2
310,330,334,301,2
309,320,318,295,2
307,308,302,290,2
306,299,293,287,2
305,293,290,285,2
304,290,290,285,2
304,288,291,285,2
305,287,294,286,2
306,286,298,287,2
307,288,303,290,2
308,291,307,295,2
309,296,309,300,2
309,302,308,305,2
310,309,306,308,2
310,316,302,309,2
310,321,298,311,2
310,322,296,311,2
310,320,296,311,2
309,314,297,307,2
308,306,297,304,2
308,298,298,300,2
307,292,299,297,2
307,288,302,294,2
307,292,308,292,2
307,299,315,289,2
307,303,321,287,2
308,304,324,286,2
309,304,323,286,2
310,304,317,288,2
311,302,310,292,2
312,301,302,297,2
312,302,298,303,2
312,307,300,308,2
311,311,304,312,2
309,309,307,313,2
308,303,307,314,2
306,294,307,316,2
306,288,307,318,2
306,285,307,320,2
307,287,308,322,2
307,293,307,321,2
307,302,307,321,2
306,310,306,319,2
305,315,305,315,2
303,319,304,310,2
303,323,304,306,2
302,328,305,303,2
302,334,306,301,2
302,341,308,301,2
302,346,310,303,2
303,348,312,306,2
304,348,314,309,2
305,347,315,311,2
307,346,314,312,2
310,339,315,313,2
311,328,318,315,2
312,315,323,318,2
311,303,329,320,2
313,294,333,321,2
319,286,331,323,2
320,280,325,325,2
317,277,317,328,2
311,279,311,331,2
307,283,306,332,2
304,284,304,334,2
302,283,302,335,2
301,281,302,335,2
301,279,303,334,2
302,277,303,330,2
303,275,303,325,2
305,273,304,319,2
306,271,306,312,2
308,270,311,304,2
309,269,316,297,2
310,271,320,292,2
311,276,321,288,2
310,283,320,286,2
309,290,315,285,2
308,297,310,285,2
307,307,306,285,2
307,318,303,285,2
308,326,299,285,2
310,328,297,286,2
313,323,297,287,2
319,312,298,289,2
319,300,302,291,2
312,293,310,294,2
305,290,320,299,2
303,289,329,305,2
304,287,335,313,2
305,287,337,321,2
305,287,332,328,2
306,288,322,334,2
306,290,314,337,2
305,294,311,339,2
305,300,311,341,2
305,310,314,340,2
305,325,317,337,2
304,342,319,330,2
304,359,315,320,2
304,373,311,307,2
303,380,307,294,2
302,376,309,283,2
301,362,313,276,2
301,337,319,272,2
302,308,324,275,2
303,284,329,282,2
304,265,331,290,2
306,252,326,298,2
305,248,317,305,2
303,251,309,309,2
300,257,303,312,2
298,264,300,315,2
297,270,300,318,2
297,275,302,320,2
298,280,304,320,2
298,284,307,319,2
298,288,309,316,2
298,295,312,313,2
298,302,312,308,2
297,311,310,303,2
298,320,308,299,2
299,331,307,296,2
302,338,308,293,2
304,336,311,292,2
306,326,316,293,2
308,318,323,294,2
308,314,328,294,2
306,309,330,296,2
305,305,330,300,2
304,302,326,304,2
304,297,321,308,2
305,292,319,309,2
307,288,321,310,2
308,287,323,309,2
309,289,325,310,2
312,291,327,310,2
314,291,327,310,2
313,292,324,309,2
311,292,320,309,2
309,295,317,309,2
307,299,317,310,2
307,305,319,312,2
306,314,322,315,2
305,324,324,320,2
304,334,325,325,2
303,342,325,328,2
302,345,325,332,2
302,342,322,334,2
303,335,317,333,2
304,326,311,327,2
306,313,307,320,2
308,300,306,312,2
310,290,306,303,2
312,287,307,294,2
313,290,308,286,2
313,295,309,280,2
312,303,310,275,2
311,314,310,273,2
309,323,311,274,2
307,328,312,276,2
307,331,314,279,2
306,327,317,281,2
305,315,323,286,2
304,300,329,292,2
305,287,335,300,2
307,279,338,307,2
309,274,340,314,2
310,272,341,318,2
310,273,341,321,2
311,274,339,322,2
312,275,335,321,2
313,277,330,320,2
313,277,323,317,2
313,279,317,315,2
313,285,313,313,2
312,296,310,310,2
311,309,307,305,2
309,323,305,298,2
307,335,304,291,2
306,342,305,286,2
305,341,310,282,2
305,333,318,280,2
308,324,326,281,2
313,313,335,285,2
320,300,341,290,2
325,285,341,294,2
324,273,337,298,2
314,267,329,299,2
302,267,320,300,2
294,272,311,302,2
291,280,304,306,2
290,290,302,309,2
289,299,305,313,2
289,308,310,317,2
290,317,311,321,2
292,325,309,322,2
297,334,303,321,2
301,340,295,319,2
305,341,291,315,2
307,338,293,313,2
307,332,299,312,2
304,320,303,313,2
302,304,303,317,2
300,293,302,323,2
301,289,302,330,2
303,287,301,335,2
305,285,299,336,2
305,283,297,334,2
305,282,296,331,2
305,280,295,328,2
306,279,295,323,2
306,278,296,318,2
305,281,297,313,2
304,286,300,310,2
305,292,304,308,2
304,298,310,305,2
304,303,314,303,2
303,308,316,302,2
302,313,316,300,2
301,316,312,298,2
299,317,306,297,2
298,318,298,297,2
298,320,293,298,2
298,324,290,300,2
299,329,290,303,2
298,334,290,309,2
298,336,291,318,2
298,337,292,326,2
298,334,293,333,2
300,329,293,338,2
303,324,294,341,2
306,321,296,343,2
309,320,301,340,2
310,322,309,332,2
310,323,320,322,2
309,321,329,311,2
308,316,333,301,2
307,306,332,295,2
306,298,325,291,2
305,292,313,289,2
305,291,300,288,2
305,294,289,288,2
306,301,283,287,2
305,307,281,288,2
303,309,282,288,2
301,306,283,289,2
300,297,285,290,2
299,285,288,292,2
300,274,290,296,2
300,269,292,302,2
302,272,294,308,2
302,280,294,313,2
304,291,295,316,2
304,303,295,317,2
304,312,296,317,2
304,319,297,316,2
304,322,299,313,2
303,320,299,309,2
301,314,299,304,2
300,307,299,299,2
299,301,300,296,2
299,299,301,292,2
299,299,301,288,2
300,299,299,285,2
299,300,299,283,2
299,302,299,283,2
299,303,300,284,2
301,307,303,286,2
303,312,307,289,2
305,318,312,294,2
307,325,316,297,2
308,329,319,299,2
310,327,317,300,2
312,320,312,302,2
314,313,307,304,2
315,311,303,306,2
313,314,301,307,2
310,318,300,308,2
308,319,301,310,2
304,316,302,314,2
301,311,303,319,2
300,307,302,325,2
301,308,302,329,2
302,311,301,332,2
303,314,300,331,2
304,316,300,327,2
304,316,301,320,2
305,313,301,312,2
306,306,300,304,2
308,297,300,300,2
309,289,302,298,2
312,281,303,296,2
313,276,306,295,2
314,277,309,295,2
314,282,312,295,2
313,290,319,295,2
311,297,325,294,2
309,302,329,294,2
306,305,332,295,2
304,307,332,297,2
303,311,328,301,2
306,317,320,306,2
311,322,311,312,2
316,322,305,315,2
315,318,301,318,2
311,313,300,320,2
306,308,300,321,2
304,305,303,320,2
303,302,310,317,2
303,300,318,315,2
305,299,327,314,2
308,298,335,313,2
310,298,340,310,2
311,300,336,305,2
311,302,321,298,2
309,305,307,291,2
309,311,297,286,2
311,320,292,283,2
314,326,290,283,2
318,329,287,284,2
322,331,285,287,2
321,334,285,291,2
313,337,286,296,2
303,337,289,300,2
295,335,292,303,2
291,333,294,307,2
291,331,297,311,2
291,328,300,316,2
293,322,303,322,2
296,316,307,330,2
298,310,311,335,2
301,306,314,337,2
302,304,313,336,2
304,298,309,332,2
305,291,305,327,2
306,281,303,319,2
307,271,304,311,2
306,264,308,304,2
306,265,313,300,2
304,275,317,296,2
303,286,315,294,2
302,297,311,292,2
302,306,307,291,2
302,315,305,291,2
302,324,306,292,2
302,332,308,292,2
303,338,310,292,2
306,340,313,293,2
308,339,315,295,2
309,332,320,299,2
310,318,327,305,2
309,301,338,312,2
309,286,348,319,2
310,275,355,324,2
312,269,357,329,2
314,268,353,332,2
314,270,343,335,2
314,275,331,339,2
313,281,321,343,2
313,286,314,347,2
313,292,311,349,2
311,299,310,348,2
307,305,310,342,2
303,308,311,331,2
301,311,312,320,2
300,317,312,309,2
300,326,313,299,2
301,334,314,289,2
302,338,314,281,2
305,337,314,276,2
307,332,314,274,2
309,324,313,276,2
311,319,314,280,2
313,319,315,286,2
314,321,316,293,2
313,322,318,299,2
312,318,319,304,2
309,306,320,306,2
306,289,321,308,2
306,275,324,310,2
306,269,327,311,2
306,269,329,311,2
306,274,331,310,2
307,283,332,309,2
306,289,332,309,2
305,293,330,311,2
304,296,329,313,2
303,300,329,314,2
303,304,331,313,2
306,307,335,310,2
308,308,339,306,2
308,310,341,303,2
307,315,342,301,2
308,324,341,301,2
310,334,337,300,2
311,342,333,297,2
311,347,333,293,2
311,345,335,290,2
311,335,334,287,2
310,321,330,287,2
308,311,322,289,2
306,307,313,291,2
305,305,307,294,2
305,305,305,296,2
305,304,306,298,2
304,303,305,299,2
304,300,303,300,2
303,296,299,304,2
303,293,297,310,2
304,294,295,317,2
305,298,295,324,2
308,305,298,330,2
311,313,302,335,2
313,318,305,338,2
314,318,308,338,2
316,316,311,337,2
317,316,313,333,2
318,318,312,327,2
319,321,311,320,2
317,326,310,312,2
315,330,309,303,2
312,335,308,295,2
310,337,307,288,2
308,336,306,283,2
306,329,305,279,2
306,315,305,278,2
307,296,308,280,2
308,277,313,284,2
310,264,319,291,2
311,258,325,298,2
311,256,329,305,2
312,261,330,310,2
313,273,328,315,2
313,287,320,316,2
314,299,310,316,2
315,308,301,312,2
317,314,295,307,2
317,319,293,304,2
313,322,291,303,2
308,325,291,302,2
303,326,291,301,2
301,325,291,302,2
302,323,292,304,2
303,322,292,307,2
304,322,291,310,2
303,322,290,312,2
302,323,290,312,2
303,322,289,307,2
304,319,289,300,2
306,314,290,292,2
308,306,292,284,2
309,295,294,280,2
309,284,299,279,2
309,281,307,283,2
309,293,315,290,2
308,313,320,298,2
306,333,322,303,2
303,347,321,306,2
300,352,314,308,2
298,352,304,309,2
297,348,296,309,2
297,337,291,310,2
299,325,289,311,2
301,315,289,313,2
304,310,291,315,2
306,307,294,318,2
306,306,296,320,2
306,304,297,321,2
304,299,298,321,2
304,293,299,321,2
305,286,302,323,2
308,280,306,326,2
309,278,310,328,2
309,281,313,330,2
309,289,315,331,2
308,299,312,329,2
307,306,306,328,2
306,308,301,327,2
306,307,298,325,2
305,306,299,321,2
304,308,301,313,2
303,316,303,305,2
302,325,304,300,2
301,331,305,295,2
300,330,303,293,2
301,321,302,292,2
304,307,302,294,2
307,291,302,296,2
310,275,303,298,2
312,263,303,298,2
315,258,303,298,2
320,258,304,297,2
322,261,305,296,2
318,266,306,296,2
313,273,308,297,2
311,279,307,299,2
309,282,304,302,2
307,286,299,305,2
304,290,296,308,2
303,296,296,311,2
303,300,300,313,2
302,302,306,313,2
301,302,311,314,2
300,302,312,312,2
299,305,309,311,2
297,311,303,309,2
296,316,296,309,2
296,321,289,310,2
297,326,285,312,2
299,329,284,314,2
302,333,285,316,2
306,339,287,316,2
310,347,290,316,2
312,353,291,313,2
310,353,293,309,2
304,347,296,303,2
299,336,299,298,2
295,326,303,295,2
293,318,307,295,2
294,312,310,296,2
298,305,312,297,2
300,299,313,298,2
301,293,312,300,2
300,289,310,301,2
300,287,311,302,2
302,284,316,302,2
304,280,323,302,2
306,276,327,303,2
307,271,324,304,2
308,268,312,304,2
308,263,297,304,2
309,256,285,303,2
310,252,280,301,2
311,255,280,300,2
310,260,284,299,2
309,263,289,298,2
308,269,294,298,2
306,280,297,299,2
304,297,296,302,2
303,315,294,305,2
302,329,293,306,2
301,338,294,305,2
300,340,296,305,2
301,340,299,305,2
301,335,302,307,2
301,330,303,310,2
301,325,302,315,2
302,322,300,319,2
303,320,299,325,2
304,319,299,332,2
306,315,300,338,2
306,307,302,341,2
307,299,304,342,2
308,293,308,341,2
308,289,312,337,2
309,285,315,332,2
310,281,319,325,2
310,281,321,316,2
310,287,321,307,2
309,295,319,301,2
308,304,316,299,2
306,312,313,299,2
302,319,311,300,2
299,327,310,303,2
297,338,309,306,2
296,352,309,309,2
296,365,308,313,2
297,376,308,315,2
299,382,307,316,2
300,379,308,314,2
301,364,310,310,2
300,340,312,306,2
300,317,315,304,2
301,299,319,303,2
305,289,325,303,2
310,284,332,302,2
312,281,339,301,2
310,278,346,300,2
308,273,351,301,2
307,268,351,303,2
308,264,347,307,2
310,265,339,310,2
310,266,332,314,2
308,270,327,317,2
304,276,325,320,2
300,284,322,322,2
297,290,320,325,2
297,295,319,331,2
298,301,318,337,2
300,308,318,342,2
302,312,319,343,2
303,314,320,339,2
304,317,321,333,2
304,319,323,325,2
305,319,324,317,2
305,314,324,309,2
306,301,322,301,2
306,283,321,294,2
306,267,321,288,2
307,260,322,284,2
307,257,323,282,2
305,262,323,283,2
302,272,324,287,2
299,288,326,292,2
297,305,330,298,2
297,320,334,303,2
299,332,335,306,2
300,339,332,308,2
302,344,327,309,2
303,346,323,309,2
305,344,323,310,2
307,340,328,310,2
309,335,336,311,2
311,330,344,310,2
311,324,348,308,2
310,319,346,306,2
309,315,339,305,2
307,313,330,303,2
305,314,322,301,2
304,318,317,299,2
304,322,314,299,2
304,325,316,301,2
305,324,320,304,2
304,321,325,308,2
303,316,327,310,2
301,308,326,311,2
299,297,323,311,2
299,284,317,311,2
300,278,310,310,2
302,281,305,309,2
305,288,305,309,2
307,294,309,310,2
308,298,314,310,2
309,301,320,311,2
309,303,324,314,2
308,304,320,316,2
307,303,310,318,2
306,303,301,317,2
305,304,296,315,2
305,305,294,312,2
304,308,293,308,2
304,310,293,305,2
304,310,293,302,2
305,307,293,299,2
307,298,294,297,2
310,286,296,297,2
312,276,298,297,2
313,272,297,299,2
311,274,297,302,2
309,278,297,305,2
307,286,298,309,2
307,296,299,312,2
308,308,300,316,2
308,319,302,321,2
307,328,304,325,2
306,334,305,327,2
304,339,305,330,2
303,341,305,332,2
301,342,306,336,2
300,340,308,341,2
299,337,311,346,2
299,332,312,349,2
299,325,314,350,2
300,318,314,346,2
301,313,311,341,2
301,311,305,335,2
301,310,298,326,2
301,310,293,315,2
301,311,290,304,2
301,313,288,294,2
302,316,288,289,2
302,321,289,287,2
303,328,292,289,2
304,337,294,294,2
304,345,296,300,2
304,348,297,304,2
303,345,298,307,2
302,336,299,308,2
303,321,300,310,2
307,303,302,310,2
310,286,304,311,2
310,274,304,311,2
305,265,304,310,2
300,258,305,308,2
298,256,306,305,2
296,259,307,302,2
296,266,305,297,2
296,273,301,293,2
296,278,298,290,2
297,281,298,290,2
298,283,300,291,2
299,283,302,293,2
299,283,304,294,2
298,284,306,294,2
298,284,308,294,2
301,285,308,295,2
303,288,306,296,2
304,293,303,297,2
303,300,301,297,2
301,307,299,297,2
299,313,297,296,2
298,320,296,297,2
297,327,296,298,2
297,332,296,299,2
297,333,300,299,2
298,330,305,300,2
300,325,310,302,2
302,322,313,304,2
304,320,315,308,2
307,322,314,312,2
309,327,309,315,2
310,334,302,318,2
310,341,295,320,2
310,347,290,321,2
307,351,288,320,2
304,351,288,317,2
301,342,289,315,2
299,325,292,313,2
299,304,296,312,2
299,286,300,313,2
298,278,305,315,2
298,277,310,318,2
298,281,311,319,2
299,286,311,318,2
299,291,309,316,2
298,294,304,313,2
298,293,298,309,2
298,290,293,305,2
299,286,291,303,2
300,285,291,304,2
301,291,292,308,2
303,298,294,315,2
305,305,297,324,2
307,309,300,333,2
311,309,303,341,2
312,308,305,346,2
312,306,307,347,2
310,305,308,345,2
308,306,311,339,2
307,311,313,330,2
305,314,315,321,2
305,315,319,311,2
304,309,322,299,2
304,299,323,288,2
304,289,320,280,2
305,281,316,275,2
307,271,312,272,2
309,264,309,271,2
308,263,306,271,2
306,266,303,273,2
303,274,300,276,2
301,285,299,282,2
301,298,301,288,2
302,311,305,294,2
305,321,312,299,2
309,326,321,303,2
313,328,326,306,2
316,328,326,307,2
318,326,322,307,2
313,323,318,307,2
305,320,315,307,2
300,317,313,308,2
295,313,313,309,2
294,310,314,311,2
295,309,315,313,2
297,310,317,316,2
300,311,318,317,2
300,312,318,318,2
300,313,320,318,2
301,313,322,318,2
303,310,326,319,2
305,305,331,320,2
307,301,334,319,2
308,300,337,319,2
308,300,336,319,2
306,301,333,320,2
304,302,328,321,2
302,304,324,322,2
300,305,325,321,2
301,303,328,319,2
301,299,334,313,2
302,297,341,307,2
303,298,347,301,2
306,300,351,297,2
308,304,351,293,2
309,309,345,289,2
309,316,338,286,2
308,323,328,283,2
308,327,316,281,2
307,329,306,281,2
307,331,300,282,2
306,329,298,284,2
306,316,299,288,2
307,299,304,293,2
309,283,310,300,2
312,274,316,306,2
313,271,321,312,2
313,270,325,316,2
310,271,328,320,2
308,275,330,323,2
305,280,332,324,2
303,283,333,324,2
303,283,333,324,2
303,282,331,322,2
303,282,328,321,2
304,285,326,320,2
305,291,325,319,2
307,295,326,319,2
311,297,328,321,2
315,299,329,325,2
317,305,326,328,2
318,313,321,329,2
319,325,316,328,2
320,337,313,325,2
321,348,309,319,2
319,356,308,314,2
315,356,309,309,2
313,346,311,306,2
311,333,314,303,2
307,320,316,300,2
301,311,315,298,2
295,308,313,297,2
291,312,311,298,2
289,319,309,301,2
288,326,307,303,2
289,328,305,306,2
291,326,305,309,2
293,320,304,311,2
296,312,304,313,2
299,306,305,314,2
302,303,306,316,2
304,302,307,317,2
307,301,308,316,2
308,301,309,316,2
308,301,309,315,2
308,301,308,314,2
308,301,307,314,2
307,303,307,313,2
306,304,306,311,2
304,305,306,308,2
302,305,308,305,2
300,302,311,303,2
301,301,315,300,2
301,302,320,297,2
302,308,321,295,2
303,316,321,293,2
305,324,318,291,2
306,324,312,287,2
306,314,306,283,2
306,297,303,280,2
304,274,301,278,2
303,256,302,280,2
304,250,305,286,2
307,254,308,294,2
310,266,307,303,2
311,284,304,311,2
312,302,299,316,2
310,315,297,319,2
308,322,298,320,2
306,324,301,319,2
305,324,302,319,2
304,324,300,318,2
302,323,297,317,2
301,321,294,316,2
300,319,290,316,2
299,316,284,315,2
299,312,279,314,2
299,310,276,314,2
301,310,275,315,2
304,314,276,315,2
307,321,278,315,2
310,329,281,315,2
311,333,284,318,2
312,334,286,320,2
312,334,289,321,2
312,335,291,322,2
311,339,292,321,2
311,344,293,318,2
310,342,294,315,2
308,333,293,311,2
307,320,292,307,2
307,309,292,303,2
310,300,292,301,2
313,294,292,300,2
313,289,291,301,2
309,288,291,301,2
305,287,291,301,2
302,289,291,300,2
301,290,290,300,2
303,290,289,300,2
305,289,290,300,2
308,287,293,301,2
309,285,297,302,2
310,288,300,305,2
311,295,302,310,2
313,304,301,313,2
314,314,299,316,2
314,322,297,318,2
311,327,295,317,2
307,327,294,316,2
303,322,293,313,2
301,311,292,310,2
302,296,293,307,2
305,285,294,306,2
311,284,294,308,2
316,289,296,311,2
316,297,297,315,2
311,302,300,319,2
306,301,302,322,2
304,298,302,323,2
304,294,303,323,2
305,292,302,322,2
306,292,300,320,2
307,296,298,319,2
308,302,299,320,2
309,309,301,322,2
308,315,301,324,2
307,318,301,323,2
306,317,300,320,2
306,312,297,317,2
306,303,294,313,2
308,293,292,308,2
308,284,291,303,2
309,280,292,300,2
309,281,293,299,2
309,289,296,301,2
309,306,301,303,2
308,323,307,306,2
308,336,312,307,2
308,343,316,307,2
309,347,316,306,2
310,347,311,304,2
311,341,301,303,2
311,331,293,303,2
311,319,287,304,2
310,306,285,307,2
309,295,285,308,2
307,289,286,309,2
304,288,287,308,2
302,288,290,308,2
300,289,295,309,2
300,291,301,310,2
304,294,308,313,2
309,297,314,316,2
313,298,315,317,2
314,299,310,317,2
313,303,299,315,2
310,306,291,313,2
307,306,284,310,2
306,302,281,306,2
306,297,280,303,2
307,293,281,299,2
307,293,283,296,2
308,296,285,292,2
308,300,286,290,2
309,302,287,289,2
309,305,288,288,2
310,305,288,288,2
310,304,289,289,2
311,300,291,289,2
311,297,295,290,2
307,296,300,292,2
304,299,305,294,2
302,305,309,298,2
300,313,312,301,2
299,320,313,305,2
299,323,312,309,2
300,321,309,312,2
302,316,307,314,2
304,309,309,318,2
307,307,314,321,2
310,310,319,324,2
312,315,322,326,2
312,320,324,325,2
312,322,323,322,2
310,318,322,317,2
308,309,319,313,2
306,300,316,309,2
304,293,312,305,2
303,289,309,302,2
301,289,308,301,2
300,293,309,304,2
299,299,309,309,2
298,302,310,315,2
298,300,310,322,2
298,294,311,327,2
299,290,312,331,2
299,288,313,331,2
301,289,314,330,2
301,289,316,329,2
302,287,317,326,2
303,290,319,320,2
305,297,320,311,2
305,306,323,301,2
305,314,325,293,2
305,319,327,288,2
304,319,328,286,2
303,315,330,287,2
302,311,333,288,2
302,308,336,289,2
303,312,339,289,2
304,321,339,290,2
305,331,335,293,2
305,337,331,296,2
305,334,328,298,2
304,322,327,298,2
304,303,326,295,2
304,281,326,291,2
304,262,325,287,2
304,251,326,286,2
304,247,330,287,2
307,251,337,288,2
310,261,350,290,2
312,272,363,291,2
315,281,375,293,2
317,289,381,297,2
318,295,381,301,2
319,299,372,306,2
317,302,358,308,2
310,304,341,309,2
303,306,327,311,2
299,309,319,315,2
298,311,314,319,2
298,312,312,321,2
298,311,311,321,2
298,310,311,317,2
298,309,311,312,2
298,308,311,308,2
298,307,310,303,2
298,306,309,300,2
298,309,309,297,2
299,315,308,295,2
301,320,309,292,2
304,323,310,291,2
305,322,310,291,2
306,316,311,293,2
304,312,311,298,2
301,311,310,304,2
298,316,312,311,2
298,326,315,316,2
302,339,316,318,2
305,349,315,316,2
306,350,311,312,2
306,338,307,307,2
307,319,302,301,2
306,297,298,296,2
305,281,295,291,2
304,273,293,289,2
303,273,293,288,2
304,274,292,288,2
305,276,293,291,2
307,277,293,294,2
308,280,294,297,2
308,285,295,301,2
306,291,296,305,2
304,297,297,308,2
302,300,297,310,2
300,302,296,311,2
300,303,297,312,2
300,303,299,314,2
299,304,300,315,2
299,304,302,316,2
299,305,303,317,2
299,307,305,318,2
299,309,305,320,2
300,311,302,322,2
301,311,296,322,2
301,312,290,321,2
302,313,286,320,2
303,316,285,318,2
305,319,285,318,2
306,325,286,317,2
306,333,286,316,2
305,341,287,312,2
304,346,288,308,2
304,346,288,303,2
302,341,288,301,2
301,333,288,299,2
301,324,288,298,2
302,320,289,298,2
302,319,289,297,2
303,318,289,295,2
304,315,288,292,2
305,307,287,288,2
307,300,286,283,2
310,295,288,281,2
314,292,291,282,2
317,287,296,285,2
315,275,298,289,2
309,262,301,295,2
303,258,303,302,2
298,264,301,309,2
296,275,296,313,2
295,286,291,315,2
297,294,287,315,2
298,300,284,313,2
299,302,283,311,2
299,303,283,312,2
299,302,283,313,2
300,302,282,315,2
300,302,281,317,2
300,303,280,318,2
301,305,279,319,2
301,307,278,319,2
301,309,278,319,2
300,311,280,318,2
300,312,281,318,2
301,313,283,316,2
302,312,283,315,2
302,312,283,315,2
303,313,283,317,2
303,316,283,320,2
305,323,284,323,2
306,332,284,326,2
307,341,284,328,2
308,347,284,328,2
307,348,284,324,2
306,341,284,320,2
305,329,284,314,2
303,317,284,308,2
300,308,284,303,2
297,301,284,298,2
296,297,282,296,2
298,296,282,295,2
303,295,283,297,2
308,295,283,299,2
313,293,283,302,2
314,291,282,304,2
314,289,281,307,2
311,288,281,312,2
309,288,281,316,2
307,289,282,321,2
307,291,283,326,2
308,294,284,330,2
309,297,286,333,2
308,301,286,332,2
306,303,286,327,2
304,305,285,320,2
301,305,283,312,2
299,305,283,306,2
298,305,282,303,2
298,306,282,302,2
298,308,282,302,2
297,312,282,304,2
298,316,282,305,2
298,318,282,306,2
298,318,281,304,2
298,316,281,302,2
299,313,281,300,2
300,310,283,300,2
303,309,285,301,2
306,311,287,304,2
307,310,288,306,2
308,301,289,309,2
308,293,291,311,2
307,297,292,314,2
305,313,293,316,2
303,333,293,318,2
302,349,294,319,2
299,356,295,321,2
298,353,298,323,2
297,343,302,325,2
298,332,308,326,2
298,322,314,326,2
298,313,319,324,2
297,305,320,320,2
296,297,314,315,2
296,290,306,311,2
296,285,299,308,2
297,281,295,305,2
299,281,294,302,2
301,281,294,301,2
302,284,294,300,2
302,289,296,301,2
302,295,298,301,2
301,299,300,301,2
299,302,301,301,2
298,304,302,301,2
297,306,303,301,2
296,309,304,302,2
296,317,305,306,2
296,325,307,312,2
297,330,308,316,2
297,330,308,319,2
297,326,309,319,2
298,322,309,319,2
299,317,310,317,2
300,313,310,314,2
302,311,311,312,2
303,311,312,310,2
304,309,314,310,2
305,303,315,312,2
307,296,316,313,2
309,289,317,315,2
311,286,318,317,2
313,284,319,317,2
315,283,319,315,2
316,286,320,313,2
313,292,321,309,2
308,300,322,306,2
303,310,323,304,2
299,322,325,305,2
297,333,326,308,2
297,342,327,312,2
298,346,328,315,2
300,343,328,318,2
301,335,328,319,2
302,324,328,320,2
303,314,328,319,2
303,308,327,313,2
304,305,327,304,2
304,303,326,295,2
304,302,327,290,2
304,300,327,287,2
304,298,329,286,2
304,296,330,287,2
304,294,330,289,2
303,293,330,291,2
302,293,330,293,2
301,295,329,295,2
302,299,329,297,2
302,305,328,297,2
302,313,328,296,2
301,324,328,294,2
301,334,327,293,2
300,338,325,292,2
300,333,323,291,2
300,322,321,292,2
303,307,320,293,2
306,293,320,296,2
308,282,321,301,2
310,278,322,306,2
311,279,324,311,2
310,281,327,316,2
309,283,330,318,2
308,285,332,319,2
308,286,334,318,2
308,287,333,316,2
308,291,331,314,2
308,297,327,312,2
307,303,320,311,2
305,308,312,310,2
303,312,306,309,2
302,313,301,309,2
302,312,299,308,2
302,309,298,307,2
300,305,298,304,2
298,299,297,302,2
298,292,298,299,2
300,283,301,298,2
304,276,307,297,2
309,272,314,296,2
313,274,320,297,2
315,282,322,299,2
315,294,320,305,2
316,308,315,313,2
318,320,308,319,2
317,330,302,322,2
310,339,299,323,2
301,346,298,322,2
295,352,297,321,2
293,356,296,320,2
292,354,295,318,2
293,346,295,318,2
294,334,295,317,2
295,319,296,315,2
296,308,295,311,2
297,302,294,305,2
299,302,293,299,2
300,310,292,293,2
301,324,293,290,2
302,337,294,289,2
303,349,296,289,2
303,357,299,290,2
304,359,302,292,2
304,354,305,295,2
302,343,307,297,2
301,331,309,299,2
300,320,310,303,2
299,311,309,306,2
299,304,307,308,2
300,298,306,310,2
299,292,305,310,2
299,285,305,310,2
299,280,307,311,2
299,277,309,311,2
300,275,310,310,2
300,275,309,308,2
301,277,307,306,2
301,280,303,302,2
301,285,297,299,2
302,290,290,297,2
303,296,287,298,2
304,302,285,299,2
305,305,285,301,2
305,307,286,303,2
304,309,288,305,2
303,311,288,305,2
302,312,288,303,2
299,315,288,301,2
297,317,289,300,2
295,318,290,299,2
294,318,291,299,2
298,316,295,300,2
303,313,300,301,2
307,307,303,301,2
307,303,303,301,2
305,304,303,300,2
304,306,305,301,2
305,304,307,302,2
308,300,306,303,2
312,295,302,305,2
314,289,298,308,2
314,285,298,311,2
311,284,299,314,2
307,288,302,317,2
304,296,305,319,2
302,302,306,320,2
301,309,301,319,2
301,314,296,316,2
302,317,296,313,2
305,320,300,311,2
306,322,307,309,2
304,326,312,307,2
302,331,314,303,2
300,337,313,298,2
298,342,308,293,2
297,342,299,288,2
297,337,290,285,2
297,324,284,284,2
298,307,281,287,2
301,292,279,291,2
303,280,280,297,2
305,274,282,303,2
306,278,285,310,2
306,288,286,315,2
305,298,288,319,2
304,306,289,322,2
302,312,291,324,2
302,315,292,327,2
301,317,293,328,2
300,318,294,327,2
299,320,293,325,2
299,321,293,321,2
299,322,293,317,2
299,322,293,311,2
299,321,293,304,2
300,318,294,301,2
302,313,295,299,2
304,307,296,298,2
305,302,297,297,2
306,299,298,294,2
307,297,300,293,2
309,299,301,294,2
311,303,303,296,2
313,306,304,298,2
316,309,308,300,2
318,308,316,302,2
314,304,326,303,2
306,299,334,306,2
301,297,338,308,2
298,298,337,309,2
297,298,334,308,2
296,299,328,306,2
296,301,321,305,2
295,305,318,303,2
295,310,319,300,2
296,315,321,298,2
298,318,323,298,2
301,316,324,298,2
303,311,323,301,2
306,304,322,307,2
307,301,323,313,2
309,301,325,318,2
310,302,329,319,2
311,303,334,317,2
312,306,339,313,2
312,314,341,308,2
312,325,339,305,2
310,332,335,303,2
308,334,327,303,2
305,333,320,305,2
303,328,315,308,2
302,316,313,315,2
301,298,314,322,2
302,283,316,331,2
304,276,318,338,2
307,277,319,343,2
308,281,319,345,2
310,287,317,344,2
313,292,316,340,2
315,295,316,332,2
317,297,315,322,2
318,296,316,310,2
317,293,316,298,2
313,287,316,287,2
309,280,317,277,2
306,274,317,270,2
304,271,317,268,2
303,272,318,268,2
302,282,318,271,2
301,299,318,274,2
299,314,318,278,2
300,322,319,282,2
300,323,322,287,2
300,321,325,294,2
299,318,329,301,2
300,316,331,309,2
302,315,332,316,2
307,314,330,322,2
310,314,326,325,2
313,314,323,326,2
315,313,322,324,2
317,312,320,320,2
319,310,319,316,2
320,309,318,312,2
320,311,316,308,2
318,319,312,303,2
314,330,309,299,2
310,342,306,295,2
308,354,307,294,2
305,360,311,293,2
304,357,315,292,2
304,346,317,292,2
305,332,316,291,2
306,318,312,290,2
307,306,308,290,2
308,297,306,290,2
310,290,306,291,2
310,285,308,293,2
311,283,314,295,2
311,282,322,296,2
312,281,330,298,2
312,279,337,300,2
313,279,342,301,2
312,280,342,302,2
310,281,334,302,2
309,283,320,301,2
307,287,307,300,2
306,291,298,299,2
306,295,293,300,2
307,301,291,302,2
307,308,291,304,2
306,318,290,307,2
305,331,289,308,2
303,343,286,309,2
302,352,284,308,2
301,356,282,307,2
300,349,282,306,2
301,331,284,304,2
303,307,286,303,2
306,285,289,302,2
308,268,292,302,2
310,257,295,303,2
311,250,296,303,2
310,253,297,305,2
310,265,298,308,2
308,280,298,311,2
308,293,298,313,2
307,302,298,314,2
307,308,299,315,2
307,310,300,316,2
306,310,301,317,2
305,308,302,317,2
304,305,301,317,2
304,303,300,317,2
308,301,299,318,2
315,298,298,319,2
319,297,297,321,2
320,299,296,324,2
315,305,295,327,2
310,314,294,329,2
306,322,294,329,2
304,329,295,328,2
303,332,295,324,2
302,329,295,319,2
301,324,296,316,2
301,320,296,313,2
300,316,295,310,2
300,313,294,307,2
300,310,294,306,2
301,309,294,305,2
302,307,294,305,2
303,307,293,305,2
304,307,292,307,2
306,307,291,309,2
308,309,289,311,2
309,315,287,312,2
310,323,287,312,2
311,329,288,312,2
312,331,289,313,2
311,327,290,314,2
310,321,292,315,2
309,311,294,317,2
309,299,296,318,2
308,286,299,317,2
307,280,302,314,2
306,283,304,311,2
306,290,305,305,2
308,296,305,299,2
311,298,305,294,2
314,298,303,292,2
315,295,300,293,2
315,291,298,298,2
314,288,297,302,2
313,288,295,305,2
312,289,293,306,2
311,290,291,307,2
311,291,290,308,2
312,292,290,308,2
312,292,288,308,2
313,292,287,308,2
312,294,285,306,2
311,297,284,303,2
310,303,285,299,2
309,311,289,295,2
308,319,294,292,2
307,327,298,290,2
307,332,300,289,2
307,334,300,290,2
307,332,299,290,2
306,327,298,290,2
306,324,299,291,2
306,320,302,291,2
306,314,308,291,2
307,305,316,291,2
308,297,322,292,2
308,289,327,294,2
308,283,328,297,2
307,278,323,301,2
307,277,313,306,2
306,279,302,311,2
305,281,295,314,2
304,283,293,314,2
304,286,293,313,2
303,291,295,310,2
302,297,297,306,2
302,301,300,304,2
301,304,301,303,2
300,307,304,303,2
299,309,305,304,2
299,311,307,306,2
298,311,310,308,2
298,311,311,309,2
298,312,313,311,2
298,312,315,312,2
298,314,317,313,2
298,316,318,313,2
300,318,320,315,2
304,319,322,316,2
308,319,325,316,2
312,321,327,315,2
314,326,329,315,2
315,329,331,316,2
313,329,333,319,2
311,324,335,322,2
308,312,335,324,2
306,297,335,326,2
303,284,335,327,2
301,274,333,327,2
299,272,330,326,2
298,281,327,325,2
297,296,324,323,2
297,310,323,320,2
297,321,323,317,2
298,329,322,314,2
298,332,321,309,2
299,329,320,306,2
300,321,319,304,2
301,312,319,305,2
302,304,319,307,2
304,298,320,309,2
306,296,322,312,2
308,296,323,314,2
310,298,326,315,2
311,298,328,316,2
311,296,330,315,2
309,290,332,315,2
307,284,332,312,2
305,277,331,308,2
303,270,330,302,2
302,268,327,296,2
302,272,323,290,2
302,281,320,288,2
303,291,317,287,2
305,297,314,289,2
304,298,313,291,2
301,296,312,294,2
298,294,311,296,2
297,295,311,298,2
297,298,310,301,2
298,301,310,305,2
300,306,309,309,2
302,312,310,312,2
303,318,310,313,2
303,325,310,312,2
302,329,309,309,2
301,328,307,304,2
301,322,306,300,2
301,316,306,298,2
301,310,307,297,2
300,304,307,299,2
300,301,307,301,2
298,299,307,304,2
297,299,305,307,2
296,300,304,310,2
295,301,303,313,2
296,301,303,316,2
297,301,303,318,2
298,300,304,321,2
300,297,304,323,2
303,293,304,325,2
304,290,305,325,2
304,289,305,322,2
303,290,304,318,2
302,291,304,312,2
300,292,302,308,2
299,293,301,305,2
299,294,301,304,2
299,297,300,304,2
298,299,300,304,2
297,302,301,304,2
296,305,302,303,2
296,309,303,303,2
298,313,303,303,2
301,317,303,304,2
303,317,304,305,2
304,315,308,306,2
305,309,310,309,2
307,301,308,315,2
308,290,304,322,2
310,283,300,328,2
313,286,297,332,2
314,296,296,334,2
313,307,294,334,2
309,316,294,332,2
304,322,293,328,2
300,324,292,324,2
297,324,292,318,2
296,322,293,312,2
296,319,294,307,2
296,315,295,305,2
296,312,295,306,2
297,311,295,308,2
299,312,295,313,2
301,312,293,317,2
303,312,292,322,2
305,310,291,325,2
306,306,291,327,2
307,303,292,326,2
308,302,292,325,2
309,303,294,323,2
310,307,295,322,2
309,310,296,318,2
309,311,296,313,2
308,310,296,308,2
306,309,295,304,2
304,308,293,300,2
303,309,291,297,2
301,311,289,294,2
299,314,288,292,2
298,317,287,288,2
297,319,287,283,2
297,319,289,279,2
297,316,292,276,2
297,310,296,275,2
297,307,299,279,2
297,304,301,285,2
298,301,300,291,2
299,300,297,298,2
300,300,294,305,2
301,300,292,312,2
302,301,291,317,2
303,302,291,320,2
304,302,291,322,2
304,303,291,322,2
304,304,291,320,2
304,305,291,317,2
303,308,291,313,2
301,313,291,308,2
299,318,290,303,2
298,322,290,300,2
297,328,290,299,2
298,336,292,299,2
298,343,293,301,2
298,342,294,302,2
298,332,296,303,2
299,314,296,305,2
300,295,297,306,2
301,281,298,307,2
303,276,299,308,2
305,277,300,309,2
306,284,303,310,2
307,293,305,310,2
307,301,307,310,2
307,306,308,310,2
305,307,308,310,2
303,302,308,311,2
302,295,307,311,2
300,286,305,310,2
299,278,304,309,2
299,274,304,307,2
300,272,306,305,2
300,270,309,304,2
301,268,311,303,2
301,271,313,304,2
301,279,312,306,2
300,288,311,308,2
300,296,309,309,2
300,301,307,311,2
301,305,307,314,2
301,308,308,320,2
302,312,310,325,2
303,315,313,329,2
303,319,316,332,2
303,321,318,334,2
303,322,319,334,2
303,321,318,333,2
305,320,318,330,2
307,319,317,328,2
309,319,317,326,2
310,319,316,323,2
310,318,316,320,2
309,317,316,316,2
306,317,316,313,2
304,318,317,311,2
304,318,318,312,2
303,318,319,313,2
304,316,319,314,2
305,313,319,315,2
305,311,319,315,2
306,313,318,314,2
307,319,319,312,2
308,325,321,308,2
309,331,324,304,2
308,335,328,299,2
307,338,330,295,2
306,338,329,292,2
306,337,326,290,2
307,333,322,288,2
309,327,319,287,2
312,318,317,287,2
315,309,317,287,2
315,301,318,289,2
313,295,319,291,2
310,293,321,293,2
308,292,322,296,2
307,292,323,300,2
307,290,324,303,2
308,288,324,308,2
309,287,325,313,2
310,289,325,319,2
312,293,326,325,2
313,299,327,330,2
313,306,327,334,2
312,313,326,334,2
312,318,324,331,2
311,321,323,325,2
309,321,321,317,2
307,315,319,309,2
306,307,317,301,2
305,303,315,296,2
305,298,314,295,2
305,289,314,296,2
305,276,315,298,2
305,269,317,301,2
306,275,318,304,2
307,289,319,306,2
308,303,318,305,2
309,313,316,303,2
310,319,314,302,2
309,322,311,302,2
308,324,308,303,2
306,325,307,305,2
305,327,306,307,2
304,330,306,309,2
303,333,306,310,2
302,337,305,309,2
300,340,304,307,2
299,342,303,305,2
299,342,302,303,2
300,341,301,301,2
300,338,301,300,2
300,335,301,300,2
301,331,302,301,2
301,326,303,302,2
301,319,303,303,2
302,312,303,305,2
303,303,304,306,2
304,295,304,307,2
306,290,304,310,2
308,290,302,315,2
309,293,301,321,2
310,296,299,325,2
310,299,299,327,2
309,300,299,327,2
308,301,299,327,2
307,301,299,324,2
304,302,298,321,2
303,305,298,318,2
301,312,298,314,2
301,321,297,311,2
300,327,296,309,2
300,328,296,308,2
300,324,296,308,2
300,317,296,308,2
301,310,296,306,2
302,301,296,304,2
304,293,296,302,2
306,286,296,302,2
309,281,296,303,2
310,279,296,304,2
310,281,296,306,2
310,288,295,309,2
309,297,296,313,2
307,307,296,316,2
305,314,297,319,2
304,318,298,322,2
303,320,300,323,2
302,321,301,323,2
301,321,300,321,2
301,321,298,318,2
300,321,297,315,2
299,322,294,311,2
298,322,291,307,2
298,321,289,303,2
298,318,287,299,2
298,315,286,297,2
299,311,287,296,2
299,309,288,297,2
301,308,291,300,2
302,309,294,302,2
304,312,296,304,2
307,314,299,304,2
309,315,300,304,2
310,317,301,304,2
311,322,298,304,2
312,331,294,305,2
315,340,291,307,2
317,344,292,309,2
315,345,295,312,2
310,345,298,314,2
304,341,299,315,2
299,333,300,316,2
297,323,301,315,2
297,314,302,315,2
299,308,301,316,2
299,304,300,316,2
299,301,298,317,2
297,299,295,318,2
297,296,292,319,2
296,292,290,319,2
297,287,289,319,2
299,282,289,319,2
301,281,290,317,2
302,286,291,315,2
302,292,291,312,2
301,295,290,309,2
301,295,288,306,2
300,294,287,303,2
300,292,286,302,2
300,289,285,301,2
300,286,285,300,2
301,286,285,299,2
302,292,284,298,2
303,299,283,296,2
303,309,281,293,2
303,319,279,291,2
303,330,279,289,2
304,341,279,289,2
304,349,280,290,2
305,351,281,292,2
306,342,283,294,2
306,326,286,296,2
306,309,288,297,2
307,296,291,299,2
308,290,293,300,2
307,290,293,302,2
306,293,293,303,2
305,298,293,304,2
304,301,293,304,2
303,301,293,305,2
304,301,293,306,2
305,301,294,307,2
305,301,295,308,2
306,302,296,309,2
306,303,296,309,2
306,304,295,311,2
306,306,295,313,2
306,311,295,314,2
307,319,296,316,2
308,329,297,318,2
309,340,298,319,2
309,353,299,318,2
309,365,299,316,2
308,372,300,312,2
308,372,301,308,2
307,365,302,305,2
308,354,303,303,2
308,336,305,302,2
308,310,306,303,2
307,288,307,304,2
307,275,308,306,2
306,268,309,308,2
306,263,310,310,2
306,258,312,312,2
306,256,313,313,2
306,255,313,313,2
307,257,314,313,2
308,260,317,314,2
310,265,319,316,2
312,271,322,315,2
315,276,324,315,2
317,281,326,314,2
319,287,325,314,2
317,293,323,315,2
311,298,320,315,2
306,301,318,314,2
301,300,316,313,2
298,298,315,311,2
297,300,314,307,2
296,303,315,304,2
296,308,318,302,2
297,314,322,302,2
298,319,326,302,2
299,322,327,302,2
301,321,324,300,2
302,313,318,298,2
303,301,313,296,2
304,287,310,296,2
306,273,309,296,2
306,261,310,297,2
307,255,311,300,2
308,259,314,305,2
309,274,316,310,2
310,295,318,313,2
310,316,320,314,2
309,335,320,315,2
307,349,321,316,2
303,361,320,317,2
300,370,319,319,2
298,376,318,319,2
298,378,316,319,2
298,375,315,317,2
298,366,314,312,2
299,352,313,307,2
300,337,312,302,2
301,322,311,298,2
302,310,311,296,2
303,299,310,295,2
305,289,310,296,2
307,282,310,297,2
309,276,311,300,2
311,274,312,302,2
311,274,313,305,2
310,278,313,306,2
309,282,312,307,2
308,286,311,307,2
307,290,310,306,2
306,292,309,305,2
306,295,308,304,2
305,299,307,303,2
305,306,306,301,2
306,314,304,300,2
306,324,304,299,2
306,332,302,298,2
306,334,301,297,2
307,326,301,298,2
308,313,301,300,2
310,302,301,304,2
311,294,302,307,2
313,289,302,311,2
315,288,304,315,2
316,291,305,319,2
316,299,307,322,2
315,308,307,325,2
313,314,307,325,2
310,316,305,323,2
307,314,303,320,2
305,311,301,317,2
304,306,300,314,2
304,304,299,312,2
303,306,298,311,2
303,309,297,309,2
303,312,296,307,2
303,312,295,305,2
304,310,294,304,2
304,307,294,304,2
304,303,293,304,2
304,300,293,305,2
305,298,293,308,2
306,296,293,310,2
309,295,293,313,2
310,299,294,315,2
311,308,295,316,2
310,317,296,315,2
309,323,296,312,2
308,324,295,308,2
307,319,294,302,2
307,308,292,296,2
310,300,292,292,2
313,297,294,289,2
314,298,295,288,2
312,300,297,289,2
312,303,297,290,2
311,305,297,292,2
308,305,297,294,2
306,304,294,296,2
304,303,291,298,2
304,302,290,301,2
305,302,289,304,2
307,303,290,307,2
310,304,293,310,2
311,305,295,312,2
311,307,296,313,2
310,310,298,314,2
308,312,299,315,2
307,315,300,316,2
306,318,299,316,2
305,322,299,315,2
305,325,299,314,2
305,328,297,312,2
306,329,294,309,2
307,329,291,308,2
307,329,290,308,2
308,328,290,308,2
308,326,289,308,2
308,321,288,306,2
307,313,287,303,2
305,305,287,300,2
304,301,288,300,2
304,300,289,302,2
305,301,292,305,2
307,304,294,308,2
307,308,296,311,2
307,311,297,312,2
305,311,297,314,2
303,308,297,316,2
301,303,297,319,2
299,298,296,320,2
300,292,297,321,2
302,287,297,319,2
304,284,297,315,2
305,283,296,310,2
305,285,295,305,2
306,286,294,300,2
306,286,293,296,2
306,285,292,293,2
306,284,291,293,2
307,283,290,294,2
308,285,290,296,2
310,291,290,298,2
311,299,291,301,2
312,310,291,304,2
313,319,292,307,2
314,327,292,308,2
314,330,292,309,2
313,328,291,310,2
311,325,290,311,2
310,322,289,312,2
310,324,288,313,2
311,329,287,314,2
313,333,287,313,2
314,332,286,311,2
314,326,286,308,2
311,315,286,305,2
308,299,286,300,2
305,281,287,294,2
305,267,288,289,2
307,262,289,287,2
308,265,291,286,2
308,271,292,286,2
308,280,293,286,2
308,287,293,286,2
309,293,295,286,2
310,298,297,289,2
309,301,300,293,2
308,303,303,297,2
307,305,305,300,2
305,304,306,302,2
303,303,306,302,2
302,302,303,302,2
302,301,299,300,2
301,301,296,300,2
302,302,294,299,2
302,304,294,299,2
302,305,294,298,2
303,307,294,299,2
304,307,295,299,2
305,307,296,301,2
306,306,298,302,2
307,304,300,303,2
308,302,302,305,2
309,300,304,306,2
309,298,305,307,2
310,296,307,307,2
310,294,309,307,2
311,293,311,307,2
311,294,313,308,2
312,294,315,309,2
313,293,316,308,2
313,292,317,307,2
313,291,318,306,2
311,290,318,305,2
306,288,318,306,2
302,287,318,307,2
298,287,317,311,2
296,289,316,314,2
296,293,316,318,2
298,301,316,322,2
300,308,317,326,2
302,316,319,329,2
305,322,321,331,2
306,325,323,332,2
307,323,325,332,2
308,320,327,330,2
308,318,327,327,2
308,318,327,322,2
307,317,327,318,2
306,317,326,315,2
306,317,325,314,2
306,317,325,315,2
306,316,324,318,2
306,317,323,320,2
307,320,322,318,2
306,324,320,315,2
306,328,318,310,2
306,329,317,305,2
306,327,317,300,2
307,322,317,296,2
308,315,317,294,2
310,304,318,292,2
311,293,319,293,2
312,285,320,293,2
312,284,321,293,2
312,287,321,294,2
311,291,320,294,2
310,293,320,295,2
310,294,319,297,2
309,293,319,299,2
310,291,319,302,2
309,290,318,305,2
309,291,318,309,2
308,294,317,313,2
308,296,316,316,2
307,296,315,318,2
307,295,313,317,2
308,292,311,315,2
311,289,309,311,2
313,287,308,307,2
314,287,307,304,2
311,289,307,303,2
306,296,307,305,2
304,303,308,307,2
304,311,309,309,2
306,318,309,308,2
306,325,308,307,2
306,327,307,304,2
306,324,307,302,2
307,317,308,299,2
308,310,310,298,2
309,307,313,299,2
309,306,314,301,2
308,309,316,305,2
307,315,315,308,2
306,322,311,312,2
305,327,307,316,2
304,326,303,321,2
304,322,301,325,2
305,315,301,329,2
307,311,302,331,2
308,308,304,332,2
309,307,305,332,2
310,306,305,332,2
309,305,306,330,2
308,304,305,328,2
307,304,303,325,2
306,304,302,322,2
305,304,301,318,2
304,304,299,314,2
303,304,299,312,2
302,305,298,310,2
301,306,297,309,2
301,306,297,307,2
301,306,297,304,2
301,306,297,300,2
302,305,297,296,2
304,305,296,293,2
306,307,295,291,2
307,310,296,289,2
308,315,296,288,2
308,322,298,290,2
308,329,299,293,2
309,331,301,295,2
310,327,302,298,2
311,321,303,300,2
312,316,303,302,2
311,312,302,304,2
310,310,300,305,2
308,309,298,305,2
306,308,297,305,2
305,307,296,305,2
304,305,296,305,2
304,305,296,306,2
304,304,296,306,2
304,303,296,308,2
304,302,296,309,2
305,299,296,310,2
306,297,297,312,2
308,295,298,314,2
310,295,300,317,2
312,297,301,320,2
313,301,303,322,2
314,308,304,325,2
315,315,304,326,2
315,319,304,326,2
315,320,303,323,2
315,319,302,319,2
312,317,300,315,2
309,315,299,308,2
307,312,298,302,2
304,310,297,297,2
304,309,296,295,2
303,310,296,295,2
304,311,296,298,2
304,312,296,301,2
305,313,296,302,2
306,314,295,302,2
307,316,294,303,2
308,317,294,304,2
309,316,294,305,2
309,312,295,308,2
309,305,295,310,2
309,299,296,312,2
308,293,297,311,2
307,288,297,309,2
305,286,297,305,2
304,287,297,303,2
303,292,298,302,2
303,297,299,302,2
303,301,301,302,2
303,304,302,303,2
303,308,303,305,2
303,311,304,307,2
304,313,303,308,2
304,315,301,309,2
306,315,300,311,2
307,313,300,311,2
308,309,300,312,2
309,303,300,311,2
311,298,300,309,2
312,295,301,306,2
313,294,302,305,2
314,295,303,304,2
315,298,304,304,2
315,303,305,304,2
315,308,305,303,2
313,313,305,303,2
308,317,306,302,2
303,320,306,302,2
299,320,305,302,2
297,319,305,302,2
296,316,304,303,2
296,313,304,305,2
297,309,304,308,2
299,306,304,313,2
300,302,305,317,2
302,298,306,321,2
304,294,308,326,2
306,289,309,329,2
307,285,311,332,2
309,287,313,333,2
310,292,314,332,2
310,298,314,329,2
310,303,314,324,2
309,307,314,318,2
307,310,313,311,2
306,313,311,307,2
305,314,310,304,2
304,314,309,303,2
304,313,309,302,2
303,311,309,302,2
302,310,308,301,2
301,312,307,300,2
301,316,307,298,2
301,319,306,296,2
302,320,306,295,2
304,320,306,296,2
305,319,306,299,2
308,318,307,304,2
309,316,308,309,2
311,315,309,313,2
311,314,309,315,2
311,314,309,314,2
311,316,308,313,2
310,317,308,311,2
309,317,308,311,2
308,317,307,311,2
306,317,307,312,2
305,321,306,313,2
305,324,306,314,2
305,325,306,313,2
305,324,306,310,2
305,324,304,307,2
305,324,303,303,2
306,322,301,300,2
306,318,300,298,2
308,312,299,297,2
309,303,298,298,2
311,294,299,300,2
311,286,300,303,2
309,280,302,307,2
306,279,304,310,2
304,281,305,312,2
304,286,306,311,2
305,293,307,310,2
305,301,307,309,2
305,309,306,309,2
304,316,303,308,2
302,319,301,307,2
300,320,298,305,2
299,320,296,302,2
297,317,295,299,2
297,312,294,297,2
298,305,294,297,2
299,297,295,298,2
301,291,296,301,2
302,288,297,306,2
303,287,298,312,2
305,287,299,319,2
306,287,300,324,2
307,289,301,328,2
308,290,301,331,2
308,293,302,331,2
308,294,302,329,2
307,297,300,325,2
305,298,299,319,2
303,299,297,312,2
302,301,295,304,2
302,304,293,297,2
302,306,292,291,2
303,307,291,288,2
304,305,291,286,2
304,306,292,287,2
305,312,292,289,2
304,317,293,292,2
303,317,293,294,2
303,312,293,295,2
304,305,292,297,2
307,297,292,299,2
310,293,293,302,2
313,293,294,306,2
312,298,294,311,2
308,307,295,314,2
305,320,295,315,2
303,337,295,316,2
302,354,294,315,2
301,367,293,315,2
301,375,292,315,2
301,376,292,316,2
302,366,291,317,2
302,351,292,319,2
303,334,293,321,2
303,317,294,323,2
303,302,295,325,2
304,290,296,325,2
304,281,296,324,2
306,273,296,321,2
307,264,295,315,2
309,256,295,307,2
310,253,296,301,2
310,254,296,298,2
310,258,298,299,2
310,264,299,304,2
309,273,300,312,2
309,284,301,320,2
307,292,302,327,2
306,296,302,333,2
305,300,302,337,2
304,304,300,338,2
303,310,299,336,2
304,320,298,332,2
304,331,297,326,2
304,338,296,317,2
303,338,295,309,2
301,333,294,301,2
300,325,292,296,2
298,316,291,292,2
299,306,290,290,2
299,297,289,289,2
301,290,289,289,2
303,286,290,289,2
304,285,291,291,2
305,288,293,295,2
306,296,294,301,2
305,304,295,306,2
303,311,295,310,2
302,316,296,311,2
300,319,296,311,2
300,320,295,309,2
300,321,296,307,2
301,321,297,306,2
302,322,298,305,2
303,326,299,304,2
303,329,300,303,2
304,334,299,302,2
304,338,297,302,2
303,339,296,303,2
303,337,294,303,2
303,330,295,304,2
303,321,296,306,2
303,312,298,309,2
303,303,300,312,2
303,295,302,314,2
304,292,304,315,2
304,294,305,314,2
304,302,305,313,2
303,312,305,310,2
301,321,305,306,2
300,328,304,302,2
299,329,303,298,2
299,325,301,294,2
299,318,301,292,2
299,312,300,289,2
299,309,300,287,2
301,306,300,286,2
303,303,300,286,2
307,296,301,288,2
312,289,302,292,2
317,285,305,298,2
318,285,307,306,2
316,290,310,314,2
311,299,312,322,2
307,309,313,329,2
304,317,314,334,2
303,321,314,335,2
302,320,314,334,2
302,315,313,333,2
304,309,312,332,2
305,304,311,330,2
305,302,310,327,2
305,299,309,322,2
304,295,309,316,2
303,289,307,310,2
302,282,306,304,2
302,275,305,299,2
303,269,305,295,2
304,266,304,290,2
305,267,304,286,2
307,272,302,282,2
308,277,301,278,2
309,279,300,276,2
308,278,300,276,2
308,278,300,277,2
307,281,301,280,2
306,284,301,283,2
305,289,300,286,2
303,298,300,290,2
302,308,299,294,2
302,316,299,297,2
302,321,299,299,2
303,323,299,300,2
304,322,299,301,2
305,322,298,301,2
305,322,298,302,2
305,321,297,304,2
306,319,296,307,2
307,318,296,310,2
309,316,297,314,2
311,315,298,317,2
312,316,299,321,2
313,317,300,325,2
312,317,301,328,2
311,314,302,329,2
311,310,302,327,2
310,307,300,323,2
309,306,298,317,2
308,307,296,311,2
307,309,293,305,2
306,311,291,300,2
305,313,288,297,2
304,316,286,296,2
303,318,285,298,2
303,319,285,303,2
303,317,285,309,2
304,313,285,314,2
304,307,286,320,2
305,303,285,323,2
306,302,285,325,2
307,305,284,325,2
308,310,282,322,2
310,316,280,319,2
311,319,278,315,2
311,317,277,312,2
311,308,278,310,2
310,299,279,306,2
308,292,279,302,2
307,286,278,297,2
306,281,277,293,2
305,279,276,291,2
304,280,275,290,2
304,283,275,294,2
304,287,275,300,2
303,291,275,307,2
303,294,275,314,2
303,296,275,318,2
303,297,275,321,2
303,296,275,321,2
304,295,275,320,2
305,293,276,319,2
307,291,276,317,2
308,290,277,316,2
309,290,278,315,2
309,290,279,313,2
309,292,280,309,2
308,294,281,304,2
307,298,281,300,2
307,302,281,298,2
307,307,280,297,2
307,310,281,299,2
307,312,282,302,2
306,313,282,306,2
305,312,283,309,2
304,307,283,310,2
304,300,282,309,2
304,292,280,308,2
306,288,277,305,2
306,287,275,304,2
304,289,273,304,2
302,291,273,307,2
302,296,274,310,2
302,302,276,314,2
304,308,277,317,2
306,312,279,320,2
307,314,281,323,2
308,315,282,324,2
308,316,282,324,2
307,315,283,324,2
305,315,283,324,2
303,316,281,323,2
302,316,280,322,2
302,317,279,320,2
302,317,279,318,2
303,316,278,317,2
304,313,277,315,2
306,311,275,312,2
306,308,274,309,2
304,306,273,306,2
302,308,272,304,2
301,311,273,304,2
302,315,273,304,2
303,319,273,304,2
305,320,274,304,2
305,320,275,305,2
306,318,276,309,2
305,317,277,314,2
304,318,277,320,2
303,320,278,325,2
302,320,279,328,2
302,317,281,330,2
301,315,282,331,2
302,312,283,331,2
302,307,284,329,2
303,301,284,327,2
303,295,283,322,2
303,290,281,314,2
304,287,280,305,2
305,284,279,298,2
307,283,279,294,2
309,287,280,295,2
311,293,281,297,2
313,297,283,299,2
313,299,284,301,2
313,299,285,303,2
313,299,287,305,2
312,299,287,305,2
311,299,287,304,2
310,299,286,303,2
309,299,285,302,2
308,300,284,301,2
308,301,284,301,2
307,302,284,300,2
306,299,285,298,2
305,293,285,295,2
304,285,285,292,2
305,275,286,289,2
306,266,287,288,2
306,263,288,289,2
307,266,290,292,2
308,276,292,296,2
310,288,294,300,2
311,298,295,304,2
313,307,296,305,2
313,312,297,304,2
314,317,298,301,2
313,317,299,298,2
312,314,299,295,2
310,310,299,294,2
307,305,300,294,2
305,302,300,295,2
303,301,302,299,2
303,305,304,304,2
304,311,306,309,2
304,315,309,314,2
304,317,311,320,2
304,315,313,326,2
304,312,314,331,2
305,310,315,334,2
306,308,316,334,2
308,306,317,332,2
310,305,318,327,2
313,304,320,322,2
317,305,320,317,2
320,307,322,312,2
323,310,323,307,2
320,314,323,304,2
312,318,324,301,2
305,322,324,298,2
300,327,324,295,2
297,332,324,292,2
296,336,324,291,2
297,340,324,290,2
297,341,325,289,2
298,336,326,288,2
300,325,327,287,2
302,310,329,286,2
304,295,332,287,2
306,283,335,291,2
307,277,338,295,2
308,274,340,300,2
309,272,341,304,2
310,271,342,308,2
311,270,342,311,2
311,271,342,316,2
311,273,342,321,2
311,277,342,327,2
310,284,342,332,2
309,291,343,337,2
308,299,344,339,2
307,306,344,340,2
306,312,344,339,2
305,316,344,338,2
305,318,344,336,2
305,318,342,334,2
306,316,341,330,2
306,312,340,325,2
306,308,338,320,2
308,305,336,315,2
309,303,334,310,2
310,301,332,305,2
311,300,330,301,2
312,297,328,298,2
313,294,328,296,2
313,290,327,294,2
312,286,327,292,2
311,284,327,290,2
309,287,328,290,2
307,293,328,290,2
306,298,328,292,2
306,302,327,296,2
305,305,327,300,2
305,308,326,304,2
305,308,325,306,2
304,306,324,307,2
304,302,323,306,2
304,298,322,305,2
304,296,321,304,2
304,299,320,306,2
304,304,320,310,2
305,311,321,317,2
307,316,321,324,2
308,318,322,330,2
310,318,324,335,2
311,318,326,338,2
311,319,327,338,2
310,318,328,336,2
308,317,328,332,2
306,316,329,328,2
305,314,328,323,2
304,312,328,317,2
303,311,326,310,2
302,311,323,302,2
302,313,320,295,2
302,317,317,290,2
302,322,316,287,2
301,327,314,287,2
301,331,312,287,2
301,332,311,288,2
302,329,310,288,2
303,323,309,288,2
304,314,309,289,2
306,305,310,291,2
307,298,311,294,2
309,298,312,297,2
309,304,313,299,2
309,312,313,301,2
309,318,313,302,2
309,318,312,304,2
310,314,312,306,2
312,309,312,309,2
312,303,312,312,2
309,297,312,313,2
306,292,312,314,2
303,288,312,314,2
301,285,311,312,2
300,285,309,310,2
300,285,307,308,2
300,285,306,307,2
301,286,305,307,2
303,288,304,309,2
304,292,304,311,2
305,297,304,313,2
305,304,303,315,2
307,311,303,317,2
308,315,304,318,2
308,316,304,318,2
308,313,304,317,2
309,304,305,319,2
308,293,306,321,2
308,281,307,325,2
307,276,308,330,2
307,280,309,335,2
306,288,309,339,2
305,297,309,340,2
305,304,308,339,2
304,307,306,336,2
304,310,304,331,2
305,309,302,326,2
305,307,300,323,2
306,305,298,321,2
306,305,297,318,2
306,305,296,314,2
307,305,296,309,2
308,305,295,305,2
307,307,296,304,2
306,310,296,303,2
305,314,296,302,2
305,317,296,301,2
304,319,296,298,2
303,321,296,295,2
303,321,296,292,2
303,321,295,291,2
302,320,294,291,2
302,319,294,291,2
301,319,293,293,2
302,318,294,294,2
302,317,293,295,2
302,316,294,296,2
303,315,294,297,2
304,314,294,298,2
306,313,295,299,2
307,312,296,301,2
309,311,297,304,2
310,314,297,306,2
311,322,298,307,2
311,332,297,307,2
311,340,296,305,2
311,345,294,303,2
310,346,292,301,2
307,344,291,300,2
304,338,290,300,2
301,329,290,302,2
300,320,292,305,2
301,312,294,309,2
301,305,295,311,2
302,298,296,314,2
303,294,296,315,2
303,294,296,315,2
304,295,295,314,2
305,295,294,311,2
307,292,292,308,2
307,287,292,305,2
308,282,291,303,2
308,277,292,301,2
308,273,292,301,2
307,271,292,300,2
306,270,293,302,2
306,270,293,303,2
305,272,293,305,2
304,277,294,306,2
303,287,294,306,2
302,299,295,307,2
303,308,294,307,2
303,313,293,308,2
304,316,291,310,2
306,317,291,313,2
308,314,290,315,2
309,310,290,316,2
307,307,290,316,2
305,303,291,315,2
303,301,292,314,2
302,301,293,314,2
302,303,294,318,2
302,307,296,324,2
303,312,297,330,2
303,316,297,335,2
303,318,298,337,2
303,319,299,337,2
303,319,299,333,2
303,319,300,327,2
304,318,300,320,2
305,317,301,313,2
306,316,301,307,2
306,316,301,301,2
306,318,299,296,2
306,320,297,291,2
306,323,295,286,2
307,327,294,284,2
308,335,293,282,2
309,346,293,280,2
310,358,293,281,2
310,366,295,283,2
309,364,297,286,2
307,349,299,290,2
306,327,302,293,2
305,302,303,295,2
304,277,303,297,2
303,257,303,297,2
301,243,303,298,2
300,236,302,298,2
300,237,301,298,2
300,246,300,299,2
300,259,300,300,2
300,269,300,300,2
301,275,301,299,2
302,279,301,298,2
303,281,301,298,2
304,282,301,299,2
305,283,301,300,2
306,284,301,303,2
307,286,300,306,2
307,288,299,310,2
308,291,299,314,2
308,294,299,317,2
309,297,301,319,2
308,299,302,320,2
308,300,302,319,2
307,300,301,316,2
306,299,300,312,2
306,298,298,308,2
306,297,296,304,2
306,298,294,300,2
306,300,293,298,2
307,302,293,296,2
307,303,292,295,2
307,301,292,295,2
307,299,292,296,2
306,297,293,298,2
307,297,294,301,2
309,298,296,306,2
311,300,297,309,2
313,302,299,313,2
315,307,300,316,2
315,315,302,319,2
313,326,302,322,2
311,337,302,323,2
307,349,302,323,2
303,358,301,321,2
302,360,299,318,2
301,356,297,314,2
303,346,295,309,2
305,331,295,305,2
305,317,294,300,2
303,304,295,297,2
301,293,296,293,2
299,283,297,290,2
298,276,297,288,2
299,272,297,289,2
300,268,297,291,2
301,266,298,296,2
302,267,299,302,2
302,274,301,308,2
303,283,302,315,2
303,294,304,319,2
303,304,304,322,2
302,312,305,322,2
302,319,305,322,2
301,323,304,321,2
301,327,304,319,2
301,329,303,316,2
301,329,303,311,2
301,327,302,306,2
301,324,301,302,2
301,322,301,300,2
302,319,301,299,2
303,314,302,298,2
302,307,302,297,2
302,301,303,297,2
302,294,303,296,2
303,288,304,297,2
305,283,305,297,2
307,280,306,299,2
308,279,307,300,2
309,280,308,302,2
310,280,309,302,2
310,280,309,301,2
309,279,309,301,2
306,279,309,300,2
302,282,310,300,2
298,289,311,302,2
296,297,312,305,2
295,303,314,309,2
296,306,316,313,2
297,307,317,316,2
298,309,318,319,2
298,311,319,321,2
298,314,319,322,2
298,319,318,320,2
298,324,316,318,2
299,328,315,314,2
299,329,314,309,2
300,328,313,306,2
301,326,313,304,2
302,322,313,302,2
302,317,315,300,2
301,313,316,298,2
301,310,316,296,2
300,307,316,294,2
300,304,315,294,2
299,302,315,292,2
299,301,315,292,2
299,301,315,294,2
300,302,316,297,2
302,302,316,301,2
304,302,317,306,2
306,301,317,312,2
307,299,317,316,2
306,295,317,320,2
303,291,316,321,2
302,288,315,321,2
302,290,314,320,2
303,293,314,319,2
304,297,313,318,2
305,301,313,319,2
306,304,313,321,2
305,306,313,322,2
304,307,313,322,2
303,310,313,321,2
302,314,312,319,2
302,317,311,317,2
302,317,312,314,2
303,314,313,312,2
304,310,314,311,2
304,307,315,310,2
303,305,316,309,2
302,302,316,307,2
301,299,316,305,2
300,300,315,302,2
300,302,315,300,2
301,305,314,299,2
302,309,312,298,2
302,311,311,299,2
302,313,311,300,2
301,311,312,300,2
301,305,313,302,2
300,297,314,303,2
299,291,314,305,2
298,290,313,307,2
297,294,312,309,2
297,299,311,310,2
297,304,309,310,2
298,307,309,310,2
299,308,308,310,2
301,306,309,309,2
302,304,309,309,2
303,301,309,311,2
303,299,309,315,2
304,297,309,320,2
306,297,310,325,2
307,298,311,328,2
308,299,312,329,2
308,302,312,328,2
307,305,313,324,2
307,307,313,319,2
307,310,311,312,2
307,311,309,306,2
305,313,306,301,2
304,313,303,297,2
303,313,301,294,2
303,310,300,293,2
302,308,300,294,2
302,307,300,295,2
301,306,300,297,2
301,305,299,298,2
301,303,298,297,2
300,300,297,296,2
299,299,295,295,2
300,298,295,294,2
302,298,295,295,2
305,297,296,296,2
307,296,297,299,2
308,296,299,301,2
309,297,300,303,2
310,300,301,305,2
309,304,301,306,2
308,308,301,306,2
307,311,300,306,2
306,313,299,305,2
306,314,298,305,2
306,315,297,305,2
306,315,297,304,2
306,315,297,302,2
307,315,297,301,2
308,315,298,301,2
308,314,299,302,2
309,314,298,303,2
309,314,299,305,2
310,313,298,309,2
310,313,299,314,2
311,313,299,319,2
311,313,300,326,2
313,314,302,330,2
315,315,303,333,2
317,317,305,332,2
318,319,306,328,2
314,320,307,323,2
310,320,306,318,2
306,320,306,312,2
303,319,304,307,2
302,318,303,302,2
301,317,301,298,2
301,315,300,294,2
301,314,299,291,2
300,313,299,288,2
301,311,298,287,2
302,308,298,286,2
304,305,297,286,2
305,302,297,289,2
307,302,297,292,2
309,303,298,297,2
308,303,299,302,2
306,303,300,306,2
303,307,301,307,2
302,312,302,308,2
301,315,302,309,2
301,317,302,311,2
301,318,302,314,2
302,318,302,317,2
303,319,302,319,2
304,320,303,320,2
305,321,304,322,2
306,321,305,323,2
308,322,305,324,2
308,322,305,324,2
309,321,304,324,2
309,322,303,321,2
309,322,302,318,2
308,322,301,314,2
308,321,301,310,2
308,317,300,306,2
308,308,301,303,2
308,297,301,301,2
309,288,302,301,2
310,285,303,302,2
310,287,304,305,2
310,291,305,308,2
308,295,305,311,2
308,299,305,315,2
308,302,305,318,2
307,305,305,321,2
306,308,304,323,2
305,311,304,324,2
304,313,303,322,2
304,313,302,318,2
304,313,300,313,2
306,314,299,308,2
308,314,299,303,2
309,311,298,300,2
311,305,298,297,2
311,297,298,297,2
311,289,299,299,2
311,284,301,303,2
309,284,302,307,2
307,285,303,309,2
305,288,303,309,2
304,292,302,306,2
304,296,300,303,2
304,296,300,300,2
306,294,299,298,2
308,292,299,297,2
306,293,300,297,2
304,297,300,297,2
302,302,301,298,2
301,305,303,300,2
301,307,304,303,2
302,307,304,306,2
304,306,304,310,2
306,307,304,314,2
307,308,304,317,2
309,311,305,318,2
309,316,305,319,2
310,322,305,321,2
310,327,306,324,2
311,330,306,325,2
310,330,307,325,2
309,326,307,322,2
308,322,307,319,2
307,320,308,314,2
306,320,308,307,2
305,320,308,302,2
305,317,307,297,2
304,312,307,294,2
304,305,307,291,2
304,299,307,291,2
305,292,307,291,2
306,287,308,294,2
309,283,309,298,2
311,283,312,305,2
312,285,314,313,2
311,288,316,320,2
308,290,318,324,2
306,290,319,326,2
305,290,321,324,2
304,288,322,321,2
305,286,323,319,2
305,285,323,315,2
306,287,323,311,2
306,294,322,308,2
305,302,321,305,2
304,308,320,304,2
303,309,319,304,2
302,305,319,304,2
301,302,319,305,2
302,301,318,305,2
302,300,318,305,2
303,300,317,305,2
304,300,317,306,2
305,300,317,307,2
307,299,318,310,2
309,297,319,313,2
311,293,321,318,2
312,290,324,321,2
313,286,328,324,2
313,284,331,324,2
313,286,334,323,2
312,294,335,321,2
311,310,335,317,2
309,329,333,312,2
308,348,330,308,2
307,363,327,306,2
307,370,324,305,2
307,368,322,305,2
308,362,319,307,2
310,353,317,310,2
310,341,316,313,2
307,326,315,317,2
304,311,315,321,2
302,299,315,324,2
301,289,315,325,2
302,283,315,324,2
303,279,315,322,2
304,276,315,321,2
305,274,315,319,2
305,276,315,316,2
306,279,314,312,2
305,282,313,308,2
304,286,312,303,2
303,291,311,299,2
302,296,311,295,2
302,302,310,293,2
302,307,309,292,2
302,311,309,293,2
303,312,308,296,2
303,312,308,301,2
304,313,307,307,2
306,312,307,312,2
308,309,306,317,2
311,305,306,319,2
314,301,306,318,2
315,298,305,314,2
315,295,305,310,2
314,293,305,305,2
313,291,307,302,2
311,289,308,298,2
309,290,309,295,2
306,294,309,292,2
304,301,308,291,2
302,306,308,291,2
300,309,307,292,2
299,310,306,292,2
299,310,305,294,2
300,310,303,294,2
302,305,301,296,2
304,298,300,298,2
306,294,300,301,2
308,292,299,304,2
309,291,299,306,2
308,292,299,306,2
308,291,299,305,2
307,289,299,302,2
307,284,300,299,2
306,280,301,296,2
305,276,303,296,2
305,276,305,299,2
307,281,307,302,2
308,293,307,306,2
307,304,305,308,2
305,311,304,310,2
303,313,303,312,2
301,314,302,313,2
300,315,301,313,2
298,315,301,312,2
298,315,301,312,2
299,315,302,311,2
300,313,302,309,2
300,312,301,305,2
301,311,300,301,2
302,309,298,297,2
304,308,297,295,2
306,308,296,296,2
309,308,296,297,2
311,310,296,299,2
312,312,297,302,2
308,312,298,304,2
304,312,299,305,2
301,312,300,308,2
299,314,300,310,2
299,316,300,312,2
299,319,299,313,2
300,320,299,314,2
300,317,298,314,2
301,312,298,315,2
300,306,299,318,2
300,301,300,321,2
300,300,300,326,2
300,302,300,331,2
301,308,299,336,2
302,316,299,340,2
304,323,299,344,2
307,327,299,343,2
309,325,298,339,2
310,317,298,331,2
310,308,297,323,2
310,299,297,314,2
310,289,297,308,2
309,280,297,302,2
309,275,297,298,2
308,276,297,293,2
307,281,295,288,2
305,286,293,283,2
303,289,290,280,2
301,291,288,278,2
300,292,286,277,2
299,295,285,277,2
298,296,284,279,2
298,297,283,279,2
299,297,283,280,2
299,299,283,281,2
301,303,283,284,2
303,308,285,287,2
304,313,286,290,2
306,317,287,294,2
307,320,289,297,2
307,318,290,298,2
307,316,292,299,2
306,312,294,299,2
306,311,295,299,2
305,312,295,300,2
305,314,296,302,2
306,316,296,306,2
307,316,296,311,2
308,315,297,314,2
307,313,297,317,2
307,311,297,318,2
306,310,296,315,2
306,309,295,312,2
305,308,295,307,2
306,306,294,304,2
306,303,294,301,2
306,300,293,299,2
307,297,294,298,2
307,296,295,299,2
307,297,297,300,2
306,299,298,301,2
305,304,298,303,2
304,313,299,305,2
304,322,299,306,2
305,331,299,308,2
307,338,299,308,2
309,345,299,307,2
310,350,299,307,2
312,353,299,308,2
311,352,299,307,2
308,342,300,308,2
307,328,301,309,2
307,312,301,310,2
308,298,300,310,2
310,287,300,312,2
310,281,299,314,2
307,278,301,317,2
304,278,303,322,2
303,279,306,328,2
303,283,308,333,2
304,288,310,338,2
304,296,312,341,2
304,303,312,340,2
303,310,310,335,2
303,315,308,328,2
302,318,306,320,2
302,317,303,313,2
302,311,302,307,2
302,304,302,304,2
302,297,302,301,2
303,290,302,299,2
304,284,303,298,2
305,278,304,301,2
307,271,305,303,2
308,266,306,305,2
310,264,307,303,2
310,269,307,301,2
309,277,306,298,2
308,286,305,296,2
307,298,305,295,2
307,313,304,293,2
307,327,302,293,2
307,335,302,293,2
306,336,302,294,2
304,333,302,295,2
302,328,304,295,2
301,322,305,295,2
301,314,307,294,2
301,308,308,292,2
301,302,310,291,2
301,300,312,291,2
302,302,315,293,2
302,308,317,295,2
303,316,319,298,2
303,323,320,302,2
304,327,320,305,2
306,330,320,306,2
307,333,320,306,2
308,337,319,306,2
309,343,319,306,2
310,350,319,306,2
309,356,319,307,2
307,358,319,309,2
303,355,320,313,2
300,345,319,315,2
297,329,317,316,2
295,311,316,316,2
296,298,315,315,2
299,293,315,314,2
302,293,315,312,2
303,293,316,309,2
304,292,316,307,2
305,291,315,307,2
307,292,315,308,2
308,294,315,310,2
310,295,315,311,2
312,297,316,312,2
315,297,316,313,2
318,295,318,314,2
320,291,319,316,2
320,288,319,317,2
318,288,320,317,2
315,290,320,316,2
313,293,318,316,2
313,297,315,316,2
314,302,313,318,2
317,308,313,321,2
319,314,312,323,2
316,316,313,323,2
312,317,313,322,2
308,321,314,318,2
305,325,314,312,2
303,327,315,306,2
303,326,316,304,2
306,323,317,304,2
310,319,318,304,2
315,314,319,304,2
319,308,321,305,2
318,304,322,307,2
312,303,321,310,2
307,306,319,313,2
304,310,316,313,2
302,313,312,310,2
302,318,309,307,2
302,321,306,307,2
302,324,304,307,2
302,328,303,309,2
302,330,302,311,2
302,329,301,313,2
302,328,301,314,2
303,330,301,315,2
303,333,302,313,2
303,334,301,309,2
303,330,301,305,2
303,325,299,299,2
303,317,299,296,2
304,307,299,292,2
304,298,299,291,2
305,290,300,291,2
306,283,301,291,2
306,281,302,291,2
306,283,303,291,2
307,286,303,290,2
306,284,302,288,2
306,277,300,287,2
305,273,298,287,2
304,277,296,288,2
303,287,294,290,2
303,294,292,293,2
303,295,292,296,2
303,290,292,299,2
303,285,292,300,2
303,284,292,301,2
303,288,292,302,2
304,294,292,304,2
305,302,293,308,2
306,308,294,311,2
307,314,295,314,2
308,322,297,318,2
309,328,298,321,2
310,334,298,324,2
312,340,298,327,2
314,344,297,330,2
316,344,297,329,2
315,343,296,327,2
312,341,296,322,2
307,340,296,318,2
302,339,296,314,2
298,337,296,311,2
295,333,296,308,2
294,326,295,305,2
294,318,293,303,2
294,310,292,301,2
295,304,291,300,2
297,303,292,300,2
299,310,293,299,2
301,323,294,297,2
302,334,296,295,2
303,340,297,294,2
305,338,298,296,2
308,330,299,298,2
310,319,300,302,2
311,309,301,306,2
310,306,302,309,2
309,309,302,311,2
307,314,301,311,2
305,321,300,310,2
303,325,299,308,2
301,325,298,305,2
298,322,297,303,2
297,319,297,301,2
297,315,297,298,2
298,311,297,296,2
300,305,295,294,2
302,300,294,294,2
305,294,294,296,2
307,289,296,300,2
309,287,298,305,2
309,288,300,309,2
310,292,302,312,2
309,295,303,312,2
309,294,306,310,2
309,289,308,308,2
309,277,311,305,2
309,261,313,303,2
308,246,313,302,2
306,239,312,303,2
304,249,311,308,2
303,273,309,314,2
302,299,306,319,2
300,319,301,320,2
300,329,294,319,2
299,333,290,316,2
300,332,288,313,2
303,327,288,310,2
304,320,288,307,2
305,312,288,305,2
305,305,290,304,2
304,299,292,304,2
304,295,294,304,2
304,293,295,303,2
304,296,295,301,2
303,301,295,300,2
303,305,294,299,2
305,309,294,298,2
308,311,295,297,2
313,314,296,298,2
319,322,297,300,2
323,333,298,303,2
319,344,300,305,2
309,351,301,307,2
300,351,303,309,2
295,344,306,308,2
293,330,308,306,2
294,315,310,304,2
296,304,311,303,2
298,300,309,304,2
300,303,306,306,2
303,308,303,309,2
304,313,301,313,2
306,316,301,317,2
308,316,301,321,2
309,315,301,324,2
309,309,300,328,2
308,302,299,331,2
307,296,298,334,2
305,291,296,334,2
303,288,294,332,2
303,284,293,328,2
305,281,292,322,2
308,279,292,315,2
310,278,291,308,2
310,278,291,302,2
310,280,290,300,2
309,284,289,300,2
308,289,290,302,2
308,294,290,305,2
307,298,292,308,2
307,306,295,310,2
308,316,296,312,2
308,330,298,311,2
307,343,298,309,2
307,352,298,306,2
307,357,298,303,2
307,362,297,300,2
305,366,297,297,2
303,367,297,294,2
302,365,298,294,2
303,358,301,296,2
305,345,304,299,2
307,326,306,302,2
307,304,307,304,2
306,283,308,304,2
307,268,309,304,2
310,260,310,304,2
311,258,312,304,2
310,260,314,304,2
308,263,316,305,2
307,267,317,307,2
306,272,317,308,2
306,277,317,310,2
305,282,317,311,2
305,287,315,312,2
305,291,313,313,2
304,296,312,314,2
303,300,312,316,2
303,306,313,320,2
303,312,313,323,2
303,321,313,324,2
303,330,313,323,2
305,336,314,319,2
307,335,314,312,2
308,327,313,304,2
310,314,313,296,2
311,296,313,291,2
312,277,313,290,2
313,262,314,293,2
314,256,315,299,2
315,261,316,306,2
316,274,317,312,2
315,288,318,315,2
312,302,318,315,2
307,314,318,314,2
303,323,318,312,2
300,326,317,309,2
299,327,317,306,2
298,328,316,302,2
298,327,314,298,2
299,326,314,296,2
299,325,313,294,2
301,324,312,294,2
301,322,311,293,2
302,317,309,294,2
303,308,307,295,2
303,298,307,298,2
304,289,308,300,2
306,284,308,304,2
306,285,309,308,2
306,288,310,314,2
306,293,313,320,2
305,297,316,328,2
306,298,319,336,2
306,299,321,342,2
306,301,322,346,2
306,303,322,345,2
305,305,320,342,2
305,305,316,335,2
304,306,310,326,2
303,306,305,317,2
302,308,302,310,2
302,312,300,304,2
301,317,298,299,2
301,322,297,296,2
302,327,296,293,2
302,330,296,292,2
302,332,296,293,2
303,330,297,294,2
304,326,298,295,2
305,322,299,295,2
305,318,301,295,2
306,316,302,295,2
305,316,303,296,2
305,318,303,296,2
304,319,303,297,2
304,320,303,297,2
304,318,302,296,2
305,317,303,295,2
306,315,303,295,2
306,311,302,296,2
306,306,303,299,2
306,303,304,305,2
305,303,306,310,2
303,304,306,314,2
302,304,306,317,2
302,303,306,320,2
302,303,306,324,2
304,304,307,327,2
306,305,308,330,2
308,306,307,331,2
311,307,307,329,2
313,306,307,326,2
314,305,307,322,2
312,302,307,320,2
307,298,307,316,2
304,297,307,312,2
301,298,306,306,2
299,302,306,300,2
299,307,308,296,2
300,313,312,294,2
300,320,317,294,2
301,326,320,298,2
301,332,321,304,2
302,335,320,311,2
303,335,317,316,2
304,334,314,320,2
306,330,312,322,2
307,326,310,322,2
308,319,308,321,2
307,313,307,320,2
308,310,306,317,2
308,310,307,314,2
308,308,308,309,2
306,300,309,304,2
305,292,310,297,2
304,287,311,290,2
304,281,310,285,2
305,276,308,282,2
305,278,305,281,2
305,284,304,282,2
307,290,303,285,2
307,295,305,288,2
308,298,305,291,2
307,301,306,295,2
307,304,306,299,2
307,307,307,303,2
307,310,306,305,2
307,311,306,306,2
308,306,306,305,2
309,298,307,305,2
311,291,307,304,2
312,287,307,302,2
313,287,308,300,2
312,288,309,298,2
312,291,309,297,2
311,293,310,297,2
309,292,310,298,2
305,290,310,297,2
301,288,309,296,2
297,288,309,296,2
295,289,308,296,2
294,292,307,298,2
295,295,307,301,2
295,298,307,304,2
297,302,307,306,2
300,307,307,309,2
303,312,308,310,2
306,316,309,311,2
308,319,311,313,2
310,319,313,315,2
311,316,316,317,2
313,312,319,319,2
314,308,321,318,2
314,309,321,316,2
313,313,319,312,2
313,317,315,309,2
310,319,310,306,2
306,317,305,305,2
302,311,303,305,2
299,306,301,305,2
298,305,300,305,2
299,309,300,305,2
302,313,300,305,2
306,312,299,303,2
310,306,299,302,2
310,295,297,300,2
307,282,297,299,2
305,274,298,297,2
305,274,300,296,2
306,281,302,295,2
306,291,304,295,2
307,301,305,294,2
307,308,307,294,2
306,312,307,293,2
305,313,307,292,2
304,315,308,292,2
304,317,311,292,2
303,319,314,294,2
303,322,316,296,2
302,325,315,297,2
302,327,312,297,2
303,326,309,299,2
305,325,305,300,2
307,324,302,302,2
308,323,300,305,2
309,320,300,309,2
310,314,301,314,2
311,304,302,319,2
312,295,304,324,2
313,288,306,330,2
313,286,307,333,2
313,285,307,333,2
312,288,308,330,2
310,293,307,326,2
309,298,307,321,2
307,302,306,316,2
307,303,306,313,2
307,304,306,311,2
306,303,306,309,2
306,301,306,306,2
306,299,306,302,2
306,298,305,297,2
306,303,305,295,2
306,310,303,293,2
305,317,302,294,2
305,324,301,296,2
305,328,301,299,2
306,324,302,301,2
307,313,304,304,2
308,303,305,305,2
308,298,306,306,2
308,299,307,305,2
307,305,308,305,2
307,313,307,304,2
307,318,306,304,2
308,318,305,303,2
309,313,304,303,2
309,304,303,304,2
309,296,303,306,2
310,290,303,309,2
310,288,304,312,2
312,288,305,314,2
314,289,306,315,2
315,291,306,313,2
314,295,306,312,2
313,299,307,311,2
312,303,307,311,2
312,306,307,311,2
314,310,309,313,2
313,313,310,315,2
311,313,312,317,2
309,313,314,318,2
307,311,315,318,2
305,311,315,318,2
304,311,314,317,2
302,311,314,317,2
301,308,313,318,2
300,304,313,318,2
300,300,314,319,2
300,297,315,319,2
300,293,316,317,2
300,287,316,315,2
300,280,317,312,2
300,274,318,310,2
301,269,319,309,2
302,265,319,308,2
304,263,318,308,2
306,264,318,310,2
308,268,317,312,2
309,277,318,313,2
309,287,319,315,2
309,297,320,314,2
308,309,321,313,2
307,319,322,310,2
306,326,321,305,2
305,327,320,301,2
304,326,319,298,2
303,323,318,295,2
303,320,317,293,2
302,317,315,292,2
302,314,314,292,2
303,310,313,294,2
303,307,312,296,2
304,306,311,300,2
305,305,312,303,2
306,308,312,304,2
307,315,312,303,2
307,327,311,304,2
308,340,311,307,2
308,353,310,313,2
308,366,310,320,2
309,374,311,326,2
310,374,314,330,2
310,367,317,331,2
310,355,320,331,2
310,340,322,331,2
309,321,325,330,2
307,302,326,329,2
305,289,327,328,2
301,282,326,330,2
300,280,326,332,2
300,281,325,332,2
300,285,322,330,2
300,289,317,325,2
301,295,313,317,2
302,298,311,311,2
302,297,309,306,2
303,294,308,303,2
304,290,308,300,2
304,287,307,299,2
303,285,306,296,2
303,284,306,293,2
302,284,306,290,2
302,284,305,289,2
304,284,306,288,2
306,282,308,288,2
308,282,312,288,2
310,281,313,287,2
309,281,313,285,2
305,280,311,285,2
301,281,308,286,2
299,286,305,290,2
298,293,302,295,2
298,299,299,301,2
298,302,299,307,2
299,302,299,312,2
299,302,300,315,2
299,301,300,315,2
300,299,299,313,2
302,297,297,309,2
307,295,297,305,2
311,295,296,301,2
312,295,296,298,2
311,297,295,295,2
309,299,293,294,2
306,300,293,293,2
304,303,293,294,2
303,307,294,297,2
304,312,294,299,2
303,315,294,302,2
303,317,295,303,2
303,317,295,304,2
302,316,295,304,2
302,316,294,307,2
302,318,293,314,2
303,320,294,321,2
304,321,294,327,2
306,321,294,330,2
309,320,295,332,2
312,319,297,334,2
316,319,298,337,2
320,321,299,341,2
323,323,301,345,2
322,326,301,347,2
316,324,301,345,2
311,318,302,337,2
308,308,301,324,2
306,295,301,308,2
306,280,302,291,2
306,270,302,276,2
306,267,302,267,2
305,276,300,262,2
304,290,298,260,2
304,306,296,260,2
304,317,294,265,2
304,322,293,274,2
304,320,294,284,2
305,311,296,292,2
306,296,299,300,2
308,284,303,305,2
310,279,308,311,2
311,278,313,318,2
311,281,316,325,2
310,286,316,331,2
309,293,313,333,2
307,300,310,333,2
306,305,308,331,2
306,306,309,327,2
