313,324,318,328,0
310,321,316,314,0
308,318,314,299,0
306,313,313,287,0
305,309,312,280,0
303,305,312,276,0
301,304,313,276,0
299,304,313,279,0
297,305,313,282,0
297,308,314,287,0
297,311,314,291,0
297,311,314,293,0
297,310,313,294,0
299,310,313,295,0
301,311,313,296,0
302,310,312,297,0
302,305,311,298,0
301,299,310,302,0
303,297,311,309,0
306,299,314,316,0
311,306,316,323,0
316,319,318,329,0
321,331,319,332,0
324,333,319,334,0
324,332,319,334,0
320,331,319,332,0
315,329,318,329,0
310,321,318,327,0
305,305,317,324,0
302,288,315,319,0
300,274,313,314,0
299,270,312,311,0
299,271,310,310,0
300,271,309,309,0
299,269,308,307,0
299,261,307,306,0
300,256,307,303,0
301,262,308,301,0
303,280,309,300,0
307,302,311,300,0
311,321,313,300,0
314,336,314,302,0
315,345,315,304,0
315,349,314,307,0
315,348,314,312,0
316,341,314,318,0
319,331,316,326,0
321,321,318,332,0
323,317,318,336,0
323,321,317,338,0
320,328,316,337,0
315,333,314,335,0
312,333,313,331,0
309,331,312,326,0
304,326,312,321,0
297,321,314,314,0
292,316,315,308,0
290,314,317,302,0
291,315,318,298,0
295,314,319,297,0
299,308,319,302,0
303,301,318,309,0
305,295,318,315,0
305,288,317,318,0
304,282,317,319,0
300,281,316,318,0
296,289,315,315,0
291,298,314,309,0
289,304,313,302,0
292,308,313,298,0
297,309,314,293,0
304,308,313,290,0
311,305,312,286,0
315,300,310,286,0
317,297,310,288,0
318,297,312,294,0
320,297,314,302,0
321,298,315,311,0
322,304,316,316,0
323,314,316,320,0
323,324,318,321,0
323,329,319,320,0
321,327,320,318,0
318,318,321,316,0
315,306,321,313,0
313,292,320,309,0
310,280,319,305,0
307,270,318,304,0
304,267,316,305,0
302,272,315,308,0
301,288,315,311,0
300,310,315,315,0
299,328,315,318,0
300,334,315,321,0
300,329,316,324,0
302,313,316,326,0
303,295,317,326,0
307,284,318,327,0
311,289,319,327,0
314,304,320,327,0
314,320,322,325,0
313,327,323,319,0
312,326,324,312,0
312,318,323,306,0
312,308,322,303,0
313,297,321,302,0
313,284,320,303,0
312,274,319,304,0
309,269,317,305,0
307,270,315,306,0
304,278,315,306,0
302,296,314,305,0
301,314,314,305,0
301,326,315,306,0
303,332,316,308,0
306,334,318,311,0
311,334,319,316,0
313,332,322,322,0
315,329,323,327,0
315,329,325,332,0
314,331,326,335,0
312,333,327,334,0
309,333,328,332,0
307,331,326,327,0
306,324,324,321,0
308,313,321,316,0
311,303,320,314,0
314,299,319,314,0
312,301,320,316,0
304,301,320,318,0
293,302,320,322,0
288,304,321,325,0
287,304,322,328,0
290,301,323,328,0
294,296,323,324,0
298,290,321,319,0
300,284,320,314,0
303,278,319,310,0
305,276,319,309,0
306,284,318,310,0
307,300,318,314,0
306,316,317,317,0
305,329,317,319,0
302,339,317,319,0
299,345,317,317,0
295,346,317,312,0
289,341,315,305,0
284,332,313,299,0
283,320,310,293,0
284,306,309,289,0
288,289,308,289,0
292,274,308,294,0
297,261,308,303,0
300,251,308,311,0
302,246,309,316,0
305,247,310,320,0
307,258,312,322,0
310,277,314,323,0
311,300,316,324,0
312,323,318,325,0
314,343,319,323,0
315,355,319,320,0
315,352,319,316,0
313,341,319,311,0
309,331,319,306,0
302,326,319,304,0
296,325,319,302,0
294,327,319,302,0
296,330,318,302,0
301,330,316,304,0
305,329,312,306,0
307,330,309,309,0
307,332,306,312,0
306,332,305,316,0
308,330,306,320,0
310,325,308,323,0
313,319,309,322,0
315,313,311,320,0
316,312,311,316,0
316,315,311,312,0
315,320,311,310,0
314,321,312,309,0
312,317,312,306,0
310,312,311,301,0
307,309,309,297,0
306,307,308,293,0
307,306,307,291,0
309,307,307,291,0
311,309,306,293,0
311,311,305,298,0
310,312,304,303,0
307,313,304,307,0
304,313,303,312,0
303,312,304,318,0
303,308,305,323,0
303,297,306,329,0
304,281,308,333,0
304,267,309,335,0
306,258,309,334,0
307,253,309,333,0
309,255,309,331,0
309,266,310,327,0
310,278,310,322,0
312,284,311,315,0
313,286,310,310,0
314,290,308,306,0
314,298,306,301,0
308,306,304,296,0
300,312,302,293,0
294,311,301,292,0
292,304,300,294,0
291,298,300,295,0
292,301,301,297,0
295,311,303,301,0
299,319,306,306,0
303,321,309,311,0
303,317,312,316,0
301,313,314,321,0
298,311,315,325,0
297,312,316,329,0
300,317,317,333,0
305,325,318,335,0
308,333,318,335,0
311,337,317,333,0
312,337,317,330,0
311,334,317,327,0
311,329,317,323,0
309,325,316,319,0
307,324,316,316,0
306,328,314,314,0
306,332,313,315,0
308,329,312,317,0
308,319,312,319,0
306,311,311,319,0
305,307,311,320,0
305,304,313,322,0
307,300,316,325,0
309,300,319,329,0
311,303,322,330,0
313,305,324,329,0
313,306,325,326,0
313,304,324,322,0
312,302,323,317,0
311,299,322,313,0
309,297,321,309,0
307,296,319,306,0
304,297,316,305,0
303,303,314,305,0
303,312,312,306,0
305,321,311,307,0
306,326,310,307,0
304,328,309,305,0
301,327,308,302,0
298,326,307,298,0
296,320,307,296,0
294,309,307,295,0
293,296,308,296,0
294,283,310,300,0
295,274,313,308,0
297,271,317,317,0
299,275,320,328,0
304,285,322,336,0
309,291,323,341,0
311,289,322,343,0
310,280,320,343,0
308,270,319,341,0
305,265,318,336,0
303,268,316,330,0
300,277,314,323,0
299,289,313,320,0
297,303,311,321,0
296,316,310,322,0
295,328,308,323,0
295,338,308,321,0
296,349,307,319,0
298,356,308,315,0
302,353,309,313,0
306,339,311,311,0
309,324,314,311,0
310,312,316,311,0
309,302,316,310,0
305,295,316,311,0
303,293,315,311,0
302,295,313,311,0
300,299,310,312,0
299,301,308,312,0
297,301,306,313,0
296,300,306,314,0
298,300,308,318,0
303,305,311,322,0
311,313,314,326,0
318,320,314,327,0
321,322,313,328,0
322,318,312,328,0
317,311,310,331,0
308,301,310,333,0
299,291,309,335,0
294,286,309,334,0
291,288,309,332,0
290,289,310,327,0
290,287,311,320,0
291,283,311,313,0
293,279,311,304,0
295,274,310,297,0
298,275,310,293,0
302,288,310,292,0
306,307,309,293,0
309,324,309,294,0
311,333,309,294,0
313,338,309,295,0
315,338,309,297,0
316,335,309,298,0
318,329,308,300,0
317,319,307,302,0
314,306,307,304,0
311,296,308,307,0
308,290,308,311,0
306,287,309,315,0
305,287,311,319,0
304,289,313,324,0
304,293,316,327,0
303,296,318,331,0
301,298,319,335,0
297,305,321,339,0
294,310,322,342,0
289,311,320,342,0
284,312,318,339,0
285,316,316,335,0
292,318,315,331,0
303,315,313,329,0
314,309,311,328,0
322,302,308,325,0
326,296,304,320,0
324,293,302,315,0
319,292,300,310,0
313,291,300,306,0
309,290,301,305,0
307,290,302,306,0
306,291,304,307,0
307,293,305,308,0
307,295,307,307,0
308,297,307,306,0
307,298,306,305,0
305,296,304,303,0
301,292,302,299,0
297,285,300,295,0
294,278,298,295,0
295,278,299,300,0
298,283,301,306,0
303,291,303,312,0
309,304,305,319,0
314,314,306,326,0
317,316,308,331,0
319,311,309,333,0
320,305,310,334,0
320,298,311,333,0
319,291,311,332,0
317,286,311,330,0
316,288,312,326,0
315,300,312,320,0
314,318,312,313,0
313,336,310,304,0
313,351,308,294,0
314,363,305,287,0
313,366,304,284,0
309,353,303,287,0
305,331,304,292,0
303,310,305,297,0
303,292,306,301,0
303,280,309,303,0
302,272,310,305,0
300,267,311,305,0
298,264,310,304,0
296,265,310,302,0
295,268,308,301,0
295,276,307,301,0
297,290,306,302,0
299,305,307,305,0
303,315,308,308,0
306,321,309,309,0
307,323,311,308,0
308,320,311,305,0
308,314,311,301,0
308,309,311,298,0
308,307,310,298,0
308,304,310,298,0
308,304,310,300,0
308,305,310,302,0
307,305,310,306,0
306,302,310,309,0
304,295,308,311,0
301,287,306,312,0
300,280,304,310,0
299,274,302,306,0
298,265,298,301,0
299,255,296,298,0
304,256,296,296,0
312,266,299,298,0
317,277,302,301,0
317,285,304,305,0
313,292,307,309,0
309,301,308,312,0
304,313,309,316,0
300,329,311,321,0
298,344,312,328,0
298,355,313,333,0
297,360,311,335,0
297,356,309,335,0
297,345,306,330,0
298,331,303,321,0
300,316,301,311,0
302,301,298,304,0
304,286,297,299,0
303,276,297,297,0
303,276,298,298,0
305,281,301,307,0
309,289,304,319,0
313,298,306,329,0
317,306,307,334,0
319,311,309,334,0
319,315,309,330,0
319,315,309,322,0
318,312,308,313,0
316,307,307,306,0
315,301,307,301,0
313,299,306,297,0
310,302,305,294,0
307,308,304,292,0
304,311,304,292,0
302,311,305,296,0
300,309,306,300,0
299,311,306,304,0
297,312,305,307,0
295,311,304,307,0
296,309,303,307,0
299,306,302,305,0
302,301,301,301,0
305,294,300,298,0
307,288,298,296,0
310,289,298,294,0
316,300,299,293,0
322,312,300,291,0
321,317,301,289,0
313,315,301,288,0
305,309,302,288,0
299,303,304,290,0
296,305,305,292,0
294,308,305,293,0
294,309,305,294,0
294,305,304,295,0
296,298,304,296,0
298,293,304,297,0
300,288,304,299,0
302,288,304,302,0
304,296,304,305,0
305,304,303,308,0
304,305,304,311,0
303,303,307,316,0
304,303,310,319,0
307,305,312,321,0
310,306,313,321,0
310,306,314,320,0
308,306,315,320,0
304,305,315,320,0
300,303,315,323,0
298,300,315,328,0
298,299,315,332,0
300,302,314,334,0
304,309,313,333,0
309,319,310,327,0
311,327,307,317,0
312,333,305,308,0
310,331,302,300,0
307,320,301,295,0
303,306,300,293,0
298,296,299,292,0
293,293,298,294,0
290,300,299,298,0
291,311,301,301,0
294,320,305,306,0
300,323,307,309,0
304,322,309,311,0
307,317,309,312,0
308,309,308,311,0
310,300,307,311,0
310,296,306,310,0
309,297,305,307,0
306,301,305,305,0
304,308,304,304,0
303,315,303,305,0
302,318,302,309,0
302,311,302,314,0
303,292,302,320,0
306,274,303,324,0
308,264,304,328,0
311,265,306,330,0
314,272,307,333,0
316,284,307,334,0
317,297,308,335,0
317,307,308,332,0
316,310,310,327,0
314,309,311,321,0
312,309,311,312,0
308,304,311,304,0
306,295,311,299,0
305,287,311,297,0
305,284,311,297,0
306,287,311,298,0
306,294,310,298,0
306,307,308,298,0
305,320,306,298,0
303,332,304,299,0
301,341,303,299,0
302,346,303,299,0
304,343,304,299,0
309,334,304,298,0
315,319,305,297,0
321,305,306,295,0
325,295,306,292,0
323,291,307,292,0
318,293,307,294,0
310,296,309,297,0
303,297,311,300,0
299,297,312,302,0
298,296,313,303,0
299,297,313,302,0
301,299,312,302,0
303,302,312,301,0
305,304,313,302,0
308,301,313,304,0
310,295,312,306,0
311,284,311,308,0
309,273,308,311,0
305,267,306,313,0
301,273,305,315,0
302,288,304,316,0
306,301,304,315,0
308,311,305,312,0
309,316,304,306,0
308,316,305,302,0
307,313,306,299,0
305,310,308,299,0
303,314,309,301,0
302,324,310,304,0
301,335,310,307,0
299,340,309,308,0
296,342,307,308,0
294,344,306,309,0
293,345,305,310,0
294,345,304,310,0
297,342,304,310,0
299,336,303,309,0
303,326,301,308,0
307,312,301,309,0
311,295,301,312,0
314,278,302,318,0
316,262,303,326,0
317,251,306,332,0
316,250,308,336,0
314,260,309,336,0
310,272,311,336,0
305,287,311,333,0
302,300,311,329,0
304,313,311,325,0
308,322,311,320,0
310,325,310,315,0
309,321,308,309,0
308,314,306,306,0
306,308,305,307,0
303,304,304,310,0
301,306,303,313,0
301,315,302,314,0
302,327,301,311,0
306,333,301,307,0
310,332,301,303,0
315,325,302,300,0
318,314,304,300,0
317,304,306,302,0
316,294,308,307,0
315,285,310,312,0
313,277,311,316,0
309,273,310,318,0
305,272,307,318,0
302,274,304,319,0
303,276,302,320,0
311,281,303,323,0
316,289,304,325,0
316,297,306,327,0
310,302,308,325,0
304,307,308,323,0
300,314,309,321,0
298,322,308,318,0
297,330,307,314,0
299,336,306,311,0
301,336,303,309,0
302,330,302,307,0
302,322,301,304,0
302,311,300,301,0
302,295,300,299,0
301,277,300,296,0
301,261,301,294,0
302,253,302,292,0
303,253,305,292,0
304,260,306,293,0
304,276,306,293,0
304,301,305,296,0
304,327,305,300,0
305,346,304,305,0
307,356,304,311,0
307,357,303,316,0
304,350,302,321,0
301,339,301,324,0
298,330,301,327,0
297,326,302,328,0
299,323,303,329,0
303,315,305,329,0
307,305,307,327,0
310,295,308,324,0
312,291,308,318,0
315,298,308,312,0
318,307,309,306,0
321,312,310,302,0
323,312,310,298,0
324,310,310,294,0
325,308,308,291,0
326,305,306,288,0
323,304,304,285,0
317,305,303,283,0
310,305,302,283,0
303,302,301,283,0
298,294,301,283,0
294,284,301,285,0
292,280,300,288,0
292,284,300,292,0
295,294,301,298,0
298,304,301,306,0
302,314,303,316,0
304,319,305,326,0
305,321,308,333,0
305,321,311,336,0
306,318,312,337,0
308,312,313,334,0
313,304,313,330,0
319,299,312,325,0
323,295,311,319,0
324,293,309,311,0
319,292,306,303,0
309,294,303,296,0
301,298,302,292,0
298,303,302,291,0
299,302,303,293,0
301,293,303,295,0
300,276,302,296,0
298,262,301,299,0
294,254,301,303,0
292,257,301,307,0
290,266,303,312,0
292,279,306,316,0
295,292,308,320,0
299,303,310,322,0
303,310,311,324,0
305,319,311,324,0
305,330,311,323,0
304,342,311,322,0
303,355,311,320,0
301,369,309,318,0
301,380,309,317,0
304,383,309,319,0
308,372,309,321,0
310,345,310,323,0
311,314,309,321,0
309,286,308,319,0
307,267,307,314,0
305,256,305,309,0
306,256,304,304,0
308,263,303,299,0
312,269,302,296,0
316,274,302,295,0
320,282,304,295,0
321,292,305,296,0
316,300,307,297,0
308,304,308,297,0
300,304,309,296,0
295,303,310,297,0
293,303,311,300,0
295,306,312,306,0
299,309,312,312,0
301,313,313,317,0
303,315,312,319,0
303,313,311,317,0
303,309,310,313,0
303,305,310,307,0
302,301,309,303,0
299,292,308,300,0
297,279,307,299,0
297,271,307,300,0
302,271,309,302,0
306,276,311,304,0
308,284,311,305,0
306,296,312,305,0
303,313,311,304,0
300,328,312,305,0
298,333,312,304,0
298,326,312,304,0
300,318,313,303,0
304,311,314,304,0
308,302,314,305,0
310,299,313,306,0
311,302,312,307,0
312,308,312,308,0
313,314,312,309,0
313,319,312,310,0
313,318,311,309,0
312,311,309,306,0
311,301,307,303,0
310,292,305,303,0
312,282,304,306,0
314,276,303,311,0
316,279,303,314,0
321,288,303,317,0
326,297,304,318,0
324,301,305,315,0
315,300,306,311,0
304,300,309,306,0
294,300,312,303,0
286,303,313,301,0
283,307,315,300,0
285,311,316,303,0
292,312,315,308,0
301,311,315,315,0
308,308,313,322,0
312,304,311,329,0
313,301,309,335,0
315,302,308,342,0
316,307,308,347,0
315,310,310,350,0
313,310,311,350,0
313,307,312,347,0
313,304,313,342,0
311,303,313,335,0
306,306,312,326,0
300,312,311,316,0
295,315,310,306,0
292,307,308,296,0
291,288,306,286,0
290,268,304,279,0
290,254,302,275,0
292,247,301,273,0
294,250,300,272,0
297,267,299,272,0
300,289,299,274,0
303,306,300,278,0
306,314,302,283,0
308,318,303,287,0
309,321,304,292,0
311,324,305,297,0
312,325,306,302,0
312,324,307,306,0
312,322,309,310,0
313,321,311,312,0
313,320,312,314,0
314,318,313,316,0
315,320,314,318,0
315,324,315,321,0
313,331,315,324,0
312,336,314,326,0
309,338,314,327,0
309,334,314,325,0
310,325,313,321,0
312,313,311,315,0
313,303,309,309,0
313,296,307,305,0
313,289,306,301,0
313,283,305,300,0
313,277,304,299,0
313,270,303,299,0
313,264,302,300,0
313,258,301,303,0
312,253,301,304,0
309,255,300,305,0
307,264,300,306,0
305,277,300,306,0
304,292,299,306,0
306,307,300,308,0
309,321,301,310,0
315,333,302,315,0
321,341,303,322,0
325,341,303,328,0
324,333,302,334,0
318,319,302,339,0
311,303,301,343,0
304,290,302,343,0
299,282,302,339,0
296,279,302,330,0
294,278,301,319,0
295,274,301,310,0
296,268,303,303,0
299,259,305,301,0
301,250,307,301,0
302,243,309,301,0
302,238,310,301,0
303,235,312,299,0
301,243,312,298,0
300,263,311,297,0
298,286,310,296,0
296,303,309,295,0
295,313,308,294,0
295,321,309,294,0
296,329,310,295,0
299,336,311,296,0
306,339,312,298,0
313,338,311,298,0
317,334,309,297,0
317,328,306,297,0
316,323,304,297,0
315,319,303,300,0
314,315,303,304,0
313,312,304,307,0
312,312,304,307,0
311,313,306,304,0
310,309,306,302,0
307,301,307,301,0
305,295,307,302,0
305,290,308,303,0
305,287,308,304,0
305,289,308,303,0
305,301,309,301,0
306,316,310,301,0
308,320,311,303,0
309,310,312,307,0
307,296,314,313,0
305,287,315,320,0
305,282,315,326,0
307,284,313,331,0
309,294,311,332,0
311,307,308,328,0
311,319,306,323,0
310,326,305,319,0
310,324,304,313,0
309,311,304,308,0
307,299,304,305,0
305,294,304,304,0
304,300,304,303,0
304,311,305,304,0
304,322,306,303,0
302,329,307,301,0
300,334,308,298,0
300,334,308,298,0
301,329,309,300,0
303,323,309,304,0
306,317,308,308,0
307,313,307,312,0
309,310,307,314,0
311,306,307,317,0
313,301,307,321,0
315,298,307,325,0
317,298,307,330,0
320,302,307,335,0
323,308,308,335,0
324,314,308,332,0
318,319,309,326,0
311,324,309,319,0
307,322,310,312,0
304,311,311,305,0
303,296,311,299,0
303,283,311,293,0
302,277,309,287,0
299,276,308,282,0
297,277,307,280,0
296,281,306,281,0
297,288,306,283,0
299,295,306,286,0
301,300,306,289,0
301,308,306,292,0
302,311,306,294,0
305,302,308,296,0
309,286,309,299,0
312,272,310,301,0
315,269,310,304,0
317,276,312,309,0
319,286,313,313,0
320,296,314,314,0
319,308,314,314,0
315,316,314,314,0
311,320,314,313,0
308,321,314,311,0
307,320,313,307,0
308,319,311,304,0
308,316,310,303,0
305,315,309,302,0
299,320,308,301,0
293,329,306,298,0
287,334,304,296,0
287,335,304,294,0
294,332,305,293,0
301,331,306,292,0
306,332,305,293,0
308,336,305,297,0
309,336,306,303,0
310,331,307,309,0
310,325,309,314,0
309,318,311,318,0
309,312,312,320,0
308,309,313,322,0
309,309,314,323,0
308,310,315,324,0
307,314,315,322,0
304,316,313,318,0
299,317,310,313,0
296,315,306,307,0
294,311,304,303,0
296,307,302,300,0
301,298,301,298,0
307,284,301,298,0
312,267,301,298,0
314,250,302,299,0
315,242,304,299,0
315,245,305,298,0
314,256,303,295,0
313,272,303,293,0
313,288,303,295,0
315,303,306,303,0
317,318,308,312,0
319,328,309,319,0
321,331,309,323,0
317,324,308,322,0
308,311,308,317,0
299,293,307,309,0
293,277,306,300,0
291,270,306,293,0
292,277,306,288,0
294,293,306,286,0
295,307,306,284,0
297,314,305,283,0
299,314,305,283,0
304,314,305,284,0
309,319,305,287,0
313,327,305,290,0
315,335,305,295,0
315,340,307,299,0
315,341,308,304,0
313,335,309,306,0
312,326,308,307,0
311,321,308,306,0
310,314,307,306,0
310,303,307,307,0
310,292,307,309,0
310,289,307,308,0
310,291,306,304,0
310,293,305,299,0
312,294,306,297,0
313,295,308,297,0
309,297,308,297,0
302,304,307,298,0
296,312,305,298,0
292,317,304,298,0
292,321,303,297,0
292,323,302,297,0
293,323,303,298,0
295,319,304,299,0
297,313,305,300,0
298,308,307,301,0
299,311,307,300,0
299,321,307,299,0
297,330,306,299,0
293,333,305,301,0
290,329,304,303,0
291,320,305,307,0
297,308,306,309,0
305,295,308,311,0
310,280,309,313,0
311,266,309,315,0
312,259,309,318,0
313,265,309,320,0
314,283,308,321,0
315,304,308,320,0
316,321,307,318,0
316,330,308,317,0
317,334,309,316,0
317,333,310,316,0
316,327,311,316,0
314,320,312,318,0
312,316,312,319,0
310,315,312,320,0
307,316,310,319,0
305,316,308,318,0
303,315,306,316,0
301,308,305,313,0
300,293,305,308,0
300,273,304,302,0
299,258,304,296,0
299,251,305,293,0
301,255,306,293,0
305,264,307,295,0
310,271,309,300,0
316,276,310,306,0
322,286,310,311,0
325,301,310,315,0
321,318,310,317,0
313,334,309,320,0
308,342,309,325,0
305,340,308,327,0
302,332,307,326,0
298,321,305,320,0
294,307,304,312,0
292,290,304,302,0
291,275,303,293,0
292,268,303,286,0
293,272,303,282,0
295,282,303,281,0
297,295,303,283,0
299,308,303,285,0
299,319,304,288,0
300,330,305,291,0
303,346,306,295,0
306,362,306,299,0
309,371,306,302,0
308,371,305,303,0
305,363,304,301,0
300,348,304,299,0
294,328,304,295,0
290,306,305,293,0
289,286,307,293,0
289,274,308,293,0
290,274,307,294,0
290,283,306,294,0
292,292,304,295,0
295,299,304,295,0
298,301,303,296,0
301,297,302,296,0
304,287,301,296,0
306,272,299,297,0
307,258,297,298,0
307,249,297,301,0
310,248,298,306,0
316,249,300,310,0
321,251,304,313,0
324,254,307,317,0
325,266,311,319,0
323,286,314,321,0
321,307,316,322,0
318,326,316,320,0
313,342,313,317,0
309,352,311,313,0
305,356,309,307,0
302,354,307,303,0
299,345,306,299,0
296,333,305,298,0
293,320,305,299,0
290,312,304,300,0
290,311,304,302,0
296,315,305,306,0
304,323,305,309,0
311,329,305,311,0
318,330,305,315,0
323,331,307,320,0
325,333,309,327,0
324,331,312,334,0
323,326,315,341,0
322,318,318,347,0
323,312,321,348,0
322,310,321,343,0
315,314,319,332,0
305,320,316,316,0
297,327,313,301,0
291,334,310,289,0
287,339,307,281,0
285,342,305,275,0
285,342,304,271,0
287,339,303,270,0
289,333,304,270,0
291,325,306,273,0
293,318,307,277,0
295,309,307,279,0
296,292,308,282,0
298,272,308,287,0
300,260,309,296,0
303,261,311,307,0
308,275,314,316,0
314,293,316,324,0
320,309,319,328,0
323,321,319,327,0
322,326,318,322,0
320,325,317,317,0
318,318,316,313,0
316,310,316,311,0
313,302,316,309,0
312,296,316,310,0
310,292,316,311,0
308,290,315,313,0
307,290,314,315,0
305,294,312,316,0
304,299,310,315,0
303,305,307,313,0
304,313,305,310,0
307,322,303,307,0
310,327,301,305,0
312,331,300,302,0
315,332,301,302,0
318,331,303,302,0
321,327,305,303,0
320,321,308,303,0
319,317,309,303,0
316,317,310,304,0
313,320,310,307,0
309,327,310,309,0
305,336,310,311,0
302,342,309,312,0
301,339,308,313,0
302,328,308,313,0
304,313,308,312,0
306,302,307,309,0
307,294,305,304,0
307,293,302,298,0
308,299,299,293,0
308,308,297,291,0
310,317,297,292,0
312,319,297,295,0
311,316,298,300,0
308,309,299,306,0
305,299,301,311,0
300,288,302,314,0
295,277,303,315,0
291,269,303,314,0
289,266,303,312,0
288,276,304,312,0
290,295,306,314,0
294,317,308,315,0
298,334,309,316,0
302,341,310,316,0
307,343,310,314,0
310,340,309,311,0
312,335,307,307,0
313,330,305,302,0
313,325,302,297,0
311,319,301,293,0
308,309,299,290,0
302,296,297,289,0
298,284,297,291,0
297,275,298,297,0
302,272,300,304,0
309,273,301,309,0
317,281,302,311,0
321,297,302,309,0
319,313,301,306,0
316,324,301,302,0
314,331,302,298,0
313,335,302,295,0
313,334,302,292,0
314,329,301,290,0
314,324,302,289,0
314,318,303,290,0
313,313,304,290,0
312,307,303,290,0
312,302,302,290,0
315,298,302,292,0
316,299,302,295,0
317,301,302,300,0
316,305,303,305,0
315,311,304,311,0
315,321,306,319,0
315,330,307,325,0
315,335,308,329,0
313,335,308,328,0
312,331,308,325,0
311,328,307,321,0
311,328,306,317,0
312,330,304,312,0
313,333,304,307,0
314,334,304,302,0
315,331,304,298,0
315,327,305,297,0
315,322,305,298,0
314,317,305,301,0
311,313,305,304,0
307,309,305,308,0
304,307,305,313,0
303,305,305,320,0
305,309,306,328,0
307,315,308,337,0
308,314,309,342,0
308,311,310,343,0
306,312,309,338,0
306,318,306,331,0
305,319,303,323,0
305,310,302,315,0
307,295,302,309,0
312,287,304,304,0
316,290,305,300,0
317,295,306,295,0
316,300,308,292,0
314,303,308,288,0
311,304,308,285,0
309,302,307,284,0
306,298,306,284,0
305,294,306,287,0
304,292,306,291,0
304,293,307,295,0
305,298,308,300,0
305,305,309,303,0
306,312,309,306,0
307,320,310,307,0
308,327,310,305,0
307,326,310,303,0
306,319,309,299,0
303,304,308,297,0
300,288,307,295,0
298,277,307,294,0
297,278,308,296,0
297,292,308,300,0
298,310,308,305,0
297,327,308,310,0
294,340,308,315,0
291,345,308,320,0
290,341,309,325,0
294,329,310,330,0
301,323,311,333,0
310,325,313,334,0
319,329,313,333,0
326,329,312,329,0
329,328,312,328,0
332,323,311,328,0
332,316,309,328,0
326,307,308,326,0
318,297,307,323,0
312,286,306,320,0
306,276,306,317,0
301,267,305,312,0
297,260,304,307,0
294,259,304,305,0
292,269,303,302,0
291,285,302,301,0
291,304,302,300,0
294,320,301,302,0
298,331,302,305,0
303,336,302,307,0
307,336,303,308,0
310,333,304,309,0
312,328,305,311,0
313,323,306,313,0
314,318,306,313,0
314,313,307,312,0
314,307,306,311,0
313,303,306,310,0
310,303,305,310,0
305,308,305,312,0
300,311,305,315,0
297,306,306,320,0
295,294,307,325,0
294,283,308,329,0
295,281,310,332,0
295,286,312,332,0
295,294,313,329,0
299,302,312,324,0
308,309,311,318,0
317,310,310,311,0
323,308,308,303,0
326,302,307,296,0
325,296,307,292,0
323,292,307,291,0
318,294,307,289,0
313,301,306,287,0
309,309,303,284,0
306,317,301,282,0
306,323,299,279,0
306,327,297,278,0
306,329,296,277,0
305,324,295,278,0
303,312,295,279,0
300,295,295,282,0
297,277,296,286,0
294,262,297,289,0
291,255,297,293,0
289,255,298,296,0
289,262,300,300,0
292,274,302,306,0
297,289,304,312,0
303,306,306,319,0
310,320,308,324,0
316,332,310,328,0
320,338,311,328,0
322,340,311,325,0
323,338,310,321,0
323,332,309,318,0
320,328,309,316,0
316,330,309,317,0
312,335,310,318,0
309,339,310,319,0
307,340,310,321,0
305,339,309,322,0
305,332,309,323,0
306,315,310,324,0
309,294,309,327,0
314,280,308,331,0
316,276,306,334,0
312,277,305,335,0
308,276,304,335,0
306,276,304,331,0
305,280,304,325,0
306,285,305,319,0
307,290,306,313,0
307,294,306,306,0
308,294,305,301,0
308,298,304,297,0
311,309,303,296,0
311,322,303,297,0
310,332,303,298,0
308,337,303,299,0
306,339,304,301,0
304,337,305,302,0
302,329,305,302,0
301,317,305,302,0
299,299,306,303,0
298,279,306,305,0
297,262,307,309,0
298,253,308,313,0
300,248,309,317,0
303,247,311,319,0
305,249,312,321,0
307,260,313,322,0
307,277,314,322,0
306,295,313,321,0
304,306,312,319,0
303,307,310,316,0
301,303,308,311,0
300,299,306,304,0
301,298,303,297,0
303,302,301,290,0
304,308,299,284,0
305,318,299,280,0
306,328,298,277,0
308,337,299,276,0
309,343,300,278,0
310,343,301,281,0
311,339,303,286,0
311,332,305,291,0
310,325,306,296,0
310,317,308,301,0
310,309,309,306,0
309,304,310,309,0
308,304,310,311,0
307,307,309,312,0
305,311,308,313,0
304,315,307,313,0
302,320,305,313,0
302,320,304,312,0
302,317,303,310,0
302,314,303,309,0
299,311,303,310,0
295,311,304,311,0
291,314,305,313,0
290,318,306,316,0
295,325,306,319,0
304,331,306,322,0
312,326,305,324,0
316,310,305,326,0
317,294,306,326,0
317,286,307,325,0
314,281,308,322,0
310,277,309,317,0
306,271,310,311,0
303,262,311,307,0
301,254,311,304,0
303,257,311,303,0
308,275,310,303,0
313,296,311,304,0
319,313,311,304,0
321,322,311,303,0
320,323,310,302,0
316,314,310,303,0
311,299,311,307,0
306,287,311,312,0
304,282,310,314,0
302,286,309,317,0
303,299,309,321,0
305,315,309,325,0
306,329,310,327,0
307,337,310,326,0
307,341,311,325,0
306,342,312,324,0
306,340,313,324,0
307,335,315,322,0
306,328,315,317,0
303,319,315,312,0
301,309,315,306,0
299,299,315,301,0
300,291,315,298,0
306,289,315,295,0
310,291,313,293,0
306,296,311,291,0
299,303,309,291,0
294,306,307,294,0
293,307,306,297,0
295,308,306,301,0
299,310,306,305,0
303,313,307,309,0
307,314,308,313,0
309,315,310,315,0
311,315,311,317,0
312,315,313,319,0
311,312,314,319,0
310,308,314,318,0
310,304,314,314,0
309,300,313,310,0
309,298,313,305,0
308,298,311,302,0
307,300,310,300,0
306,300,309,298,0
305,300,309,296,0
306,298,307,295,0
307,298,307,296,0
308,301,307,297,0
310,304,307,298,0
311,302,307,298,0
312,295,306,298,0
313,286,303,297,0
314,280,301,296,0
315,281,301,296,0
315,289,301,298,0
312,305,302,300,0
309,324,303,302,0
305,339,304,302,0
302,348,305,301,0
300,348,305,300,0
299,337,305,299,0
299,322,306,298,0
300,307,307,296,0
299,297,307,294,0
298,289,307,293,0
299,282,307,294,0
302,276,308,296,0
303,271,307,298,0
303,266,307,300,0
300,266,305,302,0
298,270,305,305,0
297,274,305,309,0
299,279,306,312,0
304,282,308,315,0
310,283,309,317,0
314,283,311,319,0
312,275,311,322,0
307,266,312,323,0
303,266,313,324,0
299,276,312,323,0
299,296,312,325,0
302,318,312,328,0
306,336,311,331,0
310,349,310,333,0
311,351,310,334,0
312,344,309,333,0
313,332,309,329,0
314,319,308,323,0
315,309,308,317,0
318,306,308,311,0
321,308,309,306,0
321,311,310,302,0
317,312,311,299,0
313,316,312,298,0
311,322,313,298,0
310,327,313,298,0
308,329,311,298,0
306,326,309,296,0
304,321,307,293,0
303,316,305,290,0
304,315,305,287,0
304,317,307,286,0
306,318,308,285,0
306,314,308,284,0
304,307,308,283,0
302,298,307,283,0
300,290,306,284,0
299,284,306,285,0
298,280,305,285,0
298,275,304,286,0
299,268,304,288,0
300,258,305,290,0
301,249,306,292,0
300,252,307,295,0
299,270,308,299,0
299,292,310,306,0
300,309,312,312,0
301,318,313,315,0
302,318,314,316,0
302,308,314,316,0
303,295,313,316,0
303,287,313,315,0
303,287,311,313,0
303,291,310,310,0
303,295,307,306,0
303,301,305,304,0
303,308,304,304,0
302,313,303,306,0
298,316,302,307,0
294,316,301,307,0
292,316,301,308,0
292,313,301,310,0
296,310,302,313,0
302,311,303,315,0
308,315,304,315,0
312,319,304,314,0
313,326,303,314,0
314,339,303,314,0
314,353,303,314,0
314,362,303,315,0
312,361,302,315,0
311,350,302,313,0
309,326,301,310,0
309,296,302,307,0
309,276,303,305,0
309,271,303,304,0
310,277,303,308,0
310,286,303,315,0
308,293,303,322,0
306,297,303,327,0
305,296,303,329,0
305,294,303,328,0
307,291,304,324,0
310,289,304,316,0
313,287,304,305,0
316,288,303,295,0
316,289,303,287,0
315,287,302,283,0
314,282,302,283,0
313,278,303,286,0
312,278,303,292,0
310,278,304,298,0
307,278,305,303,0
306,282,305,306,0
307,291,306,309,0
311,298,306,310,0
314,299,306,310,0
316,298,304,307,0
318,294,303,303,0
320,288,302,300,0
321,283,302,298,0
318,283,303,296,0
310,291,304,296,0
302,301,304,297,0
297,309,304,300,0
292,314,303,304,0
288,319,303,307,0
287,324,304,310,0
288,326,305,312,0
291,329,305,311,0
294,334,305,308,0
296,338,305,303,0
299,339,304,299,0
301,336,303,296,0
303,334,302,295,0
304,332,301,295,0
301,330,301,297,0
300,326,301,299,0
300,317,302,302,0
301,300,302,306,0
301,284,302,311,0
299,274,303,315,0
297,270,303,318,0
295,271,304,319,0
295,273,305,319,0
296,274,306,317,0
297,279,306,315,0
297,282,306,313,0
296,276,304,310,0
295,263,302,308,0
293,253,300,306,0
294,252,299,306,0
298,260,299,309,0
303,281,300,311,0
308,307,301,315,0
312,329,301,316,0
313,344,302,317,0
312,349,302,316,0
310,348,301,315,0
311,343,300,313,0
311,334,300,311,0
311,322,300,311,0
310,312,301,310,0
308,306,302,310,0
305,303,303,310,0
302,302,304,310,0
300,298,305,311,0
300,292,306,313,0
303,288,307,313,0
306,290,307,314,0
308,297,306,316,0
309,305,305,319,0
309,310,305,321,0
307,313,304,320,0
305,312,302,316,0
303,311,302,312,0
303,314,302,309,0
306,325,303,307,0
312,335,305,306,0
321,337,308,307,0
331,335,310,307,0
336,334,310,309,0
329,335,309,312,0
316,334,308,316,0
305,330,307,320,0
298,319,308,323,0
296,306,310,326,0
296,293,311,326,0
296,281,311,322,0
295,272,310,318,0
292,268,309,313,0
291,273,307,308,0
290,280,305,302,0
290,282,303,296,0
290,279,301,291,0
291,276,300,289,0
293,274,299,291,0
295,275,300,294,0
297,283,301,299,0
300,295,302,303,0
302,305,304,308,0
305,313,306,313,0
308,320,308,315,0
313,327,309,313,0
317,332,310,309,0
318,334,309,302,0
318,331,309,296,0
316,323,308,290,0
314,313,308,287,0
311,306,307,285,0
308,300,306,285,0
305,295,305,286,0
303,295,304,287,0
301,303,304,292,0
301,314,306,299,0
301,325,307,306,0
300,334,307,312,0
299,338,307,316,0
299,332,305,317,0
300,315,303,316,0
302,296,302,313,0
303,279,301,308,0
303,265,301,301,0
303,265,300,295,0
304,275,301,291,0
306,290,301,291,0
307,302,303,292,0
307,313,305,294,0
309,325,306,296,0
311,337,306,297,0
312,348,306,298,0
312,356,307,300,0
310,358,307,301,0
307,351,306,302,0
303,332,304,301,0
299,306,303,301,0
297,278,301,303,0
298,254,301,304,0
300,244,302,304,0
302,253,304,303,0
304,274,304,303,0
305,297,305,304,0
305,313,305,305,0
305,321,306,308,0
306,325,307,310,0
307,327,307,313,0
303,327,307,316,0
297,326,307,317,0
294,322,307,320,0
296,320,308,326,0
299,316,309,332,0
304,314,310,338,0
309,317,310,341,0
313,323,311,341,0
318,329,312,339,0
322,332,312,334,0
326,331,313,327,0
328,328,312,317,0
322,321,311,308,0
314,312,310,301,0
308,303,310,297,0
305,296,309,295,0
305,292,308,293,0
305,291,308,292,0
306,295,308,293,0
306,300,308,296,0
308,301,309,299,0
309,296,310,303,0
311,292,311,305,0
312,293,312,304,0
310,298,312,301,0
306,304,312,297,0
303,309,311,295,0
300,315,310,293,0
298,320,308,293,0
297,322,307,293,0
297,321,307,293,0
298,315,307,293,0
299,307,306,292,0
300,301,306,292,0
302,296,306,293,0
304,288,307,296,0
306,277,308,299,0
306,266,310,302,0
304,261,312,303,0
302,268,313,304,0
300,284,313,305,0
299,308,313,308,0
300,333,314,313,0
303,348,315,320,0
305,354,316,324,0
307,356,316,326,0
308,354,316,325,0
307,350,315,320,0
307,344,314,314,0
309,339,313,308,0
310,333,311,303,0
311,327,310,299,0
310,320,308,295,0
308,310,308,291,0
307,298,308,287,0
305,288,306,284,0
305,282,305,284,0
307,280,304,286,0
309,282,305,289,0
311,286,306,292,0
312,291,307,296,0
311,295,307,300,0
308,292,308,304,0
302,285,308,307,0
298,275,308,307,0
296,273,307,307,0
296,284,307,311,0
298,304,308,319,0
300,325,308,328,0
301,341,309,334,0
301,352,309,336,0
301,356,309,335,0
299,352,309,331,0
296,340,308,325,0
293,325,308,320,0
292,309,308,315,0
294,297,308,311,0
298,286,310,308,0
304,277,311,306,0
309,280,312,304,0
314,294,313,305,0
317,313,313,307,0
317,325,313,308,0
313,328,312,308,0
309,326,311,307,0
306,321,310,306,0
305,314,308,302,0
304,304,307,296,0
302,294,306,291,0
300,287,307,286,0
298,287,309,283,0
297,294,309,281,0
299,302,309,281,0
302,306,308,281,0
304,308,307,284,0
307,310,307,287,0
310,312,307,292,0
311,314,308,295,0
311,316,308,297,0
309,317,309,299,0
306,317,310,300,0
304,314,311,301,0
303,310,311,303,0
302,305,311,304,0
301,301,312,306,0
301,299,313,308,0
301,302,313,309,0
301,308,312,309,0
301,318,311,306,0
301,326,310,302,0
301,328,309,297,0
302,320,308,293,0
303,304,306,291,0
305,289,305,293,0
307,285,305,296,0
310,295,305,301,0
313,314,306,306,0
315,330,309,311,0
317,337,311,316,0
319,337,311,318,0
319,332,311,319,0
319,328,310,316,0
315,325,309,313,0
310,324,308,309,0
305,324,307,305,0
302,326,306,302,0
301,327,305,301,0
301,322,304,300,0
302,314,303,299,0
301,308,303,299,0
301,308,302,299,0
300,314,301,299,0
299,320,300,299,0
302,325,299,301,0
304,326,299,303,0
306,321,300,305,0
307,307,302,307,0
309,291,304,309,0
310,277,307,314,0
311,268,309,319,0
310,264,311,323,0
309,263,312,327,0
308,268,311,330,0
307,273,311,334,0
305,275,309,335,0
302,270,308,334,0
299,263,307,329,0
297,261,306,325,0
298,272,305,322,0
301,294,306,322,0
303,314,305,320,0
305,325,304,317,0
305,329,304,313,0
304,326,303,307,0
304,322,304,301,0
304,320,305,297,0
307,322,306,294,0
311,329,306,293,0
315,336,306,294,0
317,338,308,296,0
319,334,308,298,0
320,323,307,299,0
321,310,306,299,0
323,301,304,300,0
322,302,302,301,0
315,310,300,302,0
308,315,299,303,0
303,314,298,302,0
299,311,297,300,0
298,309,297,297,0
297,308,297,293,0
297,309,297,290,0
297,309,297,289,0
297,305,297,290,0
297,299,298,291,0
297,291,300,295,0
300,284,302,300,0
303,285,304,307,0
306,298,307,313,0
309,313,310,319,0
311,325,312,323,0
310,334,313,324,0
308,339,313,324,0
306,341,313,322,0
304,337,313,320,0
305,330,313,318,0
308,320,312,315,0
313,312,310,312,0
316,310,308,311,0
316,313,304,310,0
311,316,302,310,0
306,316,300,310,0
306,315,298,311,0
308,313,298,311,0
311,312,299,312,0
311,309,301,311,0
308,306,303,311,0
304,303,305,312,0
303,299,307,314,0
306,293,310,318,0
309,287,311,322,0
311,285,311,323,0
311,285,311,322,0
311,287,311,320,0
309,288,310,318,0
306,294,309,317,0
303,303,308,315,0
299,314,307,314,0
296,320,306,312,0
295,318,306,309,0
296,311,307,307,0
299,303,308,305,0
302,298,309,305,0
304,293,309,305,0
304,289,308,306,0
304,284,307,307,0
304,283,307,309,0
304,282,307,312,0
305,280,308,316,0
305,280,308,323,0
306,283,309,331,0
306,290,310,339,0
306,298,311,344,0
305,301,312,344,0
304,299,313,339,0
305,295,313,331,0
308,291,313,321,0
311,290,311,310,0
311,295,309,300,0
309,306,306,293,0
308,318,305,288,0
307,327,303,288,0
308,332,303,291,0
309,331,303,295,0
310,326,303,300,0
312,322,303,305,0
313,320,303,308,0
312,320,303,310,0
312,326,303,310,0
312,337,302,310,0
312,349,302,308,0
312,353,302,304,0
306,346,303,300,0
301,334,303,298,0
299,317,304,299,0
301,299,305,302,0
305,289,306,305,0
310,286,306,307,0
314,288,306,308,0
316,292,305,307,0
316,297,304,306,0
313,299,302,304,0
309,296,301,303,0
305,291,301,302,0
304,284,301,301,0
305,276,301,301,0
308,268,302,302,0
310,262,304,303,0
308,260,306,306,0
304,266,308,309,0
301,277,309,312,0
299,287,310,314,0
298,293,310,316,0
297,299,310,318,0
296,307,309,320,0
294,312,309,324,0
294,312,308,328,0
295,310,307,331,0
296,308,306,331,0
297,310,305,329,0
297,317,304,327,0
298,326,303,323,0
300,334,301,317,0
303,337,300,311,0
308,331,298,305,0
312,322,298,299,0
315,314,298,294,0
319,310,299,291,0
321,306,301,289,0
321,302,304,288,0
320,299,306,287,0
318,299,306,288,0
316,298,305,290,0
313,294,305,292,0
311,288,304,295,0
308,281,305,298,0
306,279,305,300,0
305,281,305,302,0
305,285,305,303,0
304,291,305,304,0
304,301,306,304,0
305,310,307,303,0
307,313,307,303,0
308,310,306,304,0
306,303,305,306,0
305,297,304,310,0
305,295,305,314,0
306,296,306,319,0
307,299,308,321,0
307,304,309,321,0
306,308,310,319,0
305,308,311,317,0
304,302,313,318,0
305,289,314,324,0
308,278,315,329,0
309,274,315,332,0
310,277,314,332,0
310,285,312,328,0
310,296,309,322,0
310,307,306,314,0
310,318,304,306,0
310,326,303,298,0
309,327,303,292,0
309,323,303,286,0
308,316,302,283,0
307,307,302,281,0
305,297,304,280,0
305,290,305,279,0
308,288,307,281,0
313,289,309,284,0
319,292,310,288,0
324,295,311,291,0
328,300,310,293,0
325,305,309,295,0
313,308,308,296,0
301,310,308,297,0
294,312,308,298,0
291,313,309,300,0
291,316,309,303,0
293,321,310,307,0
295,326,310,311,0
297,322,311,314,0
299,310,310,316,0
301,293,310,317,0
303,278,310,318,0
305,270,310,319,0
307,267,309,318,0
308,273,309,317,0
310,283,310,316,0
311,296,311,315,0
312,308,312,313,0
311,315,313,310,0
307,310,313,307,0
302,292,312,304,0
297,271,310,299,0
290,255,308,293,0
285,246,304,289,0
285,244,303,287,0
289,252,304,290,0
297,267,305,295,0
305,283,306,301,0
312,298,305,306,0
316,307,304,308,0
317,309,304,309,0
318,309,303,307,0
317,310,303,306,0
317,312,302,306,0
317,312,303,305,0
316,313,303,305,0
315,314,304,305,0
313,315,305,305,0
310,317,305,305,0
307,322,306,304,0
303,327,305,303,0
301,330,305,304,0
300,331,305,306,0
301,329,306,311,0
303,328,308,317,0
304,325,309,323,0
303,322,309,329,0
299,319,308,336,0
294,319,305,342,0
293,319,304,346,0
297,314,304,345,0
308,302,304,342,0
319,288,306,336,0
324,275,307,327,0
324,266,307,316,0
322,259,308,304,0
320,252,308,293,0
317,250,307,285,0
314,260,305,279,0
311,281,303,276,0
310,307,302,273,0
310,327,302,272,0
310,335,303,273,0
307,327,303,274,0
300,308,303,276,0
294,287,303,278,0
289,265,303,280,0
288,247,303,282,0
288,243,304,285,0
290,254,304,289,0
294,275,304,295,0
298,296,305,300,0
303,313,306,306,0
307,326,308,311,0
310,334,311,315,0
312,337,312,318,0
314,333,313,320,0
316,324,313,320,0
318,312,312,318,0
320,302,310,313,0
320,294,308,307,0
313,287,305,301,0
303,280,303,295,0
294,280,301,291,0
291,290,301,289,0
290,308,301,288,0
291,327,302,289,0
291,341,302,291,0
291,344,302,296,0
291,336,302,300,0
290,325,303,304,0
290,315,303,308,0
290,308,303,311,0
293,303,305,314,0
296,299,307,316,0
299,293,307,315,0
300,289,306,313,0
301,294,306,311,0
304,301,306,309,0
306,303,306,306,0
308,298,306,304,0
309,289,307,302,0
309,283,308,302,0
308,284,309,303,0
307,290,310,307,0
306,300,310,311,0
306,309,310,315,0
307,312,309,319,0
309,309,307,322,0
311,299,306,324,0
311,288,305,325,0
310,279,304,323,0
307,275,304,320,0
304,276,303,316,0
302,285,304,314,0
301,297,304,313,0
301,308,306,314,0
303,319,308,314,0
304,331,309,313,0
304,339,310,311,0
303,338,310,309,0
303,330,311,307,0
306,320,311,306,0
308,311,309,304,0
309,308,306,301,0
308,311,303,301,0
305,311,300,303,0
301,304,298,307,0
296,294,297,311,0
294,289,297,315,0
294,285,297,316,0
295,282,297,316,0
299,280,298,315,0
303,280,301,315,0
306,285,304,314,0
309,294,309,313,0
311,304,313,312,0
310,312,315,309,0
308,315,317,306,0
305,315,316,302,0
302,312,315,297,0
298,307,314,291,0
294,303,313,288,0
291,301,311,285,0
289,299,310,286,0
292,297,310,288,0
298,295,309,292,0
304,295,309,295,0
309,303,307,298,0
312,314,305,299,0
310,321,304,298,0
305,324,303,295,0
303,324,303,292,0
304,324,304,291,0
305,319,305,291,0
305,312,307,293,0
302,306,309,296,0
298,298,310,299,0
297,288,311,302,0
297,278,312,307,0
298,276,312,311,0
301,284,312,314,0
305,296,312,316,0
307,308,311,319,0
308,321,310,320,0
309,331,309,322,0
309,339,308,324,0
310,346,307,324,0
311,350,307,323,0
311,351,305,320,0
311,347,304,316,0
311,340,302,313,0
311,330,301,311,0
311,318,302,311,0
309,302,303,312,0
305,288,304,314,0
302,281,305,316,0
301,283,306,317,0
301,293,307,320,0
301,315,307,323,0
302,341,307,327,0
303,353,307,329,0
304,351,307,330,0
306,338,306,332,0
309,319,305,333,0
312,303,305,332,0
314,295,304,327,0
312,290,304,320,0
307,286,304,315,0
303,279,305,312,0
302,267,306,312,0
304,256,308,313,0
308,251,309,315,0
311,252,310,317,0
311,254,309,319,0
308,259,309,321,0
306,268,308,326,0
303,282,308,331,0
301,298,306,334,0
299,318,303,335,0
297,338,301,335,0
296,348,301,332,0
297,347,302,326,0
301,341,304,318,0
305,336,305,307,0
308,327,306,296,0
311,311,307,286,0
314,294,308,278,0
313,282,308,272,0
310,280,307,269,0
307,285,307,269,0
305,296,306,271,0
304,308,305,275,0
306,316,305,280,0
309,317,306,286,0
313,316,306,292,0
317,315,307,298,0
315,317,308,302,0
306,321,309,304,0
297,324,310,303,0
291,327,310,302,0
292,327,310,302,0
296,324,310,303,0
299,323,310,305,0
300,323,309,307,0
300,323,309,310,0
299,320,309,312,0
298,315,309,313,0
298,310,308,314,0
299,308,305,313,0
301,309,304,312,0
304,310,303,310,0
306,313,303,309,0
307,319,304,310,0
308,322,305,311,0
308,322,306,310,0
308,320,306,308,0
308,316,306,305,0
306,311,305,301,0
305,306,304,299,0
304,304,303,298,0
306,308,303,299,0
309,314,304,300,0
311,317,305,300,0
312,315,306,302,0
313,309,307,304,0
313,299,308,307,0
311,283,309,311,0
308,271,309,317,0
304,271,310,324,0
300,283,311,331,0
299,301,312,335,0
300,318,313,334,0
305,328,313,331,0
310,326,313,328,0
313,315,314,326,0
314,300,315,324,0
314,290,316,323,0
312,289,318,322,0
310,296,319,321,0
307,304,319,318,0
305,312,318,313,0
304,318,317,307,0
304,324,315,300,0
305,330,313,293,0
304,330,312,287,0
302,326,310,283,0
299,320,308,280,0
296,310,305,277,0
292,299,302,277,0
289,290,300,281,0
290,282,301,288,0
294,281,302,296,0
302,290,304,303,0
309,301,306,309,0
314,308,308,313,0
319,308,311,315,0
323,302,312,314,0
324,292,312,311,0
324,280,311,307,0
321,276,310,303,0
317,288,309,299,0
311,307,307,295,0
306,322,306,291,0
303,330,305,288,0
302,332,303,285,0
300,330,301,282,0
299,332,300,281,0
298,334,300,280,0
296,335,299,280,0
296,331,299,280,0
296,323,299,281,0
300,315,300,285,0
306,308,302,289,0
310,303,304,293,0
312,301,306,296,0
313,301,307,299,0
313,304,308,300,0
310,306,309,301,0
307,306,310,302,0
303,302,311,303,0
300,298,311,306,0
298,297,310,309,0
296,299,309,310,0
294,302,308,308,0
292,302,306,303,0
292,300,305,297,0
293,293,304,291,0
296,285,304,289,0
298,279,304,290,0
301,283,305,293,0
305,294,305,297,0
309,307,305,300,0
312,320,305,303,0
313,330,306,305,0
315,335,306,307,0
317,333,307,309,0
317,324,308,312,0
314,314,309,315,0
309,303,309,316,0
305,291,309,319,0
303,282,310,322,0
303,283,311,328,0
304,296,310,333,0
306,314,309,337,0
308,330,307,339,0
308,337,305,337,0
309,336,303,335,0
310,329,303,333,0
311,317,303,330,0
312,304,304,326,0
313,295,305,320,0
315,291,306,313,0
317,292,307,308,0
319,292,309,307,0
320,293,310,309,0
320,299,311,311,0
319,303,312,313,0
318,304,312,313,0
316,302,311,311,0
314,302,310,309,0
311,306,309,306,0
308,313,308,304,0
303,322,307,303,0
298,330,306,304,0
295,335,305,305,0
294,334,306,306,0
296,328,307,306,0
298,317,307,303,0
299,302,305,300,0
301,289,303,300,0
304,277,303,303,0
305,265,303,305,0
307,260,303,305,0
307,264,304,304,0
308,280,305,302,0
310,304,306,300,0
314,325,308,298,0
319,335,311,296,0
323,338,312,295,0
326,336,312,296,0
326,335,312,299,0
326,333,312,303,0
321,333,312,308,0
314,332,311,312,0
308,330,310,316,0
303,327,308,319,0
300,318,306,319,0
299,305,305,317,0
299,289,304,313,0
300,271,304,307,0
300,256,303,302,0
301,249,302,300,0
303,252,303,299,0
308,264,304,300,0
314,281,306,302,0
319,291,307,304,0
324,294,308,303,0
327,291,309,300,0
325,286,308,296,0
317,284,307,292,0
307,291,308,291,0
301,303,307,291,0
297,315,308,292,0
297,323,307,293,0
297,326,307,295,0
297,328,306,296,0
296,332,306,298,0
295,338,306,302,0
297,345,307,305,0
301,351,307,309,0
306,354,307,312,0
309,348,307,315,0
309,334,307,317,0
309,316,307,320,0
308,299,308,324,0
308,282,310,329,0
307,269,313,332,0
306,264,315,334,0
305,270,316,335,0
303,281,316,334,0
300,297,317,331,0
297,313,317,329,0
295,328,317,325,0
295,342,315,321,0
300,349,313,315,0
304,347,311,308,0
307,339,308,302,0
308,327,307,300,0
309,313,306,299,0
310,299,306,301,0
312,291,306,303,0
314,289,306,307,0
317,293,305,309,0
318,300,305,309,0
318,305,304,309,0
315,305,303,308,0
310,305,303,306,0
303,302,303,304,0
297,297,303,301,0
295,294,304,299,0
298,297,305,298,0
302,303,306,297,0
307,310,306,298,0
310,318,306,303,0
312,327,305,310,0
312,335,305,317,0
313,339,305,321,0
314,341,305,322,0
315,337,305,321,0
315,329,304,320,0
313,320,305,318,0
311,315,305,314,0
310,313,305,310,0
312,310,307,307,0
313,304,309,304,0
315,295,310,301,0
316,287,312,299,0
315,281,311,298,0
313,279,310,298,0
310,279,309,298,0
308,281,307,297,0
306,286,306,296,0
306,291,305,293,0
306,296,304,292,0
306,298,304,291,0
305,299,303,291,0
305,301,302,291,0
303,302,300,292,0
300,300,300,293,0
296,295,299,293,0
294,284,300,292,0
295,274,301,293,0
300,266,303,296,0
305,263,306,301,0
309,267,308,306,0
311,283,309,308,0
312,303,310,309,0
312,318,310,309,0
315,327,312,310,0
319,333,312,312,0
320,340,313,313,0
319,344,312,314,0
316,341,311,314,0
314,334,310,314,0
315,324,309,313,0
317,312,308,310,0
319,304,306,306,0
321,303,305,300,0
322,305,303,294,0
316,309,302,289,0
308,315,300,286,0
301,316,300,285,0
296,310,300,286,0
293,304,302,289,0
293,306,305,296,0
296,310,308,304,0
299,310,310,311,0
302,309,311,315,0
303,308,311,316,0
304,308,310,314,0
305,310,309,312,0
307,312,310,310,0
308,312,309,310,0
308,312,309,310,0
309,314,308,312,0
309,318,307,313,0
309,323,307,313,0
310,323,306,312,0
310,317,305,310,0
307,307,304,309,0
301,291,303,310,0
296,275,303,311,0
295,264,305,314,0
297,266,307,318,0
301,278,309,321,0
304,296,310,321,0
304,313,311,320,0
303,327,311,317,0
299,338,310,313,0
296,344,310,307,0
297,342,310,303,0
301,334,309,299,0
305,322,308,298,0
307,306,307,298,0
307,287,305,299,0
307,263,305,301,0
306,243,304,301,0
304,234,302,298,0
303,231,300,295,0
303,232,299,297,0
306,237,300,303,0
310,249,300,308,0
315,266,301,311,0
320,293,303,313,0
324,327,305,312,0
323,357,306,310,0
321,371,306,307,0
318,369,305,303,0
316,356,303,302,0
315,340,301,301,0
314,326,300,301,0
313,317,299,300,0
311,312,300,298,0
307,309,300,296,0
301,305,301,293,0
298,300,301,291,0
299,296,302,291,0
303,293,302,291,0
307,293,302,291,0
310,297,301,292,0
312,306,301,292,0
313,313,300,292,0
313,315,300,292,0
313,314,300,294,0
314,313,302,296,0
313,314,303,298,0
311,317,303,299,0
310,319,303,300,0
308,320,302,298,0
306,319,300,297,0
306,315,299,297,0
306,310,299,297,0
306,304,299,297,0
306,299,299,297,0
306,296,298,297,0
304,295,299,298,0
304,299,300,299,0
303,306,300,299,0
304,315,300,299,0
306,321,300,299,0
308,320,300,298,0
309,314,300,298,0
309,305,300,299,0
309,295,300,301,0
308,287,301,306,0
307,282,303,312,0
307,280,304,316,0
309,281,305,316,0
310,285,304,315,0
310,293,302,313,0
311,302,300,311,0
309,311,298,308,0
301,314,297,305,0
291,315,298,303,0
287,318,299,304,0
287,319,300,305,0
290,318,301,308,0
295,315,301,311,0
300,311,302,316,0
304,305,303,321,0
308,300,304,325,0
311,295,305,329,0
313,292,307,332,0
314,291,308,333,0
314,292,310,333,0
315,294,311,333,0
316,299,312,333,0
316,305,312,331,0
315,312,311,329,0
312,314,309,325,0
307,308,306,318,0
303,297,303,309,0
301,291,302,301,0
301,292,302,296,0
302,297,303,294,0
302,305,303,295,0
301,311,302,295,0
299,316,301,294,0
297,317,300,291,0
297,312,300,289,0
297,304,300,286,0
298,299,301,285,0
300,297,303,286,0
303,299,304,286,0
306,307,305,287,0
308,322,306,289,0
309,335,307,291,0
310,341,308,295,0
310,341,310,303,0
309,339,311,311,0
307,333,311,317,0
305,327,311,319,0
302,325,310,318,0
299,327,310,313,0
296,328,309,308,0
296,327,308,303,0
300,325,306,301,0
304,316,304,302,0
307,298,303,305,0
309,279,303,309,0
311,268,304,313,0
313,265,305,313,0
312,269,305,312,0
310,283,306,309,0
308,301,308,307,0
308,317,309,305,0
307,326,309,304,0
305,328,309,303,0
304,321,308,303,0
303,310,307,304,0
302,295,307,307,0
302,281,307,310,0
303,272,307,313,0
304,272,307,314,0
305,276,306,313,0
305,280,305,310,0
305,282,305,307,0
307,283,305,307,0
309,285,305,308,0
313,293,305,309,0
318,306,305,310,0
320,323,306,312,0
317,337,306,314,0
313,343,308,317,0
309,341,310,319,0
306,335,311,322,0
304,329,313,323,0
303,323,314,321,0
301,317,314,318,0
298,313,314,316,0
296,312,314,315,0
295,312,313,314,0
295,310,313,312,0
296,306,312,310,0
297,299,311,308,0
298,292,310,305,0
300,285,310,303,0
302,277,310,302,0
302,270,309,301,0
301,266,307,301,0
300,268,305,303,0
299,277,305,306,0
300,290,306,311,0
303,305,308,316,0
308,317,311,319,0
311,325,314,320,0
312,329,316,319,0
311,332,317,314,0
309,338,317,310,0
305,341,317,306,0
299,332,316,303,0
293,317,315,300,0
292,304,313,298,0
292,296,312,298,0
293,290,310,299,0
294,289,309,302,0
295,289,307,305,0
294,291,306,309,0
294,296,305,313,0
295,302,305,317,0
298,308,305,321,0
300,313,306,325,0
302,316,308,329,0
304,320,311,332,0
306,324,313,335,0
307,326,314,338,0
307,326,314,340,0
307,326,313,338,0
305,327,311,334,0
303,329,308,325,0
299,328,306,312,0
294,324,304,300,0
291,319,304,291,0
291,318,304,285,0
292,316,304,282,0
294,307,304,280,0
295,296,303,279,0
300,288,301,280,0
302,282,299,280,0
303,279,297,282,0
302,280,295,286,0
303,287,295,292,0
307,291,297,298,0
312,289,299,305,0
317,287,302,310,0
322,292,304,314,0
324,301,306,315,0
322,309,307,316,0
317,315,307,318,0
312,318,307,320,0
306,314,306,324,0
301,305,306,326,0
299,291,306,327,0
298,271,306,325,0
296,250,304,319,0
293,237,303,313,0
292,240,303,309,0
292,257,303,305,0
292,282,302,302,0
291,308,301,301,0
290,331,301,303,0
291,347,302,307,0
295,354,304,312,0
301,353,305,316,0
306,347,305,319,0
309,343,305,320,0
311,343,304,320,0
310,345,303,319,0
308,346,301,315,0
306,347,298,310,0
303,346,295,303,0
302,348,293,295,0
302,349,292,287,0
303,349,292,280,0
304,347,292,276,0
304,341,292,275,0
304,330,294,277,0
304,315,295,283,0
305,299,295,291,0
305,287,296,299,0
308,280,297,308,0
310,279,298,316,0
313,279,299,322,0
314,280,300,325,0
316,281,302,325,0
318,280,303,322,0
320,277,302,318,0
318,270,302,311,0
310,264,303,305,0
302,265,302,299,0
295,277,301,294,0
290,296,300,291,0
288,318,299,291,0
289,331,300,293,0
291,328,299,294,0
292,312,299,295,0
293,288,299,297,0
295,267,300,299,0
299,256,301,300,0
305,258,301,301,0
311,267,300,302,0
315,281,299,303,0
318,297,298,304,0
320,308,299,305,0
321,312,300,307,0
319,311,302,309,0
317,308,303,311,0
314,308,304,312,0
311,313,304,312,0
307,321,303,310,0
305,328,302,307,0
302,334,301,304,0
299,339,300,300,0
296,340,300,297,0
294,336,299,296,0
294,321,298,297,0
295,298,297,298,0
298,281,297,299,0
301,271,296,297,0
303,273,297,296,0
306,285,297,296,0
307,301,299,299,0
309,314,300,301,0
310,323,301,303,0
311,326,302,304,0
307,324,303,304,0
299,323,303,305,0
292,323,303,307,0
287,321,304,309,0
288,319,307,311,0
297,318,310,312,0
307,319,311,311,0
313,320,310,309,0
316,320,309,309,0
317,319,309,310,0
317,314,308,313,0
316,305,308,315,0
315,297,308,320,0
315,292,307,324,0
315,290,307,328,0
315,292,306,330,0
315,301,305,331,0
314,311,305,331,0
313,312,306,329,0
313,307,308,325,0
313,305,309,319,0
313,303,310,310,0
313,297,309,301,0
312,294,308,292,0
311,294,307,287,0
311,293,306,286,0
312,290,306,287,0
313,287,306,290,0
312,286,306,293,0
312,286,306,296,0
310,284,305,297,0
307,282,304,298,0
304,285,303,298,0
302,288,302,297,0
302,287,300,294,0
303,289,299,291,0
308,295,299,287,0
312,303,301,284,0
310,312,301,282,0
306,326,302,284,0
304,342,303,288,0
305,349,306,295,0
305,347,309,301,0
303,345,311,307,0
299,343,312,312,0
298,335,313,316,0
298,323,312,317,0
297,311,310,316,0
297,303,308,312,0
296,296,307,307,0
297,294,305,301,0
297,298,302,295,0
297,302,300,289,0
298,302,298,284,0
299,302,296,281,0
300,304,295,279,0
302,305,295,279,0
302,306,297,283,0
301,304,299,289,0
299,296,302,297,0
298,281,305,308,0
299,266,306,319,0
300,256,306,326,0
302,258,306,329,0
305,272,306,329,0
307,288,305,326,0
306,296,306,322,0
303,297,306,317,0
299,288,307,313,0
296,279,308,309,0
297,277,309,306,0
301,286,310,303,0
306,301,310,301,0
310,316,309,298,0
312,326,308,297,0
313,328,307,298,0
313,326,309,301,0
315,324,311,306,0
317,324,314,310,0
319,325,317,313,0
319,323,319,318,0
318,320,319,323,0
317,319,319,329,0
316,319,317,333,0
315,319,316,334,0
313,320,313,332,0
311,319,311,329,0
309,316,309,322,0
307,311,308,313,0
306,311,307,303,0
304,312,305,296,0
303,315,304,290,0
302,316,303,286,0
301,314,302,282,0
299,309,300,278,0
299,302,300,275,0
299,297,301,272,0
299,292,302,272,0
300,291,305,274,0
302,290,308,278,0
305,289,311,283,0
309,290,313,287,0
317,291,314,292,0
327,293,314,296,0
330,297,314,300,0
324,301,315,303,0
314,305,315,306,0
305,307,316,308,0
298,306,316,308,0
293,302,317,307,0
290,295,317,306,0
288,286,317,305,0
286,278,317,303,0
286,273,316,303,0
288,274,316,304,0
293,288,315,306,0
299,307,315,308,0
304,321,315,309,0
307,328,315,309,0
309,327,314,309,0
310,323,314,309,0
309,318,313,310,0
306,314,312,310,0
302,307,311,309,0
298,299,310,307,0
296,292,310,304,0
297,289,311,299,0
298,292,311,296,0
301,300,312,294,0
304,307,312,294,0
306,312,311,294,0
306,318,310,293,0
304,322,310,293,0
303,323,309,293,0
303,320,310,296,0
305,315,312,303,0
308,309,314,313,0
310,304,316,320,0
312,302,317,325,0
313,302,317,327,0
313,305,317,324,0
314,308,316,320,0
314,308,315,313,0
314,307,313,307,0
313,305,311,303,0
312,308,309,301,0
311,312,308,302,0
311,316,307,304,0
311,318,307,306,0
309,319,307,305,0
307,319,308,302,0
305,321,309,298,0
304,322,309,296,0
304,321,308,294,0
305,319,307,292,0
307,319,305,290,0
309,319,304,286,0
312,314,303,283,0
314,305,303,282,0
317,297,303,284,0
320,290,306,289,0
321,283,310,296,0
321,275,312,302,0
319,270,313,305,0
317,268,312,307,0
316,266,310,307,0
314,265,309,305,0
309,265,308,304,0
303,270,307,304,0
300,284,306,305,0
299,303,306,307,0
301,322,306,309,0
304,336,306,311,0
306,344,306,311,0
306,342,306,311,0
305,330,306,311,0
304,310,307,310,0
304,287,307,308,0
306,274,308,306,0
309,279,310,303,0
312,293,311,300,0
314,306,312,299,0
314,313,312,298,0
313,315,311,297,0
311,312,310,295,0
308,304,310,295,0
307,295,309,294,0
305,293,309,294,0
304,298,308,295,0
303,304,308,297,0
301,310,308,300,0
299,320,308,302,0
299,329,308,305,0
303,332,308,307,0
308,328,307,310,0
313,323,306,313,0
317,318,305,314,0
316,315,304,314,0
309,312,304,314,0
301,308,306,314,0
296,303,308,314,0
295,298,311,316,0
297,298,313,318,0
301,303,315,319,0
305,308,315,319,0
309,309,314,319,0
311,306,312,320,0
312,304,312,321,0
312,305,311,320,0
311,308,310,317,0
310,313,308,313,0
308,316,307,308,0
307,318,304,301,0
305,315,302,295,0
304,312,301,291,0
307,313,302,289,0
311,316,302,290,0
314,316,302,293,0
314,314,303,296,0
313,314,303,302,0
311,313,304,310,0
311,308,305,317,0
315,296,306,321,0
321,286,307,323,0
323,279,307,322,0
322,280,307,319,0
319,289,308,314,0
314,299,307,307,0
310,307,306,301,0
307,312,306,299,0
304,313,306,299,0
302,310,304,300,0
301,304,301,300,0
302,300,299,303,0
306,300,298,307,0
312,304,299,311,0
319,312,302,315,0
321,320,305,317,0
320,324,308,318,0
317,323,311,319,0
314,321,313,317,0
311,320,313,313,0
308,318,311,307,0
306,314,310,302,0
305,313,308,297,0
304,315,306,293,0
304,318,304,291,0
304,322,303,290,0
304,323,301,289,0
304,319,300,288,0
305,312,299,288,0
305,302,299,288,0
304,290,299,289,0
303,278,298,288,0
302,266,297,288,0
303,261,297,290,0
304,261,297,293,0
307,265,299,296,0
311,275,302,299,0
314,288,304,302,0
316,303,306,304,0
316,319,307,305,0
316,333,307,305,0
315,341,307,304,0
314,342,307,304,0
314,335,307,303,0
313,323,307,304,0
313,313,307,304,0
312,305,307,304,0
310,303,306,303,0
307,303,305,303,0
304,308,305,304,0
305,319,305,305,0
309,329,305,305,0
312,335,304,305,0
313,336,303,305,0
313,329,302,306,0
310,320,302,307,0
309,311,302,308,0
310,303,303,309,0
314,295,304,311,0
319,291,306,312,0
327,293,308,312,0
332,297,308,310,0
330,298,307,308,0
323,296,307,307,0
318,297,307,306,0
316,301,307,305,0
318,303,306,303,0
320,300,304,302,0
320,294,303,300,0
318,291,302,300,0
313,295,301,301,0
307,302,301,303,0
303,313,301,307,0
303,329,302,315,0
304,344,304,327,0
307,355,305,339,0
310,357,307,350,0
313,353,310,358,0
314,343,312,360,0
315,328,314,356,0
315,315,315,347,0
314,302,314,335,0
312,292,313,322,0
311,283,310,310,0
312,278,308,301,0
313,277,307,294,0
314,276,306,288,0
315,276,305,283,0
314,276,305,280,0
312,278,305,278,0
311,284,304,277,0
310,292,303,276,0
310,301,302,277,0
311,310,301,277,0
313,317,300,277,0
314,319,300,278,0
315,314,302,282,0
315,305,304,288,0
315,296,306,294,0
313,289,308,297,0
311,287,309,299,0
308,289,309,300,0
306,293,309,304,0
303,294,309,309,0
300,291,309,314,0
298,286,308,318,0
296,283,308,319,0
294,288,307,319,0
295,298,307,318,0
298,305,307,317,0
303,307,306,316,0
307,309,306,314,0
311,308,305,309,0
314,305,304,303,0
314,301,304,297,0
313,295,304,294,0
312,288,304,294,0
309,284,305,295,0
307,284,303,297,0
304,288,302,298,0
303,295,301,298,0
302,304,300,298,0
301,314,300,298,0
302,321,300,299,0
305,325,303,300,0
308,322,306,301,0
310,314,309,301,0
309,308,310,302,0
309,307,312,304,0
310,309,313,305,0
311,311,312,306,0
312,309,310,305,0
313,303,309,305,0
314,295,307,304,0
316,291,307,304,0
317,289,307,305,0
317,291,307,307,0
318,298,308,310,0
321,308,310,313,0
321,317,311,315,0
315,321,312,315,0
309,323,313,313,0
303,323,313,310,0
299,324,313,309,0
295,324,313,308,0
292,324,312,309,0
290,323,312,309,0
290,320,311,310,0
293,315,310,309,0
296,310,308,307,0
297,307,306,305,0
298,307,305,303,0
299,308,306,304,0
302,306,307,307,0
306,304,308,313,0
309,298,309,323,0
311,289,310,334,0
312,278,311,344,0
312,266,311,350,0
311,257,312,352,0
310,255,313,350,0
308,258,313,344,0
306,263,313,333,0
304,269,313,322,0
303,275,312,311,0
302,285,311,301,0
302,295,310,293,0
302,304,309,285,0
302,308,309,278,0
302,307,308,273,0
300,305,308,271,0
300,304,308,270,0
301,304,309,270,0
304,307,309,273,0
306,309,309,277,0
308,311,310,282,0
308,312,310,286,0
308,311,311,289,0
307,306,311,292,0
306,303,312,294,0
305,304,313,296,0
303,305,314,298,0
302,305,314,299,0
301,301,315,298,0
301,293,315,298,0
301,285,314,298,0
301,279,313,300,0
301,281,312,302,0
301,289,310,305,0
300,300,309,309,0
299,314,309,310,0
298,329,308,310,0
297,338,308,308,0
297,344,308,307,0
297,348,308,307,0
298,350,310,310,0
300,348,313,314,0
303,345,315,319,0
305,344,316,322,0
305,339,316,323,0
304,329,316,321,0
304,319,315,317,0
304,310,313,312,0
305,300,311,309,0
307,288,308,308,0
309,280,307,309,0
309,278,306,310,0
307,281,306,311,0
305,286,306,311,0
302,291,308,311,0
298,293,309,311,0
295,294,310,310,0
294,297,310,309,0
296,301,310,310,0
299,303,311,310,0
302,304,311,311,0
305,306,312,312,0
307,311,313,314,0
308,316,314,316,0
307,313,315,319,0
306,302,316,321,0
304,288,316,323,0
302,276,317,325,0
302,268,318,328,0
303,264,319,330,0
303,264,319,330,0
303,269,320,329,0
302,276,319,327,0
300,278,318,321,0
299,279,315,313,0
300,282,312,304,0
304,285,309,297,0
309,288,306,293,0
315,292,305,293,0
320,298,305,295,0
323,304,305,299,0
318,311,307,302,0
311,319,308,307,0
304,326,309,313,0
300,332,309,317,0
298,334,309,320,0
298,334,309,321,0
297,332,309,320,0
295,331,308,318,0
293,331,308,318,0
292,333,309,320,0
293,336,309,321,0
294,336,309,317,0
294,329,308,308,0
295,322,307,297,0
297,319,307,287,0
299,315,306,280,0
303,311,306,276,0
306,309,306,274,0
309,310,307,275,0
310,315,309,278,0
310,323,310,282,0
309,332,311,287,0
307,340,312,292,0
306,343,312,296,0
304,340,310,298,0
302,331,309,299,0
302,318,307,299,0
302,304,306,299,0
303,292,305,300,0
304,287,305,300,0
303,286,304,300,0
301,284,303,301,0
300,281,304,303,0
299,284,306,306,0
297,289,306,309,0
298,294,307,311,0
303,299,307,312,0
306,301,308,314,0
306,299,309,317,0
304,294,310,321,0
302,289,311,324,0
300,288,312,327,0
300,293,313,330,0
300,301,313,333,0
301,309,314,334,0
301,314,313,332,0
299,318,311,328,0
296,318,309,322,0
292,319,307,316,0
290,321,305,311,0
290,321,304,304,0
293,316,304,298,0
297,309,303,293,0
301,307,303,291,0
304,307,302,292,0
306,303,300,295,0
305,292,298,298,0
301,279,295,300,0
297,267,293,303,0
294,256,291,306,0
294,256,293,312,0
301,275,296,319,0
309,304,301,324,0
315,328,305,328,0
317,339,308,329,0
316,343,311,329,0
315,341,312,327,0
313,337,313,323,0
311,332,312,318,0
309,327,310,311,0
307,325,307,304,0
306,323,305,299,0
305,320,303,295,0
304,316,300,293,0
302,314,298,291,0
301,314,296,290,0
300,317,295,292,0
301,320,294,296,0
302,322,294,300,0
305,325,295,305,0
308,323,297,307,0
310,313,299,307,0
311,302,301,304,0
310,297,302,300,0
308,297,302,296,0
305,299,302,292,0
302,300,303,291,0
300,302,304,293,0
299,304,305,298,0
298,306,306,304,0
298,311,306,309,0
298,316,306,312,0
299,318,306,311,0
300,316,304,309,0
302,311,302,306,0
305,304,301,306,0
310,298,302,306,0
316,296,303,307,0
323,296,303,308,0
327,296,302,310,0
325,295,303,314,0
315,293,304,320,0
304,290,305,324,0
297,286,307,328,0
292,284,308,329,0
289,284,309,328,0
288,285,308,323,0
288,288,307,317,0
288,294,305,309,0
290,302,304,304,0
292,309,304,301,0
295,316,305,300,0
298,322,305,302,0
301,327,306,304,0
304,326,306,306,0
304,317,306,306,0
301,304,305,305,0
296,288,304,302,0
292,272,303,297,0
290,257,302,293,0
289,248,302,289,0
291,245,303,289,0
295,253,304,291,0
299,273,307,295,0
304,294,310,299,0
308,308,311,303,0
310,313,312,307,0
309,313,311,311,0
306,313,309,315,0
303,318,308,318,0
301,323,307,321,0
303,325,306,322,0
306,325,305,323,0
308,324,304,323,0
308,321,303,321,0
307,317,301,317,0
307,313,299,311,0
305,310,298,306,0
305,307,296,301,0
303,303,296,297,0
302,299,295,295,0
298,298,296,293,0
295,300,297,293,0
293,307,299,296,0
294,315,301,300,0
297,322,303,303,0
299,325,303,304,0
301,322,302,302,0
302,317,300,299,0
303,317,299,297,0
304,317,298,296,0
305,312,297,297,0
306,301,297,297,0
306,291,297,299,0
306,290,298,302,0
308,299,298,304,0
309,314,298,307,0
310,329,298,313,0
312,341,299,322,0
315,344,301,332,0
316,337,302,339,0
317,328,304,345,0
318,321,305,348,0
318,317,307,350,0
318,315,308,348,0
314,313,310,343,0
309,308,311,335,0
304,300,310,326,0
300,291,309,317,0
297,277,308,308,0
296,265,307,302,0
297,268,306,296,0
301,286,305,292,0
306,306,305,290,0
311,315,305,291,0
314,313,305,292,0
317,308,306,295,0
319,302,307,297,0
319,297,308,301,0
317,293,309,306,0
314,292,309,312,0
311,292,311,318,0
309,295,312,322,0
309,300,313,325,0
312,304,313,326,0
316,305,312,325,0
317,304,310,322,0
315,300,309,318,0
312,298,308,313,0
310,299,306,306,0
309,306,305,300,0
308,311,303,297,0
307,312,302,297,0
305,308,302,299,0
303,302,303,303,0
300,294,305,308,0
299,286,307,310,0
300,276,308,311,0
302,269,309,310,0
304,270,309,310,0
305,281,310,309,0
305,290,311,307,0
305,291,311,305,0
306,286,312,302,0
308,288,313,301,0
310,299,312,300,0
310,314,311,298,0
311,326,310,296,0
311,337,308,294,0
311,345,306,291,0
310,349,305,290,0
308,348,305,288,0
306,343,304,287,0
304,335,302,287,0
302,324,302,285,0
302,307,301,285,0
303,287,300,286,0
306,273,300,289,0
309,266,300,294,0
312,266,301,299,0
314,273,303,303,0
314,285,303,303,0
314,302,304,301,0
313,321,304,298,0
311,334,303,295,0
310,339,303,294,0
309,337,303,299,0
308,326,303,305,0
307,311,302,310,0
307,296,302,314,0
307,289,302,314,0
307,290,302,313,0
308,294,302,312,0
311,298,302,314,0
314,302,303,316,0
318,303,303,320,0
319,302,303,323,0
317,300,303,326,0
312,297,304,325,0
306,292,304,321,0
300,288,304,312,0
298,288,304,304,0
298,294,305,297,0
300,302,306,294,0
303,309,309,293,0
306,314,310,292,0
307,316,310,291,0
307,318,309,292,0
306,319,307,293,0
305,317,306,295,0
304,309,306,297,0
303,297,305,299,0
303,284,305,302,0
304,273,305,305,0
304,263,305,308,0
304,260,305,313,0
304,263,305,319,0
305,270,305,324,0
305,286,305,329,0
307,308,305,332,0
310,329,305,335,0
313,341,305,336,0
315,342,305,335,0
315,336,306,330,0
315,326,306,323,0
313,316,306,314,0
311,310,306,305,0
308,308,305,297,0
306,309,305,294,0
306,309,304,293,0
305,306,303,293,0
305,302,303,293,0
306,302,303,292,0
306,306,303,291,0
307,311,304,290,0
307,314,304,291,0
308,315,305,292,0
309,313,306,294,0
311,310,306,295,0
313,304,305,296,0
315,300,306,298,0
315,299,306,300,0
313,301,307,303,0
311,304,307,305,0
310,309,306,306,0
311,314,304,304,0
310,314,302,303,0
305,309,300,302,0
299,302,299,302,0
295,298,298,302,0
293,298,299,302,0
298,305,301,303,0
306,315,302,302,0
307,324,301,302,0
302,330,301,301,0
297,331,300,301,0
296,328,300,302,0
299,324,302,304,0
304,316,304,307,0
309,306,305,311,0
313,297,306,314,0
316,291,307,318,0
319,290,308,320,0
319,291,308,320,0
316,295,308,318,0
313,300,307,314,0
310,302,306,309,0
308,297,306,305,0
306,289,306,303,0
305,286,306,304,0
303,290,307,308,0
300,298,306,313,0
298,311,306,317,0
295,321,306,320,0
294,324,306,320,0
296,321,307,318,0
300,319,308,315,0
302,317,308,312,0
303,313,308,310,0
304,308,308,310,0
306,300,308,311,0
307,292,308,312,0
307,289,308,311,0
307,288,307,310,0
306,290,307,308,0
306,296,307,306,0
304,301,308,305,0
304,302,307,305,0
304,296,307,305,0
304,288,307,307,0
304,280,308,310,0
305,275,307,313,0
306,282,307,314,0
307,300,306,314,0
307,315,306,314,0
308,321,305,314,0
307,319,305,312,0
307,312,305,310,0
306,309,305,308,0
305,312,304,306,0
304,316,303,305,0
304,318,302,303,0
303,317,300,300,0
301,317,300,297,0
302,318,300,293,0
305,319,302,289,0
308,322,303,285,0
311,326,304,285,0
313,327,306,286,0
314,323,307,288,0
313,318,309,292,0
310,312,309,297,0
303,303,308,302,0
297,293,307,306,0
294,283,305,308,0
297,273,303,308,0
305,270,301,306,0
314,274,299,305,0
320,280,299,304,0
322,286,300,304,0
321,292,303,304,0
317,301,305,305,0
312,308,307,305,0
308,312,308,303,0
305,309,307,299,0
303,303,306,296,0
302,300,305,293,0
302,300,305,292,0
303,305,305,293,0
304,311,305,294,0
304,315,306,296,0
304,314,305,299,0
305,309,305,302,0
307,302,305,303,0
309,295,305,302,0
311,287,304,299,0
308,272,303,296,0
302,256,303,296,0
297,248,304,297,0
298,249,307,302,0
303,257,311,310,0
308,274,313,320,0
312,296,316,330,0
314,314,317,336,0
314,325,318,337,0
313,332,319,336,0
312,334,318,331,0
311,333,317,324,0
310,332,316,317,0
309,332,315,310,0
307,330,314,305,0
304,328,312,301,0
300,325,310,298,0
296,325,309,297,0
293,329,307,297,0
292,334,307,299,0
295,340,308,303,0
300,344,308,307,0
302,344,309,312,0
304,340,310,316,0
306,328,311,319,0
309,309,311,320,0
310,287,312,321,0
310,269,312,321,0
308,258,312,320,0
305,251,310,317,0
301,245,308,312,0
300,244,305,307,0
303,253,303,303,0
307,272,303,299,0
311,293,304,295,0
312,310,306,292,0
310,317,307,291,0
306,317,307,290,0
302,315,308,293,0
301,312,308,301,0
302,309,309,309,0
303,307,308,314,0
304,307,307,317,0
305,309,305,318,0
306,314,305,318,0
308,317,307,318,0
309,320,309,317,0
309,321,309,315,0
308,318,310,313,0
307,312,309,309,0
306,306,308,306,0
306,300,308,303,0
307,296,307,299,0
308,294,305,296,0
307,295,304,292,0
306,299,303,289,0
306,306,303,287,0
307,314,302,286,0
308,315,302,286,0
308,304,302,287,0
309,289,303,289,0
311,275,304,293,0
313,269,305,298,0
314,271,305,303,0
311,281,307,306,0
306,295,309,308,0
302,308,310,308,0
300,316,311,307,0
299,319,312,306,0
300,318,313,306,0
301,311,313,306,0
302,306,312,307,0
302,306,311,308,0
303,309,310,308,0
303,313,309,308,0
304,317,308,307,0
305,319,306,305,0
307,315,305,304,0
308,308,304,302,0
309,301,305,301,0
309,297,305,302,0
309,295,305,306,0
308,293,306,314,0
306,290,308,323,0
304,285,308,330,0
303,284,308,334,0
302,287,308,333,0
302,293,308,328,0
301,304,308,322,0
300,318,307,315,0
299,330,307,307,0
299,334,306,301,0
300,329,305,295,0
300,321,305,290,0
302,315,305,288,0
304,313,305,288,0
306,309,305,290,0
309,303,306,293,0
312,297,306,295,0
314,293,306,296,0
315,292,305,296,0
316,295,305,298,0
317,299,306,303,0
318,304,306,309,0
321,308,305,317,0
322,313,305,324,0
321,317,305,330,0
316,319,306,334,0
309,320,308,335,0
304,322,309,332,0
303,324,311,327,0
306,324,312,320,0
309,318,312,312,0
309,305,309,303,0
305,289,306,295,0
299,271,305,290,0
293,252,304,288,0
290,235,305,286,0
292,231,304,285,0
297,244,303,286,0
301,263,300,288,0
303,282,298,289,0
304,296,297,290,0
307,304,296,292,0
309,308,297,294,0
310,310,299,296,0
312,312,301,301,0
313,311,303,307,0
315,310,305,314,0
317,313,306,320,0
318,319,306,324,0
317,326,306,325,0
315,331,306,324,0
312,335,305,322,0
310,341,305,320,0
308,346,305,320,0
306,347,305,320,0
305,345,305,320,0
305,338,305,320,0
306,328,305,320,0
309,318,305,320,0
314,312,305,320,0
319,311,305,318,0
319,310,306,316,0
313,308,307,314,0
305,308,307,313,0
300,311,307,312,0
297,317,306,311,0
296,319,306,311,0
296,316,306,311,0
296,308,307,312,0
298,297,308,314,0
298,284,309,315,0
298,275,309,314,0
297,274,308,313,0
297,283,307,311,0
297,295,304,308,0
297,304,302,304,0
299,308,299,300,0
302,307,298,297,0
306,300,296,296,0
310,288,295,296,0
313,278,296,296,0
315,274,297,296,0
315,277,297,295,0
311,291,297,294,0
304,311,297,293,0
298,331,298,294,0
298,343,301,296,0
304,338,305,297,0
311,321,308,297,0
312,302,308,296,0
309,293,309,295,0
305,294,309,296,0
303,301,309,301,0
302,308,308,310,0
303,313,307,319,0
305,315,306,327,0
305,311,305,331,0
304,304,304,331,0
303,295,303,328,0
300,286,301,322,0
298,281,300,315,0
298,285,301,310,0
300,295,303,310,0
304,304,306,311,0
308,308,310,313,0
311,313,313,314,0
312,319,314,314,0
312,325,314,313,0
311,330,314,312,0
309,333,313,311,0
308,332,312,307,0
307,328,311,304,0
307,322,309,302,0
306,320,307,300,0
307,322,305,299,0
308,324,304,300,0
308,322,303,300,0
306,319,302,300,0
303,314,301,301,0
302,309,301,303,0
302,303,303,307,0
305,300,305,311,0
310,299,307,316,0
314,298,308,320,0
315,297,308,324,0
314,297,308,326,0
311,298,306,326,0
307,302,304,325,0
304,306,302,320,0
304,312,300,315,0
307,319,299,311,0
313,319,299,307,0
321,307,300,304,0
323,290,300,301,0
316,274,300,300,0
305,268,300,297,0
296,273,300,295,0
292,285,299,294,0
291,294,299,294,0
293,298,300,296,0
294,302,300,299,0
296,306,301,303,0
298,307,302,307,0
300,307,303,311,0
303,312,303,315,0
305,320,304,317,0
306,327,304,318,0
308,329,304,318,0
309,328,304,317,0
309,326,304,317,0
309,326,304,317,0
309,323,303,316,0
311,318,303,314,0
312,312,303,311,0
312,303,302,307,0
310,294,302,303,0
309,288,302,300,0
309,288,303,299,0
307,288,303,297,0
304,286,301,295,0
300,283,299,294,0
297,283,297,294,0
296,288,297,296,0
298,296,299,301,0
302,303,302,307,0
307,307,304,313,0
310,309,307,318,0
312,311,307,320,0
312,312,307,320,0
311,314,306,318,0
309,316,306,316,0
307,318,305,314,0
306,320,304,313,0
305,321,305,313,0
305,320,306,315,0
304,316,306,320,0
304,309,306,325,0
304,303,306,328,0
304,297,305,330,0
305,294,304,327,0
306,294,304,322,0
309,300,304,315,0
312,306,305,310,0
315,307,307,306,0
316,301,308,303,0
314,298,310,300,0
310,299,311,298,0
305,301,312,299,0
300,305,311,300,0
297,309,312,303,0
296,308,312,306,0
295,309,312,307,0
296,315,311,308,0
298,326,311,308,0
302,333,311,309,0
305,331,311,310,0
309,321,311,312,0
311,310,310,316,0
313,302,309,320,0
313,297,309,323,0
313,293,308,325,0
312,290,309,326,0
310,287,310,324,0
308,284,311,322,0
306,282,312,320,0
305,283,314,319,0
306,286,316,316,0
309,290,316,311,0
311,295,314,304,0
313,298,310,297,0
315,296,306,292,0
319,294,305,291,0
328,297,307,292,0
334,306,308,296,0
329,316,309,299,0
318,322,308,300,0
305,325,306,299,0
296,324,305,296,0
291,322,303,293,0
289,319,303,291,0
290,315,303,290,0
290,312,303,290,0
288,309,304,290,0
287,307,305,291,0
287,309,306,294,0
290,312,308,299,0
295,312,309,305,0
298,311,310,309,0
302,312,310,310,0
304,316,309,310,0
304,316,308,309,0
304,312,307,308,0
304,307,307,307,0
304,302,306,305,0
304,300,305,302,0
303,303,304,299,0
303,306,303,296,0
303,307,303,292,0
303,305,302,290,0
305,305,302,291,0
307,310,303,294,0
311,315,305,298,0
314,313,307,304,0
316,305,309,311,0
316,296,310,317,0
315,295,311,320,0
312,306,311,323,0
310,319,310,326,0
308,325,309,329,0
307,326,308,330,0
305,323,306,328,0
302,317,305,323,0
301,313,304,318,0
303,312,305,312,0
307,309,306,305,0
309,302,307,299,0
307,300,307,297,0
305,305,308,298,0
305,311,308,301,0
306,316,309,304,0
308,320,309,306,0
310,322,310,309,0
312,324,310,312,0
312,326,310,315,0
311,328,310,316,0
310,328,309,316,0
308,326,308,314,0
306,321,305,309,0
304,311,303,303,0
303,299,301,297,0
302,289,300,292,0
302,289,300,289,0
301,302,300,289,0
302,318,300,290,0
303,327,301,293,0
305,328,302,295,0
306,326,302,298,0
306,325,300,300,0
305,327,298,303,0
303,331,297,304,0
303,332,297,305,0
305,332,299,306,0
310,329,301,306,0
310,326,303,307,0
308,323,304,309,0
305,321,305,311,0
303,319,305,313,0
301,317,306,314,0
300,316,306,315,0
299,313,306,315,0
298,308,305,314,0
298,300,305,313,0
298,294,305,313,0
299,292,305,313,0
299,294,306,315,0
298,299,305,316,0
297,304,304,314,0
296,304,303,311,0
299,301,301,306,0
305,298,301,301,0
310,296,300,298,0
310,295,302,296,0
308,294,304,294,0
305,297,305,294,0
305,304,307,294,0
305,315,309,294,0
305,327,311,293,0
303,334,312,293,0
300,331,313,294,0
296,320,312,298,0
293,306,312,304,0
292,295,312,310,0
294,290,313,314,0
299,293,312,316,0
303,300,311,316,0
306,308,307,314,0
308,310,304,312,0
306,304,302,311,0
303,293,303,313,0
302,280,304,315,0
302,268,307,314,0
300,260,308,311,0
298,260,309,306,0
298,269,309,301,0
301,279,310,298,0
304,285,311,298,0
305,288,311,299,0
306,293,310,302,0
306,304,310,304,0
306,318,309,305,0
307,328,308,301,0
307,332,306,295,0
309,333,304,291,0
310,331,303,290,0
312,330,304,291,0
312,328,304,292,0
311,324,303,292,0
308,322,301,290,0
304,324,300,291,0
302,324,299,295,0
301,320,299,302,0
301,310,300,310,0
302,299,302,317,0
304,293,304,320,0
305,297,305,321,0
306,308,305,318,0
307,321,304,314,0
307,331,304,309,0
305,335,304,305,0
302,330,304,302,0
300,323,304,301,0
299,316,304,301,0
299,308,304,300,0
298,298,304,300,0
298,287,305,299,0
300,281,305,298,0
304,284,305,298,0
308,289,305,298,0
310,293,304,301,0
310,295,304,305,0
308,295,302,309,0
304,293,300,312,0
300,288,298,313,0
300,285,299,314,0
304,287,300,313,0
310,290,302,309,0
315,291,302,303,0
315,295,302,298,0
312,303,302,294,0
310,309,302,291,0
308,312,302,289,0
307,312,302,288,0
307,309,302,288,0
306,307,303,289,0
305,308,303,293,0
305,309,303,298,0
305,307,304,304,0
305,305,304,308,0
306,307,303,312,0
306,310,304,313,0
305,312,304,315,0
305,314,305,317,0
303,319,307,319,0
301,324,308,321,0
305,327,308,321,0
309,326,307,321,0
309,321,306,321,0
307,315,305,321,0
305,310,305,322,0
304,307,304,324,0
303,307,304,324,0
303,311,304,323,0
303,316,306,322,0
302,318,307,321,0
301,320,308,320,0
300,322,307,318,0
298,322,305,316,0
298,324,303,314,0
298,325,301,312,0
301,324,300,310,0
306,319,301,310,0
311,312,303,309,0
315,306,305,308,0
318,307,307,305,0
319,314,308,304,0
319,320,310,303,0
318,322,311,303,0
315,319,312,303,0
312,314,311,305,0
309,310,310,310,0
308,306,308,316,0
306,304,307,321,0
304,307,306,323,0
303,313,305,324,0
301,319,305,323,0
300,322,306,321,0
300,323,307,316,0
304,315,307,311,0
308,299,307,305,0
310,281,306,298,0
310,267,305,293,0
312,260,304,290,0
314,260,305,290,0
317,268,306,292,0
318,284,308,295,0
318,302,309,298,0
318,315,310,301,0
316,320,309,302,0
312,317,308,302,0
307,306,307,303,0
302,292,306,304,0
296,280,305,305,0
295,276,304,307,0
297,283,304,309,0
302,299,304,310,0
306,314,304,310,0
309,320,303,308,0
310,318,302,305,0
312,315,301,302,0
315,314,301,300,0
321,315,302,300,0
329,320,303,300,0
336,328,303,298,0
335,334,303,297,0
324,339,302,296,0
310,342,302,295,0
299,343,302,295,0
295,342,302,296,0
294,335,302,300,0
295,324,302,305,0
296,316,302,312,0
297,316,303,318,0
298,320,304,322,0
299,324,305,323,0
300,326,305,322,0
301,322,305,319,0
301,312,304,315,0
301,297,304,311,0
301,280,302,309,0
301,270,302,309,0
302,268,302,311,0
304,274,304,314,0
307,288,306,317,0
309,301,308,317,0
309,312,308,312,0
308,323,307,306,0
304,333,306,301,0
301,339,304,296,0
300,329,303,293,0
301,313,303,291,0
302,306,303,291,0
302,305,304,292,0
300,306,305,293,0
297,308,305,294,0
294,307,305,296,0
297,307,305,297,0
301,304,305,300,0
306,300,304,302,0
308,296,304,305,0
311,293,304,308,0
313,295,304,312,0
314,299,305,316,0
314,303,305,319,0
313,304,306,321,0
311,303,307,324,0
308,304,308,326,0
306,307,309,326,0
302,310,309,324,0
298,310,310,322,0
295,307,311,323,0
295,307,312,328,0
301,309,313,331,0
307,312,313,331,0
312,314,311,328,0
313,314,310,323,0
313,314,308,318,0
312,315,306,314,0
311,317,304,309,0
313,318,301,303,0
313,320,300,299,0
310,319,300,296,0
306,316,301,295,0
303,311,302,294,0
301,302,304,294,0
299,293,306,297,0
299,286,308,300,0
299,284,309,304,0
297,282,310,306,0
294,281,308,308,0
290,286,308,310,0
288,297,306,312,0
289,302,305,312,0
291,301,305,310,0
297,296,305,306,0
299,282,304,302,0
296,265,303,299,0
293,258,302,296,0
294,263,302,296,0
296,275,302,297,0
299,288,302,301,0
303,297,303,306,0
305,301,304,310,0
306,303,305,314,0
306,305,307,317,0
305,309,308,321,0
302,315,308,324,0
300,323,309,327,0
300,330,310,330,0
301,335,311,331,0
303,335,311,330,0
305,332,311,326,0
306,328,311,321,0
306,325,309,314,0
307,323,307,305,0
305,321,305,297,0
300,319,303,289,0
296,316,301,286,0
293,307,299,285,0
292,295,299,288,0
294,285,300,292,0
295,281,302,296,0
296,279,304,299,0
296,278,307,301,0
295,276,309,300,0
294,274,309,300,0
292,274,310,301,0
292,279,310,301,0
291,288,310,301,0
292,297,310,302,0
292,304,310,302,0
294,309,311,302,0
296,312,311,304,0
298,308,311,305,0
299,298,311,306,0
299,292,310,305,0
297,291,308,304,0
295,297,306,303,0
296,307,304,303,0
299,317,303,301,0
307,324,303,299,0
315,328,302,297,0
320,329,302,298,0
319,327,303,304,0
314,323,304,313,0
309,320,305,320,0
305,317,306,323,0
302,315,306,322,0
299,313,305,318,0
296,307,304,311,0
293,299,302,303,0
290,290,300,293,0
286,283,298,284,0
285,282,297,278,0
286,289,297,275,0
289,296,296,273,0
292,299,296,274,0
296,299,295,276,0
300,295,295,278,0
303,291,295,281,0
306,290,296,285,0
309,295,298,290,0
311,301,301,295,0
311,305,303,300,0
310,310,304,306,0
309,316,306,312,0
308,318,307,318,0
307,318,308,323,0
307,317,309,327,0
309,315,309,329,0
309,313,310,327,0
308,312,309,323,0
305,313,307,320,0
301,313,305,318,0
298,312,303,317,0
299,310,301,317,0
303,310,300,317,0
311,312,299,316,0
319,318,299,315,0
327,325,299,313,0
329,333,299,309,0
322,336,299,304,0
314,331,300,297,0
308,323,302,293,0
306,315,302,290,0
305,308,303,288,0
304,304,302,285,0
303,301,301,282,0
304,299,301,279,0
304,298,301,276,0
306,295,302,275,0
308,291,304,278,0
308,288,306,283,0
306,286,308,288,0
304,284,308,294,0
303,283,309,299,0
301,285,310,304,0
302,288,311,309,0
304,290,311,314,0
306,292,312,319,0
308,295,313,323,0
309,295,314,324,0
309,294,313,319,0
309,291,312,313,0
310,288,311,307,0
312,287,311,303,0
313,290,309,300,0
312,297,306,299,0
310,307,304,303,0
308,319,303,311,0
306,327,304,320,0
305,329,304,327,0
304,327,303,329,0
302,318,303,326,0
299,306,303,319,0
298,293,303,311,0
297,283,302,303,0
297,279,301,296,0
299,282,300,289,0
300,290,300,285,0
300,300,300,284,0
301,307,301,285,0
302,313,303,288,0
304,318,306,294,0
305,320,310,301,0
304,320,311,307,0
300,319,312,314,0
295,317,313,319,0
293,315,313,323,0
295,313,313,326,0
300,316,313,329,0
305,323,312,331,0
308,330,311,332,0
310,331,311,330,0
311,327,311,327,0
311,322,310,321,0
310,317,309,313,0
307,310,308,303,0
304,303,307,297,0
303,297,307,294,0
302,291,308,294,0
302,292,309,294,0
301,300,309,294,0
302,312,310,294,0
304,323,311,295,0
307,333,311,295,0
311,339,311,295,0
315,338,311,296,0
314,326,310,297,0
308,307,309,295,0
303,290,309,292,0
301,279,309,289,0
300,276,308,287,0
300,275,308,287,0
297,275,308,290,0
292,275,307,293,0
289,274,306,296,0
287,274,305,298,0
287,279,305,301,0
290,291,305,304,0
294,303,306,305,0
298,313,307,306,0
302,322,307,308,0
304,328,310,310,0
304,328,312,312,0
304,324,313,312,0
303,321,312,311,0
303,322,310,308,0
304,326,309,306,0
306,326,307,304,0
306,326,305,302,0
305,326,304,300,0
304,324,304,299,0
302,321,305,298,0
301,315,305,297,0
300,305,305,295,0
299,292,305,293,0
299,286,305,291,0
300,293,304,292,0
302,306,305,297,0
305,315,306,302,0
307,319,309,307,0
309,317,310,314,0
309,310,312,322,0
310,304,314,329,0
311,301,315,334,0
311,297,315,334,0
310,291,314,330,0
308,296,312,325,0
306,307,311,320,0
304,311,311,318,0
301,306,311,316,0
298,302,311,313,0
296,305,311,311,0
295,315,310,306,0
298,321,310,299,0
305,320,310,293,0
313,311,309,289,0
317,297,308,289,0
320,286,307,292,0
324,283,307,296,0
330,288,308,299,0
328,293,309,301,0
319,295,311,301,0
307,294,312,299,0
297,290,313,298,0
293,285,313,297,0
293,287,312,299,0
294,299,311,300,0
297,313,311,301,0
298,321,310,302,0
300,324,310,302,0
301,320,310,302,0
302,312,309,302,0
301,302,309,302,0
301,294,307,301,0
300,288,306,299,0
298,286,304,299,0
298,294,304,302,0
301,311,305,306,0
306,325,308,312,0
313,332,311,316,0
319,334,315,317,0
322,330,316,316,0
322,322,316,313,0
321,317,315,310,0
320,316,313,307,0
318,315,312,303,0
315,315,310,301,0
313,310,308,298,0
312,304,307,295,0
309,302,306,293,0
307,306,305,291,0
305,312,305,290,0
304,316,305,288,0
303,316,305,288,0
304,309,306,289,0
304,295,306,290,0
304,277,307,293,0
303,262,307,294,0
302,249,307,295,0
303,243,306,298,0
306,256,307,304,0
311,286,308,311,0
315,317,308,318,0
317,339,309,321,0
317,351,308,320,0
316,349,308,315,0
314,339,307,308,0
312,322,307,301,0
312,307,306,295,0
312,299,306,292,0
313,301,306,292,0
314,308,305,293,0
316,317,304,295,0
315,327,302,296,0
311,335,301,297,0
307,337,300,297,0
305,330,300,299,0
304,314,300,302,0
304,296,301,305,0
305,283,302,308,0
305,276,304,312,0
306,270,305,315,0
305,263,306,315,0
304,262,308,312,0
304,271,309,308,0
308,286,308,303,0
316,303,308,299,0
323,314,305,295,0
327,318,303,293,0
326,320,300,291,0
317,320,298,289,0
301,312,297,286,0
286,304,295,285,0
281,305,296,288,0
286,314,299,294,0
295,320,302,301,0
304,324,305,308,0
311,326,306,313,0
314,326,306,316,0
317,324,305,318,0
317,321,305,319,0
315,316,305,320,0
313,311,306,319,0
311,306,306,318,0
309,299,306,316,0
307,291,307,313,0
307,283,307,309,0
309,278,305,303,0
310,280,303,298,0
311,286,301,296,0
311,289,301,296,0
311,284,300,298,0
311,280,300,302,0
310,281,300,307,0
310,289,301,314,0
307,297,302,319,0
304,306,302,322,0
303,313,302,322,0
302,309,301,319,0
304,292,299,313,0
307,277,298,305,0
307,269,296,296,0
306,267,295,286,0
304,267,294,276,0
305,262,293,268,0
305,257,292,264,0
304,260,291,265,0
302,272,292,269,0
299,284,293,275,0
296,292,294,281,0
298,299,297,289,0
303,307,301,297,0
316,313,304,304,0
328,314,306,310,0
330,313,306,315,0
327,314,305,319,0
324,317,306,323,0
324,318,308,325,0
327,321,308,326,0
328,323,308,329,0
321,322,310,332,0
313,318,312,333,0
307,314,313,333,0
303,314,313,333,0
301,311,311,330,0
299,309,308,325,0
299,310,306,320,0
299,308,305,316,0
300,303,305,312,0
301,306,307,310,0
303,321,309,308,0
306,341,310,308,0
308,357,311,307,0
310,361,310,306,0
312,353,309,305,0
314,339,307,302,0
315,323,304,298,0
316,305,302,294,0
316,292,300,291,0
316,286,298,290,0
318,289,299,289,0
322,295,299,289,0
328,298,300,291,0
331,297,301,293,0
328,293,302,295,0
318,287,302,296,0
306,279,303,297,0
298,272,303,298,0
295,270,303,297,0
294,277,303,297,0
297,293,302,299,0
300,311,303,300,0
303,324,305,302,0
306,332,306,304,0
308,332,306,304,0
308,329,305,303,0
308,325,303,303,0
308,320,302,305,0
309,313,302,307,0
309,309,302,311,0
309,310,303,314,0
308,314,304,316,0
307,317,305,316,0
307,319,305,315,0
306,316,306,312,0
306,310,306,307,0
307,303,307,302,0
308,296,307,296,0
308,290,306,291,0
309,288,306,287,0
310,290,306,286,0
310,293,306,288,0
308,299,306,292,0
303,313,305,297,0
297,329,303,299,0
292,338,300,300,0
292,338,300,300,0
295,329,300,300,0
297,310,301,299,0
298,286,302,297,0
299,265,304,299,0
300,249,307,305,0
301,240,310,313,0
302,239,311,319,0
302,248,312,323,0
303,267,313,326,0
302,288,314,328,0
299,303,315,331,0
296,314,316,334,0
294,321,316,336,0
294,327,315,335,0
296,334,314,330,0
299,345,312,320,0
303,354,309,308,0
306,358,306,297,0
309,355,303,288,0
312,347,302,282,0
317,332,303,278,0
324,314,304,276,0
331,299,306,276,0
334,291,306,277,0
331,285,305,279,0
320,281,303,282,0
307,281,302,287,0
300,283,301,292,0
296,286,300,296,0
294,285,300,298,0
292,282,299,297,0
290,279,298,295,0
287,282,297,292,0
285,297,296,289,0
284,313,295,287,0
285,317,294,286,0
287,314,295,289,0
293,303,297,294,0
301,288,300,299,0
309,275,302,304,0
314,264,302,307,0
317,255,302,309,0
319,248,302,310,0
322,246,301,311,0
327,249,301,314,0
332,254,302,317,0
335,261,305,322,0
328,273,308,325,0
316,285,311,326,0
304,294,311,324,0
295,298,309,319,0
290,304,307,314,0
290,315,304,309,0
291,325,303,305,0
293,329,301,300,0
294,327,300,296,0
298,327,299,293,0
302,326,298,291,0
303,322,298,289,0
305,320,297,288,0
310,321,298,286,0
317,321,299,286,0
322,319,302,288,0
320,317,306,290,0
314,314,311,295,0
304,311,314,300,0
293,309,316,305,0
287,311,319,311,0
288,317,322,316,0
295,327,324,320,0
302,336,323,321,0
305,340,319,321,0
304,340,316,320,0
303,340,313,320,0
302,341,311,320,0
301,341,309,320,0
302,342,308,319,0
303,343,307,317,0
304,343,305,315,0
307,340,304,311,0
312,334,302,307,0
317,329,300,305,0
321,323,299,304,0
324,316,298,304,0
324,305,298,306,0
321,290,300,307,0
317,279,302,309,0
312,277,304,312,0
308,284,307,315,0
307,288,310,317,0
309,282,313,318,0
311,268,316,318,0
311,251,315,315,0
312,236,313,311,0
317,230,311,307,0
325,235,310,304,0
332,247,310,301,0
332,259,308,298,0
321,268,308,296,0
305,272,307,298,0
294,274,307,305,0
289,274,308,314,0
287,276,308,324,0
287,278,309,336,0
288,282,311,345,0
290,293,313,351,0
293,304,314,351,0
295,311,314,346,0
297,317,313,336,0
298,317,311,322,0
298,313,308,306,0
298,314,306,291,0
300,326,304,282,0
301,348,305,280,0
303,369,307,283,0
306,380,308,287,0
310,382,309,290,0
317,377,309,291,0
325,362,308,289,0
331,343,306,285,0
334,321,304,281,0
328,307,303,281,0
316,303,302,283,0
305,307,302,287,0
300,313,302,291,0
300,318,302,296,0
302,319,304,301,0
306,312,306,306,0
309,299,307,310,0
311,279,308,311,0
310,259,307,312,0
310,250,306,312,0
310,257,305,311,0
310,274,305,311,0
310,295,304,310,0
311,312,303,309,0
311,320,303,308,0
309,319,303,307,0
306,314,304,306,0
303,309,304,305,0
301,306,304,304,0
301,306,306,304,0
306,306,307,304,0
311,305,307,304,0
313,301,305,303,0
312,297,303,303,0
310,297,302,303,0
308,301,302,305,0
307,303,303,308,0
305,302,305,309,0
305,301,307,310,0
305,302,309,310,0
307,301,310,309,0
308,300,310,307,0
306,299,308,304,0
303,296,305,301,0
300,289,302,299,0
298,282,300,298,0
298,281,298,296,0
299,286,298,295,0
301,293,297,294,0
303,312,297,295,0
306,340,298,298,0
310,360,300,303,0
315,367,302,307,0
320,363,304,310,0
324,354,305,311,0
325,341,305,309,0
324,332,304,305,0
321,325,303,302,0
318,319,302,300,0
317,311,302,302,0
316,300,304,305,0
317,288,306,310,0
319,278,307,313,0
316,271,306,314,0
305,269,304,313,0
294,274,302,313,0
289,288,302,313,0
291,307,302,313,0
295,321,300,312,0
298,321,299,311,0
299,308,298,309,0
300,284,298,306,0
300,255,299,306,0
302,240,301,310,0
306,245,304,319,0
311,262,307,328,0
313,285,309,334,0
315,306,310,337,0
315,320,309,335,0
315,325,307,332,0
314,325,306,326,0
315,323,305,321,0
317,318,305,315,0
320,304,305,310,0
320,291,305,305,0
313,286,306,303,0
302,287,308,304,0
295,294,311,305,0
297,307,314,305,0
303,319,316,305,0
307,325,319,305,0
306,325,321,304,0
301,321,321,302,0
295,318,319,297,0
289,317,315,292,0
286,318,312,287,0
287,316,308,283,0
290,311,303,279,0
295,309,299,277,0
302,316,296,275,0
309,327,295,275,0
313,334,295,275,0
315,340,294,276,0
314,348,293,275,0
311,353,293,274,0
309,349,293,274,0
307,332,295,276,0
306,309,297,279,0
306,292,299,283,0
309,288,301,288,0
314,291,302,294,0
322,293,303,300,0
328,286,306,306,0
330,270,308,309,0
326,255,310,311,0
315,244,312,312,0
302,242,313,312,0
292,249,314,312,0
286,257,315,312,0
282,266,314,312,0
283,277,313,313,0
287,290,313,313,0
292,310,312,314,0
298,333,311,313,0
303,352,310,310,0
307,362,308,308,0
310,363,307,305,0
311,356,306,302,0
311,341,305,299,0
310,323,305,296,0
307,304,305,295,0
303,290,305,295,0
301,281,306,295,0
302,283,306,296,0
306,294,307,299,0
311,304,308,303,0
313,313,309,307,0
309,326,311,312,0
301,339,314,320,0
298,346,315,329,0
301,347,316,339,0
305,340,315,345,0
308,332,312,347,0
307,326,309,344,0
307,324,307,338,0
309,323,306,328,0
310,326,304,316,0
308,331,303,303,0
305,332,302,290,0
304,331,303,282,0
303,329,304,276,0
304,330,305,273,0
306,334,306,272,0
307,332,307,272,0
308,327,308,274,0
308,324,308,278,0
306,320,308,282,0
304,315,308,285,0
302,313,307,289,0
301,312,307,293,0
300,306,307,298,0
301,301,308,304,0
303,296,311,312,0
305,289,314,319,0
305,284,316,326,0
304,283,316,330,0
303,289,315,332,0
303,298,314,332,0
304,306,312,333,0
306,303,310,333,0
305,289,309,332,0
303,270,307,330,0
300,253,306,326,0
297,244,307,321,0
297,251,308,315,0
303,274,311,309,0
311,299,314,302,0
316,316,315,296,0
319,324,315,293,0
318,328,315,293,0
316,329,313,294,0
313,330,311,296,0
310,331,309,297,0
309,332,307,298,0
310,333,305,298,0
311,330,303,297,0
312,322,301,295,0
311,305,300,294,0
311,290,300,294,0
310,286,300,294,0
310,289,300,294,0
310,297,302,294,0
310,310,303,294,0
308,325,305,296,0
305,340,308,299,0
302,352,309,301,0
297,355,310,302,0
294,349,308,302,0
291,333,306,299,0
288,304,302,294,0
288,275,300,290,0
292,259,301,289,0
302,264,304,293,0
316,280,308,300,0
323,294,313,308,0
322,304,317,314,0
318,314,319,315,0
314,323,317,313,0
312,329,315,309,0
311,330,313,307,0
312,326,312,309,0
313,323,312,316,0
314,326,314,326,0
314,331,316,335,0
316,335,317,342,0
318,336,319,345,0
317,335,318,343,0
310,332,316,339,0
302,330,314,333,0
297,328,313,327,0
296,326,311,318,0
294,322,308,307,0
292,317,304,295,0
291,310,301,286,0
292,304,299,282,0
296,303,301,283,0
302,304,305,287,0
308,303,308,292,0
311,295,309,297,0
308,285,310,302,0
301,278,310,308,0
296,281,311,314,0
292,295,311,317,0
291,313,311,318,0
291,326,311,318,0
293,332,312,316,0
296,335,312,314,0
297,336,312,313,0
296,333,311,312,0
292,328,311,312,0
289,329,310,311,0
289,335,310,311,0
295,336,310,310,0
302,331,310,309,0
309,323,308,307,0
313,316,305,305,0
316,315,303,302,0
317,316,301,300,0
318,319,300,297,0
319,326,299,297,0
319,333,298,299,0
318,336,298,302,0
314,333,299,304,0
309,324,299,303,0
302,308,300,301,0
299,291,300,298,0
302,284,302,298,0
307,288,303,299,0
311,297,304,300,0
313,304,304,301,0
315,306,304,302,0
316,304,304,302,0
317,299,303,303,0
318,294,302,302,0
318,292,302,302,0
317,297,302,302,0
316,313,301,300,0
316,330,301,297,0
317,339,300,297,0
319,341,300,298,0
321,337,300,300,0
323,330,300,303,0
324,323,300,305,0
324,317,301,307,0
323,316,302,308,0
321,317,301,309,0
320,319,301,308,0
321,320,301,307,0
323,319,301,308,0
322,315,299,308,0
314,309,298,308,0
308,303,297,308,0
307,303,297,308,0
306,310,295,309,0
304,320,295,310,0
301,327,295,311,0
299,328,295,312,0
299,321,295,310,0
299,310,294,308,0
297,301,294,305,0
295,299,294,304,0
296,304,294,305,0
297,310,295,306,0
298,317,297,307,0
297,319,297,308,0
294,310,299,309,0
291,288,299,310,0
290,268,302,311,0
292,261,304,316,0
295,267,305,325,0
300,279,305,335,0
305,295,305,345,0
309,316,305,350,0
312,334,305,350,0
315,343,305,347,0
316,348,305,340,0
316,352,305,332,0
316,355,304,320,0
314,351,302,309,0
313,344,301,299,0
312,334,300,293,0
311,326,299,290,0
311,321,300,289,0
311,319,300,291,0
312,319,302,295,0
313,322,303,298,0
314,327,303,301,0
313,330,304,302,0
313,329,304,301,0
312,325,305,299,0
311,319,305,296,0
310,313,305,294,0
310,309,305,292,0
312,308,306,292,0
313,307,305,294,0
312,305,303,297,0
307,303,300,301,0
302,301,299,308,0
298,294,300,316,0
299,283,301,323,0
306,278,301,326,0
316,277,300,324,0
324,273,298,319,0
330,265,297,310,0
330,259,298,303,0
324,259,301,297,0
313,262,304,292,0
305,264,305,287,0
299,267,307,284,0
296,277,308,282,0
295,298,308,281,0
296,321,306,283,0
298,337,303,284,0
299,345,301,286,0
300,345,299,287,0
300,339,298,288,0
300,334,298,291,0
300,330,298,294,0
300,330,298,297,0
302,332,298,299,0
302,335,298,303,0
302,338,299,307,0
301,340,301,312,0
302,342,303,316,0
303,340,305,317,0
303,337,307,317,0
304,337,308,317,0
305,339,310,318,0
304,337,309,321,0
298,334,309,326,0
293,333,309,329,0
293,332,310,331,0
297,331,311,331,0
303,327,312,329,0
306,319,312,329,0
307,309,311,330,0
305,299,309,331,0
303,291,307,330,0
300,285,305,324,0
298,285,303,317,0
296,290,302,309,0
297,297,302,302,0
299,301,303,296,0
302,297,305,292,0
304,284,307,289,0
307,268,310,292,0
309,256,312,297,0
311,252,313,302,0
313,261,312,304,0
314,275,312,306,0
313,288,311,307,0
311,299,311,307,0
308,311,311,307,0
305,324,310,306,0
302,333,309,304,0
302,336,308,302,0
303,335,307,299,0
305,332,305,296,0
307,328,304,294,0
308,323,303,294,0
309,318,302,293,0
309,313,302,293,0
310,308,302,294,0
310,304,302,296,0
311,301,304,298,0
311,301,305,300,0
310,302,305,302,0
308,304,305,304,0
305,307,305,306,0
303,313,305,308,0
301,318,305,310,0
300,321,304,312,0
298,326,304,314,0
297,334,304,315,0
297,343,305,316,0
297,344,305,317,0
295,337,304,318,0
291,324,304,319,0
291,300,306,320,0
294,267,309,322,0
298,234,312,323,0
305,212,315,325,0
311,210,318,326,0
315,225,319,327,0
316,253,319,327,0
315,284,316,325,0
312,313,313,323,0
309,332,310,320,0
306,339,308,318,0
304,335,307,314,0
303,325,307,308,0
302,312,306,303,0
300,301,305,299,0
297,299,304,298,0
295,305,304,300,0
293,312,304,304,0
294,316,304,307,0
296,316,303,310,0
299,315,303,313,0
302,312,303,316,0
306,311,304,319,0
309,310,305,324,0
311,311,306,330,0
313,311,307,335,0
314,308,309,338,0
314,304,310,339,0
314,302,311,337,0
312,301,311,333,0
309,301,311,329,0
305,302,311,325,0
301,306,312,322,0
299,316,311,320,0
299,321,311,316,0
302,316,309,313,0
305,308,308,308,0
310,302,306,303,0
314,298,304,297,0
319,292,303,293,0
319,286,304,296,0
315,282,305,301,0
312,280,305,304,0
309,279,305,305,0
308,282,305,305,0
308,291,306,305,0
308,303,307,304,0
307,317,307,301,0
306,331,307,297,0
306,342,307,294,0
308,348,307,291,0
310,349,305,288,0
309,346,303,284,0
305,337,301,281,0
299,320,300,278,0
294,298,301,277,0
291,272,302,277,0
292,248,303,279,0
295,239,303,282,0
301,246,304,287,0
306,264,305,292,0
310,288,306,297,0
311,311,307,302,0
311,330,308,306,0
311,341,309,309,0
311,347,312,311,0
310,347,313,312,0
306,344,315,313,0
301,340,315,313,0
297,335,314,313,0
296,331,314,310,0
298,327,314,308,0
300,321,313,304,0
303,315,311,301,0
304,307,310,300,0
306,295,309,300,0
306,284,308,303,0
305,277,308,308,0
302,277,308,316,0
299,282,307,326,0
295,288,308,335,0
293,293,308,340,0
291,301,308,339,0
289,307,308,333,0
288,306,310,324,0
289,298,310,315,0
292,277,310,308,0
295,247,311,302,0
298,222,311,300,0
301,218,312,300,0
306,237,313,303,0
312,269,313,307,0
316,304,312,312,0
318,331,311,316,0
317,347,310,316,0
316,352,309,315,0
314,352,309,313,0
312,349,309,311,0
308,343,308,309,0
305,335,307,306,0
303,327,306,303,0
304,322,306,301,0
308,322,306,300,0
314,322,305,301,0
319,322,306,302,0
322,322,307,305,0
322,322,307,309,0
320,322,308,315,0
317,322,307,319,0
316,322,306,320,0
315,321,304,316,0
315,320,303,311,0
312,318,302,306,0
304,316,302,302,0
297,313,302,297,0
294,309,302,292,0
294,303,301,286,0
294,295,301,281,0
296,284,301,277,0
297,270,301,274,0
298,256,301,272,0
298,247,300,271,0
298,246,299,274,0
301,249,300,278,0
302,256,303,284,0
304,277,305,288,0
307,304,309,292,0
312,328,312,294,0
315,345,313,296,0
316,353,313,297,0
315,355,312,296,0
313,355,310,294,0
311,352,309,293,0
310,346,308,292,0
310,339,308,293,0
310,331,308,295,0
310,324,308,298,0
310,319,308,301,0
310,315,307,303,0
310,310,307,304,0
311,306,305,305,0
310,300,304,307,0
309,294,304,309,0
306,288,303,312,0
302,284,303,316,0
298,282,304,321,0
294,281,306,325,0
291,282,308,327,0
292,288,310,328,0
297,294,311,329,0
303,295,312,330,0
309,292,311,329,0
312,293,310,328,0
315,302,309,326,0
315,311,309,322,0
315,316,308,319,0
314,318,309,315,0
312,322,311,313,0
311,326,312,309,0
309,329,312,304,0
308,329,310,299,0
308,329,306,292,0
309,326,304,287,0
310,320,303,284,0
312,313,304,285,0
316,311,306,288,0
318,314,307,291,0
318,320,307,294,0
316,326,307,297,0
313,328,307,301,0
312,327,306,303,0
310,324,305,304,0
308,322,304,304,0
306,319,303,303,0
304,316,302,302,0
303,312,301,301,0
303,307,301,300,0
303,298,300,298,0
303,290,301,297,0
301,288,301,295,0
299,292,301,293,0
297,302,302,294,0
298,316,303,297,0
300,319,305,301,0
302,305,306,303,0
302,274,308,303,0
303,234,309,301,0
303,204,311,301,0
308,199,315,305,0
314,224,318,314,0
320,270,318,325,0
326,315,317,335,0
330,345,316,341,0
327,357,316,343,0
317,356,318,341,0
310,350,320,337,0
307,342,321,329,0
305,336,322,319,0
304,332,321,310,0
304,329,319,302,0
303,325,317,296,0
303,322,315,292,0
304,319,314,292,0
304,317,312,293,0
304,312,309,295,0
305,306,307,296,0
304,299,306,296,0
304,297,306,297,0
303,301,306,297,0
301,306,307,298,0
298,311,307,299,0
295,314,306,299,0
291,314,304,299,0
289,320,303,300,0
291,333,303,301,0
297,342,303,302,0
304,342,305,303,0
311,335,305,304,0
313,326,306,307,0
314,317,308,312,0
314,310,310,320,0
313,305,311,328,0
314,304,313,334,0
316,303,313,339,0
318,304,314,344,0
320,304,314,348,0
321,302,314,350,0
321,302,313,348,0
317,305,312,343,0
312,316,311,335,0
307,326,310,324,0
303,329,308,313,0
300,328,306,303,0
298,324,305,296,0
298,320,305,291,0
300,317,305,290,0
303,318,305,290,0
306,317,306,291,0
309,313,307,292,0
312,302,307,293,0
314,285,306,295,0
315,266,304,299,0
317,251,303,304,0
317,245,303,307,0
316,246,304,309,0
315,253,305,311,0
315,269,306,311,0
317,294,307,310,0
322,320,306,309,0
326,339,306,307,0
329,347,305,306,0
328,348,304,305,0
322,347,302,304,0
314,344,301,304,0
306,341,300,304,0
300,337,299,305,0
299,333,300,307,0
303,331,302,310,0
311,330,303,312,0
318,327,303,313,0
322,318,303,315,0
326,302,304,318,0
327,281,306,321,0
321,261,308,323,0
312,251,309,324,0
305,256,308,323,0
302,272,308,321,0
301,289,307,319,0
300,305,307,318,0
298,313,307,316,0
295,313,307,315,0
295,307,307,315,0
294,304,305,317,0
294,309,303,319,0
294,318,300,319,0
297,329,298,318,0
302,336,297,314,0
308,340,297,308,0
313,340,296,302,0
315,338,295,296,0
316,334,295,290,0
318,329,294,287,0
321,320,295,286,0
322,310,296,287,0
321,301,298,290,0
319,296,300,295,0
316,296,303,301,0
313,299,305,306,0
310,304,306,310,0
305,308,305,311,0
302,307,304,311,0
298,297,302,309,0
295,279,301,307,0
293,268,301,305,0
292,271,301,304,0
295,289,302,306,0
301,306,304,310,0
307,317,306,314,0
311,319,305,316,0
314,315,304,318,0
316,309,303,322,0
317,306,303,326,0
319,308,303,329,0
318,312,303,330,0
317,315,304,330,0
316,315,305,328,0
317,317,307,325,0
318,321,307,323,0
315,328,307,320,0
309,337,307,316,0
303,344,306,314,0
299,346,305,312,0
297,342,304,311,0
297,332,304,312,0
298,321,304,315,0
299,311,305,317,0
300,302,306,317,0
301,289,305,313,0
301,281,302,307,0
302,279,300,303,0
304,280,299,301,0
306,279,299,301,0
308,278,300,303,0
310,279,302,305,0
311,282,305,309,0
312,288,307,314,0
312,294,309,319,0
311,302,311,323,0
309,309,312,326,0
306,313,312,327,0
303,315,311,326,0
303,316,310,323,0
304,316,308,319,0
304,316,307,316,0
303,321,305,314,0
303,327,303,313,0
303,330,300,312,0
304,328,297,310,0
305,320,294,306,0
306,312,293,301,0
309,305,292,297,0
310,294,292,295,0
310,277,294,294,0
309,260,297,294,0
312,248,301,294,0
318,243,303,293,0
322,246,305,293,0
322,259,306,295,0
320,277,307,296,0
315,296,308,299,0
310,312,307,304,0
305,320,307,312,0
301,321,307,317,0
300,319,307,320,0
299,319,308,321,0
300,318,308,319,0
302,314,308,315,0
304,305,309,310,0
304,295,310,306,0
305,288,310,303,0
306,287,310,302,0
307,291,308,302,0
307,300,306,303,0
308,312,305,306,0
309,328,305,309,0
309,345,307,313,0
309,356,309,316,0
307,357,311,318,0
305,348,311,318,0
305,333,311,317,0
306,314,311,316,0
309,299,312,316,0
313,289,312,317,0
317,287,312,319,0
319,292,311,322,0
316,303,310,325,0
312,313,309,327,0
307,320,307,326,0
304,318,304,322,0
301,310,301,317,0
301,302,299,310,0
302,296,299,302,0
303,293,300,297,0
305,290,302,293,0
307,291,305,293,0
309,296,307,297,0
310,302,310,304,0
310,305,312,311,0
308,304,313,316,0
307,303,314,318,0
306,304,315,319,0
305,310,314,318,0
305,318,313,316,0
305,325,311,313,0
303,329,309,310,0
302,324,308,306,0
299,312,307,302,0
297,297,305,297,0
295,282,302,293,0
296,273,300,289,0
300,274,299,287,0
303,280,298,285,0
304,287,297,284,0
305,291,297,285,0
308,293,298,290,0
313,287,299,298,0
318,281,302,307,0
322,280,306,316,0
326,285,309,321,0
330,289,310,324,0
331,292,310,326,0
327,293,311,328,0
316,294,313,329,0
303,296,315,327,0
293,298,316,324,0
287,299,315,320,0
285,294,311,314,0
288,282,305,306,0
292,271,299,297,0
295,268,293,290,0
299,279,290,282,0
303,295,288,277,0
306,311,288,274,0
311,325,289,275,0
315,334,291,280,0
319,333,294,286,0
320,327,296,291,0
321,319,298,296,0
318,310,299,300,0
312,303,301,303,0
306,304,302,307,0
303,309,303,313,0
301,312,303,319,0
301,315,303,323,0
302,317,303,325,0
302,320,302,324,0
301,322,302,324,0
300,325,303,323,0
298,326,305,322,0
299,322,306,321,0
302,312,307,321,0
305,301,307,321,0
307,295,307,321,0
308,294,308,320,0
309,298,309,320,0
312,303,309,318,0
316,308,310,314,0
317,310,308,308,0
316,308,306,302,0
313,306,304,297,0
310,304,303,294,0
306,302,302,291,0
303,300,302,290,0
301,299,302,289,0
299,299,302,290,0
298,300,302,292,0
298,299,302,294,0
299,294,302,296,0
300,289,302,296,0
301,286,301,295,0
301,283,301,293,0
300,284,302,293,0
297,292,302,296,0
294,299,302,301,0
294,302,302,310,0
297,303,303,320,0
304,304,303,330,0
312,306,303,337,0
317,308,302,341,0
317,308,302,339,0
314,304,301,333,0
310,294,299,324,0
306,282,297,314,0
302,273,295,304,0
300,271,294,296,0
299,274,294,289,0
298,280,294,285,0
298,287,294,283,0
299,292,295,285,0
302,299,297,288,0
306,308,299,294,0
310,320,301,301,0
312,328,302,307,0
313,328,304,312,0
313,322,305,314,0
313,311,307,315,0
315,298,308,316,0
318,286,309,317,0
321,275,309,318,0
324,269,308,318,0
324,274,307,320,0
317,291,306,323,0
307,316,304,325,0
298,342,302,325,0
292,360,299,323,0
289,366,297,318,0
287,363,296,313,0
288,352,296,309,0
292,337,298,308,0
295,322,299,307,0
297,309,299,306,0
298,303,299,306,0
302,300,300,308,0
305,299,302,313,0
307,300,305,319,0
306,300,308,328,0
305,298,311,338,0
303,297,313,346,0
301,294,314,351,0
298,287,313,351,0
294,277,311,346,0
290,265,308,336,0
286,250,305,325,0
282,242,303,315,0
281,250,303,306,0
287,274,304,297,0
296,300,306,289,0
303,322,307,283,0
308,334,308,278,0
312,332,308,278,0
314,318,308,280,0
314,300,307,285,0
311,283,306,289,0
307,271,304,292,0
303,270,303,294,0
299,283,302,295,0
297,301,302,296,0
295,316,304,298,0
295,327,306,301,0
297,334,307,305,0
298,338,308,308,0
299,340,307,311,0
299,341,305,313,0
298,343,302,313,0
299,345,300,311,0
303,347,299,308,0
306,343,298,306,0
307,330,297,304,0
305,308,296,303,0
301,279,294,303,0
297,249,294,305,0
295,228,298,309,0
297,224,303,317,0
299,236,308,324,0
300,261,312,331,0
300,295,313,335,0
300,327,312,335,0
300,349,311,333,0
300,360,309,330,0
301,360,307,326,0
302,353,306,321,0
303,347,305,315,0
304,340,304,308,0
305,332,304,302,0
306,325,304,297,0
305,318,304,292,0
304,312,303,289,0
301,308,303,287,0
299,305,302,287,0
298,305,302,288,0
298,305,301,290,0
300,307,302,294,0
305,312,303,299,0
311,316,304,305,0
317,316,305,308,0
322,314,306,309,0
324,310,307,309,0
318,309,308,310,0
307,314,310,310,0
299,319,311,311,0
296,318,312,312,0
297,314,314,312,0
298,308,314,312,0
298,303,314,312,0
296,304,313,312,0
292,306,312,315,0
290,303,311,318,0
290,292,311,322,0
291,281,310,324,0
293,279,309,326,0
297,286,309,327,0
301,298,308,327,0
304,309,308,326,0
306,315,307,325,0
307,316,308,324,0
306,315,308,323,0
305,320,309,324,0
304,327,310,326,0
306,334,310,326,0
308,340,310,323,0
307,341,309,318,0
305,340,307,310,0
304,340,306,302,0
303,336,304,294,0
304,328,303,286,0
304,317,302,279,0
303,304,303,272,0
299,291,304,268,0
293,280,304,266,0
289,271,304,268,0
288,262,305,275,0
293,253,307,283,0
301,248,308,292,0
308,250,308,301,0
309,258,307,308,0
308,271,307,313,0
309,284,308,315,0
309,294,309,314,0
308,300,310,312,0
307,303,311,311,0
305,307,313,310,0
303,313,314,310,0
302,321,315,311,0
300,330,314,312,0
299,337,312,313,0
298,341,309,316,0
298,343,307,318,0
297,345,304,318,0
297,346,303,317,0
298,349,302,317,0
300,352,301,316,0
302,346,301,316,0
306,329,300,317,0
311,306,300,318,0
313,287,301,319,0
312,276,301,318,0
309,278,302,316,0
306,290,304,313,0
305,306,306,310,0
305,319,307,307,0
305,327,307,304,0
305,324,308,303,0
305,311,308,302,0
304,295,309,303,0
304,282,310,304,0
305,275,310,304,0
305,272,310,305,0
306,280,310,306,0
308,296,310,307,0
311,314,309,309,0
316,325,308,309,0
320,331,307,308,0
324,331,307,307,0
323,329,308,305,0
316,324,310,304,0
309,319,312,304,0
304,316,314,306,0
302,314,315,307,0
302,313,314,309,0
304,313,313,310,0
304,310,310,311,0
304,302,308,311,0
302,293,308,309,0
301,289,308,306,0
298,286,307,301,0
293,279,305,296,0
287,272,303,292,0
285,269,302,289,0
286,267,302,287,0
291,265,303,287,0
296,267,303,288,0
300,279,304,292,0
304,295,305,299,0
309,308,308,311,0
315,314,312,322,0
320,314,314,330,0
322,313,315,333,0
322,312,314,331,0
319,312,314,327,0
315,312,314,321,0
312,309,314,315,0
308,302,313,308,0
302,291,312,303,0
294,282,311,298,0
286,280,310,294,0
279,285,308,290,0
276,295,307,289,0
277,303,307,290,0
282,302,307,293,0
293,301,308,297,0
305,307,309,302,0
314,313,310,306,0
320,316,310,308,0
322,315,311,310,0
323,316,311,309,0
322,320,310,307,0
319,325,309,304,0
315,331,308,302,0
311,337,308,301,0
309,341,307,301,0
307,342,307,302,0
306,342,306,302,0
305,333,305,302,0
304,320,304,301,0
303,303,303,298,0
303,283,302,295,0
302,264,302,291,0
299,248,301,287,0
296,243,300,284,0
294,251,300,283,0
294,268,300,287,0
298,289,303,297,0
304,309,307,308,0
310,324,311,319,0
314,335,314,330,0
316,341,316,340,0
315,342,318,347,0
312,339,319,350,0
309,333,318,349,0
307,327,317,346,0
308,322,315,342,0
308,322,314,336,0
309,323,312,330,0
309,327,310,323,0
309,330,308,317,0
308,330,307,310,0
308,331,305,304,0
308,331,304,298,0
306,326,303,294,0
303,317,302,291,0
303,304,303,291,0
306,286,305,292,0
312,268,307,294,0
317,256,309,295,0
312,245,310,293,0
302,234,309,291,0
294,228,309,289,0
291,233,309,289,0
293,252,310,291,0
297,274,310,292,0
302,291,310,291,0
306,305,308,291,0
308,317,307,291,0
307,327,306,292,0
305,334,306,295,0
303,337,307,300,0
300,333,308,305,0
298,325,308,310,0
299,316,309,312,0
300,308,309,313,0
301,302,309,312,0
302,296,308,310,0
304,290,307,307,0
304,286,306,304,0
305,285,306,302,0
307,290,307,301,0
309,298,307,301,0
311,308,307,300,0
312,315,307,298,0
314,318,307,295,0
316,321,308,293,0
318,321,309,292,0
318,316,309,292,0
313,305,309,293,0
304,297,310,294,0
297,295,311,297,0
293,297,311,300,0
296,297,310,302,0
301,295,307,303,0
304,296,305,304,0
305,300,304,304,0
304,302,303,306,0
304,305,302,311,0
303,309,302,318,0
303,316,304,325,0
301,322,306,330,0
299,327,308,332,0
296,332,310,330,0
293,332,311,328,0
294,320,311,326,0
296,302,309,326,0
298,290,307,328,0
300,287,306,330,0
304,288,306,328,0
308,293,306,323,0
310,298,304,316,0
309,298,303,309,0
304,296,301,302,0
295,291,300,297,0
289,287,298,291,0
285,288,297,286,0
285,293,296,282,0
291,303,296,282,0
298,313,297,286,0
304,319,298,291,0
308,319,301,297,0
311,316,304,302,0
315,312,306,306,0
316,309,306,307,0
314,306,304,307,0
311,301,303,306,0
308,298,303,308,0
306,303,303,312,0
306,311,304,316,0
307,315,304,316,0
307,317,304,314,0
307,314,303,310,0
305,308,303,306,0
304,299,302,304,0
303,290,301,301,0
303,284,301,299,0
303,284,302,298,0
305,290,303,297,0
309,298,303,297,0
314,306,303,296,0
319,315,302,294,0
324,323,302,293,0
324,331,301,290,0
316,333,300,288,0
307,331,300,286,0
300,329,301,287,0
297,323,304,289,0
295,317,306,292,0
293,311,307,297,0
291,303,307,303,0
289,295,307,308,0
289,293,306,312,0
289,295,306,313,0
290,298,306,313,0
291,299,305,311,0
292,298,306,308,0
293,295,306,306,0
295,291,307,305,0
298,289,309,306,0
300,290,311,308,0
302,294,313,311,0
303,303,314,315,0
303,314,314,318,0
300,319,313,320,0
298,316,312,323,0
296,310,312,327,0
297,307,313,332,0
300,304,314,335,0
300,302,314,335,0
300,304,312,331,0
304,305,310,325,0
311,304,307,318,0
317,304,304,312,0
320,305,302,307,0
320,309,300,302,0
316,311,299,298,0
312,309,299,295,0
308,302,298,291,0
306,294,298,289,0
306,291,299,288,0
308,291,301,289,0
310,295,302,291,0
311,298,304,294,0
311,300,304,297,0
310,301,305,300,0
306,304,305,303,0
301,310,306,306,0
295,317,306,308,0
288,320,306,311,0
286,319,306,315,0
289,317,307,321,0
297,318,307,327,0
304,319,306,331,0
310,318,303,332,0
314,315,301,331,0
315,311,298,327,0
315,307,296,320,0
315,303,295,312,0
314,300,294,306,0
314,298,293,300,0
313,297,292,295,0
310,297,292,290,0
307,298,292,286,0
305,302,293,284,0
305,307,294,285,0
307,310,297,288,0
309,303,301,294,0
311,288,305,301,0
313,273,308,307,0
314,267,309,310,0
315,272,309,310,0
318,283,308,308,0
319,293,305,304,0
317,298,301,299,0
315,295,297,295,0
313,286,294,293,0
312,273,291,291,0
312,260,288,290,0
306,254,285,288,0
299,260,284,290,0
297,275,286,293,0
300,292,290,299,0
304,308,294,304,0
308,321,297,310,0
311,330,300,314,0
313,337,302,316,0
314,341,303,317,0
312,343,304,318,0
309,345,305,321,0
306,346,307,326,0
302,347,307,334,0
300,346,307,341,0
296,344,307,345,0
294,339,306,346,0
293,332,306,343,0
295,325,306,338,0
297,316,306,333,0
301,307,307,327,0
304,300,308,322,0
307,296,309,319,0
310,296,311,316,0
312,295,312,313,0
311,291,312,310,0
310,293,310,308,0
309,301,309,306,0
310,310,308,305,0
310,310,306,303,0
307,303,305,299,0
304,294,303,295,0
300,290,301,291,0
300,294,300,290,0
300,304,300,290,0
300,314,300,293,0
300,317,301,296,0
300,314,302,300,0
301,306,303,304,0
301,299,303,306,0
302,292,303,306,0
304,284,302,305,0
307,279,300,305,0
312,283,300,306,0
315,293,299,307,0
316,303,298,307,0
316,307,297,307,0
314,310,297,307,0
311,314,298,308,0
309,319,298,309,0
306,320,297,309,0
304,315,297,308,0
303,307,297,308,0
304,297,298,308,0
305,286,299,309,0
307,277,299,309,0
308,271,298,309,0
309,268,298,308,0
311,265,298,309,0
315,271,299,312,0
317,287,300,316,0
315,304,301,319,0
311,319,302,320,0
308,333,304,321,0
305,347,306,323,0
305,358,308,324,0
307,365,310,324,0
310,367,310,323,0
313,363,310,321,0
315,356,309,319,0
318,348,309,317,0
319,340,309,314,0
318,334,308,310,0
314,330,307,306,0
308,326,305,302,0
305,320,302,299,0
304,312,300,296,0
307,297,298,293,0
312,277,298,291,0
318,258,300,291,0
322,246,304,293,0
319,243,307,297,0
312,249,309,303,0
305,264,312,309,0
300,283,313,315,0
296,301,313,320,0
293,312,312,323,0
292,316,311,322,0
296,316,311,319,0
301,313,311,314,0
305,309,310,309,0
309,304,309,305,0
311,299,309,303,0
311,300,309,302,0
311,310,308,303,0
309,324,307,303,0
307,336,306,301,0
306,344,304,300,0
305,350,304,299,0
306,353,305,301,0
308,347,306,303,0
309,334,308,307,0
310,320,310,311,0
311,309,312,315,0
311,304,314,319,0
310,301,316,320,0
309,298,317,318,0
306,293,316,313,0
304,290,313,306,0
300,290,310,299,0
300,293,307,292,0
302,299,304,287,0
307,303,303,284,0
312,303,302,285,0
317,305,303,290,0
320,308,304,294,0
323,312,304,300,0
322,316,305,304,0
320,320,306,308,0
318,320,306,310,0
316,315,306,310,0
314,305,306,311,0
311,297,306,311,0
309,291,307,313,0
307,289,308,315,0
305,293,309,319,0
304,300,309,322,0
303,306,309,324,0
301,308,309,325,0
301,308,308,325,0
300,308,309,325,0
301,308,309,326,0
302,308,309,325,0
303,310,308,324,0
305,311,307,321,0
306,313,306,318,0
306,315,304,315,0
306,316,304,314,0
306,315,303,315,0
306,312,304,317,0
307,308,306,321,0
307,303,308,325,0
308,298,310,329,0
308,292,312,331,0
308,283,312,327,0
306,273,312,321,0
302,266,310,314,0
298,266,307,306,0
293,268,304,298,0
290,276,301,291,0
290,295,298,287,0
293,316,297,286,0
296,328,297,287,0
299,330,298,288,0
302,327,300,289,0
305,325,301,291,0
307,323,302,293,0
311,320,303,296,0
315,317,306,299,0
319,316,308,302,0
321,317,311,306,0
317,318,313,310,0
311,316,316,315,0
307,310,318,319,0
304,303,320,320,0
302,295,319,319,0
301,287,317,316,0
301,282,314,313,0
302,281,311,310,0
302,284,309,307,0
303,289,307,303,0
304,295,306,300,0
305,299,306,297,0
306,302,306,294,0
307,307,307,293,0
306,311,307,292,0
305,313,309,292,0
304,311,311,290,0
304,307,312,290,0
305,299,314,291,0
308,290,315,293,0
312,282,314,294,0
314,274,312,295,0
313,270,310,298,0
310,276,310,302,0
309,290,311,310,0
309,304,313,319,0
312,318,315,328,0
314,327,316,335,0
314,331,315,340,0
310,332,312,341,0
305,331,309,340,0
301,331,306,336,0
298,333,305,328,0
295,333,304,319,0
292,330,302,311,0
288,324,301,304,0
286,317,301,300,0
289,310,302,298,0
296,304,303,298,0
301,302,303,300,0
305,306,303,303,0
307,313,304,306,0
308,319,305,310,0
307,319,307,314,0
306,311,307,315,0
304,298,308,315,0
301,288,307,310,0
298,284,305,304,0
295,285,303,297,0
291,293,302,293,0
289,303,301,290,0
290,312,301,291,0
294,315,303,297,0
298,312,305,303,0
300,309,305,308,0
298,304,304,311,0
295,295,303,311,0
293,284,302,309,0
293,276,302,306,0
297,270,302,304,0
301,264,303,302,0
305,264,304,302,0
308,276,305,302,0
310,296,305,302,0
311,317,305,301,0
312,334,305,300,0
312,346,305,300,0
314,353,306,301,0
315,352,306,302,0
315,346,305,302,0
314,341,304,303,0
311,337,303,303,0
308,336,302,305,0
306,333,302,308,0
306,325,302,310,0
305,311,302,311,0
306,292,301,311,0
306,271,301,312,0
307,257,301,310,0
308,256,300,307,0
307,269,301,303,0
307,293,302,299,0
308,320,303,296,0
311,337,304,295,0
314,343,304,296,0
317,338,304,299,0
321,327,304,302,0
323,312,304,305,0
320,302,305,307,0
312,296,307,309,0
304,293,309,309,0
301,290,311,311,0
302,289,312,312,0
306,293,313,314,0
309,302,313,317,0
309,311,312,320,0
306,316,311,322,0
302,317,309,325,0
299,317,308,328,0
298,318,306,329,0
298,321,305,329,0
300,329,305,327,0
302,336,307,325,0
304,341,310,325,0
306,339,312,325,0
307,330,314,325,0
307,317,315,325,0
307,306,315,325,0
308,297,315,325,0
309,288,315,324,0
310,284,314,322,0
310,283,312,317,0
307,284,309,310,0
305,290,307,302,0
304,299,305,295,0
302,304,302,288,0
300,301,301,281,0
299,291,301,276,0
298,280,302,274,0
299,268,303,272,0
302,258,305,273,0
306,251,308,275,0
311,248,311,280,0
313,254,313,285,0
313,266,312,290,0
311,283,309,298,0
306,299,306,307,0
299,313,303,315,0
290,325,301,319,0
284,334,300,320,0
284,340,301,320,0
288,344,302,318,0
294,345,302,315,0
298,345,301,312,0
300,345,301,308,0
300,342,300,304,0
298,335,298,300,0
296,323,297,298,0
295,309,297,299,0
295,298,298,302,0
300,295,301,306,0
307,296,304,311,0
314,296,306,313,0
317,297,307,314,0
318,302,307,314,0
317,307,306,314,0
315,310,306,314,0
314,311,305,313,0
312,311,304,310,0
310,310,303,307,0
309,308,302,305,0
309,306,301,303,0
308,304,301,304,0
307,303,300,306,0
306,301,300,308,0
304,299,299,310,0
303,295,298,312,0
302,289,298,314,0
300,286,298,317,0
301,289,301,320,0
306,298,305,324,0
317,308,309,327,0
330,315,312,328,0
338,316,313,327,0
339,313,313,324,0
334,306,311,320,0
325,295,310,315,0
313,287,308,310,0
303,289,307,309,0
297,298,306,309,0
294,308,305,312,0
292,313,306,313,0
291,313,306,315,0
290,312,306,316,0
290,311,306,316,0
291,312,306,316,0
293,313,306,314,0
297,314,305,313,0
300,317,306,312,0
304,318,306,313,0
306,315,306,314,0
308,311,307,313,0
309,307,308,310,0
308,304,309,307,0
307,301,309,302,0
306,299,309,296,0
305,299,309,291,0
304,300,308,287,0
303,300,307,283,0
302,299,306,281,0
302,295,305,279,0
301,291,305,279,0
301,293,306,280,0
302,304,308,284,0
303,322,311,289,0
304,339,312,294,0
303,348,311,297,0
302,346,309,302,0
300,337,309,306,0
298,330,308,311,0
295,326,308,315,0
293,324,307,318,0
293,320,307,320,0
295,316,308,321,0
299,314,308,322,0
301,311,308,320,0
303,308,307,318,0
304,308,305,315,0
304,310,304,313,0
303,314,303,311,0
302,319,303,310,0
301,323,303,309,0
302,318,303,308,0
303,306,304,308,0
306,296,303,306,0
309,291,302,302,0
313,291,300,297,0
316,293,299,293,0
319,295,299,291,0
320,296,299,292,0
320,294,299,295,0
318,290,301,303,0
317,286,302,312,0
315,283,304,320,0
313,284,306,327,0
310,287,308,331,0
306,290,309,332,0
303,292,309,329,0
300,287,308,323,0
297,277,305,317,0
294,269,303,313,0
294,274,303,311,0
294,291,304,311,0
293,307,305,310,0
292,311,305,309,0
291,310,305,306,0
294,309,305,304,0
303,308,306,302,0
313,309,306,300,0
318,311,305,297,0
320,317,305,293,0
320,328,305,292,0
319,337,306,292,0
319,341,307,293,0
320,338,307,294,0
321,330,306,295,0
322,320,306,296,0
319,311,306,297,0
313,304,307,297,0
307,301,307,299,0
304,299,308,300,0
303,298,309,303,0
302,298,309,305,0
303,300,310,308,0
303,305,310,311,0
302,314,310,312,0
300,325,310,313,0
298,334,310,311,0
296,338,310,308,0
292,335,310,305,0
290,331,310,305,0
290,330,312,307,0
294,326,316,311,0
299,316,319,315,0
304,310,322,319,0
307,309,323,320,0
309,309,322,320,0
310,309,318,319,0
310,306,314,318,0
309,300,311,317,0
308,293,309,318,0
308,285,307,317,0
306,280,306,313,0
304,281,305,308,0
303,287,305,303,0
300,291,305,298,0
298,292,305,295,0
297,286,305,293,0
299,278,306,293,0
304,273,306,294,0
310,272,308,295,0
313,277,309,298,0
312,284,311,300,0
308,291,314,303,0
304,297,315,305,0
301,301,316,306,0
299,306,316,305,0
298,312,314,306,0
299,314,313,306,0
300,310,310,306,0
300,302,309,305,0
301,294,307,305,0
301,292,306,303,0
301,297,306,302,0
301,305,304,299,0
300,310,303,297,0
300,310,302,296,0
299,306,302,296,0
299,301,302,297,0
299,298,302,299,0
299,297,303,300,0
301,297,304,301,0
304,296,305,301,0
307,297,305,302,0
308,301,305,304,0
308,309,305,306,0
305,319,305,308,0
302,329,304,310,0
300,337,303,311,0
300,342,303,312,0
302,341,303,312,0
304,335,303,312,0
305,325,302,314,0
304,314,302,320,0
304,308,303,327,0
303,308,304,333,0
302,315,305,336,0
301,325,306,337,0
301,334,307,335,0
303,338,307,331,0
304,335,308,324,0
306,320,308,316,0
307,297,309,308,0
309,275,311,302,0
310,258,312,298,0
309,250,312,296,0
309,251,311,295,0
308,257,309,294,0
308,265,307,293,0
309,277,307,294,0
313,290,307,295,0
316,298,307,296,0
311,303,307,297,0
304,308,306,298,0
300,312,304,299,0
298,314,303,300,0
297,313,302,301,0
295,311,301,302,0
294,308,301,303,0
292,305,301,304,0
291,303,303,306,0
292,302,306,309,0
296,302,308,312,0
300,302,310,315,0
302,301,310,315,0
303,302,309,314,0
302,304,308,310,0
298,308,307,303,0
293,316,306,296,0
289,323,305,292,0
286,322,305,290,0
284,312,306,291,0
285,302,308,295,0
292,298,310,298,0
299,301,310,301,0
305,312,308,302,0
309,325,307,302,0
313,331,306,303,0
316,327,306,305,0
316,317,307,308,0
315,308,308,309,0
313,304,309,309,0
311,306,309,306,0
309,309,307,304,0
308,309,305,301,0
306,308,302,300,0
305,309,300,301,0
304,311,299,303,0
304,314,300,303,0
304,314,300,302,0
303,309,299,299,0
304,303,299,297,0
304,298,300,294,0
304,296,299,293,0
305,298,299,292,0
305,301,299,293,0
305,306,298,295,0
305,313,298,298,0
304,320,299,301,0
303,320,300,305,0
303,310,302,310,0
304,292,305,314,0
307,272,308,320,0
311,261,311,327,0
313,262,312,333,0
312,269,313,336,0
312,283,313,337,0
312,301,313,337,0
313,316,315,337,0
313,324,316,336,0
310,328,317,333,0
304,328,317,328,0
298,325,316,321,0
293,319,314,312,0
289,309,310,301,0
288,299,306,289,0
288,290,303,281,0
292,284,300,276,0
298,281,298,275,0
306,279,297,277,0
313,280,297,281,0
314,286,298,287,0
311,294,299,292,0
307,302,301,296,0
305,306,304,299,0
304,309,305,300,0
304,309,307,301,0
304,309,309,302,0
305,311,310,302,0
304,317,311,302,0
303,323,310,301,0
301,326,310,301,0
300,330,310,301,0
300,335,310,302,0
299,341,310,304,0
299,343,309,306,0
301,340,309,308,0
303,334,308,309,0
305,329,308,312,0
309,328,309,313,0
312,329,309,315,0
311,329,309,315,0
307,331,308,315,0
303,335,308,316,0
303,329,308,317,0
304,319,307,316,0
306,316,308,315,0
307,320,309,315,0
309,320,310,313,0
309,311,310,312,0
309,300,310,310,0
307,293,310,309,0
303,291,309,307,0
299,293,309,307,0
295,295,308,305,0
293,293,308,303,0
294,287,309,302,0
299,278,309,302,0
307,271,309,302,0
312,271,309,303,0
315,278,309,306,0
316,284,310,312,0
317,287,311,318,0
315,290,311,324,0
314,296,311,330,0
312,305,312,335,0
309,314,313,337,0
306,320,314,337,0
303,321,314,334,0
299,314,313,330,0
296,300,313,329,0
295,281,312,328,0
293,266,311,323,0
293,260,308,315,0
294,265,305,306,0
297,277,304,299,0
302,290,303,294,0
304,301,302,289,0
305,312,302,286,0
306,322,301,285,0
309,331,302,286,0
314,335,303,287,0
317,336,304,288,0
318,335,304,290,0
318,332,304,292,0
317,329,304,295,0
314,326,304,297,0
310,323,303,300,0
305,319,304,302,0
302,318,305,303,0
300,325,306,302,0
300,334,307,299,0
303,342,307,295,0
306,342,308,293,0
307,335,307,290,0
306,325,306,289,0
304,313,304,289,0
300,302,303,289,0
299,297,303,292,0
300,300,304,297,0
304,305,306,302,0
309,307,308,306,0
312,307,309,309,0
314,302,310,311,0
315,293,310,312,0
315,285,310,312,0
315,279,310,311,0
314,273,309,311,0
314,269,307,311,0
314,269,306,313,0
313,275,305,315,0
310,290,307,318,0
307,310,310,321,0
303,325,311,322,0
301,331,312,321,0
300,329,311,315,0
301,324,310,309,0
306,320,310,306,0
312,312,310,307,0
313,302,310,311,0
311,293,310,319,0
307,289,311,328,0
304,288,312,336,0
302,287,313,341,0
299,286,314,344,0
298,284,313,342,0
296,282,311,336,0
296,285,308,327,0
296,293,306,319,0
297,307,304,311,0
299,321,302,305,0
299,333,302,301,0
300,340,302,300,0
301,342,302,300,0
302,337,301,303,0
301,328,300,307,0
300,318,300,311,0
298,306,300,314,0
298,293,302,314,0
302,280,303,309,0
304,272,305,302,0
304,267,306,293,0
300,265,305,285,0
297,269,304,280,0
295,281,303,278,0
298,304,303,279,0
304,331,303,283,0
307,350,302,291,0
307,351,302,300,0
304,336,302,307,0
