302,312,302,312,1
303,312,303,313,1
301,311,304,313,1
296,310,304,312,1
290,310,304,309,1
284,309,304,307,1
281,308,304,306,1
283,307,305,306,1
288,306,307,307,1
293,306,308,308,1
297,306,309,309,1
303,307,309,310,1
312,309,309,311,1
319,310,309,311,1
321,311,309,309,1
319,312,308,307,1
314,312,307,306,1
310,313,307,306,1
309,313,308,308,1
312,313,310,312,1
314,313,311,316,1
314,313,312,320,1
314,312,312,322,1
313,311,312,323,1
312,310,311,323,1
311,307,310,321,1
309,306,309,318,1
308,304,309,315,1
308,304,309,311,1
307,303,309,309,1
308,303,310,307,1
310,304,311,304,1
311,305,311,303,1
311,306,310,301,1
311,307,308,300,1
310,307,306,298,1
309,308,304,298,1
308,309,303,298,1
306,309,303,298,1
305,309,302,299,1
304,309,302,299,1
303,310,303,301,1
304,309,304,305,1
308,309,306,309,1
311,309,307,314,1
313,308,307,318,1
314,307,307,320,1
314,306,306,323,1
314,306,305,324,1
315,307,304,327,1
316,308,304,331,1
317,310,304,336,1
316,312,306,337,1
314,312,307,334,1
309,311,307,326,1
303,311,306,319,1
298,310,304,312,1
295,311,303,306,1
296,311,303,301,1
300,310,304,297,1
305,310,304,295,1
308,310,304,294,1
310,310,304,294,1
311,309,304,294,1
310,307,303,293,1
308,305,304,292,1
306,304,304,293,1
304,302,305,296,1
302,302,306,298,1
301,302,307,300,1
301,304,308,302,1
301,305,310,302,1
300,307,310,302,1
300,309,310,303,1
301,311,308,303,1
304,311,307,303,1
307,311,306,304,1
310,310,306,304,1
310,308,306,304,1
309,307,306,303,1
306,306,305,304,1
301,304,305,304,1
295,304,304,303,1
290,303,304,301,1
288,302,302,298,1
292,302,302,296,1
300,302,302,296,1
307,302,303,296,1
312,302,303,296,1
313,302,303,296,1
313,302,302,297,1
313,301,302,298,1
313,300,302,298,1
313,298,302,299,1
312,294,302,300,1
310,290,303,301,1
309,286,304,301,1
306,282,306,300,1
301,279,306,299,1
295,275,306,299,1
291,271,306,300,1
292,269,307,303,1
296,271,308,306,1
302,275,308,310,1
306,282,308,313,1
310,293,307,315,1
313,304,306,317,1
315,313,305,316,1
316,321,305,317,1
318,327,306,318,1
319,331,307,320,1
318,332,308,323,1
316,332,309,326,1
313,332,310,328,1
310,330,310,327,1
308,328,310,322,1
304,327,308,315,1
300,325,306,308,1
297,324,305,302,1
296,323,303,297,1
296,321,302,294,1
297,319,301,293,1
299,315,301,295,1
301,310,301,300,1
304,306,301,308,1
307,300,302,316,1
309,296,303,322,1
310,293,304,327,1
311,293,306,329,1
311,298,307,327,1
311,306,309,323,1
313,313,310,319,1
314,318,311,315,1
314,322,311,314,1
312,324,310,316,1
309,325,307,319,1
306,325,305,320,1
303,324,304,319,1
301,321,303,317,1
299,318,302,311,1
296,315,302,304,1
293,313,301,295,1
292,310,299,288,1
292,308,298,282,1
293,305,297,280,1
294,304,299,280,1
296,302,302,283,1
299,302,303,286,1
300,302,305,290,1
300,304,306,293,1
298,306,307,296,1
296,308,306,297,1
293,310,306,297,1
292,311,306,296,1
292,312,305,296,1
295,312,304,297,1
298,313,304,298,1
301,314,305,298,1
302,313,306,296,1
301,313,306,296,1
301,312,306,297,1
304,311,306,300,1
308,309,306,303,1
312,308,307,306,1
315,306,308,308,1
317,305,308,309,1
317,304,309,308,1
317,302,309,305,1
316,301,309,303,1
315,300,308,301,1
314,301,309,301,1
313,303,309,301,1
313,306,308,302,1
312,308,307,301,1
310,310,305,300,1
305,311,304,299,1
300,312,302,300,1
295,313,301,301,1
294,313,302,301,1
298,312,303,300,1
301,311,304,299,1
303,309,305,297,1
304,307,306,297,1
306,306,307,300,1
307,304,307,306,1
308,303,308,314,1
308,303,310,324,1
309,303,311,334,1
311,303,312,342,1
313,304,313,348,1
313,305,314,350,1
313,307,314,349,1
312,308,314,345,1
311,310,314,338,1
309,310,313,329,1
307,310,312,319,1
306,310,310,311,1
305,311,310,304,1
304,310,308,298,1
302,310,307,295,1
299,310,307,293,1
296,309,306,293,1
293,307,306,292,1
292,305,307,290,1
294,302,307,287,1
297,300,308,284,1
300,300,309,285,1
304,300,311,290,1
306,301,312,296,1
308,303,313,303,1
308,305,313,308,1
308,306,313,310,1
308,308,313,310,1
309,309,312,309,1
313,310,312,308,1
317,311,311,307,1
319,312,310,307,1
318,312,310,307,1
314,313,309,305,1
310,312,307,301,1
305,310,305,297,1
302,308,303,291,1
298,306,302,287,1
296,303,301,283,1
298,301,300,282,1
302,300,300,284,1
307,300,301,288,1
310,300,302,292,1
311,301,305,297,1
311,302,308,300,1
312,304,310,303,1
312,307,312,304,1
312,310,313,302,1
311,312,313,300,1
310,313,313,298,1
310,313,312,298,1
309,312,311,299,1
308,311,309,300,1
307,309,309,302,1
305,308,308,303,1
302,308,308,304,1
301,309,307,304,1
302,309,306,302,1
304,309,304,301,1
307,307,303,300,1
309,305,303,300,1
310,303,303,300,1
312,301,303,302,1
314,300,303,306,1
315,301,304,309,1
314,302,304,312,1
310,304,304,312,1
306,306,305,312,1
304,309,305,312,1
303,311,306,310,1
301,311,307,308,1
299,312,308,305,1
297,312,308,303,1
294,312,308,302,1
292,311,308,300,1
290,310,308,298,1
289,308,307,298,1
290,307,306,298,1
295,306,306,301,1
299,303,306,303,1
302,301,306,306,1
303,298,306,309,1
306,297,306,311,1
307,296,304,312,1
306,296,304,313,1
305,297,305,312,1
305,299,306,310,1
307,301,305,308,1
310,303,305,304,1
313,304,303,301,1
314,305,302,299,1
312,306,302,300,1
311,308,303,300,1
308,308,303,301,1
305,308,303,300,1
300,308,303,300,1
295,307,303,299,1
292,305,302,298,1
290,303,302,298,1
293,302,302,298,1
298,300,303,299,1
305,300,304,301,1
313,300,306,304,1
320,300,308,309,1
324,300,310,315,1
323,302,311,322,1
319,303,312,329,1
312,305,312,334,1
306,307,311,336,1
306,308,310,335,1
312,309,309,332,1
317,311,308,327,1
320,312,306,321,1
317,312,304,315,1
311,311,302,310,1
304,309,300,305,1
299,307,299,300,1
296,306,299,295,1
294,304,298,290,1
295,303,295,286,1
298,303,293,284,1
304,303,293,286,1
313,303,295,294,1
320,305,300,305,1
323,307,305,317,1
322,310,309,326,1
318,312,311,332,1
315,314,312,334,1
312,315,313,331,1
311,317,313,325,1
310,317,314,318,1
310,318,315,313,1
309,318,316,310,1
307,317,316,308,1
306,315,316,306,1
305,314,316,303,1
303,312,314,298,1
300,310,312,292,1
298,308,310,286,1
296,305,307,281,1
296,304,305,278,1
297,303,303,278,1
297,303,302,279,1
295,303,301,282,1
297,303,301,286,1
303,303,302,291,1
309,304,305,295,1
312,305,307,298,1
313,307,309,300,1
311,308,310,299,1
310,309,310,298,1
308,311,310,296,1
305,312,309,293,1
304,313,308,289,1
303,312,307,287,1
304,310,307,286,1
307,309,306,286,1
310,307,305,286,1
313,305,304,288,1
315,303,303,291,1
315,302,302,295,1
314,301,302,299,1
313,301,303,303,1
311,300,305,306,1
310,301,307,309,1
308,301,308,310,1
306,302,308,311,1
304,303,308,312,1
301,304,308,313,1
298,306,308,313,1
297,307,308,315,1
297,309,309,315,1
299,311,310,314,1
303,312,309,311,1
308,313,307,308,1
312,313,306,306,1
314,312,304,303,1
315,311,303,301,1
314,309,303,299,1
314,308,304,298,1
315,306,306,297,1
314,305,307,296,1
311,305,308,294,1
307,304,309,293,1
306,304,309,293,1
307,304,310,294,1
309,304,311,296,1
309,305,312,298,1
308,307,311,301,1
307,308,311,304,1
306,310,310,307,1
305,312,310,310,1
307,313,310,313,1
310,313,312,315,1
314,313,312,315,1
318,312,312,313,1
320,310,312,311,1
318,308,310,312,1
313,306,310,314,1
307,304,309,318,1
303,302,308,323,1
303,301,308,327,1
307,300,308,330,1
312,299,308,331,1
315,299,310,331,1
316,300,311,329,1
316,301,312,327,1
315,303,312,323,1
313,303,312,318,1
311,304,312,311,1
309,304,311,302,1
307,304,309,295,1
306,303,308,290,1
306,303,308,289,1
306,303,307,291,1
306,303,307,295,1
306,304,307,302,1
307,303,307,308,1
308,303,307,314,1
309,303,306,319,1
309,302,306,322,1
309,301,306,324,1
308,301,305,322,1
307,300,305,319,1
305,301,306,314,1
303,301,307,309,1
301,300,308,303,1
300,301,308,299,1
302,302,308,296,1
307,303,308,298,1
312,304,308,302,1
315,305,308,307,1
316,306,308,309,1
315,307,307,310,1
313,308,307,308,1
310,307,306,304,1
308,306,306,300,1
307,304,305,295,1
305,302,304,292,1
305,299,303,290,1
304,297,303,290,1
304,295,303,291,1
305,294,304,293,1
306,294,305,296,1
307,294,307,299,1
308,296,309,303,1
309,298,310,307,1
310,302,312,311,1
310,304,313,315,1
309,306,313,320,1
308,308,314,326,1
306,309,314,330,1
304,309,314,332,1
303,309,313,333,1
303,308,312,331,1
303,307,311,328,1
303,306,309,321,1
303,304,308,314,1
304,303,306,307,1
306,302,305,302,1
308,301,304,298,1
310,300,304,296,1
311,301,304,294,1
313,301,305,294,1
314,302,306,293,1
314,303,307,293,1
313,305,309,294,1
310,306,310,297,1
307,307,310,302,1
305,308,309,308,1
303,309,309,313,1
303,308,308,317,1
302,308,308,318,1
303,307,307,319,1
305,308,308,318,1
309,310,308,318,1
314,312,309,316,1
318,312,308,314,1
318,310,306,311,1
314,308,304,308,1
307,305,303,304,1
300,303,303,302,1
292,302,304,301,1
287,301,305,303,1
291,301,308,306,1
299,302,310,310,1
309,302,313,314,1
316,302,315,315,1
319,301,315,313,1
319,298,314,310,1
317,296,312,307,1
314,292,309,304,1
312,289,307,302,1
310,287,307,302,1
307,286,306,303,1
304,286,306,304,1
302,286,306,303,1
301,288,305,302,1
300,294,304,299,1
301,300,303,296,1
302,305,302,292,1
305,309,303,289,1
310,310,304,288,1
315,311,306,290,1
318,312,308,292,1
319,314,309,295,1
320,316,310,298,1
319,317,311,299,1
317,318,311,300,1
315,318,311,301,1
312,317,310,303,1
310,317,308,305,1
307,315,307,307,1
305,314,307,310,1
302,313,308,313,1
301,312,308,315,1
301,310,309,314,1
302,308,309,313,1
304,305,308,310,1
306,303,306,305,1
308,300,306,301,1
309,298,306,299,1
311,297,306,299,1
312,297,307,300,1
312,298,307,302,1
312,300,308,305,1
311,302,309,307,1
310,305,310,308,1
309,308,311,308,1
309,310,311,310,1
309,311,311,313,1
309,312,311,318,1
310,313,311,321,1
310,313,309,324,1
309,312,305,327,1
308,310,302,330,1
306,306,302,332,1
304,302,303,332,1
302,299,303,330,1
300,296,302,328,1
299,294,299,324,1
299,293,296,321,1
301,293,297,318,1
304,293,300,314,1
308,294,303,310,1
311,295,306,307,1
311,297,308,304,1
309,299,309,302,1
305,300,309,300,1
302,301,308,298,1
301,302,307,297,1
307,303,306,296,1
317,304,305,295,1
329,305,303,295,1
335,306,302,295,1
335,306,302,297,1
331,306,302,299,1
325,306,303,303,1
318,305,304,306,1
311,306,306,310,1
305,307,307,313,1
301,309,308,314,1
299,310,309,315,1
297,310,310,314,1
296,310,311,314,1
299,310,311,315,1
303,309,312,315,1
305,309,311,312,1
304,308,310,309,1
302,308,309,306,1
300,307,308,304,1
300,306,307,302,1
304,306,305,301,1
311,305,304,301,1
319,304,304,301,1
325,304,305,301,1
327,302,305,302,1
327,301,305,301,1
325,300,304,302,1
322,299,304,303,1
319,298,304,305,1
316,298,305,309,1
314,298,305,314,1
313,299,306,317,1
312,301,305,319,1
313,304,304,321,1
314,306,305,322,1
314,308,306,323,1
314,308,308,323,1
313,307,309,324,1
313,307,311,326,1
312,307,312,329,1
310,308,312,331,1
307,310,312,332,1
304,312,311,331,1
301,313,309,327,1
299,313,306,320,1
297,312,303,311,1
297,310,300,302,1
297,307,298,296,1
298,304,298,293,1
299,301,298,290,1
301,299,299,289,1
303,299,301,289,1
306,299,303,290,1
310,302,306,293,1
313,305,308,296,1
315,307,310,298,1
316,309,310,300,1
317,310,309,301,1
316,311,307,300,1
314,310,306,298,1
310,309,306,298,1
305,308,305,298,1
299,307,305,299,1
295,306,305,298,1
293,304,304,297,1
296,302,304,294,1
301,300,304,291,1
308,298,303,288,1
313,297,303,288,1
317,297,304,291,1
319,298,306,294,1
320,301,309,298,1
320,303,312,304,1
319,307,315,309,1
315,310,316,315,1
311,313,317,319,1
306,315,317,324,1
303,316,316,327,1
305,316,315,329,1
310,316,314,331,1
316,315,313,331,1
320,313,312,329,1
325,310,310,327,1
329,308,309,324,1
332,306,308,318,1
333,303,307,311,1
332,300,306,302,1
327,297,305,295,1
320,294,304,291,1
312,293,302,290,1
309,292,301,292,1
309,293,301,296,1
309,295,303,300,1
307,298,305,304,1
305,301,308,305,1
304,303,309,305,1
304,305,310,302,1
303,306,309,299,1
302,307,307,296,1
301,307,306,294,1
303,307,305,291,1
305,307,305,290,1
309,307,304,288,1
312,306,303,287,1
313,306,303,288,1
314,305,302,289,1
314,304,301,291,1
314,303,301,293,1
315,302,302,296,1
316,301,303,300,1
317,301,305,304,1
317,301,306,306,1
317,302,307,307,1
316,303,308,305,1
315,304,307,305,1
313,306,306,306,1
312,307,305,310,1
310,309,306,315,1
308,310,307,321,1
308,311,309,327,1
308,313,311,330,1
310,314,312,331,1
312,315,312,330,1
312,314,312,330,1
309,312,312,328,1
305,309,311,327,1
301,307,310,324,1
297,304,309,322,1
294,301,308,318,1
295,299,308,315,1
298,297,308,312,1
303,296,308,309,1
308,295,308,306,1
312,294,309,304,1
315,294,309,301,1
316,295,309,300,1
317,298,308,298,1
319,300,306,298,1
320,304,304,297,1
319,306,303,296,1
319,308,303,297,1
319,309,304,298,1
320,310,304,299,1
321,310,305,300,1
323,311,306,299,1
324,311,307,299,1
324,310,308,301,1
324,309,308,303,1
323,307,309,307,1
321,306,309,312,1
320,304,309,316,1
319,302,309,318,1
319,302,311,320,1
319,303,311,319,1
317,304,311,316,1
314,306,310,309,1
311,307,308,304,1
309,308,307,300,1
312,309,307,298,1
318,310,308,296,1
323,310,307,295,1
324,309,308,293,1
322,308,308,291,1
320,308,310,288,1
318,308,310,287,1
317,309,310,286,1
316,311,309,286,1
315,311,307,288,1
313,311,305,292,1
310,309,304,297,1
307,306,305,303,1
303,302,307,310,1
301,299,309,316,1
301,298,310,323,1
302,298,311,326,1
303,299,311,324,1
305,300,312,318,1
310,301,312,309,1
316,302,312,300,1
320,302,311,294,1
322,303,310,290,1
324,302,309,288,1
327,302,308,288,1
328,301,307,289,1
328,301,307,290,1
324,300,307,293,1
319,300,307,298,1
315,300,308,301,1
312,300,309,303,1
311,299,309,304,1
310,299,310,305,1
309,299,309,305,1
308,300,307,306,1
307,301,307,308,1
310,303,308,311,1
312,305,310,314,1
315,306,311,315,1
316,306,311,313,1
316,306,311,310,1
314,306,310,308,1
312,306,309,303,1
309,306,307,298,1
307,306,307,294,1
306,306,305,290,1
306,305,301,288,1
306,303,297,286,1
307,300,295,284,1
310,297,295,283,1
313,296,296,284,1
316,294,297,287,1
318,293,297,290,1
319,293,299,293,1
320,293,302,297,1
322,294,305,302,1
325,295,308,307,1
327,297,311,312,1
329,299,312,316,1
329,301,312,318,1
326,303,310,320,1
322,305,308,322,1
317,306,307,322,1
313,307,307,322,1
311,308,307,320,1
308,307,307,318,1
305,306,307,313,1
304,304,307,308,1
306,303,306,303,1
309,300,304,298,1
312,299,302,294,1
315,297,302,291,1
318,296,302,289,1
321,296,301,289,1
324,297,300,289,1
325,298,300,292,1
323,301,303,295,1
320,303,305,298,1
316,305,307,301,1
312,307,308,303,1
309,308,308,306,1
306,309,308,309,1
305,309,308,312,1
304,307,308,314,1
305,306,307,316,1
307,305,307,317,1
310,304,307,316,1
312,303,308,314,1
315,303,309,310,1
317,302,310,308,1
319,302,308,306,1
319,302,307,305,1
317,303,305,303,1
314,304,305,301,1
309,303,305,300,1
306,303,306,300,1
304,303,307,300,1
302,303,308,301,1
297,304,307,302,1
288,303,306,304,1
283,303,306,306,1
285,304,306,306,1
292,304,306,308,1
300,305,305,312,1
308,306,304,319,1
315,306,304,327,1
320,307,305,333,1
323,307,307,335,1
323,307,307,332,1
323,306,307,327,1
322,303,306,321,1
323,301,305,316,1
323,299,305,310,1
323,299,306,305,1
323,299,308,302,1
323,299,310,304,1
323,301,311,309,1
323,302,311,315,1
323,304,312,320,1
324,305,312,322,1
323,306,311,324,1
321,307,311,325,1
319,307,310,327,1
317,308,309,329,1
315,308,309,329,1
313,307,310,329,1
311,307,309,327,1
310,307,308,321,1
309,307,307,312,1
309,307,304,304,1
310,305,301,298,1
313,303,299,296,1
316,302,298,295,1
319,300,298,296,1
320,299,299,296,1
319,299,300,298,1
315,300,301,301,1
308,301,302,303,1
301,303,302,302,1
295,305,303,301,1
291,306,303,298,1
291,307,303,296,1
295,307,302,292,1
299,306,302,290,1
302,305,302,289,1
303,304,301,290,1
304,304,301,291,1
305,303,300,293,1
306,303,301,294,1
307,302,302,295,1
308,301,302,298,1
309,301,302,301,1
311,300,301,304,1
311,300,299,307,1
312,300,296,310,1
313,300,295,312,1
315,301,296,314,1
317,303,299,316,1
319,304,302,317,1
320,306,304,319,1
319,307,304,322,1
317,308,304,326,1
312,310,304,329,1
306,312,303,330,1
301,312,304,329,1
295,312,304,326,1
291,312,305,325,1
287,311,306,322,1
284,309,306,317,1
281,307,304,310,1
282,305,302,303,1
284,302,300,296,1
290,300,299,292,1
297,298,300,291,1
308,299,301,293,1
318,299,303,296,1
323,301,303,301,1
326,304,303,306,1
324,306,303,310,1
318,308,304,312,1
311,310,304,313,1
304,311,305,314,1
301,312,305,317,1
302,314,306,320,1
305,315,306,324,1
309,316,307,327,1
311,316,306,326,1
312,315,305,322,1
312,313,304,318,1
311,310,303,315,1
310,306,303,314,1
308,304,302,314,1
308,301,302,315,1
308,300,303,314,1
308,299,304,312,1
310,301,305,309,1
312,303,305,307,1
312,305,306,305,1
310,306,305,306,1
307,308,304,313,1
304,309,303,324,1
301,309,302,335,1
298,309,301,341,1
294,310,301,341,1
292,309,302,334,1
288,309,302,323,1
287,307,301,312,1
289,306,297,303,1
292,304,294,297,1
297,302,294,297,1
302,302,295,299,1
305,303,297,302,1
309,303,300,304,1
312,303,302,305,1
312,303,303,304,1
311,303,304,302,1
309,304,305,300,1
307,305,305,298,1
305,307,305,296,1
305,309,305,294,1
306,311,306,294,1
306,312,306,294,1
306,312,305,295,1
304,312,304,297,1
303,312,304,301,1
303,312,304,305,1
305,312,304,309,1
307,312,304,314,1
311,312,304,318,1
314,311,305,320,1
315,310,306,321,1
311,307,306,320,1
305,305,307,318,1
297,303,306,315,1
289,301,305,312,1
281,300,304,309,1
273,300,303,305,1
267,300,301,301,1
262,299,298,296,1
262,298,296,293,1
269,298,295,293,1
281,300,295,295,1
294,302,297,298,1
306,304,299,302,1
315,306,300,306,1
320,307,301,308,1
320,308,303,309,1
319,308,304,308,1
317,309,304,308,1
316,309,305,306,1
314,308,304,303,1
313,307,303,300,1
312,306,301,299,1
312,304,300,298,1
313,303,301,297,1
314,303,301,297,1
315,304,302,296,1
314,305,301,295,1
312,305,299,294,1
309,305,297,295,1
305,305,294,298,1
301,304,293,303,1
296,304,295,308,1
293,304,298,311,1
290,303,302,312,1
287,303,304,311,1
285,302,306,308,1
284,303,306,304,1
286,302,305,302,1
289,302,304,302,1
292,302,304,304,1
295,301,304,306,1
298,299,304,308,1
303,299,305,308,1
307,299,304,307,1
308,300,304,306,1
308,302,304,305,1
307,305,305,304,1
306,307,307,302,1
305,309,308,300,1
304,310,309,298,1
304,310,309,297,1
304,310,310,297,1
303,309,309,300,1
301,309,309,303,1
299,309,309,310,1
298,309,309,318,1
297,309,308,324,1
297,309,308,329,1
297,309,307,330,1
298,308,306,329,1
299,307,306,325,1
300,305,307,321,1
301,305,307,317,1
302,305,308,315,1
302,306,309,312,1
303,308,309,309,1
302,310,309,304,1
302,311,307,300,1
302,311,305,296,1
303,310,303,294,1
303,309,303,294,1
302,309,302,294,1
299,308,300,294,1
296,308,297,292,1
294,307,294,291,1
295,306,293,290,1
295,305,292,289,1
295,304,291,289,1
292,301,292,288,1
287,299,295,289,1
279,297,298,291,1
272,296,301,295,1
267,296,303,299,1
264,298,305,306,1
265,301,307,313,1
273,304,310,320,1
288,309,312,327,1
303,312,314,332,1
315,315,316,335,1
321,318,317,337,1
323,320,317,339,1
324,322,316,342,1
326,323,315,344,1
329,325,315,344,1
332,325,315,340,1
334,323,314,334,1
332,320,312,326,1
329,316,311,314,1
324,311,308,302,1
317,306,306,292,1
309,302,304,284,1
303,300,303,279,1
298,298,303,276,1
296,297,303,275,1
296,296,303,274,1
296,295,304,272,1
296,295,303,269,1
296,294,302,266,1
296,293,302,264,1
297,294,302,264,1
301,295,302,265,1
306,297,304,268,1
313,298,304,272,1
321,300,306,277,1
326,302,307,283,1
327,304,307,288,1
323,304,306,294,1
318,304,305,299,1
310,303,304,303,1
304,303,305,306,1
301,302,306,309,1
299,302,309,313,1
299,301,310,316,1
299,302,311,319,1
299,303,310,321,1
299,304,309,320,1
298,306,310,317,1
297,309,311,314,1
298,311,312,312,1
298,312,313,310,1
299,313,314,309,1
300,314,314,309,1
301,314,314,309,1
302,313,314,311,1
301,313,315,312,1
300,312,315,312,1
299,311,314,311,1
299,310,313,311,1
298,309,310,311,1
298,307,306,310,1
298,304,304,310,1
298,301,304,312,1
298,298,305,316,1
297,298,306,319,1
294,299,306,320,1
288,302,307,322,1
283,304,308,325,1
287,308,309,328,1
296,310,310,329,1
304,311,310,328,1
308,310,310,326,1
308,309,309,321,1
304,308,308,317,1
300,307,307,312,1
298,306,307,307,1
298,303,307,302,1
302,301,307,297,1
308,299,306,294,1
314,298,305,291,1
317,297,306,291,1
318,297,307,292,1
316,296,308,294,1
314,296,309,297,1
312,297,311,301,1
311,298,313,306,1
311,299,314,311,1
310,301,315,315,1
308,302,314,316,1
307,302,313,313,1
305,302,311,307,1
302,302,309,300,1
301,302,308,295,1
301,302,307,292,1
302,303,307,292,1
304,302,306,293,1
305,302,305,296,1
307,301,306,300,1
309,301,307,305,1
310,301,307,311,1
309,301,306,315,1
307,301,305,319,1
307,301,305,322,1
308,300,306,323,1
310,301,306,322,1
310,301,307,319,1
306,302,308,314,1
301,304,308,307,1
296,305,307,301,1
294,306,306,297,1
293,306,307,297,1
291,307,307,299,1
290,307,308,301,1
290,308,309,303,1
290,308,310,303,1
290,308,310,302,1
290,308,309,301,1
290,307,308,301,1
293,306,308,302,1
298,305,308,303,1
304,304,307,304,1
310,304,308,304,1
315,304,308,305,1
320,304,309,307,1
323,306,309,311,1
324,309,310,317,1
320,312,310,322,1
309,315,310,325,1
295,317,310,327,1
282,317,310,329,1
274,318,310,329,1
272,318,309,327,1
273,317,307,323,1
275,315,305,317,1
281,312,304,309,1
289,309,303,301,1
297,308,303,295,1
303,307,304,289,1
307,304,304,285,1
308,303,304,283,1
308,301,304,283,1
308,299,304,284,1
309,299,301,285,1
312,300,299,286,1
315,301,298,289,1
317,303,300,292,1
318,304,303,295,1
316,306,306,297,1
314,307,308,298,1
312,308,309,300,1
310,308,309,301,1
308,308,308,303,1
308,309,307,306,1
309,309,307,310,1
311,310,308,315,1
312,310,308,320,1
313,310,309,324,1
310,310,308,326,1
306,309,307,329,1
301,309,306,333,1
298,308,305,339,1
296,309,305,343,1
295,309,305,344,1
294,310,306,343,1
294,310,307,338,1
294,310,309,332,1
297,310,310,324,1
300,310,310,317,1
301,310,311,311,1
300,310,310,308,1
299,311,309,307,1
298,312,308,307,1
300,313,307,306,1
303,313,306,305,1
305,313,306,303,1
307,313,305,300,1
308,313,304,297,1
309,312,303,294,1
310,311,301,293,1
311,309,300,292,1
311,306,300,292,1
311,304,299,291,1
311,302,300,289,1
311,302,300,288,1
312,302,300,290,1
312,304,300,292,1
312,305,300,294,1
309,307,301,294,1
305,308,302,294,1
302,308,302,292,1
300,308,301,291,1
298,308,300,292,1
298,307,301,294,1
300,307,302,298,1
301,306,304,304,1
304,306,305,312,1
307,307,305,320,1
310,308,306,328,1
312,309,307,334,1
313,308,307,336,1
313,307,307,335,1
311,306,307,332,1
309,304,306,328,1
305,304,307,324,1
303,304,308,320,1
304,305,309,315,1
306,306,309,309,1
309,308,308,301,1
310,309,307,294,1
311,310,307,289,1
311,310,307,288,1
310,310,306,287,1
307,310,305,288,1
301,310,304,290,1
296,309,302,292,1
296,307,301,293,1
300,305,300,295,1
305,303,301,296,1
309,302,302,297,1
311,300,303,298,1
313,299,304,301,1
312,300,306,304,1
312,303,307,307,1
311,304,309,309,1
310,306,309,310,1
309,307,310,309,1
309,308,309,309,1
308,309,309,309,1
308,310,309,310,1
308,310,310,312,1
308,311,310,313,1
306,312,310,313,1
304,313,310,312,1
304,314,310,308,1
304,313,310,304,1
304,312,309,302,1
302,310,307,301,1
301,309,307,304,1
300,308,307,310,1
299,307,307,317,1
299,306,308,324,1
300,305,308,330,1
301,305,308,334,1
300,306,308,335,1
299,307,309,335,1
300,308,310,331,1
303,310,309,324,1
305,312,309,316,1
306,313,307,308,1
306,314,306,302,1
307,313,305,299,1
309,313,304,298,1
311,312,304,301,1
313,312,304,308,1
314,311,305,317,1
314,312,306,326,1
314,313,307,331,1
313,313,306,335,1
310,313,306,335,1
306,313,306,332,1
303,311,306,326,1
301,308,307,318,1
300,304,308,311,1
298,301,308,305,1
296,298,309,299,1
295,298,309,296,1
296,299,310,295,1
300,302,310,295,1
306,303,310,296,1
310,305,310,298,1
312,307,309,299,1
311,308,306,300,1
308,308,303,300,1
305,308,301,299,1
303,308,301,298,1
302,307,303,298,1
301,307,305,298,1
300,308,306,299,1
300,309,307,299,1
300,308,307,301,1
301,306,307,302,1
301,304,308,303,1
302,304,310,304,1
302,304,311,306,1
303,305,313,307,1
304,305,313,308,1
305,307,312,308,1
307,307,312,306,1
308,308,312,304,1
308,309,311,303,1
307,309,311,305,1
304,310,311,307,1
301,310,311,310,1
297,309,311,312,1
293,308,310,313,1
286,307,309,313,1
276,305,308,311,1
269,304,307,310,1
272,302,306,309,1
284,301,306,308,1
297,300,305,307,1
305,298,304,306,1
309,297,303,305,1
309,296,303,304,1
307,297,304,304,1
304,299,305,304,1
303,302,306,303,1
305,305,306,301,1
311,307,306,300,1
317,309,305,301,1
322,310,306,302,1
326,310,306,303,1
327,311,307,303,1
325,312,307,303,1
320,313,307,303,1
315,314,307,303,1
310,314,308,304,1
307,314,309,304,1
306,312,308,304,1
306,310,307,304,1
307,306,306,304,1
309,304,306,304,1
312,302,306,305,1
315,302,307,308,1
317,303,307,310,1
319,304,306,312,1
317,306,304,314,1
313,307,304,316,1
309,308,305,319,1
304,309,306,323,1
298,311,307,328,1
295,313,307,332,1
293,315,308,335,1
294,316,309,334,1
296,317,309,331,1
298,317,309,327,1
300,316,308,325,1
302,314,307,326,1
304,312,306,328,1
305,309,307,330,1
306,306,307,330,1
308,305,308,328,1
310,304,308,324,1
311,304,309,319,1
311,304,310,314,1
311,305,310,308,1
312,306,310,303,1
312,307,309,296,1
311,308,308,290,1
311,308,307,286,1
311,308,305,282,1
310,307,304,281,1
309,306,303,281,1
308,305,303,283,1
307,305,304,285,1
306,304,305,287,1
304,303,306,288,1
303,302,306,288,1
302,301,304,287,1
302,300,303,286,1
303,298,302,285,1
303,297,302,284,1
305,297,304,287,1
308,298,306,292,1
311,299,307,299,1
313,301,309,305,1
312,304,310,309,1
312,307,311,310,1
311,310,311,310,1
311,312,311,309,1
311,314,311,308,1
310,316,310,307,1
309,316,309,306,1
306,316,308,307,1
304,315,308,309,1
302,314,308,312,1
301,314,309,315,1
304,313,310,318,1
308,312,311,319,1
313,311,311,318,1
316,310,311,314,1
318,308,310,310,1
319,306,310,307,1
319,305,310,306,1
318,304,310,306,1
316,304,310,305,1
311,305,309,304,1
305,306,309,305,1
303,307,308,305,1
305,309,308,307,1
309,309,308,309,1
314,308,309,310,1
317,307,309,311,1
318,306,308,311,1
318,304,307,310,1
319,303,306,307,1
321,303,305,305,1
321,303,305,303,1
319,303,303,300,1
316,303,301,297,1
315,303,298,294,1
314,303,297,290,1
313,304,298,287,1
312,304,299,286,1
311,305,301,286,1
310,306,303,288,1
307,307,305,292,1
304,310,306,295,1
301,312,307,299,1
298,314,307,303,1
296,315,308,306,1
297,316,308,310,1
302,316,308,316,1
310,316,307,323,1
320,315,306,330,1
328,314,308,335,1
331,313,311,336,1
329,311,312,333,1
325,309,313,326,1
318,306,312,317,1
309,304,310,308,1
299,302,308,300,1
291,302,306,295,1
286,301,306,291,1
284,301,306,291,1
287,303,307,295,1
291,305,308,300,1
297,309,309,306,1
302,312,309,309,1
304,313,308,309,1
305,312,308,306,1
306,312,307,302,1
306,312,307,298,1
306,311,307,294,1
306,312,306,293,1
308,312,306,294,1
311,313,305,297,1
313,313,305,301,1
313,312,305,304,1
313,310,305,307,1
313,309,305,311,1
314,308,306,314,1
315,307,307,318,1
316,307,309,319,1
316,307,310,319,1
315,308,311,316,1
313,308,311,311,1
309,309,310,306,1
303,310,308,301,1
297,311,306,297,1
292,310,306,293,1
288,310,306,290,1
285,309,306,288,1
282,309,306,287,1
282,309,305,286,1
290,309,304,285,1
300,307,302,285,1
307,306,301,285,1
312,305,300,286,1
314,304,299,288,1
315,302,299,290,1
315,301,300,293,1
314,301,300,296,1
314,302,302,300,1
316,304,304,305,1
319,307,307,310,1
321,309,309,315,1
321,311,311,321,1
317,313,311,326,1
312,315,310,332,1
307,316,310,336,1
306,317,311,339,1
307,318,312,339,1
310,319,311,338,1
312,319,310,336,1
314,319,309,333,1
314,318,307,330,1
313,316,305,327,1
314,313,304,322,1
316,310,305,318,1
318,309,305,314,1
317,307,305,309,1
313,305,305,305,1
307,303,304,301,1
301,303,302,298,1
297,302,302,298,1
294,301,303,297,1
293,301,304,295,1
292,302,305,294,1
293,303,307,293,1
293,304,308,292,1
294,306,309,293,1
295,308,309,295,1
296,310,309,300,1
299,312,308,304,1
301,312,307,309,1
304,313,306,312,1
305,313,305,313,1
305,311,303,313,1
306,310,302,312,1
305,307,302,311,1
304,305,303,312,1
302,303,304,315,1
300,302,305,319,1
296,301,306,324,1
292,302,307,328,1
289,303,309,329,1
288,306,309,327,1
290,310,309,321,1
294,313,309,312,1
300,315,309,303,1
305,315,309,294,1
308,315,309,287,1
309,314,309,282,1
308,313,308,280,1
305,313,307,281,1
303,312,306,283,1
301,310,305,286,1
300,309,304,289,1
303,307,303,292,1
306,306,303,295,1
309,305,304,299,1
311,305,305,304,1
311,306,306,311,1
311,308,309,318,1
312,310,311,324,1
313,313,313,329,1
313,316,314,334,1
312,318,313,336,1
310,320,312,337,1
308,321,310,336,1
304,320,307,330,1
299,319,306,321,1
294,317,304,313,1
289,315,304,305,1
289,314,304,300,1
293,312,305,295,1
299,310,304,292,1
304,308,303,289,1
306,306,302,286,1
310,304,301,285,1
314,303,302,286,1
317,302,304,288,1
318,302,305,289,1
318,302,305,289,1
316,303,305,289,1
314,304,306,290,1
313,305,306,291,1
310,306,306,292,1
309,307,306,294,1
308,309,305,295,1
309,310,305,297,1
309,312,306,299,1
309,313,306,301,1
307,314,305,303,1
307,315,306,306,1
308,315,307,308,1
310,314,307,310,1
313,312,308,313,1
318,310,308,316,1
323,309,309,319,1
326,307,309,320,1
326,305,309,322,1
323,305,309,323,1
319,305,307,322,1
316,306,305,318,1
315,307,304,314,1
313,308,303,310,1
311,309,304,307,1
306,310,304,306,1
301,310,305,305,1
295,311,306,306,1
292,312,308,308,1
292,312,309,311,1
295,313,310,314,1
298,313,310,317,1
301,312,310,321,1
302,312,310,324,1
302,312,310,327,1
302,310,308,329,1
302,308,306,329,1
302,306,304,326,1
303,305,302,320,1
305,304,301,314,1
308,304,302,310,1
311,306,304,309,1
313,307,306,308,1
314,309,307,304,1
313,311,307,299,1
311,312,308,296,1
309,313,308,295,1
308,314,308,297,1
306,314,308,300,1
302,314,308,304,1
297,313,308,309,1
292,312,308,314,1
289,312,308,320,1
288,311,306,325,1
289,309,303,331,1
292,307,301,336,1
296,305,299,338,1
301,304,299,336,1
307,303,300,330,1
312,302,302,320,1
315,301,304,309,1
315,301,306,300,1
313,302,307,292,1
310,303,306,286,1
308,304,306,282,1
307,305,307,281,1
306,307,308,284,1
306,308,309,288,1
305,309,310,294,1
302,309,310,300,1
300,309,310,305,1
299,310,310,310,1
298,310,309,315,1
297,309,308,318,1
294,308,307,321,1
291,306,307,322,1
291,304,306,322,1
295,302,306,322,1
300,301,306,321,1
304,300,308,320,1
307,300,309,319,1
308,302,309,318,1
309,303,308,317,1
308,305,307,315,1
308,307,307,314,1
308,309,308,313,1
308,309,308,312,1
309,310,308,310,1
311,310,308,309,1
313,310,307,308,1
315,309,308,308,1
314,309,307,307,1
311,308,307,307,1
307,306,305,306,1
304,305,304,302,1
302,303,302,299,1
302,302,301,296,1
303,302,301,295,1
304,303,302,297,1
306,303,303,300,1
306,305,303,304,1
306,307,305,306,1
305,310,306,307,1
303,313,307,310,1
302,315,308,314,1
300,317,309,320,1
299,318,309,324,1
299,318,309,328,1
300,316,309,329,1
299,313,307,327,1
298,312,306,322,1
298,312,304,315,1
298,311,304,308,1
299,310,303,303,1
299,308,302,301,1
300,306,302,302,1
300,303,303,305,1
298,300,304,310,1
295,298,305,316,1
293,299,308,324,1
291,301,310,330,1
289,303,311,334,1
290,305,311,336,1
295,307,310,336,1
299,309,309,335,1
303,310,308,333,1
307,311,308,326,1
310,311,307,318,1
312,310,305,309,1
313,308,303,301,1
313,306,301,294,1
311,305,299,289,1
306,303,298,287,1
300,302,297,287,1
295,301,299,288,1
295,299,301,290,1
300,298,304,292,1
305,297,306,294,1
309,297,308,294,1
310,297,308,295,1
310,297,308,296,1
310,298,309,300,1
309,301,310,307,1
309,303,310,316,1
309,305,310,323,1
310,307,310,326,1
310,307,310,327,1
309,307,309,324,1
309,307,306,320,1
309,306,304,315,1
307,305,302,309,1
303,305,300,305,1
300,304,298,301,1
298,303,298,299,1
296,303,299,297,1
295,302,300,296,1
298,301,302,296,1
304,301,303,297,1
311,302,305,299,1
315,303,306,303,1
318,305,307,308,1
321,307,308,313,1
323,309,309,319,1
323,311,310,323,1
320,312,310,326,1
314,313,309,327,1
309,314,308,328,1
305,314,307,327,1
303,314,306,325,1
301,314,305,322,1
300,313,304,318,1
298,311,303,312,1
296,310,302,308,1
297,308,301,307,1
300,307,301,309,1
304,306,302,312,1
308,305,303,311,1
312,303,303,308,1
314,302,303,304,1
316,301,304,301,1
317,302,304,301,1
315,304,304,300,1
313,306,304,301,1
308,307,305,302,1
303,307,306,301,1
299,305,307,298,1
296,304,306,295,1
295,303,304,291,1
296,303,302,288,1
299,302,301,287,1
303,303,301,286,1
306,303,301,286,1
307,305,301,287,1
307,305,301,287,1
304,305,301,287,1
302,304,301,288,1
300,303,302,290,1
299,302,303,295,1
299,302,305,301,1
300,303,306,307,1
301,305,309,312,1
301,306,311,313,1
302,308,312,314,1
305,309,314,314,1
309,310,314,316,1
314,311,314,317,1
316,311,314,319,1
316,311,314,321,1
314,311,313,322,1
311,310,314,320,1
306,309,313,316,1
301,307,312,311,1
299,305,310,306,1
302,303,308,301,1
304,301,305,297,1
306,299,302,295,1
307,298,301,293,1
309,298,301,294,1
311,298,302,297,1
311,299,304,301,1
310,301,305,306,1
309,303,307,311,1
306,305,308,314,1
303,307,307,316,1
300,309,306,320,1
298,310,305,324,1
297,310,304,327,1
297,310,304,328,1
299,310,305,326,1
301,310,307,323,1
302,310,307,319,1
302,309,307,314,1
301,308,307,312,1
300,307,307,312,1
299,305,308,314,1
300,304,308,316,1
300,304,307,317,1
299,304,307,318,1
299,304,308,316,1
300,305,309,312,1
302,305,310,305,1
304,305,311,298,1
306,306,312,292,1
309,307,313,290,1
311,309,312,291,1
311,310,312,294,1
310,311,311,297,1
308,310,309,299,1
306,310,308,301,1
305,308,307,302,1
305,306,307,302,1
306,304,307,301,1
307,302,307,300,1
308,300,306,298,1
307,298,306,297,1
305,297,306,295,1
302,297,306,294,1
301,296,306,293,1
301,296,306,294,1
301,297,308,296,1
301,299,308,300,1
301,303,307,305,1
301,305,306,310,1
301,308,305,312,1
301,309,304,313,1
301,310,304,312,1
303,311,304,310,1
304,311,305,309,1
302,310,304,308,1
296,310,303,307,1
290,310,302,306,1
291,310,303,305,1
295,309,304,304,1
298,308,305,302,1
298,305,305,300,1
296,301,306,300,1
297,298,307,303,1
300,297,308,308,1
305,297,309,314,1
309,298,311,319,1
310,298,312,320,1
309,299,311,318,1
307,300,311,315,1
305,301,310,312,1
304,302,309,310,1
303,304,308,310,1
303,305,308,310,1
303,308,308,309,1
302,310,308,309,1
301,311,307,310,1
301,312,306,312,1
301,312,305,316,1
301,312,304,319,1
301,311,304,322,1
300,308,304,324,1
301,305,305,326,1
300,302,307,326,1
300,300,309,326,1
302,299,311,326,1
306,298,312,325,1
310,298,312,323,1
313,299,312,321,1
314,300,312,321,1
314,301,312,321,1
312,303,311,320,1
310,304,310,317,1
307,305,309,315,1
304,306,309,313,1
302,307,310,310,1
300,308,310,306,1
300,308,311,303,1
299,307,312,300,1
298,306,312,297,1
297,304,312,295,1
298,301,311,294,1
301,298,310,293,1
304,296,310,293,1
305,294,310,292,1
305,293,310,291,1
306,293,311,291,1
307,294,311,290,1
308,295,311,290,1
310,297,312,292,1
314,299,313,295,1
315,302,313,298,1
314,303,312,300,1
309,304,312,303,1
303,304,310,305,1
295,304,309,307,1
291,303,308,307,1
291,303,308,308,1
294,304,309,309,1
297,304,310,310,1
299,304,310,311,1
300,303,310,310,1
302,301,309,308,1
305,300,307,308,1
307,299,306,311,1
307,298,306,313,1
308,299,307,315,1
309,299,308,316,1
309,300,309,316,1
308,302,310,314,1
306,304,309,310,1
303,306,308,304,1
301,307,307,298,1
299,307,305,293,1
300,307,304,291,1
302,307,303,292,1
304,306,302,294,1
306,306,300,296,1
306,304,300,300,1
305,303,300,303,1
303,301,300,307,1
299,299,299,310,1
297,298,299,315,1
297,299,300,322,1
301,301,303,330,1
306,303,306,336,1
312,305,309,340,1
315,308,310,339,1
315,310,311,334,1
313,311,311,328,1
311,312,310,320,1
310,312,309,313,1
308,312,308,306,1
305,312,307,302,1
302,311,306,298,1
303,309,306,295,1
304,308,307,294,1
304,307,308,294,1
303,306,307,293,1
305,305,306,292,1
306,303,305,291,1
308,301,304,293,1
310,300,303,300,1
311,299,303,307,1
312,299,303,314,1
312,298,304,318,1
311,298,304,319,1
310,298,305,316,1
308,300,305,313,1
306,302,307,308,1
304,304,308,303,1
303,305,309,299,1
301,306,309,296,1
299,307,309,296,1
297,307,308,298,1
294,306,307,301,1
293,306,305,303,1
292,306,304,303,1
295,305,303,302,1
300,303,303,301,1
306,301,303,298,1
310,300,304,297,1
314,299,305,297,1
315,298,306,298,1
315,298,307,300,1
313,297,309,303,1
310,298,311,307,1
305,299,312,313,1
299,302,312,317,1
294,304,313,322,1
290,305,313,324,1
288,306,312,324,1
289,308,311,322,1
292,308,310,319,1
296,308,309,315,1
301,308,309,310,1
304,308,308,306,1
306,308,307,305,1
306,308,306,306,1
306,308,306,306,1
308,307,307,307,1
310,306,308,308,1
315,304,308,312,1
322,302,308,316,1
331,301,308,319,1
339,300,309,321,1
344,300,309,321,1
344,300,308,320,1
337,301,305,317,1
324,301,303,312,1
312,302,303,307,1
305,304,304,303,1
301,306,305,300,1
297,309,307,298,1
294,311,307,297,1
292,312,307,294,1
291,312,306,293,1
291,312,305,291,1
293,310,304,291,1
294,309,304,293,1
296,308,304,296,1
297,307,305,300,1
299,305,305,306,1
300,304,306,312,1
302,303,307,317,1
303,302,307,322,1
305,302,309,326,1
306,303,310,329,1
307,305,312,328,1
307,307,313,325,1
305,308,313,321,1
304,308,313,316,1
301,307,311,313,1
300,307,309,312,1
299,307,307,311,1
298,307,306,311,1
297,306,306,310,1
296,306,305,309,1
295,305,305,309,1
295,303,305,309,1
297,302,305,308,1
299,300,304,309,1
301,298,303,314,1
303,296,303,320,1
305,296,302,324,1
305,296,302,325,1
302,297,303,323,1
297,299,305,318,1
293,300,305,314,1
291,303,305,309,1
290,305,304,304,1
289,305,303,299,1
292,306,303,297,1
299,307,303,297,1
305,309,304,299,1
308,311,305,301,1
309,311,306,302,1
307,311,307,303,1
305,310,306,303,1
303,309,304,303,1
300,309,302,301,1
300,307,302,299,1
303,306,303,297,1
309,305,304,296,1
313,304,305,294,1
316,302,306,295,1
316,301,306,296,1
316,300,306,298,1
314,300,306,300,1
313,300,307,303,1
312,302,308,307,1
312,304,308,311,1
312,307,308,314,1
312,309,308,317,1
312,311,308,320,1
311,313,308,321,1
309,313,307,322,1
308,314,305,323,1
306,314,304,323,1
305,313,302,320,1
303,311,300,313,1
303,308,298,306,1
304,306,297,303,1
306,303,298,303,1
309,301,299,305,1
311,300,299,309,1
310,299,300,315,1
308,300,301,322,1
308,302,303,329,1
308,304,306,334,1
309,306,307,335,1
310,307,309,333,1
309,309,310,328,1
307,309,311,322,1
305,310,311,317,1
304,309,310,312,1
302,308,308,309,1
301,307,306,308,1
299,306,304,309,1
298,306,303,311,1
297,306,300,314,1
297,306,298,318,1
298,306,296,321,1
300,305,295,324,1
302,303,294,326,1
303,302,294,325,1
304,302,295,322,1
304,302,298,315,1
304,303,303,308,1
305,304,307,302,1
305,305,310,296,1
306,306,311,293,1
307,307,311,292,1
308,309,310,292,1
310,309,309,292,1
311,310,308,292,1
311,310,307,291,1
311,310,307,291,1
310,309,308,290,1
309,308,308,289,1
307,306,307,289,1
304,304,307,293,1
300,302,306,299,1
294,300,305,305,1
291,298,305,308,1
295,298,305,311,1
303,298,306,312,1
311,299,308,310,1
316,301,308,306,1
317,304,308,301,1
314,306,307,296,1
309,308,306,291,1
302,310,303,288,1
297,311,301,290,1
294,311,301,293,1
292,312,303,297,1
293,312,305,301,1
296,312,307,304,1
302,313,309,305,1
310,314,309,303,1
316,314,308,300,1
320,313,308,298,1
321,312,308,297,1
322,310,308,298,1
322,308,309,301,1
321,307,310,307,1
321,306,311,314,1
319,306,311,321,1
316,306,310,326,1
313,307,309,330,1
311,308,308,330,1
310,309,308,326,1
309,310,307,319,1
310,310,306,312,1
310,311,305,305,1
309,311,305,301,1
309,311,306,301,1
308,312,307,303,1
307,313,308,306,1
307,313,308,309,1
308,313,308,312,1
310,313,308,315,1
314,313,308,319,1
317,313,308,323,1
318,313,308,326,1
317,312,309,326,1
316,311,309,326,1
316,309,310,325,1
317,308,311,324,1
316,307,312,323,1
315,307,314,322,1
312,307,315,321,1
308,308,316,320,1
305,308,316,320,1
302,309,314,319,1
301,309,312,319,1
300,310,310,318,1
300,310,310,319,1
302,311,311,320,1
304,311,312,321,1
306,310,312,321,1
307,309,311,323,1
307,308,309,325,1
306,306,308,326,1
306,305,306,323,1
306,304,305,318,1
307,303,306,311,1
308,302,306,302,1
308,301,306,292,1
307,301,305,284,1
305,301,305,279,1
304,302,305,275,1
303,303,305,274,1
303,304,305,275,1
302,306,305,279,1
300,308,305,282,1
298,309,304,288,1
296,310,304,292,1
294,310,304,296,1
293,310,304,298,1
293,308,304,300,1
294,305,304,301,1
298,303,304,303,1
301,300,305,305,1
305,299,306,311,1
308,298,306,318,1
312,298,307,325,1
315,299,308,329,1
316,301,310,330,1
316,303,310,328,1
318,306,310,323,1
319,308,308,316,1
320,309,306,309,1
321,309,305,303,1
321,309,303,298,1
321,308,302,296,1
319,308,301,298,1
316,308,301,303,1
312,307,303,309,1
306,306,304,315,1
301,306,304,318,1
297,306,304,319,1
297,305,305,318,1
298,305,307,316,1
300,304,307,311,1
303,304,308,307,1
308,305,307,304,1
312,307,307,305,1
315,309,308,306,1
317,311,310,306,1
317,312,311,307,1
317,313,312,308,1
317,313,312,311,1
317,313,312,312,1
316,312,311,311,1
315,310,310,308,1
315,309,309,306,1
315,307,308,305,1
314,305,307,305,1
312,305,307,305,1
308,304,306,306,1
305,304,303,307,1
303,304,301,309,1
303,305,302,313,1
305,306,303,318,1
308,307,305,321,1
309,307,307,322,1
310,307,309,322,1
309,307,311,321,1
308,308,312,319,1
307,309,311,315,1
306,310,310,311,1
305,310,308,308,1
304,311,306,304,1
302,311,304,300,1
301,311,303,298,1
300,311,303,297,1
300,312,304,298,1
301,311,305,299,1
302,311,307,299,1
302,309,308,299,1
302,307,309,300,1
301,305,310,301,1
299,303,310,302,1
297,301,311,304,1
294,300,311,305,1
291,300,312,306,1
290,300,312,306,1
293,300,311,305,1
298,302,310,305,1
303,305,308,305,1
306,308,305,305,1
308,311,305,304,1
309,312,306,302,1
310,312,308,300,1
310,312,309,299,1
309,311,310,298,1
306,310,311,298,1
303,309,312,299,1
301,309,312,300,1
299,308,311,306,1
298,308,311,315,1
298,308,311,324,1
301,308,311,331,1
304,308,312,334,1
305,307,312,335,1
306,307,312,331,1
306,308,312,326,1
306,308,313,319,1
306,309,313,312,1
305,309,313,305,1
305,308,311,300,1
304,308,309,296,1
304,308,307,294,1
303,307,308,294,1
303,307,309,298,1
302,307,311,302,1
300,307,312,307,1
299,307,312,312,1
298,307,311,315,1
298,306,310,317,1
298,306,308,316,1
297,304,307,312,1
297,302,307,308,1
296,301,307,306,1
295,300,308,305,1
294,300,309,305,1
293,301,310,304,1
294,302,310,302,1
298,303,310,301,1
305,306,311,299,1
313,307,311,297,1
316,308,310,296,1
314,309,309,296,1
307,309,307,297,1
299,308,305,299,1
294,308,304,301,1
294,307,304,304,1
298,308,306,308,1
305,308,307,313,1
311,309,308,318,1
314,309,308,322,1
314,309,308,326,1
313,308,309,329,1
312,307,310,329,1
310,306,311,327,1
309,306,312,322,1
308,306,312,316,1
308,306,311,308,1
308,305,311,302,1
307,304,310,295,1
307,304,310,290,1
307,303,308,285,1
306,303,307,283,1
304,303,306,282,1
301,303,307,283,1
297,303,307,284,1
293,303,306,287,1
291,303,307,292,1
290,304,306,298,1
292,304,307,304,1
297,304,306,309,1
304,303,307,314,1
313,303,307,318,1
320,303,308,321,1
324,303,309,324,1
323,302,310,325,1
320,303,310,326,1
318,306,311,326,1
316,309,311,325,1
313,312,310,322,1
310,313,310,317,1
307,315,309,312,1
303,315,309,307,1
301,315,308,302,1
300,314,308,300,1
301,314,307,298,1
303,313,307,299,1
305,313,306,300,1
305,314,305,300,1
302,314,304,300,1
299,313,302,300,1
297,312,302,301,1
298,311,301,302,1
300,308,301,305,1
303,307,302,310,1
305,306,302,315,1
307,306,301,318,1
307,307,300,317,1
307,309,298,314,1
307,311,296,309,1
305,312,295,303,1
304,312,295,298,1
303,313,297,293,1
304,313,299,291,1
305,313,303,290,1
307,314,305,291,1
308,313,306,293,1
308,312,307,296,1
307,311,308,299,1
306,309,308,301,1
307,308,307,303,1
308,306,306,304,1
307,305,306,305,1
305,305,306,307,1
302,305,307,309,1
299,305,308,311,1
296,306,309,312,1
294,307,310,313,1
295,309,311,314,1
300,311,311,313,1
306,312,312,312,1
312,312,310,310,1
316,312,308,308,1
317,311,306,307,1
317,312,304,307,1
316,313,303,310,1
314,314,304,314,1
314,315,306,318,1
313,315,307,320,1
312,314,307,322,1
311,313,306,322,1
310,312,304,321,1
310,310,304,320,1
311,309,304,317,1
312,308,304,316,1
312,307,305,314,1
313,307,306,313,1
313,307,307,315,1
312,309,307,318,1
311,310,307,322,1
309,312,307,324,1
307,313,306,327,1
305,314,305,329,1
304,315,305,330,1
303,316,306,328,1
302,316,307,323,1
302,315,308,320,1
304,313,309,318,1
306,311,310,316,1
308,310,311,315,1
309,307,311,312,1
310,305,310,307,1
311,302,309,303,1
312,300,308,297,1
314,297,306,291,1
315,296,305,288,1
313,295,304,287,1
309,297,304,288,1
306,298,305,290,1
305,300,305,292,1
307,302,306,294,1
309,304,307,297,1
309,306,308,299,1
308,306,309,302,1
305,306,309,305,1
301,306,309,306,1
298,305,310,307,1
297,305,309,306,1
298,304,307,305,1
301,304,305,304,1
303,303,303,302,1
305,303,302,299,1
306,302,302,299,1
306,301,304,298,1
307,300,305,299,1
306,301,306,299,1
304,301,305,299,1
302,301,305,301,1
300,301,306,306,1
299,303,306,314,1
298,305,306,321,1
296,307,305,325,1
296,309,302,325,1
298,310,300,321,1
300,310,299,314,1
302,310,299,307,1
301,309,303,300,1
298,309,306,295,1
295,308,309,290,1
296,308,311,289,1
301,308,312,292,1
306,307,312,299,1
310,307,313,310,1
312,306,313,319,1
314,305,314,326,1
315,305,315,331,1
316,305,316,333,1
315,306,316,332,1
313,307,318,331,1
311,309,318,329,1
309,311,318,327,1
308,313,318,326,1
307,315,317,324,1
308,316,315,321,1
308,315,312,317,1
306,314,308,312,1
304,313,306,306,1
303,311,304,300,1
301,309,304,294,1
300,308,303,289,1
299,306,303,287,1
297,304,303,287,1
297,302,302,288,1
298,301,303,290,1
299,300,303,294,1
301,301,304,298,1
303,302,306,303,1
304,304,308,308,1
304,306,310,311,1
303,308,310,313,1
302,308,310,314,1
304,308,309,314,1
307,307,309,314,1
310,306,308,313,1
312,305,307,312,1
311,306,307,311,1
309,307,307,310,1
304,309,307,310,1
297,310,306,309,1
292,311,304,306,1
288,309,303,303,1
285,308,304,300,1
285,305,305,299,1
288,303,306,299,1
296,302,307,301,1
304,302,309,302,1
309,303,311,304,1
311,304,311,306,1
312,306,312,307,1
313,308,312,308,1
314,309,312,307,1
314,310,312,305,1
313,311,311,303,1
309,311,308,302,1
304,310,306,301,1
300,310,304,301,1
297,310,303,302,1
296,309,302,303,1
297,308,302,307,1
299,307,302,313,1
300,306,303,319,1
301,305,304,324,1
301,304,305,327,1
300,304,306,329,1
299,304,307,332,1
298,305,308,337,1
297,307,309,341,1
296,308,311,343,1
296,310,313,340,1
296,311,314,334,1
298,312,313,327,1
298,312,312,320,1
297,312,311,312,1
295,311,309,304,1
295,310,308,297,1
298,308,307,291,1
300,307,306,287,1
301,305,305,284,1
303,303,304,283,1
305,301,302,282,1
308,300,300,283,1
311,300,299,283,1
313,300,299,284,1
315,300,300,287,1
317,300,301,291,1
317,301,302,296,1
318,303,303,302,1
318,305,304,309,1
317,308,305,316,1
315,312,307,322,1
312,315,308,325,1
310,316,308,326,1
308,318,308,325,1
308,318,308,322,1
307,318,309,318,1
308,316,308,312,1
307,314,305,304,1
306,311,299,296,1
304,306,293,288,1
303,303,288,280,1
301,300,284,275,1
300,298,282,273,1
298,297,281,273,1
297,296,283,276,1
296,296,288,281,1
295,297,294,286,1
293,299,300,290,1
294,301,305,295,1
297,304,309,300,1
302,307,311,304,1
307,309,311,307,1
311,310,312,308,1
315,311,313,309,1
318,313,313,310,1
318,314,314,311,1
316,314,313,311,1
310,314,313,312,1
303,313,313,314,1
296,312,313,314,1
289,310,313,312,1
282,308,311,309,1
279,306,310,306,1
283,305,308,304,1
292,305,308,303,1
301,304,307,302,1
307,304,306,303,1
310,304,307,304,1
309,304,308,307,1
306,305,309,309,1
303,306,309,310,1
299,308,308,310,1
298,309,306,311,1
298,310,304,310,1
299,310,304,308,1
301,310,304,307,1
303,310,304,307,1
303,310,304,311,1
304,310,305,316,1
306,310,306,320,1
309,310,306,325,1
310,309,305,329,1
312,307,304,335,1
313,306,302,341,1
314,306,302,346,1
313,307,304,350,1
312,307,306,350,1
309,307,308,345,1
306,308,310,336,1
301,308,310,326,1
295,309,309,316,1
288,309,308,306,1
286,310,306,297,1
290,310,305,291,1
298,309,303,287,1
306,308,302,283,1
311,306,300,277,1
312,303,298,271,1
312,301,297,266,1
312,299,297,263,1
312,297,298,263,1
314,296,300,265,1
314,295,300,268,1
314,295,298,272,1
315,295,298,278,1
317,295,300,284,1
318,296,304,292,1
316,298,309,298,1
313,300,311,303,1
307,303,313,308,1
302,305,313,312,1
301,308,314,316,1
303,310,315,318,1
307,311,315,320,1
312,312,316,320,1
316,312,316,319,1
318,310,316,316,1
317,308,315,311,1
315,307,314,307,1
312,305,312,304,1
309,304,308,303,1
309,302,304,302,1
310,301,301,303,1
313,301,299,305,1
316,301,299,308,1
318,302,300,309,1
319,302,303,312,1
319,304,307,313,1
319,306,311,316,1
316,308,313,317,1
313,310,313,317,1
309,310,314,316,1
305,309,314,315,1
300,308,315,313,1
296,308,316,311,1
294,307,316,308,1
292,306,315,306,1
292,306,315,305,1
291,305,314,304,1
291,305,311,303,1
291,304,308,301,1
290,302,305,299,1
290,301,303,297,1
293,300,303,297,1
297,300,303,295,1
302,299,303,294,1
306,300,304,294,1
310,301,304,296,1
312,302,304,299,1
312,305,305,304,1
311,308,307,313,1
310,311,309,324,1
309,314,311,334,1
308,316,312,343,1
307,317,313,353,1
303,319,314,362,1
297,319,314,366,1
293,319,314,362,1
293,318,313,352,1
295,316,311,336,1
297,312,309,317,1
296,309,305,300,1
295,305,301,285,1
294,301,297,274,1
296,298,295,268,1
300,297,296,267,1
304,296,297,268,1
305,297,300,271,1
305,299,302,275,1
304,301,305,278,1
304,303,307,279,1
304,305,309,281,1
306,306,308,282,1
308,306,307,284,1
309,307,306,287,1
310,307,305,289,1
310,308,305,290,1
309,309,305,290,1
310,311,306,290,1
311,311,306,292,1
313,310,306,293,1
315,308,305,294,1
317,306,305,296,1
318,305,305,299,1
319,304,307,303,1
318,304,309,307,1
313,304,311,312,1
307,306,312,316,1
300,307,314,320,1
294,307,315,322,1
291,308,314,323,1
295,308,313,322,1
302,308,311,321,1
310,309,310,318,1
315,309,309,314,1
319,309,308,310,1
321,309,308,306,1
321,308,308,303,1
320,309,309,302,1
318,310,309,300,1
316,310,309,297,1
314,310,309,295,1
311,309,308,294,1
309,308,308,294,1
308,307,308,296,1
309,306,307,298,1
309,306,307,302,1
310,305,308,304,1
309,305,309,306,1
307,307,309,306,1
305,308,310,304,1
304,310,309,302,1
302,311,308,300,1
301,311,308,299,1
301,312,307,299,1
302,313,308,302,1
305,314,309,308,1
311,316,309,316,1
316,317,311,323,1
319,317,311,329,1
318,316,311,333,1
315,315,311,334,1
311,313,309,332,1
308,311,308,326,1
306,309,307,317,1
305,307,305,306,1
302,305,304,295,1
300,305,302,288,1
299,306,301,285,1
300,307,300,285,1
304,308,299,287,1
310,310,299,289,1
315,311,301,292,1
317,313,304,296,1
317,314,307,301,1
313,314,311,305,1
309,315,315,308,1
303,314,317,310,1
300,313,316,314,1
298,312,314,317,1
297,310,311,318,1
296,308,307,317,1
294,306,304,313,1
293,303,303,309,1
292,302,304,304,1
291,301,305,300,1
292,301,306,297,1
295,301,308,295,1
298,302,311,293,1
301,303,312,291,1
302,305,312,290,1
300,307,311,291,1
300,308,310,295,1
303,310,309,300,1
308,311,310,305,1
313,313,310,312,1
316,313,311,316,1
317,313,311,318,1
315,312,310,317,1
313,311,310,314,1
311,309,309,310,1
309,308,309,306,1
309,306,308,304,1
310,306,307,303,1
311,305,307,305,1
312,305,308,309,1
313,305,309,312,1
312,305,308,313,1
309,305,306,312,1
303,305,305,310,1
296,305,304,306,1
291,306,305,301,1
293,307,306,297,1
299,308,307,295,1
303,310,307,295,1
305,311,307,298,1
305,313,307,303,1
306,314,308,308,1
306,314,309,312,1
306,313,310,315,1
307,313,311,318,1
309,312,312,318,1
311,310,313,319,1
313,309,314,318,1
315,308,315,317,1
315,308,315,317,1
314,308,315,317,1
312,309,314,318,1
310,310,313,320,1
308,310,310,322,1
305,310,308,324,1
303,310,307,325,1
302,310,306,324,1
302,309,305,321,1
303,309,305,315,1
305,307,303,310,1
306,306,302,306,1
308,305,301,303,1
311,305,301,300,1
314,304,301,296,1
317,304,302,293,1
318,303,302,292,1
318,302,303,291,1
317,302,304,292,1
316,301,304,293,1
315,301,305,295,1
315,301,306,298,1
314,302,307,302,1
313,304,307,308,1
313,306,307,312,1
314,308,307,315,1
315,310,307,315,1
315,311,306,316,1
314,311,305,317,1
312,311,303,318,1
309,312,300,318,1
304,312,295,319,1
299,311,291,318,1
295,310,287,315,1
293,309,287,314,1
294,308,288,313,1
298,305,292,312,1
304,303,297,309,1
312,300,302,305,1
320,298,306,301,1
325,296,310,298,1
326,295,313,296,1
324,295,315,297,1
319,297,316,298,1
317,298,317,301,1
319,300,318,305,1
322,302,318,311,1
323,305,318,317,1
323,308,316,321,1
322,309,315,324,1
321,311,313,325,1
320,311,313,323,1
318,310,312,320,1
314,307,312,315,1
309,305,310,311,1
305,303,309,308,1
303,301,309,305,1
303,298,307,302,1
303,296,305,299,1
303,295,304,297,1
304,294,303,295,1
304,294,304,295,1
304,296,306,296,1
304,299,308,298,1
304,302,311,301,1
304,305,313,304,1
304,309,314,307,1
303,312,314,311,1
301,314,314,314,1
299,315,313,316,1
298,315,312,317,1
298,313,311,316,1
300,311,309,316,1
302,310,308,316,1
303,308,307,316,1
303,307,306,315,1
302,306,305,311,1
301,305,305,304,1
301,303,306,299,1
303,302,306,295,1
307,301,307,293,1
310,300,307,293,1
313,300,308,293,1
316,301,308,295,1
317,303,309,297,1
317,305,309,299,1
316,306,309,301,1
312,307,309,304,1
305,308,308,306,1
297,309,306,307,1
288,310,305,307,1
281,310,305,308,1
275,310,305,308,1
275,310,306,308,1
281,309,307,308,1
292,309,307,308,1
305,308,307,308,1
317,307,308,307,1
325,306,309,308,1
327,305,310,308,1
325,305,310,309,1
320,305,310,310,1
316,305,310,312,1
314,305,310,313,1
312,306,309,312,1
312,306,307,309,1
311,307,306,305,1
311,308,305,300,1
311,308,304,295,1
312,308,303,292,1
314,308,303,291,1
316,308,302,291,1
317,308,302,290,1
316,307,301,288,1
314,306,300,288,1
310,305,300,288,1
308,304,300,290,1
306,304,299,295,1
305,304,300,301,1
303,305,301,308,1
301,307,303,314,1
301,308,305,318,1
303,309,306,322,1
305,311,307,325,1
308,312,308,330,1
309,312,308,335,1
309,312,308,339,1
306,311,307,342,1
303,311,306,340,1
298,310,304,335,1
293,309,303,326,1
290,309,301,316,1
290,309,301,305,1
293,309,301,296,1
298,309,302,289,1
303,310,303,286,1
307,310,304,287,1
311,310,304,290,1
314,311,304,296,1
317,311,305,300,1
319,311,306,304,1
321,310,307,305,1
322,309,306,305,1
320,308,304,304,1
317,308,302,303,1
313,309,300,303,1
309,309,299,305,1
307,309,299,308,1
306,310,300,311,1
307,310,303,312,1
307,309,308,312,1
306,308,311,309,1
305,306,312,306,1
304,305,312,303,1
304,303,312,298,1
303,302,311,293,1
300,301,310,288,1
297,299,309,285,1
295,298,309,284,1
294,298,309,286,1
296,298,309,290,1
299,299,309,296,1
303,300,311,303,1
308,302,312,310,1
313,305,314,314,1
315,307,316,314,1
315,310,316,313,1
314,312,316,311,1
312,314,317,311,1
310,314,317,311,1
307,314,317,311,1
304,314,317,312,1
302,314,315,313,1
301,314,313,314,1
299,313,311,312,1
299,311,309,309,1
300,308,308,305,1
302,306,307,305,1
306,304,307,306,1
311,304,308,311,1
316,305,309,315,1
321,306,311,317,1
324,306,313,318,1
325,307,313,318,1
320,308,312,317,1
309,308,311,315,1
298,308,310,313,1
296,307,309,310,1
298,307,308,307,1
301,308,307,302,1
305,307,306,296,1
309,307,305,291,1
312,307,303,287,1
312,306,302,284,1
311,305,300,283,1
310,304,299,282,1
309,303,298,284,1
308,303,297,286,1
307,302,297,290,1
306,302,300,295,1
306,302,303,301,1
306,303,306,308,1
306,304,309,315,1
306,306,313,323,1
307,308,315,330,1
306,311,316,337,1
304,312,316,341,1
303,313,316,341,1
303,314,315,337,1
304,313,314,333,1
303,312,313,329,1
302,312,313,325,1
303,311,311,320,1
306,310,310,316,1
308,309,308,313,1
309,308,307,310,1
309,306,306,308,1
310,304,306,307,1
310,303,306,306,1
310,302,307,304,1
311,302,307,302,1
311,302,307,298,1
310,302,308,296,1
309,303,308,295,1
306,304,308,294,1
303,306,307,295,1
301,307,305,296,1
301,308,302,298,1
301,309,298,300,1
302,309,294,301,1
303,310,291,301,1
305,309,290,301,1
306,309,291,299,1
307,308,294,299,1
306,308,298,299,1
303,309,303,301,1
300,309,307,304,1
296,309,309,307,1
293,309,310,311,1
292,310,312,317,1
294,311,315,324,1
299,313,317,331,1
305,315,319,336,1
309,316,320,337,1
311,317,320,336,1
311,318,319,334,1
311,319,317,333,1
310,319,316,330,1
309,319,315,328,1
308,319,314,325,1
308,318,313,320,1
308,316,311,315,1
308,314,310,309,1
308,311,309,305,1
309,309,308,303,1
312,307,307,301,1
315,305,307,300,1
318,302,305,298,1
320,301,304,297,1
320,300,304,295,1
317,300,304,292,1
313,300,304,290,1
306,302,305,290,1
300,304,307,292,1
293,307,308,295,1
289,311,309,299,1
286,314,309,305,1
287,317,310,310,1
289,318,309,314,1
292,318,309,315,1
297,318,307,316,1
302,317,306,316,1
307,315,305,316,1
311,314,304,314,1
312,313,303,309,1
314,312,304,302,1
315,310,305,296,1
315,309,305,292,1
312,307,303,290,1
309,306,301,289,1
307,304,300,289,1
307,305,300,289,1
307,306,300,289,1
307,308,300,291,1
307,310,299,292,1
306,311,300,293,1
305,312,303,293,1
305,312,305,294,1
305,313,306,293,1
304,312,307,293,1
303,311,307,294,1
303,311,307,295,1
303,310,307,297,1
303,311,307,299,1
303,311,308,303,1
302,311,308,308,1
302,311,308,316,1
301,311,308,324,1
300,310,308,330,1
299,309,309,333,1
299,308,309,333,1
301,308,309,331,1
305,309,310,328,1
307,311,311,323,1
309,313,310,318,1
310,314,310,312,1
312,316,309,308,1
313,316,308,305,1
313,316,307,305,1
310,315,306,307,1
306,315,305,309,1
302,314,304,309,1
299,313,303,308,1
295,312,302,304,1
293,309,299,297,1
291,307,298,292,1
291,305,297,288,1
293,303,297,287,1
295,302,299,290,1
297,302,301,295,1
299,302,304,301,1
304,303,305,305,1
308,305,306,308,1
312,306,305,310,1
315,308,305,312,1
316,311,305,314,1
318,312,305,314,1
318,313,306,313,1
319,313,306,310,1
320,313,306,307,1
320,313,304,306,1
319,313,302,306,1
316,315,301,304,1
313,315,300,303,1
311,314,300,301,1
308,311,300,301,1
306,308,302,303,1
305,305,305,309,1
302,303,308,315,1
300,300,311,322,1
298,299,314,326,1
297,298,315,328,1
299,299,316,328,1
300,300,316,327,1
301,302,315,325,1
301,303,313,322,1
301,305,310,317,1
303,305,307,310,1
306,305,304,303,1
308,305,303,297,1
311,305,302,293,1
312,305,302,290,1
311,305,301,288,1
308,305,300,287,1
305,305,299,287,1
302,304,298,289,1
301,304,297,292,1
301,304,297,296,1
303,304,298,301,1
305,304,300,306,1
307,303,302,312,1
309,303,303,316,1
310,304,304,316,1
310,304,304,314,1
309,305,304,312,1
310,308,304,311,1
311,309,305,309,1
311,310,305,307,1
308,310,305,306,1
306,310,306,305,1
304,309,307,305,1
305,309,308,304,1
306,308,309,304,1
308,307,309,304,1
310,306,308,305,1
311,305,307,306,1
310,304,306,306,1
304,302,304,306,1
296,300,303,307,1
289,298,302,307,1
283,297,300,308,1
278,296,299,310,1
277,296,299,314,1
283,296,300,320,1
294,297,302,325,1
307,299,305,330,1
320,301,308,331,1
332,304,311,328,1
338,306,313,322,1
339,307,313,315,1
335,309,313,308,1
332,309,312,301,1
329,308,312,294,1
326,307,311,289,1
323,306,310,286,1
319,305,308,285,1
313,302,307,284,1
309,300,306,286,1
306,298,306,288,1
308,298,307,292,1
311,299,309,296,1
313,300,310,299,1
315,300,311,302,1
315,300,312,305,1
314,301,312,308,1
312,303,313,312,1
311,304,312,315,1
309,305,310,317,1
306,305,308,318,1
304,304,306,318,1
303,303,305,318,1
302,302,306,316,1
303,301,307,313,1
302,301,308,308,1
301,302,307,304,1
301,303,307,300,1
301,302,305,297,1
300,301,305,294,1
299,299,305,294,1
300,298,306,296,1
304,298,307,300,1
307,298,308,306,1
311,299,310,312,1
314,301,310,317,1
315,303,308,319,1
316,304,304,318,1
316,304,300,314,1
316,304,298,309,1
317,303,298,304,1
319,303,300,301,1
319,302,304,297,1
316,301,306,294,1
312,300,306,292,1
308,299,307,292,1
304,298,309,292,1
303,298,310,294,1
301,298,310,296,1
299,298,310,298,1
298,297,308,301,1
298,298,307,304,1
297,298,308,308,1
294,300,310,311,1
290,301,312,315,1
291,303,313,317,1
296,306,315,318,1
302,308,316,318,1
306,310,317,315,1
307,312,316,309,1
306,312,315,303,1
306,312,313,298,1
307,312,310,295,1
308,312,308,293,1
309,312,306,292,1
308,311,305,292,1
305,311,305,293,1
304,310,305,294,1
303,309,305,297,1
303,307,306,300,1
304,305,307,304,1
304,303,307,308,1
305,302,307,311,1
306,303,308,314,1
307,304,309,317,1
307,305,309,319,1
308,306,309,320,1
306,306,308,318,1
303,306,306,314,1
299,306,305,310,1
297,305,303,306,1
296,304,302,302,1
299,303,301,298,1
301,303,301,295,1
303,302,301,294,1
305,302,301,297,1
306,302,300,303,1
306,302,300,312,1
307,303,300,320,1
307,302,300,326,1
307,301,300,329,1
306,301,301,330,1
306,301,301,328,1
306,301,302,326,1
306,302,302,322,1
304,303,302,319,1
303,305,303,317,1
302,307,304,316,1
302,309,307,315,1
302,312,308,314,1
301,315,309,312,1
301,316,308,311,1
300,316,306,310,1
300,314,304,308,1
300,311,303,305,1
300,309,302,301,1
301,306,300,298,1
302,304,300,294,1
303,302,300,291,1
304,300,300,288,1
305,298,297,287,1
304,297,294,286,1
304,296,291,287,1
304,297,291,290,1
305,298,294,294,1
306,300,298,298,1
306,302,301,300,1
306,305,302,301,1
306,306,302,300,1
305,307,301,299,1
304,308,301,296,1
303,307,301,294,1
301,307,301,293,1
300,307,301,294,1
301,307,303,297,1
303,306,304,301,1
303,305,306,304,1
302,304,307,307,1
301,303,306,309,1
301,302,306,311,1
301,300,305,312,1
305,299,306,315,1
315,299,307,319,1
323,301,308,322,1
327,303,308,327,1
324,306,306,331,1
319,309,303,335,1
314,313,302,338,1
309,315,302,339,1
306,316,302,337,1
304,317,303,334,1
303,316,306,329,1
301,315,309,322,1
300,313,310,314,1
298,311,310,306,1
297,308,308,297,1
295,306,306,291,1
291,304,304,287,1
288,302,303,287,1
286,302,303,295,1
288,301,304,305,1
290,301,305,315,1
293,301,307,323,1
295,303,309,328,1
296,304,311,329,1
298,305,312,327,1
305,306,313,323,1
314,307,312,318,1
321,308,310,312,1
323,308,308,307,1
321,308,305,302,1
318,309,304,297,1
314,310,302,293,1
309,312,302,291,1
304,313,302,292,1
300,313,301,295,1
297,314,300,299,1
296,315,299,302,1
294,314,297,304,1
294,312,295,304,1
296,309,293,302,1
301,306,291,299,1
306,303,292,298,1
311,302,293,297,1
313,301,296,298,1
314,302,300,301,1
315,303,304,304,1
314,304,307,306,1
312,307,309,308,1
310,308,310,307,1
308,310,310,307,1
307,310,310,307,1
306,310,309,307,1
307,310,308,308,1
308,308,308,309,1
309,307,307,311,1
311,306,306,313,1
313,305,305,315,1
314,303,304,317,1
313,302,304,317,1
310,300,304,317,1
305,299,305,317,1
301,300,306,319,1
299,300,307,323,1
299,302,307,327,1
299,303,307,330,1
300,306,307,333,1
303,308,307,335,1
310,311,307,336,1
319,313,306,335,1
324,313,304,331,1
324,311,302,323,1
320,309,300,315,1
315,307,299,306,1
310,305,299,299,1
307,304,300,293,1
307,302,302,289,1
307,301,303,289,1
310,300,305,291,1
313,299,306,294,1
314,299,306,297,1
313,299,306,299,1
310,299,305,301,1
307,300,305,303,1
306,302,304,304,1
305,304,304,304,1
303,306,303,306,1
302,308,302,308,1
299,310,301,311,1
297,311,301,315,1
296,311,302,320,1
297,311,303,327,1
297,310,303,331,1
298,309,303,334,1
301,308,302,333,1
307,307,298,332,1
312,306,296,327,1
317,305,295,320,1
320,304,297,312,1
322,304,298,306,1
323,305,300,302,1
323,305,302,302,1
321,305,304,306,1
320,306,306,314,1
317,306,309,321,1
315,306,310,325,1
315,306,309,324,1
314,306,306,319,1
314,306,301,312,1
313,306,298,305,1
311,306,295,299,1
309,305,295,294,1
306,305,297,290,1
305,304,300,288,1
306,303,302,288,1
307,303,304,289,1
307,303,305,291,1
305,303,305,294,1
302,303,305,296,1
300,303,305,300,1
301,303,305,303,1
304,302,306,306,1
308,302,307,309,1
313,303,307,311,1
316,303,307,312,1
318,304,307,312,1
318,306,307,312,1
316,307,308,312,1
311,308,309,312,1
303,308,309,312,1
292,308,309,311,1
282,307,309,309,1
281,306,308,307,1
289,305,306,303,1
300,304,305,299,1
310,303,304,293,1
318,303,303,287,1
323,302,303,283,1
323,300,302,284,1
322,299,302,288,1
319,298,302,292,1
315,297,304,296,1
311,297,305,299,1
308,298,307,301,1
307,300,309,303,1
306,303,311,304,1
306,306,312,305,1
311,309,313,307,1
317,311,313,311,1
322,312,313,314,1
321,312,313,318,1
317,312,312,321,1
312,310,311,323,1
306,307,309,320,1
300,303,306,316,1
296,299,303,309,1
294,296,299,302,1
292,295,295,295,1
291,294,294,291,1
290,293,294,290,1
290,293,296,292,1
290,294,298,294,1
292,294,301,297,1
296,296,304,299,1
301,297,305,303,1
306,299,306,310,1
310,302,308,321,1
312,305,309,331,1
313,308,310,337,1
311,311,311,337,1
310,313,310,332,1
308,313,309,324,1
306,312,308,315,1
305,310,307,306,1
304,308,306,300,1
303,307,305,296,1
302,306,304,294,1
302,305,302,294,1
301,303,299,295,1
301,302,297,298,1
301,300,297,303,1
303,300,298,307,1
305,299,301,311,1
306,299,304,313,1
306,299,306,315,1
306,300,308,317,1
304,301,310,319,1
301,303,311,319,1
297,304,310,318,1
294,305,310,316,1
294,306,309,315,1
295,307,307,312,1
297,307,304,309,1
303,306,300,304,1
311,305,297,298,1
318,304,293,291,1
322,302,291,286,1
324,300,290,283,1
325,298,291,281,1
325,296,293,280,1
325,294,297,280,1
326,292,301,281,1
326,290,304,283,1
326,290,307,288,1
323,292,310,294,1
319,294,312,300,1
317,297,313,306,1
315,300,314,311,1
313,303,314,314,1
311,306,315,318,1
307,309,315,320,1
304,312,315,322,1
300,313,315,324,1
298,314,313,327,1
297,314,311,329,1
297,314,309,329,1
298,314,305,327,1
299,313,300,321,1
299,310,296,313,1
301,308,296,304,1
302,304,298,296,1
303,302,301,290,1
304,300,304,289,1
304,300,306,292,1
304,301,308,295,1
304,302,310,298,1
302,305,311,301,1
300,308,313,301,1
301,310,313,298,1
304,311,312,296,1
306,312,310,296,1
308,312,308,299,1
309,312,306,303,1
309,312,305,308,1
310,312,304,314,1
310,312,304,317,1
311,311,304,319,1
311,309,303,317,1
310,307,303,312,1
310,304,303,307,1
310,302,303,301,1
310,299,302,298,1
308,298,302,296,1
304,297,302,294,1
300,297,302,293,1
300,299,303,292,1
302,301,304,292,1
303,304,304,292,1
302,306,304,291,1
300,308,304,289,1
297,310,303,287,1
294,312,302,286,1
292,312,301,286,1
293,313,301,287,1
297,313,301,290,1
302,314,301,294,1
307,313,302,298,1
311,311,302,302,1
314,309,302,306,1
316,308,301,312,1
318,307,302,316,1
319,306,304,320,1
321,306,306,323,1
321,306,308,323,1
320,307,308,323,1
320,308,308,322,1
318,310,308,320,1
316,311,307,318,1
313,312,305,316,1
310,313,304,314,1
306,313,303,311,1
301,312,303,309,1
296,311,303,309,1
292,310,303,310,1
289,309,303,311,1
288,308,302,310,1
292,306,299,307,1
299,304,296,302,1
306,301,294,298,1
311,299,291,295,1
314,298,288,294,1
313,297,288,294,1
312,298,289,298,1
312,300,293,303,1
312,303,299,308,1
312,306,305,314,1
312,309,310,318,1
311,310,314,320,1
308,311,316,322,1
304,311,315,324,1
300,312,312,325,1
298,312,309,327,1
297,311,308,328,1
298,311,308,327,1
300,310,308,326,1
304,310,308,324,1
306,309,307,323,1
308,307,307,322,1
309,307,307,320,1
308,306,308,316,1
309,305,308,311,1
308,304,308,308,1
308,305,309,309,1
307,307,309,313,1
307,308,310,319,1
306,310,311,327,1
305,312,312,335,1
304,313,312,340,1
303,314,312,341,1
303,315,312,339,1
304,315,311,334,1
304,314,311,325,1
304,313,310,314,1
303,312,308,302,1
303,310,306,292,1
305,309,304,286,1
305,307,303,283,1
304,306,302,283,1
303,304,302,283,1
303,301,302,284,1
304,299,302,286,1
305,296,302,288,1
306,295,302,291,1
308,295,303,296,1
309,295,304,301,1
310,297,305,306,1
309,299,307,308,1
307,302,307,307,1
305,304,307,305,1
302,306,306,303,1
299,308,306,303,1
296,310,306,303,1
291,310,306,302,1
287,309,305,301,1
288,308,305,301,1
295,308,305,302,1
305,307,306,304,1
314,307,307,307,1
319,306,307,310,1
321,305,306,314,1
321,304,304,319,1
320,303,301,324,1
320,303,299,328,1
320,304,301,329,1
322,306,305,330,1
323,307,307,331,1
325,309,309,333,1
326,309,310,333,1
323,309,310,332,1
320,309,310,329,1
317,309,310,325,1
313,309,309,322,1
307,309,308,317,1
302,310,308,312,1
297,309,307,308,1
291,309,305,303,1
287,308,302,300,1
288,307,300,298,1
293,305,298,297,1
299,304,298,297,1
303,304,298,298,1
307,303,300,300,1
310,303,301,303,1
311,304,303,305,1
311,305,304,305,1
311,306,305,304,1
310,307,305,300,1
308,307,305,297,1
305,308,305,295,1
303,309,305,296,1
301,310,305,299,1
300,311,305,302,1
300,312,304,304,1
300,312,304,306,1
301,313,304,307,1
302,313,305,308,1
303,313,306,310,1
303,312,306,313,1
304,308,305,315,1
307,306,302,318,1
311,302,299,321,1
314,300,298,321,1
316,298,297,320,1
316,298,298,318,1
314,298,301,313,1
312,300,305,308,1
309,302,308,302,1
306,303,310,295,1
306,304,311,289,1
306,305,311,286,1
306,305,311,285,1
307,305,311,286,1
307,306,311,288,1
307,306,312,291,1
306,307,314,296,1
304,308,314,301,1
303,309,313,305,1
301,308,312,308,1
298,307,312,309,1
296,305,311,310,1
296,302,310,312,1
298,300,310,313,1
302,298,312,316,1
305,298,312,318,1
306,298,313,321,1
306,299,313,321,1
306,301,312,319,1
304,302,311,313,1
303,303,308,305,1
301,304,305,298,1
300,306,302,294,1
302,307,302,292,1
306,309,303,293,1
309,310,305,296,1
310,311,306,301,1
309,311,307,307,1
308,311,307,311,1
306,310,306,312,1
305,309,305,310,1
305,307,304,308,1
307,305,303,304,1
310,303,302,302,1
312,302,301,301,1
314,302,302,301,1
315,303,304,304,1
313,305,305,307,1
309,306,307,308,1
304,307,307,308,1
300,308,306,307,1
297,309,305,304,1
293,309,303,302,1
291,309,303,299,1
294,308,304,298,1
300,308,305,301,1
305,309,306,304,1
308,309,307,309,1
309,310,307,313,1
309,310,307,315,1
308,311,306,317,1
307,310,305,319,1
309,311,305,320,1
312,310,306,321,1
314,308,306,318,1
313,306,307,316,1
310,304,307,313,1
305,302,308,310,1
301,302,308,305,1
296,302,309,300,1
292,302,309,297,1
289,302,308,295,1
289,302,308,295,1
290,303,307,298,1
292,303,307,301,1
296,304,306,303,1
299,305,305,304,1
304,305,305,304,1
310,305,304,304,1
315,305,305,302,1
317,304,305,301,1
315,303,306,300,1
311,302,307,301,1
307,301,308,304,1
305,300,308,311,1
303,300,308,319,1
302,300,307,325,1
300,301,305,328,1
297,303,304,328,1
295,305,303,325,1
294,307,304,322,1
296,309,306,318,1
298,311,308,315,1
301,312,310,315,1
305,312,311,317,1
309,313,311,321,1
312,312,311,324,1
314,310,310,324,1
313,308,308,321,1
310,306,303,315,1
307,304,299,308,1
306,302,296,303,1
306,301,294,301,1
306,300,293,303,1
306,300,293,307,1
308,301,295,312,1
310,302,299,316,1
312,304,304,319,1
313,306,307,320,1
313,308,310,317,1
312,308,311,311,1
310,307,310,303,1
308,306,308,295,1
308,305,307,288,1
308,304,306,284,1
307,303,306,284,1
307,304,306,289,1
306,305,305,297,1
306,306,306,305,1
306,306,307,310,1
306,305,308,314,1
307,304,308,315,1
307,302,308,317,1
308,301,306,317,1
310,301,306,316,1
312,302,305,315,1
315,302,306,313,1
317,303,306,310,1
319,304,306,307,1
321,304,306,303,1
320,304,305,300,1
318,305,306,298,1
313,305,306,298,1
306,306,306,301,1
299,307,306,304,1
293,307,306,308,1
290,306,307,312,1
289,306,307,314,1
290,306,306,314,1
293,304,306,312,1
297,302,306,309,1
302,301,307,304,1
306,300,307,301,1
308,300,307,298,1
310,301,308,299,1
311,303,309,302,1
313,306,311,307,1
314,310,312,315,1
315,313,312,322,1
315,315,314,329,1
313,317,315,332,1
310,317,316,333,1
305,318,315,331,1
300,318,313,329,1
294,316,310,328,1
289,314,307,325,1
287,312,304,322,1
287,310,301,318,1
288,307,300,315,1
289,304,299,311,1
293,301,299,307,1
296,298,299,303,1
300,295,299,300,1
303,294,300,298,1
307,294,301,296,1
311,294,301,294,1
313,295,301,292,1
314,298,302,291,1
313,300,303,291,1
312,302,304,291,1
312,304,304,291,1
310,305,305,291,1
310,306,305,291,1
309,306,306,292,1
309,307,307,296,1
307,306,309,301,1
307,306,310,307,1
305,306,311,313,1
305,306,311,318,1
304,305,311,322,1
303,305,311,323,1
303,304,310,324,1
303,303,309,323,1
304,301,309,322,1
307,301,309,324,1
314,301,310,327,1
319,302,312,330,1
322,304,312,333,1
322,306,311,334,1
321,308,308,334,1
320,309,306,334,1
318,310,303,333,1
316,310,300,330,1
312,311,297,323,1
311,311,297,317,1
311,312,299,312,1
311,312,304,308,1
311,311,308,304,1
309,309,309,301,1
308,307,309,297,1
307,304,307,293,1
305,300,306,288,1
302,297,305,284,1
299,295,303,280,1
297,294,303,278,1
296,295,303,278,1
297,296,304,280,1
299,299,306,283,1
300,302,308,286,1
301,304,308,289,1
301,306,308,293,1
301,307,307,298,1
303,307,307,303,1
304,308,306,309,1
305,309,307,315,1
305,310,308,321,1
304,310,310,326,1
304,311,312,331,1
303,312,313,336,1
303,313,314,339,1
303,314,315,342,1
303,316,315,344,1
305,315,315,344,1
307,314,314,341,1
308,311,312,336,1
310,307,310,330,1
312,303,306,322,1
312,301,304,314,1
311,300,301,309,1
310,299,300,305,1
313,299,300,302,1
314,300,300,300,1
310,301,299,298,1
304,302,298,295,1
299,302,298,292,1
294,302,298,289,1
294,301,297,288,1
296,301,298,288,1
300,301,298,289,1
301,300,298,290,1
301,299,298,291,1
301,298,300,293,1
300,297,301,295,1
300,297,303,299,1
302,298,304,305,1
308,299,306,313,1
313,301,307,320,1
317,304,307,324,1
318,306,306,325,1
317,308,306,323,1
314,309,305,321,1
312,310,304,317,1
309,311,303,315,1
307,311,303,313,1
308,311,303,314,1
311,310,302,315,1
314,309,301,319,1
319,309,301,322,1
322,308,302,322,1
323,306,303,320,1
321,303,304,315,1
315,301,304,309,1
307,299,302,304,1
298,296,301,300,1
293,295,299,298,1
295,295,300,300,1
302,296,300,301,1
308,299,300,302,1
312,301,299,302,1
312,304,299,302,1
311,307,299,304,1
309,309,301,308,1
306,312,303,313,1
305,313,306,318,1
304,314,310,320,1
303,313,313,321,1
303,312,314,321,1
303,311,315,318,1
304,309,314,314,1
304,307,313,307,1
305,305,312,301,1
304,303,310,297,1
304,302,309,295,1
303,301,307,294,1
303,300,306,295,1
304,300,305,297,1
305,300,305,299,1
307,300,305,302,1
310,301,306,305,1
312,301,306,308,1
313,302,304,310,1
313,302,302,308,1
313,302,300,307,1
314,302,301,308,1
312,302,303,307,1
306,301,304,306,1
299,301,305,306,1
298,301,305,309,1
305,302,306,314,1
312,303,307,320,1
314,303,309,327,1
311,303,310,332,1
304,303,310,336,1
297,302,309,336,1
291,301,307,332,1
291,301,305,326,1
295,301,304,317,1
301,300,302,309,1
305,300,299,302,1
306,301,296,295,1
307,302,294,291,1
309,303,295,289,1
311,304,297,288,1
313,305,298,289,1
315,306,299,291,1
318,308,300,293,1
319,308,300,295,1
318,308,300,296,1
317,309,300,297,1
315,308,299,297,1
313,306,298,296,1
311,303,298,295,1
310,300,298,294,1
308,298,298,295,1
306,297,299,297,1
304,296,300,298,1
302,296,301,301,1
300,298,301,304,1
301,301,301,310,1
307,305,301,319,1
314,309,302,329,1
319,312,302,336,1
322,314,301,341,1
322,315,301,342,1
322,316,302,341,1
322,315,304,338,1
321,314,305,334,1
319,312,304,328,1
317,310,301,321,1
316,308,297,314,1
317,306,294,307,1
318,304,293,302,1
318,303,293,298,1
318,303,295,295,1
316,304,299,296,1
313,305,303,297,1
311,306,307,299,1
309,308,310,300,1
308,310,312,301,1
307,312,312,299,1
306,312,312,298,1
306,312,311,295,1
305,311,310,293,1
304,310,308,291,1
304,309,307,290,1
304,308,306,288,1
304,306,305,288,1
305,304,305,289,1
305,303,304,290,1
305,302,303,293,1
306,301,302,297,1
307,300,302,301,1
308,299,302,305,1
309,298,303,309,1
310,298,305,315,1
311,299,307,322,1
311,300,309,329,1
312,302,312,335,1
312,305,314,337,1
313,306,315,336,1
313,308,313,334,1
313,309,309,333,1
312,310,305,333,1
313,310,302,333,1
313,309,302,332,1
307,307,300,329,1
293,306,297,327,1
284,306,296,324,1
285,305,297,319,1
292,305,299,312,1
298,304,301,305,1
303,303,303,300,1
307,303,304,297,1
310,302,305,296,1
314,302,305,297,1
318,303,305,299,1
320,303,306,299,1
321,303,306,299,1
322,303,307,299,1
321,303,307,298,1
318,304,307,297,1
313,304,306,298,1
309,304,305,300,1
304,304,304,302,1
302,304,303,304,1
300,305,303,306,1
298,305,303,306,1
297,305,302,307,1
296,305,302,307,1
297,305,301,308,1
299,304,301,307,1
302,303,302,306,1
305,302,302,304,1
310,301,303,303,1
313,301,305,302,1
315,301,306,304,1
316,302,308,310,1
317,303,309,318,1
318,305,308,326,1
319,307,308,330,1
321,308,307,332,1
326,309,306,330,1
332,310,305,327,1
336,311,303,324,1
340,310,300,320,1
341,310,298,315,1
339,309,294,308,1
332,307,292,301,1
321,305,289,292,1
310,302,289,286,1
303,301,293,284,1
299,301,300,284,1
296,301,305,286,1
293,301,309,288,1
290,301,312,291,1
288,302,313,295,1
287,303,314,298,1
287,305,314,301,1
290,308,314,303,1
295,311,313,304,1
300,312,311,303,1
304,313,309,302,1
306,313,308,301,1
307,314,306,300,1
308,314,304,297,1
309,314,303,295,1
309,314,303,293,1
310,313,302,292,1
309,312,302,292,1
309,310,302,293,1
308,309,302,296,1
309,308,304,300,1
310,307,305,307,1
311,307,306,316,1
312,307,307,325,1
312,308,308,332,1
313,310,309,337,1
314,312,309,340,1
315,314,309,338,1
316,315,308,334,1
316,317,305,327,1
316,317,301,319,1
314,316,297,310,1
308,313,294,302,1
299,309,293,295,1
289,305,294,291,1
281,303,295,290,1
277,301,297,291,1
277,300,299,294,1
279,300,300,299,1
283,300,301,303,1
289,300,301,306,1
298,300,303,309,1
307,300,305,311,1
314,301,307,313,1
316,301,309,313,1
315,302,311,313,1
310,304,312,312,1
304,306,314,312,1
296,308,315,312,1
289,309,314,311,1
287,310,313,308,1
291,310,312,305,1
299,310,311,302,1
306,310,310,298,1
309,310,310,296,1
311,310,310,295,1
311,309,310,295,1
310,308,310,296,1
307,307,310,298,1
304,306,309,300,1
302,304,308,303,1
301,303,308,306,1
301,303,308,309,1
301,303,309,311,1
301,303,309,311,1
299,304,309,308,1
300,304,308,305,1
305,305,308,302,1
311,307,307,298,1
314,308,305,297,1
316,309,301,297,1
316,309,298,299,1
315,309,295,301,1
313,308,292,304,1
308,306,289,306,1
303,304,289,309,1
298,304,290,309,1
294,303,293,310,1
292,303,297,310,1
292,303,301,310,1
293,302,304,311,1
293,302,306,312,1
295,301,307,312,1
300,302,309,313,1
306,303,312,315,1
310,305,314,317,1
313,307,317,318,1
313,309,318,318,1
313,311,319,316,1
311,312,318,314,1
309,312,317,311,1
306,312,315,308,1
304,311,313,305,1
302,311,311,302,1
302,311,309,298,1
304,310,309,295,1
307,310,308,292,1
310,309,308,287,1
314,308,308,283,1
316,307,307,281,1
316,305,306,283,1
313,304,304,287,1
306,303,302,294,1
299,303,302,303,1
294,303,303,311,1
290,304,305,316,1
289,306,308,316,1
291,306,309,311,1
293,307,308,304,1
296,307,307,298,1
298,308,306,294,1
299,309,306,291,1
299,310,306,292,1
298,311,306,295,1
298,312,307,298,1
297,312,308,300,1
297,312,309,301,1
296,311,310,300,1
296,309,310,299,1
297,307,309,296,1
297,304,308,294,1
300,301,308,294,1
302,299,308,295,1
305,298,308,298,1
307,299,309,302,1
310,301,310,308,1
312,304,311,314,1
315,308,312,320,1
317,312,312,323,1
317,314,312,324,1
316,315,310,321,1
313,315,309,317,1
308,314,307,310,1
304,312,305,302,1
303,311,303,294,1
302,309,302,288,1
302,308,301,285,1
302,307,300,284,1
302,305,301,286,1
301,305,301,289,1
300,304,301,294,1
298,304,301,297,1
295,304,300,300,1
294,305,300,302,1
296,306,302,304,1
300,308,305,307,1
304,310,307,310,1
305,312,309,311,1
307,313,310,313,1
310,314,310,315,1
313,314,310,317,1
314,315,310,318,1
314,315,310,317,1
313,315,310,315,1
312,315,309,313,1
312,315,309,313,1
313,316,309,312,1
314,316,309,312,1
315,316,310,312,1
315,314,310,310,1
313,313,309,307,1
311,310,309,305,1
308,308,309,303,1
306,307,310,303,1
303,306,310,305,1
302,306,311,313,1
302,308,313,323,1
301,310,313,332,1
300,312,313,339,1
299,314,314,342,1
299,314,314,342,1
298,313,313,337,1
298,312,313,330,1
298,310,312,321,1
300,309,311,314,1
304,307,309,306,1
309,306,308,301,1
313,305,307,295,1
316,303,307,289,1
317,300,306,283,1
316,297,302,277,1
314,294,298,272,1
313,293,295,271,1
314,292,294,273,1
317,294,295,276,1
317,297,298,280,1
315,301,301,285,1
311,305,306,291,1
307,310,310,298,1
306,313,313,305,1
305,316,316,311,1
304,317,317,314,1
303,317,317,317,1
302,317,317,319,1
302,316,317,322,1
302,316,316,325,1
303,315,316,326,1
303,314,315,324,1
302,313,313,320,1
301,311,311,317,1
301,309,310,316,1
301,307,308,314,1
302,305,306,313,1
304,303,305,310,1
305,302,305,307,1
307,301,305,305,1
307,302,305,301,1
306,303,303,296,1
304,304,300,291,1
302,304,299,289,1
300,304,299,288,1
299,304,300,290,1
298,305,302,291,1
299,306,303,292,1
301,307,304,292,1
303,307,304,292,1
305,307,304,291,1
306,308,304,290,1
306,307,304,290,1
305,306,303,291,1
304,305,303,294,1
303,303,305,296,1
302,302,306,299,1
300,301,307,301,1
297,301,307,302,1
294,302,307,303,1
293,304,307,305,1
294,306,307,305,1
297,308,307,305,1
301,309,307,305,1
303,311,306,307,1
304,312,305,309,1
305,312,304,312,1
308,312,306,315,1
313,313,307,318,1
316,313,309,318,1
317,312,309,315,1
314,311,309,310,1
311,310,308,305,1
308,308,306,301,1
307,306,304,298,1
306,304,302,298,1
306,303,301,299,1
306,302,300,301,1
307,301,302,306,1
308,302,304,313,1
308,304,307,321,1
306,305,310,327,1
301,307,312,331,1
296,310,314,331,1
291,311,314,333,1
289,313,314,334,1
290,313,312,335,1
292,313,310,335,1
294,311,308,333,1
298,310,306,329,1
301,308,304,324,1
303,306,301,318,1
305,305,299,311,1
305,303,298,304,1
306,302,298,298,1
307,301,299,293,1
309,301,300,291,1
311,301,302,290,1
314,301,304,290,1
316,302,305,290,1
317,303,307,290,1
316,303,308,290,1
316,304,309,290,1
315,304,308,291,1
314,304,306,293,1
311,304,304,294,1
305,304,303,295,1
301,303,303,296,1
301,303,304,298,1
302,303,304,300,1
301,302,305,302,1
300,301,304,306,1
302,300,304,311,1
307,300,302,316,1
312,299,300,322,1
315,300,297,327,1
316,302,296,330,1
315,303,297,331,1
314,305,300,330,1
311,307,305,329,1
308,309,310,327,1
304,312,313,326,1
299,314,315,324,1
296,315,315,321,1
295,316,315,319,1
295,315,314,317,1
294,314,313,315,1
294,312,312,315,1
294,311,312,316,1
294,311,311,316,1
293,310,311,316,1
291,308,311,316,1
287,306,309,314,1
283,303,308,313,1
283,302,306,311,1
288,300,305,310,1
295,298,306,307,1
301,298,306,305,1
307,298,307,303,1
311,299,309,301,1
313,300,310,299,1
314,302,310,298,1
313,303,310,296,1
310,304,310,296,1
307,305,308,297,1
305,305,306,300,1
302,305,305,303,1
301,305,303,305,1
301,304,303,307,1
301,304,303,310,1
301,303,305,312,1
301,303,307,316,1
302,302,309,319,1
303,301,311,322,1
304,301,311,324,1
305,300,311,324,1
305,299,310,322,1
303,297,309,318,1
299,297,309,315,1
297,298,310,311,1
296,299,311,308,1
296,301,312,305,1
296,303,312,301,1
296,305,311,298,1
299,306,311,295,1
303,308,311,295,1
309,310,311,296,1
315,311,311,300,1
318,312,310,302,1
318,311,309,304,1
316,309,307,306,1
314,306,306,305,1
310,304,305,303,1
307,301,303,301,1
303,299,301,299,1
302,297,300,298,1
303,297,300,296,1
308,296,302,294,1
314,297,305,293,1
321,298,308,293,1
325,299,309,295,1
326,300,310,296,1
322,301,310,296,1
317,302,311,298,1
313,304,312,301,1
308,306,312,304,1
303,307,312,307,1
297,309,312,310,1
293,309,312,313,1
289,310,311,316,1
288,311,311,320,1
290,310,310,326,1
295,309,309,331,1
302,308,308,334,1
309,306,308,335,1
315,305,307,333,1
318,305,307,332,1
318,305,308,332,1
315,306,309,334,1
311,307,310,334,1
307,308,310,332,1
303,310,308,328,1
302,311,306,324,1
304,312,303,319,1
306,312,300,315,1
307,312,298,310,1
308,312,297,303,1
309,310,298,297,1
309,309,301,291,1
307,307,304,288,1
304,305,306,284,1
300,303,307,281,1
296,300,308,278,1
293,298,309,278,1
291,296,310,279,1
291,295,310,281,1
294,294,310,285,1
299,295,311,292,1
304,296,312,300,1
308,298,314,308,1
310,302,315,317,1
312,305,315,325,1
312,309,315,330,1
312,311,314,332,1
311,312,313,330,1
310,313,312,326,1
310,314,312,320,1
309,313,311,314,1
307,312,309,309,1
304,311,307,305,1
302,309,305,302,1
301,308,304,299,1
301,306,302,297,1
303,304,300,295,1
305,302,298,294,1
308,301,298,294,1
310,300,299,296,1
310,299,301,299,1
309,300,303,301,1
305,300,305,303,1
301,301,305,303,1
300,302,306,303,1
302,303,306,301,1
305,304,305,300,1
307,305,303,299,1
309,305,301,299,1
308,305,300,299,1
305,304,298,299,1
301,303,298,299,1
297,303,299,300,1
294,303,301,303,1
295,303,303,305,1
300,303,304,308,1
307,303,306,310,1
313,303,306,313,1
317,303,306,315,1
318,303,306,317,1
316,303,306,319,1
314,304,306,322,1
312,306,307,325,1
312,309,309,327,1
313,311,310,330,1
312,314,311,330,1
312,314,311,329,1
310,315,311,325,1
309,314,309,321,1
309,313,308,318,1
310,313,307,317,1
310,313,307,318,1
308,313,307,321,1
305,313,306,324,1
303,313,306,325,1
300,312,306,324,1
300,311,305,326,1
299,310,305,328,1
301,309,305,331,1
303,308,304,333,1
306,308,302,335,1
308,309,301,337,1
309,310,303,337,1
311,311,305,335,1
314,311,308,330,1
318,312,308,325,1
319,311,308,317,1
319,310,307,308,1
315,309,305,297,1
309,306,304,286,1
299,304,303,276,1
290,302,303,269,1
285,301,303,266,1
281,301,303,267,1
281,302,304,270,1
283,303,304,273,1
288,303,304,276,1
291,302,304,278,1
294,301,305,280,1
300,300,306,282,1
306,300,307,285,1
310,301,306,288,1
312,303,305,292,1
311,304,302,295,1
309,307,297,299,1
307,309,294,302,1
305,311,293,306,1
304,314,297,309,1
303,315,301,312,1
302,315,306,314,1
299,314,308,317,1
297,312,308,317,1
295,309,306,316,1
293,306,305,314,1
294,304,305,311,1
295,302,305,309,1
296,301,305,307,1
298,301,306,304,1
300,301,305,300,1
302,300,305,298,1
304,300,306,296,1
306,301,306,296,1
306,302,306,297,1
305,303,307,299,1
303,305,309,300,1
301,306,309,301,1
299,308,309,300,1
298,309,309,300,1
298,309,309,300,1
297,309,309,300,1
297,309,309,301,1
295,309,310,300,1
292,309,309,300,1
288,308,309,299,1
287,306,309,300,1
290,305,308,301,1
296,303,309,302,1
304,302,310,305,1
314,302,311,308,1
321,302,312,314,1
326,303,312,319,1
329,303,311,324,1
329,304,311,330,1
328,306,311,336,1
325,309,312,341,1
322,310,312,342,1
318,310,312,340,1
314,309,310,335,1
308,309,308,326,1
304,308,306,316,1
300,307,304,308,1
298,306,302,303,1
298,305,301,299,1
300,304,302,297,1
301,304,303,294,1
302,304,305,291,1
303,304,306,290,1
303,303,306,291,1
302,302,306,293,1
302,302,307,297,1
301,302,308,302,1
298,303,308,308,1
296,306,309,316,1
295,309,311,329,1
294,312,314,341,1
292,314,315,348,1
290,315,315,349,1
288,314,314,343,1
285,314,313,334,1
284,313,312,322,1
287,312,311,310,1
291,311,309,298,1
296,310,307,289,1
300,309,305,283,1
302,308,304,278,1
302,306,303,273,1
303,303,303,272,1
303,301,303,272,1
305,299,304,273,1
306,298,305,276,1
308,298,306,279,1
309,299,307,282,1
310,302,307,287,1
310,304,307,294,1
309,306,308,301,1
306,308,308,305,1
304,310,307,307,1
301,310,306,306,1
298,310,305,303,1
296,308,306,301,1
293,307,307,297,1
290,305,307,293,1
288,304,307,291,1
286,303,307,289,1
283,302,306,288,1
284,301,306,287,1
291,300,306,286,1
298,300,306,287,1
303,299,307,288,1
307,299,308,289,1
308,300,309,293,1
308,302,310,298,1
307,303,311,304,1
308,305,312,310,1
307,307,313,314,1
307,309,312,317,1
306,310,312,318,1
306,311,311,319,1
307,311,311,321,1
307,312,310,323,1
308,312,309,324,1
308,312,308,323,1
307,312,306,320,1
305,311,305,318,1
304,310,303,315,1
302,308,302,312,1
300,306,302,310,1
298,304,302,309,1
295,303,302,308,1
293,302,303,307,1
293,301,304,307,1
294,301,305,308,1
296,302,307,308,1
299,303,308,307,1
302,305,308,307,1
304,306,308,306,1
306,308,307,305,1
307,310,306,305,1
308,311,305,305,1
309,312,302,305,1
308,312,300,306,1
307,313,297,308,1
306,312,295,310,1
303,311,295,312,1
301,310,296,314,1
300,309,299,319,1
302,308,301,327,1
305,307,302,335,1
308,306,303,339,1
308,305,305,340,1
307,305,308,338,1
306,306,311,333,1
307,307,313,326,1
309,310,314,318,1
309,312,312,308,1
307,311,310,298,1
304,310,308,289,1
300,308,307,285,1
297,308,307,283,1
295,307,308,282,1
295,305,308,281,1
296,303,307,280,1
298,301,306,280,1
301,299,305,280,1
304,297,304,281,1
306,297,304,281,1
306,296,302,282,1
305,296,300,284,1
305,297,299,289,1
306,299,299,295,1
308,301,302,303,1
310,303,305,309,1
311,305,307,314,1
311,307,310,317,1
310,308,310,318,1
308,309,310,317,1
307,310,309,314,1
305,311,309,311,1
304,312,308,309,1
303,312,308,309,1
303,312,308,309,1
302,311,307,309,1
299,310,306,307,1
295,309,304,303,1
290,308,303,299,1
286,307,301,297,1
283,305,299,297,1
287,304,298,300,1
292,302,297,304,1
299,301,297,309,1
303,301,298,313,1
306,301,300,314,1
309,302,302,314,1
311,304,304,311,1
313,305,306,309,1
315,307,307,307,1
319,309,309,308,1
321,311,309,310,1
321,313,308,314,1
318,314,306,318,1
314,314,303,321,1
312,314,302,321,1
310,313,301,320,1
307,313,300,318,1
304,314,300,315,1
300,313,299,312,1
297,312,298,309,1
295,311,296,306,1
293,309,294,303,1
295,306,294,301,1
299,304,295,299,1
303,303,297,297,1
305,303,300,297,1
307,305,304,298,1
307,308,307,299,1
307,310,309,299,1
305,311,308,299,1
304,312,306,299,1
303,311,305,298,1
304,310,304,297,1
305,309,304,297,1
308,308,303,297,1
310,307,302,296,1
311,306,302,293,1
311,303,301,292,1
308,301,299,290,1
305,299,298,291,1
303,298,297,291,1
302,297,297,292,1
302,297,296,295,1
302,298,295,298,1
304,299,295,304,1
308,299,295,311,1
311,301,295,318,1
313,303,295,324,1
314,305,298,328,1
313,307,302,328,1
312,308,306,326,1
312,308,309,322,1
310,309,311,318,1
307,309,311,313,1
303,309,311,311,1
300,309,312,312,1
300,309,312,314,1
300,310,312,315,1
300,310,312,315,1
302,309,311,314,1
304,308,310,312,1
306,307,309,309,1
309,307,309,308,1
312,307,307,308,1
313,308,306,309,1
312,310,306,310,1
311,311,307,312,1
308,312,306,314,1
303,312,305,314,1
298,312,305,311,1
296,313,304,306,1
296,313,304,298,1
298,312,301,289,1
300,312,299,283,1
301,312,299,278,1
301,311,299,278,1
304,312,299,280,1
308,312,299,284,1
310,312,300,288,1
311,311,300,291,1
311,309,301,296,1
313,307,302,301,1
315,305,304,308,1
316,305,306,314,1
317,304,307,319,1
316,305,308,324,1
314,306,308,328,1
311,309,308,331,1
307,311,309,333,1
304,313,311,335,1
300,315,313,336,1
299,315,314,334,1
301,314,313,328,1
305,312,311,321,1
309,310,308,313,1
309,307,306,306,1
306,306,304,303,1
301,305,302,300,1
295,305,300,298,1
292,304,298,295,1
290,303,297,292,1
290,302,297,290,1
292,301,297,290,1
297,300,298,292,1
303,300,300,293,1
307,301,302,294,1
308,302,305,294,1
308,304,306,295,1
306,307,307,296,1
305,308,307,297,1
303,309,305,299,1
301,309,304,300,1
299,309,303,301,1
298,310,303,303,1
297,311,304,307,1
296,312,304,309,1
295,311,304,310,1
296,310,304,310,1
300,307,305,310,1
304,305,306,308,1
307,302,306,308,1
309,301,307,308,1
310,299,307,308,1
311,299,307,307,1
310,300,307,310,1
310,301,306,315,1
312,303,304,321,1
315,306,302,325,1
318,309,302,326,1
320,311,301,325,1
321,313,302,323,1
322,314,304,319,1
322,314,308,316,1
322,315,312,313,1
320,315,314,310,1
315,315,314,308,1
309,314,314,305,1
304,312,312,301,1
301,309,311,298,1
299,307,310,298,1
299,305,309,300,1
298,305,308,304,1
296,304,308,309,1
293,305,308,316,1
288,306,309,322,1
284,308,310,326,1
282,310,309,329,1
283,311,309,328,1
287,312,309,325,1
292,312,310,322,1
297,312,311,319,1
303,312,312,318,1
310,313,313,317,1
314,313,312,316,1
314,312,309,315,1
310,310,305,314,1
306,308,303,311,1
303,306,302,307,1
302,304,301,301,1
303,303,301,296,1
304,302,300,292,1
306,301,299,290,1
307,300,296,291,1
308,301,291,295,1
309,302,291,301,1
313,305,295,306,1
315,306,300,309,1
315,308,305,309,1
312,309,309,308,1
307,310,311,307,1
301,311,311,307,1
296,311,310,307,1
292,311,308,308,1
289,312,309,309,1
288,312,311,310,1
288,312,312,311,1
291,310,313,310,1
297,308,311,308,1
302,306,308,303,1
306,303,304,299,1
310,301,300,299,1
313,299,296,304,1
314,298,291,312,1
312,298,286,320,1
311,299,286,328,1
310,301,289,335,1
309,303,295,340,1
310,305,302,343,1
311,307,307,343,1
312,309,309,340,1
312,309,310,334,1
310,308,310,325,1
308,307,311,313,1
306,306,312,301,1
306,304,312,289,1
305,304,312,281,1
302,302,310,275,1
296,302,308,271,1
289,301,306,269,1
282,300,304,269,1
280,299,302,271,1
281,299,301,274,1
287,300,302,280,1
293,300,303,287,1
301,301,305,295,1
308,303,307,303,1
314,305,309,310,1
318,308,310,315,1
319,310,310,317,1
320,311,310,317,1
321,312,309,316,1
321,312,308,314,1
320,311,306,310,1
317,309,304,307,1
314,307,303,304,1
309,305,301,301,1
305,303,301,298,1
303,300,301,295,1
302,298,301,293,1
301,297,301,292,1
299,296,301,291,1
297,296,301,290,1
295,296,301,290,1
294,296,302,291,1
294,296,302,292,1
293,297,302,294,1
294,298,303,295,1
296,299,304,296,1
299,302,304,297,1
301,303,303,297,1
302,304,303,299,1
301,305,303,300,1
300,306,304,302,1
300,308,306,305,1
300,308,308,309,1
300,308,310,313,1
299,308,310,316,1
298,306,309,318,1
297,304,307,317,1
296,302,305,314,1
295,300,303,310,1
295,297,303,306,1
296,297,304,305,1
297,297,306,308,1
297,298,307,312,1
298,300,308,317,1
303,302,308,321,1
310,304,307,325,1
314,306,307,329,1
312,307,306,334,1
307,308,305,337,1
303,308,303,337,1
301,307,301,331,1
300,305,297,323,1
300,303,292,316,1
299,301,286,312,1
298,300,283,311,1
296,300,283,312,1
293,299,284,311,1
288,299,284,311,1
284,300,288,311,1
283,301,293,312,1
285,302,299,315,1
292,304,304,318,1
302,307,308,323,1
313,309,311,325,1
322,311,310,325,1
325,311,307,322,1
324,310,302,319,1
323,309,301,316,1
320,308,302,312,1
316,307,303,307,1
311,306,304,302,1
308,305,305,298,1
306,304,306,294,1
307,305,306,293,1
307,305,307,293,1
307,305,306,294,1
308,305,305,296,1
308,304,305,299,1
309,303,305,302,1
308,302,306,305,1
306,302,306,308,1
304,303,307,311,1
302,304,308,313,1
302,307,310,315,1
303,309,311,317,1
304,310,311,316,1
307,311,309,315,1
310,312,308,314,1
312,311,307,316,1
310,311,306,320,1
306,311,305,325,1
303,312,306,330,1
301,313,307,334,1
300,313,307,336,1
301,312,306,334,1
303,310,305,330,1
306,309,305,326,1
309,306,305,323,1
311,303,306,320,1
312,300,306,318,1
312,298,304,315,1
309,296,300,309,1
304,295,296,303,1
298,295,294,297,1
294,296,295,292,1
292,298,297,289,1
292,300,300,288,1
291,302,301,288,1
292,304,301,289,1
294,306,302,292,1
297,307,302,296,1
299,308,302,301,1
300,309,304,306,1
299,310,306,311,1
296,311,308,317,1
290,310,308,324,1
286,309,306,330,1
287,308,307,336,1
292,308,307,343,1
296,308,309,348,1
299,309,308,349,1
302,308,307,347,1
304,309,307,342,1
304,309,305,334,1
301,310,303,325,1
298,311,302,314,1
296,311,300,304,1
296,310,298,293,1
297,309,298,286,1
301,307,300,283,1
303,307,304,284,1
303,306,308,286,1
301,304,312,287,1
300,304,314,287,1
303,303,315,286,1
311,303,314,285,1
318,302,312,283,1
321,301,309,283,1
321,300,308,285,1
319,300,308,288,1
316,300,309,292,1
313,301,310,297,1
311,302,310,301,1
310,304,310,306,1
310,308,311,312,1
312,310,311,316,1
313,311,311,318,1
314,312,311,317,1
313,312,309,316,1
312,313,307,316,1
307,313,305,317,1
302,312,305,319,1
297,312,307,322,1
293,312,309,325,1
292,312,310,325,1
294,312,309,324,1
297,310,307,321,1
299,309,305,316,1
300,307,305,311,1
302,306,305,307,1
302,305,305,304,1
300,303,306,303,1
299,302,304,303,1
298,301,304,303,1
299,301,304,303,1
300,302,305,301,1
299,303,306,297,1
296,304,307,293,1
293,305,308,290,1
291,306,308,289,1
291,308,308,290,1
292,309,308,291,1
294,309,307,294,1
295,310,306,297,1
295,311,306,301,1
293,310,306,305,1
290,309,308,307,1
288,307,308,309,1
289,305,308,310,1
292,303,308,309,1
298,301,308,309,1
303,301,309,309,1
306,301,310,309,1
308,302,310,309,1
307,304,310,309,1
306,306,310,309,1
304,307,309,310,1
302,308,307,313,1
302,308,307,316,1
303,309,306,319,1
306,310,306,319,1
310,311,305,317,1
313,311,304,315,1
315,311,304,313,1
315,311,304,312,1
313,310,304,310,1
307,309,302,308,1
300,308,301,305,1
296,306,300,302,1
292,304,301,299,1
287,301,301,297,1
283,300,303,298,1
286,299,305,302,1
296,300,308,306,1
306,301,311,311,1
312,303,313,317,1
315,305,314,323,1
314,307,314,329,1
311,308,311,332,1
308,310,307,330,1
307,310,303,324,1
309,310,300,318,1
313,310,298,310,1
317,309,296,303,1
321,308,297,296,1
324,306,300,290,1
326,305,304,287,1
326,303,307,287,1
324,302,310,289,1
321,301,311,293,1
317,301,312,296,1
316,301,312,298,1
316,301,313,300,1
316,302,313,301,1
313,302,312,302,1
308,303,310,301,1
301,304,309,298,1
294,306,307,296,1
289,307,307,294,1
286,307,307,292,1
286,308,307,293,1
289,308,306,293,1
292,308,305,294,1
294,307,305,294,1
296,306,305,295,1
296,305,305,295,1
296,303,305,295,1
297,302,305,297,1
297,301,306,299,1
299,300,307,302,1
301,300,308,305,1
304,301,309,310,1
307,302,311,315,1
309,304,312,320,1
311,306,313,323,1
310,309,313,326,1
309,312,314,327,1
306,313,312,327,1
302,314,311,325,1
297,314,310,322,1
294,313,310,318,1
292,313,310,315,1
292,312,311,312,1
292,312,312,308,1
293,311,312,306,1
295,310,312,303,1
298,308,312,302,1
301,306,311,302,1
304,304,310,303,1
307,302,311,304,1
309,301,311,305,1
310,300,312,305,1
309,300,311,306,1
307,302,310,307,1
306,304,308,307,1
305,306,306,306,1
303,309,305,305,1
303,311,305,304,1
304,313,306,303,1
305,314,308,302,1
306,313,308,303,1
308,312,309,304,1
309,311,311,306,1
311,309,311,309,1
309,309,312,312,1
305,308,312,315,1
299,307,311,315,1
294,306,310,314,1
290,305,309,311,1
288,304,310,307,1
289,303,310,302,1
293,302,311,298,1
298,302,312,296,1
302,303,313,294,1
303,303,314,295,1
307,304,313,298,1
313,305,311,304,1
317,306,308,311,1
318,307,303,318,1
316,308,298,323,1
313,309,296,326,1
312,310,298,325,1
313,311,303,322,1
314,312,308,319,1
313,311,311,315,1
310,311,313,309,1
307,309,312,302,1
303,307,311,295,1
298,305,310,289,1
293,304,308,285,1
290,304,308,285,1
291,304,308,287,1
296,304,308,290,1
302,305,309,294,1
308,305,311,298,1
310,307,313,302,1
309,308,314,304,1
304,309,314,304,1
299,311,314,305,1
294,312,315,305,1
291,314,315,304,1
290,314,314,300,1
292,313,312,296,1
295,310,310,291,1
296,308,308,287,1
297,305,307,285,1
298,303,306,284,1
299,301,303,287,1
300,299,299,295,1
302,299,295,306,1
305,299,294,318,1
309,299,294,327,1
311,301,296,332,1
312,303,298,332,1
312,305,303,329,1
311,308,307,324,1
309,309,310,317,1
307,310,311,308,1
306,309,312,299,1
305,309,312,293,1
304,309,310,288,1
303,308,309,285,1
302,307,308,283,1
302,306,307,283,1
302,307,307,284,1
304,306,307,286,1
306,305,306,288,1
308,304,306,293,1
312,303,307,298,1
317,302,307,306,1
322,303,307,316,1
327,303,307,324,1
329,305,308,331,1
331,308,310,337,1
331,310,313,340,1
327,310,314,340,1
321,312,315,337,1
315,312,313,331,1
310,312,310,322,1
306,312,307,314,1
304,311,306,307,1
303,310,307,303,1
304,309,308,299,1
305,309,308,298,1
306,308,306,297,1
305,306,305,297,1
305,304,303,297,1
305,303,303,297,1
305,301,302,296,1
307,300,301,294,1
308,299,301,291,1
307,297,300,287,1
305,297,299,284,1
301,297,298,282,1
299,299,299,282,1
299,301,300,284,1
301,304,301,287,1
304,307,302,290,1
306,309,305,295,1
307,311,307,299,1
307,312,310,303,1
309,313,312,307,1
311,313,313,309,1
312,313,312,311,1
310,312,311,311,1
306,310,309,310,1
301,308,307,308,1
299,306,306,305,1
299,303,306,302,1
301,302,307,300,1
306,300,308,300,1
313,300,309,301,1
319,301,310,303,1
322,302,311,305,1
321,304,312,308,1
316,306,312,309,1
311,307,310,311,1
308,309,308,313,1
306,311,307,314,1
305,311,306,315,1
304,312,305,315,1
304,313,304,316,1
303,313,303,316,1
303,313,302,315,1
303,312,302,311,1
304,311,304,306,1
306,309,305,301,1
307,308,307,298,1
309,307,307,296,1
310,305,308,296,1
312,305,309,297,1
313,304,310,301,1
313,305,312,306,1
313,306,313,311,1
310,307,313,315,1
304,307,313,318,1
301,306,313,321,1
300,306,312,324,1
303,306,312,327,1
307,307,312,328,1
310,308,312,326,1
312,309,312,323,1
313,310,312,320,1
312,312,313,318,1
312,313,313,317,1
311,313,312,316,1
310,312,310,316,1
310,312,307,316,1
310,310,304,317,1
312,309,301,317,1
313,307,300,317,1
313,307,300,316,1
313,307,301,315,1
313,308,305,312,1
311,310,309,309,1
309,312,313,307,1
306,313,316,308,1
304,315,318,312,1
304,317,319,319,1
306,318,320,328,1
310,318,319,339,1
314,318,318,351,1
317,317,316,360,1
320,316,315,365,1
323,315,315,363,1
323,315,315,357,1
318,314,314,347,1
310,312,312,334,1
303,310,309,320,1
299,307,307,307,1
299,304,306,295,1
302,302,307,287,1
305,301,309,285,1
308,303,312,287,1
312,304,314,291,1
316,307,314,294,1
317,308,314,296,1
315,308,312,294,1
311,309,310,292,1
308,309,308,289,1
305,310,307,288,1
303,310,306,288,1
301,309,305,290,1
299,309,305,292,1
297,309,304,295,1
295,308,304,298,1
293,307,304,299,1
290,304,304,298,1
287,301,305,298,1
286,299,306,300,1
287,298,307,303,1
290,298,308,306,1
297,300,309,306,1
305,301,310,306,1
311,303,310,305,1
314,304,311,305,1
315,307,310,304,1
314,308,310,306,1
312,310,310,309,1
308,312,309,311,1
302,313,307,313,1
296,313,304,313,1
291,313,301,312,1
292,312,301,311,1
297,312,302,309,1
303,311,304,308,1
309,310,305,307,1
314,310,306,307,1
318,309,307,308,1
321,307,307,311,1
325,306,306,315,1
328,306,307,319,1
329,306,308,323,1
327,305,309,325,1
322,305,308,324,1
316,305,309,323,1
309,305,308,319,1
303,305,309,314,1
300,305,310,309,1
300,306,309,306,1
303,306,309,304,1
307,306,308,306,1
311,306,308,309,1
313,305,307,312,1
312,305,306,314,1
310,304,305,314,1
307,303,304,313,1
306,302,303,314,1
305,301,304,315,1
305,301,305,316,1
304,302,306,318,1
305,303,306,320,1
307,305,306,320,1
309,306,306,319,1
311,306,304,318,1
311,307,302,316,1
310,307,300,316,1
309,307,300,317,1
309,307,301,318,1
310,307,305,319,1
310,306,309,318,1
310,306,313,318,1
310,306,315,318,1
310,307,316,318,1
312,308,316,319,1
315,308,315,320,1
317,308,313,320,1
318,307,312,322,1
318,307,312,325,1
316,306,313,328,1
312,306,315,331,1
306,306,315,332,1
304,306,316,333,1
304,306,316,333,1
305,306,316,331,1
306,306,315,329,1
306,306,314,327,1
306,306,312,327,1
308,305,311,325,1
311,304,309,321,1
312,303,308,314,1
311,303,306,305,1
309,302,305,297,1
306,302,304,292,1
304,302,304,288,1
302,302,304,286,1
301,301,304,287,1
301,300,304,288,1
301,299,305,290,1
301,299,306,292,1
302,299,306,296,1
303,300,306,297,1
303,301,306,298,1
303,302,306,299,1
302,303,306,301,1
300,305,308,302,1
298,308,310,303,1
295,309,312,304,1
290,310,312,306,1
283,310,311,307,1
279,311,310,309,1
281,311,309,311,1
288,312,310,315,1
298,312,310,317,1
306,311,309,318,1
311,310,306,318,1
313,308,304,316,1
315,306,303,313,1
318,304,302,311,1
322,302,302,310,1
326,301,303,311,1
327,300,304,313,1
327,301,306,318,1
326,303,309,323,1
324,304,311,328,1
322,306,311,331,1
320,308,311,331,1
317,309,309,329,1
314,309,307,324,1
310,309,305,319,1
305,309,303,312,1
300,307,303,307,1
295,306,302,304,1
290,305,302,303,1
287,304,301,302,1
286,304,300,304,1
289,303,299,307,1
293,303,300,312,1
297,302,302,316,1
301,302,303,319,1
304,301,303,320,1
307,301,304,321,1
310,302,305,320,1
314,302,307,318,1
319,304,308,318,1
322,307,309,319,1
324,310,309,321,1
324,312,309,321,1
320,312,309,319,1
312,312,309,315,1
304,312,309,311,1
297,311,309,308,1
292,310,308,306,1
291,308,305,304,1
292,307,301,303,1
296,305,297,302,1
299,304,293,303,1
302,302,292,303,1
304,301,292,303,1
306,300,295,304,1
307,300,301,304,1
309,301,306,303,1
311,302,311,303,1
311,303,314,302,1
311,304,316,302,1
311,306,316,303,1
310,307,315,305,1
309,309,314,309,1
308,310,314,313,1
308,312,314,317,1
309,313,314,320,1
310,315,313,323,1
310,315,313,324,1
310,314,311,323,1
310,313,310,322,1
309,311,309,320,1
306,308,308,316,1
303,305,307,312,1
300,303,308,308,1
298,302,309,305,1
298,301,309,304,1
299,301,310,305,1
300,302,310,307,1
299,303,311,310,1
298,305,311,313,1
296,308,311,319,1
296,310,310,326,1
299,310,311,333,1
303,311,311,337,1
306,310,311,338,1
307,309,311,337,1
305,309,311,335,1
303,308,312,331,1
300,308,312,324,1
300,307,311,315,1
303,306,309,304,1
309,305,307,293,1
314,304,304,285,1
320,302,303,282,1
322,300,302,282,1
321,299,302,284,1
318,298,302,288,1
313,298,303,290,1
310,300,303,292,1
305,302,304,294,1
301,304,303,296,1
302,306,303,296,1
307,307,302,295,1
312,307,303,294,1
312,307,302,292,1
309,308,301,291,1
305,307,300,290,1
300,306,301,290,1
297,305,301,292,1
295,304,302,296,1
296,304,302,301,1
297,304,302,307,1
300,304,302,313,1
303,303,303,316,1
306,302,305,316,1
310,301,306,313,1
314,300,308,309,1
318,301,309,306,1
321,302,310,303,1
322,303,310,300,1
319,304,310,298,1
313,305,309,296,1
304,306,308,295,1
297,306,306,293,1
291,307,305,292,1
287,307,304,291,1
285,308,303,292,1
287,310,304,295,1
292,311,305,301,1
297,311,307,308,1
302,311,308,315,1
304,310,308,320,1
307,308,308,323,1
308,305,308,324,1
310,303,308,325,1
311,302,308,325,1
313,301,309,324,1
315,301,309,320,1
316,301,309,313,1
315,302,309,306,1
313,303,308,301,1
310,304,308,300,1
307,306,307,301,1
304,307,306,304,1
299,308,304,308,1
295,309,303,312,1
294,309,303,315,1
296,309,304,317,1
298,308,305,317,1
300,307,304,317,1
300,307,302,316,1
301,306,299,314,1
303,305,296,313,1
305,305,294,313,1
308,305,293,312,1
310,305,293,309,1
312,304,295,304,1
313,304,298,298,1
313,303,301,293,1
312,303,304,289,1
309,304,305,288,1
303,304,305,288,1
296,305,307,291,1
290,305,309,296,1
287,307,311,302,1
287,309,312,309,1
289,310,312,315,1
293,311,312,321,1
299,312,312,326,1
303,312,311,328,1
305,312,310,328,1
304,310,309,324,1
302,309,308,318,1
299,307,307,311,1
297,304,307,305,1
297,301,309,299,1
304,299,310,295,1
312,298,310,294,1
318,298,311,298,1
322,299,312,307,1
323,301,312,317,1
324,304,312,325,1
325,307,311,326,1
326,309,310,322,1
327,311,310,313,1
327,310,311,302,1
326,310,312,293,1
323,310,312,287,1
319,309,313,284,1
314,308,312,283,1
310,307,311,283,1
307,307,310,284,1
304,306,308,285,1
303,305,307,287,1
303,305,307,290,1
306,306,308,294,1
308,307,308,298,1
308,308,307,302,1
305,308,306,304,1
299,308,304,304,1
294,308,303,302,1
292,308,303,301,1
292,308,305,300,1
293,308,308,299,1
296,308,310,299,1
299,308,312,300,1
305,308,312,303,1
310,307,312,307,1
313,307,312,311,1
313,306,312,313,1
311,304,311,313,1
310,302,310,310,1
309,300,309,308,1
309,298,308,308,1
310,298,308,308,1
310,297,309,311,1
310,298,309,314,1
310,299,309,316,1
309,300,309,319,1
309,301,309,321,1
309,303,310,323,1
309,305,312,323,1
309,307,313,322,1
308,309,313,319,1
307,310,313,316,1
307,312,312,315,1
309,313,311,313,1
309,314,311,312,1
308,313,311,312,1
307,311,310,312,1
306,310,309,310,1
305,308,308,306,1
305,307,306,302,1
305,305,305,299,1
305,304,303,298,1
305,304,302,299,1
306,304,302,303,1
307,305,301,306,1
307,306,300,311,1
308,307,299,315,1
307,309,299,317,1
305,310,299,318,1
303,311,301,317,1
301,313,303,315,1
300,314,306,313,1
297,314,308,311,1
291,314,308,309,1
284,313,308,307,1
281,311,308,304,1
282,310,309,302,1
287,309,311,300,1
291,307,311,298,1
298,305,311,297,1
305,304,311,297,1
310,303,311,298,1
312,303,310,301,1
313,304,309,303,1
314,304,310,304,1
315,305,310,303,1
317,306,310,298,1
318,307,309,291,1
318,308,307,284,1
316,308,307,281,1
316,308,307,284,1
316,308,309,290,1
315,308,310,299,1
311,309,312,307,1
305,309,312,313,1
301,310,313,316,1
302,311,313,315,1
305,311,311,311,1
307,311,310,306,1
309,310,309,300,1
310,310,308,294,1
309,308,307,291,1
307,308,307,290,1
304,307,307,292,1
301,307,307,296,1
300,305,308,301,1
301,305,308,307,1
302,305,308,312,1
303,305,308,316,1
303,307,309,318,1
302,308,309,317,1
301,309,309,314,1
300,309,309,310,1
300,308,310,307,1
302,308,310,308,1
306,308,310,311,1
311,308,310,317,1
315,307,309,321,1
317,306,306,324,1
318,305,304,324,1
317,304,301,321,1
314,304,300,317,1
312,303,300,312,1
310,304,301,306,1
309,305,302,302,1
306,306,303,299,1
304,308,304,298,1
302,310,306,298,1
300,311,306,297,1
298,312,306,296,1
298,313,306,296,1
299,313,306,297,1
301,314,307,299,1
304,314,308,300,1
305,314,308,301,1
305,313,306,301,1
304,312,306,301,1
305,311,305,301,1
305,309,305,302,1
307,307,306,304,1
308,305,307,307,1
307,304,308,310,1
308,304,310,314,1
308,304,311,317,1
307,304,312,319,1
308,306,313,320,1
307,307,313,320,1
306,308,313,318,1
304,309,312,317,1
300,310,312,316,1
295,310,312,316,1
291,310,312,315,1
288,310,312,314,1
288,310,311,312,1
291,310,308,310,1
299,310,304,307,1
308,308,299,306,1
315,306,295,304,1
320,304,292,301,1
322,302,290,298,1
322,299,291,295,1
320,298,295,293,1
320,296,301,292,1
317,296,306,293,1
313,296,311,294,1
306,298,315,295,1
301,300,317,297,1
297,302,318,298,1
295,304,317,300,1
297,307,316,302,1
300,309,315,303,1
302,310,313,303,1
302,310,312,302,1
301,310,312,303,1
300,310,313,304,1
300,309,313,306,1
300,308,313,306,1
302,307,312,306,1
304,306,311,307,1
306,305,310,308,1
310,304,309,310,1
313,303,308,311,1
313,301,306,311,1
312,300,306,313,1
313,300,306,316,1
318,300,306,319,1
322,301,307,321,1
324,303,309,323,1
323,305,310,325,1
320,306,311,325,1
315,307,312,323,1
309,307,312,319,1
305,306,311,314,1
302,305,310,310,1
300,305,308,306,1
300,304,307,303,1
300,302,307,299,1
302,301,306,295,1
304,300,305,291,1
308,298,304,288,1
311,297,303,285,1
313,297,302,284,1
314,296,302,284,1
313,295,302,286,1
312,295,302,287,1
309,296,304,288,1
307,298,305,291,1
305,300,306,293,1
302,303,306,296,1
300,305,306,299,1
300,307,306,301,1
301,309,306,304,1
301,310,305,305,1
302,312,304,305,1
302,312,303,304,1
302,311,302,302,1
303,310,302,300,1
305,309,302,298,1
307,307,303,297,1
309,306,303,297,1
310,304,302,298,1
309,302,301,298,1
309,300,301,298,1
307,300,302,299,1
306,300,303,301,1
306,301,304,301,1
308,303,305,302,1
311,306,305,304,1
313,308,305,306,1
314,311,306,310,1
313,313,306,314,1
310,314,306,318,1
307,315,305,322,1
303,315,305,324,1
300,313,304,324,1
299,312,304,323,1
299,310,304,320,1
300,309,304,318,1
301,308,303,315,1
302,306,302,313,1
301,303,302,312,1
300,302,302,312,1
298,300,302,312,1
296,300,301,311,1
295,300,301,308,1
296,301,301,305,1
298,303,300,300,1
300,304,297,293,1
302,304,292,287,1
302,304,289,282,1
302,304,286,278,1
303,304,285,277,1
307,303,286,280,1
311,303,291,286,1
313,303,296,293,1
311,303,301,298,1
307,304,304,302,1
304,305,307,305,1
302,306,309,308,1
302,307,310,312,1
304,308,311,316,1
307,309,312,320,1
311,309,312,322,1
313,308,313,324,1
311,307,313,326,1
308,308,313,329,1
306,308,313,329,1
304,308,313,325,1
302,308,312,319,1
300,308,311,309,1
297,309,310,297,1
295,309,309,288,1
296,309,308,282,1
300,309,307,279,1
305,309,306,278,1
307,309,304,278,1
308,309,301,280,1
307,309,299,282,1
306,308,298,284,1
305,307,298,285,1
305,306,298,287,1
306,305,300,289,1
308,305,302,291,1
309,304,303,294,1
310,304,305,297,1
312,305,306,300,1
313,307,306,303,1
313,310,306,304,1
309,312,305,306,1
305,313,303,307,1
301,314,302,309,1
299,314,301,311,1
298,314,301,313,1
298,313,301,314,1
299,313,302,315,1
301,313,303,315,1
305,313,303,316,1
307,313,302,316,1
308,312,302,317,1
307,311,301,318,1
307,309,301,320,1
308,307,301,321,1
308,306,302,320,1
308,305,303,318,1
306,305,304,313,1
302,306,305,309,1
297,307,305,305,1
293,308,305,302,1
290,310,305,299,1
289,310,305,297,1
290,311,305,295,1
293,310,305,293,1
297,309,303,289,1
298,307,301,288,1
297,306,299,288,1
297,307,299,289,1
297,307,300,290,1
299,307,301,292,1
300,308,303,293,1
301,308,304,295,1
301,307,304,295,1
302,307,302,297,1
302,306,302,298,1
303,305,301,300,1
304,306,302,302,1
306,307,304,304,1
308,309,307,308,1
309,311,309,311,1
310,313,310,315,1
309,314,311,320,1
309,315,311,323,1
307,316,312,323,1
305,316,311,320,1
302,316,310,316,1
299,315,306,311,1
296,314,301,307,1
292,313,297,306,1
291,313,294,309,1
292,313,294,313,1
295,312,294,317,1
298,311,296,318,1
301,310,299,318,1
303,309,304,317,1
304,308,307,315,1
305,307,310,312,1
306,308,312,307,1
309,308,312,302,1
311,309,311,296,1
311,310,310,292,1
311,310,308,288,1
310,310,306,286,1
309,311,303,284,1
309,311,301,283,1
308,311,299,284,1
308,310,296,285,1
309,309,295,286,1
312,308,295,287,1
312,306,296,288,1
310,304,298,289,1
305,301,300,292,1
299,300,303,294,1
298,299,306,297,1
302,300,308,301,1
307,301,309,306,1
312,304,312,311,1
314,306,314,313,1
313,308,314,314,1
313,309,313,312,1
311,309,312,308,1
309,310,311,304,1
309,311,310,301,1
308,311,309,299,1
308,311,308,298,1
308,311,308,300,1
308,311,308,304,1
308,311,308,309,1
308,312,308,314,1
309,310,310,318,1
311,309,311,321,1
313,308,311,323,1
316,307,311,324,1
318,306,310,323,1
318,306,309,320,1
317,305,308,316,1
314,306,307,310,1
310,306,308,305,1
307,307,308,301,1
304,307,309,297,1
300,307,310,295,1
295,308,309,296,1
290,309,308,298,1
286,309,308,301,1
284,310,308,305,1
285,310,309,310,1
287,311,310,316,1
291,312,311,320,1
297,313,311,322,1
303,313,310,322,1
311,312,309,321,1
318,309,308,319,1
322,307,307,317,1
322,305,308,316,1
319,304,307,316,1
314,303,307,316,1
309,303,306,314,1
306,303,306,311,1
306,305,306,307,1
308,307,307,303,1
309,309,308,300,1
311,311,308,298,1
311,311,308,296,1
311,311,307,294,1
309,311,306,293,1
307,311,306,292,1
306,310,306,292,1
304,309,306,292,1
300,309,306,293,1
295,309,305,296,1
294,308,302,301,1
298,306,300,307,1
304,304,297,312,1
311,304,296,316,1
316,303,295,320,1
321,304,296,323,1
325,305,299,329,1
327,308,304,335,1
328,310,309,340,1
327,313,314,344,1
323,314,316,343,1
318,315,316,337,1
313,314,315,328,1
310,313,315,318,1
308,312,314,309,1
308,311,314,301,1
308,310,313,294,1
309,308,312,288,1
308,305,310,283,1
306,303,309,280,1
305,301,308,280,1
306,298,306,283,1
308,296,307,287,1
310,295,307,292,1
312,294,307,298,1
312,294,308,302,1
312,295,309,305,1
311,297,311,306,1
310,299,312,307,1
310,302,313,308,1
313,304,314,308,1
316,306,314,306,1
320,307,314,306,1
322,308,314,306,1
321,307,313,307,1
318,306,312,308,1
313,304,309,310,1
307,303,304,309,1
304,302,302,307,1
303,302,300,304,1
300,301,298,301,1
295,299,298,298,1
290,298,300,298,1
289,297,302,298,1
291,297,305,299,1
296,298,306,301,1
302,300,308,304,1
309,301,310,306,1
314,303,311,306,1
316,304,312,305,1
316,306,312,303,1
315,307,311,301,1
313,308,311,301,1
310,308,311,302,1
308,308,311,303,1
306,308,310,304,1
305,308,309,305,1
304,308,308,308,1
303,308,307,310,1
302,308,307,311,1
301,307,307,313,1
301,306,308,315,1
300,305,309,317,1
301,304,309,319,1
302,304,310,322,1
305,304,311,326,1
307,305,312,329,1
307,306,313,332,1
307,308,313,334,1
306,309,312,336,1
306,310,311,335,1
307,311,308,333,1
305,312,303,329,1
303,313,298,325,1
298,313,294,321,1
293,313,293,318,1
290,311,295,316,1
292,311,298,314,1
298,310,303,313,1
306,308,308,311,1
310,307,311,309,1
310,305,313,308,1
309,304,314,307,1
305,304,315,306,1
302,303,315,307,1
301,302,314,309,1
302,302,314,313,1
306,302,315,318,1
310,304,316,323,1
313,306,316,326,1
315,308,316,327,1
316,309,315,327,1
317,310,314,324,1
317,309,311,323,1
317,309,309,323,1
319,309,307,324,1
320,308,307,324,1
322,307,306,321,1
321,306,306,316,1
317,304,306,309,1
310,302,306,303,1
303,301,306,297,1
299,299,305,292,1
300,298,304,288,1
304,297,302,286,1
310,297,302,283,1
313,297,302,282,1
314,298,303,281,1
313,299,305,281,1
311,301,306,282,1
310,302,307,286,1
309,304,309,291,1
308,307,311,296,1
307,309,312,301,1
305,310,311,305,1
303,310,311,309,1
302,309,311,311,1
301,309,312,312,1
300,308,311,311,1
298,307,310,307,1
295,306,309,303,1
296,305,310,299,1
300,304,309,296,1
304,303,308,294,1
306,302,306,293,1
305,302,306,293,1
302,302,306,294,1
297,303,305,296,1
293,304,305,297,1
290,305,304,297,1
289,306,304,295,1
290,306,304,294,1
293,307,304,293,1
298,307,304,293,1
303,307,304,295,1
307,307,304,297,1
310,307,303,299,1
312,306,303,300,1
313,306,303,302,1
311,306,303,304,1
309,305,303,306,1
307,305,304,308,1
307,305,305,310,1
307,305,305,314,1
308,306,306,320,1
308,307,306,327,1
309,308,306,334,1
312,308,308,340,1
317,309,310,344,1
319,310,311,344,1
316,312,310,341,1
309,313,309,336,1
302,315,306,329,1
298,315,304,320,1
300,314,302,310,1
303,313,299,301,1
308,311,295,294,1
311,309,291,288,1
312,308,288,284,1
311,306,287,281,1
309,305,287,281,1
306,304,289,283,1
303,303,293,286,1
300,302,299,291,1
299,301,304,297,1
301,301,308,303,1
305,303,311,308,1
308,304,313,312,1
310,306,315,315,1
310,308,316,317,1
310,310,316,319,1
310,311,316,323,1
310,311,316,326,1
310,311,314,328,1
310,310,313,327,1
310,310,312,326,1
309,310,311,323,1
309,309,310,322,1
309,309,310,320,1
309,308,310,320,1
310,307,310,319,1
312,307,308,317,1
316,305,306,316,1
321,303,302,313,1
325,301,298,313,1
327,300,294,316,1
325,298,294,320,1
321,298,297,321,1
313,300,301,321,1
303,303,304,316,1
295,305,305,307,1
288,307,304,297,1
288,309,304,286,1
293,309,305,278,1
298,309,305,273,1
300,309,305,272,1
299,309,305,275,1
296,309,306,277,1
294,309,306,281,1
294,309,306,284,1
296,309,307,287,1
300,307,307,291,1
305,305,307,294,1
309,303,307,298,1
311,302,307,300,1
313,301,307,301,1
313,301,307,300,1
313,301,308,299,1
311,302,309,297,1
309,303,308,295,1
306,304,307,293,1
305,304,307,294,1
304,305,307,296,1
304,306,306,298,1
304,308,306,301,1
305,309,305,303,1
307,310,304,305,1
308,310,303,307,1
310,309,303,309,1
310,309,303,311,1
310,307,303,313,1
308,305,304,313,1
305,302,304,313,1
300,300,304,313,1
295,299,304,315,1
292,299,303,317,1
295,300,301,319,1
300,302,299,321,1
306,304,298,322,1
311,306,297,322,1
315,306,297,321,1
317,305,299,322,1
317,306,301,323,1
317,306,301,325,1
313,306,302,325,1
309,306,304,324,1
307,307,308,322,1
306,307,312,320,1
306,308,314,319,1
307,308,315,317,1
307,307,314,315,1
308,305,314,312,1
308,302,313,309,1
309,300,312,305,1
310,298,311,303,1
312,297,310,302,1
312,297,310,301,1
312,298,311,299,1
311,300,311,299,1
309,303,310,299,1
308,304,309,300,1
308,306,308,301,1
311,307,306,299,1
315,307,303,296,1
317,306,300,292,1
318,305,298,289,1
319,305,297,289,1
320,305,298,290,1
321,305,298,293,1
321,305,299,298,1
321,305,302,306,1
323,304,305,314,1
324,304,306,322,1
326,303,307,327,1
325,304,306,331,1
322,303,306,333,1
316,302,307,332,1
307,301,307,329,1
298,301,308,327,1
290,302,308,326,1
286,304,308,327,1
289,305,309,328,1
295,307,309,329,1
301,308,309,328,1
306,310,309,327,1
309,311,307,324,1
310,311,305,320,1
310,311,303,316,1
308,309,301,312,1
307,307,299,307,1
305,304,298,303,1
304,301,296,300,1
304,298,296,297,1
304,296,295,297,1
305,296,296,301,1
305,296,296,306,1
305,296,298,311,1
306,297,301,314,1
308,299,304,316,1
310,301,307,316,1
311,303,308,315,1
310,304,309,312,1
306,305,309,308,1
301,306,308,305,1
298,306,306,303,1
299,305,305,299,1
306,305,304,296,1
311,304,304,292,1
312,304,303,289,1
311,303,302,288,1
309,302,302,288,1
307,301,302,289,1
307,301,302,291,1
308,300,303,296,1
310,300,304,301,1
312,300,306,305,1
313,302,305,308,1
313,303,303,312,1
312,305,301,314,1
311,307,299,316,1
309,309,299,318,1
307,310,300,320,1
305,310,300,322,1
304,310,301,322,1
304,310,301,322,1
305,310,303,319,1
305,310,304,314,1
307,311,304,311,1
308,311,303,310,1
309,311,301,310,1
310,310,298,310,1
311,308,295,309,1
311,306,291,307,1
310,304,290,305,1
311,303,292,304,1
314,303,296,303,1
317,304,302,302,1
319,306,308,301,1
320,308,312,298,1
319,309,313,294,1
314,310,314,291,1
307,310,313,288,1
301,310,313,288,1
299,310,313,289,1
299,310,312,291,1
298,310,311,292,1
294,310,310,293,1
290,309,308,294,1
291,307,307,293,1
294,305,306,291,1
298,303,304,290,1
300,302,302,290,1
302,301,302,292,1
303,300,302,294,1
304,299,302,296,1
305,299,302,298,1
307,300,302,303,1
307,302,302,308,1
308,305,304,313,1
308,307,307,316,1
308,308,309,318,1
307,309,310,318,1
306,310,310,317,1
304,311,309,316,1
302,310,309,315,1
301,309,308,313,1
300,307,308,311,1
300,306,307,309,1
301,305,308,308,1
303,304,307,308,1
307,304,307,310,1
312,304,307,313,1
318,305,308,317,1
322,306,309,320,1
324,307,309,324,1
324,308,310,327,1
322,309,310,329,1
318,311,311,329,1
313,312,311,328,1
308,314,311,325,1
303,314,311,324,1
299,314,308,324,1
296,312,305,326,1
293,311,302,328,1
290,310,299,329,1
291,310,296,330,1
294,311,295,329,1
299,311,296,327,1
303,311,297,323,1
304,310,298,317,1
304,309,298,310,1
305,307,299,302,1
306,305,300,295,1
307,304,300,290,1
308,302,300,288,1
309,302,301,290,1
309,303,302,295,1
307,304,304,301,1
305,306,304,306,1
302,308,305,309,1
300,309,306,310,1
299,311,306,310,1
299,312,307,310,1
300,313,308,309,1
302,313,308,310,1
303,313,309,311,1
305,311,309,310,1
307,310,309,307,1
309,309,308,303,1
311,307,305,300,1
311,306,301,297,1
312,304,297,297,1
313,303,297,299,1
315,302,299,303,1
316,302,301,308,1
316,304,304,313,1
312,305,306,318,1
305,307,307,322,1
298,309,307,324,1
292,311,307,324,1
288,312,308,322,1
289,313,309,321,1
291,313,309,320,1
294,314,307,318,1
298,314,303,315,1
305,313,298,310,1
311,313,295,305,1
314,312,291,300,1
314,312,290,296,1
314,311,291,296,1
315,310,293,296,1
316,308,298,298,1
316,307,302,301,1
316,306,306,303,1
315,306,309,304,1
313,307,311,305,1
310,307,312,306,1
308,308,312,307,1
306,309,312,307,1
305,310,312,308,1
305,312,311,311,1
307,314,311,316,1
310,315,311,323,1
313,317,312,329,1
315,318,312,332,1
315,318,313,334,1
314,317,313,335,1
313,315,314,334,1
311,313,314,330,1
307,310,313,325,1
302,307,311,320,1
298,304,308,317,1
295,302,306,314,1
295,301,304,312,1
299,300,304,310,1
305,301,305,307,1
312,302,306,304,1
318,303,307,302,1
322,305,306,301,1
323,307,304,303,1
321,309,302,306,1
319,310,301,310,1
317,311,303,314,1
315,313,304,315,1
313,313,306,315,1
311,313,306,313,1
310,313,306,312,1
311,313,306,310,1
314,313,306,310,1
316,313,306,309,1
317,312,306,309,1
316,309,305,308,1
312,307,305,306,1
307,304,305,304,1
301,302,306,301,1
296,302,307,299,1
293,303,308,298,1
294,304,310,298,1
297,306,311,298,1
302,307,311,300,1
306,309,310,301,1
308,309,308,302,1
307,310,306,304,1
305,310,304,305,1
304,310,304,307,1
302,310,305,308,1
298,310,306,310,1
294,310,306,311,1
292,309,305,311,1
289,308,304,310,1
287,306,303,311,1
287,305,303,311,1
292,304,302,312,1
299,304,302,312,1
306,304,302,312,1
311,305,303,314,1
315,305,305,314,1
315,306,305,314,1
315,306,304,312,1
313,307,303,310,1
313,308,301,307,1
312,308,298,305,1
311,308,296,303,1
309,308,293,302,1
307,308,291,303,1
306,308,292,305,1
307,308,294,306,1
308,307,298,305,1
308,306,303,302,1
308,304,306,299,1
305,303,310,296,1
305,302,311,296,1
306,300,311,297,1
309,300,311,301,1
310,299,311,305,1
310,298,311,307,1
309,299,311,308,1
307,300,310,308,1
306,301,310,307,1
306,304,310,307,1
306,306,311,309,1
305,307,310,313,1
303,308,309,318,1
302,309,309,324,1
301,309,309,328,1
302,309,309,331,1
303,308,308,331,1
306,307,306,327,1
306,305,304,320,1
302,303,301,310,1
296,299,299,298,1
291,295,297,288,1
290,292,296,284,1
292,291,296,285,1
297,291,297,288,1
304,292,297,293,1
310,295,298,297,1
312,298,299,300,1
310,301,301,301,1
306,304,303,301,1
302,307,306,302,1
301,310,308,304,1
301,312,309,308,1
301,313,311,312,1
299,314,311,316,1
297,315,312,321,1
295,315,313,326,1
294,314,313,329,1
294,314,313,331,1
296,314,311,330,1
297,313,310,327,1
300,311,309,325,1
304,310,308,324,1
308,309,308,324,1
310,307,309,324,1
312,306,310,324,1
311,305,311,322,1
310,304,311,317,1
308,303,311,312,1
307,304,310,305,1
304,304,309,299,1
303,304,308,295,1
302,305,307,295,1
302,305,306,298,1
303,306,306,302,1
304,307,306,304,1
303,307,305,306,1
302,307,304,307,1
300,307,303,308,1
297,306,302,307,1
295,305,302,307,1
294,304,302,308,1
295,304,300,310,1
299,304,299,312,1
303,303,296,314,1
305,303,295,315,1
306,303,293,316,1
307,303,295,317,1
309,305,300,319,1
310,306,306,320,1
310,307,311,319,1
309,307,314,314,1
307,307,315,308,1
305,307,314,302,1
303,307,313,298,1
302,307,311,295,1
301,308,311,294,1
301,307,310,294,1
301,305,309,293,1
303,303,307,292,1
309,300,305,291,1
317,298,304,291,1
322,296,304,292,1
323,295,306,294,1
320,294,307,296,1
314,293,309,299,1
308,294,311,302,1
303,296,314,305,1
302,299,316,307,1
303,303,316,308,1
304,306,316,308,1
305,309,315,308,1
307,311,313,308,1
310,313,312,308,1
312,313,312,307,1
312,313,311,306,1
309,311,311,304,1
305,310,311,304,1
303,308,311,304,1
301,306,310,305,1
298,304,309,306,1
296,302,308,307,1
294,301,306,307,1
293,300,304,307,1
