301,316,306,304,0
299,316,305,301,0
297,316,305,300,0
296,318,305,300,0
296,320,306,301,0
296,321,306,303,0
297,319,307,305,0
297,312,308,308,0
298,303,309,310,0
299,295,309,311,0
300,290,310,312,0
303,288,311,313,0
304,286,312,315,0
306,286,313,316,0
307,286,314,316,0
307,288,315,315,0
307,291,314,314,0
307,294,313,312,0
307,297,311,311,0
306,300,310,309,0
305,303,309,307,0
304,306,308,305,0
304,309,307,303,0
304,310,306,302,0
305,309,306,301,0
305,306,306,300,0
305,303,307,299,0
304,300,307,299,0
303,297,307,300,0
303,294,307,301,0
304,293,307,303,0
305,292,308,305,0
306,292,308,308,0
306,295,310,311,0
307,299,311,313,0
306,302,312,314,0
305,305,312,315,0
304,304,313,315,0
303,302,314,316,0
302,301,314,317,0
303,303,315,319,0
303,307,314,320,0
304,309,314,322,0
304,309,313,323,0
303,308,313,324,0
303,305,313,324,0
303,300,313,323,0
302,296,313,322,0
301,293,312,320,0
300,292,312,320,0
301,292,311,321,0
302,294,312,323,0
303,296,313,324,0
304,299,313,325,0
305,301,314,325,0
306,303,315,323,0
306,304,315,320,0
305,304,314,315,0
304,307,313,311,0
303,313,311,307,0
303,318,310,305,0
302,321,309,305,0
301,321,309,306,0
300,320,310,308,0
300,319,310,309,0
300,319,312,311,0
300,319,312,313,0
300,319,313,315,0
301,319,314,319,0
301,319,314,324,0
302,318,314,328,0
303,317,314,331,0
304,314,313,330,0
306,309,311,327,0
306,304,310,322,0
306,299,308,316,0
305,296,307,308,0
305,296,306,301,0
304,299,304,294,0
304,302,303,288,0
303,304,303,287,0
302,306,303,289,0
302,308,303,294,0
303,309,304,299,0
303,310,305,303,0
303,311,305,304,0
303,311,305,305,0
303,312,304,306,0
302,312,304,306,0
303,312,303,306,0
303,312,303,307,0
304,314,304,309,0
305,315,305,312,0
305,315,307,313,0
306,315,309,314,0
307,312,309,312,0
306,306,309,309,0
305,299,308,304,0
304,293,307,301,0
303,289,307,301,0
301,288,307,301,0
301,289,308,302,0
300,293,308,302,0
300,299,307,301,0
300,304,307,301,0
301,307,306,301,0
301,308,306,301,0
302,307,305,301,0
302,307,305,301,0
302,306,304,302,0
303,304,304,304,0
305,303,303,306,0
307,302,304,309,0
308,303,304,311,0
309,304,305,313,0
309,305,306,315,0
308,307,306,316,0
306,309,306,317,0
304,311,306,318,0
303,313,306,319,0
302,315,306,320,0
301,315,306,323,0
301,314,307,327,0
302,313,307,330,0
302,312,308,332,0
302,310,309,334,0
302,308,308,333,0
302,306,306,330,0
302,303,304,326,0
303,301,301,321,0
304,300,299,315,0
305,299,298,310,0
306,298,298,305,0
308,296,299,302,0
308,295,300,300,0
308,293,302,299,0
308,291,303,298,0
308,291,303,299,0
307,295,303,301,0
307,299,303,304,0
307,303,302,305,0
307,306,302,306,0
306,307,302,307,0
306,308,302,308,0
305,308,302,308,0
305,309,303,308,0
304,308,303,309,0
304,307,303,310,0
303,306,302,311,0
303,304,302,313,0
303,302,302,315,0
304,300,302,319,0
305,299,304,322,0
306,298,306,324,0
306,298,309,324,0
307,300,311,322,0
307,306,312,320,0
307,313,312,318,0
307,316,311,316,0
307,317,310,316,0
306,317,308,315,0
305,316,306,313,0
305,314,304,310,0
305,313,303,306,0
305,312,303,303,0
305,312,303,301,0
305,311,303,298,0
304,308,303,297,0
303,306,303,297,0
304,304,302,299,0
305,301,302,300,0
306,298,302,302,0
307,296,302,305,0
307,295,302,308,0
307,295,303,312,0
307,296,304,314,0
306,297,306,315,0
306,298,306,316,0
305,301,307,315,0
305,305,307,315,0
304,309,306,315,0
304,311,306,315,0
302,312,305,313,0
302,313,305,310,0
302,316,305,309,0
303,319,304,308,0
304,319,304,310,0
304,315,304,311,0
305,308,304,313,0
306,303,303,313,0
306,300,304,313,0
307,299,304,313,0
308,299,305,314,0
308,302,305,315,0
308,304,306,315,0
308,304,307,315,0
308,303,307,313,0
308,301,306,312,0
307,298,306,310,0
306,296,305,310,0
305,295,306,310,0
304,294,305,312,0
303,294,306,314,0
302,295,306,316,0
300,296,305,317,0
298,297,305,318,0
297,297,304,317,0
297,298,304,317,0
297,301,303,317,0
299,303,303,317,0
301,303,304,318,0
304,303,305,320,0
306,302,306,322,0
308,300,307,322,0
309,301,308,323,0
310,302,309,324,0
310,304,311,323,0
309,305,311,321,0
308,307,312,317,0
306,307,311,314,0
305,307,311,311,0
305,307,310,308,0
304,306,309,306,0
304,305,308,303,0
304,303,306,301,0
304,302,305,299,0
303,302,304,298,0
303,302,304,300,0
303,303,303,303,0
304,303,304,305,0
304,303,304,306,0
305,304,305,305,0
306,305,306,306,0
307,307,306,307,0
307,308,307,309,0
308,310,308,312,0
309,311,309,313,0
309,310,309,314,0
309,310,309,315,0
308,310,308,315,0
307,311,308,313,0
306,310,307,312,0
305,309,306,310,0
305,308,306,310,0
305,307,306,310,0
305,307,306,311,0
304,310,305,311,0
304,314,303,309,0
305,316,302,307,0
305,315,300,305,0
306,314,300,304,0
306,311,300,304,0
306,310,301,305,0
307,311,303,308,0
308,314,304,311,0
308,316,306,314,0
307,317,307,315,0
306,316,307,314,0
304,314,306,313,0
303,312,305,313,0
302,310,304,313,0
301,309,303,314,0
301,307,303,315,0
301,306,302,316,0
302,305,302,315,0
303,304,301,313,0
303,303,301,311,0
304,302,299,308,0
304,301,298,306,0
304,299,298,305,0
305,298,298,305,0
307,297,298,307,0
309,297,300,309,0
311,296,301,310,0
311,298,303,311,0
312,302,305,312,0
312,308,307,312,0
311,314,307,312,0
309,319,308,313,0
307,322,308,314,0
306,322,308,314,0
305,320,307,313,0
305,314,307,313,0
306,308,306,313,0
306,304,304,312,0
306,300,303,311,0
307,298,301,310,0
307,297,300,310,0
309,297,300,309,0
310,297,300,309,0
311,296,302,310,0
312,295,303,313,0
313,295,306,317,0
313,295,307,321,0
313,297,309,324,0
312,299,309,323,0
312,303,309,321,0
312,305,309,317,0
311,307,308,313,0
310,309,307,310,0
310,309,307,308,0
310,310,308,308,0
309,310,308,309,0
308,310,308,310,0
307,310,308,310,0
305,309,308,310,0
304,308,307,309,0
303,305,306,307,0
304,302,305,306,0
306,298,304,307,0
307,296,304,309,0
309,294,304,310,0
310,294,304,309,0
311,296,304,306,0
311,300,304,302,0
310,305,305,299,0
309,310,307,297,0
307,314,307,297,0
306,315,309,300,0
305,314,309,304,0
304,313,309,308,0
304,312,309,310,0
304,311,308,310,0
305,310,308,310,0
305,307,307,309,0
305,302,306,310,0
304,297,306,311,0
304,294,306,310,0
305,292,305,308,0
307,291,304,304,0
309,295,303,300,0
311,298,303,298,0
312,301,303,297,0
313,302,305,299,0
313,302,307,303,0
312,303,308,307,0
311,303,309,309,0
309,303,310,310,0
307,303,311,311,0
306,304,311,313,0
306,305,311,314,0
306,307,310,316,0
307,309,310,317,0
307,310,309,318,0
307,310,309,318,0
307,310,309,317,0
307,309,308,314,0
307,306,307,311,0
307,304,306,308,0
307,301,305,307,0
308,300,304,308,0
309,298,304,310,0
311,298,304,312,0
312,298,304,314,0
313,299,305,313,0
313,299,305,312,0
312,298,305,310,0
310,298,304,307,0
309,298,304,303,0
307,298,303,301,0
305,297,303,298,0
304,298,302,296,0
302,300,302,294,0
302,302,303,295,0
303,304,303,297,0
304,306,303,300,0
304,308,304,303,0
305,309,305,306,0
305,310,306,309,0
305,311,307,313,0
306,309,309,316,0
307,306,310,320,0
308,302,310,323,0
310,299,312,326,0
311,297,313,326,0
312,296,313,325,0
312,297,314,322,0
313,299,313,321,0
312,301,312,320,0
312,302,311,318,0
310,304,309,315,0
309,306,308,313,0
308,308,306,311,0
308,309,305,309,0
308,309,305,306,0
308,306,304,304,0
308,302,302,300,0
309,297,300,294,0
309,291,298,289,0
310,287,296,286,0
311,284,296,284,0
311,283,297,284,0
311,284,299,286,0
311,284,302,289,0
311,287,304,293,0
310,293,306,299,0
308,301,308,303,0
307,308,310,308,0
306,313,311,311,0
305,314,313,316,0
305,312,314,320,0
305,307,316,325,0
306,303,316,330,0
307,301,316,334,0
308,302,316,337,0
310,306,315,339,0
312,311,314,340,0
313,314,312,337,0
314,314,310,330,0
314,311,307,319,0
313,307,304,308,0
313,303,302,298,0
312,300,300,290,0
312,298,299,284,0
311,298,299,279,0
311,300,299,275,0
310,301,299,272,0
309,303,300,272,0
308,303,301,276,0
308,303,301,282,0
306,302,302,288,0
305,301,301,291,0
304,300,301,293,0
303,302,300,293,0
304,309,300,292,0
305,317,301,291,0
306,320,301,293,0
307,319,302,295,0
308,315,303,299,0
309,312,304,303,0
310,310,306,306,0
311,310,307,308,0
312,310,307,310,0
312,310,308,311,0
312,311,308,311,0
312,311,308,312,0
311,311,308,312,0
311,311,307,312,0
310,311,306,310,0
309,310,305,307,0
307,309,304,304,0
306,308,303,302,0
305,306,302,298,0
304,305,301,295,0
304,305,300,292,0
304,305,299,290,0
304,305,299,291,0
304,305,299,293,0
303,304,300,296,0
303,302,300,300,0
304,301,302,304,0
306,301,304,308,0
309,300,306,311,0
311,298,308,314,0
313,297,310,314,0
314,298,311,313,0
314,302,312,312,0
314,307,312,310,0
313,312,311,309,0
312,316,311,309,0
311,318,310,309,0
310,319,309,308,0
309,316,307,308,0
309,311,305,308,0
309,306,304,306,0
309,301,303,304,0
309,297,302,301,0
309,293,302,298,0
309,291,301,297,0
309,290,301,298,0
308,291,302,300,0
308,293,303,302,0
308,295,305,304,0
308,299,307,307,0
308,304,309,309,0
307,312,309,310,0
307,317,309,309,0
306,322,308,309,0
306,326,307,310,0
305,330,305,312,0
304,334,304,315,0
303,335,303,317,0
303,334,302,318,0
302,330,302,317,0
302,324,302,314,0
302,317,302,312,0
303,311,303,309,0
304,305,304,308,0
305,302,305,309,0
305,300,306,313,0
304,300,307,317,0
305,300,309,322,0
305,299,310,324,0
305,299,311,324,0
305,299,311,322,0
304,301,310,317,0
304,305,308,312,0
303,306,306,306,0
303,304,304,302,0
303,301,304,300,0
303,298,303,299,0
303,297,303,299,0
304,297,304,300,0
303,299,304,300,0
303,300,305,300,0
302,302,305,300,0
303,301,304,300,0
304,301,304,300,0
304,299,303,301,0
304,295,303,301,0
305,288,302,301,0
305,283,303,300,0
306,280,303,299,0
306,282,304,300,0
307,291,305,302,0
308,301,308,305,0
308,307,310,308,0
307,309,311,308,0
306,309,311,306,0
305,309,311,304,0
305,307,310,303,0
304,306,310,302,0
305,304,310,302,0
305,304,310,302,0
306,303,310,303,0
305,302,309,306,0
305,301,308,307,0
305,300,307,306,0
306,298,306,305,0
306,297,307,305,0
306,295,307,306,0
305,294,307,307,0
305,292,308,307,0
305,290,309,308,0
305,289,310,308,0
304,287,311,309,0
304,289,312,311,0
303,295,312,311,0
302,303,311,312,0
302,309,310,310,0
301,314,309,308,0
300,315,308,305,0
300,314,308,303,0
300,314,309,302,0
301,314,311,304,0
302,314,313,307,0
302,315,314,310,0
302,315,315,312,0
302,316,315,315,0
302,316,316,318,0
302,318,317,320,0
303,319,318,321,0
303,321,318,321,0
304,320,319,321,0
305,318,319,319,0
305,315,318,317,0
305,310,317,315,0
304,303,315,313,0
305,297,313,310,0
305,295,311,309,0
306,296,309,308,0
306,298,308,307,0
306,300,307,305,0
306,300,306,303,0
305,300,305,301,0
304,298,305,299,0
303,297,304,296,0
303,296,303,293,0
302,295,303,292,0
301,294,302,292,0
301,292,302,294,0
302,290,303,298,0
302,289,304,304,0
302,290,306,310,0
301,293,309,315,0
301,299,311,319,0
301,306,313,321,0
301,314,315,322,0
301,321,316,321,0
300,326,316,319,0
299,327,315,318,0
298,326,315,317,0
297,322,315,316,0
297,317,314,314,0
297,312,313,311,0
297,306,311,305,0
297,301,308,298,0
297,295,306,293,0
297,288,304,292,0
298,282,303,293,0
299,278,302,296,0
300,277,302,299,0
301,280,302,302,0
302,286,303,305,0
303,295,304,306,0
304,305,306,308,0
304,314,306,308,0
303,320,307,307,0
302,323,307,307,0
302,324,306,307,0
302,324,307,307,0
302,322,306,307,0
301,318,306,306,0
301,313,305,305,0
300,306,303,305,0
300,298,302,306,0
299,289,300,305,0
299,282,299,302,0
299,276,298,299,0
299,274,298,297,0
300,276,299,297,0
301,281,301,298,0
303,289,303,301,0
304,294,305,304,0
305,296,307,307,0
307,300,309,311,0
307,306,312,315,0
306,311,313,317,0
306,314,314,319,0
305,317,314,320,0
303,319,314,321,0
302,321,314,323,0
302,323,312,326,0
302,325,310,330,0
302,326,309,334,0
302,326,308,335,0
301,324,307,333,0
301,320,306,328,0
301,314,305,320,0
301,309,304,310,0
302,304,303,301,0
302,301,302,295,0
304,300,302,292,0
304,299,302,289,0
304,298,302,287,0
304,295,303,285,0
304,294,303,284,0
303,297,304,284,0
303,305,303,285,0
303,313,303,287,0
303,319,303,289,0
302,320,303,292,0
302,320,303,295,0
303,319,303,298,0
304,319,304,302,0
305,318,305,305,0
306,316,306,307,0
306,315,308,309,0
306,313,310,309,0
307,310,311,309,0
307,309,312,310,0
308,307,312,311,0
309,308,313,312,0
310,310,313,314,0
311,313,313,314,0
312,316,313,315,0
312,319,313,313,0
311,321,312,309,0
309,323,310,304,0
307,323,308,299,0
305,320,307,294,0
304,316,305,290,0
304,310,304,287,0
304,304,303,285,0
304,300,302,283,0
306,297,301,284,0
307,297,301,285,0
309,298,302,287,0
311,298,302,288,0
312,297,303,289,0
313,296,304,289,0
312,295,304,291,0
311,296,304,292,0
309,298,305,295,0
309,301,307,297,0
310,305,309,300,0
311,310,311,302,0
312,315,311,303,0
312,319,310,303,0
312,323,309,302,0
312,325,308,301,0
311,325,308,301,0
310,319,309,300,0
307,308,309,300,0
303,290,309,300,0
300,266,309,300,0
298,243,309,300,0
299,222,308,299,0
299,206,307,299,0
300,200,305,299,0
300,212,305,300,0
301,240,306,302,0
302,270,307,304,0
303,297,308,305,0
304,316,310,308,0
306,330,313,313,0
308,337,314,320,0
309,339,316,328,0
310,338,316,334,0
309,336,315,335,0
309,335,314,331,0
309,334,311,324,0
309,334,308,316,0
311,332,304,307,0
314,329,301,298,0
318,325,298,289,0
321,318,296,282,0
324,311,294,277,0
326,301,294,276,0
325,290,294,278,0
316,281,295,283,0
304,270,296,287,0
294,254,298,291,0
285,232,300,293,0
281,216,303,294,0
284,215,307,298,0
291,229,311,303,0
300,251,313,307,0
308,273,313,310,0
313,291,314,313,0
315,305,315,315,0
312,313,316,317,0
307,317,316,317,0
303,318,314,317,0
303,318,312,315,0
305,317,309,313,0
311,314,307,310,0
319,304,305,305,0
326,292,303,300,0
330,279,300,295,0
323,267,297,289,0
307,255,294,284,0
291,248,292,281,0
283,248,290,279,0
283,257,291,278,0
290,276,293,280,0
301,295,296,285,0
314,299,302,291,0
320,297,308,297,0
317,303,312,304,0
307,312,313,309,0
294,319,311,311,0
283,323,309,310,0
276,321,307,308,0
276,318,307,308,0
282,316,309,311,0
294,316,312,315,0
306,317,315,316,0
314,317,315,316,0
316,317,314,315,0
314,318,313,313,0
309,319,312,313,0
305,321,311,312,0
303,325,309,312,0
304,331,309,314,0
305,338,309,315,0
306,345,309,315,0
306,350,308,314,0
306,351,308,312,0
307,346,307,309,0
308,332,306,304,0
309,312,304,300,0
311,292,304,297,0
314,276,303,296,0
318,266,304,296,0
323,263,304,298,0
326,266,303,302,0
326,272,302,305,0
322,279,301,309,0
315,287,301,311,0
306,293,302,313,0
296,296,304,313,0
288,299,304,314,0
283,302,305,314,0
283,305,306,314,0
287,309,306,314,0
290,311,305,312,0
291,311,304,308,0
290,312,302,304,0
287,312,300,301,0
285,314,299,299,0
287,318,297,297,0
294,324,295,294,0
304,325,294,290,0
309,321,293,286,0
310,315,291,280,0
304,312,288,274,0
296,307,286,272,0
289,298,287,271,0
293,277,289,271,0
311,247,290,272,0
328,217,291,273,0
339,188,296,279,0
350,169,302,286,0
354,169,305,293,0
345,186,303,297,0
332,218,296,298,0
319,258,289,298,0
306,292,286,299,0
297,318,287,304,0
292,337,292,308,0
287,347,296,310,0
275,344,300,307,0
260,329,304,300,0
251,307,309,291,0
247,283,314,283,0
245,260,316,274,0
251,242,315,266,0
272,227,315,262,0
303,209,317,265,0
343,189,320,276,0
391,181,328,294,0
440,197,332,312,0
457,230,327,325,0
426,266,314,330,0
370,304,301,328,0
314,335,293,319,0
271,349,289,307,0
251,349,289,296,0
254,340,294,290,0
271,323,300,286,0
291,298,303,283,0
305,268,304,280,0
307,246,305,279,0
295,243,305,279,0
277,257,301,280,0
264,285,296,281,0
259,320,290,283,0
264,355,286,285,0
280,380,285,287,0
300,396,284,288,0
319,404,285,290,0
330,400,286,293,0
333,383,287,297,0
331,357,288,298,0
325,331,288,297,0
317,308,288,292,0
309,291,287,287,0
302,281,286,284,0
297,282,286,283,0
292,290,286,284,0
294,298,287,283,0
296,303,288,283,0
296,308,288,282,0
294,313,288,282,0
290,315,287,282,0
289,311,289,286,0
293,297,292,293,0
304,278,295,297,0
315,262,297,296,0
319,255,299,295,0
324,264,300,294,0
334,290,299,294,0
346,319,298,294,0
362,339,298,295,0
379,344,300,298,0
388,335,301,303,0
372,313,304,307,0
342,281,310,311,0
312,236,317,306,0
288,200,322,296,0
283,195,332,290,0
304,214,345,289,0
330,233,356,292,0
338,246,362,295,0
327,251,364,297,0
310,254,365,300,0
297,263,364,304,0
291,286,361,310,0
293,320,357,319,0
304,360,350,328,0
321,397,340,333,0
329,419,327,330,0
327,427,314,321,0
318,421,300,312,0
310,405,287,305,0
306,375,280,299,0
308,335,277,295,0
312,292,278,292,0
315,262,280,289,0
314,257,281,288,0
311,272,284,289,0
306,296,289,293,0
300,322,293,299,0
294,345,296,306,0
290,358,299,313,0
289,358,303,318,0
289,347,302,319,0
288,333,299,318,0
289,322,294,316,0
291,314,290,312,0
296,308,288,307,0
304,303,286,299,0
314,298,284,286,0
324,292,283,271,0
332,280,283,259,0
339,265,285,254,0
343,258,290,259,0
340,257,296,269,0
327,257,300,280,0
308,249,304,289,0
289,246,309,295,0
275,263,314,301,0
270,293,318,305,0
273,324,320,311,0
280,352,317,316,0
286,379,312,321,0
289,407,307,325,0
291,430,301,327,0
292,450,296,325,0
289,466,291,322,0
286,472,289,319,0
285,476,290,318,0
287,473,293,318,0
289,455,297,317,0
296,423,302,315,0
302,386,307,312,0
302,355,311,308,0
301,328,315,305,0
306,304,317,302,0
315,291,315,299,0
322,290,312,298,0
328,301,309,298,0
331,319,307,299,0
332,336,306,301,0
332,351,306,303,0
330,365,306,304,0
325,379,307,303,0
320,391,306,301,0
316,397,304,295,0
313,393,301,288,0
311,372,298,281,0
311,337,297,277,0
312,306,297,275,0
313,281,300,277,0
309,253,303,280,0
304,226,308,283,0
302,207,315,287,0
309,198,325,291,0
322,195,332,294,0
332,204,334,295,0
338,230,331,297,0
335,277,324,300,0
318,329,317,303,0
288,368,311,305,0
263,395,308,307,0
256,419,307,309,0
261,446,307,313,0
271,471,305,318,0
281,487,302,322,0
288,494,298,322,0
291,493,295,321,0
293,487,293,321,0
294,474,293,321,0
297,458,294,321,0
299,444,296,319,0
301,435,297,318,0
303,432,298,316,0
303,430,301,315,0
301,429,303,313,0
297,424,303,308,0
291,414,302,303,0
285,399,301,300,0
283,380,305,300,0
288,366,311,300,0
292,365,316,301,0
294,374,320,301,0
296,382,321,302,0
293,387,319,304,0
287,398,315,309,0
283,412,311,316,0
285,426,307,321,0
291,441,301,324,0
301,458,298,326,0
310,474,297,329,0
313,485,299,332,0
308,488,301,335,0
297,481,304,336,0
288,468,305,335,0
283,455,306,335,0
281,443,308,334,0
281,432,310,335,0
284,422,312,337,0
286,412,314,340,0
287,401,314,342,0
287,392,313,341,0
286,383,310,335,0
285,374,305,325,0
285,363,300,313,0
287,350,294,301,0
289,340,291,294,0
292,339,295,292,0
294,337,299,291,0
290,327,301,290,0
276,315,299,290,0
261,312,299,291,0
252,326,300,295,0
253,357,302,300,0
257,396,301,304,0
256,436,300,307,0
252,465,299,309,0
249,479,298,310,0
253,483,299,312,0
268,483,302,314,0
284,478,303,315,0
292,470,303,313,0
293,466,301,311,0
293,467,300,310,0
294,468,299,310,0
295,467,299,311,0
296,465,299,313,0
297,465,300,315,0
298,469,301,318,0
300,473,303,322,0
301,476,305,326,0
303,483,307,331,0
303,494,308,334,0
303,504,309,334,0
301,513,309,332,0
299,516,307,328,0
298,505,305,324,0
298,476,303,319,0
299,438,302,314,0
300,403,302,310,0
299,375,301,309,0
299,360,300,311,0
298,355,301,314,0
296,357,303,317,0
294,362,306,319,0
291,364,307,319,0
291,368,305,319,0
291,375,304,318,0
291,385,301,315,0
285,393,298,312,0
276,397,299,311,0
271,404,301,312,0
273,420,305,315,0
280,441,307,318,0
289,458,309,321,0
297,468,311,325,0
302,470,313,330,0
305,469,313,333,0
306,463,313,336,0
305,454,312,336,0
304,446,311,334,0
303,440,310,332,0
302,432,310,330,0
302,419,311,327,0
300,395,311,321,0
298,358,310,313,0
295,313,309,303,0
291,270,309,294,0
289,253,312,292,0
291,275,315,295,0
297,319,316,302,0
303,358,315,311,0
305,382,311,319,0
304,394,308,324,0
301,401,308,325,0
301,414,308,324,0
307,430,311,322,0
315,447,312,317,0
320,460,309,309,0
320,466,305,301,0
314,465,303,297,0
303,460,302,301,0
294,451,304,308,0
291,440,306,315,0
294,433,307,319,0
300,430,307,321,0
306,426,307,322,0
310,423,308,323,0
316,421,309,324,0
321,419,310,326,0
327,417,312,328,0
330,416,312,330,0
326,417,313,332,0
314,420,313,332,0
300,422,312,333,0
291,423,311,332,0
288,421,310,331,0
293,416,311,332,0
301,411,312,332,0
309,405,313,332,0
314,396,315,329,0
316,383,316,324,0
314,371,316,318,0
308,357,316,314,0
299,338,316,311,0
291,326,316,311,0
290,330,317,313,0
294,340,321,316,0
300,348,330,317,0
307,355,341,316,0
317,368,354,316,0
325,385,365,316,0
328,401,372,316,0
325,415,372,314,0
319,422,364,311,0
315,425,348,309,0
312,425,326,309,0
310,426,304,312,0
309,430,289,318,0
311,431,283,326,0
315,428,282,334,0
320,424,285,342,0
324,418,287,346,0
327,414,288,347,0
328,410,287,343,0
329,408,287,334,0
330,406,286,324,0
331,407,286,316,0
331,411,286,311,0
329,411,286,307,0
325,399,288,303,0
318,376,289,300,0
311,346,290,298,0
305,313,290,296,0
300,287,289,294,0
299,273,289,291,0
304,273,293,291,0
316,285,295,292,0
329,301,298,295,0
336,317,300,299,0
333,332,304,302,0
321,341,307,304,0
309,338,310,305,0
303,326,312,305,0
306,319,312,306,0
313,324,312,307,0
322,335,311,309,0
327,349,311,313,0
327,364,310,317,0
324,377,309,323,0
317,385,307,328,0
308,390,305,331,0
303,394,303,333,0
304,398,302,335,0
311,401,302,336,0
315,397,303,337,0
314,387,304,337,0
313,377,304,338,0
315,373,305,340,0
319,375,306,341,0
323,377,305,340,0
323,377,303,334,0
322,370,301,324,0
319,357,299,312,0
315,341,297,300,0
311,327,295,289,0
308,315,295,281,0
306,303,294,278,0
304,291,293,281,0
302,286,294,289,0
307,299,300,304,0
318,322,309,320,0
333,344,315,331,0
344,361,316,337,0
344,373,314,338,0
335,376,311,336,0
325,371,309,332,0
318,361,307,327,0
316,348,306,324,0
316,339,305,322,0
319,335,304,322,0
321,335,304,322,0
323,337,306,322,0
324,339,307,321,0
322,335,308,320,0
320,328,308,320,0
318,320,308,320,0
319,317,307,320,0
324,316,307,322,0
330,316,309,324,0
335,316,311,325,0
338,321,313,325,0
335,328,314,322,0
325,331,314,318,0
315,328,312,312,0
307,318,308,304,0
303,302,303,295,0
299,284,299,289,0
296,270,298,288,0
297,263,299,289,0
299,261,299,293,0
302,268,299,300,0
302,285,301,308,0
303,304,302,316,0
306,321,304,322,0
311,335,306,328,0
315,344,309,332,0
318,351,309,334,0
320,358,310,334,0
323,366,311,335,0
326,372,312,336,0
326,375,313,338,0
323,373,314,339,0
317,366,314,339,0
309,356,312,337,0
300,343,310,334,0
294,328,308,329,0
292,317,307,324,0
298,310,306,317,0
308,311,305,311,0
323,318,305,306,0
340,325,306,303,0
351,332,306,301,0
342,337,307,300,0
321,339,309,298,0
303,333,314,299,0
295,318,321,302,0
292,295,327,304,0
291,263,330,306,0
290,229,332,308,0
292,205,334,313,0
296,197,337,320,0
300,206,335,327,0
303,227,330,331,0
306,247,323,334,0
310,264,318,336,0
316,284,313,336,0
321,304,309,335,0
323,321,304,331,0
323,333,300,328,0
322,341,297,326,0
321,342,297,325,0
320,339,297,324,0
319,335,297,322,0
320,331,298,320,0
322,327,297,319,0
325,323,297,317,0
327,319,297,315,0
328,314,297,314,0
326,307,297,313,0
322,299,295,312,0
320,292,292,311,0
318,288,291,313,0
318,289,293,316,0
323,293,299,319,0
328,296,306,320,0
329,297,310,319,0
322,301,312,318,0
313,304,312,318,0
308,308,312,319,0
306,314,311,320,0
305,321,308,322,0
305,327,307,323,0
307,327,305,325,0
307,314,305,327,0
308,294,304,327,0
308,278,303,329,0
310,267,303,330,0
312,259,302,330,0
314,258,303,331,0
317,266,304,332,0
321,280,305,333,0
324,291,306,331,0
326,299,305,326,0
325,304,303,321,0
323,308,302,316,0
321,309,300,312,0
318,304,299,308,0
314,293,298,303,0
310,280,297,298,0
306,266,297,297,0
304,254,298,299,0
303,245,300,302,0
302,237,301,306,0
302,230,302,311,0
302,234,304,315,0
306,249,307,320,0
311,266,310,322,0
317,280,310,323,0
321,287,309,323,0
322,289,307,324,0
320,291,306,325,0
317,293,305,327,0
314,296,304,328,0
311,299,303,328,0
306,302,302,327,0
304,305,302,327,0
305,311,302,325,0
309,318,302,323,0
314,325,301,320,0
318,328,300,317,0
320,322,299,315,0
317,312,298,314,0
311,296,298,315,0
308,280,298,316,0
310,266,299,318,0
312,254,301,319,0
309,243,302,319,0
305,234,302,320,0
306,232,302,320,0
313,240,303,322,0
320,257,304,326,0
328,272,305,330,0
329,283,305,334,0
323,293,304,337,0
314,300,304,341,0
308,304,304,342,0
306,304,304,340,0
306,302,304,335,0
308,300,304,330,0
310,297,304,325,0
310,294,304,321,0
310,288,303,317,0
309,281,302,313,0
307,274,301,311,0
308,270,300,312,0
311,267,302,316,0
315,267,304,321,0
318,267,306,324,0
320,268,306,325,0
319,271,306,324,0
317,279,306,323,0
312,289,304,320,0
306,299,301,317,0
299,306,299,313,0
294,311,297,310,0
292,319,297,310,0
293,328,300,313,0
297,328,305,319,0
300,313,308,324,0
302,288,307,325,0
301,257,304,324,0
300,228,300,322,0
299,207,299,321,0
301,195,300,322,0
306,191,304,324,0
312,194,310,327,0
316,208,314,330,0
316,229,315,331,0
312,251,315,331,0
309,268,313,330,0
308,278,310,331,0
309,284,306,330,0
308,290,303,328,0
306,296,301,325,0
303,298,300,323,0
300,296,299,319,0
300,291,299,316,0
304,282,299,315,0
312,274,299,313,0
319,270,298,311,0
322,272,297,309,0
322,278,296,309,0
319,288,295,310,0
316,296,295,314,0
313,301,296,318,0
312,305,297,320,0
311,303,296,321,0
309,294,297,323,0
306,284,299,326,0
304,273,302,329,0
303,264,305,332,0
305,254,308,333,0
307,247,309,332,0
308,246,310,329,0
309,248,309,325,0
310,251,307,321,0
313,256,306,319,0
316,261,303,318,0
317,263,300,318,0
317,261,298,317,0
318,253,297,315,0
320,243,297,312,0
317,239,296,310,0
312,241,297,310,0
307,247,296,311,0
303,258,296,311,0
302,273,296,315,0
303,286,298,319,0
301,296,300,324,0
300,303,302,327,0
301,304,304,330,0
302,302,306,331,0
303,294,307,329,0
301,281,308,326,0
301,267,309,325,0
303,259,310,325,0
307,260,312,328,0
311,265,313,332,0
315,267,313,333,0
318,266,313,335,0
319,263,312,335,0
315,257,310,331,0
309,250,308,325,0
303,246,307,320,0
299,247,308,317,0
299,252,310,314,0
302,259,311,311,0
309,268,313,309,0
318,278,315,308,0
326,288,317,307,0
334,297,317,306,0
338,301,315,306,0
335,305,312,306,0
326,309,310,307,0
318,309,308,306,0
312,304,305,304,0
309,295,303,301,0
308,286,302,301,0
308,278,305,302,0
309,267,309,305,0
308,252,313,309,0
306,235,315,314,0
304,218,316,319,0
302,205,316,324,0
301,202,315,328,0
300,209,314,332,0
302,220,312,336,0
306,233,310,337,0
309,245,308,338,0
311,254,307,338,0
313,259,305,337,0
313,264,304,336,0
313,268,302,335,0
310,271,301,334,0
308,271,301,333,0
306,277,300,333,0
305,285,300,332,0
306,293,300,331,0
309,296,300,330,0
313,296,300,329,0
316,294,301,327,0
319,290,301,326,0
324,285,304,325,0
332,279,307,324,0
340,274,309,323,0
343,270,310,321,0
339,267,309,319,0
332,267,308,317,0
327,271,307,317,0
322,281,306,319,0
312,290,307,321,0
301,294,308,325,0
292,294,310,327,0
288,289,311,331,0
286,281,312,334,0
284,271,313,337,0
282,261,312,337,0
281,256,310,336,0
285,261,309,334,0
291,270,309,332,0
296,274,308,330,0
297,272,307,326,0
296,267,305,321,0
293,263,303,317,0
290,259,302,313,0
289,255,301,310,0
291,255,301,308,0
297,256,301,307,0
303,252,302,308,0
308,244,303,311,0
310,237,306,315,0
307,233,310,318,0
301,231,313,319,0
296,233,314,319,0
292,241,313,320,0
291,250,313,323,0
294,259,313,328,0
298,267,313,332,0
304,273,313,336,0
307,278,312,339,0
305,283,310,340,0
304,287,307,338,0
306,290,305,333,0
309,286,302,326,0
312,278,300,320,0
314,272,298,316,0
315,269,296,313,0
314,266,296,311,0
314,258,297,310,0
313,247,298,309,0
314,234,299,308,0
314,222,300,307,0
311,215,303,307,0
309,215,306,309,0
309,223,308,310,0
310,236,308,312,0
310,246,306,312,0
307,251,304,310,0
304,256,302,307,0
303,267,300,305,0
305,280,298,304,0
307,291,297,304,0
308,295,296,304,0
308,295,296,304,0
309,293,296,305,0
310,290,298,307,0
311,284,301,310,0
311,274,303,312,0
310,266,306,314,0
312,267,309,317,0
315,273,313,320,0
317,279,316,322,0
317,283,318,323,0
316,285,318,325,0
315,283,318,325,0
315,278,317,325,0
315,270,316,322,0
311,265,315,321,0
307,263,312,318,0
304,262,306,315,0
305,263,303,312,0
311,265,303,310,0
320,267,307,310,0
325,268,312,312,0
319,270,316,316,0
307,271,315,318,0
295,274,310,319,0
288,280,303,321,0
285,287,297,322,0
287,296,295,325,0
291,301,296,329,0
295,303,298,332,0
296,303,300,332,0
295,301,303,331,0
292,299,305,328,0
290,296,306,326,0
291,292,308,324,0
293,288,309,323,0
296,289,309,325,0
299,288,309,327,0
302,286,308,329,0
304,283,307,329,0
305,274,305,327,0
307,265,304,324,0
310,256,302,320,0
314,248,301,315,0
317,240,303,310,0
319,236,308,307,0
321,243,315,305,0
321,259,322,305,0
316,281,329,307,0
308,304,333,309,0
302,323,333,311,0
300,333,331,313,0
302,334,326,316,0
304,326,319,320,0
308,308,311,322,0
308,284,304,321,0
307,262,299,320,0
307,247,297,319,0
309,236,298,318,0
311,230,299,316,0
313,227,301,314,0
314,226,302,314,0
314,227,304,316,0
313,232,305,319,0
312,238,306,324,0
312,250,307,330,0
312,268,307,335,0
313,289,307,337,0
312,308,307,336,0
312,325,305,333,0
312,335,304,326,0
311,336,303,319,0
310,327,302,311,0
309,309,303,304,0
308,283,304,298,0
305,253,304,292,0
300,224,303,286,0
294,201,301,283,0
290,189,299,285,0
295,194,304,293,0
312,210,311,306,0
333,230,313,316,0
345,250,311,321,0
341,268,306,324,0
325,277,303,325,0
306,273,303,326,0
294,263,305,327,0
291,257,307,326,0
290,260,308,325,0
290,269,308,324,0
290,279,308,321,0
290,285,307,320,0
290,289,306,319,0
291,290,306,320,0
292,287,306,321,0
294,281,307,321,0
297,275,308,320,0
299,274,309,319,0
302,273,309,318,0
302,272,308,317,0
301,269,306,314,0
299,269,304,310,0
297,270,302,306,0
295,271,301,301,0
293,270,302,298,0
290,267,303,295,0
288,262,304,293,0
289,254,306,291,0
296,246,309,292,0
308,242,313,295,0
320,242,314,299,0
328,243,314,303,0
329,248,311,306,0
329,260,307,310,0
332,280,304,315,0
331,299,303,320,0
324,311,303,323,0
316,315,304,324,0
310,311,304,323,0
307,304,304,322,0
306,297,303,320,0
306,292,302,320,0
307,291,302,321,0
308,290,303,322,0
309,289,304,324,0
307,287,305,325,0
305,284,306,328,0
305,280,309,329,0
307,277,311,330,0
310,275,313,329,0
311,272,314,327,0
311,270,314,326,0
308,271,313,325,0
303,271,311,325,0
298,273,309,324,0
293,275,308,324,0
293,276,309,321,0
298,275,309,319,0
306,273,309,317,0
313,274,310,315,0
315,275,309,312,0
314,273,308,309,0
311,268,308,308,0
307,264,307,308,0
304,262,307,308,0
302,258,307,308,0
302,254,308,307,0
302,251,311,307,0
304,254,315,307,0
306,257,317,307,0
307,261,317,308,0
307,267,316,306,0
307,278,315,304,0
306,291,314,304,0
306,297,311,304,0
305,298,308,305,0
302,299,306,307,0
298,301,305,309,0
297,305,305,313,0
297,310,306,316,0
299,312,306,319,0
300,311,306,321,0
302,307,306,323,0
304,300,306,323,0
305,292,306,323,0
305,285,305,323,0
304,278,305,323,0
303,271,304,321,0
303,262,303,317,0
302,252,302,310,0
299,245,301,303,0
295,241,299,299,0
293,240,298,297,0
291,245,299,296,0
291,259,301,298,0
295,272,304,301,0
302,283,306,303,0
309,285,305,302,0
311,280,304,300,0
308,278,302,297,0
302,282,302,293,0
301,280,302,293,0
307,270,305,295,0
318,262,307,299,0
327,262,308,303,0
327,266,307,307,0
322,272,307,310,0
317,281,308,314,0
312,285,309,316,0
309,281,311,318,0
309,273,313,319,0
310,270,316,320,0
312,270,317,321,0
311,271,318,322,0
311,271,318,324,0
310,271,316,326,0
310,272,314,327,0
310,273,312,327,0
310,274,311,324,0
310,276,308,320,0
309,278,304,316,0
307,280,300,311,0
304,281,298,307,0
302,284,296,302,0
301,287,296,297,0
301,288,297,292,0
304,286,299,289,0
308,282,302,290,0
313,278,304,294,0
317,273,306,298,0
320,271,308,304,0
320,275,308,310,0
317,284,308,314,0
311,290,307,314,0
305,295,306,313,0
302,301,305,312,0
300,304,306,313,0
300,301,306,313,0
302,293,307,313,0
305,288,306,314,0
307,285,306,314,0
308,283,306,314,0
309,281,305,313,0
309,278,304,311,0
308,277,303,306,0
308,276,303,301,0
310,278,304,298,0
312,280,307,298,0
313,281,311,301,0
312,283,315,305,0
308,286,318,310,0
305,289,320,314,0
304,292,319,318,0
303,294,318,320,0
302,296,314,320,0
301,299,310,319,0
302,302,308,317,0
305,306,306,315,0
308,307,303,311,0
310,301,300,305,0
308,290,296,298,0
302,277,294,292,0
295,260,294,288,0
293,239,295,284,0
295,229,296,282,0
300,241,299,286,0
308,272,303,293,0
316,306,306,299,0
319,328,310,304,0
320,331,312,306,0
319,318,314,308,0
317,300,315,308,0
314,284,316,308,0
309,271,315,310,0
302,264,314,311,0
295,261,312,314,0
289,264,310,316,0
288,268,310,319,0
291,274,309,320,0
298,280,308,320,0
305,284,307,318,0
310,284,305,316,0
311,279,304,315,0
312,274,304,314,0
314,271,303,314,0
315,271,303,314,0
315,276,302,315,0
315,283,303,315,0
315,290,304,315,0
314,294,304,316,0
313,295,305,316,0
311,291,306,316,0
309,287,305,317,0
305,284,305,320,0
302,281,306,322,0
299,275,307,322,0
298,269,307,320,0
298,270,308,317,0
301,275,308,315,0
304,283,307,313,0
306,290,304,310,0
306,292,302,307,0
304,293,300,306,0
302,292,300,308,0
301,290,301,310,0
300,291,302,315,0
300,294,304,319,0
301,299,306,322,0
304,305,307,324,0
310,311,307,324,0
316,316,307,324,0
320,319,307,321,0
321,319,309,316,0
321,316,311,312,0
320,311,312,311,0
318,304,313,312,0
315,293,313,315,0
313,283,313,317,0
311,274,313,320,0
309,269,313,321,0
306,264,311,321,0
304,260,309,320,0
301,257,307,318,0
299,255,306,316,0
298,256,307,315,0
299,259,307,314,0
300,264,308,314,0
301,267,308,314,0
301,266,308,314,0
301,262,309,315,0
301,256,309,318,0
300,253,309,319,0
299,261,308,320,0
301,281,308,320,0
304,304,309,320,0
308,323,310,321,0
313,331,310,321,0
316,331,310,319,0
316,326,308,315,0
313,316,306,310,0
310,309,303,305,0
308,306,302,302,0
308,309,301,298,0
308,314,301,296,0
308,321,300,294,0
309,324,302,293,0
311,315,304,296,0
319,300,308,301,0
329,288,311,307,0
331,279,313,313,0
321,271,313,317,0
307,267,313,319,0
295,268,314,320,0
287,271,315,322,0
284,275,317,325,0
284,275,319,327,0
286,272,320,329,0
292,271,320,330,0
297,270,320,332,0
300,271,318,332,0
300,272,315,331,0
299,272,311,330,0
298,271,306,326,0
296,269,303,321,0
296,268,300,317,0
296,270,298,314,0
298,278,298,312,0
303,290,298,312,0
309,303,299,312,0
315,312,300,312,0
319,315,301,313,0
319,312,301,313,0
316,304,300,313,0
312,294,300,313,0
306,287,300,313,0
302,283,299,313,0
300,283,299,314,0
301,284,298,315,0
306,284,299,315,0
311,282,300,314,0
314,277,300,312,0
316,271,300,311,0
316,264,301,310,0
314,259,302,311,0
312,258,303,312,0
311,262,305,314,0
311,270,306,315,0
310,277,307,317,0
310,283,308,317,0
310,286,309,317,0
309,285,310,317,0
308,278,311,316,0
307,270,311,315,0
308,266,310,312,0
310,270,308,309,0
312,280,305,306,0
315,291,303,304,0
317,302,304,304,0
319,313,307,307,0
319,323,308,310,0
312,329,309,313,0
303,331,308,314,0
300,330,308,316,0
302,323,307,317,0
308,310,306,317,0
312,293,304,317,0
313,275,305,316,0
311,258,306,316,0
308,247,307,315,0
305,248,307,314,0
305,261,308,313,0
307,283,309,312,0
309,307,309,312,0
310,323,307,312,0
310,329,306,313,0
308,330,304,313,0
305,330,303,315,0
304,330,302,316,0
304,328,303,318,0
301,324,304,319,0
296,311,304,320,0
293,292,304,320,0
292,276,305,322,0
295,267,305,324,0
298,265,305,324,0
303,269,306,324,0
306,276,306,322,0
311,283,306,320,0
314,287,306,318,0
315,288,305,316,0
312,290,305,314,0
309,291,305,314,0
305,292,304,313,0
302,293,304,313,0
300,294,303,312,0
300,296,302,312,0
300,298,302,313,0
301,299,301,313,0
301,300,300,310,0
300,300,300,306,0
300,299,298,300,0
302,297,297,296,0
308,294,296,291,0
314,291,296,289,0
319,284,297,290,0
320,272,300,294,0
318,261,302,301,0
314,256,303,308,0
311,255,304,313,0
308,256,304,316,0
307,262,304,317,0
306,273,303,317,0
307,286,303,319,0
308,296,304,320,0
309,301,305,320,0
310,303,307,320,0
310,302,308,319,0
310,301,309,318,0
309,300,309,317,0
309,300,309,317,0
308,299,309,316,0
308,296,308,314,0
308,292,306,314,0
309,288,304,313,0
308,285,303,312,0
309,284,301,309,0
309,286,300,305,0
310,289,299,302,0
310,287,299,297,0
309,279,299,291,0
307,264,301,286,0
304,246,303,281,0
301,234,304,280,0
303,241,306,283,0
307,265,307,288,0
312,293,307,296,0
316,315,306,304,0
317,328,305,312,0
314,332,305,317,0
310,330,305,320,0
307,325,305,321,0
308,320,304,321,0
312,313,303,320,0
313,305,302,320,0
313,298,303,320,0
313,294,306,321,0
314,291,308,321,0
312,287,309,320,0
307,282,311,319,0
299,276,312,316,0
291,269,312,313,0
286,263,312,310,0
285,258,311,308,0
288,256,311,307,0
293,256,311,307,0
300,259,311,307,0
305,265,310,307,0
308,276,309,308,0
309,289,308,307,0
308,300,307,306,0
306,310,305,305,0
304,318,304,303,0
304,324,302,302,0
303,327,301,300,0
303,325,299,298,0
302,316,300,297,0
301,299,302,296,0
302,282,304,296,0
306,267,305,296,0
308,256,305,297,0
306,252,306,299,0
301,255,307,302,0
298,265,308,304,0
298,279,306,305,0
304,293,303,306,0
315,296,301,307,0
322,287,300,307,0
319,276,299,307,0
306,273,299,307,0
291,278,301,307,0
281,287,302,306,0
278,300,303,304,0
281,314,304,304,0
287,321,304,305,0
294,314,305,307,0
301,299,306,310,0
307,287,307,313,0
312,279,308,316,0
315,278,309,319,0
317,282,311,322,0
317,291,312,324,0
315,300,312,324,0
313,308,310,322,0
310,313,308,318,0
309,316,306,313,0
307,313,305,307,0
304,303,303,301,0
301,291,302,297,0
298,280,303,295,0
298,273,303,293,0
298,268,302,292,0
299,266,302,291,0
300,264,302,291,0
300,262,301,291,0
299,258,301,291,0
296,254,301,291,0
295,249,301,292,0
297,247,302,295,0
302,251,304,297,0
308,258,305,298,0
311,266,305,300,0
307,277,306,304,0
300,293,306,309,0
298,309,305,312,0
301,324,306,314,0
304,335,307,314,0
306,344,311,312,0
308,348,314,310,0
307,345,315,308,0
304,335,313,306,0
300,326,311,308,0
300,315,311,312,0
304,303,312,317,0
309,291,311,320,0
312,280,308,321,0
312,272,305,322,0
310,269,305,323,0
307,270,306,322,0
304,277,307,319,0
302,287,309,314,0
300,296,310,307,0
300,300,310,302,0
303,300,309,301,0
305,297,309,301,0
307,289,308,302,0
304,277,307,301,0
297,264,304,298,0
288,251,302,294,0
282,238,300,290,0
284,232,298,288,0
293,244,296,289,0
303,273,295,291,0
310,303,294,293,0
311,316,292,295,0
309,314,292,297,0
306,304,292,299,0
303,291,292,301,0
298,276,294,303,0
292,261,297,304,0
285,249,299,303,0
278,245,301,302,0
276,249,302,302,0
282,258,305,304,0
293,272,307,307,0
304,289,307,308,0
312,303,306,307,0
316,311,304,305,0
315,313,303,304,0
311,310,303,305,0
308,306,303,306,0
305,305,303,309,0
303,309,303,312,0
302,315,303,316,0
302,324,304,320,0
303,333,304,325,0
305,343,305,331,0
308,354,306,335,0
309,365,307,335,0
309,371,307,330,0
307,367,306,320,0
304,350,304,307,0
302,325,302,296,0
300,297,300,288,0
299,271,300,286,0
295,248,299,287,0
294,230,299,289,0
298,220,298,291,0
303,219,297,292,0
307,224,299,292,0
311,235,303,293,0
316,246,305,295,0
320,258,305,296,0
319,270,305,298,0
314,281,305,300,0
308,292,305,303,0
304,303,306,307,0
302,310,306,311,0
301,312,307,315,0
302,309,307,318,0
303,306,308,318,0
304,304,309,318,0
306,305,309,316,0
307,310,310,315,0
308,320,310,314,0
307,329,311,313,0
306,334,313,312,0
305,331,314,310,0
304,324,315,308,0
305,316,315,307,0
307,310,315,305,0
310,306,314,302,0
312,301,313,298,0
313,292,309,295,0
314,283,305,294,0
312,274,301,295,0
309,268,298,297,0
305,266,297,300,0
302,268,298,303,0
303,276,299,304,0
304,284,302,305,0
305,288,303,304,0
304,283,305,302,0
304,273,305,300,0
303,268,306,297,0
304,275,305,297,0
304,293,305,296,0
303,310,304,296,0
303,326,303,296,0
305,340,302,296,0
307,352,301,296,0
308,359,301,296,0
309,360,301,296,0
311,353,299,295,0
312,338,297,294,0
314,320,296,293,0
318,307,298,296,0
324,296,303,301,0
329,281,307,306,0
331,265,311,311,0
330,255,315,314,0
321,255,319,318,0
308,261,322,320,0
296,272,324,322,0
288,283,324,323,0
284,293,323,323,0
282,300,321,321,0
282,306,318,320,0
283,309,316,318,0
287,308,313,315,0
292,302,309,313,0
299,294,306,310,0
309,285,304,308,0
318,275,301,307,0
322,268,299,309,0
323,267,298,312,0
322,272,299,316,0
325,281,303,319,0
328,289,307,320,0
326,296,309,318,0
321,300,310,314,0
315,305,310,310,0
309,308,311,307,0
303,308,310,305,0
296,305,309,305,0
291,304,306,305,0
289,306,303,304,0
287,310,300,303,0
287,314,299,302,0
289,315,299,300,0
293,313,298,298,0
297,306,298,294,0
302,295,299,291,0
307,285,300,288,0
311,281,302,286,0
315,286,303,286,0
315,291,303,288,0
313,291,303,292,0
310,288,303,296,0
308,283,303,298,0
309,275,301,298,0
313,270,300,297,0
319,274,300,296,0
327,287,302,297,0
332,299,303,296,0
328,310,301,294,0
315,323,299,294,0
303,333,300,297,0
296,337,303,302,0
297,338,306,307,0
302,337,310,310,0
310,332,313,312,0
315,323,313,313,0
314,311,311,312,0
307,300,308,310,0
300,293,306,308,0
299,290,306,308,0
302,290,306,309,0
306,291,307,311,0
308,291,307,312,0
309,289,307,312,0
309,290,306,312,0
308,298,305,311,0
306,311,305,309,0
304,325,304,305,0
299,335,302,300,0
293,340,300,296,0
289,338,299,293,0
291,330,298,293,0
297,318,299,295,0
307,306,301,298,0
319,300,304,301,0
327,300,307,305,0
330,300,311,308,0
330,295,312,310,0
327,284,312,311,0
317,273,312,312,0
302,265,312,314,0
290,258,313,317,0
285,255,315,321,0
284,257,317,324,0
285,258,318,324,0
287,259,316,320,0
290,262,314,314,0
293,273,312,306,0
296,287,310,299,0
298,297,308,293,0
300,300,307,289,0
301,296,307,285,0
302,289,307,282,0
304,285,306,281,0
303,286,306,283,0
303,289,308,287,0
302,290,311,292,0
302,290,314,297,0
304,288,316,301,0
306,286,316,304,0
308,287,315,305,0
308,290,312,307,0
307,293,311,307,0
306,295,310,307,0
306,296,309,307,0
305,296,306,305,0
305,298,304,304,0
304,304,304,304,0
304,317,305,304,0
303,336,305,304,0
303,354,307,306,0
303,363,308,308,0
305,362,309,311,0
307,354,308,313,0
310,342,307,314,0
313,329,306,315,0
315,320,304,315,0
313,310,302,314,0
310,298,300,313,0
309,284,301,311,0
308,269,302,310,0
307,258,302,309,0
303,255,304,309,0
296,262,306,310,0
286,280,307,312,0
278,303,308,314,0
278,319,309,314,0
283,327,309,312,0
290,329,309,309,0
297,330,309,307,0
301,330,308,307,0
303,328,307,307,0
302,325,305,306,0
301,321,303,306,0
301,315,301,305,0
303,311,301,304,0
307,310,301,304,0
312,309,301,304,0
317,305,301,304,0
319,303,301,303,0
318,303,301,302,0
316,303,304,300,0
315,304,306,300,0
315,304,308,300,0
318,306,309,300,0
319,311,308,299,0
320,318,307,297,0
320,321,306,295,0
320,317,306,295,0
318,308,309,296,0
316,298,312,299,0
313,289,313,301,0
311,284,312,302,0
308,285,310,302,0
306,287,306,299,0
305,289,301,296,0
305,289,297,294,0
309,288,297,294,0
312,285,299,296,0
307,281,301,299,0
299,278,302,301,0
291,280,303,302,0
287,287,303,303,0
288,298,305,303,0
291,308,306,304,0
296,315,306,303,0
299,319,306,303,0
299,320,306,301,0
298,319,305,300,0
298,316,304,298,0
300,310,302,295,0
301,303,301,290,0
301,293,299,285,0
300,283,299,282,0
300,279,301,284,0
302,279,304,290,0
304,279,306,298,0
305,280,306,307,0
303,282,306,314,0
302,289,307,320,0
302,298,310,324,0
300,306,312,325,0
297,312,315,325,0
291,314,317,324,0
285,311,318,322,0
283,308,320,322,0
288,309,321,322,0
294,314,320,321,0
299,323,317,320,0
303,333,313,319,0
307,341,309,320,0
309,347,306,321,0
311,348,303,321,0
313,341,300,320,0
312,330,298,319,0
310,320,297,317,0
307,315,296,313,0
303,313,296,308,0
302,318,297,304,0
302,330,296,300,0
303,342,297,297,0
306,345,298,296,0
308,336,298,295,0
307,319,298,292,0
303,302,298,292,0
301,291,300,293,0
301,287,303,296,0
304,284,306,298,0
308,282,308,299,0
308,281,310,300,0
305,283,312,299,0
301,286,313,301,0
302,288,314,302,0
305,287,313,302,0
307,285,311,301,0
307,283,309,298,0
306,282,307,294,0
305,281,304,288,0
304,273,303,284,0
303,260,302,283,0
306,252,304,286,0
312,249,304,289,0
313,245,304,292,0
312,243,306,297,0
313,251,307,303,0
317,272,307,310,0
318,300,308,315,0
312,324,308,317,0
303,337,308,318,0
297,339,309,318,0
297,334,308,318,0
302,329,308,318,0
310,325,307,316,0
319,324,306,313,0
321,324,305,308,0
315,322,304,304,0
306,320,303,299,0
298,317,302,295,0
295,315,302,292,0
295,315,303,292,0
297,315,305,293,0
299,314,306,295,0
299,311,306,299,0
298,308,306,302,0
296,304,307,304,0
300,300,309,305,0
305,298,309,302,0
308,296,308,297,0
305,294,307,290,0
298,292,308,286,0
293,291,310,286,0
291,289,313,291,0
289,287,313,299,0
286,286,313,306,0
284,294,311,312,0
288,306,310,317,0
296,318,309,321,0
304,326,308,323,0
311,331,307,323,0
314,333,306,322,0
316,333,307,321,0
317,330,307,319,0
316,326,307,315,0
313,322,306,309,0
309,320,305,303,0
305,320,304,298,0
303,322,303,296,0
303,327,302,295,0
303,331,302,294,0
304,332,302,295,0
305,328,303,296,0
307,325,303,298,0
309,325,303,301,0
309,323,303,303,0
306,320,302,303,0
301,317,303,303,0
298,312,303,303,0
295,305,303,303,0
292,298,304,304,0
291,291,304,306,0
292,287,306,308,0
294,287,308,310,0
297,292,310,313,0
299,299,312,315,0
301,307,313,316,0
301,314,313,316,0
302,317,312,314,0
300,315,312,313,0
300,310,312,311,0
298,306,311,309,0
294,306,310,305,0
287,306,309,302,0
282,298,310,298,0
281,282,312,293,0
280,267,313,288,0
281,256,315,286,0
287,248,316,285,0
295,245,316,288,0
304,251,316,293,0
312,268,316,300,0
318,287,317,307,0
319,306,317,313,0
316,321,315,317,0
311,330,312,318,0
306,334,310,318,0
300,332,308,317,0
297,325,307,315,0
295,314,307,313,0
296,303,308,310,0
299,299,309,308,0
303,305,309,307,0
308,314,308,307,0
313,326,308,306,0
316,337,308,306,0
319,345,307,305,0
321,345,307,304,0
324,337,306,302,0
326,325,306,300,0
327,312,307,298,0
327,301,308,298,0
325,290,310,297,0
322,280,311,297,0
318,272,313,298,0
313,271,314,300,0
307,275,315,304,0
304,279,317,311,0
304,286,318,316,0
309,294,318,322,0
313,300,316,326,0
316,306,314,328,0
320,313,311,326,0
326,320,309,321,0
330,327,307,315,0
332,333,305,309,0
332,334,303,304,0
329,329,301,299,0
326,320,300,295,0
322,311,299,292,0
320,306,300,291,0
320,306,301,291,0
318,308,302,292,0
317,314,301,291,0
313,317,301,292,0
310,310,299,292,0
306,301,299,292,0
306,295,299,293,0
310,294,303,297,0
321,299,308,302,0
334,305,312,306,0
348,308,313,309,0
358,307,315,311,0
359,307,316,312,0
350,308,316,313,0
334,308,315,314,0
318,306,313,315,0
308,302,312,317,0
302,296,312,319,0
301,290,312,321,0
303,287,313,322,0
305,289,313,324,0
307,298,313,323,0
308,306,312,321,0
310,311,311,319,0
313,313,310,316,0
316,316,309,313,0
318,317,307,310,0
318,319,306,306,0
317,323,306,302,0
315,328,305,297,0
311,332,305,294,0
306,339,306,293,0
303,349,309,293,0
306,358,312,294,0
313,364,315,294,0
315,362,315,295,0
315,351,314,296,0
314,338,312,298,0
314,325,310,301,0
315,310,309,305,0
317,297,307,308,0
318,286,305,312,0
319,277,304,313,0
319,271,303,312,0
318,270,303,310,0
315,274,303,308,0
308,278,304,305,0
298,277,304,303,0
290,272,306,302,0
289,266,309,301,0
296,265,311,302,0
306,270,312,301,0
313,279,311,301,0
318,291,311,302,0
321,304,312,303,0
324,317,314,304,0
326,328,314,304,0
328,335,313,303,0
329,342,311,303,0
331,345,307,302,0
332,345,304,301,0
334,343,302,301,0
336,337,302,303,0
337,328,303,304,0
336,317,304,306,0
332,309,305,308,0
327,308,306,310,0
324,311,307,312,0
322,312,307,313,0
323,310,308,313,0
322,305,308,313,0
314,301,308,313,0
304,299,309,313,0
296,298,308,313,0
290,296,308,311,0
289,296,306,306,0
289,301,305,300,0
293,305,304,294,0
299,303,306,291,0
305,301,308,290,0
311,300,309,288,0
315,297,310,287,0
318,292,311,287,0
318,291,312,287,0
317,296,312,290,0
317,310,312,294,0
317,324,312,299,0
318,331,312,303,0
319,335,312,307,0
319,337,312,310,0
318,336,310,312,0
316,331,309,310,0
313,322,308,307,0
309,312,307,305,0
306,302,306,302,0
304,295,306,301,0
303,292,307,302,0
303,291,307,304,0
305,290,307,307,0
308,292,306,309,0
312,295,306,312,0
315,300,306,313,0
318,305,305,313,0
320,306,306,312,0
321,303,309,310,0
321,297,311,306,0
318,292,311,301,0
314,293,310,295,0
309,293,307,290,0
306,291,305,286,0
304,284,304,285,0
303,280,304,285,0
303,281,303,286,0
303,288,303,289,0
303,299,303,290,0
301,309,303,289,0
300,315,301,288,0
301,318,300,288,0
303,321,299,290,0
304,324,300,294,0
307,329,302,298,0
314,333,305,301,0
324,337,309,302,0
329,340,312,302,0
329,342,315,301,0
324,343,317,300,0
318,343,318,300,0
313,343,318,301,0
309,341,317,300,0
308,332,313,298,0
305,320,309,294,0
302,309,304,291,0
299,303,304,291,0
296,302,305,294,0
294,303,306,297,0
295,300,305,299,0
295,294,304,300,0
297,287,302,301,0
300,281,302,303,0
303,279,302,307,0
306,282,303,311,0
307,289,306,315,0
306,297,310,318,0
304,302,312,319,0
302,304,315,320,0
302,304,318,321,0
305,306,321,322,0
309,310,322,321,0
309,312,321,319,0
309,314,319,315,0
309,314,316,310,0
313,315,313,306,0
319,317,311,304,0
326,321,309,304,0
331,322,305,304,0
328,319,301,305,0
318,312,299,305,0
307,305,297,305,0
300,303,297,303,0
299,300,297,300,0
300,295,298,297,0
302,288,299,295,0
302,283,301,295,0
301,279,302,297,0
298,276,303,298,0
296,280,304,299,0
294,289,304,300,0
294,301,305,303,0
295,315,306,306,0
296,325,306,307,0
295,331,305,306,0
293,330,303,302,0
291,325,300,297,0
289,318,297,290,0
287,312,293,284,0
286,307,289,279,0
287,310,288,278,0
291,316,291,284,0
299,319,297,292,0
310,317,303,300,0
317,312,307,305,0
318,309,308,308,0
316,310,308,310,0
313,313,309,311,0
313,317,309,312,0
313,319,309,311,0
311,315,307,308,0
309,309,305,305,0
309,301,304,301,0
309,293,305,297,0
310,284,305,295,0
309,274,306,293,0
307,266,307,291,0
306,263,308,291,0
305,272,308,290,0
304,289,307,290,0
306,310,307,292,0
308,329,309,295,0
309,345,311,300,0
310,351,314,306,0
314,345,315,311,0
319,332,316,315,0
318,319,316,317,0
310,309,316,316,0
300,307,315,315,0
292,312,313,313,0
284,320,310,311,0
276,323,306,308,0
270,321,303,304,0
268,312,301,302,0
271,296,300,301,0
278,279,301,300,0
287,272,302,300,0
296,280,304,300,0
303,295,305,300,0
307,309,304,299,0
309,316,303,300,0
309,318,302,300,0
309,316,302,302,0
310,313,303,304,0
312,307,304,307,0
315,300,306,310,0
316,294,308,313,0
315,294,310,315,0
312,299,311,318,0
308,307,311,318,0
303,313,310,316,0
300,317,309,313,0
298,320,307,309,0
297,316,306,306,0
296,307,305,303,0
296,294,305,301,0
294,279,304,300,0
290,267,304,300,0
286,263,306,302,0
285,268,307,304,0
286,280,308,307,0
288,293,308,309,0
290,306,306,308,0
289,319,305,307,0
289,329,305,307,0
293,336,306,306,0
299,338,309,304,0
306,336,312,303,0
313,329,314,303,0
317,320,316,304,0
318,311,316,306,0
315,305,316,306,0
309,306,313,305,0
304,314,308,302,0
301,327,301,299,0
301,339,296,297,0
301,342,294,295,0
302,335,294,295,0
305,322,296,296,0
307,308,297,297,0
309,298,298,298,0
308,294,299,299,0
307,293,300,301,0
306,291,302,303,0
304,290,303,305,0
303,294,302,307,0
302,303,303,309,0
301,313,305,313,0
301,321,307,315,0
299,324,307,314,0
297,326,306,312,0
295,327,307,308,0
296,328,310,304,0
301,330,313,301,0
305,332,314,298,0
304,331,313,298,0
299,328,312,298,0
294,321,312,299,0
293,315,311,301,0
294,310,310,302,0
296,306,307,303,0
298,306,305,305,0
301,308,303,307,0
304,309,302,310,0
307,308,303,312,0
307,303,305,313,0
305,294,306,314,0
300,283,307,314,0
295,273,307,313,0
293,265,306,311,0
299,266,304,310,0
310,278,305,310,0
317,294,306,310,0
312,307,306,308,0
299,314,306,307,0
287,316,306,307,0
279,315,306,307,0
276,316,306,307,0
277,320,306,307,0
281,325,307,309,0
285,329,309,311,0
290,330,310,314,0
294,326,312,315,0
298,316,312,317,0
300,306,313,317,0
303,299,313,317,0
307,300,312,315,0
310,305,311,313,0
313,311,309,309,0
312,316,308,306,0
308,318,306,302,0
303,316,305,301,0
298,312,304,300,0
296,309,304,300,0
298,309,305,298,0
302,309,305,297,0
304,308,304,296,0
304,309,303,296,0
302,313,300,295,0
301,317,298,294,0
300,315,297,296,0
304,305,299,300,0
311,293,300,304,0
317,285,299,308,0
315,285,300,312,0
307,292,301,316,0
299,299,303,319,0
294,304,306,322,0
293,308,308,323,0
293,310,309,323,0
292,311,310,321,0
292,314,310,319,0
292,316,309,316,0
292,318,308,312,0
294,318,306,309,0
295,318,305,306,0
296,316,303,301,0
296,314,302,296,0
296,310,304,292,0
297,305,306,288,0
296,302,308,287,0
295,298,312,288,0
297,295,315,289,0
299,293,314,290,0
298,290,311,291,0
295,288,308,292,0
291,285,305,295,0
290,287,302,298,0
294,293,301,303,0
299,303,301,307,0
304,317,301,310,0
307,329,302,313,0
308,334,302,315,0
309,332,303,317,0
311,327,303,317,0
314,319,303,316,0
316,313,302,315,0
318,309,301,312,0
320,307,300,309,0
317,303,298,305,0
310,296,295,302,0
304,284,292,299,0
301,273,293,299,0
302,266,296,300,0
303,268,300,304,0
301,275,303,309,0
297,285,305,313,0
293,294,306,316,0
291,303,308,318,0
291,313,309,318,0
291,321,309,317,0
291,327,308,315,0
292,332,307,312,0
297,334,307,310,0
303,331,307,307,0
307,324,306,304,0
306,315,305,301,0
300,310,305,299,0
293,311,304,297,0
288,311,304,297,0
287,308,303,300,0
290,304,303,304,0
291,300,302,307,0
291,297,301,310,0
292,299,301,312,0
297,305,302,313,0
303,313,304,314,0
307,317,306,313,0
311,315,307,313,0
313,312,307,312,0
315,310,306,311,0
316,311,306,310,0
317,314,305,309,0
317,317,304,305,0
317,314,304,299,0
315,303,303,293,0
313,289,303,290,0
311,277,303,291,0
308,272,303,293,0
304,271,302,294,0
301,272,300,294,0
300,275,299,293,0
299,279,300,294,0
299,281,302,296,0
299,284,303,298,0
298,287,303,299,0
296,288,302,300,0
295,291,302,302,0
296,296,304,304,0
297,301,306,306,0
299,306,308,306,0
300,310,310,305,0
301,314,310,303,0
299,319,311,301,0
298,326,311,300,0
297,331,312,300,0
297,332,312,300,0
298,330,311,301,0
299,320,310,301,0
300,308,309,299,0
301,297,308,298,0
303,291,308,298,0
306,293,310,299,0
312,299,312,301,0
317,307,314,303,0
319,313,315,304,0
318,316,316,304,0
315,316,316,303,0
312,313,316,302,0
311,306,316,300,0
310,293,315,298,0
307,280,313,298,0
303,272,312,300,0
299,267,310,303,0
295,267,307,305,0
291,273,304,307,0
288,281,302,308,0
286,288,300,309,0
286,296,300,309,0
286,304,299,308,0
287,316,299,308,0
290,330,299,309,0
295,342,301,312,0
301,352,303,315,0
306,358,305,318,0
309,359,306,319,0
312,355,308,320,0
313,349,309,322,0
311,343,309,322,0
309,338,309,321,0
306,333,308,318,0
305,326,308,314,0
304,319,306,310,0
304,313,305,306,0
304,309,304,302,0
303,306,305,299,0
301,304,304,297,0
300,303,305,295,0
300,302,304,293,0
301,300,305,292,0
303,294,303,292,0
304,284,301,291,0
301,275,298,293,0
292,271,297,297,0
285,276,299,304,0
282,288,305,311,0
286,299,308,316,0
291,303,309,317,0
296,302,309,317,0
299,301,308,316,0
301,300,308,313,0
302,298,308,311,0
302,299,308,309,0
303,306,308,308,0
304,318,309,308,0
304,328,310,307,0
306,335,311,306,0
306,338,311,305,0
306,337,310,304,0
305,335,308,303,0
304,330,306,301,0
304,324,304,300,0
303,318,303,300,0
302,314,302,303,0
302,314,303,307,0
303,319,304,313,0
305,328,305,316,0
306,337,304,315,0
305,343,303,310,0
304,338,301,302,0
301,319,300,295,0
298,292,301,290,0
296,267,303,288,0
296,249,304,289,0
297,242,306,291,0
300,248,307,295,0
302,264,306,299,0
302,284,306,302,0
303,301,305,304,0
303,312,306,307,0
305,317,307,309,0
307,317,307,311,0
309,315,307,312,0
309,311,307,314,0
304,306,306,316,0
300,300,306,317,0
297,297,306,316,0
296,298,305,315,0
296,304,306,311,0
297,312,307,309,0
297,320,309,307,0
298,328,310,305,0
301,334,312,303,0
304,336,312,301,0
307,336,311,301,0
309,334,311,302,0
310,332,310,304,0
311,332,309,305,0
311,330,308,304,0
311,326,306,301,0
310,319,304,299,0
309,312,302,297,0
308,302,301,297,0
306,293,300,298,0
305,287,298,299,0
304,284,298,301,0
303,285,299,304,0
305,287,303,308,0
305,288,306,310,0
303,284,307,310,0
301,276,307,307,0
300,269,305,304,0
301,269,304,302,0
303,276,304,301,0
304,282,304,301,0
304,287,304,302,0
302,293,304,303,0
299,299,304,304,0
297,303,304,305,0
296,306,305,306,0
296,310,305,309,0
298,315,307,314,0
301,320,309,320,0
304,325,312,325,0
307,327,314,327,0
309,326,316,327,0
311,323,316,325,0
313,321,316,322,0
314,319,315,318,0
313,316,313,314,0
310,314,309,310,0
308,312,306,306,0
305,313,303,303,0
303,313,301,299,0
300,313,299,294,0
297,311,297,291,0
294,311,296,288,0
294,312,295,286,0
296,312,295,285,0
302,309,296,285,0
311,303,296,285,0
318,298,296,286,0
318,293,297,289,0
312,291,297,291,0
304,291,298,293,0
297,292,301,297,0
293,297,305,300,0
293,299,307,302,0
295,296,308,303,0
297,295,308,303,0
299,295,307,304,0
299,296,307,304,0
299,297,306,305,0
300,299,305,305,0
301,301,304,305,0
302,303,304,306,0
304,304,304,307,0
305,306,304,308,0
305,308,304,309,0
306,307,303,308,0
306,305,302,305,0
308,301,302,302,0
310,297,302,299,0
311,293,302,298,0
311,290,303,298,0
310,288,303,298,0
309,288,302,296,0
307,288,302,294,0
305,290,303,293,0
305,295,303,292,0
304,302,303,291,0
304,306,303,291,0
304,306,303,293,0
304,306,303,296,0
303,308,302,300,0
303,311,302,303,0
304,313,301,304,0
304,313,301,303,0
304,312,302,302,0
304,308,301,302,0
304,304,300,302,0
304,302,300,302,0
305,303,300,303,0
306,304,301,302,0
305,303,302,299,0
303,295,302,297,0
302,285,302,295,0
301,272,302,295,0
299,261,301,296,0
298,256,300,296,0
299,262,298,294,0
301,277,297,293,0
303,292,296,292,0
303,302,297,292,0
305,306,299,292,0
309,308,300,293,0
311,309,302,294,0
312,311,302,297,0
312,314,303,301,0
310,315,303,305,0
307,312,304,308,0
304,307,304,311,0
302,303,304,312,0
300,302,305,313,0
300,303,305,313,0
302,306,306,314,0
304,311,306,314,0
306,316,308,314,0
307,322,309,314,0
307,326,310,314,0
306,327,309,314,0
304,325,308,312,0
303,321,307,309,0
303,317,306,307,0
303,315,308,306,0
303,313,309,304,0
302,307,311,303,0
302,300,312,301,0
302,297,312,301,0
302,298,312,300,0
302,300,312,299,0
302,302,310,298,0
303,302,309,298,0
308,301,308,299,0
314,300,307,303,0
317,298,306,306,0
314,296,306,309,0
307,297,306,312,0
302,299,307,315,0
300,302,308,316,0
300,305,308,315,0
301,309,307,312,0
302,315,307,311,0
304,322,306,309,0
305,328,306,307,0
305,333,305,305,0
305,337,304,302,0
305,342,304,298,0
305,343,303,294,0
304,340,302,289,0
304,331,300,284,0
305,322,299,279,0
307,315,297,277,0
309,314,297,277,0
310,313,298,281,0
312,309,300,286,0
314,302,301,292,0
312,295,302,297,0
302,287,301,301,0
293,281,303,304,0
289,275,306,308,0
293,266,310,312,0
300,260,313,315,0
305,263,313,317,0
307,271,312,317,0
306,280,311,317,0
304,288,310,316,0
302,295,308,316,0
301,302,308,315,0
300,306,308,314,0
299,307,307,313,0
299,305,307,312,0
299,302,306,311,0
299,301,306,309,0
299,301,305,307,0
298,300,305,306,0
299,298,305,306,0
302,297,307,306,0
305,298,308,306,0
309,306,309,305,0
312,317,309,304,0
314,325,309,304,0
315,329,309,303,0
314,332,308,302,0
311,332,306,301,0
305,327,305,299,0
299,318,304,298,0
296,307,304,297,0
297,295,305,296,0
301,287,305,296,0
304,284,306,297,0
304,286,305,301,0
300,289,305,305,0
295,294,304,309,0
290,297,304,312,0
288,299,305,314,0
288,301,305,315,0
292,304,307,317,0
299,307,308,318,0
306,312,309,316,0
311,314,310,314,0
314,316,310,311,0
314,316,309,309,0
313,316,309,307,0
312,317,308,306,0
310,315,307,303,0
308,313,306,301,0
306,311,305,298,0
304,307,304,297,0
303,302,303,296,0
302,297,302,296,0
301,291,301,295,0
299,285,302,294,0
298,279,303,295,0
297,273,305,297,0
298,265,307,302,0
302,259,310,309,0
307,262,311,314,0
308,276,311,318,0
307,294,310,318,0
305,309,309,317,0
305,318,309,314,0
305,323,308,311,0
305,329,308,310,0
306,333,308,308,0
307,336,309,306,0
308,337,308,302,0
308,335,307,298,0
308,329,305,294,0
305,321,303,293,0
303,313,302,294,0
302,307,303,298,0
301,306,305,303,0
300,309,307,307,0
299,314,309,312,0
299,318,311,316,0
299,316,312,321,0
298,309,312,324,0
298,302,312,325,0
301,298,311,324,0
304,295,308,321,0
307,291,306,316,0
311,287,305,312,0
315,285,306,309,0
317,286,306,307,0
318,287,304,304,0
315,290,303,301,0
309,296,302,299,0
304,306,304,299,0
303,317,306,300,0
304,327,307,302,0
304,335,307,303,0
304,341,306,306,0
303,343,306,308,0
304,340,307,310,0
305,332,307,311,0
307,323,307,310,0
308,313,308,310,0
309,304,308,310,0
309,298,308,309,0
308,296,308,308,0
306,297,309,307,0
305,300,309,305,0
304,301,309,302,0
302,302,308,299,0
301,303,307,296,0
300,304,306,294,0
299,305,305,291,0
298,307,304,287,0
295,308,301,283,0
290,307,299,283,0
286,301,299,286,0
285,296,301,292,0
291,294,304,298,0
297,292,308,303,0
300,287,311,306,0
301,283,312,308,0
301,286,313,310,0
300,295,314,311,0
298,306,316,312,0
299,315,317,311,0
301,321,318,308,0
304,325,317,306,0
306,326,317,304,0
308,325,315,302,0
309,323,313,300,0
308,319,308,298,0
306,314,303,298,0
302,310,300,299,0
298,308,297,301,0
295,306,296,302,0
292,304,296,304,0
291,304,296,304,0
294,304,296,304,0
299,305,296,304,0
305,308,297,304,0
311,313,298,306,0
316,314,300,308,0
318,308,303,309,0
317,298,305,310,0
314,290,306,310,0
309,287,307,312,0
304,291,307,313,0
301,297,308,314,0
301,304,309,314,0
303,313,308,312,0
305,319,306,308,0
306,322,303,302,0
306,320,301,297,0
306,315,299,293,0
307,309,298,292,0
310,302,297,293,0
313,293,298,295,0
317,288,300,298,0
320,292,304,300,0
322,300,306,302,0
321,307,309,304,0
319,311,310,306,0
316,314,311,308,0
314,317,311,309,0
311,318,310,309,0
309,318,311,311,0
309,316,311,312,0
310,315,312,313,0
312,315,312,314,0
311,313,311,314,0
309,310,311,313,0
307,306,311,312,0
306,302,311,311,0
306,298,312,310,0
306,293,313,310,0
308,289,315,312,0
309,291,316,314,0
311,300,316,313,0
312,310,315,312,0
313,319,314,311,0
313,325,312,311,0
312,328,311,310,0
311,329,309,309,0
310,329,308,309,0
308,327,308,308,0
306,321,308,306,0
304,312,308,304,0
304,300,308,302,0
303,287,307,299,0
302,276,305,295,0
304,276,302,292,0
307,285,300,291,0
311,293,299,293,0
314,299,299,298,0
310,303,301,305,0
304,304,306,312,0
303,305,310,317,0
307,307,313,319,0
309,308,313,317,0
308,307,312,313,0
308,304,311,309,0
308,302,310,305,0
309,301,309,302,0
309,303,308,300,0
309,306,308,298,0
306,310,308,297,0
305,314,307,295,0
303,318,307,295,0
303,321,307,297,0
303,322,308,299,0
303,317,309,301,0
304,308,308,303,0
305,298,308,304,0
305,289,307,303,0
306,283,306,302,0
306,282,305,302,0
305,285,303,301,0
303,289,302,300,0
301,289,301,297,0
298,287,300,294,0
297,283,300,291,0
295,280,301,289,0
295,278,303,290,0
297,278,306,292,0
300,281,307,295,0
304,285,307,299,0
309,289,306,302,0
314,293,305,304,0
317,292,305,304,0
317,284,305,303,0
314,273,305,302,0
310,268,305,303,0
306,275,305,304,0
304,290,304,305,0
304,312,304,305,0
305,333,304,306,0
306,347,304,308,0
308,351,305,310,0
310,350,306,313,0
312,346,308,316,0
312,341,309,318,0
311,337,310,319,0
311,336,310,319,0
310,336,310,317,0
311,335,311,315,0
312,333,311,311,0
314,331,311,306,0
316,326,310,303,0
317,320,310,302,0
317,314,310,303,0
314,309,311,304,0
309,307,311,304,0
301,308,310,304,0
292,308,309,304,0
283,307,309,302,0
280,304,310,301,0
285,300,310,302,0
290,296,310,303,0
296,293,309,304,0
300,290,308,305,0
303,287,307,306,0
306,285,306,308,0
307,283,306,310,0
307,283,306,311,0
306,286,306,311,0
305,292,306,310,0
304,300,305,308,0
303,308,305,305,0
303,315,304,302,0
304,322,304,298,0
306,328,304,294,0
308,334,303,289,0
310,342,302,286,0
310,350,301,284,0
307,353,301,284,0
305,351,301,284,0
303,344,301,286,0
303,338,302,290,0
303,332,304,294,0
304,324,305,298,0
306,315,307,303,0
309,310,309,307,0
311,308,309,309,0
312,306,308,310,0
310,306,308,312,0
305,309,306,313,0
298,314,305,314,0
291,321,304,314,0
285,324,302,312,0
282,322,301,309,0
283,315,301,308,0
286,308,302,307,0
290,304,303,305,0
295,302,303,301,0
300,298,303,300,0
305,292,303,301,0
310,285,304,303,0
314,278,305,306,0
316,273,305,308,0
316,271,306,311,0
313,270,307,313,0
309,268,309,314,0
304,264,310,312,0
302,260,310,311,0
303,256,308,308,0
304,257,307,306,0
305,267,306,305,0
305,278,307,303,0
304,285,306,300,0
302,291,305,296,0
300,299,303,293,0
301,310,301,291,0
304,321,301,289,0
308,329,300,288,0
308,335,299,288,0
308,343,299,290,0
309,351,302,296,0
313,354,304,301,0
316,352,306,307,0
317,347,307,312,0
317,340,307,317,0
316,337,309,320,0
315,337,310,323,0
314,338,311,325,0
313,340,310,325,0
312,339,309,322,0
311,335,308,317,0
311,329,308,312,0
312,322,308,306,0
313,315,308,301,0
312,311,307,298,0
309,312,304,295,0
306,315,301,293,0
302,318,298,292,0
297,318,297,291,0
295,315,296,291,0
297,312,298,295,0
303,311,301,299,0
309,313,303,302,0
312,320,304,303,0
310,330,304,304,0
305,339,304,304,0
302,342,305,304,0
304,336,307,305,0
308,325,309,306,0
308,312,310,307,0
304,301,310,306,0
298,294,311,306,0
294,292,311,306,0
292,298,311,307,0
291,307,311,309,0
291,315,311,309,0
291,316,311,309,0
291,311,310,309,0
293,301,308,308,0
295,294,306,308,0
297,291,305,308,0
299,290,305,310,0
300,290,305,312,0
299,288,305,313,0
297,286,304,312,0
296,284,304,312,0
299,281,304,310,0
304,285,304,308,0
312,297,303,305,0
319,309,302,303,0
324,312,303,305,0
326,303,307,309,0
326,284,312,313,0
323,261,315,314,0
318,244,316,314,0
312,243,315,313,0
305,256,314,309,0
299,279,314,306,0
298,302,315,302,0
301,316,315,300,0
303,325,314,298,0
301,330,313,298,0
299,332,312,300,0
298,332,312,303,0
301,332,311,306,0
305,333,310,309,0
308,334,310,312,0
310,338,309,314,0
312,342,309,315,0
313,346,309,314,0
313,347,309,312,0
312,345,307,310,0
311,343,306,308,0
309,340,304,306,0
308,338,302,303,0
308,337,300,301,0
308,335,299,299,0
308,332,298,297,0
309,327,298,297,0
310,321,297,298,0
310,315,298,299,0
309,310,299,300,0
307,307,300,301,0
304,303,302,303,0
302,297,304,305,0
302,292,307,308,0
304,287,310,310,0
305,281,310,310,0
304,274,310,309,0
303,268,309,308,0
303,268,307,306,0
304,287,306,306,0
305,319,305,307,0
306,346,303,307,0
307,360,302,306,0
309,361,302,303,0
310,352,303,300,0
311,340,304,298,0
311,328,304,297,0
310,318,305,299,0
309,310,306,304,0
308,302,307,313,0
306,296,309,322,0
303,295,311,331,0
302,296,311,337,0
302,300,310,339,0
303,305,309,338,0
306,309,307,335,0
310,312,307,329,0
314,314,307,324,0
319,314,307,318,0
321,311,305,312,0
317,306,304,308,0
309,301,304,304,0
301,298,306,301,0
298,295,306,297,0
297,293,303,293,0
295,293,301,290,0
293,298,299,288,0
293,307,298,288,0
294,321,298,289,0
296,333,299,290,0
298,337,300,291,0
300,333,301,293,0
300,325,303,296,0
299,314,305,299,0
297,300,308,302,0
295,289,309,304,0
296,284,311,305,0
302,288,311,307,0
306,294,311,309,0
309,300,310,312,0
310,304,311,315,0
311,309,311,317,0
309,312,311,316,0
306,314,309,315,0
303,316,308,313,0
303,319,308,312,0
302,321,306,310,0
303,321,305,308,0
304,319,304,306,0
308,316,303,304,0
311,314,303,303,0
314,314,303,303,0
314,314,303,304,0
311,318,304,306,0
308,324,306,308,0
307,331,309,310,0
307,336,310,311,0
308,337,310,310,0
308,331,308,307,0
310,320,305,302,0
314,308,304,299,0
320,296,302,298,0
321,284,301,299,0
317,280,300,302,0
308,284,299,305,0
297,289,298,306,0
288,294,296,307,0
285,300,297,308,0
291,307,301,310,0
303,317,305,313,0
313,325,306,315,0
317,331,306,315,0
315,335,306,316,0
312,337,305,316,0
309,335,305,315,0
306,326,305,313,0
304,316,305,311,0
304,310,305,309,0
304,307,305,309,0
304,306,306,307,0
303,305,305,305,0
303,304,305,304,0
302,302,305,303,0
301,302,305,304,0
301,304,306,305,0
301,307,306,308,0
301,309,305,309,0
302,308,304,309,0
302,302,304,309,0
304,294,305,309,0
306,288,307,308,0
309,287,310,308,0
312,289,312,308,0
315,295,314,307,0
314,305,316,307,0
310,319,316,307,0
304,335,314,307,0
297,350,311,307,0
294,363,307,308,0
295,373,306,309,0
300,381,304,310,0
308,382,301,308,0
310,372,299,306,0
306,355,298,303,0
300,334,299,301,0
296,312,301,300,0
296,289,302,299,0
300,269,302,298,0
304,254,302,298,0
307,247,303,299,0
307,247,303,302,0
307,247,304,308,0
305,247,306,314,0
303,252,308,320,0
302,265,311,324,0
302,280,312,324,0
301,291,312,321,0
301,298,311,316,0
301,306,310,311,0
303,317,308,307,0
305,328,306,305,0
306,337,304,303,0
306,342,303,301,0
305,343,302,300,0
304,339,301,300,0
303,334,300,300,0
303,327,299,299,0
302,322,298,299,0
302,317,298,298,0
301,314,297,298,0
301,312,297,297,0
301,308,297,297,0
300,298,298,297,0
299,286,298,298,0
298,273,299,300,0
297,258,301,304,0
295,252,303,308,0
289,259,304,313,0
282,275,304,316,0
279,292,306,320,0
286,307,310,324,0
300,317,315,326,0
312,321,316,326,0
318,320,315,323,0
317,316,314,320,0
315,313,312,317,0
313,310,310,315,0
313,308,308,314,0
312,306,306,313,0
312,306,304,312,0
312,307,303,311,0
313,308,302,310,0
314,308,303,309,0
315,308,303,308,0
313,308,304,307,0
309,310,304,306,0
303,312,305,304,0
299,315,304,301,0
296,318,303,298,0
294,319,302,296,0
291,319,302,294,0
290,317,303,293,0
291,315,304,293,0
296,313,305,295,0
301,311,306,297,0
303,310,306,298,0
305,310,305,297,0
306,310,304,293,0
307,309,301,289,0
307,306,300,286,0
306,298,300,286,0
308,285,304,290,0
315,274,309,297,0
323,276,313,305,0
330,286,316,312,0
335,298,318,316,0
330,309,319,319,0
320,316,317,317,0
309,320,313,313,0
301,321,309,309,0
297,321,305,305,0
296,320,302,301,0
296,320,299,299,0
296,320,297,298,0
297,320,295,299,0
298,320,294,301,0
299,321,294,302,0
301,322,295,304,0
303,321,296,305,0
305,320,297,306,0
306,318,297,308,0
306,315,299,309,0
305,312,300,309,0
304,311,302,309,0
302,310,302,308,0
301,310,303,307,0
300,311,304,306,0
298,313,304,307,0
297,315,304,308,0
295,317,303,309,0
293,319,303,310,0
292,320,302,311,0
290,320,302,311,0
289,320,301,311,0
287,322,301,310,0
285,326,300,306,0
284,327,299,301,0
285,322,297,296,0
288,312,296,293,0
292,301,295,290,0
299,293,295,290,0
306,289,296,292,0
313,291,298,296,0
316,298,300,299,0
312,302,301,302,0
304,303,302,305,0
298,301,303,307,0
296,296,304,306,0
297,290,305,303,0
299,284,306,297,0
302,279,308,291,0
304,281,308,284,0
306,283,309,279,0
308,284,309,278,0
308,285,310,282,0
306,284,312,290,0
304,279,313,300,0
300,271,313,310,0
297,267,314,320,0
296,268,313,328,0
298,277,313,333,0
304,291,313,336,0
311,304,313,336,0
316,313,313,335,0
317,318,312,331,0
315,320,312,327,0
312,323,312,322,0
310,325,310,316,0
309,326,308,310,0
308,327,306,306,0
307,326,304,302,0
307,323,303,299,0
307,321,302,297,0
308,321,302,296,0
309,320,302,296,0
310,319,302,296,0
311,318,302,297,0
311,315,301,298,0
311,312,301,300,0
311,308,302,301,0
310,304,302,302,0
310,302,302,303,0
310,302,302,304,0
311,304,302,304,0
311,307,301,304,0
311,309,300,303,0
310,309,299,302,0
307,304,298,299,0
303,295,298,297,0
299,288,299,297,0
296,285,301,297,0
297,290,304,298,0
304,305,306,298,0
312,327,309,298,0
316,349,312,298,0
316,358,313,298,0
313,348,314,296,0
311,325,313,292,0
308,298,310,288,0
306,274,307,287,0
304,257,305,290,0
300,252,303,296,0
296,260,303,304,0
294,275,303,311,0
294,290,304,314,0
296,300,305,314,0
298,306,305,311,0
300,309,304,308,0
303,313,304,305,0
305,318,303,303,0
306,324,303,301,0
307,327,303,299,0
306,330,303,298,0
305,331,303,297,0
304,330,302,297,0
303,327,301,298,0
302,324,301,299,0
302,321,302,301,0
304,319,304,304,0
308,317,306,308,0
310,317,308,312,0
310,318,309,315,0
309,319,310,318,0
309,321,311,320,0
308,324,312,321,0
307,328,313,321,0
305,331,313,321,0
303,336,311,320,0
302,340,310,319,0
301,344,307,316,0
298,342,306,312,0
296,335,304,307,0
292,322,302,302,0
288,304,301,298,0
288,292,300,296,0
294,286,300,295,0
300,289,301,295,0
306,299,302,296,0
309,312,304,297,0
311,326,305,298,0
314,337,305,301,0
315,341,307,305,0
315,340,308,312,0
314,333,309,317,0
311,326,309,320,0
309,319,308,318,0
307,312,307,313,0
307,303,306,306,0
310,292,306,300,0
312,277,308,297,0
313,259,310,296,0
311,247,311,297,0
307,246,312,299,0
305,256,311,302,0
303,273,310,304,0
303,292,309,306,0
304,308,307,307,0
304,317,306,306,0
305,322,305,305,0
306,323,305,305,0
308,322,305,305,0
308,319,307,306,0
310,315,308,307,0
310,312,309,307,0
309,309,309,307,0
307,310,310,307,0
306,313,310,306,0
305,317,311,305,0
305,321,311,304,0
306,323,311,303,0
307,325,311,303,0
308,326,310,303,0
307,324,310,303,0
304,319,309,301,0
300,313,308,300,0
296,305,309,299,0
294,298,309,299,0
292,294,309,299,0
292,293,308,301,0
294,294,307,303,0
295,295,307,305,0
296,296,308,307,0
299,300,309,309,0
306,306,312,312,0
312,314,316,316,0
311,324,319,318,0
309,333,319,318,0
308,337,319,317,0
310,335,317,316,0
315,328,317,316,0
321,320,316,315,0
326,313,314,313,0
329,309,310,309,0
329,308,308,306,0
326,308,306,303,0
323,304,306,301,0
321,296,306,299,0
318,286,304,298,0
315,278,302,298,0
312,274,301,300,0
311,274,301,303,0
310,278,303,307,0
310,286,304,311,0
310,296,306,315,0
311,305,307,317,0
311,313,308,318,0
311,318,308,317,0
310,319,307,315,0
309,319,307,315,0
308,318,306,314,0
307,315,306,314,0
305,313,306,315,0
303,312,306,316,0
304,313,307,318,0
305,313,307,317,0
307,310,307,317,0
309,307,306,317,0
311,305,305,320,0
311,306,303,324,0
308,310,302,328,0
304,316,302,331,0
303,319,305,331,0
304,319,307,328,0
307,317,309,324,0
312,316,311,321,0
317,314,312,320,0
318,311,313,318,0
316,310,313,313,0
311,311,312,308,0
304,310,309,304,0
296,310,308,303,0
290,312,306,305,0
287,315,306,307,0
289,317,306,309,0
296,320,306,309,0
305,323,306,308,0
314,327,305,305,0
319,327,304,301,0
318,321,305,298,0
315,310,305,296,0
313,296,305,295,0
313,284,305,295,0
313,274,306,297,0
313,265,310,302,0
314,263,315,309,0
314,271,320,315,0
311,286,320,319,0
305,302,317,319,0
298,312,312,318,0
294,318,308,317,0
292,324,306,316,0
294,330,305,315,0
296,335,304,314,0
299,336,303,313,0
302,334,303,312,0
303,329,302,311,0
305,321,302,311,0
307,314,302,312,0
309,307,302,314,0
312,300,303,315,0
314,297,304,316,0
315,301,304,318,0
316,310,305,319,0
316,321,305,319,0
315,331,306,319,0
313,338,306,318,0
311,339,306,317,0
310,335,306,316,0
308,329,307,316,0
307,323,307,315,0
306,315,307,314,0
306,306,308,313,0
306,297,308,313,0
305,290,308,314,0
302,288,310,314,0
298,287,311,315,0
296,286,312,314,0
296,285,310,313,0
297,287,307,310,0
297,291,304,306,0
299,295,302,302,0
302,298,301,300,0
304,301,301,300,0
305,306,301,301,0
306,309,301,302,0
306,310,302,304,0
307,308,303,307,0
308,304,305,310,0
309,299,306,311,0
309,294,307,311,0
308,294,306,309,0
309,299,305,308,0
310,307,304,305,0
310,315,303,303,0
309,322,302,301,0
308,324,300,298,0
308,319,298,296,0
309,312,297,296,0
311,305,298,298,0
313,300,299,301,0
315,299,301,305,0
316,304,302,310,0
316,312,304,313,0
315,321,307,316,0
313,327,308,316,0
310,331,309,315,0
306,332,310,313,0
303,332,310,312,0
300,332,309,311,0
299,332,308,309,0
299,331,306,307,0
298,330,303,304,0
296,325,300,302,0
292,313,297,300,0
291,301,297,300,0
293,289,296,297,0
297,277,296,294,0
302,266,296,292,0
309,263,298,293,0
314,269,300,297,0
317,280,303,300,0
318,292,306,304,0
317,302,309,307,0
316,308,311,309,0
313,314,313,311,0
311,319,313,312,0
309,324,313,312,0
309,328,312,311,0
307,331,310,310,0
305,333,310,310,0
305,334,311,310,0
306,331,312,309,0
307,327,310,308,0
307,323,309,306,0
308,320,307,304,0
310,316,305,303,0
312,315,304,301,0
316,315,303,301,0
317,315,303,301,0
312,315,303,301,0
307,312,304,303,0
304,305,306,304,0
305,297,307,306,0
306,290,308,307,0
308,291,309,307,0
309,295,309,306,0
309,300,309,303,0
308,302,307,301,0
307,304,305,298,0
304,303,304,296,0
299,300,302,296,0
294,300,302,298,0
292,305,303,301,0
292,312,304,304,0
294,316,303,305,0
294,317,302,305,0
291,318,301,303,0
290,315,300,301,0
294,308,302,301,0
303,297,302,300,0
311,282,301,299,0
318,268,300,300,0
326,265,301,304,0
332,276,304,310,0
336,295,309,317,0
336,315,316,322,0
334,332,321,324,0
328,341,323,325,0
320,343,323,324,0
314,340,322,324,0
310,334,321,325,0
308,328,320,325,0
307,323,318,324,0
306,319,316,322,0
304,316,313,319,0
302,312,310,314,0
299,307,308,309,0
298,302,306,304,0
298,298,305,300,0
299,296,304,297,0
301,294,304,297,0
303,292,304,298,0
305,290,304,300,0
306,291,305,300,0
306,294,305,300,0
306,299,305,302,0
303,305,306,306,0
299,312,306,311,0
295,315,306,313,0
294,316,305,314,0
295,315,305,313,0
298,316,304,312,0
302,318,304,310,0
307,324,304,306,0
312,332,304,303,0
315,338,304,298,0
317,339,304,294,0
317,333,304,292,0
314,320,304,291,0
312,305,305,292,0
311,292,307,293,0
311,286,308,296,0
311,285,308,299,0
310,289,308,303,0
309,295,308,307,0
308,302,308,310,0
307,311,308,312,0
305,319,308,312,0
305,324,308,312,0
307,327,309,311,0
312,327,310,311,0
315,325,309,309,0
315,321,308,307,0
312,317,307,305,0
308,312,306,303,0
305,307,305,301,0
303,303,304,300,0
303,303,304,300,0
306,303,304,302,0
308,303,306,304,0
309,301,307,306,0
309,299,307,307,0
309,298,308,308,0
309,301,309,309,0
308,308,310,311,0
306,319,311,311,0
303,332,310,310,0
301,343,309,309,0
298,348,308,308,0
296,344,307,307,0
295,332,306,304,0
297,318,304,301,0
302,303,303,299,0
309,286,303,299,0
315,273,303,300,0
316,266,306,301,0
314,264,307,301,0
308,262,306,301,0
301,263,307,302,0
295,268,309,306,0
292,275,311,311,0
291,280,313,314,0
291,286,315,317,0
294,293,315,319,0
296,303,315,320,0
297,312,315,320,0
297,319,315,318,0
297,323,314,316,0
297,327,313,313,0
297,330,313,310,0
297,331,313,309,0
298,332,313,308,0
299,333,314,308,0
299,335,314,308,0
299,338,312,307,0
298,339,310,306,0
297,338,308,306,0
295,334,306,307,0
294,329,304,307,0
293,324,303,306,0
295,320,303,306,0
297,317,303,305,0
300,316,304,304,0
302,315,305,303,0
302,314,304,301,0
300,313,303,299,0
297,315,303,298,0
294,320,303,298,0
292,325,303,300,0
292,328,304,303,0
293,330,305,305,0
297,331,304,305,0
300,330,303,305,0
299,330,302,306,0
296,328,302,306,0
293,324,304,307,0
293,316,306,306,0
297,304,308,304,0
304,291,309,302,0
310,281,310,302,0
314,282,310,303,0
317,290,310,306,0
318,301,311,309,0
317,312,313,313,0
314,320,313,316,0
310,324,313,318,0
305,326,313,319,0
302,325,312,319,0
300,322,312,317,0
300,319,311,315,0
301,318,310,312,0
302,322,307,309,0
303,327,305,307,0
302,331,304,304,0
302,330,303,303,0
302,326,304,303,0
302,317,305,304,0
303,308,307,305,0
305,299,309,306,0
307,293,311,308,0
308,288,312,311,0
309,284,313,314,0
309,282,313,315,0
309,282,312,315,0
309,283,311,312,0
308,285,309,309,0
308,287,308,305,0
308,288,308,302,0
309,288,308,301,0
308,285,309,301,0
305,279,309,302,0
301,277,309,303,0
299,282,310,304,0
299,294,312,304,0
301,308,312,304,0
303,317,311,304,0
305,318,309,303,0
306,312,307,301,0
301,304,306,298,0
294,295,305,297,0
288,289,304,296,0
286,289,303,296,0
286,293,304,297,0
288,298,306,299,0
292,303,309,301,0
295,309,311,303,0
295,317,312,304,0
293,327,312,305,0
291,337,313,306,0
292,342,313,306,0
294,341,314,307,0
294,337,314,308,0
295,331,313,308,0
296,326,313,308,0
299,322,312,309,0
303,319,311,310,0
306,316,309,309,0
308,315,307,308,0
309,313,305,305,0
310,313,304,303,0
311,313,304,302,0
310,314,305,302,0
307,315,306,302,0
303,318,306,303,0
301,321,307,304,0
299,324,308,305,0
300,323,309,305,0
303,318,310,305,0
308,313,311,305,0
311,309,312,305,0
313,306,312,306,0
314,304,313,308,0
313,307,314,311,0
312,312,314,314,0
312,320,314,316,0
314,326,314,315,0
315,327,312,313,0
314,324,311,311,0
312,320,310,309,0
311,316,309,308,0
309,309,309,307,0
308,302,310,303,0
307,295,311,298,0
305,290,312,294,0
304,287,312,291,0
303,286,311,290,0
302,290,311,292,0
301,299,310,294,0
303,308,308,298,0
305,315,307,302,0
306,319,307,306,0
308,317,306,310,0
307,313,305,312,0
303,309,304,312,0
299,307,304,310,0
298,304,303,307,0
298,302,302,303,0
300,302,302,301,0
303,305,302,300,0
306,307,303,302,0
308,309,304,305,0
310,310,306,309,0
311,311,307,313,0
312,312,308,318,0
313,315,309,323,0
312,318,310,326,0
311,319,311,326,0
310,319,311,325,0
308,318,311,323,0
305,319,311,322,0
303,320,311,320,0
300,321,311,319,0
300,322,311,317,0
301,322,310,314,0
303,321,308,312,0
303,319,307,308,0
299,313,305,302,0
293,308,303,296,0
286,303,300,289,0
281,297,297,284,0
282,295,297,283,0
288,292,301,288,0
300,284,306,294,0
312,276,310,299,0
317,275,311,302,0
314,281,310,304,0
310,293,310,303,0
308,306,309,302,0
308,317,307,301,0
310,323,305,298,0
312,326,304,296,0
312,328,305,296,0
313,327,306,297,0
313,323,307,299,0
313,317,307,303,0
312,312,308,307,0
311,307,307,310,0
307,304,306,312,0
304,301,305,313,0
300,299,305,315,0
298,299,306,318,0
297,301,307,319,0
299,304,309,320,0
304,309,310,320,0
309,312,310,319,0
312,315,310,316,0
312,318,309,311,0
313,321,309,306,0
314,324,309,303,0
316,324,308,301,0
318,322,307,300,0
318,321,306,299,0
315,323,305,299,0
312,322,305,299,0
308,318,304,301,0
306,314,303,304,0
304,310,303,308,0
303,302,304,312,0
303,297,303,314,0
306,300,304,315,0
310,305,304,315,0
314,308,306,316,0
317,309,309,317,0
317,309,312,318,0
315,310,314,316,0
312,311,316,313,0
310,309,317,307,0
309,305,317,302,0
307,301,316,298,0
307,297,314,296,0
306,293,312,294,0
305,290,311,292,0
305,289,309,292,0
305,293,308,291,0
305,299,308,292,0
304,304,308,294,0
304,307,307,295,0
304,309,305,296,0
305,310,302,298,0
307,310,300,300,0
309,309,300,302,0
311,307,301,303,0
312,305,302,304,0
311,305,305,306,0
308,311,307,307,0
303,316,309,309,0
298,322,309,309,0
295,328,309,310,0
295,334,308,309,0
296,338,306,307,0
297,341,304,304,0
301,346,302,302,0
309,351,302,300,0
312,353,303,301,0
310,352,304,303,0
307,344,304,306,0
304,334,304,307,0
303,322,304,307,0
304,312,304,306,0
306,303,304,306,0
308,296,303,307,0
309,291,303,307,0
310,288,304,307,0
311,287,306,308,0
310,288,308,310,0
310,289,310,310,0
309,290,310,311,0
307,288,309,309,0
304,285,309,307,0
300,280,307,303,0
296,276,304,300,0
294,274,302,298,0
294,275,302,296,0
299,282,302,298,0
305,293,303,301,0
309,302,302,304,0
308,303,300,304,0
304,300,298,304,0
302,294,296,304,0
301,289,296,304,0
300,287,296,304,0
300,290,297,304,0
300,298,298,306,0
300,307,300,309,0
303,315,304,311,0
306,320,307,313,0
311,323,309,314,0
313,323,310,313,0
312,319,311,311,0
309,314,311,309,0
305,310,312,306,0
302,307,312,303,0
298,304,312,301,0
295,299,311,301,0
292,293,310,302,0
293,285,309,302,0
295,280,308,301,0
297,281,308,301,0
298,290,307,301,0
297,300,306,302,0
296,308,306,302,0
297,319,307,302,0
298,331,308,303,0
299,340,311,306,0
300,342,312,309,0
303,337,313,311,0
306,329,312,311,0
309,318,312,310,0
311,309,311,308,0
312,308,309,305,0
312,314,308,302,0
312,322,308,301,0
311,330,309,300,0
309,336,307,300,0
306,338,306,299,0
303,336,305,298,0
302,331,304,298,0
303,325,304,300,0
306,319,304,304,0
309,316,304,308,0
312,316,305,311,0
314,317,306,313,0
316,316,307,313,0
317,313,308,314,0
317,310,309,314,0
316,305,309,314,0
315,297,309,314,0
316,292,308,313,0
316,294,308,312,0
315,300,307,310,0
314,309,306,308,0
311,321,306,306,0
308,330,307,306,0
309,333,309,305,0
311,329,309,304,0
309,320,308,303,0
305,307,306,300,0
299,296,304,296,0
296,291,303,295,0
298,289,302,294,0
301,287,303,296,0
304,287,304,299,0
306,288,306,302,0
308,290,306,304,0
309,293,307,307,0
309,296,308,308,0
307,296,309,309,0
305,295,310,311,0
304,290,310,311,0
303,282,310,312,0
302,274,310,310,0
302,267,309,308,0
303,263,308,305,0
303,263,307,303,0
302,265,306,302,0
301,273,306,302,0
300,288,306,304,0
299,303,306,307,0
299,316,307,310,0
299,326,307,311,0
299,334,306,311,0
301,339,306,310,0
303,341,306,308,0
306,339,307,306,0
307,334,308,304,0
307,330,309,302,0
307,330,308,301,0
307,334,308,300,0
307,339,307,299,0
307,341,307,298,0
309,338,306,298,0
311,331,306,299,0
312,326,307,301,0
311,325,309,303,0
310,327,311,307,0
309,328,313,310,0
309,327,314,311,0
307,323,313,311,0
304,318,313,309,0
299,316,312,308,0
295,314,311,308,0
292,309,309,309,0
292,301,308,311,0
293,294,306,313,0
299,290,307,316,0
309,287,310,319,0
320,286,312,320,0
325,286,313,320,0
326,286,312,318,0
322,284,311,314,0
318,284,311,309,0
314,287,311,304,0
313,297,312,302,0
314,309,312,301,0
316,320,311,299,0
315,327,310,298,0
314,328,309,299,0
314,323,308,300,0
314,313,307,302,0
315,303,306,305,0
315,294,307,308,0
315,286,307,310,0
315,281,308,313,0
315,280,308,316,0
313,283,309,318,0
309,287,309,317,0
305,291,308,314,0
304,296,309,309,0
307,304,309,303,0
311,313,307,299,0
315,323,305,295,0
319,333,303,294,0
323,339,302,292,0
325,339,300,292,0
322,330,300,292,0
313,315,301,293,0
300,301,303,295,0
289,290,304,296,0
281,282,305,296,0
279,280,307,297,0
283,286,309,299,0
289,293,310,302,0
296,295,312,305,0
303,292,313,307,0
308,290,314,308,0
311,290,315,311,0
312,297,315,312,0
311,308,316,313,0
310,322,316,312,0
309,334,315,311,0
309,343,314,311,0
309,347,314,310,0
308,346,313,310,0
306,340,313,309,0
304,333,313,308,0
301,322,313,305,0
298,308,312,302,0
297,296,310,298,0
298,291,309,295,0
301,292,307,293,0
303,299,306,295,0
306,305,307,299,0
307,308,308,304,0
307,307,309,308,0
306,304,311,310,0
305,302,313,311,0
305,302,313,310,0
305,304,312,308,0
304,306,310,306,0
301,308,308,304,0
298,311,307,302,0
296,315,307,301,0
297,318,308,300,0
300,319,308,299,0
304,322,308,296,0
309,325,306,294,0
313,329,305,292,0
315,332,305,292,0
316,334,308,293,0
316,332,309,297,0
315,325,310,299,0
317,319,310,302,0
320,317,310,305,0
323,315,310,309,0
324,309,310,313,0
323,302,309,315,0
317,293,309,316,0
311,289,310,316,0
304,286,310,314,0
298,285,308,312,0
292,285,306,310,0
287,286,305,307,0
286,288,306,303,0
291,290,306,299,0
300,293,306,293,0
310,292,304,288,0
315,287,301,283,0
314,282,298,283,0
306,278,297,288,0
300,278,299,296,0
298,280,301,303,0
298,286,302,308,0
300,297,304,311,0
301,310,304,312,0
302,321,305,311,0
303,329,305,310,0
303,332,305,308,0
303,330,304,306,0
303,324,304,305,0
302,315,304,304,0
301,308,305,303,0
299,307,305,304,0
297,313,305,307,0
296,320,305,310,0
297,325,306,312,0
298,326,307,314,0
298,325,308,314,0
300,324,308,313,0
301,323,308,313,0
303,325,307,311,0
305,328,306,307,0
305,331,305,301,0
304,332,303,296,0
300,329,301,293,0
292,322,300,291,0
283,311,300,291,0
276,298,302,291,0
274,286,304,293,0
278,283,306,297,0
287,292,308,301,0
297,307,309,304,0
305,314,308,305,0
309,313,307,307,0
310,309,307,309,0
310,306,307,312,0
309,302,306,315,0
308,297,306,316,0
307,293,305,317,0
305,293,304,319,0
306,297,303,322,0
307,299,304,324,0
309,300,304,325,0
311,301,304,324,0
312,305,305,322,0
311,308,305,318,0
310,310,305,314,0
309,314,304,310,0
306,321,304,307,0
304,329,304,305,0
303,331,304,304,0
301,330,306,304,0
299,325,307,305,0
300,317,308,305,0
303,309,309,306,0
307,304,309,306,0
310,301,308,307,0
310,302,308,308,0
306,305,309,309,0
301,311,309,310,0
299,318,307,308,0
300,329,303,305,0
303,337,301,301,0
307,342,300,297,0
312,341,302,293,0
316,336,303,288,0
316,329,304,285,0
314,321,304,283,0
311,314,306,285,0
308,307,307,288,0
305,303,309,292,0
303,301,310,296,0
302,300,310,298,0
303,298,309,299,0
305,296,308,300,0
309,292,307,302,0
311,289,306,302,0
308,287,304,303,0
302,289,303,304,0
298,291,303,304,0
296,294,304,305,0
297,296,305,307,0
298,297,307,311,0
299,298,309,315,0
301,300,310,320,0
301,303,311,324,0
300,306,311,327,0
299,311,311,328,0
297,314,310,327,0
296,316,308,325,0
296,313,307,321,0
298,310,306,317,0
301,307,307,313,0
304,307,308,309,0
306,306,309,307,0
308,301,309,305,0
309,293,308,303,0
308,282,307,300,0
304,274,305,297,0
300,274,304,296,0
297,286,303,296,0
294,304,302,298,0
292,324,303,302,0
294,336,304,306,0
299,340,305,309,0
305,338,306,310,0
311,334,306,309,0
316,329,306,308,0
318,324,306,307,0
318,321,306,307,0
316,319,307,307,0
314,318,307,309,0
312,318,308,310,0
312,317,308,312,0
312,314,308,312,0
314,312,307,311,0
317,311,306,309,0
320,312,304,306,0
323,311,302,302,0
324,308,300,300,0
322,304,299,298,0
318,300,298,298,0
310,298,300,299,0
302,298,300,302,0
293,300,300,303,0
289,308,300,305,0
291,324,301,307,0
297,336,301,308,0
304,335,301,309,0
308,322,302,309,0
310,303,303,311,0
310,287,303,313,0
309,274,304,313,0
307,266,304,314,0
306,261,303,313,0
306,259,302,313,0
307,265,302,313,0
307,274,300,312,0
309,285,300,312,0
311,293,299,311,0
312,299,298,311,0
313,304,299,311,0
313,307,300,313,0
313,312,302,315,0
314,317,305,319,0
317,321,307,322,0
317,324,307,323,0
314,327,306,323,0
312,330,304,320,0
310,331,303,316,0
308,330,302,309,0
306,327,300,302,0
304,320,297,295,0
301,312,296,291,0
299,304,296,291,0
303,300,299,294,0
311,300,303,299,0
315,299,306,304,0
314,298,308,308,0
311,297,308,313,0
309,298,308,317,0
310,302,307,320,0
310,305,306,324,0
311,309,306,327,0
311,313,307,329,0
311,315,308,330,0
310,317,309,330,0
309,318,310,327,0
309,320,309,322,0
309,321,307,316,0
309,321,305,309,0
309,322,304,304,0
308,323,303,300,0
308,324,302,299,0
308,325,301,299,0
309,325,301,301,0
309,322,300,304,0
308,318,298,305,0
307,311,298,305,0
307,303,298,304,0
307,296,299,301,0
308,287,302,297,0
309,277,304,293,0
309,268,305,290,0
310,260,306,288,0
309,254,307,290,0
311,255,308,293,0
314,271,308,295,0
315,297,305,298,0
314,316,302,300,0
311,326,299,302,0
308,331,298,303,0
305,332,299,304,0
303,330,299,303,0
301,326,299,303,0
300,322,299,303,0
299,318,298,305,0
299,315,298,306,0
300,313,299,307,0
301,311,300,308,0
302,310,301,310,0
303,308,301,311,0
304,305,301,311,0
306,301,302,311,0
307,298,302,311,0
308,301,303,311,0
308,305,303,310,0
307,308,304,310,0
306,310,303,309,0
305,311,302,308,0
305,313,302,308,0
305,317,302,309,0
304,323,302,309,0
302,328,301,307,0
298,331,298,303,0
294,330,295,301,0
291,324,294,300,0
289,310,296,300,0
289,297,300,301,0
293,289,304,304,0
300,284,306,308,0
308,279,307,312,0
312,276,307,316,0
309,279,308,320,0
303,285,309,323,0
299,294,310,325,0
298,303,311,325,0
298,309,311,322,0
299,314,309,317,0
301,317,307,312,0
303,319,305,308,0
305,321,304,305,0
306,322,303,304,0
307,321,303,303,0
309,318,303,302,0
311,315,303,302,0
312,311,303,301,0
312,308,303,301,0
312,307,303,301,0
311,306,303,302,0
311,305,303,304,0
313,306,302,307,0
314,307,303,308,0
315,307,304,309,0
314,308,305,308,0
313,310,305,307,0
311,316,306,306,0
308,321,305,304,0
305,322,304,302,0
304,316,303,301,0
304,303,303,300,0
307,286,303,300,0
311,267,304,299,0
315,251,304,299,0
316,249,305,302,0
316,264,307,305,0
316,284,309,307,0
317,303,309,306,0
317,318,307,304,0
316,326,304,302,0
313,330,302,301,0
311,331,302,302,0
308,330,303,303,0
306,329,304,304,0
304,325,306,305,0
303,321,307,306,0
302,318,308,305,0
300,317,308,304,0
299,317,308,303,0
299,317,307,301,0
298,316,306,301,0
297,314,305,301,0
297,310,304,301,0
296,306,302,300,0
297,301,302,298,0
297,298,301,297,0
298,296,300,298,0
299,298,300,299,0
300,302,300,300,0
301,306,299,299,0
303,309,299,300,0
305,312,300,301,0
308,313,301,303,0
311,315,302,304,0
314,317,304,306,0
315,318,305,309,0
316,319,307,311,0
316,319,308,312,0
316,317,308,312,0
314,313,309,310,0
312,307,308,306,0
308,301,307,301,0
303,297,305,294,0
296,295,303,288,0
288,294,302,282,0
282,292,302,278,0
282,287,304,277,0
289,280,307,278,0
301,274,311,283,0
312,277,314,289,0
316,289,315,296,0
316,299,316,303,0
314,306,315,310,0
313,312,313,313,0
315,315,310,314,0
317,318,308,313,0
319,320,305,311,0
319,319,303,310,0
318,316,302,310,0
314,310,302,308,0
309,305,301,307,0
303,301,300,305,0
300,301,300,305,0
299,304,300,306,0
300,311,301,308,0
303,318,302,310,0
306,323,302,312,0
309,326,302,313,0
311,326,302,311,0
312,325,302,309,0
313,323,302,307,0
314,322,303,306,0
315,322,304,306,0
316,323,306,307,0
316,326,308,310,0
316,328,310,312,0
313,330,311,313,0
308,331,310,311,0
302,333,309,308,0
298,331,308,305,0
298,325,306,301,0
302,314,304,298,0
305,301,302,295,0
307,293,300,293,0
310,297,299,291,0
312,316,298,290,0
314,336,297,290,0
314,342,297,291,0
314,336,297,293,0
315,323,299,296,0
316,310,301,300,0
316,301,304,303,0
314,297,306,306,0
312,299,307,309,0
310,305,307,309,0
308,310,308,309,0
307,311,309,309,0
304,310,310,309,0
302,308,310,307,0
299,306,308,305,0
297,305,306,302,0
296,303,305,300,0
297,302,304,298,0
299,300,304,299,0
302,297,304,300,0
304,293,304,301,0
305,291,304,302,0
305,290,304,302,0
304,290,303,302,0
303,290,303,303,0
303,289,303,304,0
304,287,304,306,0
305,285,305,308,0
305,283,307,310,0
305,281,308,310,0
306,280,309,309,0
307,280,311,308,0
308,283,312,305,0
307,290,311,304,0
305,304,310,305,0
306,319,308,307,0
311,333,307,310,0
318,344,305,313,0
325,349,304,314,0
328,351,303,314,0
324,349,303,313,0
313,342,303,310,0
303,335,304,308,0
297,329,304,307,0
295,326,305,307,0
294,327,306,308,0
294,328,307,309,0
295,331,308,311,0
298,333,310,313,0
303,330,312,316,0
306,323,313,318,0
307,314,314,318,0
307,307,313,314,0
304,303,311,309,0
302,305,309,303,0
300,312,308,298,0
300,322,308,295,0
300,326,308,294,0
302,324,308,294,0
305,321,308,295,0
310,320,308,298,0
313,317,309,301,0
314,316,308,302,0
315,316,307,302,0
314,316,306,302,0
313,318,305,301,0
313,320,305,301,0
313,321,305,301,0
313,318,305,303,0
312,313,306,306,0
311,308,307,308,0
310,305,308,310,0
309,302,310,311,0
311,299,311,311,0
310,295,310,311,0
310,292,309,309,0
309,294,308,308,0
308,298,306,307,0
308,302,305,306,0
308,301,303,306,0
308,296,303,306,0
308,288,304,306,0
309,282,305,305,0
308,282,306,304,0
307,283,306,302,0
306,281,305,300,0
307,279,304,300,0
309,277,305,302,0
310,276,307,305,0
308,278,310,308,0
303,286,311,310,0
301,302,310,311,0
302,319,309,312,0
305,331,309,314,0
308,336,308,315,0
307,337,308,317,0
304,337,308,317,0
301,337,309,317,0
301,337,310,315,0
304,335,311,313,0
308,330,313,312,0
313,323,314,310,0
317,316,314,309,0
318,308,314,308,0
316,302,313,309,0
313,297,313,311,0
310,296,311,313,0
307,297,310,316,0
307,299,309,318,0
307,299,309,318,0
308,300,308,316,0
309,303,307,313,0
309,308,307,310,0
310,312,306,308,0
313,317,304,307,0
315,320,302,307,0
315,320,300,308,0
312,315,300,308,0
309,308,300,307,0
306,301,300,307,0
304,299,301,307,0
302,302,300,306,0
301,302,300,304,0
301,297,299,301,0
301,288,299,298,0
302,281,299,296,0
304,276,300,297,0
308,276,301,300,0
313,281,303,305,0
315,289,305,308,0
316,299,306,311,0
316,310,306,312,0
317,320,306,313,0
316,328,306,312,0
314,331,305,311,0
310,329,304,310,0
307,324,304,309,0
306,316,303,308,0
305,308,303,307,0
305,302,304,308,0
305,299,304,308,0
303,300,304,308,0
302,302,303,308,0
302,307,303,308,0
303,312,303,309,0
306,317,303,313,0
307,321,303,317,0
309,325,303,321,0
309,328,304,323,0
310,330,305,324,0
310,330,306,324,0
309,328,307,321,0
307,323,307,318,0
304,316,308,315,0
302,309,310,312,0
303,304,312,310,0
303,301,313,309,0
305,298,312,307,0
307,294,311,307,0
309,289,310,306,0
309,281,309,304,0
307,271,308,302,0
305,268,308,302,0
303,276,309,302,0
303,292,307,303,0
304,307,305,302,0
306,314,301,300,0
308,315,297,297,0
307,313,296,297,0
306,306,296,298,0
305,294,297,300,0
303,285,299,303,0
302,280,303,305,0
301,279,306,308,0
302,283,308,310,0
304,290,309,312,0
307,299,309,313,0
307,308,309,314,0
307,315,309,315,0
305,318,309,316,0
302,321,309,316,0
301,321,309,317,0
303,318,308,316,0
307,311,306,315,0
311,303,305,313,0
312,295,303,310,0
310,288,302,307,0
307,282,302,304,0
305,277,302,302,0
305,276,304,302,0
307,278,305,303,0
309,281,306,305,0
311,284,306,308,0
311,287,307,311,0
311,292,309,315,0
311,298,310,317,0
310,304,310,315,0
308,309,309,311,0
306,313,307,309,0
304,317,307,307,0
305,318,306,305,0
307,317,305,302,0
308,315,303,301,0
309,313,302,300,0
310,310,302,300,0
312,307,303,301,0
315,304,304,302,0
319,300,305,304,0
322,293,305,304,0
323,286,306,305,0
324,284,308,307,0
323,294,309,310,0
318,310,310,312,0
309,324,311,313,0
303,334,311,313,0
300,340,312,314,0
299,343,313,315,0
300,341,315,317,0
301,336,316,319,0
301,330,316,321,0
302,327,315,323,0
305,327,313,323,0
307,325,312,322,0
309,320,309,320,0
310,311,308,317,0
310,302,306,314,0
310,294,305,310,0
310,294,305,307,0
309,302,304,304,0
309,314,304,301,0
309,323,304,300,0
310,328,305,299,0
310,332,306,299,0
309,338,307,301,0
308,339,308,303,0
309,329,309,306,0
310,311,310,308,0
310,291,310,309,0
309,276,310,310,0
307,269,309,309,0
304,269,310,310,0
299,274,311,310,0
292,281,310,309,0
285,287,309,307,0
279,292,308,306,0
277,294,308,306,0
281,293,311,306,0
289,291,315,307,0
299,290,318,307,0
306,290,320,306,0
310,291,319,303,0
312,293,317,300,0
314,294,314,297,0
315,293,311,296,0
317,293,309,297,0
317,295,307,300,0
317,298,305,302,0
314,300,304,304,0
312,300,303,305,0
311,299,303,305,0
311,298,304,305,0
312,297,305,305,0
314,297,306,304,0
316,298,307,304,0
317,302,308,305,0
317,305,309,307,0
317,312,310,310,0
316,320,312,314,0
314,326,314,317,0
310,328,315,318,0
304,325,315,317,0
299,322,314,314,0
297,322,313,311,0
296,328,313,309,0
299,336,312,307,0
305,342,312,304,0
311,345,312,301,0
316,345,311,299,0
317,337,310,297,0
316,322,311,296,0
315,311,312,296,0
314,303,312,298,0
314,299,311,300,0
314,295,311,303,0
314,291,310,308,0
316,284,310,313,0
318,277,311,316,0
321,272,312,316,0
320,271,312,316,0
318,275,313,314,0
316,284,313,312,0
316,294,315,312,0
316,301,316,311,0
313,305,316,311,0
307,304,315,311,0
300,301,314,309,0
293,298,311,307,0
289,296,309,304,0
288,297,306,301,0
288,301,305,299,0
290,307,305,299,0
293,312,305,301,0
295,315,306,303,0
297,316,306,306,0
297,314,307,309,0
298,309,308,312,0
299,304,309,314,0
301,299,311,316,0
303,298,312,316,0
303,296,313,315,0
300,297,313,311,0
296,299,312,306,0
292,302,310,301,0
290,301,307,295,0
291,298,304,289,0
294,293,301,285,0
297,289,300,284,0
297,287,299,285,0
296,291,299,287,0
298,298,300,291,0
303,300,302,295,0
308,297,302,297,0
310,289,303,297,0
310,282,305,298,0
310,279,306,297,0
310,282,307,297,0
310,288,308,297,0
312,295,309,299,0
313,302,310,302,0
315,312,311,305,0
317,319,312,306,0
318,321,312,306,0
319,319,312,305,0
317,317,310,304,0
315,317,309,303,0
312,317,308,302,0
310,315,307,303,0
308,312,306,303,0
305,306,306,304,0
304,304,305,304,0
304,307,305,306,0
304,310,305,307,0
303,312,304,308,0
301,311,304,308,0
300,308,303,308,0
299,306,303,308,0
299,306,304,309,0
301,309,306,311,0
304,311,309,312,0
306,309,311,312,0
309,304,312,311,0
311,300,313,312,0
313,293,314,313,0
315,285,315,315,0
317,286,316,318,0
320,297,315,321,0
320,309,313,322,0
316,317,310,321,0
312,320,308,320,0
308,321,307,320,0
307,320,308,321,0
308,319,308,322,0
308,316,307,322,0
306,314,307,322,0
300,311,307,321,0
295,308,308,320,0
294,305,309,318,0
296,302,310,318,0
297,299,310,318,0
298,297,310,318,0
300,295,310,319,0
302,294,310,318,0
303,293,309,318,0
303,295,308,317,0
303,297,306,316,0
302,300,304,314,0
302,307,303,314,0
301,318,301,313,0
301,328,300,312,0
300,334,300,310,0
300,339,300,310,0
300,341,301,310,0
301,341,301,310,0
299,336,300,308,0
297,326,300,307,0
295,315,301,307,0
296,308,302,308,0
299,305,305,311,0
303,302,308,315,0
306,297,311,317,0
306,292,312,316,0
305,286,312,315,0
304,281,313,312,0
302,278,311,308,0
302,280,309,305,0
304,283,307,302,0
309,285,306,302,0
316,285,305,303,0
320,286,306,304,0
323,290,306,303,0
323,292,306,301,0
320,291,306,298,0
315,290,306,295,0
309,290,305,294,0
305,288,304,293,0
304,284,302,294,0
305,283,303,298,0
312,284,306,303,0
319,283,309,307,0
324,279,309,310,0
324,277,310,313,0
321,279,310,316,0
315,281,310,318,0
309,283,310,319,0
307,286,310,319,0
310,292,310,318,0
315,300,310,317,0
318,309,309,316,0
315,321,309,316,0
310,333,309,317,0
307,342,309,318,0
306,348,308,316,0
307,347,307,313,0
309,343,307,311,0
310,336,307,310,0
311,328,308,309,0
313,319,308,308,0
315,311,307,307,0
317,306,306,305,0
318,307,306,305,0
317,313,306,305,0
313,322,306,307,0
307,330,305,308,0
302,337,305,309,0
298,338,304,309,0
296,330,303,309,0
298,316,302,308,0
303,304,302,306,0
309,305,302,305,0
315,314,302,305,0
319,326,301,305,0
318,334,300,304,0
311,334,301,303,0
303,325,301,303,0
296,310,301,302,0
292,295,302,302,0
293,285,303,304,0
297,281,305,308,0
302,283,307,311,0
307,285,309,314,0
311,287,309,315,0
313,288,310,316,0
312,290,309,316,0
311,292,309,316,0
311,296,309,315,0
309,302,309,315,0
309,307,308,314,0
307,309,308,315,0
305,309,308,316,0
302,307,307,316,0
298,306,306,316,0
294,306,304,315,0
294,306,303,315,0
295,306,302,314,0
299,304,300,312,0
303,298,300,310,0
308,292,299,306,0
312,287,300,300,0
315,283,300,295,0
317,285,300,291,0
316,289,301,290,0
313,290,302,289,0
307,287,303,291,0
300,284,307,296,0
300,285,309,301,0
303,295,309,305,0
305,311,307,308,0
305,324,306,311,0
305,329,306,313,0
305,323,305,315,0
306,313,304,315,0
308,303,302,314,0
309,296,300,312,0
310,292,299,311,0
311,291,298,309,0
311,294,298,309,0
311,299,298,311,0
310,305,300,313,0
309,311,302,314,0
308,315,303,316,0
308,319,305,317,0
308,319,306,316,0
307,318,307,314,0
305,315,307,312,0
303,313,307,309,0
301,309,306,307,0
299,306,305,304,0
298,304,304,303,0
297,303,303,304,0
298,305,302,306,0
301,308,302,307,0
302,311,302,309,0
304,313,302,309,0
306,314,302,310,0
307,316,302,311,0
309,319,303,312,0
310,323,303,313,0
311,328,304,313,0
311,332,304,314,0
310,334,304,313,0
308,334,305,311,0
306,331,305,305,0
305,326,305,299,0
304,318,304,292,0
304,309,300,286,0
304,305,297,284,0
304,306,296,286,0
301,306,298,291,0
298,301,301,298,0
297,298,301,305,0
292,299,300,310,0
287,301,299,312,0
286,300,299,312,0
289,296,299,312,0
294,290,299,310,0
301,286,299,309,0
306,284,300,309,0
311,284,302,310,0
313,287,303,311,0
314,292,304,313,0
314,298,305,314,0
313,304,306,314,0
312,310,306,314,0
311,314,306,313,0
310,316,306,313,0
309,315,307,313,0
307,314,307,313,0
305,313,308,314,0
304,312,307,314,0
302,312,307,313,0
302,313,307,313,0
301,315,306,313,0
301,317,305,314,0
301,318,305,314,0
301,318,303,314,0
301,317,302,315,0
302,313,302,314,0
303,308,302,312,0
304,299,302,308,0
306,289,303,302,0
306,278,303,295,0
303,264,303,288,0
299,252,303,282,0
298,246,304,280,0
297,244,305,281,0
298,246,306,283,0
302,257,308,287,0
307,278,309,293,0
311,302,310,298,0
313,320,310,303,0
314,333,309,306,0
313,341,307,308,0
312,344,305,308,0
311,343,303,308,0
311,341,301,307,0
313,338,300,305,0
313,336,299,304,0
314,335,299,303,0
314,334,300,303,0
314,333,302,304,0
313,331,304,306,0
310,328,306,309,0
306,324,307,311,0
302,321,307,312,0
298,318,307,312,0
295,317,306,312,0
293,318,305,311,0
291,319,305,311,0
292,322,305,312,0
294,324,305,312,0
297,325,305,313,0
300,325,304,313,0
303,324,302,313,0
305,322,302,313,0
306,319,301,313,0
307,316,301,313,0
307,313,299,313,0
307,309,299,311,0
307,305,299,309,0
308,303,299,307,0
308,302,299,303,0
308,301,298,300,0
308,301,296,297,0
308,305,294,296,0
310,314,295,297,0
312,326,299,301,0
310,332,302,305,0
305,329,305,308,0
302,319,307,308,0
301,311,307,307,0
302,308,306,305,0
304,309,306,303,0
305,310,305,301,0
303,308,303,300,0
299,304,302,300,0
296,300,303,302,0
295,296,304,305,0
296,295,305,309,0
299,293,306,311,0
302,293,308,313,0
303,296,309,313,0
304,301,310,314,0
304,305,311,313,0
304,308,311,312,0
303,309,310,311,0
302,307,308,312,0
301,304,307,313,0
300,302,305,312,0
300,302,304,310,0
300,305,303,308,0
300,310,301,307,0
299,316,300,305,0
298,321,299,303,0
297,321,298,301,0
295,320,298,300,0
296,318,299,299,0
298,316,300,298,0
304,316,301,298,0
311,322,303,300,0
318,328,305,303,0
321,333,307,307,0
321,336,308,310,0
320,337,309,312,0
317,335,310,314,0
314,332,311,315,0
313,327,312,316,0
311,321,312,317,0
308,315,311,315,0
306,310,310,312,0
304,305,308,310,0
302,303,306,309,0
300,301,303,309,0
297,298,301,308,0
294,292,300,308,0
292,287,300,309,0
291,281,301,309,0
292,274,301,309,0
296,271,302,308,0
301,274,302,305,0
306,280,302,303,0
308,284,302,300,0
307,286,302,296,0
302,283,302,292,0
293,276,301,289,0
286,274,301,290,0
283,282,302,293,0
288,294,305,299,0
298,309,310,306,0
311,325,314,312,0
319,338,314,316,0
321,341,312,319,0
319,340,310,320,0
317,338,309,321,0
316,333,308,320,0
315,327,308,321,0
315,322,307,321,0
316,318,308,322,0
317,316,308,324,0
317,315,308,325,0
316,316,309,326,0
316,318,309,325,0
317,320,309,323,0
320,322,309,318,0
323,325,307,312,0
326,327,305,306,0
323,327,303,302,0
316,326,301,298,0
309,324,300,294,0
305,318,299,291,0
305,309,299,289,0
307,300,297,287,0
308,289,297,287,0
308,280,297,289,0
306,275,299,292,0
303,271,299,295,0
297,270,299,298,0
293,273,300,302,0
291,282,302,306,0
293,297,304,310,0
299,312,305,314,0
304,321,307,317,0
307,326,308,319,0
309,329,309,321,0
309,331,310,323,0
309,334,310,322,0
311,339,310,321,0
313,342,309,319,0
314,341,308,316,0
313,334,305,313,0
311,323,304,310,0
310,311,303,307,0
309,302,303,305,0
310,296,304,303,0
312,293,304,303,0
314,295,305,304,0
316,299,306,306,0
316,303,308,308,0
316,305,309,309,0
315,306,310,309,0
313,305,310,309,0
311,306,311,310,0
310,310,312,312,0
309,314,312,314,0
308,318,311,315,0
307,321,311,314,0
306,323,309,312,0
306,327,308,310,0
307,332,306,307,0
308,338,305,305,0
309,340,305,304,0
308,336,304,302,0
306,328,304,301,0
305,319,304,301,0
304,310,303,301,0
304,301,303,302,0
305,294,304,305,0
307,291,306,309,0
309,292,308,314,0
309,292,309,318,0
307,290,310,321,0
303,285,311,322,0
298,279,311,319,0
296,273,311,315,0
297,274,311,312,0
298,286,311,308,0
302,304,310,305,0
307,320,310,302,0
312,328,311,300,0
315,329,311,299,0
315,323,311,299,0
314,316,311,302,0
313,310,313,305,0
312,306,314,308,0
311,305,313,310,0
310,309,310,312,0
308,316,308,314,0
306,318,305,316,0
306,318,303,319,0
309,314,303,321,0
312,308,304,322,0
315,302,305,322,0
317,298,306,322,0
318,297,306,320,0
318,298,306,318,0
318,302,304,313,0
319,306,303,308,0
318,307,301,304,0
316,303,300,301,0
314,298,299,299,0
312,293,299,297,0
311,292,299,296,0
309,293,300,295,0
309,293,300,294,0
309,294,300,295,0
311,296,300,297,0
312,295,301,301,0
313,291,303,304,0
315,288,304,308,0
317,286,305,312,0
318,291,306,314,0
320,306,307,316,0
323,326,309,318,0
326,345,310,320,0
329,353,310,321,0
330,352,309,320,0
322,344,306,318,0
311,334,305,315,0
301,325,303,313,0
296,317,302,312,0
296,312,301,312,0
299,309,301,313,0
303,307,300,312,0
306,308,300,311,0
308,309,299,308,0
310,307,300,306,0
311,304,301,304,0
311,301,302,304,0
311,300,302,305,0
310,299,303,307,0
310,301,303,309,0
309,304,304,312,0
309,306,305,314,0
308,306,305,315,0
308,306,305,314,0
307,305,306,313,0
307,305,307,311,0
306,304,307,311,0
304,304,308,310,0
303,303,309,310,0
303,302,309,309,0
303,301,309,307,0
304,302,308,304,0
305,304,307,301,0
306,304,305,300,0
305,303,304,300,0
299,302,303,300,0
292,302,302,302,0
287,303,303,304,0
286,306,305,307,0
289,307,307,308,0
293,306,308,306,0
298,303,309,304,0
304,297,309,302,0
308,285,309,300,0
309,271,308,299,0
307,261,309,300,0
303,261,308,303,0
298,267,308,308,0
295,282,308,312,0
298,300,309,317,0
303,314,308,320,0
308,320,308,321,0
312,322,307,319,0
316,321,306,315,0
318,319,305,311,0
320,318,304,307,0
321,319,303,305,0
321,322,303,304,0
320,326,304,303,0
318,327,304,302,0
316,326,304,302,0
314,324,305,302,0
312,321,305,302,0
310,319,305,303,0
309,318,306,303,0
308,319,307,305,0
309,321,307,306,0
309,324,306,307,0
310,326,306,308,0
309,326,305,308,0
309,324,304,308,0
309,322,304,307,0
309,319,303,307,0
310,316,303,306,0
311,311,302,304,0
312,305,301,301,0
315,300,300,298,0
318,296,299,298,0
321,291,299,299,0
321,289,298,300,0
318,290,298,303,0
314,293,298,304,0
307,296,299,306,0
299,300,301,308,0
297,302,304,310,0
299,304,306,311,0
303,305,308,311,0
306,307,309,309,0
307,308,309,306,0
306,307,309,303,0
304,304,307,301,0
302,299,305,299,0
300,291,303,299,0
299,284,302,298,0
300,279,301,299,0
302,277,302,301,0
305,281,302,304,0
306,287,303,307,0
307,293,304,311,0
307,303,305,313,0
308,313,306,315,0
309,321,307,316,0
309,326,307,316,0
307,329,307,314,0
302,329,306,311,0
294,327,305,307,0
287,325,303,302,0
281,323,303,299,0
279,321,303,296,0
284,320,303,296,0
293,318,303,296,0
304,315,303,298,0
312,313,305,302,0
319,309,308,305,0
322,302,311,309,0
323,297,313,311,0
320,293,314,313,0
318,290,315,316,0
316,289,316,319,0
314,292,316,321,0
312,297,316,322,0
308,302,315,323,0
305,305,313,323,0
304,309,311,321,0
303,314,310,319,0
303,320,308,317,0
303,326,307,314,0
302,329,305,310,0
301,330,304,305,0
301,328,304,302,0
302,325,304,301,0
304,321,305,300,0
305,318,305,299,0
306,316,304,298,0
306,313,303,296,0
305,309,302,296,0
303,303,301,296,0
301,297,301,297,0
300,294,302,298,0
302,294,303,300,0
307,295,306,302,0
313,297,308,303,0
317,301,309,304,0
316,303,310,304,0
312,304,311,303,0
307,304,311,304,0
304,303,312,304,0
304,299,312,305,0
306,293,311,305,0
307,288,309,305,0
304,285,306,303,0
299,282,303,301,0
294,278,299,298,0
290,271,297,295,0
289,274,296,294,0
292,291,297,297,0
298,311,300,302,0
305,324,304,309,0
314,328,307,315,0
320,326,309,318,0
323,324,311,319,0
324,324,314,321,0
323,328,315,321,0
322,334,315,322,0
320,341,314,324,0
317,346,312,325,0
315,346,311,327,0
313,341,309,328,0
312,331,308,329,0
311,320,308,329,0
310,313,307,326,0
310,308,307,321,0
309,304,306,315,0
308,301,304,310,0
307,299,303,305,0
308,299,303,303,0
309,301,304,303,0
309,302,306,304,0
308,302,307,305,0
306,302,308,308,0
303,304,309,311,0
301,306,310,314,0
301,308,310,314,0
304,307,309,313,0
308,302,307,309,0
315,296,306,306,0
319,290,304,304,0
318,287,304,303,0
312,286,303,303,0
309,286,302,302,0
309,288,301,300,0
311,292,301,298,0
311,296,302,298,0
309,300,303,300,0
305,302,303,303,0
300,298,304,305,0
295,293,304,307,0
294,287,304,307,0
294,283,304,308,0
296,281,304,309,0
299,281,304,311,0
302,283,305,313,0
304,292,306,314,0
305,304,306,314,0
306,317,306,314,0
307,327,306,314,0
307,332,306,315,0
307,333,306,315,0
307,330,306,313,0
307,324,306,310,0
307,318,306,306,0
306,313,305,303,0
305,308,304,300,0
305,304,303,298,0
305,303,304,298,0
306,304,305,300,0
308,307,306,303,0
310,310,307,308,0
312,313,309,312,0
313,315,310,315,0
313,318,311,317,0
313,321,312,317,0
310,322,311,315,0
308,321,310,311,0
304,320,309,307,0
302,316,308,304,0
300,311,307,300,0
299,308,307,297,0
300,307,306,294,0
302,306,304,292,0
304,306,303,291,0
304,302,304,293,0
303,294,306,298,0
303,288,307,304,0
301,287,308,309,0
297,287,307,313,0
296,288,307,314,0
300,293,308,316,0
306,304,309,317,0
309,317,310,318,0
309,324,311,320,0
309,326,312,321,0
310,326,313,320,0
312,324,313,319,0
313,323,311,317,0
314,319,308,314,0
314,314,306,313,0
314,311,306,313,0
313,309,307,314,0
312,308,308,316,0
312,309,308,318,0
312,310,307,320,0
313,311,307,322,0
313,311,307,325,0
313,310,307,328,0
313,308,307,330,0
312,308,306,331,0
312,309,306,330,0
312,311,305,326,0
312,313,304,321,0
311,314,303,316,0
310,313,303,311,0
309,309,303,307,0
308,301,303,305,0
310,291,303,302,0
313,284,302,299,0
314,281,301,296,0
313,281,299,294,0
308,284,298,291,0
302,292,297,290,0
299,303,297,289,0
298,309,298,290,0
300,315,300,292,0
304,323,300,294,0
309,332,301,296,0
314,336,302,298,0
317,335,305,300,0
320,328,307,302,0
319,314,308,304,0
316,300,309,305,0
311,292,309,305,0
306,290,308,304,0
302,291,308,303,0
300,294,307,303,0
299,298,308,303,0
299,301,308,303,0
299,303,308,303,0
299,306,308,303,0
298,309,307,302,0
297,312,306,301,0
296,315,305,300,0
296,317,304,299,0
297,316,303,297,0
299,313,303,297,0
302,310,302,298,0
305,306,302,299,0
307,303,303,299,0
308,303,303,300,0
307,306,303,300,0
306,306,305,302,0
305,304,306,305,0
305,302,308,309,0
305,299,309,312,0
307,299,309,313,0
309,302,310,313,0
311,302,310,310,0
313,302,311,307,0
315,303,312,304,0
315,305,313,304,0
315,310,313,306,0
313,315,312,310,0
310,317,310,310,0
308,316,308,307,0
306,312,306,304,0
304,308,304,303,0
300,301,303,303,0
295,293,303,307,0
291,288,305,312,0
293,287,307,318,0
297,292,310,324,0
302,302,312,327,0
305,313,313,327,0
305,323,313,323,0
305,330,312,318,0
303,334,310,312,0
300,330,308,307,0
296,321,306,302,0
292,308,305,299,0
291,298,305,298,0
295,294,306,299,0
301,294,306,299,0
305,296,306,298,0
309,302,306,297,0
313,307,307,296,0
319,304,307,296,0
326,298,308,298,0
335,295,308,299,0
339,295,309,299,0
334,293,310,301,0
320,289,313,305,0
305,285,315,310,0
295,285,317,316,0
294,288,318,322,0
296,294,318,327,0
298,300,316,330,0
299,305,314,330,0
298,312,311,326,0
298,319,309,320,0
298,326,306,313,0
298,332,303,305,0
297,335,300,297,0
296,334,298,292,0
295,329,297,289,0
296,322,297,290,0
296,313,297,294,0
296,302,298,298,0
298,293,300,303,0
302,288,302,307,0
307,285,305,310,0
311,285,307,312,0
311,288,309,314,0
311,289,310,316,0
309,289,310,317,0
307,289,310,317,0
305,291,308,316,0
304,298,307,314,0
304,308,307,312,0
306,313,307,310,0
306,312,307,307,0
305,307,307,304,0
303,297,307,300,0
299,286,306,297,0
298,280,305,295,0
301,281,306,294,0
307,283,306,293,0
310,281,305,293,0
310,276,305,294,0
309,275,307,297,0
310,280,309,301,0
313,288,312,305,0
316,297,313,306,0
316,307,313,306,0
314,316,313,306,0
312,325,312,305,0
309,333,312,307,0
307,340,312,309,0
306,342,311,311,0
304,336,310,314,0
302,323,310,317,0
299,308,309,319,0
298,294,309,320,0
299,285,309,320,0
300,281,310,318,0
302,286,311,315,0
302,297,311,311,0
300,308,310,308,0
298,315,310,306,0
297,321,311,306,0
299,325,312,308,0
302,327,313,310,0
307,328,313,313,0
311,330,311,316,0
314,332,310,318,0
314,334,308,317,0
311,335,306,314,0
308,335,304,310,0
306,329,303,305,0
306,320,303,299,0
308,310,302,292,0
310,302,300,286,0
311,300,299,283,0
310,300,300,283,0
308,297,301,286,0
306,294,303,291,0
305,295,304,297,0
305,294,304,301,0
305,292,303,303,0
304,292,304,305,0
303,296,306,306,0
299,298,309,307,0
293,298,310,307,0
290,297,312,307,0
290,298,312,306,0
292,300,312,306,0
295,301,311,305,0
299,301,310,305,0
305,301,309,305,0
310,300,307,306,0
313,298,304,307,0
309,297,304,308,0
304,297,306,309,0
304,298,310,310,0
306,297,312,311,0
306,295,311,311,0
303,293,309,310,0
300,294,308,309,0
299,294,308,306,0
300,295,308,303,0
300,296,307,299,0
300,298,307,295,0
299,297,307,292,0
298,294,307,290,0
297,286,308,288,0
295,276,308,288,0
294,271,308,290,0
295,272,309,293,0
296,278,309,296,0
297,287,308,299,0
299,297,308,300,0
302,307,307,302,0
306,317,307,303,0
310,325,307,302,0
311,330,307,299,0
311,332,306,296,0
309,333,307,294,0
307,331,307,296,0
305,329,307,299,0
303,326,309,304,0
302,324,311,310,0
302,321,313,315,0
302,318,314,318,0
303,314,315,319,0
304,311,315,318,0
306,311,314,316,0
311,311,314,312,0
315,312,313,307,0
316,313,311,303,0
313,316,308,300,0
306,319,306,300,0
297,319,305,301,0
289,316,305,303,0
286,311,306,305,0
289,304,306,306,0
296,298,305,308,0
303,299,304,310,0
308,304,303,311,0
310,309,302,311,0
308,314,302,311,0
304,316,301,311,0
301,315,302,310,0
301,317,304,308,0
307,321,306,307,0
312,322,306,305,0
312,320,306,302,0
311,317,304,299,0
308,312,303,297,0
306,307,302,297,0
305,305,302,297,0
304,305,301,297,0
304,306,301,297,0
305,311,301,297,0
306,320,302,298,0
309,329,304,299,0
311,337,304,300,0
312,339,304,301,0
311,334,303,302,0
311,321,304,304,0
311,304,305,307,0
312,291,309,310,0
314,284,313,313,0
316,281,315,314,0
317,280,316,313,0
317,280,315,312,0
318,283,315,311,0
316,287,314,310,0
310,293,313,309,0
305,297,313,310,0
301,299,311,310,0
299,302,309,312,0
300,307,308,314,0
302,311,307,316,0
306,313,305,316,0
308,313,303,316,0
308,310,302,315,0
306,308,301,315,0
305,308,302,315,0
304,310,303,316,0
305,310,305,316,0
306,308,306,315,0
306,304,307,312,0
306,299,307,310,0
306,292,307,307,0
305,286,307,305,0
304,280,307,303,0
300,276,306,302,0
295,277,306,300,0
290,280,305,299,0
288,287,305,299,0
288,293,305,300,0
293,302,305,302,0
299,313,305,303,0
302,323,305,305,0
305,328,306,307,0
308,331,307,309,0
311,331,308,310,0
315,327,309,311,0
320,317,310,311,0
321,302,310,312,0
318,289,311,312,0
314,279,312,312,0
313,275,312,312,0
314,284,313,312,0
316,299,313,311,0
317,314,313,311,0
317,325,313,310,0
314,331,314,310,0
312,334,313,310,0
310,334,311,310,0
310,332,310,311,0
308,331,308,313,0
307,330,307,314,0
305,325,305,314,0
303,319,303,312,0
303,314,300,311,0
304,309,299,308,0
306,305,298,306,0
308,304,297,303,0
310,308,296,299,0
311,317,297,296,0
309,333,298,295,0
307,354,299,295,0
305,371,299,295,0
304,375,300,296,0
304,363,301,296,0
305,337,302,298,0
307,310,304,300,0
311,288,305,304,0
314,274,305,308,0
315,268,304,311,0
314,266,303,312,0
312,266,305,312,0
309,269,307,311,0
306,273,308,307,0
302,279,307,304,0
299,286,306,301,0
299,292,305,300,0
300,298,304,300,0
304,302,303,301,0
307,306,303,304,0
310,311,304,308,0
312,316,306,311,0
313,317,307,314,0
311,315,307,315,0
308,310,307,314,0
306,305,307,312,0
305,301,306,309,0
305,303,306,307,0
306,307,305,305,0
306,310,304,302,0
304,312,303,301,0
301,310,303,300,0
297,305,302,302,0
295,298,303,304,0
296,289,303,309,0
297,280,304,313,0
300,275,304,315,0
304,277,305,316,0
307,283,305,317,0
311,289,305,316,0
314,293,306,316,0
315,297,307,315,0
313,300,307,313,0
311,305,307,311,0
309,309,306,309,0
309,310,306,306,0
310,311,305,303,0
313,313,304,299,0
315,317,303,297,0
316,320,302,295,0
312,321,301,294,0
303,320,300,293,0
297,319,300,293,0
294,316,301,294,0
291,313,302,295,0
285,311,303,297,0
280,311,303,298,0
277,309,304,299,0
280,306,305,301,0
289,303,306,302,0
301,303,308,304,0
310,304,309,306,0
312,306,308,307,0
311,310,307,309,0
307,312,305,310,0
304,312,306,311,0
305,311,308,311,0
308,311,308,309,0
309,314,305,305,0
310,324,302,302,0
311,334,300,299,0
311,341,298,297,0
310,340,299,296,0
310,335,300,295,0
309,324,300,294,0
310,311,300,295,0
312,300,301,296,0
314,293,302,300,0
315,289,303,303,0
315,289,305,307,0
314,292,306,311,0
312,298,307,313,0
309,305,307,315,0
307,312,307,315,0
305,318,307,313,0
304,324,306,309,0
302,330,304,305,0
300,336,302,301,0
300,343,301,299,0
300,348,300,299,0
300,343,300,300,0
300,324,301,300,0
299,296,303,301,0
300,269,305,303,0
301,253,306,305,0
304,251,307,308,0
304,262,308,312,0
304,278,309,316,0
303,292,310,319,0
303,301,311,322,0
304,304,312,322,0
305,302,312,323,0
307,302,312,324,0
309,304,311,323,0
311,306,311,322,0
312,311,311,320,0
313,315,310,315,0
314,320,308,310,0
313,326,307,305,0
308,328,305,302,0
303,326,304,300,0
298,321,302,298,0
295,314,301,298,0
293,306,301,298,0
293,299,300,299,0
295,295,300,301,0
299,295,300,302,0
303,301,301,303,0
308,308,302,304,0
311,313,304,304,0
313,315,305,303,0
314,315,306,301,0
311,312,306,299,0
305,307,305,296,0
298,302,304,295,0
295,297,305,296,0
296,292,305,296,0
298,291,305,297,0
299,293,305,297,0
302,299,305,297,0
305,299,305,298,0
307,297,306,301,0
309,304,307,305,0
310,316,308,308,0
310,326,307,310,0
308,330,305,312,0
305,331,304,313,0
304,329,303,315,0
303,324,303,317,0
303,319,303,318,0
303,312,304,317,0
304,308,304,316,0
306,306,304,314,0
307,304,303,312,0
308,303,304,309,0
309,304,305,308,0
308,306,305,306,0
305,305,304,306,0
302,305,304,305,0
300,303,304,304,0
298,301,304,304,0
297,298,304,304,0
297,297,304,304,0
297,298,304,305,0
299,299,304,306,0
302,300,305,306,0
306,303,305,306,0
311,309,306,307,0
316,315,307,308,0
319,316,309,309,0
316,310,311,309,0
310,298,313,309,0
303,287,315,309,0
297,278,316,309,0
293,272,314,309,0
290,275,313,309,0
287,285,311,310,0
287,294,309,310,0
289,297,308,311,0
291,299,307,312,0
293,305,306,312,0
294,312,307,312,0
295,318,307,312,0
296,322,306,311,0
298,325,305,311,0
301,328,304,313,0
307,330,304,315,0
313,331,303,318,0
318,331,303,320,0
321,329,303,320,0
319,326,304,318,0
314,323,304,314,0
309,320,303,309,0
306,320,303,305,0
305,321,305,302,0
308,322,306,298,0
310,317,307,295,0
306,309,306,294,0
298,301,305,297,0
291,296,305,302,0
291,294,307,308,0
297,291,307,313,0
303,290,306,316,0
306,290,304,317,0
308,288,303,317,0
309,285,302,317,0
311,288,301,316,0
312,295,301,313,0
313,302,302,310,0
313,307,302,308,0
312,310,304,308,0
311,310,305,308,0
309,309,306,308,0
306,306,306,310,0
304,305,306,311,0
304,307,306,312,0
304,313,306,311,0
304,320,305,308,0
304,326,304,305,0
303,330,304,302,0
303,329,305,300,0
303,322,306,299,0
304,309,305,299,0
306,294,304,299,0
308,281,304,301,0
309,277,305,304,0
307,280,307,307,0
300,283,308,310,0
293,288,308,311,0
293,296,308,311,0
299,305,307,310,0
306,310,306,308,0
312,313,305,305,0
317,313,304,303,0
318,313,304,303,0
317,311,304,303,0
314,311,305,302,0
309,312,305,303,0
304,315,305,304,0
299,318,305,306,0
297,322,305,307,0
296,324,306,308,0
295,322,306,307,0
293,316,307,306,0
292,306,307,304,0
291,294,307,303,0
292,283,307,303,0
293,278,307,304,0
293,280,308,304,0
295,293,308,304,0
296,314,309,304,0
296,334,310,306,0
296,347,311,308,0
296,351,311,310,0
297,350,311,311,0
298,346,310,313,0
299,345,308,314,0
299,343,306,314,0
297,339,306,313,0
297,331,306,314,0
301,318,308,315,0
311,310,309,318,0
318,311,310,320,0
322,316,309,321,0
322,318,307,319,0
319,313,305,317,0
315,303,304,316,0
311,294,302,316,0
309,293,301,316,0
307,296,301,317,0
304,301,301,317,0
304,306,301,316,0
302,307,301,312,0
301,303,299,306,0
301,294,299,301,0
301,282,299,297,0
301,273,299,296,0
301,266,300,296,0
301,264,301,297,0
302,270,303,301,0
304,284,305,307,0
307,301,307,312,0
310,314,308,317,0
311,316,309,320,0
311,307,309,322,0
311,295,308,322,0
311,282,308,322,0
312,272,307,320,0
312,268,306,316,0
313,271,306,312,0
314,282,306,307,0
315,295,305,305,0
315,309,306,305,0
313,321,306,306,0
310,328,306,307,0
308,332,306,308,0
306,335,306,308,0
302,338,306,309,0
300,339,306,310,0
299,338,307,314,0
301,333,308,317,0
302,324,308,320,0
302,317,307,320,0
301,314,305,319,0
303,311,303,316,0
304,306,302,315,0
304,300,303,313,0
306,295,306,311,0
309,291,306,307,0
310,293,307,305,0
311,300,306,305,0
310,307,307,305,0
309,313,308,304,0
307,317,308,302,0
306,318,308,298,0
306,316,308,295,0
306,311,307,293,0
304,309,306,293,0
302,308,306,295,0
300,306,305,298,0
300,303,305,302,0
298,298,304,305,0
297,293,304,309,0
296,290,306,314,0
295,290,307,318,0
293,289,306,319,0
291,286,305,320,0
289,284,305,318,0
290,284,307,317,0
295,287,310,316,0
303,289,313,316,0
313,290,316,316,0
319,291,316,315,0
322,296,315,314,0
322,304,314,314,0
321,314,312,314,0
320,325,310,313,0
319,334,307,311,0
316,342,305,308,0
313,346,303,307,0
310,346,301,306,0
308,342,301,307,0
307,334,301,308,0
307,324,301,311,0
306,315,301,313,0
304,308,301,315,0
301,304,301,316,0
300,302,301,316,0
303,301,303,313,0
305,296,305,311,0
309,290,306,309,0
312,281,308,307,0
314,271,309,307,0
316,266,311,308,0
316,268,313,312,0
313,275,314,314,0
309,283,314,316,0
304,292,314,316,0
302,299,313,313,0
300,303,312,310,0
301,304,309,306,0
303,307,307,303,0
306,314,304,302,0
310,324,302,302,0
313,332,301,304,0
312,332,301,305,0
307,324,301,306,0
302,313,303,307,0
297,309,304,306,0
295,311,307,306,0
297,313,311,305,0
304,314,313,305,0
312,313,314,305,0
315,312,313,306,0
314,313,311,310,0
312,316,310,314,0
309,320,310,318,0
305,323,310,320,0
301,322,309,320,0
297,319,309,317,0
294,312,308,312,0
292,307,307,308,0
292,302,306,303,0
294,299,304,299,0
295,299,302,296,0
296,299,302,295,0
296,301,302,295,0
298,302,304,297,0
301,302,306,299,0
306,300,308,303,0
310,298,310,305,0
311,297,311,308,0
311,299,311,312,0
308,300,311,315,0
305,301,310,316,0
304,306,308,314,0
307,313,307,310,0
309,318,306,305,0
307,318,304,301,0
302,316,302,298,0
297,313,301,297,0
