318,328,306,322,0
322,328,306,319,0
324,328,306,315,0
322,328,305,310,0
312,327,303,306,0
297,325,303,302,0
285,326,304,301,0
278,329,305,301,0
276,329,305,301,0
279,321,307,302,0
286,311,310,303,0
296,304,312,304,0
305,301,312,306,0
314,304,312,309,0
318,311,311,312,0
317,321,309,314,0
313,327,307,317,0
309,327,305,319,0
305,320,305,322,0
303,308,305,323,0
301,294,307,323,0
297,280,308,322,0
293,270,309,321,0
292,266,310,322,0
296,270,312,325,0
303,281,312,329,0
309,294,311,332,0
312,306,310,333,0
313,317,308,334,0
312,325,307,334,0
311,332,305,333,0
311,335,305,332,0
310,335,304,330,0
309,332,303,327,0
308,326,301,323,0
307,321,299,317,0
307,317,298,310,0
306,313,297,306,0
306,313,296,308,0
307,314,297,315,0
308,315,299,321,0
309,315,301,324,0
310,315,303,322,0
309,315,305,316,0
308,315,305,308,0
305,313,306,299,0
302,306,306,291,0
299,299,305,284,0
297,293,304,280,0
297,290,303,280,0
297,290,303,283,0
298,294,304,289,0
299,301,304,295,0
301,305,302,298,0
302,305,300,299,0
304,307,299,298,0
308,309,299,298,0
312,304,301,299,0
317,297,303,301,0
320,292,306,305,0
321,291,309,311,0
320,297,311,316,0
319,307,312,318,0
317,319,311,317,0
313,329,310,314,0
307,334,308,311,0
302,335,307,308,0
298,331,306,306,0
294,321,306,305,0
290,309,306,305,0
287,300,306,305,0
285,297,304,303,0
283,299,302,299,0
281,306,299,294,0
283,319,296,291,0
288,339,295,290,0
294,356,297,293,0
299,361,300,297,0
305,355,302,301,0
309,342,304,306,0
313,329,307,311,0
315,317,309,317,0
315,308,311,322,0
315,300,312,325,0
314,294,312,327,0
312,292,312,328,0
311,294,312,329,0
309,298,311,327,0
308,300,309,325,0
309,301,308,323,0
310,301,307,321,0
312,302,306,320,0
312,301,306,318,0
312,300,305,317,0
306,300,305,315,0
298,301,304,314,0
292,302,303,313,0
291,297,303,309,0
292,287,303,304,0
294,276,303,302,0
296,269,304,301,0
299,268,307,302,0
304,273,309,304,0
310,281,312,307,0
313,296,313,313,0
315,314,313,321,0
315,329,312,329,0
315,339,311,334,0
315,344,310,336,0
314,343,310,334,0
313,337,310,330,0
312,328,311,322,0
309,322,311,313,0
307,320,311,305,0
304,318,309,298,0
301,316,306,292,0
299,311,304,288,0
297,305,301,287,0
297,304,300,289,0
300,304,299,294,0
303,305,301,301,0
307,304,302,307,0
309,300,305,309,0
309,294,306,307,0
309,294,308,303,0
310,304,309,301,0
312,316,310,299,0
313,321,310,298,0
313,323,309,296,0
311,324,308,294,0
310,321,306,293,0
308,317,305,292,0
307,312,304,292,0
306,305,303,292,0
306,295,301,295,0
305,285,300,299,0
304,276,301,305,0
304,270,302,311,0
304,271,303,318,0
304,280,304,325,0
305,295,306,331,0
306,313,307,335,0
307,326,308,336,0
308,330,309,333,0
310,326,309,327,0
311,318,309,321,0
311,311,308,315,0
310,309,307,310,0
309,315,307,307,0
306,325,306,304,0
301,333,306,304,0
297,337,306,304,0
295,337,307,306,0
295,336,307,309,0
297,333,307,311,0
298,326,306,311,0
298,315,303,307,0
297,299,301,302,0
294,279,299,294,0
291,260,298,287,0
292,257,299,284,0
298,270,303,286,0
308,289,306,292,0
316,308,308,298,0
321,323,310,304,0
322,334,310,311,0
321,342,310,317,0
317,347,310,322,0
312,348,309,324,0
306,345,307,322,0
301,340,306,318,0
299,335,306,313,0
300,332,305,307,0
305,329,305,301,0
310,327,304,295,0
312,325,303,291,0
309,322,303,290,0
306,316,303,292,0
306,306,303,294,0
308,297,304,297,0
310,289,305,300,0
311,284,306,302,0
312,281,307,304,0
309,279,308,305,0
305,278,309,305,0
300,276,309,305,0
296,273,309,306,0
292,271,308,307,0
291,273,308,310,0
292,280,308,313,0
295,289,307,316,0
299,299,305,318,0
304,307,304,319,0
310,312,304,320,0
315,314,303,323,0
319,313,302,327,0
318,311,302,331,0
314,307,302,334,0
309,301,303,333,0
304,296,304,330,0
302,294,306,326,0
302,291,307,321,0
303,290,309,318,0
306,294,312,313,0
308,299,313,308,0
309,302,313,301,0
306,303,310,293,0
300,303,307,285,0
295,302,305,278,0
290,298,304,275,0
289,299,303,277,0
289,302,303,284,0
293,308,304,293,0
298,315,304,300,0
302,325,303,306,0
305,338,302,310,0
307,349,300,312,0
309,357,298,310,0
309,363,296,306,0
308,363,295,301,0
308,359,295,297,0
309,351,296,294,0
310,338,298,291,0
310,317,299,287,0
310,293,299,285,0
309,270,299,284,0
309,256,300,285,0
310,253,301,289,0
310,261,301,294,0
310,276,301,297,0
308,292,301,300,0
306,304,300,302,0
304,309,299,302,0
301,306,299,301,0
299,297,298,301,0
298,284,298,303,0
298,274,298,305,0
301,275,298,308,0
310,288,300,313,0
321,303,301,317,0
326,317,301,319,0
323,328,299,320,0
314,334,298,320,0
307,334,297,319,0
303,328,296,319,0
302,320,296,319,0
302,314,297,321,0
305,312,300,323,0
308,313,303,325,0
311,314,304,325,0
313,313,303,323,0
310,309,301,319,0
304,303,300,314,0
298,297,299,311,0
295,293,299,309,0
294,293,300,308,0
296,293,301,309,0
298,294,301,310,0
300,291,301,312,0
301,291,301,312,0
301,296,301,311,0
301,301,301,309,0
302,306,302,306,0
304,310,304,305,0
308,310,306,305,0
310,310,308,306,0
310,314,309,308,0
310,319,309,311,0
308,324,309,315,0
305,326,308,322,0
303,324,308,331,0
301,318,307,337,0
298,308,305,337,0
294,299,303,332,0
293,300,302,327,0
296,311,303,323,0
303,323,304,319,0
311,330,306,316,0
316,330,307,313,0
317,328,309,310,0
313,323,310,308,0
305,318,312,307,0
299,316,313,307,0
297,320,315,308,0
300,325,316,307,0
303,327,315,304,0
307,324,311,299,0
312,320,308,292,0
316,320,304,287,0
318,323,303,285,0
316,325,302,283,0
313,325,302,283,0
307,323,302,283,0
302,320,300,282,0
299,316,300,282,0
297,310,299,282,0
297,298,299,281,0
297,285,300,282,0
299,277,302,285,0
303,278,306,290,0
306,283,310,298,0
309,288,313,306,0
309,293,315,313,0
306,297,315,319,0
304,301,315,324,0
304,306,314,329,0
306,310,312,331,0
308,315,312,330,0
309,319,310,327,0
310,321,310,322,0
309,322,309,317,0
309,322,309,313,0
311,322,308,308,0
316,323,306,304,0
322,325,304,299,0
327,327,301,295,0
332,327,298,291,0
330,322,297,288,0
321,309,298,288,0
309,291,299,291,0
300,274,300,295,0
295,261,301,300,0
292,258,302,305,0
292,265,303,310,0
294,272,306,313,0
298,278,308,314,0
301,285,310,315,0
303,293,312,318,0
304,299,314,320,0
304,302,316,323,0
303,305,317,328,0
303,307,317,334,0
303,308,317,339,0
302,311,316,343,0
301,314,315,347,0
301,317,314,349,0
301,323,314,350,0
302,333,314,347,0
305,343,314,340,0
306,350,313,331,0
308,351,312,323,0
308,345,311,318,0
309,333,311,316,0
309,319,311,315,0
307,309,311,313,0
304,306,311,309,0
301,308,311,303,0
298,315,311,297,0
294,320,311,293,0
291,324,312,290,0
289,324,312,289,0
291,320,314,290,0
298,312,314,291,0
304,298,315,293,0
310,283,315,295,0
312,272,313,298,0
312,267,313,302,0
312,264,312,306,0
312,260,312,308,0
313,258,312,307,0
313,258,312,304,0
312,262,312,301,0
310,269,312,301,0
308,276,313,302,0
308,285,315,303,0
308,295,315,304,0
309,310,316,303,0
309,325,316,302,0
309,334,317,299,0
308,335,316,297,0
306,328,316,294,0
304,314,315,294,0
302,301,316,295,0
301,297,316,300,0
302,301,315,305,0
303,305,314,309,0
305,308,312,309,0
306,306,310,308,0
308,303,310,305,0
308,299,310,302,0
307,297,310,299,0
303,295,310,297,0
299,296,311,296,0
298,303,311,296,0
300,314,313,297,0
306,322,314,298,0
309,327,314,299,0
311,331,314,299,0
311,334,313,300,0
312,335,312,302,0
313,333,310,307,0
309,329,308,313,0
303,321,307,321,0
297,315,307,328,0
295,314,306,332,0
295,315,306,334,0
297,315,307,334,0
301,315,309,331,0
303,317,311,328,0
305,321,313,325,0
305,323,313,321,0
305,324,313,318,0
305,324,313,316,0
304,323,313,311,0
303,320,312,304,0
301,314,311,298,0
297,305,308,291,0
294,292,307,287,0
292,276,306,285,0
292,261,306,286,0
293,251,307,291,0
295,249,309,299,0
296,257,310,308,0
296,273,310,315,0
297,293,310,322,0
302,312,311,328,0
309,326,310,331,0
315,334,309,333,0
317,335,308,334,0
318,326,307,334,0
318,313,308,336,0
318,301,310,337,0
317,292,311,334,0
316,287,312,328,0
313,287,312,322,0
308,298,312,316,0
303,316,313,309,0
298,332,311,300,0
294,343,309,292,0
292,351,306,286,0
292,351,304,282,0
295,342,303,282,0
298,328,303,282,0
301,313,303,284,0
302,304,302,286,0
303,299,302,290,0
304,299,302,295,0
305,300,302,302,0
306,300,302,310,0
308,299,302,319,0
310,301,303,327,0
313,305,304,331,0
314,310,305,330,0
313,316,305,325,0
311,322,304,316,0
309,327,304,306,0
307,330,304,297,0
304,333,303,291,0
302,335,302,287,0
300,331,302,284,0
298,321,301,282,0
295,306,299,281,0
291,288,298,282,0
289,266,298,284,0
288,243,297,288,0
288,225,299,293,0
290,219,301,297,0
294,222,302,301,0
299,234,305,306,0
308,255,308,315,0
320,281,312,325,0
325,306,313,333,0
322,325,313,338,0
317,338,314,340,0
313,344,315,340,0
308,344,316,337,0
304,339,316,333,0
299,331,314,329,0
295,326,313,325,0
293,325,311,322,0
294,327,311,318,0
296,330,310,314,0
299,333,310,310,0
302,336,308,308,0
305,339,307,308,0
307,339,305,310,0
309,334,304,311,0
309,326,304,312,0
309,318,303,311,0
308,311,304,309,0
309,305,304,308,0
308,304,305,306,0
305,304,306,303,0
301,306,307,301,0
298,311,308,300,0
299,318,309,300,0
301,324,308,301,0
304,329,307,303,0
306,332,307,305,0
307,330,306,307,0
307,323,307,310,0
307,315,306,312,0
305,306,306,312,0
303,298,305,311,0
303,298,305,311,0
305,302,305,312,0
307,305,307,314,0
310,309,308,320,0
311,314,309,327,0
310,321,310,331,0
308,328,310,331,0
304,329,310,327,0
299,321,310,320,0
294,306,308,311,0
289,288,307,303,0
288,279,307,297,0
292,282,307,294,0
298,297,308,293,0
305,312,309,293,0
310,322,310,293,0
314,326,310,292,0
315,325,310,290,0
315,320,310,287,0
312,312,309,284,0
307,302,308,283,0
301,294,309,284,0
297,288,310,288,0
297,286,311,294,0
302,288,312,300,0
308,292,313,306,0
314,298,316,313,0
319,304,317,320,0
322,313,317,326,0
321,320,317,327,0
317,320,317,324,0
314,317,317,319,0
313,317,316,314,0
310,321,316,307,0
305,325,316,300,0
299,328,316,293,0
295,330,315,286,0
292,331,314,279,0
290,330,313,273,0
290,327,312,272,0
291,320,312,273,0
294,315,312,277,0
297,314,313,283,0
299,309,315,289,0
300,298,317,295,0
302,290,319,301,0
303,285,321,307,0
301,279,322,311,0
296,269,321,313,0
291,264,320,315,0
291,274,320,316,0
293,294,319,316,0
296,318,319,316,0
298,335,319,315,0
299,344,319,314,0
300,346,319,313,0
303,342,319,312,0
306,337,320,311,0
309,334,319,311,0
310,332,318,311,0
310,329,317,312,0
310,324,315,314,0
309,318,314,315,0
309,314,313,315,0
311,310,313,313,0
314,306,313,310,0
317,302,312,306,0
318,301,313,303,0
317,307,314,303,0
313,317,314,302,0
305,325,313,301,0
298,329,311,299,0
294,328,309,296,0
293,321,308,295,0
297,310,308,295,0
303,297,309,296,0
309,288,311,299,0
311,289,312,304,0
308,299,312,312,0
305,307,312,319,0
303,308,312,325,0
302,304,310,327,0
302,301,309,328,0
303,301,309,327,0
303,305,309,325,0
302,311,309,322,0
302,314,307,318,0
300,314,305,312,0
299,311,303,305,0
299,305,304,298,0
301,295,304,291,0
301,286,304,286,0
302,279,305,284,0
302,277,307,286,0
301,281,308,288,0
300,289,310,290,0
299,298,311,292,0
297,304,313,294,0
293,308,315,296,0
291,309,316,296,0
293,310,315,297,0
296,312,312,298,0
298,315,309,300,0
298,316,306,302,0
298,313,305,305,0
297,306,305,308,0
295,299,307,310,0
295,293,309,312,0
294,293,312,314,0
296,304,314,316,0
301,318,314,317,0
306,327,313,315,0
309,329,310,312,0
311,330,307,308,0
314,333,304,304,0
316,333,301,301,0
317,329,299,298,0
317,319,296,295,0
315,308,295,294,0
312,302,293,295,0
309,305,292,296,0
308,314,291,298,0
308,324,291,298,0
308,329,291,297,0
307,327,293,297,0
306,318,295,296,0
305,302,298,296,0
303,289,301,297,0
303,280,302,300,0
304,274,303,304,0
306,271,303,307,0
306,274,302,311,0
307,284,302,312,0
307,296,301,313,0
306,307,300,312,0
305,316,299,310,0
305,320,298,310,0
307,324,298,311,0
310,326,298,314,0
313,324,297,317,0
314,316,296,319,0
314,305,296,324,0
312,294,297,330,0
311,288,300,336,0
312,288,303,344,0
314,294,306,351,0
313,300,308,357,0
309,305,310,361,0
305,308,312,361,0
301,312,312,356,0
299,315,312,350,0
299,318,312,345,0
300,321,312,343,0
302,322,311,343,0
305,320,310,340,0
307,318,307,334,0
308,316,305,324,0
310,312,303,314,0
312,310,302,305,0
315,311,300,296,0
314,312,299,288,0
309,313,298,281,0
305,319,299,276,0
303,324,300,274,0
303,322,302,274,0
305,314,304,276,0
306,303,306,278,0
307,288,308,279,0
305,273,309,279,0
301,260,308,277,0
299,252,307,275,0
298,257,306,275,0
300,277,306,278,0
301,303,306,283,0
302,324,306,289,0
304,337,307,293,0
308,344,308,297,0
312,346,308,301,0
314,347,308,305,0
314,343,308,307,0
312,334,308,308,0
311,323,308,309,0
312,311,308,310,0
313,303,307,310,0
317,298,306,311,0
321,297,306,312,0
322,299,307,313,0
319,304,308,313,0
313,309,308,313,0
307,312,308,310,0
301,311,307,308,0
297,307,306,306,0
294,301,306,305,0
293,299,306,306,0
294,304,307,308,0
298,315,308,309,0
304,325,309,311,0
310,329,310,311,0
314,326,309,309,0
316,320,308,307,0
317,315,308,304,0
318,313,309,303,0
320,312,311,302,0
321,313,312,303,0
320,314,313,303,0
316,313,314,305,0
313,308,315,307,0
309,303,316,309,0
307,304,315,312,0
305,309,315,316,0
302,314,314,319,0
298,317,314,320,0
293,316,313,319,0
289,310,311,316,0
288,295,309,314,0
289,281,308,313,0
293,274,308,313,0
299,275,308,315,0
306,281,309,319,0
313,289,310,323,0
317,296,312,327,0
319,302,313,328,0
318,307,314,328,0
317,310,314,326,0
318,311,313,323,0
322,310,313,319,0
326,311,312,313,0
327,315,312,308,0
324,321,311,304,0
316,326,311,303,0
308,333,311,306,0
303,338,312,313,0
299,337,312,320,0
296,327,314,324,0
294,316,316,325,0
293,304,318,324,0
292,293,318,319,0
291,287,317,312,0
289,290,315,303,0
290,300,312,295,0
294,308,310,286,0
300,312,308,279,0
306,314,306,275,0
309,315,304,274,0
310,315,303,274,0
309,316,303,275,0
308,317,303,276,0
307,316,303,277,0
305,313,304,278,0
304,313,305,281,0
303,316,306,283,0
303,315,307,286,0
302,313,307,288,0
301,314,308,293,0
300,317,309,298,0
300,318,311,302,0
301,318,312,304,0
301,318,310,305,0
300,320,308,304,0
298,323,306,304,0
298,323,304,304,0
299,317,303,305,0
300,301,302,305,0
301,282,300,305,0
302,266,299,305,0
304,261,299,304,0
306,271,300,305,0
307,286,303,306,0
307,299,305,307,0
305,308,307,308,0
303,315,310,309,0
304,318,311,309,0
307,320,313,310,0
311,320,313,313,0
315,317,313,315,0
318,310,312,317,0
319,301,310,318,0
318,293,307,319,0
316,289,305,320,0
314,289,304,321,0
313,292,304,320,0
313,291,304,318,0
312,286,304,312,0
312,280,305,305,0
313,278,307,299,0
316,284,308,297,0
319,297,308,298,0
321,313,306,301,0
321,326,305,307,0
321,336,304,315,0
319,341,305,323,0
311,340,306,330,0
302,334,306,336,0
295,328,306,340,0
290,323,306,343,0
289,318,305,344,0
292,313,305,341,0
295,312,305,334,0
299,315,305,326,0
302,319,304,320,0
303,325,304,315,0
305,331,304,313,0
307,334,304,311,0
309,331,304,309,0
311,327,303,306,0
312,324,302,303,0
312,324,302,299,0
310,328,302,296,0
308,333,303,294,0
304,337,303,290,0
301,337,303,286,0
299,330,304,282,0
301,316,306,281,0
308,301,307,284,0
316,290,306,289,0
320,284,304,295,0
319,281,301,301,0
315,283,301,306,0
310,287,302,309,0
305,295,303,309,0
302,302,302,307,0
301,308,302,304,0
302,308,302,300,0
304,302,303,297,0
307,291,305,297,0
310,280,307,299,0
312,272,310,302,0
310,270,310,304,0
305,273,309,304,0
300,279,307,304,0
297,286,305,304,0
298,294,303,304,0
300,295,302,302,0
301,289,301,298,0
302,282,301,294,0
304,280,300,290,0
304,278,300,287,0
303,272,299,287,0
300,267,298,289,0
298,270,296,293,0
298,283,296,297,0
301,302,296,301,0
305,315,297,302,0
308,317,298,302,0
309,311,299,301,0
310,303,300,300,0
312,299,302,300,0
314,301,304,301,0
317,310,307,303,0
319,322,309,304,0
319,334,310,304,0
317,348,310,303,0
315,363,310,304,0
313,375,310,307,0
313,377,308,311,0
314,368,307,316,0
316,351,307,321,0
316,332,307,325,0
312,318,307,328,0
302,311,308,332,0
294,312,309,336,0
291,317,310,342,0
293,321,310,345,0
296,323,309,344,0
299,322,308,341,0
300,317,306,336,0
301,311,305,331,0
302,305,305,326,0
303,302,305,319,0
304,305,305,311,0
305,310,306,305,0
306,314,305,301,0
306,315,305,300,0
305,310,305,298,0
303,298,305,296,0
299,283,304,293,0
296,267,302,290,0
293,255,301,287,0
294,254,300,286,0
298,260,300,287,0
304,270,301,288,0
310,286,302,290,0
314,306,303,291,0
317,324,304,290,0
317,336,304,289,0
315,343,304,289,0
314,346,305,291,0
314,346,308,295,0
315,347,310,300,0
319,343,312,304,0
319,333,315,306,0
315,322,317,308,0
308,314,316,308,0
299,310,313,306,0
288,309,309,304,0
283,308,306,301,0
283,308,304,301,0
289,305,304,300,0
295,300,303,302,0
300,296,302,306,0
302,291,301,311,0
303,287,300,316,0
304,285,300,320,0
307,287,302,323,0
310,291,306,323,0
314,294,308,322,0
317,297,311,319,0
319,304,312,318,0
322,313,313,317,0
325,321,313,317,0
328,325,312,316,0
330,326,312,317,0
329,326,311,318,0
328,324,311,318,0
326,321,311,316,0
321,316,310,312,0
313,309,308,305,0
304,303,306,298,0
296,302,305,291,0
291,303,305,285,0
291,309,304,282,0
295,317,304,282,0
300,326,304,284,0
305,334,303,288,0
309,339,302,294,0
313,339,302,303,0
316,334,304,312,0
320,325,306,321,0
322,311,310,328,0
319,296,314,333,0
309,285,316,334,0
298,280,316,330,0
289,279,313,321,0
283,283,308,310,0
283,296,303,300,0
287,312,301,294,0
294,320,300,290,0
301,318,300,288,0
307,310,300,286,0
310,300,299,286,0
312,290,299,288,0
315,279,301,291,0
316,272,301,295,0
314,268,301,296,0
310,267,300,295,0
304,272,299,295,0
300,281,300,296,0
297,289,301,297,0
296,294,302,299,0
297,301,304,302,0
299,312,305,306,0
300,324,306,309,0
301,336,306,310,0
301,343,305,310,0
301,345,305,309,0
302,342,304,307,0
303,331,304,305,0
306,312,305,302,0
309,291,305,297,0
312,273,304,294,0
313,260,303,292,0
312,256,302,293,0
310,263,302,297,0
309,278,304,303,0
310,293,305,309,0
312,301,305,316,0
316,305,305,324,0
323,310,306,331,0
326,318,306,335,0
323,325,306,334,0
316,328,306,329,0
309,329,306,322,0
303,326,305,314,0
299,320,304,306,0
296,314,304,300,0
294,309,305,298,0
293,307,305,297,0
295,311,304,298,0
299,319,302,299,0
301,327,299,300,0
304,333,297,302,0
306,335,296,304,0
308,334,296,305,0
307,332,296,303,0
304,330,297,302,0
302,328,297,301,0
301,323,299,301,0
300,316,301,301,0
301,312,303,304,0
303,316,305,307,0
305,322,306,310,0
306,325,306,311,0
304,323,304,313,0
300,315,303,317,0
296,309,302,323,0
293,307,302,330,0
294,310,303,337,0
297,319,304,342,0
299,329,305,343,0
302,332,305,341,0
307,330,305,336,0
313,324,303,328,0
319,316,301,318,0
320,306,299,309,0
315,291,298,300,0
309,277,298,294,0
304,267,298,288,0
303,264,299,286,0
302,271,300,285,0
301,282,301,288,0
300,296,302,291,0
300,307,302,294,0
301,314,303,297,0
302,317,303,299,0
303,317,303,298,0
303,315,301,295,0
302,310,298,291,0
300,304,295,286,0
297,297,292,282,0
297,296,290,281,0
298,296,290,283,0
301,296,292,287,0
302,292,294,291,0
301,287,296,296,0
299,282,297,300,0
300,281,300,304,0
305,285,303,310,0
311,295,306,316,0
317,306,308,320,0
320,317,309,323,0
321,326,309,325,0
318,332,309,324,0
314,334,308,323,0
311,332,306,322,0
309,327,305,322,0
309,320,304,324,0
308,312,304,327,0
305,308,306,329,0
302,306,306,329,0
300,304,307,326,0
300,300,307,319,0
301,296,306,310,0
303,294,306,302,0
305,294,304,297,0
306,297,304,296,0
308,301,304,297,0
309,303,306,298,0
309,303,308,300,0
307,305,309,301,0
304,310,310,304,0
301,316,312,306,0
302,321,313,308,0
304,324,313,311,0
305,328,312,315,0
305,331,310,319,0
305,333,310,321,0
304,335,309,321,0
303,336,309,321,0
302,331,308,321,0
299,322,308,322,0
296,314,307,326,0
293,305,307,331,0
290,291,307,334,0
290,275,308,336,0
294,268,309,337,0
299,268,310,336,0
303,272,309,331,0
305,276,309,323,0
304,281,308,315,0
302,287,307,310,0
303,294,307,306,0
305,296,307,307,0
307,299,307,309,0
309,307,307,310,0
311,317,306,306,0
313,325,304,299,0
313,330,302,291,0
314,331,300,284,0
315,330,298,280,0
313,329,297,278,0
306,326,296,279,0
302,321,297,282,0
301,311,298,286,0
303,301,299,290,0
303,296,300,294,0
304,295,301,297,0
303,298,303,300,0
302,300,306,301,0
301,301,308,301,0
299,299,310,300,0
296,296,311,298,0
291,293,312,298,0
287,293,314,299,0
286,295,316,301,0
287,299,316,303,0
292,305,314,306,0
298,312,311,308,0
304,319,308,309,0
308,325,305,309,0
310,328,303,308,0
311,329,301,306,0
312,329,300,306,0
312,326,300,307,0
312,321,300,308,0
311,315,300,311,0
309,306,301,312,0
308,295,302,313,0
307,288,304,313,0
306,284,306,313,0
305,281,308,314,0
305,281,310,315,0
306,287,312,317,0
308,298,313,318,0
310,309,313,319,0
312,319,312,319,0
312,325,311,318,0
312,330,310,318,0
311,334,309,318,0
311,337,307,317,0
309,336,304,313,0
306,331,302,308,0
302,323,300,302,0
297,313,300,299,0
294,302,300,300,0
293,301,303,307,0
297,310,307,317,0
303,318,311,327,0
310,321,315,335,0
314,321,318,340,0
316,322,319,342,0
315,321,320,341,0
315,320,321,340,0
313,319,320,337,0
312,322,319,332,0
311,325,318,325,0
310,327,316,318,0
309,327,313,310,0
307,323,310,303,0
306,317,307,297,0
305,312,305,293,0
302,309,303,290,0
298,307,302,286,0
295,303,301,281,0
292,298,299,276,0
293,293,299,275,0
299,289,300,277,0
311,289,304,285,0
322,295,308,293,0
327,302,311,298,0
326,308,312,301,0
321,312,312,304,0
314,312,312,306,0
308,309,312,307,0
304,308,311,309,0
303,307,311,312,0
304,305,312,315,0
305,302,311,316,0
305,302,312,316,0
306,308,311,316,0
306,312,311,314,0
306,314,309,312,0
306,315,308,310,0
307,315,307,310,0
308,317,306,311,0
310,320,305,309,0
312,321,304,307,0
314,323,305,307,0
314,322,306,309,0
309,317,308,312,0
304,310,309,313,0
302,305,309,313,0
303,304,309,312,0
305,307,308,309,0
307,313,307,304,0
308,317,306,298,0
308,320,305,293,0
306,319,305,289,0
302,315,306,287,0
296,313,307,287,0
290,316,308,288,0
287,326,310,292,0
290,333,314,299,0
297,329,317,309,0
301,315,318,320,0
304,295,317,330,0
307,277,315,338,0
309,268,311,343,0
311,265,307,343,0
311,270,304,338,0
311,284,301,329,0
311,304,301,321,0
311,323,301,314,0
308,335,303,308,0
306,341,305,302,0
304,341,307,297,0
304,336,307,293,0
304,327,305,287,0
304,316,304,283,0
303,304,303,280,0
300,291,302,276,0
298,279,299,275,0
299,274,298,276,0
302,279,298,281,0
307,289,299,287,0
311,296,302,295,0
313,301,305,304,0
311,301,307,311,0
308,300,309,316,0
305,300,311,317,0
307,301,313,317,0
312,302,314,317,0
315,302,313,316,0
316,303,311,315,0
316,303,308,313,0
315,306,305,311,0
316,311,304,310,0
314,317,302,308,0
310,325,302,306,0
306,331,301,302,0
303,333,301,298,0
301,330,301,295,0
301,323,301,294,0
303,311,300,295,0
304,300,299,298,0
304,293,298,303,0
305,292,299,309,0
304,293,301,315,0
303,293,302,320,0
300,293,303,325,0
297,295,305,329,0
296,301,306,333,0
297,310,307,337,0
300,318,308,341,0
303,320,309,342,0
305,316,308,337,0
306,308,307,329,0
309,300,305,320,0
313,301,305,311,0
313,311,304,303,0
309,321,303,297,0
304,328,302,292,0
301,334,300,288,0
300,335,297,287,0
300,332,296,286,0
302,326,295,288,0
304,319,296,291,0
307,314,297,295,0
310,312,299,298,0
311,313,301,300,0
311,318,303,303,0
308,319,305,306,0
306,316,307,309,0
303,310,309,310,0
299,300,310,310,0
296,287,309,309,0
292,278,309,311,0
291,280,309,317,0
294,292,310,326,0
299,304,311,336,0
304,307,311,344,0
308,305,310,347,0
311,301,309,345,0
313,296,307,341,0
314,290,307,334,0
315,281,306,327,0
314,272,307,320,0
313,266,308,313,0
312,264,309,306,0
311,265,311,300,0
309,269,313,296,0
307,277,314,296,0
304,289,315,299,0
297,301,314,303,0
288,313,311,306,0
281,330,308,307,0
279,344,305,306,0
284,350,304,304,0
294,347,303,302,0
304,339,303,301,0
312,330,304,300,0
315,322,305,299,0
316,313,306,299,0
315,303,307,300,0
314,294,307,299,0
315,286,308,299,0
317,284,309,299,0
319,287,310,300,0
319,294,311,302,0
317,302,311,304,0
314,307,311,304,0
309,311,309,303,0
306,314,308,302,0
306,318,306,300,0
307,320,304,298,0
310,320,303,297,0
311,318,302,295,0
313,312,302,294,0
314,307,303,295,0
315,308,305,297,0
315,312,308,300,0
315,317,309,302,0
315,316,308,303,0
312,310,307,304,0
310,306,307,307,0
309,304,308,312,0
309,305,309,317,0
310,304,309,322,0
311,303,310,327,0
312,306,311,329,0
313,312,311,330,0
315,316,311,327,0
319,315,309,324,0
322,311,308,319,0
326,306,306,313,0
325,303,305,307,0
318,302,304,303,0
306,304,304,301,0
296,307,305,301,0
291,308,305,303,0
291,305,306,307,0
295,298,306,313,0
299,290,305,317,0
301,278,303,319,0
302,265,302,317,0
302,259,302,313,0
305,264,304,309,0
308,278,306,306,0
311,292,309,303,0
312,305,313,302,0
312,316,316,300,0
309,324,317,298,0
306,329,317,297,0
304,330,315,297,0
303,329,313,300,0
303,326,311,304,0
304,322,309,308,0
306,321,307,311,0
309,321,306,313,0
312,321,305,313,0
312,320,305,312,0
312,318,305,311,0
313,314,306,309,0
314,309,306,307,0
316,303,306,306,0
316,295,306,304,0
315,286,307,302,0
311,278,306,299,0
304,273,306,295,0
299,269,307,293,0
296,270,308,292,0
295,280,309,293,0
295,296,310,295,0
294,310,311,298,0
292,319,312,301,0
292,324,313,303,0
293,326,314,304,0
297,323,315,304,0
301,316,315,303,0
306,309,316,304,0
310,303,316,308,0
314,299,316,313,0
315,298,314,316,0
315,301,311,319,0
314,306,308,320,0
314,310,307,322,0
314,311,306,322,0
314,310,308,323,0
314,308,308,324,0
313,304,309,324,0
313,301,309,324,0
313,303,309,320,0
313,305,309,315,0
313,303,309,308,0
312,298,309,301,0
312,290,308,296,0
311,282,307,292,0
310,279,306,289,0
310,286,306,290,0
311,299,305,294,0
313,312,304,298,0
314,321,303,301,0
316,329,303,303,0
319,333,303,303,0
320,333,303,300,0
318,332,303,297,0
316,330,303,294,0
313,329,305,291,0
311,326,305,289,0
308,322,306,288,0
304,316,305,287,0
299,313,305,286,0
293,313,304,287,0
287,311,304,290,0
283,304,305,295,0
285,293,308,302,0
296,284,311,311,0
306,278,313,318,0
312,275,312,322,0
313,279,311,325,0
312,289,309,326,0
311,300,307,326,0
314,309,305,322,0
318,313,303,316,0
318,314,300,311,0
314,313,298,307,0
311,311,298,304,0
309,310,299,304,0
308,310,300,304,0
308,310,302,304,0
308,310,303,305,0
308,310,304,306,0
308,310,305,306,0
307,309,305,306,0
306,310,305,306,0
305,311,305,305,0
304,312,304,305,0
303,312,304,304,0
303,312,304,305,0
304,312,304,307,0
305,312,304,311,0
305,311,303,313,0
305,309,302,314,0
304,306,300,315,0
304,303,299,317,0
304,300,300,321,0
306,296,303,325,0
309,291,305,330,0
311,289,308,334,0
311,290,308,335,0
308,297,308,331,0
302,310,307,323,0
297,324,307,314,0
296,337,307,303,0
297,341,307,291,0
296,326,307,281,0
293,297,308,276,0
290,270,309,278,0
288,258,309,285,0
289,256,310,294,0
293,266,311,303,0
299,282,312,308,0
304,295,311,310,0
309,301,308,309,0
314,303,305,307,0
318,304,304,304,0
319,303,302,300,0
318,302,301,297,0
316,302,300,296,0
313,304,301,297,0
310,308,302,297,0
308,310,303,298,0
305,312,304,299,0
303,315,305,302,0
301,317,306,307,0
300,319,308,311,0
300,321,310,315,0
301,322,311,320,0
302,324,311,326,0
304,325,312,333,0
305,326,312,340,0
306,325,313,347,0
306,324,312,352,0
306,321,311,352,0
306,317,310,346,0
305,314,309,335,0
304,310,307,321,0
303,307,305,306,0
303,305,304,294,0
302,302,304,285,0
301,299,304,279,0
299,295,303,275,0
298,291,303,273,0
296,286,303,272,0
294,280,303,271,0
290,277,303,272,0
286,277,303,273,0
283,281,303,275,0
281,287,303,279,0
282,296,303,283,0
287,302,302,285,0
293,308,302,288,0
297,316,302,291,0
298,321,303,292,0
300,320,305,293,0
302,315,308,294,0
304,305,309,296,0
309,296,309,300,0
313,296,310,305,0
317,303,310,310,0
317,313,309,312,0
316,320,307,313,0
314,324,306,312,0
310,324,306,313,0
305,322,307,316,0
302,317,309,320,0
300,313,310,325,0
300,311,311,330,0
300,310,312,333,0
300,309,312,335,0
300,308,312,335,0
300,307,312,330,0
300,306,310,325,0
301,304,308,319,0
304,302,307,314,0
308,301,306,310,0
310,302,307,307,0
313,304,308,306,0
314,307,310,307,0
314,309,312,308,0
313,311,314,309,0
310,312,315,310,0
308,312,313,313,0
306,312,311,317,0
306,312,308,321,0
305,312,306,323,0
304,312,305,325,0
303,312,304,324,0
304,311,304,322,0
303,306,304,318,0
302,295,303,311,0
298,282,302,303,0
292,270,301,295,0
287,263,301,289,0
287,263,301,287,0
294,274,300,284,0
300,288,300,281,0
306,305,300,277,0
311,319,302,276,0
312,315,304,277,0
311,293,306,282,0
311,273,309,291,0
312,267,311,303,0
314,274,313,314,0
317,288,314,323,0
319,303,315,329,0
317,315,315,331,0
313,321,316,331,0
310,324,315,328,0
307,323,314,324,0
302,323,313,323,0
300,323,313,322,0
301,321,313,323,0
305,318,311,324,0
308,316,310,325,0
310,313,309,327,0
311,311,309,329,0
312,309,309,330,0
313,309,309,330,0
312,309,309,326,0
311,311,309,320,0
308,312,308,312,0
306,315,307,302,0
304,317,306,293,0
303,320,305,285,0
302,323,305,279,0
301,324,304,276,0
300,322,303,276,0
300,315,302,277,0
300,302,299,279,0
300,289,297,281,0
300,281,295,284,0
302,274,294,289,0
304,269,295,293,0
308,267,296,296,0
310,270,299,299,0
311,274,301,302,0
310,276,303,305,0
308,281,305,308,0
305,290,306,312,0
301,300,307,315,0
297,309,308,317,0
293,313,308,319,0
291,314,308,321,0
290,310,309,322,0
290,304,309,322,0
293,299,309,320,0
295,295,309,318,0
296,295,309,318,0
298,302,310,320,0
300,311,312,324,0
303,317,312,326,0
304,317,311,325,0
305,316,309,325,0
305,315,307,327,0
305,311,306,331,0
306,306,305,334,0
309,303,305,337,0
313,303,305,337,0
315,305,304,333,0
316,306,304,327,0
317,309,305,319,0
317,313,306,312,0
315,317,308,306,0
310,321,308,301,0
305,325,308,299,0
303,329,306,297,0
301,333,305,294,0
300,338,303,291,0
301,342,303,287,0
302,341,302,282,0
302,334,302,278,0
303,321,303,276,0
305,309,303,275,0
307,303,305,275,0
309,303,306,276,0
310,305,306,279,0
311,310,306,284,0
308,313,307,293,0
303,313,309,304,0
300,308,313,316,0
300,302,316,326,0
300,296,319,335,0
301,290,320,340,0
301,284,319,342,0
301,280,317,338,0
299,277,314,329,0
297,275,310,317,0
295,277,306,304,0
295,285,303,294,0
297,292,301,286,0
300,299,299,279,0
302,304,298,276,0
304,302,298,275,0
306,296,299,276,0
307,292,300,280,0
307,292,302,285,0
307,295,303,291,0
307,299,306,296,0
308,301,309,301,0
308,301,310,304,0
307,299,311,305,0
306,296,312,305,0
305,291,312,304,0
303,286,312,304,0
303,284,312,305,0
304,285,313,307,0
306,286,313,309,0
307,289,313,310,0
307,293,312,312,0
306,298,310,312,0
305,301,307,310,0
301,300,304,307,0
296,294,300,304,0
292,291,300,305,0
291,293,302,309,0
296,302,308,315,0
304,313,314,321,0
312,319,318,325,0
315,322,320,328,0
314,322,321,331,0
311,323,321,334,0
309,323,321,336,0
310,324,321,337,0
313,327,320,335,0
315,329,320,330,0
315,330,318,324,0
314,327,317,319,0
312,321,315,315,0
311,314,314,313,0
309,311,314,313,0
308,310,314,316,0
306,312,314,322,0
305,314,315,330,0
304,314,316,336,0
304,314,317,340,0
305,315,319,341,0
306,313,321,340,0
305,309,322,333,0
302,305,320,322,0
296,303,318,310,0
291,306,316,299,0
286,313,314,291,0
286,319,314,288,0
288,324,314,288,0
293,326,313,288,0
297,324,312,288,0
301,320,310,286,0
303,313,308,284,0
305,307,307,282,0
306,301,306,282,0
307,298,306,284,0
306,293,305,288,0
306,289,305,293,0
306,286,306,299,0
306,282,307,304,0
309,276,309,309,0
313,269,311,311,0
316,264,314,311,0
321,262,317,309,0
323,263,320,306,0
319,268,322,304,0
308,276,322,301,0
298,284,321,298,0
291,292,320,297,0
289,304,318,299,0
290,315,314,302,0
294,321,310,305,0
297,322,306,308,0
299,321,304,310,0
301,318,303,311,0
303,313,302,311,0
304,310,302,310,0
307,308,302,310,0
311,306,304,308,0
314,306,305,306,0
315,307,305,305,0
314,311,306,304,0
313,314,306,303,0
311,320,307,305,0
309,326,307,307,0
308,332,307,312,0
307,337,307,315,0
305,338,305,316,0
303,332,303,314,0
301,321,301,310,0
299,307,300,306,0
295,293,300,302,0
292,283,300,299,0
292,284,300,298,0
295,294,300,296,0
301,308,299,295,0
307,319,299,295,0
310,324,298,296,0
310,327,298,300,0
309,328,298,304,0
311,330,301,309,0
315,330,304,315,0
319,327,306,320,0
320,322,308,325,0
321,316,309,329,0
319,313,308,330,0
315,310,308,330,0
310,307,307,327,0
306,304,306,321,0
302,302,305,313,0
300,299,305,304,0
298,297,304,296,0
296,295,304,291,0
292,293,304,292,0
286,291,303,296,0
280,292,302,300,0
278,298,301,302,0
280,306,301,302,0
285,310,302,302,0
293,311,303,300,0
303,309,303,297,0
312,305,303,295,0
316,301,304,292,0
317,294,305,291,0
316,287,305,291,0
313,281,307,292,0
311,277,308,295,0
308,279,310,299,0
307,288,311,302,0
306,301,312,304,0
305,315,313,304,0
304,325,311,302,0
304,329,308,297,0
304,325,306,293,0
303,316,304,289,0
303,305,302,288,0
303,296,299,288,0
304,293,297,290,0
306,295,295,294,0
308,299,296,299,0
309,299,298,306,0
309,299,300,312,0
311,307,303,318,0
316,316,306,323,0
320,321,309,326,0
316,326,311,328,0
309,329,312,327,0
304,328,312,326,0
303,322,312,324,0
305,316,311,322,0
307,313,311,323,0
310,311,310,324,0
311,309,311,326,0
312,305,311,328,0
312,302,311,331,0
313,303,309,331,0
313,305,307,330,0
314,308,303,325,0
314,307,300,321,0
311,302,299,318,0
307,291,298,316,0
304,278,298,314,0
302,269,298,311,0
300,269,298,307,0
298,276,298,303,0
296,284,299,298,0
295,295,299,291,0
294,307,299,285,0
294,317,299,281,0
295,322,298,279,0
297,325,298,278,0
302,328,298,279,0
311,331,300,280,0
318,331,301,281,0
320,324,302,282,0
316,314,303,282,0
311,303,304,285,0
306,293,305,289,0
302,286,306,294,0
300,280,307,300,0
298,276,308,306,0
297,277,308,311,0
297,284,309,315,0
297,291,309,316,0
297,292,308,314,0
297,289,308,311,0
298,289,307,306,0
302,297,307,302,0
307,309,307,300,0
310,318,308,299,0
310,324,309,298,0
309,328,310,298,0
307,329,311,299,0
304,330,311,298,0
301,330,310,297,0
297,328,310,295,0
293,322,309,294,0
292,315,310,294,0
294,307,311,293,0
297,299,311,293,0
301,294,310,292,0
305,298,310,292,0
309,302,310,291,0
311,303,309,291,0
311,302,308,296,0
310,301,308,302,0
308,300,309,308,0
307,298,310,313,0
309,298,312,316,0
311,299,313,317,0
312,298,313,315,0
312,291,312,311,0
313,290,310,308,0
314,296,309,305,0
315,303,308,303,0
315,309,308,301,0
317,312,308,301,0
318,313,308,301,0
316,313,308,303,0
313,313,309,304,0
310,311,310,306,0
308,310,312,310,0
308,311,314,315,0
307,312,316,319,0
308,314,317,323,0
308,318,316,324,0
308,323,314,325,0
309,328,312,324,0
309,331,310,322,0
310,328,309,320,0
312,320,308,318,0
311,309,307,313,0
304,300,305,307,0
296,293,304,302,0
289,285,301,299,0
288,281,300,298,0
292,280,300,298,0
298,282,301,297,0
302,286,302,295,0
300,289,302,293,0
296,294,301,292,0
296,301,301,293,0
300,312,302,294,0
305,322,303,292,0
310,330,304,288,0
313,333,304,283,0
315,333,304,277,0
315,332,302,273,0
314,331,302,271,0
312,331,301,270,0
309,333,302,270,0
308,335,302,272,0
308,333,302,274,0
308,326,302,278,0
308,318,303,281,0
308,314,303,283,0
309,313,302,286,0
309,318,302,288,0
309,327,301,291,0
309,337,301,292,0
308,342,301,292,0
304,339,301,293,0
301,332,303,294,0
300,325,306,298,0
302,313,311,303,0
304,297,315,306,0
306,285,317,308,0
309,276,318,310,0
313,270,318,309,0
316,270,316,307,0
317,276,314,305,0
318,283,312,304,0
317,288,310,304,0
314,291,309,307,0
310,292,308,312,0
307,289,306,315,0
305,282,305,315,0
304,276,303,314,0
303,274,301,312,0
304,276,301,310,0
304,281,302,307,0
305,288,304,306,0
307,296,306,305,0
307,303,308,304,0
306,307,310,304,0
304,310,311,305,0
303,312,311,308,0
302,313,310,311,0
303,314,308,314,0
308,311,307,316,0
312,305,306,318,0
312,295,306,319,0
308,282,305,318,0
300,269,305,317,0
294,266,305,315,0
295,278,306,314,0
300,297,305,312,0
307,312,303,312,0
313,317,302,312,0
317,318,302,313,0
318,318,303,313,0
314,321,304,311,0
308,326,305,306,0
301,331,305,299,0
297,332,305,293,0
296,332,304,289,0
298,328,304,288,0
299,324,304,287,0
301,317,303,288,0
300,311,304,289,0
300,307,304,291,0
299,306,305,294,0
299,311,305,297,0
302,322,306,301,0
306,332,307,304,0
311,337,307,307,0
313,340,307,308,0
313,344,307,308,0
313,349,306,309,0
313,352,307,310,0
314,349,308,311,0
315,338,309,311,0
316,320,310,308,0
317,296,311,305,0
317,274,311,304,0
316,263,312,304,0
316,262,312,305,0
315,271,313,305,0
313,286,311,303,0
307,302,310,301,0
300,316,310,299,0
295,329,311,299,0
293,335,311,299,0
294,333,311,301,0
295,325,310,302,0
296,317,308,304,0
296,311,307,303,0
297,306,305,301,0
299,303,305,298,0
302,301,305,298,0
306,301,307,299,0
310,302,308,300,0
312,302,309,301,0
312,302,310,302,0
312,302,309,303,0
312,302,309,301,0
310,299,308,298,0
308,295,306,295,0
305,287,304,292,0
300,278,304,288,0
296,269,303,286,0
294,263,304,287,0
296,263,306,291,0
302,274,309,298,0
309,291,312,305,0
313,307,313,311,0
315,320,313,316,0
314,328,311,319,0
314,332,309,322,0
314,333,308,326,0
315,333,307,329,0
315,333,308,334,0
315,332,309,340,0
314,332,310,343,0
310,331,312,342,0
307,330,313,337,0
307,328,313,329,0
307,325,313,319,0
305,320,312,308,0
299,315,311,297,0
292,312,308,287,0
287,309,305,282,0
287,308,303,281,0
297,308,301,283,0
309,304,300,286,0
313,297,299,289,0
309,290,299,292,0
304,287,301,296,0
302,292,302,302,0
305,303,304,309,0
308,313,306,316,0
312,320,307,323,0
315,324,308,328,0
316,325,309,331,0
316,324,309,330,0
314,318,308,326,0
310,307,307,319,0
305,296,305,312,0
302,290,304,308,0
299,290,303,308,0
297,296,304,311,0
297,302,306,313,0
297,308,307,313,0
301,313,308,310,0
305,315,308,307,0
309,313,307,304,0
312,310,307,303,0
316,309,306,303,0
322,308,305,303,0
323,306,303,302,0
319,302,302,301,0
312,297,300,300,0
305,292,300,299,0
301,293,301,301,0
301,302,303,306,0
304,313,307,312,0
309,319,309,316,0
311,318,312,317,0
312,313,313,316,0
313,307,312,314,0
312,302,310,312,0
306,300,309,310,0
300,305,308,308,0
295,313,307,307,0
293,320,308,306,0
293,324,307,304,0
295,325,308,301,0
298,320,308,300,0
302,312,309,299,0
305,304,310,302,0
307,297,311,307,0
307,291,311,313,0
306,289,312,317,0
303,291,311,319,0
301,294,310,318,0
299,298,307,317,0
298,306,306,316,0
298,320,306,317,0
299,330,307,318,0
301,332,308,318,0
302,330,309,316,0
303,328,309,312,0
305,325,309,306,0
306,320,309,302,0
307,319,308,297,0
307,319,307,293,0
306,313,305,292,0
305,302,303,295,0
303,291,302,299,0
301,285,301,302,0
300,286,303,306,0
303,291,306,310,0
308,299,309,311,0
311,307,312,310,0
309,312,315,308,0
305,311,316,306,0
303,306,317,306,0
305,299,318,307,0
308,293,318,307,0
310,290,317,308,0
310,297,315,309,0
312,311,314,312,0
313,323,313,312,0
308,331,311,312,0
305,336,311,312,0
304,338,310,312,0
303,335,310,311,0
302,334,309,308,0
301,335,309,303,0
299,336,308,296,0
297,337,308,291,0
296,338,310,288,0
296,338,313,288,0
297,335,316,291,0
300,331,319,294,0
303,327,321,297,0
304,322,320,298,0
305,314,317,299,0
304,305,314,300,0
302,295,312,302,0
301,288,311,305,0
300,284,311,310,0
301,282,312,318,0
300,285,314,324,0
299,291,315,328,0
298,296,314,330,0
297,299,312,330,0
298,298,310,329,0
299,297,308,327,0
302,295,307,324,0
307,299,308,320,0
311,304,309,316,0
315,308,311,311,0
316,309,313,306,0
315,310,316,301,0
313,310,317,297,0
311,310,316,295,0
309,310,315,294,0
307,310,314,293,0
304,313,312,293,0
302,317,309,294,0
297,320,306,294,0
294,319,302,294,0
292,313,300,295,0
294,303,299,295,0
297,290,298,295,0
301,277,297,295,0
303,266,296,295,0
304,262,295,296,0
303,266,294,299,0
301,277,294,303,0
298,291,296,305,0
297,304,299,306,0
299,314,303,307,0
303,323,306,308,0
307,332,309,310,0
312,340,311,309,0
315,345,311,306,0
317,346,310,302,0
317,346,309,298,0
316,343,307,296,0
316,338,306,296,0
315,331,305,297,0
313,324,304,297,0
311,316,303,296,0
308,305,302,296,0
305,297,301,296,0
303,292,301,299,0
304,288,303,303,0
306,285,304,307,0
310,287,305,311,0
315,291,305,313,0
319,294,305,317,0
321,297,305,325,0
324,300,306,334,0
327,303,307,342,0
328,309,308,345,0
326,318,307,343,0
319,331,308,337,0
313,347,309,328,0
307,360,308,318,0
301,364,307,308,0
296,357,305,300,0
293,341,304,294,0
292,323,302,292,0
292,305,302,293,0
291,288,303,296,0
290,275,304,300,0
289,265,306,305,0
290,259,308,310,0
293,257,311,315,0
298,260,314,320,0
303,268,315,323,0
306,280,316,324,0
309,293,315,322,0
310,304,311,318,0
309,311,307,312,0
307,313,303,305,0
304,313,301,298,0
302,310,300,292,0
298,306,299,288,0
294,301,300,286,0
290,295,300,285,0
286,290,301,284,0
285,290,302,284,0
289,289,304,285,0
295,284,306,287,0
298,274,307,290,0
300,262,308,293,0
300,255,309,296,0
300,255,310,300,0
302,261,311,305,0
306,276,313,312,0
309,291,314,318,0
310,301,315,324,0
310,305,314,329,0
309,312,313,333,0
309,321,312,338,0
310,330,312,342,0
310,335,312,346,0
309,334,313,346,0
308,330,311,343,0
305,323,309,337,0
303,318,307,330,0
301,314,305,323,0
300,311,303,314,0
299,310,302,304,0
297,310,301,295,0
294,311,301,290,0
291,313,301,287,0
291,315,303,286,0
296,315,306,287,0
305,315,308,289,0
311,310,309,291,0
315,302,309,294,0
317,299,308,297,0
315,303,308,300,0
311,308,307,303,0
305,313,307,302,0
301,315,306,299,0
297,316,305,294,0
294,313,304,290,0
293,307,303,287,0
296,296,302,286,0
299,287,301,286,0
300,286,300,287,0
298,289,299,287,0
295,293,298,287,0
293,298,298,288,0
293,301,299,289,0
294,297,300,292,0
297,290,303,296,0
301,286,305,302,0
306,287,309,311,0
310,291,313,321,0
314,296,314,330,0
317,301,314,335,0
315,303,313,335,0
308,301,313,331,0
302,298,312,325,0
298,296,312,320,0
296,294,313,315,0
294,293,312,309,0
294,295,311,305,0
294,300,311,303,0
295,308,311,302,0
298,312,311,302,0
302,313,310,303,0
305,310,310,303,0
308,306,309,302,0
309,301,308,300,0
311,296,306,298,0
310,289,303,296,0
309,280,300,294,0
307,276,299,291,0
307,282,298,289,0
307,294,298,289,0
307,305,298,289,0
306,312,299,290,0
302,314,299,291,0
296,314,299,292,0
289,315,299,294,0
286,316,300,296,0
287,314,302,298,0
293,311,305,301,0
300,306,307,303,0
305,299,308,306,0
308,293,310,309,0
309,285,312,315,0
309,279,313,321,0
309,278,313,327,0
310,282,313,332,0
312,293,314,337,0
314,306,315,342,0
316,317,316,344,0
317,324,315,343,0
316,326,314,339,0
314,325,313,333,0
313,320,311,326,0
311,312,309,317,0
308,305,307,309,0
306,300,305,302,0
304,296,303,296,0
303,295,302,291,0
302,294,301,288,0
301,293,300,286,0
302,294,301,285,0
305,297,301,285,0
307,302,303,287,0
307,303,306,291,0
305,299,309,295,0
302,295,311,299,0
299,295,312,304,0
299,300,312,308,0
302,306,313,312,0
305,311,313,315,0
307,312,313,316,0
310,311,313,317,0
313,309,313,318,0
314,305,312,319,0
313,301,310,320,0
310,296,307,320,0
307,291,304,318,0
304,286,301,316,0
303,280,299,314,0
303,275,299,314,0
304,273,299,314,0
305,274,300,314,0
305,278,300,313,0
304,283,301,311,0
303,285,301,306,0
303,284,302,301,0
304,285,301,299,0
304,287,301,299,0
302,292,301,302,0
299,297,301,305,0
298,303,301,306,0
299,310,301,306,0
302,319,302,305,0
306,327,302,303,0
310,331,302,298,0
314,332,303,295,0
320,333,306,293,0
323,329,307,295,0
319,321,309,297,0
313,311,309,299,0
308,301,308,300,0
305,291,306,300,0
304,283,305,300,0
305,277,304,301,0
306,274,305,304,0
308,277,306,308,0
310,283,308,313,0
311,289,308,315,0
308,293,305,313,0
304,295,301,306,0
298,294,297,299,0
296,291,294,294,0
298,290,292,292,0
304,295,292,292,0
310,303,292,292,0
314,311,292,292,0
314,317,293,292,0
310,319,293,293,0
307,318,294,295,0
305,317,295,297,0
304,316,295,300,0
305,317,296,303,0
307,317,297,305,0
309,317,299,309,0
311,318,300,313,0
312,318,302,316,0
313,318,302,318,0
313,319,303,321,0
312,320,303,323,0
311,322,304,323,0
309,320,304,321,0
307,315,304,318,0
304,309,303,316,0
302,304,303,315,0
298,300,302,315,0
294,297,302,317,0
291,303,303,320,0
293,315,305,325,0
298,322,306,328,0
303,320,306,327,0
308,310,305,323,0
311,300,304,317,0
313,292,304,310,0
314,289,303,304,0
313,292,302,299,0
312,298,301,297,0
309,302,301,297,0
306,302,300,299,0
303,296,301,301,0
299,289,302,303,0
296,284,304,303,0
295,286,305,300,0
298,291,306,296,0
301,292,304,292,0
302,288,302,289,0
301,280,300,286,0
300,270,298,285,0
299,263,297,286,0
298,262,297,288,0
297,269,297,291,0
296,282,297,295,0
294,294,298,300,0
295,302,299,309,0
296,307,301,321,0
299,311,303,334,0
301,313,305,344,0
304,315,307,350,0
310,319,310,351,0
318,322,312,348,0
326,325,312,340,0
331,327,310,330,0
329,328,307,320,0
322,329,304,311,0
314,328,302,303,0
310,327,300,295,0
309,324,298,289,0
307,319,297,283,0
306,315,297,280,0
304,312,297,278,0
302,306,297,277,0
300,300,296,277,0
298,294,296,278,0
296,285,295,280,0
294,277,295,283,0
294,277,296,289,0
295,285,299,298,0
299,295,303,308,0
304,305,305,318,0
309,314,307,325,0
312,320,308,329,0
312,323,309,332,0
312,325,309,331,0
313,327,309,329,0
313,327,310,324,0
312,326,309,318,0
309,323,310,312,0
306,320,310,305,0
304,315,312,300,0
303,308,313,295,0
302,300,314,291,0
302,292,314,287,0
301,284,313,285,0
302,279,311,286,0
302,277,308,289,0
302,277,305,292,0
301,277,302,294,0
300,278,301,294,0
300,282,301,293,0
300,289,302,293,0
300,300,303,294,0
299,311,303,297,0
297,320,304,301,0
300,327,305,303,0
305,327,307,303,0
310,321,307,301,0
311,310,307,300,0
309,297,308,298,0
305,283,309,298,0
302,273,309,299,0
301,274,310,303,0
304,285,311,310,0
308,299,312,320,0
312,310,313,327,0
314,317,312,332,0
314,320,311,332,0
314,322,310,327,0
313,319,309,319,0
311,313,308,310,0
310,311,308,304,0
310,312,309,301,0
309,313,310,300,0
308,313,311,300,0
306,316,311,302,0
306,320,311,305,0
307,325,311,308,0
309,328,311,310,0
309,327,311,311,0
308,322,311,311,0
305,313,311,309,0
303,307,310,309,0
302,305,310,311,0
302,303,309,314,0
301,299,308,314,0
301,297,306,312,0
303,298,305,309,0
309,298,307,306,0
317,298,310,303,0
326,297,313,303,0
328,294,316,302,0
321,289,320,301,0
311,284,322,298,0
303,279,324,295,0
298,277,323,292,0
295,281,320,291,0
293,291,315,292,0
292,302,312,295,0
291,306,311,300,0
291,305,311,304,0
292,304,310,306,0
292,308,308,306,0
293,310,307,305,0
294,309,307,303,0
296,305,307,304,0
302,302,308,307,0
309,301,309,312,0
316,301,310,318,0
320,305,310,322,0
320,309,310,324,0
317,312,310,325,0
313,312,312,325,0
308,311,313,325,0
304,309,315,324,0
302,309,318,321,0
303,310,320,317,0
305,314,320,310,0
306,318,319,303,0
304,320,317,296,0
300,317,315,290,0
296,314,314,287,0
297,313,315,287,0
299,313,316,288,0
303,309,317,291,0
306,304,318,294,0
308,296,318,297,0
309,289,318,300,0
309,283,319,303,0
310,277,320,306,0
310,272,321,307,0
311,273,323,308,0
311,277,323,310,0
310,281,323,311,0
309,281,322,314,0
307,279,322,318,0
305,278,322,323,0
304,279,322,328,0
304,283,321,332,0
305,289,321,333,0
305,295,320,330,0
304,299,318,324,0
303,300,315,317,0
301,300,313,309,0
301,303,310,303,0
302,311,308,299,0
304,321,307,298,0
309,327,308,300,0
314,324,310,303,0
317,316,312,307,0
317,308,313,310,0
316,301,314,313,0
315,292,313,314,0
312,285,313,313,0
308,280,312,312,0
303,276,312,310,0
299,273,311,309,0
295,273,310,308,0
292,278,310,310,0
292,288,311,315,0
295,300,312,321,0
298,309,312,322,0
301,313,310,318,0
303,311,308,310,0
306,302,307,301,0
309,290,307,293,0
313,278,308,287,0
319,274,310,284,0
323,278,313,285,0
326,287,315,288,0
326,299,316,292,0
319,309,314,296,0
309,317,312,301,0
302,327,311,308,0
299,335,310,314,0
299,340,310,320,0
301,339,309,323,0
303,333,308,324,0
304,324,306,322,0
305,314,305,318,0
305,305,304,311,0
304,298,304,304,0
301,291,303,299,0
298,285,303,298,0
296,281,303,299,0
296,280,303,300,0
297,283,302,301,0
298,288,302,303,0
300,293,302,305,0
302,297,304,305,0
303,300,305,305,0
305,300,306,305,0
306,300,308,306,0
308,301,308,306,0
310,306,307,305,0
312,310,306,305,0
313,310,305,304,0
313,308,303,300,0
312,304,301,297,0
310,301,299,296,0
308,299,298,296,0
305,298,298,297,0
303,297,297,299,0
302,297,297,302,0
302,298,298,305,0
303,299,299,308,0
302,297,299,310,0
301,294,300,310,0
299,292,302,311,0
298,290,303,313,0
297,289,304,315,0
298,289,305,318,0
302,292,305,322,0
307,295,305,327,0
311,297,304,332,0
312,298,302,335,0
309,299,300,334,0
303,297,299,329,0
297,291,298,322,0
296,280,298,316,0
297,273,298,310,0
302,276,298,305,0
307,284,299,301,0
310,293,298,299,0
312,304,299,297,0
312,316,300,297,0
311,326,300,299,0
309,333,301,302,0
304,337,301,304,0
299,336,300,304,0
295,329,299,302,0
293,316,299,298,0
293,300,300,294,0
295,288,300,292,0
300,283,301,294,0
305,283,303,297,0
311,285,305,300,0
315,290,307,302,0
316,298,309,302,0
313,307,309,302,0
309,315,307,302,0
305,320,304,301,0
302,323,300,299,0
300,324,297,296,0
300,322,294,293,0
301,316,292,291,0
304,309,292,292,0
309,307,292,295,0
315,306,295,301,0
318,305,298,308,0
313,303,301,317,0
305,302,304,323,0
297,303,306,326,0
292,304,307,325,0
290,307,306,319,0
292,308,304,311,0
295,307,302,303,0
297,304,300,296,0
297,300,298,292,0
296,294,296,289,0
295,288,295,289,0
293,287,294,290,0
293,289,294,292,0
296,294,295,296,0
303,297,296,299,0
310,299,297,302,0
315,300,298,303,0
316,301,298,304,0
317,300,298,304,0
316,297,298,304,0
314,294,297,303,0
311,293,296,303,0
308,298,295,304,0
306,305,293,306,0
304,312,292,307,0
304,318,290,308,0
305,322,289,310,0
308,325,288,311,0
310,327,288,313,0
309,328,289,315,0
307,325,292,317,0
305,319,294,319,0
304,311,294,320,0
302,299,295,321,0
301,287,296,325,0
300,285,297,330,0
301,293,297,334,0
302,311,297,337,0
304,330,296,337,0
304,340,295,333,0
303,339,293,326,0
301,335,291,318,0
301,331,290,314,0
303,325,289,315,0
304,319,289,318,0
308,315,289,321,0
310,314,289,323,0
310,313,288,322,0
307,310,288,319,0
301,308,287,312,0
295,309,287,303,0
293,308,287,293,0
293,304,287,285,0
296,300,286,279,0
300,297,286,276,0
305,295,286,274,0
308,294,285,274,0
308,288,285,275,0
306,283,285,279,0
303,280,285,283,0
301,283,286,288,0
301,291,288,294,0
303,300,289,299,0
305,309,289,300,0
307,315,290,301,0
310,317,290,301,0
313,313,291,299,0
314,307,291,298,0
316,301,291,296,0
316,298,291,295,0
315,297,291,294,0
314,297,290,292,0
312,295,290,290,0
310,293,288,290,0
307,290,286,290,0
303,284,285,291,0
298,272,284,294,0
298,266,286,299,0
305,268,288,308,0
316,275,291,317,0
325,282,292,325,0
333,288,291,331,0
336,295,289,335,0
329,305,286,336,0
320,317,285,335,0
312,329,283,330,0
307,336,282,323,0
303,339,280,316,0
300,337,280,310,0
296,335,279,308,0
294,332,279,308,0
295,328,277,309,0
298,325,275,310,0
301,324,274,311,0
304,327,274,314,0
308,332,275,317,0
310,337,276,320,0
312,341,278,322,0
313,341,280,324,0
312,335,281,324,0
312,325,282,323,0
311,315,283,323,0
309,307,283,323,0
307,304,282,321,0
306,304,281,317,0
306,306,279,310,0
306,309,277,303,0
306,311,276,298,0
307,309,274,298,0
307,305,273,300,0
307,301,271,303,0
307,297,270,305,0
308,296,269,304,0
308,297,268,302,0
308,294,268,300,0
307,287,269,299,0
306,280,271,299,0
305,276,273,298,0
304,276,275,298,0
304,280,278,298,0
305,290,280,298,0
307,301,282,298,0
308,310,283,297,0
309,316,283,295,0
310,318,283,292,0
310,316,282,289,0
310,312,281,286,0
309,308,280,284,0
308,304,279,283,0
307,301,278,282,0
307,299,277,283,0
307,297,278,285,0
309,296,279,285,0
311,295,279,285,0
311,294,280,287,0
311,293,282,289,0
311,293,285,292,0
311,294,286,295,0
310,294,286,297,0
308,294,286,298,0
305,292,286,299,0
303,287,286,300,0
300,286,286,302,0
299,293,287,303,0
300,303,288,307,0
303,308,290,311,0
306,311,292,317,0
309,314,294,324,0
311,317,295,330,0
311,321,295,333,0
310,323,295,334,0
309,325,293,334,0
307,327,292,334,0
304,328,290,336,0
299,325,289,337,0
295,320,289,338,0
292,317,290,335,0
294,320,291,330,0
299,325,293,322,0
306,328,294,315,0
314,325,294,310,0
324,321,294,307,0
334,317,294,304,0
343,313,294,302,0
347,308,294,300,0
342,303,295,298,0
329,299,297,298,0
316,298,299,300,0
307,300,301,306,0
299,304,303,311,0
294,309,303,315,0
291,311,301,317,0
290,307,298,317,0
291,298,296,316,0
294,288,295,314,0
299,279,295,310,0
303,275,294,305,0
306,275,293,299,0
307,280,293,296,0
307,286,293,296,0
305,292,294,300,0
304,296,296,304,0
304,301,298,305,0
306,310,299,304,0
308,318,299,299,0
307,322,298,293,0
304,321,297,287,0
302,319,297,280,0
303,315,298,276,0
307,310,301,274,0
311,305,302,272,0
312,303,303,273,0
310,305,304,275,0
306,308,304,279,0
303,310,304,284,0
303,309,306,290,0
306,306,309,296,0
312,304,312,302,0
319,306,315,306,0
326,310,318,311,0
329,316,322,317,0
329,322,326,321,0
329,328,328,323,0
326,333,327,323,0
319,333,322,320,0
311,330,317,316,0
304,324,311,311,0
300,318,306,304,0
297,312,302,299,0
296,309,299,296,0
295,308,296,293,0
294,308,293,292,0
293,309,289,291,0
291,308,288,294,0
291,307,288,299,0
295,307,291,305,0
302,307,295,310,0
313,307,299,314,0
323,307,303,317,0
328,306,306,318,0
323,306,310,318,0
312,305,314,318,0
299,303,319,317,0
291,299,326,318,0
291,299,333,319,0
299,303,339,319,0
309,307,343,316,0
316,311,345,311,0
320,311,343,305,0
324,309,340,301,0
328,306,336,299,0
333,302,332,297,0
333,297,326,295,0
323,291,318,294,0
310,291,313,294,0
301,292,311,295,0
297,290,311,298,0
296,286,311,302,0
297,283,311,304,0
298,280,309,305,0
300,276,307,306,0
303,274,305,306,0
308,278,305,306,0
313,292,307,307,0
315,310,310,309,0
315,326,314,313,0
314,335,318,319,0
313,338,322,325,0
311,339,323,331,0
309,340,323,336,0
306,342,322,339,0
306,343,322,339,0
307,342,323,336,0
310,343,324,331,0
313,343,324,327,0
312,342,323,323,0
306,339,323,321,0
300,332,323,321,0
297,323,320,318,0
295,313,316,312,0
294,307,310,305,0
295,308,306,304,0
297,310,305,307,0
299,311,304,311,0
300,310,303,313,0
301,306,303,313,0
301,303,304,310,0
301,302,306,306,0
303,300,309,302,0
304,298,311,300,0
305,296,312,298,0
306,295,314,298,0
307,295,314,299,0
308,295,315,301,0
308,296,315,305,0
307,295,315,308,0
306,293,315,312,0
305,290,316,314,0
303,291,316,315,0
304,299,317,316,0
306,304,318,315,0
309,304,318,314,0
310,302,319,312,0
311,301,318,309,0
309,300,319,304,0
307,296,318,298,0
303,294,317,293,0
301,297,317,289,0
299,307,318,290,0
300,317,318,293,0
300,321,319,298,0
301,320,319,304,0
302,318,319,311,0
303,316,320,317,0
304,313,319,320,0
305,309,318,319,0
305,306,317,315,0
306,305,317,312,0
308,307,318,309,0
309,309,319,307,0
309,311,320,303,0
308,312,320,297,0
307,313,320,293,0
305,310,321,291,0
304,304,321,290,0
303,297,321,291,0
303,292,320,292,0
304,290,321,293,0
307,291,321,295,0
310,292,321,298,0
311,294,319,300,0
311,298,319,303,0
308,302,318,305,0
305,305,318,306,0
302,308,317,305,0
302,315,317,303,0
304,322,317,302,0
305,323,318,303,0
305,316,320,304,0
305,306,320,306,0
306,301,322,309,0
308,296,322,314,0
310,293,322,318,0
313,297,322,323,0
315,306,322,326,0
317,314,322,327,0
318,315,321,326,0
318,311,321,325,0
317,306,321,325,0
313,301,321,324,0
306,296,320,322,0
298,294,320,318,0
293,297,319,313,0
294,304,319,307,0
299,308,319,304,0
304,309,317,302,0
308,306,316,302,0
310,301,315,303,0
310,294,314,304,0
308,288,314,306,0
306,287,315,309,0
307,291,318,314,0
312,300,321,319,0
316,309,325,326,0
316,318,327,333,0
314,324,328,336,0
311,325,327,335,0
308,325,324,330,0
305,322,322,321,0
303,319,321,310,0
304,315,320,299,0
306,310,321,288,0
308,303,322,279,0
310,294,322,274,0
309,285,321,273,0
308,278,319,274,0
307,275,318,279,0
309,276,318,285,0
311,278,317,289,0
311,280,316,293,0
306,277,316,296,0
297,271,316,300,0
290,265,318,303,0
288,263,320,306,0
290,269,322,309,0
294,282,323,310,0
298,300,323,310,0
302,319,323,309,0
303,335,324,308,0
303,343,323,305,0
302,345,322,303,0
300,341,320,300,0
299,333,318,296,0
297,322,317,292,0
297,314,316,290,0
300,312,315,291,0
303,312,316,293,0
307,312,318,295,0
310,311,320,298,0
311,311,323,302,0
312,308,324,307,0
313,301,326,310,0
313,293,327,313,0
311,289,327,315,0
309,293,327,317,0
305,303,327,318,0
302,314,328,319,0
298,325,327,317,0
295,334,324,314,0
295,340,322,311,0
296,340,321,311,0
297,334,320,311,0
299,325,319,313,0
301,317,317,317,0
303,309,316,322,0
306,302,315,327,0
308,297,314,330,0
311,291,315,331,0
313,290,316,329,0
315,292,317,324,0
315,294,318,318,0
315,296,319,313,0
313,297,320,309,0
311,299,320,306,0
309,303,320,305,0
308,306,321,307,0
307,305,321,309,0
306,303,321,311,0
305,304,321,316,0
304,306,321,320,0
303,307,321,324,0
303,306,321,327,0
303,306,321,328,0
304,305,320,328,0
306,302,319,328,0
307,297,317,329,0
306,287,316,332,0
302,273,315,336,0
296,257,314,339,0
292,248,314,340,0
293,251,315,338,0
299,267,317,333,0
303,290,319,327,0
304,313,321,318,0
302,332,320,309,0
298,343,317,299,0
296,350,315,291,0
296,352,314,285,0
297,353,312,280,0
299,351,310,276,0
301,347,308,271,0
303,339,307,269,0
305,329,306,268,0
306,317,305,270,0
307,309,305,274,0
309,307,306,283,0
310,309,308,292,0
312,313,310,302,0
314,318,313,311,0
314,325,314,316,0
314,334,314,318,0
313,342,313,317,0
310,344,312,313,0
306,337,309,305,0
302,322,307,298,0
299,303,304,291,0
297,283,302,286,0
296,276,302,282,0
299,284,302,283,0
304,297,303,286,0
310,303,304,290,0
316,303,304,295,0
317,300,305,303,0
312,299,306,310,0
304,302,306,317,0
299,309,307,322,0
299,315,309,327,0
303,317,311,330,0
307,311,312,331,0
307,299,313,330,0
305,283,312,328,0
303,267,311,322,0
301,256,310,315,0
300,257,307,307,0
300,273,304,300,0
301,295,302,296,0
304,314,302,293,0
305,322,302,294,0
306,320,304,296,0
305,312,307,300,0
303,307,310,306,0
301,307,312,312,0
299,314,313,317,0
301,325,312,321,0
304,335,312,323,0
308,341,310,322,0
312,339,308,321,0
314,335,307,320,0
315,330,305,318,0
314,324,305,316,0
313,320,305,312,0
312,319,306,308,0
311,321,308,303,0
310,323,308,299,0
308,326,308,297,0
305,329,307,297,0
303,330,307,300,0
302,329,307,304,0
301,328,308,309,0
302,326,308,314,0
302,324,309,320,0
304,324,310,324,0
305,327,310,329,0
307,328,309,331,0
309,323,309,331,0
310,314,308,329,0
314,301,309,328,0
318,287,311,326,0
322,276,312,323,0
320,278,313,322,0
316,292,313,320,0
311,306,311,318,0
306,316,309,317,0
304,321,308,318,0
302,326,308,317,0
300,331,308,315,0
299,336,307,312,0
299,337,307,307,0
300,336,306,300,0
300,332,305,292,0
299,324,303,285,0
297,310,301,279,0
294,291,300,275,0
292,274,300,275,0
294,269,300,277,0
297,273,300,281,0
301,279,300,284,0
304,288,300,287,0
306,300,300,290,0
309,310,301,296,0
312,314,302,302,0
314,314,303,306,0
315,314,304,309,0
315,313,304,308,0
312,307,305,305,0
309,298,305,302,0
306,285,307,298,0
304,275,308,296,0
304,271,309,295,0
303,276,308,295,0
305,292,309,298,0
308,314,309,304,0
311,330,307,309,0
312,339,304,312,0
311,342,299,315,0
309,341,296,316,0
306,337,295,317,0
305,333,297,318,0
307,330,299,316,0
310,328,301,313,0
313,327,305,309,0
315,326,308,306,0
315,326,310,304,0
313,324,312,303,0
311,321,313,303,0
311,320,314,305,0
313,319,315,308,0
316,319,314,312,0
317,322,314,315,0
312,324,313,317,0
307,325,312,318,0
304,325,311,317,0
303,324,310,316,0
303,321,310,315,0
304,315,309,313,0
306,306,309,312,0
308,297,309,309,0
309,288,310,307,0
307,282,310,304,0
304,279,311,303,0
306,279,311,302,0
309,280,311,301,0
312,281,311,301,0
313,284,310,302,0
312,289,311,306,0
312,297,311,311,0
313,306,312,316,0
313,313,313,322,0
313,318,315,327,0
311,321,316,330,0
309,319,315,330,0
307,313,312,327,0
305,303,309,322,0
304,291,307,316,0
303,282,305,309,0
305,278,304,303,0
308,283,304,300,0
311,294,305,302,0
314,305,306,310,0
316,312,307,320,0
318,315,309,330,0
319,315,311,336,0
319,314,313,337,0
319,312,314,334,0
318,312,313,329,0
315,315,312,323,0
312,322,311,317,0
309,327,309,309,0
307,328,307,301,0
304,322,305,292,0
302,314,304,285,0
299,307,303,281,0
298,302,302,280,0
301,300,303,281,0
305,301,302,283,0
308,302,302,285,0
312,305,302,286,0
315,307,301,286,0
316,310,299,283,0
315,314,298,280,0
313,321,299,278,0
313,324,301,279,0
314,320,302,281,0
315,314,303,283,0
314,307,304,285,0
312,298,305,287,0
308,292,306,288,0
305,289,307,291,0
302,290,308,295,0
302,293,310,298,0
303,296,311,301,0
305,300,312,304,0
306,300,313,308,0
307,296,313,312,0
306,289,311,315,0
306,282,309,318,0
305,282,308,321,0
305,289,307,322,0
306,302,306,322,0
308,313,306,321,0
311,318,306,319,0
313,316,307,317,0
314,310,308,316,0
314,305,309,314,0
313,305,309,311,0
311,305,310,309,0
308,305,310,307,0
306,305,309,305,0
303,304,309,303,0
301,299,309,301,0
299,293,309,302,0
299,292,310,307,0
303,300,310,312,0
307,308,310,317,0
311,313,309,320,0
314,316,308,323,0
316,317,307,321,0
319,316,308,316,0
320,314,309,308,0
321,311,310,300,0
322,303,311,294,0
321,295,312,291,0
318,289,313,292,0
314,288,311,295,0
310,292,310,299,0
308,302,308,306,0
311,315,308,314,0
316,323,309,322,0
316,325,311,328,0
310,325,312,331,0
303,323,312,330,0
297,321,312,326,0
294,320,310,319,0
293,318,308,313,0
293,315,306,307,0
293,312,305,303,0
295,308,304,299,0
298,302,304,297,0
302,293,305,297,0
306,287,306,300,0
310,285,308,305,0
312,286,310,309,0
312,292,311,311,0
308,300,312,312,0
300,309,312,314,0
292,316,313,317,0
287,320,315,320,0
286,322,318,325,0
288,321,320,330,0
291,322,322,334,0
294,325,321,335,0
298,328,318,333,0
302,325,313,330,0
308,319,309,327,0
314,314,307,323,0
318,308,306,318,0
320,297,306,310,0
321,283,307,303,0
321,273,307,298,0
319,271,308,295,0
319,277,308,293,0
318,286,309,291,0
318,296,309,289,0
318,305,309,288,0
319,310,309,288,0
320,308,310,290,0
319,304,311,292,0
314,298,310,295,0
308,293,309,296,0
305,291,306,298,0
303,289,304,298,0
302,285,303,297,0
300,287,302,297,0
298,296,302,299,0
298,308,302,303,0
301,317,303,307,0
309,320,305,312,0
318,319,307,317,0
326,313,308,320,0
328,308,309,323,0
320,310,311,327,0
312,323,313,330,0
307,340,314,332,0
304,357,314,329,0
301,367,313,323,0
300,367,311,315,0
303,356,310,307,0
305,339,310,301,0
308,321,310,297,0
310,303,310,295,0
310,288,309,292,0
309,278,307,291,0
307,272,307,290,0
305,267,306,290,0
306,265,305,289,0
306,265,302,290,0
308,268,300,293,0
311,273,301,297,0
313,278,303,303,0
315,284,306,310,0
314,290,308,318,0
313,296,309,324,0
314,301,311,328,0
319,306,310,328,0
325,310,308,325,0
330,313,305,321,0
332,313,302,318,0
333,312,300,316,0
329,310,299,316,0
321,310,299,316,0
311,310,300,316,0
304,308,299,315,0
300,303,299,313,0
299,297,299,311,0
298,292,299,310,0
299,291,299,312,0
302,296,300,317,0
304,300,302,323,0
304,301,304,327,0
304,298,305,329,0
304,299,306,330,0
305,304,308,330,0
307,311,309,331,0
308,320,310,333,0
310,330,309,335,0
311,339,309,336,0
310,341,308,333,0
305,339,307,327,0
297,342,305,318,0
293,347,304,308,0
296,348,304,299,0
304,344,304,293,0
311,336,303,289,0
314,326,303,286,0
314,318,302,284,0
313,311,303,283,0
313,307,304,283,0
311,305,306,283,0
310,305,308,282,0
307,304,309,283,0
305,298,309,285,0
303,287,309,290,0
302,275,309,295,0
300,267,309,302,0
301,269,311,310,0
303,277,313,317,0
306,289,315,322,0
307,302,317,323,0
308,316,318,322,0
308,327,319,319,0
308,331,318,314,0
308,326,316,306,0
308,311,314,298,0
308,293,311,291,0
308,276,310,285,0
308,267,308,282,0
307,265,307,281,0
307,268,306,283,0
307,276,306,287,0
307,286,306,292,0
306,294,307,295,0
305,299,308,298,0
305,301,310,299,0
308,300,310,299,0
310,299,311,299,0
310,299,311,299,0
309,304,312,298,0
306,307,311,298,0
304,307,310,298,0
302,305,310,298,0
302,302,310,300,0
305,299,312,304,0
309,300,312,308,0
311,303,312,312,0
312,306,312,317,0
311,306,312,321,0
311,304,312,324,0
313,304,313,328,0
317,305,313,330,0
320,308,314,331,0
320,310,315,330,0
317,310,316,326,0
315,308,316,321,0
311,308,317,315,0
309,313,317,310,0
307,321,315,306,0
306,330,313,303,0
305,337,310,302,0
303,339,307,301,0
303,332,305,301,0
303,318,304,301,0
303,306,303,302,0
304,297,304,301,0
307,291,305,300,0
308,288,307,299,0
309,291,308,297,0
309,295,310,297,0
309,298,310,300,0
309,295,310,304,0
309,286,311,309,0
309,276,312,313,0
309,266,313,316,0
310,258,314,317,0
310,255,315,316,0
311,260,315,313,0
312,269,315,310,0
312,277,315,306,0
313,286,315,304,0
312,297,317,303,0
312,309,318,303,0
311,319,319,303,0
311,327,318,304,0
311,334,315,307,0
311,338,311,312,0
309,333,309,317,0
306,320,308,321,0
304,306,309,323,0
302,293,311,325,0
300,281,313,326,0
298,276,315,326,0
299,279,317,326,0
301,287,317,324,0
305,298,317,320,0
309,308,316,314,0
312,314,315,309,0
315,315,313,304,0
316,314,313,300,0
316,312,312,299,0
314,310,312,300,0
313,310,311,301,0
312,309,311,301,0
312,307,310,300,0
311,304,308,297,0
311,302,305,291,0
309,303,301,285,0
309,305,298,280,0
310,307,297,280,0
314,310,299,282,0
316,310,302,284,0
317,306,304,286,0
314,295,306,288,0
312,286,307,291,0
311,282,308,294,0
311,290,308,297,0
313,305,308,301,0
318,319,308,304,0
320,324,309,308,0
315,323,310,309,0
309,320,311,309,0
307,318,312,310,0
308,318,313,313,0
308,319,314,315,0
307,319,313,317,0
306,313,311,319,0
306,301,308,321,0
308,285,307,321,0
311,270,305,320,0
309,256,304,316,0
302,248,302,310,0
295,250,302,303,0
289,262,303,299,0
287,281,305,298,0
292,297,308,298,0
300,308,310,298,0
308,313,310,299,0
312,310,310,300,0
313,302,310,301,0
313,293,310,301,0
311,290,310,302,0
309,295,310,304,0
307,302,309,305,0
306,310,308,307,0
306,319,307,311,0
306,327,306,316,0
307,330,306,321,0
307,328,305,325,0
308,321,306,327,0
309,313,308,327,0
311,307,311,326,0
313,311,314,323,0
314,319,317,321,0
313,329,318,318,0
311,337,317,318,0
307,340,315,319,0
305,336,314,320,0
306,328,314,321,0
308,322,314,321,0
310,319,313,321,0
311,320,311,321,0
312,323,310,319,0
312,326,309,316,0
311,326,308,312,0
310,324,305,306,0
308,321,303,301,0
308,317,300,295,0
308,314,298,290,0
310,311,297,287,0
312,306,296,284,0
313,300,296,280,0
313,292,296,276,0
313,287,297,273,0
312,288,299,271,0
312,294,301,273,0
311,302,303,276,0
310,307,304,280,0
309,309,304,285,0
308,308,304,288,0
307,303,305,293,0
307,297,306,295,0
306,292,307,298,0
305,290,307,300,0
305,292,308,302,0
304,296,308,303,0
303,300,308,302,0
303,302,307,301,0
305,300,306,299,0
306,297,305,297,0
307,292,304,295,0
306,285,302,292,0
305,278,300,290,0
302,274,299,290,0
301,273,300,291,0
300,275,301,292,0
301,284,303,292,0
304,300,304,294,0
305,315,305,298,0
307,323,307,301,0
308,326,309,304,0
308,325,310,305,0
309,324,312,307,0
310,325,312,310,0
310,328,312,313,0
309,329,312,318,0
310,327,312,322,0
313,322,310,324,0
319,316,308,322,0
326,310,305,316,0
326,305,303,308,0
317,301,301,299,0
306,298,301,292,0
298,297,300,288,0
294,297,300,286,0
295,298,301,287,0
299,294,303,289,0
302,288,304,291,0
305,281,307,293,0
306,278,309,295,0
304,278,312,297,0
302,280,313,299,0
299,283,315,300,0
298,289,315,300,0
297,300,314,300,0
297,313,311,301,0
297,322,308,302,0
298,328,305,304,0
300,331,304,309,0
302,333,304,313,0
305,331,305,318,0
308,326,306,322,0
310,321,307,326,0
311,318,308,330,0
311,318,309,335,0
310,320,310,337,0
307,325,310,339,0
304,335,310,342,0
302,347,311,344,0
302,356,313,343,0
303,357,314,340,0
304,349,315,335,0
304,333,316,327,0
303,317,316,316,0
302,304,314,305,0
302,292,313,294,0
303,284,312,285,0
305,282,312,280,0
308,284,311,279,0
310,289,311,283,0
312,294,311,288,0
313,297,311,293,0
313,299,309,297,0
311,299,307,300,0
309,294,306,300,0
306,282,306,300,0
302,265,305,298,0
298,252,305,297,0
294,252,306,299,0
292,266,306,304,0
290,286,307,310,0
287,303,307,315,0
287,317,307,317,0
291,330,306,316,0
299,341,306,311,0
308,347,304,303,0
312,348,302,294,0
312,343,300,286,0
311,336,299,282,0
310,328,299,281,0
309,320,300,282,0
308,313,301,285,0
307,307,303,290,0
308,302,304,296,0
309,298,307,304,0
312,299,309,311,0
315,303,311,317,0
315,307,312,321,0
313,310,311,322,0
308,312,310,320,0
305,314,308,316,0
305,315,307,310,0
307,313,306,303,0
309,306,306,297,0
309,299,306,293,0
309,295,306,290,0
308,296,306,291,0
307,299,308,295,0
309,304,310,300,0
311,308,312,305,0
311,310,312,310,0
310,310,312,316,0
306,311,313,321,0
301,310,314,323,0
296,305,315,324,0
294,297,313,323,0
292,288,311,321,0
290,281,309,318,0
287,278,308,314,0
284,283,305,309,0
281,290,304,304,0
278,295,302,300,0
277,296,302,297,0
281,294,302,298,0
288,292,303,299,0
295,288,303,301,0
302,283,303,303,0
307,280,302,307,0
311,286,302,311,0
312,297,303,318,0
311,308,305,324,0
310,316,308,329,0
308,324,310,333,0
307,332,311,334,0
307,337,311,333,0
307,341,311,332,0
307,340,310,330,0
307,336,309,328,0
306,327,307,323,0
302,314,305,315,0
295,302,303,307,0
290,296,301,300,0
292,301,301,296,0
299,309,302,295,0
308,313,303,296,0
313,310,303,296,0
313,303,302,297,0
312,293,301,298,0
308,283,300,300,0
303,275,299,304,0
298,268,298,308,0
295,267,299,312,0
297,279,302,315,0
304,295,305,317,0
313,310,308,317,0
320,320,309,316,0
324,326,310,314,0
324,332,311,311,0
321,338,311,309,0
315,344,312,308,0
310,347,312,307,0
306,347,312,304,0
305,344,311,300,0
306,337,308,295,0
307,329,306,290,0
307,317,305,286,0
308,308,304,283,0
309,304,302,280,0
309,304,303,279,0
308,301,304,280,0
307,296,305,283,0
305,291,307,289,0
304,287,309,295,0
303,285,311,301,0
303,287,312,305,0
304,292,312,307,0
304,300,311,308,0
305,311,309,310,0
303,325,308,314,0
299,337,308,318,0
294,343,308,323,0
293,346,307,327,0
293,350,305,330,0
293,352,303,332,0
294,353,302,334,0
297,349,302,333,0
298,339,301,328,0
297,321,300,320,0
296,295,300,312,0
295,270,301,306,0
294,257,302,304,0
293,258,303,304,0
294,261,303,306,0
296,263,304,308,0
299,266,305,310,0
302,271,305,311,0
302,274,305,312,0
299,274,305,312,0
295,277,305,311,0
294,285,305,309,0
297,295,306,306,0
301,304,306,301,0
305,310,305,297,0
305,313,305,293,0
304,309,304,289,0
301,301,304,287,0
298,296,305,288,0
298,299,308,292,0
302,306,310,299,0
305,312,311,306,0
309,321,312,314,0
313,330,312,321,0
316,336,311,327,0
318,339,309,329,0
318,336,308,327,0
314,328,308,322,0
310,317,308,316,0
306,306,308,310,0
304,301,309,305,0
304,303,309,301,0
305,307,308,298,0
305,312,308,295,0
305,318,307,293,0
303,325,306,292,0
300,330,306,292,0
299,334,306,293,0
300,335,307,295,0
303,333,307,298,0
307,329,306,301,0
308,326,306,304,0
309,323,306,310,0
311,321,307,318,0
314,320,308,323,0
316,320,310,326,0
315,318,310,324,0
312,310,311,319,0
309,297,311,312,0
306,291,311,305,0
305,291,312,299,0
305,294,312,296,0
306,299,313,294,0
307,305,312,292,0
307,307,311,291,0
307,308,311,291,0
307,308,311,293,0
306,307,311,295,0
305,303,311,299,0
303,297,312,301,0
301,291,312,302,0
299,287,311,301,0
298,283,312,300,0
297,284,311,299,0
298,286,310,300,0
301,287,309,301,0
304,288,308,302,0
305,288,307,302,0
305,289,307,304,0
304,296,307,305,0
302,305,306,308,0
300,318,307,312,0
299,330,307,315,0
299,338,307,316,0
301,342,307,314,0
300,343,307,312,0
296,342,307,311,0
294,338,306,310,0
295,332,304,310,0
297,323,302,309,0
300,313,301,307,0
303,305,301,304,0
306,299,301,301,0
308,297,303,298,0
310,301,305,296,0
312,304,308,296,0
313,302,311,296,0
312,299,313,298,0
311,300,314,301,0
309,305,315,304,0
308,312,315,308,0
309,317,313,312,0
310,318,310,317,0
306,316,305,321,0
299,315,302,324,0
292,318,300,326,0
289,326,301,327,0
291,333,302,326,0
293,336,303,322,0
291,336,304,316,0
290,333,304,312,0
288,327,304,310,0
290,319,304,310,0
293,316,305,311,0
299,316,307,312,0
306,311,308,311,0
311,301,309,311,0
313,295,309,310,0
315,296,310,311,0
315,300,310,313,0
315,304,311,315,0
314,309,311,317,0
312,312,310,318,0
309,309,308,320,0
306,305,306,320,0
304,302,305,320,0
303,297,305,317,0
300,291,304,311,0
296,289,303,303,0
292,288,303,296,0
288,292,302,291,0
288,295,301,287,0
291,293,301,285,0
295,286,300,284,0
297,276,300,287,0
299,272,301,295,0
302,277,303,307,0
308,284,306,319,0
311,292,309,329,0
310,301,311,334,0
304,310,312,337,0
298,317,313,336,0
294,323,313,334,0
294,328,314,330,0
296,330,315,324,0
300,331,315,316,0
303,330,314,306,0
306,330,312,298,0
309,331,309,291,0
309,331,304,287,0
310,328,299,285,0
310,321,296,285,0
309,314,294,287,0
308,307,294,290,0
307,303,295,292,0
307,299,295,293,0
306,298,296,291,0
306,305,296,290,0
308,318,297,289,0
310,330,298,290,0
311,336,299,291,0
311,339,300,293,0
311,338,301,295,0
312,333,302,297,0
314,328,303,298,0
318,325,304,299,0
319,320,305,300,0
318,313,305,301,0
317,303,304,302,0
313,295,303,305,0
306,291,302,308,0
301,289,303,312,0
298,288,304,315,0
298,285,305,318,0
299,278,306,321,0
299,271,307,322,0
298,267,308,321,0
297,268,308,319,0
294,270,307,313,0
291,272,305,306,0
291,282,303,301,0
295,296,304,300,0
300,306,306,302,0
305,312,308,304,0
308,316,308,305,0
310,319,308,307,0
311,319,307,308,0
313,317,306,309,0
316,316,306,312,0
316,314,306,314,0
314,313,306,317,0
311,312,307,320,0
309,310,309,325,0
307,307,310,330,0
304,304,310,336,0
301,302,311,342,0
297,299,311,348,0
296,298,312,352,0
298,300,312,353,0
301,302,312,348,0
305,301,310,337,0
308,302,308,325,0
310,304,305,312,0
310,307,304,302,0
309,308,303,296,0
307,306,302,292,0
304,303,302,289,0
300,302,301,287,0
297,303,300,284,0
298,304,300,283,0
302,304,300,283,0
307,303,301,287,0
310,302,302,292,0
310,302,303,301,0
311,306,304,313,0
313,310,307,326,0
316,311,310,336,0
317,311,312,343,0
318,307,314,345,0
318,304,314,341,0
316,305,312,333,0
315,307,309,321,0
313,309,307,309,0
310,312,305,299,0
305,316,306,293,0
300,315,306,287,0
298,307,307,284,0
297,294,305,282,0
299,285,303,282,0
301,286,301,284,0
305,295,299,285,0
310,308,298,287,0
316,319,298,289,0
321,323,299,291,0
321,320,300,291,0
316,313,302,291,0
310,305,303,292,0
303,294,304,293,0
298,285,304,294,0
295,284,305,297,0
295,293,307,300,0
298,304,310,303,0
303,316,313,306,0
308,329,315,310,0
310,337,317,312,0
310,336,319,314,0
308,327,318,313,0
304,317,315,310,0
300,309,311,308,0
298,304,307,306,0
300,302,304,306,0
301,303,302,307,0
301,306,300,310,0
302,306,300,312,0
303,299,301,313,0
306,287,302,311,0
308,276,303,307,0
310,268,304,302,0
311,266,305,298,0
311,275,306,298,0
311,292,307,299,0
310,308,307,302,0
309,320,306,302,0
306,325,305,300,0
303,325,303,297,0
300,325,303,297,0
298,324,303,298,0
298,321,304,300,0
298,316,306,304,0
300,312,307,308,0
303,309,307,312,0
307,308,307,317,0
313,308,307,321,0
318,310,308,325,0
320,311,309,328,0
319,312,310,328,0
317,314,311,328,0
314,317,311,326,0
311,320,311,322,0
307,321,311,317,0
302,315,309,311,0
297,298,307,303,0
294,274,305,296,0
295,253,305,292,0
298,248,306,290,0
304,261,307,291,0
308,284,308,293,0
311,305,309,296,0
312,319,309,296,0
312,323,308,296,0
311,324,307,295,0
309,324,307,295,0
305,323,307,296,0
301,321,308,298,0
298,319,310,304,0
299,316,313,314,0
306,313,315,327,0
312,313,317,339,0
315,316,317,349,0
316,324,317,353,0
316,330,315,352,0
315,332,312,347,0
314,331,310,339,0
314,330,309,329,0
314,328,307,316,0
312,325,305,302,0
309,322,303,287,0
305,319,302,273,0
303,315,301,264,0
307,307,301,261,0
314,298,301,263,0
322,286,301,267,0
324,274,302,273,0
319,268,304,281,0
313,268,308,288,0
308,273,312,294,0
305,280,316,299,0
304,286,319,303,0
303,292,321,304,0
303,295,319,305,0
302,294,315,304,0
302,295,310,304,0
302,297,307,304,0
302,297,304,305,0
302,294,303,307,0
303,289,302,310,0
304,287,303,313,0
307,288,305,315,0
308,292,307,316,0
309,301,308,316,0
311,311,309,316,0
312,318,310,316,0
311,319,310,318,0
310,316,309,319,0
308,308,309,319,0
308,299,310,318,0
308,292,311,316,0
310,289,311,314,0
311,287,310,312,0
312,289,309,309,0
312,294,307,307,0
313,301,306,305,0
313,309,306,304,0
315,316,307,303,0
317,321,307,302,0
318,323,307,301,0
315,323,308,301,0
311,322,308,301,0
305,320,307,302,0
301,320,307,303,0
300,322,307,305,0
302,325,307,309,0
306,329,308,313,0
308,332,308,316,0
310,332,309,318,0
311,328,309,318,0
312,321,309,316,0
313,312,309,310,0
311,306,309,302,0
310,311,310,296,0
309,320,310,294,0
307,328,311,295,0
306,328,310,296,0
304,322,309,298,0
301,312,308,301,0
298,301,307,305,0
296,295,308,311,0
298,293,310,318,0
306,295,311,324,0
318,300,313,330,0
326,304,315,333,0
328,302,317,336,0
326,297,316,338,0
321,293,315,339,0
315,291,314,338,0
309,289,313,335,0
305,290,312,329,0
303,296,311,323,0
302,303,309,316,0
300,309,307,308,0
299,314,305,301,0
299,318,304,296,0
299,319,304,292,0
298,319,303,289,0
296,318,302,285,0
293,314,302,283,0
288,308,301,281,0
285,301,301,280,0
285,294,302,280,0
289,287,303,282,0
297,283,305,285,0
305,285,308,290,0
310,289,311,296,0
313,294,314,302,0
313,299,314,306,0
312,299,313,309,0
309,294,312,309,0
304,289,309,309,0
301,296,306,308,0
301,314,303,308,0
301,337,301,306,0
301,355,300,303,0
301,368,300,300,0
303,371,301,297,0
305,365,303,295,0
307,351,304,293,0
309,332,306,294,0
310,314,308,297,0
312,298,309,299,0
313,288,309,301,0
311,284,308,303,0
305,282,306,305,0
298,280,303,305,0
290,281,302,305,0
287,292,302,308,0
289,304,306,314,0
297,302,310,319,0
307,288,314,322,0
313,271,315,323,0
314,256,315,322,0
312,244,313,320,0
308,242,312,318,0
307,253,311,318,0
307,271,311,318,0
308,290,311,318,0
309,305,311,318,0
310,316,311,320,0
310,327,311,322,0
310,336,310,324,0
309,339,310,327,0
306,336,309,331,0
304,330,309,338,0
302,322,308,346,0
303,314,308,354,0
308,307,308,358,0
314,306,308,359,0
319,310,308,354,0
319,319,308,345,0
318,330,307,333,0
313,337,306,319,0
308,338,305,305,0
303,332,303,294,0
301,321,302,287,0
301,307,302,283,0
301,296,303,280,0
301,292,304,280,0
301,293,305,280,0
302,294,306,282,0
303,299,307,285,0
305,304,308,289,0
306,307,308,294,0
309,306,308,300,0
311,302,309,306,0
310,298,309,312,0
308,295,311,318,0
305,290,313,323,0
301,285,316,326,0
295,280,318,328,0
288,275,318,327,0
285,275,317,326,0
288,289,316,328,0
296,311,316,332,0
305,328,316,334,0
312,333,315,332,0
316,327,315,329,0
317,319,314,327,0
318,312,314,327,0
316,310,314,326,0
313,310,313,325,0
310,310,312,321,0
308,309,311,318,0
307,308,310,314,0
308,307,308,311,0
309,307,307,309,0
311,310,307,308,0
312,314,308,309,0
312,317,309,311,0
311,318,311,311,0
309,315,312,311,0
307,307,312,310,0
304,295,311,308,0
301,288,308,305,0
300,291,305,301,0
300,302,302,299,0
301,313,299,295,0
302,320,298,293,0
301,320,297,291,0
299,313,294,290,0
295,301,293,290,0
292,287,292,293,0
292,277,294,297,0
300,274,297,301,0
309,282,300,304,0
317,296,302,308,0
321,311,304,310,0
321,320,306,313,0
320,320,307,316,0
318,311,309,318,0
314,298,310,319,0
310,285,310,318,0
307,278,310,318,0
305,284,310,319,0
305,297,309,322,0
307,305,310,325,0
308,306,310,326,0
309,302,310,325,0
310,299,310,323,0
309,297,311,322,0
307,298,310,322,0
308,303,310,322,0
314,310,309,320,0
321,316,306,316,0
326,319,303,309,0
325,317,300,300,0
315,313,300,295,0
304,309,301,294,0
297,308,305,296,0
295,307,309,299,0
294,307,312,303,0
293,305,313,307,0
292,301,313,311,0
292,297,312,314,0
294,294,311,317,0
296,294,310,317,0
297,299,308,315,0
300,309,306,312,0
304,323,305,307,0
307,332,304,303,0
310,331,304,298,0
310,325,303,295,0
307,313,303,294,0
304,298,303,295,0
300,286,306,298,0
299,276,309,302,0
300,268,311,306,0
302,263,312,310,0
304,262,312,313,0
305,263,311,315,0
306,267,310,315,0
305,276,309,314,0
304,289,310,315,0
305,306,311,317,0
307,325,312,320,0
309,340,313,320,0
311,347,313,319,0
312,347,314,317,0
313,343,314,314,0
313,338,313,311,0
313,335,312,308,0
312,334,310,305,0
311,335,308,302,0
310,336,306,301,0
311,335,304,299,0
311,333,303,298,0
312,331,303,296,0
311,328,303,295,0
308,325,303,295,0
302,322,303,297,0
294,320,303,298,0
285,317,303,300,0
278,306,302,302,0
275,288,302,303,0
281,271,304,303,0
292,263,307,303,0
303,265,311,302,0
310,276,314,301,0
314,290,314,302,0
314,300,311,303,0
312,304,308,304,0
309,306,305,304,0
306,304,302,304,0
303,301,300,303,0
301,299,299,303,0
303,304,300,304,0
306,308,301,307,0
311,309,304,309,0
315,311,305,311,0
318,314,306,311,0
320,318,307,312,0
319,321,308,313,0
316,325,309,315,0
312,328,310,317,0
309,331,310,317,0
307,332,310,317,0
305,331,310,316,0
304,326,309,315,0
302,317,308,313,0
302,306,308,313,0
301,296,308,312,0
303,287,308,311,0
306,280,307,310,0
309,277,305,308,0
309,278,305,307,0
309,286,305,306,0
308,297,304,304,0
307,306,303,301,0
305,312,302,298,0
305,315,302,296,0
305,317,303,295,0
305,317,304,295,0
307,317,304,296,0
307,316,305,298,0
308,314,305,302,0
309,313,305,306,0
308,311,304,309,0
306,311,304,310,0
303,313,304,310,0
301,316,304,312,0
301,318,305,312,0
304,318,305,311,0
308,318,305,308,0
310,315,305,306,0
311,312,306,306,0
311,311,306,308,0
311,312,308,311,0
311,315,309,314,0
310,317,310,315,0
309,320,309,315,0
307,321,308,312,0
304,317,306,310,0
301,308,305,307,0
297,306,304,306,0
296,312,303,307,0
294,316,302,310,0
294,312,301,314,0
294,305,300,318,0
297,302,301,321,0
304,303,303,322,0
312,306,304,320,0
319,308,303,314,0
326,309,300,306,0
330,308,298,298,0
329,306,299,296,0
324,304,300,298,0
316,304,303,305,0
309,309,305,311,0
305,312,305,315,0
301,312,305,316,0
298,309,304,315,0
296,309,304,312,0
295,311,303,308,0
296,313,301,304,0
299,314,300,300,0
300,312,300,296,0
301,308,299,293,0
300,303,299,292,0
300,297,300,295,0
302,291,301,299,0
303,289,301,304,0
304,294,300,307,0
306,300,299,310,0
307,305,298,312,0
308,307,298,313,0
308,306,299,313,0
309,301,301,312,0
309,296,304,310,0
309,292,305,308,0
308,291,307,306,0
305,293,308,305,0
303,295,309,307,0
302,299,308,309,0
302,300,306,311,0
300,298,305,312,0
296,296,304,314,0
293,298,304,316,0
292,303,305,317,0
293,310,304,317,0
296,308,304,315,0
300,300,302,309,0
302,289,300,302,0
305,281,298,296,0
306,283,296,292,0
309,293,296,290,0
311,305,296,290,0
312,313,297,292,0
313,316,299,295,0
313,317,301,298,0
313,316,303,300,0
312,314,305,302,0
311,311,307,302,0
309,308,308,300,0
308,308,307,298,0
304,312,306,295,0
300,321,305,293,0
295,329,303,293,0
290,334,302,293,0
288,336,302,293,0
289,335,302,294,0
295,328,303,293,0
302,318,305,292,0
312,308,306,295,0
319,302,307,299,0
322,301,308,305,0
324,302,309,313,0
322,304,310,319,0
318,307,310,325,0
314,313,308,331,0
312,318,306,334,0
312,322,303,335,0
311,323,302,332,0
306,321,302,325,0
300,317,301,318,0
295,315,301,311,0
293,318,301,307,0
293,323,301,307,0
295,326,301,311,0
298,327,301,315,0
300,322,301,319,0
301,312,302,320,0
302,300,303,320,0
302,292,304,318,0
302,288,305,314,0
301,288,306,311,0
300,289,307,309,0
299,289,307,308,0
299,291,306,309,0
300,295,307,312,0
305,301,307,314,0
308,306,308,314,0
308,309,307,312,0
307,311,306,310,0
305,310,304,307,0
303,308,302,302,0
301,305,300,297,0
299,303,298,293,0
298,300,298,292,0
297,292,299,293,0
298,286,301,297,0
301,290,304,303,0
305,300,307,310,0
307,307,310,318,0
307,308,311,325,0
305,306,312,330,0
304,302,312,332,0
306,298,312,331,0
312,293,310,325,0
317,290,310,316,0
317,288,308,310,0
314,288,308,308,0
311,291,307,310,0
308,294,307,314,0
306,299,306,319,0
304,303,305,320,0
302,308,303,317,0
300,312,302,312,0
300,314,301,306,0
300,315,300,300,0
300,315,300,295,0
301,314,300,289,0
300,316,300,284,0
298,318,300,281,0
295,319,300,278,0
295,318,301,277,0
297,311,302,277,0
303,300,303,281,0
310,285,303,289,0
317,272,303,301,0
321,266,302,312,0
322,268,302,320,0
318,276,304,325,0
314,288,307,327,0
309,298,310,327,0
306,308,312,328,0
305,316,314,329,0
305,323,315,331,0
306,327,316,334,0
308,329,317,336,0
308,328,318,337,0
308,326,318,337,0
307,322,317,334,0
307,316,315,331,0
307,307,312,325,0
307,296,309,318,0
307,287,306,310,0
307,279,303,302,0
306,276,301,295,0
305,282,300,289,0
304,297,298,286,0
303,314,298,285,0
303,328,300,287,0
303,338,301,291,0
305,343,304,297,0
308,341,306,303,0
311,336,309,311,0
311,331,312,317,0
309,333,313,321,0
307,339,313,320,0
306,343,311,316,0
306,343,308,312,0
307,341,305,308,0
307,338,303,303,0
307,332,303,297,0
305,322,304,292,0
302,313,305,287,0
299,305,306,285,0
300,298,308,285,0
308,290,309,287,0
320,284,310,289,0
324,279,310,291,0
320,275,308,291,0
314,271,306,290,0
309,271,305,286,0
306,274,303,283,0
306,281,302,282,0
306,289,301,281,0
305,298,300,281,0
303,305,299,282,0
298,308,298,281,0
293,308,298,280,0
287,303,297,279,0
282,293,295,280,0
279,287,295,283,0
280,288,295,288,0
286,291,296,294,0
294,288,298,298,0
303,289,302,302,0
311,294,306,305,0
317,301,312,309,0
317,306,316,312,0
315,307,319,315,0
314,305,319,315,0
313,304,318,314,0
313,304,316,311,0
314,307,314,309,0
315,311,312,306,0
315,314,311,304,0
314,314,312,303,0
314,312,311,302,0
312,305,309,302,0
307,299,307,302,0
303,299,304,304,0
299,306,303,307,0
296,315,303,310,0
294,325,304,314,0
295,332,305,318,0
298,331,308,320,0
302,322,311,322,0
308,310,313,323,0
314,303,315,323,0
318,302,315,321,0
319,306,314,318,0
319,312,313,315,0
319,315,311,311,0
318,313,309,306,0
317,310,307,299,0
316,308,305,293,0
315,306,304,289,0
315,304,304,289,0
316,303,305,292,0
317,302,306,298,0
316,299,306,303,0
315,296,307,309,0
314,295,308,313,0
312,295,307,316,0
309,296,305,319,0
306,296,303,323,0
303,295,302,326,0
303,296,303,328,0
303,302,304,327,0
303,309,305,321,0
303,312,305,314,0
302,314,306,308,0
305,315,308,304,0
310,315,309,302,0
316,314,307,300,0
320,308,305,299,0
323,297,303,299,0
318,282,300,299,0
312,270,299,300,0
307,270,297,300,0
304,281,297,302,0
304,297,298,304,0
306,308,300,304,0
308,312,301,304,0
310,310,302,304,0
311,304,304,304,0
312,300,306,305,0
313,302,308,307,0
314,311,309,308,0
315,320,309,307,0
316,330,309,303,0
316,335,308,299,0
314,335,308,297,0
313,332,308,297,0
311,328,309,299,0
310,324,309,302,0
308,319,309,307,0
306,315,309,311,0
304,310,308,316,0
303,306,307,321,0
302,303,306,325,0
302,303,305,326,0
304,308,304,325,0
306,317,304,323,0
308,328,304,319,0
308,336,304,316,0
307,339,304,312,0
306,335,305,309,0
306,325,306,306,0
306,312,307,304,0
307,300,307,302,0
307,294,308,302,0
309,299,310,304,0
310,308,311,308,0
312,315,312,312,0
313,318,312,314,0
314,321,311,315,0
315,324,309,315,0
316,323,308,316,0
318,313,308,317,0
319,299,307,317,0
320,288,307,316,0
319,283,309,314,0
319,280,310,311,0
319,281,310,306,0
319,288,308,300,0
318,298,307,297,0
314,307,308,296,0
310,312,310,298,0
307,313,312,300,0
306,312,313,301,0
307,311,315,302,0
308,312,316,306,0
307,315,316,309,0
305,318,317,312,0
302,321,316,312,0
299,323,313,312,0
296,324,310,310,0
294,324,307,308,0
293,323,305,309,0
293,318,303,314,0
294,311,301,322,0
295,308,301,330,0
298,304,302,337,0
302,298,304,341,0
304,291,305,342,0
304,281,307,338,0
303,275,308,332,0
302,274,309,322,0
300,275,309,313,0
298,277,309,305,0
299,284,310,303,0
301,297,311,304,0
305,309,313,307,0
308,318,314,308,0
310,321,315,309,0
310,323,314,307,0
308,324,311,304,0
306,324,308,301,0
303,322,306,299,0
302,319,305,296,0
304,316,305,294,0
308,315,304,294,0
310,316,304,294,0
312,316,304,295,0
311,317,303,297,0
310,317,304,302,0
309,318,305,310,0
306,322,306,316,0
302,328,307,322,0
298,335,306,323,0
294,342,306,323,0
294,350,306,323,0
297,351,307,323,0
303,341,308,323,0
307,328,308,323,0
311,316,308,321,0
311,310,308,317,0
309,308,308,310,0
307,305,306,301,0
306,297,303,292,0
307,286,301,285,0
307,275,300,279,0
305,264,299,274,0
303,257,300,272,0
303,252,301,272,0
305,254,303,275,0
307,263,305,279,0
307,273,307,283,0
307,284,307,286,0
306,295,307,289,0
305,305,307,292,0
304,314,306,296,0
304,321,306,300,0
305,323,307,305,0
309,323,307,309,0
313,321,307,312,0
315,315,308,314,0
313,310,309,312,0
307,308,308,309,0
300,313,307,307,0
296,322,307,307,0
295,328,305,307,0
294,328,305,308,0
293,325,306,309,0
291,321,307,312,0
292,314,308,314,0
296,302,309,317,0
301,290,310,317,0
303,281,310,314,0
299,282,308,309,0
291,289,306,302,0
288,296,304,295,0
290,299,303,288,0
295,299,302,282,0
302,301,302,278,0
311,303,303,278,0
318,300,303,281,0
321,297,303,285,0
321,297,302,288,0
319,301,301,291,0
316,303,301,296,0
313,304,300,305,0
310,304,301,317,0
309,302,302,330,0
310,302,305,341,0
311,303,308,349,0
312,308,311,352,0
312,314,313,351,0
311,319,314,345,0
311,326,314,339,0
311,335,315,334,0
312,344,316,330,0
312,348,317,328,0
312,349,318,328,0
309,348,318,329,0
306,345,318,331,0
302,340,317,331,0
298,331,315,327,0
298,321,311,319,0
301,313,305,310,0
306,307,299,301,0
307,299,295,291,0
304,294,293,283,0
302,291,293,278,0
303,293,295,277,0
308,294,298,278,0
313,294,300,281,0
315,292,301,284,0
314,292,301,286,0
313,296,301,288,0
311,301,301,289,0
308,306,301,291,0
306,311,301,293,0
303,316,301,296,0
300,320,301,299,0
298,319,300,302,0
297,312,299,306,0
299,305,299,311,0
303,302,300,318,0
306,298,302,323,0
309,295,306,327,0
314,292,309,327,0
316,288,311,325,0
317,286,312,323,0
315,286,314,321,0
313,290,315,319,0
312,299,317,318,0
311,311,317,316,0
309,321,317,314,0
308,329,315,310,0
305,332,313,305,0
303,332,311,300,0
300,330,308,297,0
298,327,306,294,0
297,323,303,292,0
296,317,301,289,0
296,310,300,287,0
295,300,299,286,0
294,292,299,285,0
294,287,299,286,0
296,282,301,287,0
302,280,303,288,0
313,283,304,289,0
323,293,307,291,0
324,306,309,293,0
318,318,311,296,0
310,325,311,299,0
305,328,310,301,0
303,325,309,303,0
302,318,308,306,0
301,310,308,310,0
301,304,308,317,0
301,298,308,324,0
299,293,308,330,0
298,293,307,332,0
298,298,307,331,0
298,305,307,327,0
298,312,307,320,0
299,317,307,311,0
299,318,306,301,0
299,319,306,294,0
299,320,305,291,0
300,320,305,290,0
300,319,305,293,0
302,318,307,296,0
303,314,308,299,0
303,310,309,301,0
303,304,311,303,0
300,299,312,304,0
298,295,313,304,0
296,297,314,306,0
298,307,316,309,0
301,321,318,313,0
304,330,320,315,0
305,333,320,315,0
300,331,319,312,0
293,331,315,307,0
288,331,310,302,0
288,329,305,299,0
294,323,300,298,0
301,316,296,299,0
306,305,294,302,0
309,295,293,306,0
307,287,294,312,0
303,284,297,316,0
298,282,301,319,0
297,287,306,320,0
298,297,310,321,0
300,306,313,320,0
301,310,315,319,0
301,310,314,314,0
299,311,313,309,0
298,313,311,305,0
297,316,310,302,0
297,319,308,301,0
296,321,306,301,0
296,318,305,302,0
297,312,304,301,0
298,304,304,300,0
299,296,304,297,0
300,288,303,295,0
301,282,303,293,0
302,283,303,291,0
304,290,303,290,0
307,299,304,292,0
309,306,305,295,0
309,314,306,298,0
309,320,308,299,0
305,322,308,297,0
300,316,309,293,0
299,306,310,291,0
301,298,310,292,0
303,297,311,295,0
303,304,310,300,0
302,314,310,303,0
304,320,309,304,0
307,320,307,303,0
310,319,306,301,0
313,316,305,299,0
315,312,304,297,0
318,307,303,296,0
318,302,304,297,0
311,298,304,297,0
303,293,304,299,0
298,288,304,303,0
297,284,304,307,0
298,284,304,312,0
299,289,306,316,0
302,301,307,321,0
306,314,309,329,0
311,323,310,337,0
314,326,311,345,0
316,326,312,351,0
316,322,312,355,0
313,315,313,356,0
310,306,312,353,0
307,300,311,345,0
306,299,308,334,0
306,303,306,320,0
305,309,304,308,0
301,313,302,297,0
294,314,300,289,0
287,314,299,284,0
285,314,298,280,0
288,314,298,277,0
293,316,299,276,0
299,319,299,277,0
306,320,300,278,0
310,316,301,280,0
313,312,302,283,0
312,307,302,286,0
309,304,301,288,0
306,304,300,291,0
303,306,300,293,0
301,310,300,295,0
299,312,300,297,0
297,313,301,299,0
297,313,303,302,0
298,310,305,306,0
300,299,306,310,0
303,284,307,312,0
306,271,307,314,0
310,263,306,317,0
315,262,304,320,0
319,269,303,324,0
320,283,304,325,0
320,301,304,325,0
317,316,303,321,0
313,325,301,313,0
308,327,299,306,0
303,328,299,301,0
298,330,298,297,0
295,330,299,295,0
291,326,299,293,0
290,318,301,292,0
289,309,302,292,0
288,300,304,293,0
289,295,306,295,0
296,294,307,298,0
308,294,307,300,0
318,293,306,302,0
323,291,305,305,0
319,290,304,309,0
312,290,305,313,0
306,291,307,315,0
304,292,307,315,0
303,296,307,312,0
304,302,306,308,0
304,310,304,305,0
304,318,303,302,0
304,323,302,300,0
304,324,302,298,0
305,323,302,295,0
305,324,302,291,0
306,327,301,288,0
307,325,300,285,0
307,320,299,281,0
307,316,298,279,0
306,317,296,279,0
305,318,294,282,0
302,316,293,285,0
300,314,293,289,0
301,317,296,295,0
305,322,298,302,0
311,325,301,310,0
314,325,302,317,0
313,323,303,324,0
311,318,305,332,0
308,311,305,341,0
304,301,305,349,0
302,289,305,355,0
300,281,306,356,0
301,276,307,353,0
303,272,308,346,0
305,269,309,338,0
307,266,308,329,0
308,268,308,321,0
308,275,307,315,0
308,285,306,308,0
308,295,306,302,0
308,301,306,295,0
309,304,305,290,0
308,305,304,287,0
308,306,304,287,0
308,304,304,290,0
308,303,305,294,0
307,302,306,298,0
306,303,307,301,0
305,306,308,303,0
304,310,309,303,0
303,314,309,302,0
302,317,309,303,0
302,316,308,304,0
300,307,307,304,0
298,292,306,302,0
295,279,305,299,0
292,273,304,298,0
289,273,304,298,0
289,282,306,300,0
293,299,309,305,0
302,317,311,312,0
313,325,312,317,0
320,323,312,321,0
322,317,312,324,0
321,309,312,326,0
319,304,313,328,0
317,301,314,328,0
316,299,314,326,0
314,300,315,323,0
313,302,314,318,0
311,305,312,314,0
309,307,310,310,0
306,310,308,307,0
304,311,306,305,0
302,313,305,304,0
301,315,306,303,0
303,316,307,304,0
306,317,308,304,0
311,315,307,303,0
315,309,306,301,0
316,302,304,299,0
311,295,304,297,0
304,289,304,296,0
300,285,305,296,0
298,286,307,296,0
297,293,308,297,0
295,301,309,298,0
293,307,310,298,0
292,311,309,296,0
293,314,307,293,0
294,319,305,293,0
296,319,303,297,0
296,315,302,303,0
294,311,303,309,0
295,308,304,312,0
301,307,306,314,0
308,304,308,314,0
311,301,309,313,0
310,294,308,312,0
309,285,306,312,0
307,279,306,315,0
307,279,307,321,0
308,280,309,329,0
310,283,309,336,0
311,289,309,342,0
312,295,308,345,0
312,302,309,347,0
312,308,309,346,0
311,314,308,340,0
310,317,307,330,0
308,317,306,318,0
306,316,304,305,0
303,314,302,296,0
300,313,302,290,0
299,312,302,288,0
299,311,303,289,0
300,308,303,293,0
301,302,304,298,0
302,293,304,306,0
303,284,304,315,0
303,278,303,323,0
303,279,304,329,0
303,288,304,331,0
304,301,304,329,0
306,313,305,324,0
307,315,306,318,0
309,310,306,312,0
310,308,307,305,0
308,311,306,298,0
307,315,305,290,0
305,316,304,284,0
304,313,303,280,0
301,308,302,279,0
297,302,302,279,0
292,295,302,282,0
289,286,303,288,0
289,275,305,296,0
294,273,309,306,0
304,279,313,315,0
314,288,314,322,0
320,296,312,327,0
320,302,308,328,0
318,305,306,327,0
318,308,305,323,0
319,308,304,317,0
319,308,304,311,0
318,309,303,305,0
315,311,303,300,0
313,314,302,296,0
310,316,302,295,0
309,316,301,294,0
308,314,301,294,0
307,312,301,294,0
306,309,301,295,0
305,305,301,298,0
305,302,302,301,0
305,302,302,304,0
306,302,303,309,0
307,304,304,313,0
309,306,305,315,0
310,310,305,317,0
311,312,305,319,0
311,314,305,323,0
311,314,306,329,0
309,312,306,336,0
307,309,307,341,0
304,304,308,344,0
303,297,309,344,0
301,292,310,341,0
301,295,311,333,0
302,302,311,324,0
304,308,310,315,0
306,311,308,308,0
308,310,306,301,0
312,305,303,297,0
317,300,300,292,0
318,292,296,288,0
311,282,294,283,0
299,274,293,281,0
290,270,294,281,0
287,266,296,283,0
289,264,298,285,0
293,265,298,287,0
295,273,298,289,0
297,286,298,294,0
300,299,300,297,0
302,310,301,301,0
304,317,303,304,0
304,317,303,306,0
304,315,303,307,0
305,312,303,307,0
306,309,303,309,0
307,307,303,312,0
307,308,304,316,0
305,309,304,321,0
303,309,304,325,0
302,308,305,326,0
301,308,304,326,0
302,311,304,323,0
303,315,304,320,0
305,315,303,317,0
307,313,303,314,0
309,312,304,313,0
311,311,305,313,0
312,311,306,314,0
313,312,307,316,0
313,314,308,316,0
312,317,309,315,0
311,320,309,311,0
310,321,309,305,0
308,322,308,299,0
306,320,306,293,0
304,315,305,288,0
304,306,304,286,0
303,296,303,286,0
303,288,303,288,0
302,283,303,291,0
301,284,303,294,0
300,290,303,297,0
300,294,304,299,0
301,299,306,300,0
302,304,307,300,0
301,303,307,300,0
300,298,308,301,0
299,292,309,304,0
304,285,310,309,0
317,282,312,317,0
333,286,314,325,0
340,298,314,328,0
333,309,312,325,0
317,313,310,318,0
302,309,308,310,0
292,301,309,306,0
290,296,312,307,0
294,298,314,312,0
302,304,317,318,0
308,312,318,324,0
311,318,317,327,0
310,323,314,328,0
308,326,311,329,0
307,328,309,330,0
308,330,308,330,0
309,332,309,329,0
310,331,309,328,0
311,328,310,327,0
311,326,311,325,0
311,324,312,322,0
312,324,312,319,0
311,323,312,314,0
310,324,310,308,0
310,325,309,302,0
309,325,309,296,0
308,325,307,291,0
308,326,306,287,0
308,328,304,283,0
309,328,304,282,0
310,325,303,282,0
310,320,302,283,0
309,314,302,283,0
309,308,301,283,0
308,302,300,284,0
308,297,300,284,0
307,291,299,286,0
305,284,299,286,0
302,274,299,286,0
298,267,300,286,0
295,268,301,286,0
293,271,304,286,0
291,269,306,286,0
290,265,308,287,0
294,268,311,289,0
300,286,316,295,0
307,311,320,306,0
312,329,322,318,0
311,337,322,330,0
305,333,322,342,0
301,324,324,351,0
304,315,324,356,0
310,309,324,358,0
316,303,321,354,0
318,296,318,348,0
318,288,314,340,0
317,281,313,332,0
316,277,311,324,0
315,280,311,318,0
315,287,310,313,0
315,294,310,308,0
315,299,309,303,0
314,303,308,299,0
313,306,309,296,0
311,309,308,294,0
310,313,308,292,0
308,317,309,290,0
307,318,310,289,0
308,319,311,289,0
309,319,311,291,0
311,318,311,294,0
312,317,311,298,0
312,315,309,301,0
311,313,307,304,0
311,311,305,306,0
311,309,304,310,0
312,308,304,316,0
314,308,305,324,0
314,309,307,332,0
316,310,309,340,0
317,312,311,346,0
317,314,312,348,0
316,314,312,344,0
314,313,310,336,0
311,309,309,325,0
309,302,307,312,0
306,290,305,301,0
303,275,304,292,0
301,259,303,285,0
299,246,302,280,0
298,241,301,278,0
298,252,299,279,0
302,278,299,280,0
310,313,298,282,0
316,346,297,286,0
316,369,296,291,0
312,373,296,295,0
309,356,297,299,0
306,329,298,302,0
302,304,301,304,0
301,290,304,307,0
302,287,307,312,0
307,291,310,318,0
311,298,312,322,0
312,302,311,323,0
309,305,310,322,0
305,307,308,318,0
301,309,306,314,0
297,310,305,310,0
295,309,303,305,0
296,309,303,301,0
299,309,302,299,0
301,307,301,298,0
304,306,300,298,0
305,304,299,299,0
307,302,297,300,0
309,299,296,300,0
310,298,296,301,0
311,298,297,301,0
311,300,299,303,0
311,303,301,307,0
309,307,303,314,0
308,310,305,321,0
308,312,306,327,0
307,314,306,329,0
306,314,307,329,0
306,313,307,325,0
305,311,306,320,0
304,308,306,315,0
304,303,306,310,0
303,295,307,306,0
300,285,306,304,0
294,274,306,304,0
288,264,306,304,0
285,259,305,305,0
289,261,304,307,0
297,273,303,310,0
304,290,302,315,0
309,307,302,320,0
311,318,302,325,0
308,321,302,329,0
304,317,301,329,0
297,302,299,325,0
292,283,297,319,0
289,268,297,311,0
292,265,298,305,0
298,278,301,299,0
305,292,304,295,0
309,303,306,291,0
310,313,306,287,0
311,323,306,284,0
312,329,303,282,0
313,331,299,281,0
313,329,296,281,0
314,325,294,280,0
314,319,293,280,0
316,312,293,282,0
317,307,293,284,0
320,304,294,287,0
321,303,295,292,0
322,304,298,299,0
323,306,300,304,0
322,307,300,308,0
317,306,301,309,0
311,305,301,310,0
306,308,302,312,0
303,313,304,313,0
302,317,306,314,0
301,320,307,312,0
301,322,307,310,0
301,322,307,309,0
302,319,306,309,0
303,313,305,310,0
302,304,302,310,0
302,294,300,311,0
303,288,298,312,0
306,288,298,314,0
310,294,297,316,0
313,305,296,316,0
314,318,296,316,0
313,329,297,314,0
310,337,298,311,0
305,340,299,305,0
298,335,299,298,0
291,324,299,292,0
286,314,299,289,0
285,308,300,288,0
285,303,301,291,0
289,300,304,295,0
294,291,305,298,0
298,274,305,300,0
301,259,305,299,0
302,254,304,297,0
304,256,303,296,0
307,261,303,297,0
310,268,304,301,0
313,277,306,308,0
314,291,308,317,0
314,305,311,326,0
314,318,313,334,0
313,326,314,344,0
312,329,316,355,0
312,329,317,363,0
312,327,318,367,0
312,324,317,366,0
312,320,317,360,0
312,316,316,349,0
312,314,315,337,0
311,313,314,326,0
310,313,313,315,0
308,313,312,305,0
306,311,312,296,0
304,305,311,287,0
302,298,309,279,0
300,293,307,275,0
298,288,306,273,0
300,284,305,273,0
305,283,304,275,0
311,287,304,278,0
317,292,304,281,0
322,301,305,285,0
325,313,308,290,0
326,327,311,294,0
323,341,315,297,0
319,352,318,302,0
313,360,322,307,0
308,363,323,311,0
305,361,322,313,0
304,354,318,314,0
304,344,314,315,0
307,330,310,316,0
310,319,307,314,0
311,315,305,310,0
307,314,304,305,0
302,314,303,301,0
298,312,304,298,0
297,306,304,298,0
298,294,304,301,0
300,283,305,307,0
301,275,305,313,0
302,269,304,317,0
301,267,302,318,0
301,277,302,318,0
304,290,301,318,0
306,301,302,317,0
308,308,302,316,0
308,309,304,316,0
307,309,304,315,0
307,308,305,313,0
310,310,305,309,0
314,315,305,307,0
314,314,305,306,0
311,308,305,307,0
309,300,304,310,0
307,292,304,316,0
304,288,304,322,0
301,287,304,328,0
299,286,304,331,0
298,284,306,331,0
301,282,307,326,0
304,282,307,318,0
306,286,305,310,0
307,295,304,303,0
307,308,304,298,0
307,322,303,294,0
307,335,302,292,0
307,344,302,292,0
306,347,301,295,0
306,345,300,297,0
304,337,299,300,0
303,325,299,303,0
303,317,299,305,0
303,312,300,309,0
302,308,300,315,0
303,305,300,323,0
304,302,301,329,0
306,296,302,334,0
308,289,304,339,0
311,286,307,344,0
313,289,310,349,0
313,293,313,351,0
311,298,315,351,0
307,302,316,349,0
304,306,316,345,0
303,309,317,339,0
305,308,317,330,0
307,303,316,320,0
305,297,314,308,0
300,288,311,297,0
294,281,309,287,0
288,276,308,279,0
286,275,307,273,0
289,276,304,270,0
297,280,300,269,0
305,283,297,271,0
313,289,296,277,0
319,298,296,284,0
323,309,297,291,0
323,319,298,295,0
322,327,300,297,0
319,336,301,299,0
316,347,302,299,0
313,356,302,301,0
310,359,303,303,0
307,353,304,305,0
305,339,303,304,0
302,322,301,301,0
301,308,300,298,0
300,303,299,295,0
298,305,299,293,0
296,308,299,291,0
293,310,299,290,0
292,310,299,290,0
295,307,300,292,0
301,300,301,296,0
307,288,300,301,0
314,278,299,306,0
317,269,298,311,0
314,262,297,316,0
309,260,298,320,0
306,263,299,322,0
304,270,299,320,0
303,277,298,318,0
302,286,298,316,0
302,292,297,316,0
303,296,298,317,0
303,297,298,318,0
305,300,299,320,0
307,305,300,321,0
307,307,300,321,0
307,306,301,320,0
307,303,301,319,0
307,302,302,317,0
309,302,302,314,0
310,306,302,311,0
313,313,302,309,0
313,320,302,309,0
313,324,303,311,0
312,324,305,316,0
311,321,307,321,0
310,316,308,324,0
309,310,307,322,0
308,306,306,317,0
307,304,305,309,0
302,306,302,303,0
296,314,300,297,0
289,323,299,295,0
285,330,300,294,0
285,332,301,294,0
291,331,302,293,0
299,327,304,292,0
307,319,306,294,0
314,309,307,297,0
317,302,308,300,0
319,302,309,307,0
321,304,308,317,0
320,307,307,328,0
316,312,306,336,0
311,316,306,340,0
307,319,307,340,0
304,321,309,335,0
303,323,310,327,0
302,321,311,316,0
302,316,311,306,0
302,310,310,299,0
301,304,309,293,0
301,300,308,291,0
301,293,307,291,0
301,284,306,291,0
301,283,305,292,0
302,290,304,293,0
303,302,304,295,0
305,313,304,298,0
307,320,305,302,0
309,323,305,307,0
311,322,305,311,0
312,320,305,314,0
311,318,305,314,0
308,315,305,312,0
305,310,305,309,0
300,305,305,304,0
298,302,305,300,0
298,300,306,299,0
301,298,306,301,0
303,295,305,304,0
304,290,304,306,0
305,284,304,308,0
304,279,303,307,0
302,272,304,305,0
300,269,304,303,0
300,279,306,301,0
301,298,308,302,0
303,313,311,304,0
306,318,311,306,0
310,315,310,308,0
316,313,308,309,0
321,317,305,308,0
323,325,303,306,0
324,335,302,305,0
323,341,302,308,0
323,340,302,313,0
321,334,303,318,0
315,326,303,322,0
306,318,304,325,0
298,313,304,326,0
295,312,304,324,0
296,314,303,320,0
299,318,303,315,0
303,318,304,310,0
306,312,305,306,0
306,301,306,304,0
305,288,307,301,0
304,277,308,298,0
304,272,305,297,0
303,279,303,297,0
302,290,300,299,0
303,298,300,302,0
309,303,303,304,0
319,306,306,303,0
324,308,308,302,0
323,309,309,299,0
316,308,311,298,0
310,304,313,297,0
305,298,314,296,0
302,290,315,298,0
300,280,316,303,0
299,270,318,311,0
297,269,318,319,0
294,278,317,326,0
293,295,315,331,0
292,320,312,333,0
292,349,310,334,0
293,369,307,333,0
294,371,306,333,0
295,359,306,332,0
295,343,305,330,0
296,331,306,327,0
298,325,307,323,0
301,318,309,319,0
304,308,311,314,0
307,298,312,307,0
309,288,313,300,0
308,282,313,295,0
307,281,313,289,0
307,282,311,285,0
309,284,309,282,0
312,287,307,281,0
315,294,305,282,0
315,304,303,284,0
315,315,301,288,0
314,320,301,292,0
314,317,302,295,0
314,311,302,298,0
313,304,302,300,0
313,294,302,301,0
311,285,302,300,0
309,278,302,301,0
307,278,301,302,0
305,280,301,304,0
304,281,302,306,0
303,279,303,308,0
302,277,305,310,0
304,284,307,313,0
309,298,311,316,0
314,314,314,319,0
318,327,317,322,0
323,333,319,323,0
329,330,318,322,0
328,318,316,316,0
321,303,312,307,0
313,289,308,297,0
304,280,303,289,0
299,276,299,286,0
296,277,297,288,0
296,284,296,292,0
297,292,297,298,0
299,296,299,303,0
301,295,301,307,0
304,295,304,310,0
305,294,305,312,0
306,293,307,312,0
307,297,308,313,0
307,307,308,312,0
308,317,308,310,0
309,323,307,307,0
309,327,305,305,0
310,328,304,302,0
311,328,303,299,0
312,329,303,296,0
309,329,302,292,0
304,324,302,290,0
301,317,302,291,0
299,307,302,294,0
298,297,302,298,0
298,285,302,302,0
298,275,302,305,0
298,266,302,308,0
297,260,302,308,0
297,262,304,308,0
296,277,305,307,0
296,295,305,307,0
294,307,305,307,0
294,315,304,308,0
297,320,305,310,0
304,324,306,314,0
310,322,307,316,0
313,317,306,317,0
313,312,305,316,0
311,311,304,314,0
309,313,303,311,0
307,318,301,306,0
303,321,299,301,0
301,323,297,298,0
301,322,296,296,0
302,319,296,298,0
303,320,295,302,0
307,326,295,306,0
312,334,295,310,0
315,341,294,310,0
314,342,294,308,0
311,336,294,304,0
306,327,296,301,0
304,318,297,299,0
306,305,299,298,0
309,294,299,299,0
313,290,299,299,0
314,296,298,297,0
314,306,297,296,0
310,316,296,294,0
306,322,296,295,0
302,323,295,297,0
301,320,295,300,0
299,315,296,303,0
299,311,297,306,0
299,307,298,308,0
302,304,298,310,0
306,301,298,311,0
310,294,297,311,0
314,286,297,312,0
318,276,297,314,0
318,266,299,316,0
317,264,300,317,0
316,278,302,316,0
313,302,302,314,0
307,321,302,312,0
302,332,302,308,0
298,335,302,304,0
296,331,301,301,0
296,323,300,300,0
296,315,299,302,0
297,309,298,306,0
297,304,298,312,0
297,299,300,319,0
297,297,300,325,0
297,302,303,331,0
299,312,305,337,0
302,320,308,342,0
306,323,309,344,0
309,323,310,341,0
311,323,309,332,0
311,323,308,322,0
309,322,305,312,0
306,321,303,304,0
302,324,302,300,0
297,333,302,299,0
293,341,302,300,0
290,345,303,302,0
290,343,305,303,0
293,335,307,302,0
298,323,307,298,0
302,313,307,294,0
305,307,305,291,0
306,303,304,288,0
304,298,302,287,0
301,290,300,286,0
299,283,300,287,0
302,279,301,290,0
309,279,303,294,0
316,283,305,299,0
319,293,306,304,0
319,305,307,308,0
318,316,309,311,0
317,325,311,314,0
315,331,314,318,0
313,335,316,321,0
309,334,317,323,0
305,331,318,322,0
303,328,318,319,0
304,325,316,312,0
305,322,314,303,0
306,319,311,293,0
306,318,309,289,0
307,320,307,290,0
307,321,304,293,0
305,321,302,295,0
302,317,301,296,0
300,309,301,296,0
299,298,302,296,0
300,291,305,297,0
301,290,309,298,0
303,295,313,300,0
305,303,316,302,0
309,307,317,305,0
313,308,317,306,0
317,307,316,304,0
317,306,314,303,0
314,307,313,303,0
310,313,312,304,0
307,321,312,306,0
306,325,312,308,0
306,324,312,308,0
306,319,313,308,0
305,313,313,307,0
304,310,313,306,0
304,316,312,305,0
304,327,310,305,0
305,334,309,306,0
307,332,307,306,0
310,322,307,307,0
315,315,307,308,0
319,311,310,309,0
318,310,313,310,0
313,313,315,309,0
308,318,316,307,0
305,323,316,305,0
302,326,315,304,0
300,325,315,304,0
298,320,315,305,0
296,312,315,305,0
296,303,316,305,0
296,299,317,304,0
296,301,318,305,0
298,304,318,304,0
300,304,318,305,0
302,302,316,305,0
302,302,314,307,0
303,305,311,310,0
305,311,309,314,0
309,317,309,318,0
311,322,310,319,0
312,326,310,320,0
311,329,311,318,0
309,329,311,315,0
307,328,311,311,0
304,326,310,306,0
302,323,309,302,0
300,315,308,298,0
298,305,307,294,0
296,296,306,290,0
293,290,305,287,0
291,288,305,285,0
289,285,305,285,0
290,283,306,287,0
295,285,307,291,0
301,286,308,298,0
308,287,310,305,0
313,292,311,313,0
315,307,312,319,0
316,326,313,324,0
317,338,315,329,0
317,341,317,332,0
317,340,318,333,0
318,342,320,333,0
318,344,320,331,0
319,341,318,327,0
319,334,317,322,0
318,324,315,320,0
316,315,313,321,0
313,308,310,321,0
310,301,307,320,0
307,295,306,317,0
306,292,305,311,0
306,291,305,306,0
304,291,306,300,0
301,293,307,295,0
299,296,307,290,0
298,297,307,289,0
297,295,307,290,0
299,292,307,293,0
301,291,306,296,0
303,292,306,297,0
305,292,307,299,0
307,293,309,300,0
309,299,311,302,0
310,307,313,303,0
310,314,314,303,0
308,323,313,304,0
306,331,312,303,0
305,337,310,302,0
303,340,309,301,0
300,338,307,302,0
298,329,307,304,0
296,315,307,309,0
297,302,307,313,0
301,290,307,315,0
304,283,308,314,0
308,285,310,312,0
312,296,312,309,0
316,311,313,307,0
320,326,314,305,0
324,338,313,304,0
326,346,312,303,0
322,349,312,302,0
314,350,312,301,0
306,350,312,302,0
301,350,312,303,0
299,350,313,305,0
299,350,314,306,0
300,348,313,307,0
302,342,314,307,0
305,332,314,308,0
307,320,313,310,0
308,310,312,312,0
306,303,311,313,0
301,302,310,314,0
297,307,310,314,0
297,316,311,313,0
298,320,312,310,0
301,321,312,305,0
303,316,313,301,0
303,305,314,298,0
302,289,315,296,0
302,275,317,293,0
304,270,318,292,0
307,270,317,291,0
308,275,314,293,0
308,282,310,296,0
308,288,307,300,0
309,296,305,305,0
310,302,305,309,0
311,303,305,311,0
307,295,304,310,0
300,281,304,308,0
294,270,304,307,0
292,266,305,306,0
293,271,306,307,0
295,283,308,312,0
295,296,309,319,0
295,306,310,328,0
297,314,312,334,0
304,320,313,336,0
309,327,314,336,0
311,334,313,333,0
310,339,312,328,0
308,340,311,322,0
306,339,309,316,0
306,339,307,310,0
306,337,306,307,0
306,331,305,305,0
306,324,305,304,0
305,317,305,303,0
305,315,305,301,0
305,320,305,298,0
306,326,304,295,0
307,329,303,292,0
308,328,302,291,0
308,323,300,289,0
308,319,299,288,0
308,316,299,286,0
308,315,300,286,0
309,318,301,288,0
309,327,303,292,0
309,337,304,297,0
309,345,304,300,0
309,348,303,302,0
309,348,302,302,0
309,347,302,301,0
310,344,301,301,0
311,338,301,302,0
313,331,302,303,0
315,324,304,303,0
315,320,307,305,0
315,316,311,306,0
314,309,313,307,0
312,298,314,309,0
308,285,313,312,0
308,272,312,315,0
309,263,310,319,0
306,257,308,320,0
302,252,307,318,0
300,252,305,314,0
301,256,305,309,0
302,262,304,304,0
303,273,305,301,0
304,291,306,302,0
308,311,308,305,0
312,328,309,310,0
313,339,309,314,0
312,339,309,317,0
307,332,309,321,0
302,322,307,324,0
298,314,305,327,0
295,310,303,328,0
295,305,302,329,0
298,296,301,327,0
302,283,299,322,0
305,274,299,316,0
308,275,299,312,0
308,282,301,311,0
306,289,303,312,0
304,298,305,315,0
302,311,307,319,0
299,324,309,325,0
296,334,310,334,0
294,339,311,342,0
294,340,312,348,0
296,338,312,351,0
299,333,312,348,0
302,327,312,341,0
304,321,311,329,0
304,316,311,316,0
304,312,311,305,0
304,308,310,295,0
305,303,310,287,0
304,297,308,281,0
303,290,306,279,0
300,284,303,278,0
296,281,302,279,0
291,280,302,280,0
288,283,302,282,0
288,290,305,285,0
293,297,307,287,0
298,302,309,291,0
301,304,310,295,0
302,301,311,299,0
301,297,311,304,0
301,294,311,309,0
301,290,311,312,0
299,287,311,313,0
296,284,311,313,0
294,285,311,313,0
293,290,313,313,0
294,297,315,314,0
297,310,315,314,0
300,324,313,314,0
304,331,311,314,0
309,329,308,313,0
314,319,306,309,0
319,305,306,303,0
325,295,306,296,0
330,289,306,289,0
328,286,306,284,0
322,284,305,282,0
315,283,305,281,0
310,286,305,283,0
308,291,306,285,0
308,298,307,288,0
305,303,309,291,0
301,306,311,294,0
298,306,312,298,0
297,304,314,301,0
298,300,314,305,0
298,299,315,308,0
297,301,314,309,0
297,303,314,311,0
299,304,313,315,0
303,304,311,322,0
307,303,309,328,0
308,300,309,335,0
308,297,309,343,0
307,294,310,350,0
306,294,312,355,0
307,299,314,357,0
308,308,313,356,0
308,315,313,352,0
308,320,313,348,0
307,320,314,344,0
303,312,314,336,0
298,300,312,327,0
292,292,310,318,0
290,287,308,310,0
291,279,308,304,0
293,274,307,299,0
297,272,306,294,0
301,274,304,287,0
304,278,301,279,0
305,285,299,273,0
306,291,298,269,0
305,294,297,268,0
304,297,298,269,0
304,301,299,273,0
304,302,301,280,0
306,302,303,287,0
307,301,305,295,0
308,304,308,301,0
309,312,310,306,0
310,323,313,309,0
311,328,314,310,0
312,322,316,309,0
312,311,316,308,0
311,305,315,306,0
310,305,314,305,0
309,308,312,303,0
308,312,310,299,0
308,314,309,296,0
309,312,308,294,0
310,309,310,295,0
311,307,312,296,0
312,308,315,299,0
310,306,318,303,0
306,299,321,308,0
302,292,323,313,0
302,289,325,317,0
307,289,326,319,0
312,292,326,317,0
314,297,324,312,0
312,301,320,307,0
305,307,316,303,0
297,312,314,301,0
292,316,312,301,0
290,318,311,301,0
291,316,310,302,0
292,311,308,303,0
295,306,306,306,0
300,301,306,311,0
305,298,306,317,0
311,294,307,320,0
317,288,307,322,0
321,282,308,323,0
323,278,309,324,0
325,278,310,325,0
327,279,311,326,0
328,279,312,327,0
326,279,312,331,0
319,284,314,335,0
309,294,316,341,0
300,298,318,346,0
296,296,320,349,0
294,292,320,346,0
294,294,319,339,0
296,303,317,329,0
300,316,314,320,0
304,324,311,314,0
305,328,308,311,0
304,329,306,307,0
302,325,304,302,0
299,313,302,294,0
297,297,301,283,0
298,289,300,273,0
301,288,301,268,0
305,289,303,268,0
307,294,305,269,0
307,303,307,272,0
304,318,307,274,0
300,333,307,276,0
297,338,307,278,0
296,327,307,280,0
297,299,306,284,0
300,275,305,289,0
305,268,305,295,0
310,274,305,301,0
315,285,305,304,0
318,297,305,305,0
320,304,305,306,0
320,302,304,307,0
320,291,304,309,0
318,274,302,309,0
316,267,302,309,0
312,277,301,306,0
308,299,301,304,0
304,322,301,301,0
302,338,301,300,0
303,346,303,300,0
306,349,304,301,0
308,346,306,301,0
309,337,307,300,0
308,328,307,300,0
308,328,308,302,0
308,337,310,307,0
311,341,313,312,0
313,337,315,318,0
313,326,317,326,0
309,315,318,335,0
302,310,317,342,0
295,307,314,345,0
290,300,309,345,0
288,292,306,342,0
291,285,304,338,0
296,271,305,333,0
302,255,307,328,0
305,247,310,324,0
306,255,311,320,0
306,271,311,314,0
309,284,310,308,0
312,290,307,301,0
314,289,303,294,0
314,294,301,288,0
313,309,300,287,0
312,326,302,290,0
313,340,306,296,0
315,350,308,302,0
316,349,310,307,0
318,341,311,310,0
319,327,311,313,0
322,311,311,315,0
327,296,310,315,0
329,284,308,316,0
323,273,306,316,0
312,266,303,316,0
302,262,302,315,0
297,263,301,312,0
296,272,301,307,0
298,286,300,302,0
299,300,299,300,0
300,314,298,302,0
302,327,298,308,0
304,336,299,316,0
304,341,301,325,0
305,342,302,333,0
306,343,302,339,0
307,339,302,341,0
307,332,300,339,0
306,318,299,333,0
305,297,297,323,0
303,269,295,310,0
300,242,293,298,0
299,223,291,287,0
298,222,290,278,0
298,236,289,272,0
301,259,290,270,0
306,281,293,272,0
312,295,298,277,0
317,302,302,283,0
320,308,307,288,0
320,312,311,292,0
319,316,314,295,0
317,318,316,296,0
316,319,316,297,0
315,317,313,296,0
314,313,308,296,0
313,310,303,296,0
312,307,301,298,0
309,306,299,300,0
306,308,298,303,0
303,312,297,306,0
300,309,296,309,0
297,302,296,312,0
296,294,297,316,0
296,293,299,320,0
298,300,301,323,0
300,309,303,325,0
303,317,304,327,0
306,322,305,327,0
308,321,305,324,0
309,315,305,319,0
309,305,304,315,0
307,292,302,312,0
304,281,301,308,0
301,276,301,304,0
301,284,301,302,0
305,295,302,300,0
307,303,301,299,0
306,306,300,298,0
301,307,298,296,0
295,307,296,295,0
294,308,295,293,0
297,310,295,293,0
303,312,296,293,0
310,315,297,294,0
313,318,298,296,0
313,319,300,298,0
309,315,303,302,0
304,306,306,305,0
298,295,310,308,0
297,285,313,311,0
298,276,316,313,0
300,272,316,317,0
304,275,314,323,0
312,284,312,331,0
319,295,310,337,0
326,303,309,342,0
330,303,309,343,0
329,300,308,339,0
323,297,307,331,0
316,296,306,321,0
312,291,304,313,0
311,283,303,308,0
310,273,302,306,0
311,265,301,304,0
312,261,302,302,0
313,263,302,299,0
313,272,303,296,0
313,283,304,294,0
313,289,304,295,0
311,289,304,298,0
310,285,303,301,0
308,279,303,301,0
306,273,302,297,0
304,265,302,290,0
301,258,300,282,0
299,254,299,276,0
296,252,299,272,0
294,246,298,270,0
291,242,297,269,0
290,249,295,269,0
291,263,295,271,0
295,276,295,275,0
301,285,297,281,0
309,291,300,288,0
317,296,304,297,0
322,297,308,305,0
326,294,310,314,0
327,288,313,322,0
325,281,314,328,0
322,270,315,332,0
317,256,316,334,0
312,244,316,333,0
307,238,316,330,0
304,243,317,327,0
301,259,317,326,0
299,278,317,325,0
297,293,315,323,0
295,298,312,319,0
296,293,307,314,0
297,292,304,310,0
300,299,302,307,0
303,308,302,305,0
306,316,303,304,0
308,319,305,303,0
310,316,307,301,0
311,306,309,300,0
312,295,310,300,0
311,287,310,301,0
309,282,310,304,0
307,273,310,307,0
303,263,309,308,0
297,256,309,308,0
291,254,308,307,0
286,254,307,305,0
289,254,307,303,0
301,252,308,302,0
312,251,308,302,0
316,253,307,302,0
317,258,307,302,0
315,267,306,303,0
314,284,305,305,0
312,300,306,308,0
312,307,307,313,0
311,304,309,319,0
310,293,309,326,0
309,280,309,330,0
309,265,308,332,0
310,253,307,330,0
313,249,307,325,0
318,250,307,318,0
319,254,307,309,0
314,260,308,301,0
308,268,309,295,0
304,278,310,293,0
302,285,311,293,0
302,290,311,294,0
302,291,311,293,0
302,290,310,291,0
302,291,310,288,0
303,292,309,287,0
304,295,307,287,0
305,298,306,287,0
306,303,305,288,0
306,305,303,290,0
307,303,302,293,0
309,300,301,295,0
311,298,302,297,0
313,294,304,300,0
313,285,305,302,0
312,275,306,305,0
311,269,307,307,0
310,266,307,309,0
308,262,307,310,0
307,257,308,310,0
306,258,309,309,0
306,269,309,308,0
304,286,307,305,0
302,302,305,303,0
299,311,301,300,0
298,311,300,297,0
297,308,300,295,0
298,306,301,295,0
298,300,302,295,0
298,289,302,296,0
296,278,303,296,0
294,269,304,296,0
294,270,305,297,0
297,277,308,300,0
302,283,311,302,0
307,285,312,304,0
311,286,313,306,0
313,286,313,307,0
313,289,313,308,0
313,292,312,308,0
311,292,311,307,0
310,289,310,305,0
309,287,309,304,0
308,293,308,303,0
308,305,307,303,0
307,315,305,304,0
306,320,304,305,0
304,320,302,306,0
302,317,301,308,0
299,311,302,310,0
300,303,306,313,0
307,297,310,315,0
315,296,313,316,0
318,295,315,314,0
319,288,317,313,0
318,276,317,313,0
316,262,316,315,0
315,253,314,318,0
315,255,311,321,0
314,265,309,325,0
312,276,308,330,0
310,284,309,335,0
308,291,309,341,0
306,299,310,344,0
306,304,310,341,0
305,308,309,335,0
305,316,308,324,0
304,324,307,312,0
303,328,305,300,0
303,326,305,288,0
302,319,304,279,0
301,313,305,273,0
303,310,305,271,0
308,308,306,274,0
318,307,306,278,0
328,312,306,284,0
333,321,305,289,0
328,326,304,291,0
316,328,302,289,0
305,330,301,286,0
297,332,301,286,0
294,331,301,290,0
295,324,302,299,0
298,313,304,309,0
300,298,306,317,0
302,288,306,321,0
303,281,305,322,0
303,276,305,320,0
305,272,305,317,0
306,272,306,312,0
307,279,307,309,0
308,287,307,305,0
309,290,307,301,0
308,284,305,295,0
305,272,302,289,0
302,264,299,284,0
299,265,296,279,0
297,275,294,275,0
296,292,294,275,0
295,307,296,276,0
292,312,298,280,0
290,306,301,285,0
291,299,304,289,0
293,295,305,293,0
295,291,305,295,0
298,290,304,296,0
299,289,303,297,0
301,288,302,298,0
302,287,302,299,0
303,283,302,302,0
304,276,303,307,0
304,272,304,313,0
305,279,306,319,0
307,298,308,323,0
307,321,310,326,0
307,340,310,326,0
306,347,310,325,0
304,342,309,320,0
304,334,308,312,0
304,328,307,304,0
304,324,306,298,0
304,317,305,295,0
304,309,304,294,0
305,298,304,295,0
308,290,303,298,0
310,290,302,302,0
311,297,301,308,0
311,309,301,316,0
311,326,303,324,0
313,340,304,334,0
315,345,307,343,0
317,344,310,350,0
319,341,313,355,0
320,337,314,359,0
320,328,314,361,0
317,319,312,360,0
314,312,309,354,0
309,305,305,343,0
305,303,302,329,0
304,308,299,312,0
306,319,297,295,0
309,328,296,281,0
313,333,297,271,0
317,333,296,265,0
320,325,296,264,0
322,314,295,265,0
320,307,296,269,0
318,308,297,274,0
315,310,299,279,0
311,312,300,282,0
308,311,300,283,0
305,307,301,284,0
303,303,302,287,0
303,296,305,291,0
303,281,308,297,0
302,263,310,303,0
301,250,312,309,0
303,242,316,314,0
309,233,318,317,0
317,225,318,317,0
322,233,316,314,0
322,257,314,311,0
319,285,312,309,0
318,308,310,309,0
317,319,309,310,0
315,315,309,310,0
311,303,309,310,0
308,293,310,308,0
306,291,309,305,0
306,300,306,303,0
305,316,304,302,0
304,333,304,302,0
301,346,304,303,0
295,353,304,305,0
289,354,304,307,0
285,350,303,308,0
284,345,304,310,0
287,340,304,311,0
289,335,305,312,0
293,329,305,315,0
296,318,305,318,0
299,313,304,323,0
302,317,304,330,0
305,328,305,337,0
308,341,306,343,0
310,347,306,345,0
311,346,306,341,0
311,342,305,334,0
310,339,303,325,0
308,333,302,315,0
306,323,302,306,0
306,313,302,300,0
306,300,301,293,0
305,283,298,287,0
302,261,296,282,0
298,235,295,281,0
297,216,295,285,0
300,212,295,293,0
304,222,295,301,0
306,240,295,306,0
309,262,294,309,0
310,281,294,310,0
312,296,294,310,0
312,308,294,310,0
314,317,294,308,0
315,323,292,304,0
316,328,290,300,0
316,330,288,296,0
315,327,287,292,0
314,320,286,288,0
312,310,286,283,0
311,302,286,278,0
310,299,287,274,0
309,301,288,272,0
308,308,289,276,0
307,320,290,281,0
304,330,289,286,0
302,333,289,290,0
299,332,289,293,0
297,328,289,296,0
295,324,289,298,0
292,321,289,301,0
289,318,291,304,0
288,314,291,308,0
287,307,290,312,0
289,298,289,315,0
291,286,288,316,0
293,270,288,317,0
294,245,288,317,0
297,220,290,318,0
302,209,294,322,0
310,217,298,328,0
317,241,300,333,0
321,270,300,336,0
322,296,299,335,0
322,314,299,331,0
321,326,298,325,0
319,333,297,318,0
316,337,296,309,0
313,337,295,303,0
311,335,294,297,0
310,333,292,294,0
310,331,292,294,0
312,329,292,297,0
316,324,292,302,0
320,319,293,307,0
323,313,295,314,0
324,308,297,322,0
320,307,300,331,0
314,308,303,340,0
310,308,307,349,0
307,306,309,357,0
306,302,311,363,0
302,296,312,365,0
297,285,312,360,0
292,272,312,351,0
290,267,311,340,0
294,276,311,327,0
300,290,310,313,0
307,300,309,300,0
311,303,307,290,0
311,302,305,283,0
310,299,304,278,0
307,297,304,276,0
303,299,304,273,0
296,304,303,270,0
291,314,301,268,0
288,321,301,269,0
288,325,301,274,0
295,326,304,285,0
306,317,307,299,0
314,304,310,313,0
317,295,313,323,0
317,289,315,331,0
316,287,318,334,0
316,289,319,333,0
315,296,319,329,0
314,304,318,326,0
313,311,314,323,0
312,317,310,320,0
310,319,306,318,0
309,319,302,313,0
308,317,300,308,0
307,316,299,302,0
306,311,298,296,0
304,304,297,292,0
302,294,296,290,0
300,280,296,289,0
299,265,295,288,0
298,256,295,286,0
299,252,296,285,0
301,254,297,285,0
304,261,300,289,0
308,269,304,294,0
310,276,307,299,0
312,283,308,303,0
311,289,307,306,0
310,293,306,309,0
307,294,304,312,0
305,295,303,313,0
305,299,302,315,0
307,305,302,317,0
309,309,302,319,0
309,311,302,320,0
308,313,301,322,0
306,318,301,323,0
302,320,301,325,0
298,320,304,329,0
298,322,307,331,0
301,325,310,334,0
306,327,313,337,0
313,328,314,338,0
320,329,314,337,0
327,327,314,337,0
331,321,314,335,0
328,311,315,331,0
321,307,317,323,0
314,315,318,312,0
308,327,319,300,0
304,335,318,290,0
302,338,318,282,0
301,335,317,277,0
302,325,316,275,0
302,311,316,278,0
303,296,315,287,0
304,280,315,297,0
304,270,314,305,0
304,270,313,311,0
303,279,312,315,0
301,289,311,316,0
300,293,311,314,0
299,291,312,312,0
296,285,312,309,0
292,279,312,305,0
289,275,312,299,0
291,272,313,291,0
295,271,312,284,0
300,273,310,278,0
303,276,308,274,0
304,282,308,272,0
305,291,307,272,0
305,300,308,273,0
305,302,309,276,0
303,298,310,279,0
300,295,311,282,0
297,293,311,285,0
298,295,311,287,0
302,295,312,289,0
308,293,313,291,0
311,294,314,292,0
313,300,315,293,0
313,309,317,296,0
313,315,319,299,0
