312,306,309,293,1
319,305,308,294,1
323,304,308,297,1
324,304,308,300,1
320,304,309,305,1
315,305,310,309,1
310,306,312,312,1
306,307,312,315,1
306,307,313,318,1
308,306,313,319,1
313,304,312,321,1
319,303,309,322,1
326,303,306,321,1
329,302,302,316,1
326,302,298,308,1
320,304,296,300,1
316,307,297,293,1
313,309,301,289,1
313,311,306,287,1
310,310,312,289,1
301,308,315,294,1
288,305,318,300,1
279,303,318,306,1
279,302,317,312,1
284,303,316,316,1
295,304,315,322,1
309,305,317,328,1
321,306,319,331,1
325,307,321,332,1
318,306,322,330,1
302,307,323,325,1
285,308,322,320,1
275,309,321,316,1
277,308,318,313,1
291,308,316,311,1
310,306,314,312,1
327,305,313,314,1
339,304,313,318,1
346,304,313,322,1
347,304,313,325,1
345,303,311,327,1
339,302,310,326,1
336,300,309,323,1
335,298,308,318,1
337,296,310,311,1
340,295,312,304,1
341,295,315,299,1
339,296,317,294,1
333,298,317,289,1
327,299,316,286,1
322,301,313,284,1
322,302,311,285,1
325,303,309,286,1
328,302,309,288,1
328,301,311,290,1
324,300,312,292,1
317,298,313,294,1
312,296,313,297,1
308,294,314,300,1
305,294,314,304,1
304,296,315,309,1
304,299,315,314,1
305,302,316,318,1
306,305,316,320,1
307,307,316,322,1
307,309,316,323,1
306,311,315,325,1
308,315,314,326,1
310,318,314,324,1
312,322,314,321,1
314,324,314,318,1
317,325,315,317,1
323,324,318,319,1
328,321,320,322,1
330,318,321,325,1
330,314,322,327,1
328,310,322,326,1
327,307,321,324,1
325,303,319,319,1
323,299,317,314,1
322,297,316,308,1
322,296,314,304,1
322,297,313,302,1
319,299,313,301,1
313,301,314,301,1
304,304,314,301,1
296,307,314,302,1
289,311,313,301,1
285,314,312,301,1
286,316,311,302,1
293,318,311,302,1
303,320,311,304,1
313,320,312,307,1
323,317,314,313,1
331,314,316,319,1
336,311,317,324,1
338,309,318,327,1
338,307,318,327,1
332,304,316,325,1
325,300,314,320,1
320,296,313,315,1
320,292,312,311,1
323,289,311,307,1
328,287,310,305,1
333,287,308,303,1
336,289,306,302,1
337,294,306,301,1
336,301,306,300,1
332,307,307,299,1
327,313,309,298,1
323,316,312,299,1
318,319,316,300,1
313,320,317,302,1
310,321,319,304,1
306,321,319,306,1
303,319,318,306,1
300,316,315,305,1
300,313,313,303,1
300,309,311,300,1
300,305,310,298,1
300,303,310,295,1
301,300,309,293,1
308,298,309,291,1
320,298,310,290,1
331,299,311,292,1
339,301,312,294,1
339,304,312,296,1
333,307,311,298,1
324,310,309,299,1
314,312,307,298,1
302,313,305,298,1
292,314,304,298,1
288,316,305,298,1
293,317,307,299,1
305,318,310,300,1
315,317,313,302,1
322,316,315,304,1
324,316,316,307,1
325,316,317,310,1
325,315,316,314,1
325,314,315,320,1
324,313,313,323,1
323,311,313,325,1
320,308,312,325,1
318,305,312,325,1
315,302,312,324,1
312,300,312,324,1
307,300,313,323,1
301,301,313,322,1
292,303,313,322,1
285,305,313,322,1
282,309,311,321,1
280,313,309,318,1
282,315,308,316,1
289,316,307,316,1
300,318,307,318,1
308,319,308,321,1
315,320,309,325,1
320,320,309,327,1
324,318,307,327,1
325,315,307,325,1
325,310,306,320,1
321,306,306,314,1
316,303,306,308,1
312,301,307,303,1
309,301,306,298,1
308,301,305,296,1
308,303,304,295,1
308,306,301,296,1
307,309,298,298,1
305,313,296,302,1
297,315,295,305,1
287,317,295,309,1
278,317,298,312,1
272,317,303,315,1
274,317,310,320,1
283,316,316,324,1
295,314,320,328,1
305,312,323,330,1
311,308,323,327,1
314,305,324,321,1
316,301,322,313,1
321,300,320,306,1
330,299,317,301,1
338,300,316,299,1
342,301,316,298,1
341,301,316,298,1
338,303,316,297,1
333,303,316,296,1
327,303,315,294,1
321,304,315,293,1
316,305,314,293,1
314,306,312,293,1
311,307,311,293,1
309,307,309,291,1
306,307,308,290,1
301,308,308,289,1
299,309,308,289,1
302,310,308,290,1
307,309,309,293,1
311,307,309,296,1
313,305,310,299,1
313,304,309,302,1
314,303,308,304,1
316,304,307,307,1
315,304,306,308,1
310,304,305,309,1
304,305,304,310,1
301,305,304,310,1
300,305,305,310,1
301,303,305,310,1
301,299,305,309,1
300,294,304,307,1
299,293,304,305,1
298,294,304,305,1
300,299,304,306,1
304,305,305,308,1
309,310,306,312,1
311,313,308,316,1
309,313,310,319,1
307,310,311,323,1
304,308,312,329,1
303,306,313,336,1
302,305,313,341,1
302,306,313,344,1
303,307,311,345,1
306,309,309,342,1
310,311,308,336,1
312,313,308,327,1
312,314,308,318,1
310,314,308,310,1
308,314,308,304,1
305,313,307,300,1
302,313,305,298,1
298,312,304,298,1
296,309,303,299,1
294,306,302,300,1
292,303,302,301,1
292,301,302,300,1
294,300,303,299,1
299,299,304,300,1
306,298,306,304,1
310,298,308,311,1
309,298,310,318,1
306,297,311,325,1
302,297,313,329,1
300,298,313,331,1
301,299,313,331,1
303,299,311,328,1
305,301,307,324,1
309,303,303,321,1
311,307,300,317,1
311,311,298,312,1
309,314,297,308,1
308,315,296,304,1
306,315,297,300,1
302,314,298,297,1
296,312,300,296,1
286,310,301,295,1
276,308,302,295,1
272,306,303,294,1
274,305,303,294,1
282,304,304,295,1
291,304,305,297,1
302,303,306,299,1
312,304,308,301,1
319,306,310,303,1
322,310,311,304,1
323,312,310,303,1
321,312,309,301,1
318,311,307,298,1
317,308,304,296,1
314,305,303,295,1
314,302,303,296,1
318,300,304,299,1
323,300,305,302,1
322,301,307,306,1
312,302,309,309,1
297,304,310,313,1
284,306,310,316,1
277,308,308,318,1
278,309,307,320,1
282,308,306,320,1
287,308,306,319,1
295,306,305,316,1
306,305,304,312,1
315,306,302,308,1
320,306,298,306,1
322,306,295,303,1
322,305,292,303,1
322,304,292,304,1
321,303,293,307,1
316,304,296,311,1
310,305,300,314,1
303,307,303,317,1
296,310,306,320,1
291,311,308,323,1
289,312,309,325,1
288,311,309,325,1
287,309,307,324,1
285,307,304,322,1
285,306,303,320,1
286,305,302,318,1
288,303,301,315,1
290,301,301,312,1
293,298,302,310,1
298,298,304,309,1
302,299,305,308,1
305,301,305,307,1
308,303,305,308,1
310,305,305,308,1
311,307,305,308,1
311,308,305,308,1
312,309,305,308,1
311,309,305,308,1
310,309,305,308,1
308,308,305,308,1
307,307,305,308,1
308,306,305,307,1
310,305,305,307,1
312,303,305,310,1
314,301,304,315,1
316,299,304,320,1
318,297,304,323,1
316,296,304,324,1
313,295,304,321,1
309,295,305,316,1
305,295,306,309,1
300,296,306,303,1
296,297,304,296,1
293,299,304,291,1
291,303,303,287,1
286,306,303,287,1
281,309,302,289,1
278,313,302,292,1
275,316,301,293,1
274,318,298,292,1
273,317,295,290,1
276,314,292,289,1
284,310,289,288,1
293,306,288,288,1
304,302,287,289,1
314,299,290,290,1
322,299,294,291,1
328,300,299,293,1
330,301,304,294,1
331,303,307,296,1
330,305,310,297,1
330,307,313,299,1
329,308,314,300,1
327,308,314,302,1
323,308,314,307,1
318,309,314,314,1
312,309,314,321,1
306,309,314,328,1
301,308,314,332,1
298,306,314,334,1
296,304,313,332,1
295,303,311,328,1
294,302,310,323,1
296,302,309,317,1
297,301,308,311,1
298,302,308,306,1
298,302,308,303,1
295,304,308,302,1
291,304,307,302,1
288,304,305,302,1
287,304,304,301,1
287,304,303,299,1
287,304,302,296,1
288,304,302,294,1
291,303,302,292,1
296,303,303,291,1
301,302,303,291,1
306,302,303,293,1
310,303,304,297,1
312,303,305,301,1
310,302,306,305,1
305,301,306,309,1
301,300,307,312,1
297,299,308,314,1
294,299,308,314,1
292,299,308,315,1
294,299,308,315,1
295,300,308,316,1
294,302,307,316,1
297,305,307,316,1
306,308,307,314,1
313,310,306,310,1
316,310,305,305,1
313,310,303,300,1
308,310,302,298,1
305,309,301,298,1
303,310,301,299,1
299,310,301,302,1
298,310,301,305,1
299,309,302,309,1
302,309,302,312,1
306,308,302,314,1
312,307,303,315,1
317,305,303,316,1
321,303,304,317,1
324,301,304,318,1
325,301,305,319,1
328,304,306,320,1
329,307,306,319,1
326,311,305,314,1
322,313,305,309,1
317,316,305,302,1
311,318,303,296,1
302,319,301,292,1
295,320,297,290,1
290,319,294,291,1
289,318,292,293,1
291,315,292,296,1
294,312,294,299,1
299,309,298,301,1
304,307,302,302,1
307,304,305,305,1
307,302,308,309,1
306,299,308,314,1
303,297,308,318,1
300,295,308,321,1
299,293,308,322,1
300,292,309,323,1
301,292,309,324,1
303,293,309,326,1
303,297,310,328,1
304,301,311,330,1
304,306,312,331,1
305,311,312,331,1
308,315,312,329,1
313,316,310,325,1
317,316,307,319,1
319,313,303,313,1
317,309,297,307,1
313,306,291,299,1
307,303,285,290,1
303,301,281,283,1
304,300,281,280,1
310,299,285,281,1
316,299,290,284,1
320,299,295,289,1
319,299,300,293,1
317,300,304,297,1
314,302,308,300,1
311,304,311,301,1
309,306,312,302,1
304,308,313,302,1
296,311,312,302,1
287,313,311,301,1
279,313,310,301,1
270,313,309,301,1
262,312,309,302,1
258,311,308,302,1
261,309,308,301,1
271,308,307,301,1
286,306,305,301,1
297,304,304,303,1
306,303,303,306,1
313,302,304,309,1
319,303,305,313,1
321,304,308,316,1
319,305,310,319,1
314,305,310,320,1
310,306,310,320,1
306,307,310,319,1
302,307,311,317,1
300,307,311,315,1
304,307,310,312,1
310,307,308,308,1
314,308,307,306,1
314,309,305,304,1
312,309,304,302,1
309,309,303,299,1
306,307,303,297,1
308,305,302,296,1
312,303,302,295,1
316,301,302,294,1
318,300,302,295,1
317,300,301,296,1
316,301,301,298,1
316,304,302,302,1
315,307,304,307,1
312,310,307,312,1
309,312,309,316,1
306,315,312,321,1
304,318,314,325,1
304,321,315,329,1
303,324,316,333,1
303,326,314,335,1
303,326,312,336,1
305,326,309,336,1
305,325,306,335,1
305,324,302,334,1
305,322,299,331,1
304,320,296,326,1
302,316,294,320,1
298,311,295,313,1
295,307,297,309,1
294,304,299,305,1
297,301,300,302,1
302,299,300,299,1
308,298,298,295,1
314,297,296,291,1
319,298,295,288,1
318,300,295,287,1
313,304,298,287,1
308,307,302,291,1
306,309,306,297,1
304,309,309,304,1
302,308,313,311,1
302,307,316,316,1
302,306,320,319,1
304,305,323,320,1
304,305,325,320,1
303,306,327,319,1
302,307,327,319,1
300,309,326,320,1
295,309,325,319,1
288,309,322,319,1
281,308,320,317,1
273,308,318,314,1
267,308,316,309,1
267,308,313,303,1
273,307,312,299,1
283,307,311,296,1
294,307,312,292,1
302,308,312,290,1
308,309,312,290,1
311,310,312,291,1
314,311,312,292,1
316,312,312,294,1
316,312,312,295,1
314,312,312,295,1
312,311,311,296,1
311,311,311,296,1
310,311,311,296,1
309,310,311,298,1
307,308,311,300,1
307,305,311,303,1
307,301,313,307,1
310,296,314,310,1
315,292,314,314,1
319,290,312,318,1
320,292,308,321,1
317,296,302,323,1
311,302,296,322,1
300,308,293,320,1
283,314,293,318,1
266,317,297,314,1
259,317,301,309,1
262,315,306,305,1
271,314,311,302,1
282,315,313,302,1
293,317,315,305,1
301,318,316,310,1
307,319,317,313,1
312,320,316,314,1
315,320,316,311,1
316,318,314,306,1
318,316,313,301,1
319,314,313,297,1
320,313,312,294,1
319,313,313,294,1
317,312,314,294,1
314,312,315,293,1
311,312,317,292,1
308,311,317,291,1
305,310,317,290,1
303,310,317,290,1
301,310,316,291,1
299,310,315,292,1
297,310,314,293,1
296,309,312,293,1
296,309,312,294,1
296,310,311,296,1
296,309,311,298,1
296,307,311,301,1
296,305,311,305,1
296,302,310,308,1
299,300,309,312,1
302,298,307,316,1
307,296,303,318,1
312,295,300,321,1
313,295,298,324,1
306,294,297,326,1
295,293,296,324,1
285,292,296,320,1
280,292,297,316,1
279,294,299,311,1
284,300,302,306,1
297,308,305,304,1
310,317,308,304,1
318,324,310,304,1
319,329,311,305,1
316,331,311,304,1
313,328,311,301,1
311,323,311,298,1
311,317,311,296,1
310,312,311,297,1
310,308,312,299,1
309,305,313,305,1
307,305,314,312,1
307,306,315,319,1
306,309,317,327,1
304,313,318,335,1
301,317,320,341,1
298,320,320,345,1
297,321,320,346,1
297,321,319,345,1
299,320,318,340,1
302,318,316,332,1
306,315,314,322,1
308,313,311,310,1
309,310,308,299,1
310,309,305,291,1
310,307,303,284,1
310,305,302,278,1
309,304,300,273,1
309,302,300,273,1
310,299,300,276,1
311,296,301,283,1
312,293,300,291,1
311,289,300,298,1
308,286,299,304,1
301,285,299,310,1
293,285,299,313,1
281,288,299,312,1
270,291,300,308,1
267,294,300,301,1
276,295,301,293,1
290,297,303,287,1
300,300,304,283,1
307,304,307,282,1
313,308,311,284,1
317,311,315,288,1
319,312,317,293,1
318,311,318,297,1
315,308,317,301,1
312,304,315,304,1
311,302,313,308,1
311,301,312,311,1
312,301,312,314,1
313,301,314,316,1
311,301,315,319,1
309,303,317,319,1
307,304,317,319,1
306,306,317,318,1
308,307,317,317,1
311,308,316,315,1
315,309,315,313,1
316,310,314,311,1
317,310,312,309,1
316,309,311,307,1
315,308,310,304,1
314,307,309,303,1
313,307,308,301,1
314,306,306,302,1
317,305,306,306,1
320,304,305,313,1
323,303,303,320,1
324,301,300,325,1
321,298,297,329,1
316,296,294,330,1
310,294,292,329,1
306,294,293,325,1
305,294,297,319,1
304,294,303,313,1
300,293,308,309,1
296,293,313,305,1
294,294,316,304,1
295,297,318,303,1
297,300,319,303,1
300,304,320,304,1
306,308,321,305,1
311,310,321,305,1
315,312,321,305,1
316,312,319,306,1
313,311,317,307,1
310,309,314,310,1
308,308,312,314,1
308,305,310,317,1
309,304,308,316,1
309,304,306,313,1
309,304,305,307,1
309,304,304,302,1
307,304,304,299,1
305,306,304,298,1
303,307,304,301,1
301,308,304,304,1
300,310,304,308,1
300,311,304,312,1
300,311,302,314,1
297,311,300,314,1
288,309,295,311,1
275,306,291,308,1
269,304,288,305,1
274,301,287,300,1
288,298,288,294,1
301,296,292,289,1
311,295,297,285,1
318,294,302,285,1
322,294,306,285,1
324,295,308,287,1
325,297,310,289,1
326,298,311,294,1
325,300,312,299,1
322,302,313,304,1
315,304,313,308,1
309,306,313,310,1
304,308,312,311,1
302,310,311,309,1
303,313,309,307,1
304,316,307,305,1
307,317,306,304,1
309,315,305,304,1
311,311,306,305,1
314,305,306,307,1
315,300,305,309,1
314,295,302,309,1
311,289,297,307,1
304,284,291,305,1
295,282,286,306,1
288,280,283,309,1
289,281,286,315,1
295,283,292,321,1
300,287,300,325,1
302,293,307,327,1
304,298,313,327,1
306,303,316,325,1
306,305,316,322,1
307,307,315,319,1
309,307,314,317,1
310,308,312,318,1
311,308,311,318,1
312,307,310,317,1
309,305,308,314,1
303,302,306,311,1
297,299,304,312,1
293,297,304,316,1
295,297,304,324,1
299,298,305,332,1
305,299,307,337,1
312,301,309,341,1
318,303,311,341,1
322,305,313,338,1
322,308,314,332,1
320,310,314,325,1
316,312,314,318,1
311,313,312,313,1
307,312,309,309,1
304,311,308,307,1
300,309,307,305,1
296,307,308,304,1
296,305,307,301,1
298,303,307,298,1
303,300,306,298,1
307,296,304,299,1
309,294,302,301,1
309,291,299,303,1
308,291,298,303,1
310,292,298,303,1
313,295,299,300,1
316,300,301,296,1
317,304,303,292,1
316,307,304,290,1
313,308,304,291,1
309,309,303,293,1
302,310,303,295,1
294,310,300,295,1
283,308,297,294,1
273,307,294,292,1
270,307,292,292,1
275,307,292,293,1
287,308,294,296,1
298,309,298,299,1
306,309,302,302,1
310,308,306,304,1
314,306,307,307,1
318,304,308,309,1
323,301,308,309,1
326,299,308,309,1
328,298,308,308,1
328,297,308,308,1
325,297,307,309,1
320,298,306,311,1
314,300,305,312,1
309,304,304,314,1
306,309,304,315,1
304,314,306,316,1
304,316,308,317,1
304,317,311,317,1
303,316,313,319,1
299,313,314,322,1
296,311,315,323,1
292,310,315,324,1
287,310,313,321,1
285,309,312,318,1
285,305,309,315,1
284,302,308,312,1
281,298,306,311,1
277,294,305,309,1
275,293,305,308,1
279,293,305,309,1
287,293,305,311,1
295,294,306,313,1
301,295,307,314,1
304,297,307,315,1
305,300,305,316,1
305,302,303,317,1
307,306,301,319,1
311,310,299,322,1
315,313,298,324,1
320,314,299,325,1
323,313,302,324,1
324,312,305,323,1
324,308,308,323,1
320,304,310,320,1
315,299,310,315,1
311,295,308,311,1
307,292,307,309,1
305,292,306,307,1
305,293,306,307,1
305,295,308,308,1
303,297,309,309,1
298,300,310,311,1
293,303,310,313,1
289,305,310,315,1
288,307,309,316,1
291,308,308,317,1
298,310,308,319,1
306,311,308,320,1
312,313,307,322,1
317,315,306,322,1
320,315,304,321,1
320,314,303,318,1
320,313,303,313,1
318,310,303,308,1
314,308,302,303,1
309,307,303,300,1
303,306,303,297,1
298,305,301,294,1
295,305,298,292,1
297,306,295,291,1
303,307,293,294,1
310,309,292,297,1
314,310,292,299,1
314,311,295,299,1
311,310,299,297,1
305,309,302,295,1
298,308,304,294,1
291,307,304,293,1
285,307,304,293,1
279,308,303,292,1
276,309,303,292,1
275,310,303,292,1
280,311,302,293,1
289,310,301,294,1
300,307,300,295,1
309,304,300,297,1
315,301,300,300,1
318,300,302,304,1
319,300,303,307,1
318,301,305,310,1
315,302,307,314,1
312,304,310,316,1
309,306,312,317,1
306,308,313,317,1
302,309,314,318,1
299,309,315,318,1
301,306,314,319,1
305,304,313,319,1
307,302,312,319,1
306,301,310,319,1
304,301,309,318,1
302,301,307,320,1
303,302,306,321,1
305,302,306,323,1
307,302,305,325,1
310,302,305,328,1
311,301,306,330,1
309,299,306,331,1
302,298,306,331,1
295,299,306,329,1
294,302,307,325,1
296,306,309,321,1
300,310,310,317,1
304,314,310,313,1
307,316,310,310,1
310,317,309,306,1
313,316,308,304,1
315,314,307,302,1
313,313,307,299,1
307,311,306,297,1
302,310,306,294,1
298,309,306,293,1
296,309,306,292,1
296,309,306,291,1
301,309,305,289,1
308,309,304,289,1
314,309,303,291,1
319,308,302,294,1
321,308,303,299,1
321,308,303,305,1
318,308,304,310,1
313,309,305,315,1
306,310,306,316,1
299,311,307,316,1
293,312,309,315,1
290,313,309,313,1
289,313,308,310,1
288,314,304,309,1
288,314,300,310,1
289,315,296,312,1
294,315,293,313,1
302,314,292,312,1
310,312,293,308,1
313,309,295,304,1
313,305,298,301,1
312,302,301,298,1
311,300,302,295,1
310,298,302,293,1
309,298,301,292,1
309,299,301,294,1
307,303,301,297,1
304,307,300,301,1
299,312,301,305,1
296,316,304,307,1
294,320,307,310,1
294,321,309,312,1
296,320,311,314,1
297,319,312,315,1
297,316,312,315,1
297,315,311,315,1
299,313,309,315,1
303,313,307,314,1
308,312,304,312,1
314,310,300,309,1
318,308,296,304,1
319,305,294,299,1
318,304,294,293,1
314,303,296,289,1
307,303,299,287,1
297,303,303,288,1
289,302,306,292,1
286,300,309,297,1
285,300,311,300,1
285,300,311,302,1
286,302,311,302,1
289,303,309,302,1
289,305,307,301,1
287,308,305,300,1
286,311,304,300,1
285,313,304,299,1
284,313,304,298,1
287,313,303,296,1
297,311,302,293,1
307,308,301,291,1
312,304,300,289,1
313,301,300,290,1
314,298,301,292,1
314,296,302,295,1
312,295,303,298,1
310,296,304,301,1
308,300,305,303,1
307,304,305,306,1
308,308,306,308,1
307,312,307,309,1
305,315,307,311,1
306,318,308,313,1
310,319,308,315,1
314,318,308,318,1
318,315,308,323,1
321,312,308,329,1
321,310,308,335,1
319,309,308,340,1
316,310,308,341,1
313,310,308,338,1
311,309,306,332,1
310,307,304,324,1
309,304,301,316,1
308,301,299,310,1
306,300,300,306,1
303,300,300,304,1
301,302,300,302,1
299,304,301,299,1
297,307,301,297,1
297,309,302,295,1
299,310,303,293,1
303,312,304,294,1
307,313,305,296,1
310,313,306,298,1
312,312,306,299,1
311,310,305,300,1
307,308,304,301,1
301,305,303,301,1
297,302,302,301,1
297,299,302,300,1
298,297,301,300,1
299,295,300,301,1
300,294,299,305,1
301,295,299,310,1
304,298,300,316,1
307,301,302,321,1
311,305,302,325,1
313,309,304,325,1
312,312,305,323,1
305,314,306,320,1
295,315,307,316,1
286,315,306,311,1
279,315,304,304,1
274,313,302,296,1
273,311,298,290,1
278,309,295,288,1
284,310,291,289,1
288,311,288,296,1
291,313,287,306,1
295,312,287,317,1
301,311,290,327,1
307,309,294,333,1
312,308,297,334,1
315,307,299,331,1
317,308,302,327,1
320,309,303,323,1
323,312,304,318,1
324,314,303,315,1
324,317,302,313,1
322,318,302,311,1
321,318,304,309,1
324,318,307,307,1
328,316,310,306,1
330,314,313,305,1
326,311,314,304,1
319,310,315,302,1
309,309,315,300,1
297,309,314,298,1
283,308,312,295,1
270,306,310,292,1
267,304,308,291,1
273,301,307,290,1
283,299,306,290,1
292,298,305,291,1
299,298,304,294,1
303,298,304,298,1
306,301,304,301,1
308,304,305,304,1
311,308,306,306,1
312,312,306,307,1
312,313,306,306,1
311,314,307,306,1
311,315,306,306,1
310,315,306,307,1
309,314,306,308,1
307,313,306,310,1
307,313,306,311,1
309,313,306,312,1
310,314,305,313,1
309,313,304,314,1
308,311,303,313,1
305,309,302,314,1
304,307,302,315,1
304,305,304,319,1
303,304,305,322,1
302,303,307,326,1
299,304,308,326,1
295,305,309,324,1
288,307,309,320,1
281,308,309,316,1
277,309,308,312,1
279,309,308,309,1
283,309,307,306,1
288,308,307,303,1
291,306,307,300,1
293,303,307,298,1
294,303,306,297,1
297,303,306,298,1
300,302,305,301,1
304,301,305,304,1
309,300,305,307,1
314,299,305,309,1
318,300,305,313,1
319,302,306,318,1
319,304,307,324,1
319,308,309,330,1
317,311,311,334,1
316,314,313,337,1
314,317,314,338,1
314,319,314,336,1
314,320,313,332,1
314,319,310,327,1
315,318,306,323,1
315,318,301,321,1
315,317,298,320,1
314,317,296,319,1
311,317,296,316,1
305,316,298,312,1
299,315,301,307,1
293,313,304,303,1
292,311,306,300,1
294,308,309,298,1
296,305,310,297,1
296,301,310,296,1
296,298,310,297,1
298,295,309,299,1
302,295,310,302,1
305,297,309,305,1
305,300,309,305,1
302,304,308,305,1
297,306,307,303,1
291,309,306,298,1
287,309,303,292,1
287,310,301,286,1
292,309,299,282,1
299,307,299,281,1
305,306,299,283,1
310,305,300,286,1
313,306,301,290,1
315,306,301,293,1
318,308,301,295,1
320,309,300,295,1
320,309,298,295,1
318,308,294,295,1
315,307,291,295,1
310,305,288,295,1
305,305,288,297,1
299,306,290,300,1
294,307,295,304,1
291,308,301,308,1
290,308,306,312,1
292,309,310,315,1
294,311,313,318,1
294,313,315,321,1
293,314,315,325,1
290,315,314,328,1
284,315,313,329,1
279,314,310,327,1
282,310,308,321,1
291,304,307,314,1
303,300,305,305,1
314,296,305,299,1
322,296,305,294,1
325,296,305,294,1
325,297,307,298,1
323,298,308,305,1
320,300,310,313,1
317,302,312,321,1
314,305,313,327,1
312,307,314,331,1
311,308,314,332,1
310,309,314,332,1
309,308,313,330,1
310,307,311,326,1
314,305,309,321,1
319,304,308,316,1
323,304,307,311,1
325,305,305,306,1
324,304,305,301,1
319,303,303,295,1
313,302,303,292,1
310,302,304,293,1
312,302,305,298,1
316,303,308,303,1
320,304,310,309,1
323,304,312,315,1
324,304,313,319,1
321,305,314,322,1
316,305,313,321,1
312,306,312,317,1
309,307,310,311,1
306,309,308,306,1
303,313,307,304,1
301,316,306,301,1
301,320,305,300,1
303,322,303,299,1
303,322,300,299,1
302,322,298,301,1
304,322,296,303,1
304,321,294,304,1
305,318,294,303,1
306,314,296,301,1
306,308,299,299,1
305,304,301,297,1
303,301,302,296,1
301,300,304,297,1
299,299,304,298,1
298,299,304,299,1
299,300,304,299,1
302,300,304,298,1
304,301,304,297,1
306,302,305,298,1
308,302,305,298,1
310,303,305,297,1
311,303,304,296,1
311,302,302,295,1
308,300,300,296,1
303,298,299,297,1
296,297,298,300,1
290,295,298,303,1
286,294,297,306,1
285,292,297,308,1
286,290,297,309,1
291,288,297,312,1
299,288,299,315,1
306,289,301,319,1
308,291,304,320,1
302,294,306,320,1
296,298,306,319,1
290,301,306,317,1
290,304,304,315,1
296,306,304,313,1
306,309,303,312,1
316,313,303,311,1
325,316,303,311,1
330,319,303,313,1
330,318,302,316,1
328,316,302,319,1
325,313,301,321,1
321,310,300,323,1
318,308,300,324,1
317,306,300,325,1
316,304,302,327,1
317,304,304,329,1
318,304,305,331,1
318,304,306,332,1
318,305,306,331,1
315,306,307,327,1
310,307,305,320,1
302,308,304,312,1
295,309,303,307,1
291,311,302,306,1
290,312,303,309,1
293,313,303,316,1
298,313,303,324,1
303,313,303,330,1
307,312,301,333,1
304,312,299,331,1
297,310,297,326,1
294,309,295,319,1
297,307,295,312,1
303,306,297,307,1
309,305,298,302,1
312,306,300,299,1
314,307,302,297,1
315,309,303,296,1
313,312,303,296,1
309,314,304,297,1
303,314,303,296,1
297,313,302,295,1
291,310,301,294,1
287,308,300,292,1
288,305,300,291,1
294,303,300,290,1
302,301,299,288,1
309,301,299,287,1
313,302,299,288,1
314,305,299,289,1
314,309,300,291,1
313,312,299,293,1
312,314,299,297,1
313,315,299,301,1
315,315,298,304,1
317,314,297,307,1
317,313,296,309,1
315,313,296,310,1
311,312,296,310,1
306,311,296,311,1
301,311,299,311,1
296,311,303,311,1
294,310,307,312,1
295,309,311,314,1
296,308,313,318,1
298,307,315,323,1
299,307,314,328,1
299,308,311,331,1
299,308,308,330,1
301,309,305,327,1
305,309,303,322,1
311,309,302,315,1
317,310,301,307,1
323,310,302,300,1
328,310,302,296,1
330,308,304,294,1
330,307,305,294,1
327,306,306,297,1
322,307,307,299,1
315,307,307,300,1
308,308,308,300,1
302,309,308,299,1
302,310,307,298,1
304,311,307,297,1
305,311,307,297,1
305,311,306,299,1
303,311,306,303,1
302,312,305,307,1
300,312,304,311,1
300,312,303,313,1
299,312,302,313,1
300,311,301,312,1
301,309,302,309,1
302,308,302,305,1
304,305,304,302,1
308,303,305,302,1
311,302,306,305,1
314,302,307,311,1
315,302,308,318,1
316,303,309,324,1
318,304,309,327,1
317,307,309,328,1
314,309,308,328,1
306,312,307,327,1
298,315,307,325,1
289,316,307,322,1
281,316,307,318,1
277,315,306,314,1
278,314,304,308,1
283,313,299,300,1
289,310,293,293,1
294,307,287,288,1
297,303,282,288,1
300,299,280,288,1
302,297,282,290,1
304,297,286,291,1
306,299,292,292,1
308,301,299,292,1
309,303,305,292,1
309,305,310,292,1
308,306,313,292,1
308,307,313,292,1
310,308,313,293,1
313,309,311,294,1
313,311,309,294,1
311,313,307,295,1
308,314,306,297,1
305,316,305,299,1
301,317,304,301,1
295,316,304,303,1
290,312,301,305,1
290,307,298,309,1
297,302,295,314,1
308,298,294,320,1
319,297,295,329,1
326,296,297,337,1
328,296,302,345,1
325,298,307,350,1
320,299,312,351,1
316,301,316,348,1
312,303,318,343,1
310,304,320,338,1
307,306,320,333,1
306,307,319,330,1
306,307,317,327,1
304,307,315,325,1
303,307,312,322,1
304,308,310,317,1
308,308,309,311,1
314,308,307,303,1
318,306,306,293,1
319,303,304,286,1
318,301,302,282,1
314,298,301,281,1
311,297,301,284,1
310,297,302,287,1
309,297,305,292,1
308,297,307,298,1
307,298,311,302,1
307,300,313,306,1
306,302,314,309,1
305,304,315,310,1
304,305,315,306,1
302,306,314,302,1
302,306,312,298,1
303,305,311,296,1
303,304,310,297,1
304,304,309,299,1
306,303,308,302,1
306,303,308,305,1
303,304,308,308,1
298,303,307,309,1
291,302,306,309,1
284,300,305,309,1
277,298,304,308,1
274,295,303,306,1
276,293,303,307,1
284,294,305,309,1
294,297,307,313,1
303,301,309,315,1
310,305,309,314,1
315,308,308,310,1
318,311,305,305,1
317,313,303,300,1
316,314,302,296,1
314,314,303,294,1
314,313,305,293,1
314,311,307,293,1
315,310,309,294,1
317,308,311,295,1
318,306,311,294,1
319,304,310,294,1
319,302,309,294,1
319,300,307,294,1
320,299,307,295,1
323,298,307,297,1
326,298,308,300,1
327,297,308,302,1
326,297,310,304,1
324,298,312,306,1
321,299,313,308,1
318,301,314,311,1
315,302,316,316,1
311,306,317,321,1
307,309,317,328,1
305,313,316,334,1
304,316,312,339,1
303,317,307,343,1
303,316,302,345,1
301,315,296,348,1
299,311,293,348,1
297,307,293,348,1
298,304,296,345,1
299,300,300,339,1
299,297,305,332,1
298,295,310,324,1
300,296,314,314,1
305,297,317,302,1
310,299,318,292,1
314,302,318,285,1
314,305,319,282,1
312,309,319,281,1
309,312,319,281,1
306,314,317,282,1
303,316,316,283,1
299,317,314,283,1
296,317,313,284,1
291,316,312,285,1
287,313,311,288,1
283,310,311,292,1
281,308,310,296,1
281,307,310,300,1
280,305,309,303,1
281,303,309,306,1
286,301,309,308,1
294,299,309,309,1
302,298,310,309,1
311,298,312,310,1
318,300,314,309,1
322,302,316,308,1
322,304,317,305,1
319,305,317,305,1
314,306,317,306,1
309,307,316,309,1
304,307,316,312,1
300,308,315,314,1
295,309,314,317,1
291,309,312,321,1
288,309,312,325,1
288,310,312,328,1
290,311,311,328,1
295,311,309,326,1
303,312,307,323,1
308,312,304,319,1
312,313,302,312,1
313,313,300,304,1
313,312,299,297,1
313,311,298,290,1
312,309,300,284,1
313,308,302,280,1
314,308,304,279,1
314,310,305,279,1
314,310,306,281,1
313,311,306,283,1
310,310,307,287,1
307,309,308,290,1
303,308,308,293,1
299,308,308,294,1
295,309,307,294,1
291,309,306,292,1
293,308,304,291,1
300,307,304,291,1
309,304,304,292,1
317,302,305,293,1
321,300,306,295,1
323,299,307,297,1
321,299,308,299,1
320,300,309,303,1
319,302,311,309,1
317,305,313,314,1
314,308,314,321,1
309,311,316,327,1
306,314,317,331,1
305,315,315,334,1
305,314,309,336,1
306,313,302,338,1
309,310,295,338,1
313,307,288,338,1
315,306,284,336,1
316,306,286,334,1
316,306,292,331,1
316,305,299,325,1
316,302,306,317,1
316,301,312,310,1
315,299,315,305,1
314,299,316,303,1
312,301,318,305,1
310,304,319,309,1
307,306,321,313,1
305,308,323,317,1
303,311,324,321,1
300,312,324,323,1
298,312,322,321,1
297,310,321,318,1
297,309,319,313,1
298,308,317,309,1
299,309,315,305,1
300,311,313,301,1
301,313,311,296,1
302,314,309,292,1
301,314,307,288,1
299,312,305,287,1
298,310,304,286,1
298,307,303,289,1
299,305,303,295,1
300,303,305,304,1
300,302,307,314,1
300,303,308,321,1
300,304,310,327,1
303,306,311,329,1
310,307,311,329,1
315,309,311,328,1
317,311,310,327,1
314,311,310,324,1
310,311,309,320,1
306,310,309,314,1
302,308,307,306,1
296,306,304,299,1
292,304,300,292,1
295,301,296,287,1
300,300,292,285,1
304,300,291,286,1
309,304,292,288,1
315,307,294,291,1
318,309,297,295,1
321,308,301,299,1
322,306,305,304,1
322,306,308,308,1
320,306,310,309,1
317,306,311,309,1
314,306,311,308,1
312,305,310,310,1
311,304,310,314,1
312,304,309,320,1
312,304,309,325,1
312,304,310,329,1
311,305,311,333,1
309,305,311,334,1
308,306,310,333,1
308,306,309,330,1
308,306,309,324,1
309,304,309,316,1
310,302,307,308,1
311,299,306,302,1
310,297,305,298,1
310,296,304,296,1
310,296,304,294,1
310,296,303,292,1
308,297,301,291,1
306,298,298,289,1
304,301,294,288,1
305,302,288,287,1
311,304,283,286,1
319,306,279,287,1
324,307,278,288,1
324,306,280,291,1
321,304,286,296,1
317,302,294,301,1
311,301,301,306,1
304,301,306,310,1
299,301,309,312,1
295,301,312,313,1
294,300,314,313,1
293,299,316,313,1
294,298,316,314,1
297,298,317,317,1
301,298,317,320,1
304,300,317,321,1
303,302,315,321,1
302,305,314,319,1
298,309,312,317,1
295,312,311,314,1
294,315,309,312,1
298,316,308,311,1
305,315,307,311,1
311,314,307,312,1
316,313,307,313,1
317,313,307,313,1
317,312,306,311,1
317,312,306,308,1
316,310,305,303,1
315,308,304,300,1
315,306,304,299,1
316,304,304,300,1
317,302,305,301,1
317,300,305,304,1
315,299,305,306,1
311,299,306,308,1
305,300,308,311,1
298,302,310,314,1
292,304,312,316,1
285,304,312,316,1
279,304,311,315,1
277,304,308,312,1
280,304,305,309,1
283,304,303,306,1
287,306,302,304,1
294,307,302,303,1
302,308,301,302,1
308,308,300,301,1
315,308,299,302,1
321,307,299,304,1
326,306,299,306,1
328,304,299,309,1
326,301,299,312,1
323,297,300,315,1
319,293,302,319,1
316,291,303,322,1
316,291,305,322,1
317,294,306,321,1
320,297,308,317,1
319,300,308,310,1
314,302,308,304,1
306,305,308,298,1
300,307,306,295,1
297,308,302,294,1
296,309,296,295,1
296,309,290,296,1
300,309,283,296,1
307,309,279,297,1
313,308,277,299,1
317,307,280,300,1
320,305,285,303,1
324,304,293,306,1
326,303,301,309,1
326,302,308,311,1
324,303,314,313,1
323,303,318,314,1
323,303,320,314,1
324,303,320,316,1
325,303,320,320,1
323,304,319,327,1
317,305,317,333,1
310,307,316,336,1
302,308,314,335,1
297,309,312,331,1
296,308,310,325,1
296,307,309,319,1
298,305,307,312,1
298,303,305,305,1
297,302,303,298,1
296,300,301,293,1
296,300,300,289,1
296,299,299,287,1
298,298,299,287,1
300,298,299,288,1
301,297,300,290,1
301,297,301,293,1
301,297,302,295,1
300,298,303,297,1
299,299,304,298,1
299,300,304,301,1
300,300,305,304,1
302,299,305,306,1
304,298,305,309,1
306,298,305,310,1
307,299,305,311,1
306,301,303,311,1
304,305,302,311,1
302,308,301,311,1
299,310,300,310,1
297,311,300,307,1
297,311,300,306,1
300,308,300,306,1
305,304,299,308,1
309,299,298,308,1
311,296,298,309,1
310,293,299,310,1
305,293,301,312,1
299,296,303,314,1
292,302,306,314,1
285,307,306,313,1
283,311,306,313,1
284,314,305,312,1
290,315,304,313,1
297,316,303,313,1
304,316,301,315,1
308,316,300,317,1
309,315,300,318,1
308,314,299,319,1
307,311,299,316,1
306,308,299,311,1
308,305,298,305,1
313,303,298,300,1
317,301,298,297,1
318,301,299,295,1
318,301,299,294,1
317,301,300,293,1
316,301,300,293,1
313,302,301,293,1
309,305,301,296,1
310,309,303,301,1
312,314,305,306,1
316,318,306,312,1
317,323,306,315,1
316,326,304,316,1
311,328,301,315,1
305,328,297,313,1
302,327,292,312,1
301,324,289,311,1
303,318,287,312,1
306,313,287,314,1
310,308,290,316,1
314,304,295,316,1
316,301,302,316,1
315,300,306,315,1
313,301,308,313,1
312,302,310,310,1
311,304,311,307,1
311,306,311,305,1
311,309,310,304,1
310,310,308,304,1
310,311,307,303,1
310,311,306,304,1
310,312,306,305,1
309,312,305,306,1
308,311,304,306,1
306,310,302,304,1
304,308,301,305,1
304,307,299,306,1
303,305,298,310,1
302,304,298,313,1
303,302,300,315,1
304,300,301,318,1
308,299,302,320,1
314,298,304,322,1
323,298,305,323,1
329,299,307,322,1
331,300,307,319,1
328,301,308,315,1
321,302,308,311,1
313,303,308,307,1
305,304,307,306,1
297,304,307,305,1
291,305,305,305,1
288,305,303,307,1
285,306,301,309,1
284,306,298,311,1
282,306,297,310,1
280,306,296,308,1
278,305,297,304,1
280,304,298,301,1
288,302,301,300,1
299,300,304,300,1
308,299,306,302,1
314,298,307,306,1
314,300,308,312,1
309,302,307,318,1
304,304,307,323,1
298,306,307,328,1
295,308,308,332,1
295,308,309,334,1
298,309,310,333,1
303,311,311,330,1
308,314,312,323,1
313,316,313,316,1
316,317,313,309,1
319,317,312,303,1
320,318,310,298,1
315,318,308,293,1
307,318,305,291,1
298,318,302,291,1
292,315,300,294,1
289,312,299,296,1
292,310,297,298,1
299,307,296,301,1
310,303,295,305,1
317,301,296,309,1
319,300,297,315,1
318,300,300,318,1
316,300,303,320,1
317,302,306,319,1
318,304,308,315,1
317,306,310,309,1
315,309,310,303,1
313,310,309,298,1
311,310,308,293,1
308,309,306,288,1
305,308,304,284,1
303,307,303,280,1
302,306,301,277,1
300,304,300,277,1
302,304,301,277,1
305,304,301,279,1
309,305,303,283,1
312,305,304,288,1
314,306,306,295,1
313,308,308,301,1
310,311,310,306,1
312,312,312,309,1
315,312,314,312,1
314,312,315,314,1
306,312,315,316,1
297,313,314,319,1
290,314,313,321,1
288,314,311,322,1
292,314,310,322,1
300,314,309,323,1
310,314,309,322,1
319,313,308,319,1
323,313,308,313,1
324,310,306,306,1
322,307,304,301,1
320,304,302,298,1
318,301,301,297,1
318,297,300,299,1
318,295,300,303,1
318,295,298,309,1
318,296,297,314,1
317,299,295,319,1
315,303,295,322,1
313,307,297,322,1
311,310,301,321,1
309,313,307,319,1
308,316,311,316,1
308,317,315,313,1
308,316,317,311,1
307,314,318,309,1
306,312,318,307,1
304,309,318,306,1
305,307,316,303,1
307,305,315,299,1
310,303,313,297,1
312,301,311,297,1
312,301,309,297,1
311,302,307,299,1
313,303,307,302,1
319,306,308,307,1
324,308,310,312,1
325,311,312,315,1
322,314,313,315,1
316,316,312,313,1
308,316,311,311,1
301,316,310,309,1
298,316,309,307,1
296,315,309,305,1
295,313,308,303,1
294,311,307,302,1
294,308,307,304,1
296,306,306,307,1
297,305,306,308,1
299,303,305,307,1
300,300,304,305,1
302,298,304,302,1
301,296,304,299,1
298,296,305,296,1
292,296,306,293,1
286,298,306,291,1
283,300,307,291,1
283,304,308,292,1
285,308,308,293,1
287,313,309,293,1
288,317,309,293,1
290,320,309,292,1
289,321,307,289,1
287,321,305,285,1
286,320,303,283,1
290,319,301,282,1
296,316,297,284,1
300,313,294,286,1
303,310,292,288,1
305,307,290,289,1
309,305,291,291,1
312,303,294,293,1
316,302,299,295,1
320,303,306,299,1
326,306,312,304,1
330,308,317,309,1
331,311,320,315,1
330,312,322,319,1
328,313,324,323,1
327,312,325,324,1
326,312,325,325,1
324,312,324,325,1
324,312,322,324,1
323,312,321,324,1
322,310,318,325,1
319,309,316,327,1
317,307,314,328,1
317,305,313,328,1
318,302,311,326,1
318,300,310,323,1
317,298,309,318,1
313,297,309,312,1
309,297,308,306,1
305,297,309,301,1
301,297,310,298,1
299,296,311,297,1
303,296,312,298,1
311,297,313,301,1
317,299,314,305,1
320,302,314,310,1
319,304,314,315,1
315,307,314,319,1
311,310,314,321,1
308,314,313,323,1
306,318,314,324,1
304,320,315,321,1
302,320,315,319,1
301,320,315,315,1
300,320,315,312,1
301,318,314,308,1
302,315,314,304,1
303,311,314,300,1
305,307,314,297,1
308,305,313,294,1
312,303,311,292,1
316,302,307,291,1
318,302,300,289,1
318,303,294,289,1
316,305,288,289,1
314,306,288,290,1
310,308,291,292,1
307,309,296,294,1
303,310,301,295,1
299,311,305,296,1
295,311,308,295,1
294,310,310,294,1
293,308,311,294,1
293,307,312,295,1
292,306,311,296,1
291,305,310,297,1
291,304,309,298,1
292,303,308,299,1
294,302,307,300,1
298,302,308,302,1
300,302,308,303,1
298,304,308,308,1
296,307,307,315,1
295,309,305,324,1
296,312,303,331,1
298,314,300,335,1
303,315,298,336,1
310,316,298,334,1
315,317,300,329,1
319,318,303,323,1
320,317,307,317,1
319,316,309,311,1
317,313,311,305,1
312,310,311,300,1
309,306,311,297,1
303,303,309,296,1
298,301,307,298,1
293,299,305,299,1
294,297,304,300,1
300,296,303,301,1
308,296,303,301,1
315,299,304,302,1
318,302,305,302,1
319,306,306,304,1
321,310,307,309,1
323,311,307,316,1
321,312,307,324,1
315,313,306,331,1
307,315,305,335,1
300,317,305,337,1
292,319,304,337,1
284,320,304,333,1
276,320,304,326,1
269,319,303,318,1
268,315,301,311,1
274,310,300,304,1
282,306,300,298,1
292,303,301,294,1
304,301,302,292,1
315,300,303,293,1
322,300,305,295,1
325,302,306,298,1
325,304,308,303,1
324,308,310,309,1
323,312,311,314,1
322,313,312,317,1
320,314,311,317,1
319,314,309,316,1
317,313,307,315,1
314,313,306,314,1
311,312,304,313,1
307,311,303,310,1
304,310,302,305,1
302,308,302,300,1
302,306,302,294,1
304,304,301,290,1
307,302,297,286,1
308,299,291,284,1
309,297,283,283,1
310,296,276,283,1
311,295,272,284,1
312,296,271,287,1
316,297,276,290,1
321,298,285,292,1
323,300,294,294,1
320,301,303,294,1
313,302,309,293,1
307,302,313,292,1
301,304,315,291,1
297,304,316,292,1
293,305,315,295,1
292,306,315,298,1
293,307,315,303,1
296,308,315,309,1
300,309,316,316,1
303,309,316,323,1
304,309,315,329,1
305,308,314,332,1
305,308,314,333,1
306,307,314,333,1
307,307,313,332,1
309,307,313,329,1
310,307,312,327,1
310,308,312,325,1
309,308,312,323,1
306,309,311,320,1
304,310,309,317,1
302,310,307,315,1
302,309,306,315,1
303,308,305,317,1
305,305,305,319,1
307,303,305,321,1
311,301,304,324,1
316,300,303,324,1
320,298,302,322,1
321,294,301,317,1
319,290,301,311,1
315,286,301,307,1
309,284,301,304,1
300,282,301,302,1
294,283,302,304,1
297,287,303,308,1
303,291,304,315,1
306,295,305,322,1
303,300,305,328,1
298,305,305,330,1
290,309,306,329,1
285,313,307,326,1
283,315,307,320,1
285,315,308,314,1
286,315,307,308,1
289,314,307,303,1
297,313,307,299,1
308,312,306,297,1
316,310,305,295,1
323,306,304,294,1
326,303,303,294,1
328,299,302,295,1
327,297,301,296,1
325,297,301,296,1
322,297,301,297,1
320,299,302,299,1
317,302,303,301,1
316,305,305,304,1
314,308,307,306,1
312,310,309,309,1
309,311,311,312,1
306,313,312,314,1
304,313,312,315,1
302,312,312,313,1
300,311,311,310,1
300,310,310,305,1
301,310,308,301,1
302,308,305,297,1
304,306,303,295,1
305,304,301,293,1
305,302,299,292,1
304,301,298,292,1
302,299,297,293,1
299,298,296,296,1
296,296,294,298,1
295,293,289,300,1
298,292,285,301,1
304,293,280,300,1
312,294,278,298,1
319,297,279,297,1
325,299,285,297,1
329,301,295,298,1
331,301,303,299,1
328,301,311,302,1
321,301,317,308,1
314,301,320,314,1
310,303,322,321,1
306,304,322,326,1
303,305,321,330,1
300,306,320,330,1
297,308,318,330,1
295,307,316,329,1
295,306,314,327,1
298,305,313,324,1
301,303,313,323,1
303,303,313,322,1
304,304,313,323,1
305,306,314,324,1
304,308,314,324,1
304,311,313,322,1
303,312,310,319,1
303,313,310,316,1
302,313,309,313,1
301,314,309,311,1
300,313,307,310,1
299,313,306,309,1
300,312,304,307,1
301,309,303,304,1
302,305,302,300,1
305,301,301,296,1
309,296,301,291,1
311,290,301,288,1
309,285,301,287,1
303,281,300,287,1
295,280,299,288,1
288,280,299,290,1
285,282,298,291,1
286,286,298,292,1
288,293,297,294,1
292,299,297,296,1
297,305,298,298,1
302,311,299,300,1
305,314,302,303,1
308,316,304,305,1
310,316,305,307,1
309,317,306,309,1
308,317,306,313,1
305,319,306,317,1
302,320,305,321,1
298,320,305,324,1
298,318,306,326,1
299,316,306,326,1
302,313,307,326,1
305,310,307,326,1
307,308,308,326,1
309,306,308,324,1
311,305,308,320,1
312,305,309,314,1
312,305,308,308,1
310,305,305,302,1
307,305,302,298,1
303,306,298,294,1
298,306,293,293,1
294,307,289,292,1
291,309,283,292,1
288,310,280,290,1
288,310,278,288,1
291,310,279,288,1
295,308,283,289,1
298,305,288,291,1
298,301,294,293,1
300,297,301,298,1
306,294,308,305,1
311,292,313,314,1
313,290,316,324,1
312,289,318,334,1
310,290,320,344,1
309,295,321,351,1
311,301,322,355,1
314,307,322,355,1
316,311,322,351,1
319,313,321,345,1
319,313,319,337,1
319,313,316,328,1
318,312,313,319,1
318,311,312,312,1
318,310,310,308,1
316,309,310,306,1
312,307,309,304,1
310,305,308,301,1
310,302,308,297,1
311,299,308,294,1
314,297,307,292,1
318,295,307,292,1
320,293,306,292,1
321,292,306,293,1
322,292,306,293,1
320,293,306,292,1
312,294,305,291,1
304,297,305,290,1
300,300,305,291,1
300,303,306,292,1
302,304,307,295,1
302,304,307,297,1
302,303,307,301,1
302,301,306,305,1
303,300,306,309,1
304,300,306,312,1
304,302,306,313,1
304,303,306,314,1
304,306,306,315,1
305,308,307,317,1
306,307,308,318,1
306,306,309,320,1
305,303,309,321,1
305,302,309,324,1
304,302,310,326,1
303,304,311,325,1
302,305,311,323,1
300,306,311,319,1
298,306,309,315,1
297,307,307,311,1
298,308,305,308,1
301,308,304,306,1
303,309,304,304,1
303,308,303,304,1
301,308,303,303,1
299,308,302,304,1
294,307,302,305,1
290,307,301,306,1
288,306,302,307,1
290,304,302,308,1
295,303,301,310,1
303,301,299,311,1
312,301,298,313,1
319,301,298,313,1
323,303,299,315,1
326,305,302,317,1
326,306,306,321,1
325,308,309,326,1
321,310,310,329,1
316,311,310,331,1
313,312,308,331,1
310,313,307,327,1
308,313,306,323,1
308,313,307,318,1
309,313,309,313,1
310,312,311,308,1
311,311,312,303,1
312,308,311,298,1
314,305,309,293,1
315,301,307,290,1
315,299,305,290,1
313,298,306,293,1
311,298,307,296,1
307,299,309,298,1
303,301,310,299,1
298,302,311,299,1
291,304,313,301,1
285,306,313,304,1
278,307,313,308,1
274,308,311,311,1
275,308,310,312,1
284,308,309,310,1
295,307,309,308,1
304,307,308,307,1
311,307,308,307,1
313,308,307,307,1
313,307,307,307,1
311,305,307,307,1
310,302,307,305,1
313,299,307,304,1
318,296,306,301,1
324,294,306,299,1
329,293,306,297,1
333,294,306,295,1
335,296,306,294,1
336,300,305,295,1
336,305,305,295,1
336,310,304,296,1
337,314,305,296,1
336,318,304,295,1
328,319,304,294,1
315,318,305,295,1
301,316,306,297,1
292,314,308,300,1
288,312,309,305,1
287,311,309,310,1
287,310,308,313,1
288,309,306,314,1
289,308,304,313,1
290,307,302,312,1
292,307,300,311,1
294,306,299,311,1
297,307,299,310,1
299,308,300,309,1
298,309,301,308,1
294,311,302,304,1
289,312,303,298,1
284,312,303,292,1
281,311,301,286,1
284,309,300,283,1
290,307,299,283,1
298,306,299,286,1
304,305,298,291,1
306,305,297,297,1
306,305,294,303,1
306,305,292,308,1
311,305,289,311,1
317,305,288,314,1
324,305,290,316,1
330,307,294,320,1
333,309,300,324,1
332,309,304,328,1
327,308,307,330,1
322,306,307,330,1
318,307,307,331,1
317,310,306,331,1
316,313,307,330,1
315,316,309,329,1
313,317,309,326,1
310,316,310,321,1
307,316,310,316,1
305,315,309,310,1
303,315,308,303,1
300,313,306,295,1
296,310,303,288,1
291,306,301,282,1
289,303,299,278,1
291,298,298,277,1
294,295,299,278,1
296,292,301,282,1
298,291,303,287,1
298,291,305,292,1
299,293,308,296,1
301,295,310,300,1
304,298,313,303,1
307,301,315,306,1
310,303,315,307,1
312,304,313,307,1
311,306,312,306,1
307,309,310,306,1
304,313,309,307,1
302,318,308,308,1
300,322,308,312,1
297,325,307,316,1
294,326,306,320,1
290,325,305,325,1
289,323,303,329,1
294,321,301,333,1
300,318,301,335,1
306,315,301,335,1
310,314,302,332,1
312,312,302,326,1
312,311,303,320,1
311,310,305,313,1
309,311,308,308,1
307,312,309,303,1
306,313,309,298,1
306,313,308,293,1
306,313,306,290,1
305,312,305,289,1
303,311,303,289,1
301,310,302,289,1
298,310,301,291,1
296,310,301,295,1
296,310,300,298,1
298,310,297,299,1
301,310,294,297,1
303,308,290,295,1
302,305,286,294,1
302,304,285,295,1
302,303,286,298,1
302,302,290,302,1
299,303,295,306,1
293,304,302,311,1
284,306,308,316,1
278,309,314,321,1
280,312,318,326,1
287,314,321,328,1
294,315,321,329,1
300,314,319,329,1
304,312,317,327,1
307,310,315,324,1
309,309,312,321,1
309,309,310,318,1
307,308,307,314,1
303,308,304,310,1
300,308,301,305,1
298,307,298,302,1
298,306,295,298,1
300,304,291,295,1
303,303,289,293,1
305,303,288,292,1
305,303,289,293,1
305,304,291,296,1
305,305,294,300,1
309,306,298,302,1
314,307,301,301,1
317,308,304,299,1
318,309,304,296,1
316,309,304,293,1
315,309,303,290,1
313,309,303,289,1
312,309,303,290,1
313,310,304,293,1
313,311,304,297,1
313,311,304,302,1
308,310,302,307,1
303,309,301,312,1
298,308,300,316,1
295,306,300,318,1
293,305,302,320,1
297,303,304,322,1
303,301,306,322,1
308,299,308,321,1
310,298,310,319,1
309,299,312,316,1
306,300,313,313,1
303,300,313,311,1
299,302,313,309,1
295,304,313,308,1
294,306,312,307,1
294,308,311,306,1
296,309,311,304,1
298,310,310,304,1
300,311,310,306,1
300,311,310,307,1
298,310,308,307,1
295,309,307,308,1
292,308,307,309,1
295,306,306,310,1
302,303,306,314,1
310,302,305,319,1
316,303,306,322,1
320,304,306,323,1
322,307,308,323,1
322,310,309,322,1
320,313,310,320,1
320,317,310,318,1
319,320,308,315,1
319,320,306,312,1
316,320,303,308,1
311,317,299,305,1
302,314,297,302,1
290,311,296,299,1
279,310,297,297,1
276,311,301,294,1
284,312,304,291,1
295,314,307,288,1
306,315,309,286,1
313,315,310,285,1
317,312,311,285,1
320,307,312,287,1
320,302,313,289,1
319,300,314,291,1
318,299,315,293,1
316,300,315,295,1
314,301,315,296,1
312,303,314,297,1
310,305,313,297,1
308,306,312,297,1
305,308,309,300,1
304,310,307,303,1
303,313,305,307,1
303,314,303,310,1
303,314,302,313,1
303,314,303,315,1
303,313,304,316,1
301,311,304,317,1
297,308,303,316,1
293,306,301,314,1
292,304,299,311,1
298,303,299,307,1
307,304,301,304,1
317,305,303,303,1
325,306,306,303,1
328,307,309,303,1
327,308,311,304,1
322,309,313,304,1
317,310,313,301,1
312,311,312,298,1
308,311,311,296,1
305,311,310,295,1
302,312,309,295,1
298,311,309,297,1
295,312,308,297,1
293,311,308,297,1
293,310,307,295,1
295,308,305,293,1
299,305,303,291,1
304,303,301,291,1
308,302,300,291,1
310,302,299,294,1
311,303,299,296,1
310,304,300,299,1
309,306,301,302,1
307,307,303,304,1
305,309,305,305,1
304,311,306,307,1
303,313,308,309,1
303,314,309,312,1
303,316,310,315,1
302,317,310,318,1
298,316,310,320,1
291,313,309,321,1
288,309,305,320,1
291,303,301,318,1
294,298,296,314,1
295,294,293,311,1
296,291,293,310,1
297,290,294,311,1
297,291,299,315,1
297,293,303,319,1
298,296,308,322,1
301,300,312,323,1
304,304,314,323,1
307,308,315,320,1
307,310,316,317,1
306,312,315,313,1
305,313,313,308,1
304,313,311,305,1
306,312,310,305,1
309,311,309,306,1
312,310,309,308,1
314,310,307,309,1
314,310,304,308,1
314,310,302,305,1
315,310,300,302,1
317,309,299,300,1
318,308,299,300,1
318,307,302,302,1
317,306,305,306,1
313,305,308,310,1
307,306,310,314,1
303,308,312,317,1
301,310,313,319,1
300,313,313,320,1
299,315,314,319,1
299,316,314,318,1
300,315,312,315,1
299,313,310,312,1
295,310,308,306,1
292,308,305,301,1
289,308,302,297,1
289,307,299,297,1
294,307,298,297,1
301,307,298,297,1
305,307,298,296,1
307,306,298,294,1
309,303,300,292,1
310,301,302,290,1
311,300,304,290,1
313,299,306,292,1
314,299,308,295,1
315,300,311,299,1
315,302,314,304,1
314,304,316,311,1
310,306,317,317,1
307,309,318,321,1
305,311,317,324,1
305,312,316,325,1
306,313,315,325,1
306,313,314,324,1
306,313,312,320,1
305,313,310,316,1
303,313,309,313,1
300,313,307,308,1
297,312,305,303,1
295,311,303,299,1
295,308,302,296,1
294,306,300,295,1
295,303,300,297,1
297,301,300,300,1
301,300,300,305,1
304,300,300,309,1
307,302,298,313,1
306,304,297,315,1
304,306,295,315,1
299,309,294,314,1
295,311,295,311,1
292,313,298,308,1
290,314,302,307,1
290,315,304,308,1
292,314,307,312,1
293,311,310,319,1
294,309,312,327,1
297,307,312,332,1
302,306,311,334,1
307,305,309,331,1
309,304,306,324,1
311,302,302,315,1
312,300,298,307,1
313,298,294,301,1
314,297,291,297,1
313,296,292,295,1
312,295,294,292,1
309,296,297,289,1
306,298,299,286,1
304,300,302,285,1
301,302,303,283,1
298,304,304,283,1
297,305,304,284,1
301,305,304,287,1
309,304,306,289,1
315,303,307,290,1
317,302,308,291,1
315,302,307,292,1
310,302,306,293,1
306,302,304,294,1
306,302,302,295,1
307,302,300,298,1
311,303,297,303,1
317,303,296,310,1
323,304,295,316,1
326,304,294,320,1
325,305,295,322,1
319,305,298,323,1
312,304,301,323,1
305,304,303,322,1
302,305,305,320,1
299,306,306,318,1
296,307,307,314,1
293,307,307,310,1
290,308,308,307,1
287,309,307,305,1
284,310,307,304,1
285,311,307,307,1
289,311,307,312,1
294,310,306,317,1
298,309,306,325,1
304,308,306,332,1
310,306,306,339,1
314,304,308,342,1
317,303,308,340,1
317,302,310,333,1
317,303,309,322,1
315,304,308,310,1
312,305,307,299,1
310,307,305,289,1
308,307,304,281,1
306,308,301,276,1
305,309,299,273,1
305,308,296,272,1
307,308,292,273,1
310,307,288,274,1
312,306,285,277,1
313,304,283,279,1
313,304,282,283,1
313,304,283,287,1
314,304,286,293,1
314,306,292,302,1
314,306,299,313,1
313,307,305,325,1
313,308,310,335,1
313,309,314,341,1
312,311,315,343,1
311,313,315,340,1
310,314,313,335,1
309,315,309,328,1
308,316,305,321,1
308,315,303,314,1
307,314,303,306,1
307,313,304,298,1
305,311,306,291,1
304,307,306,286,1
302,304,307,284,1
300,302,307,283,1
298,299,306,283,1
297,296,305,284,1
297,293,305,285,1
299,291,305,286,1
299,289,305,286,1
299,288,306,287,1
298,288,307,289,1
297,288,308,292,1
296,290,309,294,1
294,293,309,295,1
292,297,308,295,1
294,300,307,295,1
299,304,305,294,1
305,306,303,293,1
308,308,301,294,1
310,311,301,295,1
311,312,302,298,1
310,313,303,301,1
310,314,305,305,1
311,314,307,309,1
311,314,307,312,1
312,313,306,312,1
312,312,304,311,1
309,310,302,311,1
303,308,301,312,1
298,307,300,313,1
295,305,301,317,1
294,305,304,320,1
295,305,307,324,1
299,305,310,326,1
307,306,312,325,1
316,307,312,322,1
324,306,312,317,1
328,305,311,311,1
327,304,309,305,1
321,302,307,302,1
314,301,305,302,1
308,300,304,304,1
304,300,303,305,1
300,298,302,303,1
297,297,301,299,1
294,295,299,294,1
291,294,299,291,1
288,293,299,291,1
285,291,299,292,1
286,291,299,296,1
288,292,300,302,1
289,295,301,309,1
292,300,302,316,1
298,305,302,323,1
306,310,302,329,1
314,313,302,332,1
320,314,302,334,1
323,315,303,334,1
325,317,304,333,1
324,317,305,330,1
321,317,305,325,1
319,315,305,319,1
315,313,306,312,1
311,310,308,306,1
306,308,311,302,1
304,305,312,298,1
303,302,314,295,1
302,300,315,294,1
301,300,316,294,1
302,299,317,294,1
302,299,317,294,1
303,299,318,294,1
303,301,319,295,1
304,303,320,295,1
305,304,319,295,1
305,305,318,294,1
304,305,316,292,1
304,305,313,291,1
304,305,310,289,1
303,304,307,288,1
303,303,304,289,1
303,301,303,291,1
304,299,303,293,1
307,297,303,294,1
310,295,304,294,1
312,293,304,294,1
313,292,304,296,1
314,292,304,298,1
314,292,304,301,1
313,293,304,306,1
310,295,305,310,1
306,296,308,316,1
302,299,310,323,1
299,301,312,328,1
297,303,314,330,1
295,305,313,329,1
294,307,312,324,1
294,308,310,318,1
294,309,308,312,1
295,308,307,307,1
297,306,306,304,1
302,304,305,302,1
306,302,305,302,1
307,301,306,302,1
308,301,305,301,1
307,300,304,300,1
305,299,301,298,1
301,297,299,298,1
297,296,297,299,1
296,296,297,302,1
297,297,297,305,1
301,298,298,309,1
306,299,300,313,1
312,302,302,316,1
316,305,304,316,1
317,307,304,316,1
313,308,305,317,1
309,309,305,318,1
308,310,303,320,1
307,310,300,323,1
305,311,299,326,1
305,311,298,327,1
307,311,297,328,1
313,311,297,327,1
319,313,299,328,1
321,314,303,331,1
316,314,305,335,1
304,313,306,338,1
290,311,305,342,1
281,310,304,344,1
279,309,303,345,1
287,309,303,341,1
302,309,305,334,1
315,310,307,324,1
325,313,308,311,1
328,314,309,297,1
327,314,308,285,1
323,312,308,277,1
320,310,308,274,1
318,308,308,274,1
317,308,308,277,1
316,308,308,282,1
317,308,308,286,1
317,308,307,287,1
318,307,305,289,1
319,305,304,290,1
320,303,304,293,1
322,301,305,297,1
321,300,306,301,1
318,299,308,306,1
314,299,310,310,1
309,299,311,314,1
305,300,312,317,1
303,301,313,317,1
302,303,314,315,1
302,305,314,312,1
303,307,313,308,1
305,308,312,306,1
305,309,310,304,1
304,310,307,302,1
303,311,306,303,1
303,311,306,304,1
303,310,306,305,1
303,310,305,308,1
303,310,306,310,1
304,310,306,312,1
304,310,306,315,1
303,309,307,317,1
303,307,308,319,1
304,306,310,320,1
306,305,312,320,1
309,303,313,319,1
311,301,314,316,1
313,299,314,313,1
313,298,313,309,1
312,297,313,304,1
312,297,313,301,1
313,297,313,301,1
315,298,313,301,1
316,300,313,302,1
315,302,311,302,1
310,304,309,303,1
303,306,306,302,1
296,307,304,303,1
291,306,302,305,1
289,305,302,310,1
291,303,301,316,1
296,302,300,323,1
301,300,299,330,1
305,300,296,335,1
311,301,295,338,1
317,302,294,339,1
320,305,295,338,1
321,309,299,335,1
321,313,304,332,1
320,317,309,328,1
320,319,313,321,1
319,319,314,313,1
319,317,312,305,1
319,314,309,301,1
319,311,307,300,1
319,309,306,302,1
318,309,306,305,1
315,310,308,306,1
312,311,310,304,1
309,311,312,302,1
305,310,313,300,1
302,309,314,299,1
299,308,314,297,1
297,307,314,296,1
297,306,313,296,1
297,305,313,295,1
299,305,313,295,1
303,306,313,296,1
306,307,313,299,1
308,309,312,303,1
310,312,311,307,1
312,314,311,310,1
310,315,310,312,1
306,316,308,313,1
302,316,306,314,1
301,315,306,314,1
300,314,306,314,1
299,312,306,314,1
297,311,307,316,1
296,308,307,319,1
296,306,308,325,1
301,304,309,331,1
309,303,310,335,1
316,302,310,337,1
321,301,310,336,1
323,302,311,333,1
325,303,310,329,1
325,306,309,322,1
323,309,308,316,1
320,311,306,310,1
316,312,304,305,1
312,313,302,301,1
309,314,301,297,1
307,314,300,296,1
307,313,299,296,1
305,312,299,296,1
304,311,299,296,1
303,311,299,297,1
304,309,298,297,1
304,308,298,298,1
305,306,299,301,1
306,304,300,306,1
308,303,303,311,1
309,304,306,316,1
309,305,308,320,1
309,307,309,321,1
308,308,309,319,1
306,309,308,314,1
304,309,307,308,1
302,308,305,303,1
301,306,303,301,1
300,305,301,300,1
300,304,299,301,1
300,303,298,301,1
300,302,297,301,1
300,301,297,301,1
301,300,297,302,1
302,299,296,305,1
304,299,294,309,1
306,299,290,313,1
307,299,286,317,1
308,299,284,319,1
311,300,285,322,1
313,302,291,325,1
311,303,298,325,1
305,304,305,324,1
297,305,310,321,1
290,306,313,316,1
289,306,314,309,1
294,306,315,301,1
300,306,314,293,1
303,306,314,287,1
305,306,313,284,1
304,306,312,283,1
304,307,310,284,1
302,307,309,287,1
301,306,307,289,1
301,305,306,291,1
302,304,304,293,1
304,303,303,295,1
307,303,303,299,1
310,302,303,304,1
314,302,304,308,1
317,302,305,312,1
319,302,305,314,1
322,302,306,315,1
327,304,306,314,1
329,306,307,313,1
326,308,307,309,1
317,311,306,305,1
306,312,304,300,1
296,313,302,295,1
290,313,302,292,1
289,311,301,291,1
292,310,301,290,1
296,309,301,290,1
300,308,301,291,1
302,307,302,292,1
303,305,301,295,1
302,304,301,299,1
300,302,301,305,1
298,301,302,312,1
299,299,303,320,1
303,296,305,328,1
307,295,307,335,1
310,294,310,338,1
312,295,313,338,1
310,297,314,335,1
307,300,314,330,1
302,303,313,325,1
298,305,311,319,1
296,307,308,312,1
296,307,305,304,1
297,306,304,298,1
298,303,304,294,1
299,302,305,292,1
300,301,307,291,1
302,301,308,291,1
306,301,309,291,1
310,302,309,293,1
313,304,308,295,1
316,303,308,298,1
319,302,307,300,1
324,299,307,304,1
330,295,306,306,1
332,293,304,308,1
328,293,300,308,1
321,294,297,306,1
313,296,295,302,1
308,298,294,296,1
306,299,293,291,1
306,300,294,288,1
305,300,295,287,1
304,301,296,287,1
301,302,299,289,1
300,305,302,291,1
300,308,306,294,1
300,310,309,296,1
300,311,311,298,1
299,312,312,299,1
298,312,313,301,1
298,312,313,303,1
298,311,314,305,1
297,309,316,307,1
297,309,317,308,1
297,309,319,310,1
298,309,319,313,1
299,310,318,315,1
300,312,317,317,1
302,314,317,319,1
305,316,316,321,1
308,317,315,322,1
308,318,313,322,1
307,318,311,320,1
305,317,309,316,1
302,316,306,311,1
299,314,305,305,1
297,311,303,300,1
295,308,301,297,1
291,305,300,297,1
289,303,298,299,1
291,302,298,305,1
298,302,298,313,1
302,303,299,321,1
304,304,300,328,1
304,306,302,332,1
306,308,303,333,1
310,310,303,330,1
313,312,304,324,1
311,312,305,316,1
305,311,305,307,1
300,310,305,301,1
300,310,306,299,1
305,311,305,299,1
310,311,305,299,1
314,310,303,297,1
317,309,302,295,1
318,308,301,292,1
318,307,301,289,1
316,306,302,286,1
314,305,303,284,1
312,303,305,284,1
311,303,306,287,1
309,302,308,292,1
307,301,309,298,1
303,301,309,304,1
299,302,309,309,1
295,303,308,311,1
294,304,306,311,1
296,304,305,310,1
301,303,305,309,1
307,302,305,309,1
313,300,304,307,1
317,300,305,306,1
319,299,305,305,1
318,298,306,306,1
317,298,306,309,1
315,299,306,313,1
312,299,304,317,1
308,300,302,319,1
306,302,300,320,1
306,304,300,319,1
307,305,301,317,1
310,304,303,315,1
313,302,306,313,1
316,301,307,313,1
315,301,307,312,1
311,301,305,310,1
306,301,302,309,1
303,301,299,308,1
302,301,298,308,1
305,303,298,308,1
307,304,301,308,1
306,305,306,306,1
301,305,311,302,1
295,305,314,298,1
290,304,316,293,1
287,303,318,289,1
287,303,317,286,1
291,303,315,284,1
298,302,313,284,1
305,301,313,287,1
312,300,313,292,1
316,299,312,298,1
317,300,312,305,1
315,301,313,312,1
312,303,314,318,1
307,305,314,321,1
302,308,314,323,1
296,311,313,322,1
288,312,313,317,1
285,312,311,312,1
289,312,310,306,1
296,311,309,302,1
303,309,308,298,1
306,308,308,297,1
308,307,307,298,1
308,306,307,301,1
309,305,306,303,1
308,304,305,305,1
306,302,304,304,1
302,300,304,303,1
296,299,304,301,1
292,297,305,298,1
289,296,305,296,1
288,297,305,296,1
291,300,307,298,1
297,302,309,302,1
303,305,312,306,1
308,307,313,308,1
310,309,315,310,1
310,310,315,310,1
307,309,314,308,1
302,307,312,306,1
297,306,310,304,1
294,306,309,303,1
292,307,308,305,1
292,308,307,308,1
295,309,307,313,1
300,310,307,316,1
305,309,308,318,1
308,308,309,318,1
311,306,310,317,1
314,305,311,314,1
319,304,312,310,1
321,304,313,307,1
321,303,314,306,1
320,302,315,307,1
319,303,316,310,1
322,303,315,313,1
328,303,315,315,1
334,303,313,316,1
339,303,308,314,1
341,302,300,310,1
340,300,291,304,1
334,297,282,298,1
325,294,277,294,1
315,292,277,292,1
304,292,284,291,1
298,293,294,292,1
297,295,305,291,1
301,296,313,291,1
305,297,320,294,1
308,298,324,299,1
307,299,326,308,1
303,302,326,316,1
300,305,326,323,1
298,307,325,326,1
298,308,325,325,1
298,309,324,321,1
298,310,323,317,1
297,311,321,312,1
296,311,320,307,1
295,311,318,302,1
296,311,316,296,1
296,309,314,291,1
297,307,312,287,1
298,305,310,284,1
300,304,309,282,1
302,302,308,281,1
305,300,308,282,1
308,298,308,284,1
310,297,309,287,1
312,296,310,291,1
313,297,311,296,1
314,297,313,301,1
315,299,315,306,1
313,302,316,308,1
309,304,316,310,1
304,307,315,311,1
298,309,313,311,1
292,309,311,312,1
286,309,310,315,1
279,310,311,319,1
273,312,311,322,1
270,313,311,325,1
276,314,310,326,1
290,313,308,326,1
304,310,307,325,1
314,307,305,325,1
319,304,303,325,1
320,301,302,326,1
319,299,303,324,1
316,298,304,319,1
312,297,304,311,1
309,298,305,303,1
307,298,305,296,1
306,299,305,290,1
306,300,306,286,1
307,302,305,283,1
307,302,305,282,1
306,303,304,282,1
304,303,303,282,1
303,304,302,281,1
304,304,301,282,1
305,304,301,285,1
306,304,302,288,1
306,304,302,293,1
306,304,302,297,1
306,304,302,301,1
305,304,301,305,1
301,302,297,309,1
299,300,293,311,1
301,299,288,314,1
303,299,285,315,1
306,301,283,315,1
310,303,284,311,1
314,305,287,305,1
318,306,291,298,1
323,307,296,293,1
327,308,301,293,1
330,310,306,296,1
328,312,312,301,1
324,313,316,306,1
318,313,319,309,1
312,312,319,312,1
308,310,318,312,1
306,309,317,312,1
305,307,315,310,1
306,305,313,308,1
306,302,311,308,1
307,300,309,310,1
306,299,309,311,1
305,298,308,309,1
303,300,310,307,1
303,302,311,305,1
306,304,314,304,1
309,305,316,303,1
310,307,315,300,1
307,307,313,297,1
302,307,311,294,1
296,307,309,292,1
293,306,308,290,1
291,307,308,288,1
292,307,308,288,1
295,308,309,289,1
299,310,309,293,1
303,313,310,297,1
306,315,309,302,1
308,316,309,306,1
309,316,309,310,1
307,316,308,313,1
301,315,307,314,1
296,315,307,316,1
292,315,307,318,1
290,315,308,320,1
292,316,310,323,1
295,317,310,325,1
299,318,311,326,1
302,317,311,325,1
303,317,310,323,1
304,316,309,319,1
304,315,308,314,1
304,314,308,312,1
304,313,309,310,1
304,311,311,311,1
304,310,313,312,1
305,309,314,313,1
306,309,314,313,1
307,308,313,315,1
307,308,312,317,1
306,307,311,319,1
305,307,310,321,1
306,307,311,325,1
307,306,312,328,1
307,306,314,330,1
307,306,316,329,1
307,307,316,325,1
308,307,314,317,1
310,308,312,307,1
314,309,310,297,1
318,311,307,291,1
323,312,306,289,1
328,313,304,290,1
328,313,303,291,1
323,312,303,293,1
314,312,303,295,1
307,311,304,297,1
300,312,305,298,1
295,311,306,299,1
288,310,306,301,1
282,310,306,301,1
280,308,305,302,1
280,305,303,302,1
280,301,302,303,1
279,299,300,303,1
279,298,298,302,1
283,298,296,301,1
292,301,295,299,1
303,304,295,298,1
313,307,296,298,1
320,307,297,298,1
322,306,298,298,1
321,305,301,299,1
319,304,304,301,1
315,304,306,304,1
310,304,308,308,1
307,306,310,314,1
306,308,311,321,1
308,310,311,328,1
312,311,313,334,1
317,312,313,337,1
323,312,314,337,1
327,313,315,334,1
329,313,315,329,1
329,313,315,322,1
327,313,315,315,1
322,312,314,307,1
318,313,313,302,1
316,313,312,297,1
317,314,311,295,1
319,314,310,296,1
320,314,308,297,1
319,314,307,299,1
315,313,305,301,1
310,311,303,303,1
305,308,302,306,1
302,306,301,308,1
301,304,301,309,1
301,301,301,308,1
302,299,302,307,1
303,298,303,307,1
303,299,304,310,1
302,301,305,318,1
301,303,306,327,1
301,306,308,335,1
301,309,309,340,1
302,311,310,342,1
301,312,310,337,1
303,313,308,329,1
305,313,305,318,1
305,312,301,306,1
302,312,299,295,1
298,312,296,285,1
296,311,295,278,1
295,309,294,274,1
297,308,294,272,1
300,307,295,274,1
303,306,296,276,1
305,307,297,280,1
307,308,298,285,1
307,310,299,292,1
308,313,301,300,1
310,314,303,306,1
311,315,306,311,1
312,316,308,314,1
313,316,310,318,1
313,317,312,320,1
311,317,313,322,1
308,316,311,323,1
305,314,308,323,1
302,313,303,322,1
301,312,296,319,1
301,311,290,315,1
304,310,286,310,1
306,308,286,305,1
306,307,289,301,1
302,305,295,299,1
295,304,301,296,1
290,301,307,293,1
289,299,311,292,1
288,296,313,292,1
287,293,315,293,1
282,291,315,295,1
280,290,316,298,1
281,292,316,301,1
287,294,316,303,1
296,299,316,304,1
304,303,315,303,1
313,306,313,300,1
323,309,311,299,1
330,310,310,298,1
332,310,309,299,1
330,311,308,304,1
326,312,308,311,1
322,313,308,319,1
319,315,309,327,1
315,318,310,334,1
311,321,310,338,1
308,322,310,339,1
304,321,308,337,1
302,318,306,334,1
301,314,305,331,1
302,311,305,328,1
303,308,305,324,1
306,306,305,318,1
307,305,305,311,1
308,305,304,305,1
309,306,304,301,1
311,307,304,298,1
312,308,304,296,1
314,310,304,295,1
316,311,303,295,1
316,310,302,295,1
313,309,301,297,1
309,307,300,300,1
307,305,300,305,1
304,304,300,311,1
302,302,301,316,1
297,300,301,320,1
290,298,301,323,1
285,298,303,326,1
284,300,305,329,1
284,304,308,332,1
286,308,311,334,1
290,311,312,334,1
295,314,313,329,1
299,316,311,321,1
303,318,309,311,1
306,319,306,300,1
307,321,304,291,1
307,322,302,285,1
306,322,301,281,1
303,322,299,280,1
302,320,298,280,1
301,316,297,281,1
300,310,297,282,1
297,304,296,285,1
293,300,296,289,1
288,297,297,291,1
286,296,296,292,1
286,295,294,292,1
288,295,293,293,1
291,295,293,295,1
295,295,293,299,1
298,297,293,303,1
300,300,292,306,1
304,303,292,308,1
308,306,293,308,1
312,309,295,307,1
313,312,299,305,1
311,314,305,304,1
306,316,309,304,1
302,319,313,307,1
298,321,314,309,1
296,322,312,311,1
293,322,310,312,1
293,321,305,312,1
294,319,300,312,1
296,316,295,311,1
294,312,293,309,1
290,308,293,308,1
290,306,297,308,1
297,305,302,310,1
307,305,306,312,1
316,306,309,313,1
322,309,311,315,1
323,312,312,316,1
324,314,312,317,1
323,316,312,318,1
322,318,311,318,1
320,319,310,316,1
319,318,309,312,1
319,317,307,307,1
319,316,305,303,1
318,316,304,299,1
317,314,303,296,1
316,313,302,294,1
314,310,302,293,1
313,308,302,295,1
311,305,303,300,1
310,304,305,307,1
309,303,307,315,1
310,303,308,322,1
312,303,309,326,1
312,303,310,328,1
311,303,310,328,1
308,303,311,328,1
306,305,311,329,1
304,308,311,330,1
301,312,312,330,1
298,316,312,330,1
295,318,312,329,1
293,320,311,325,1
293,319,310,318,1
294,318,307,310,1
296,315,304,302,1
297,312,302,295,1
298,309,301,289,1
299,306,301,285,1
301,303,302,284,1
304,302,303,285,1
305,301,304,287,1
305,302,306,290,1
305,304,307,292,1
303,306,306,293,1
301,307,305,293,1
299,308,303,294,1
296,309,303,297,1
294,309,304,301,1
292,311,305,306,1
293,312,306,310,1
297,313,304,312,1
302,314,302,313,1
305,315,299,313,1
305,315,297,311,1
303,315,295,309,1
303,312,296,306,1
302,308,297,302,1
301,303,299,300,1
302,298,299,300,1
302,295,299,303,1
301,294,296,307,1
298,295,293,313,1
295,298,292,318,1
296,301,292,323,1
300,306,296,327,1
305,311,301,328,1
311,315,306,327,1
315,317,310,322,1
316,318,312,315,1
315,317,314,307,1
314,315,314,302,1
313,314,314,298,1
311,313,313,297,1
310,311,312,297,1
309,310,311,300,1
309,310,310,304,1
308,309,309,308,1
307,308,309,311,1
307,307,309,314,1
307,306,309,317,1
306,306,309,320,1
303,304,309,322,1
300,302,310,325,1
299,299,311,329,1
300,298,313,335,1
301,297,314,342,1
302,297,314,347,1
302,298,314,349,1
302,300,313,347,1
303,301,312,341,1
304,302,311,334,1
302,304,309,325,1
300,307,308,316,1
302,310,307,308,1
307,313,306,301,1
313,314,304,296,1
318,314,300,292,1
320,313,297,290,1
320,313,296,290,1
319,313,296,291,1
316,313,298,293,1
313,314,301,295,1
309,313,303,297,1
304,311,304,298,1
299,309,305,298,1
299,308,306,297,1
302,308,307,297,1
304,309,308,297,1
304,310,309,298,1
302,310,310,300,1
301,309,311,303,1
300,307,311,306,1
300,305,311,308,1
300,303,309,309,1
301,301,308,310,1
303,299,307,309,1
306,297,305,307,1
311,295,303,305,1
317,294,301,304,1
322,293,300,304,1
323,292,300,303,1
321,291,299,302,1
316,291,299,302,1
312,293,300,303,1
309,298,303,305,1
308,304,306,308,1
309,310,309,310,1
310,315,312,311,1
309,319,314,312,1
308,322,314,312,1
306,323,313,313,1
304,322,311,313,1
302,320,309,312,1
301,317,307,312,1
300,314,306,312,1
299,311,305,312,1
299,309,305,309,1
299,306,305,307,1
300,304,305,305,1
301,301,305,303,1
303,297,304,303,1
304,294,301,304,1
303,294,297,307,1
301,295,293,311,1
296,297,290,314,1
291,300,288,316,1
286,302,288,317,1
284,304,292,316,1
286,305,298,314,1
290,305,303,311,1
295,304,307,310,1
298,303,311,308,1
299,303,314,307,1
298,304,315,308,1
296,304,316,308,1
297,304,317,309,1
301,304,316,308,1
309,304,315,306,1
317,304,313,305,1
322,303,312,307,1
325,303,311,312,1
323,303,311,317,1
321,305,311,320,1
319,308,312,320,1
316,310,312,318,1
313,311,312,313,1
308,311,311,307,1
304,310,309,300,1
300,309,306,294,1
298,308,304,290,1
295,306,301,288,1
292,306,300,288,1
290,306,300,290,1
288,307,300,294,1
287,307,301,298,1
288,306,302,303,1
289,305,303,308,1
289,304,305,311,1
292,303,305,313,1
297,301,305,313,1
302,300,305,312,1
303,299,304,309,1
301,298,304,306,1
296,299,304,304,1
292,300,304,304,1
290,301,304,306,1
292,303,304,308,1
296,305,305,310,1
300,307,305,312,1
304,309,305,314,1
309,308,305,315,1
317,307,305,317,1
325,307,306,320,1
331,307,307,323,1
333,308,307,325,1
331,308,306,324,1
325,307,304,320,1
319,304,302,314,1
314,300,302,309,1
310,298,300,302,1
308,296,298,297,1
307,295,295,293,1
306,295,293,290,1
305,295,292,288,1
305,296,293,288,1
307,297,295,289,1
308,298,299,291,1
311,299,303,293,1
313,299,307,297,1
314,299,310,301,1
314,300,312,305,1
310,302,314,309,1
305,304,314,311,1
301,306,314,313,1
301,308,313,314,1
302,309,312,314,1
305,308,311,313,1
309,305,310,313,1
313,301,309,313,1
315,298,308,314,1
315,297,306,314,1
314,297,303,314,1
313,297,301,312,1
313,299,300,312,1
314,301,299,314,1
315,303,300,318,1
314,306,303,323,1
312,308,306,326,1
309,309,309,327,1
306,310,311,325,1
301,310,313,322,1
297,310,313,318,1
293,309,314,314,1
292,307,312,311,1
293,305,311,308,1
297,303,308,304,1
302,300,305,300,1
303,297,303,296,1
303,294,302,293,1
306,293,302,291,1
311,292,304,292,1
315,293,306,294,1
316,295,310,298,1
314,298,313,303,1
310,301,316,309,1
306,305,318,313,1
302,308,318,314,1
298,309,317,314,1
295,309,315,311,1
294,308,312,306,1
293,307,310,302,1
292,305,309,298,1
292,303,307,294,1
291,302,305,291,1
289,302,304,287,1
290,302,303,286,1
295,302,303,286,1
302,303,302,288,1
309,303,301,293,1
314,304,301,298,1
319,305,301,304,1
325,307,303,310,1
328,310,304,315,1
328,311,306,320,1
325,310,307,325,1
322,309,308,331,1
319,309,309,335,1
317,308,309,339,1
313,308,309,340,1
310,308,309,337,1
307,307,308,331,1
305,307,307,322,1
304,308,306,313,1
304,310,305,303,1
303,312,304,295,1
302,312,304,290,1
300,311,303,288,1
301,309,303,289,1
303,306,303,294,1
305,305,303,299,1
307,304,304,305,1
309,304,304,310,1
310,304,306,313,1
306,305,307,315,1
300,306,309,314,1
296,308,309,312,1
297,310,309,310,1
302,313,309,309,1
307,315,309,308,1
309,317,307,307,1
309,317,302,305,1
308,317,297,304,1
308,317,291,303,1
310,316,290,303,1
312,314,290,302,1
314,312,294,300,1
315,310,300,296,1
315,307,305,291,1
316,305,309,288,1
317,304,312,287,1
319,303,314,288,1
323,302,316,292,1
328,302,317,300,1
331,302,319,310,1
329,304,320,321,1
325,306,321,329,1
318,308,321,335,1
312,310,321,337,1
307,313,320,335,1
304,315,318,330,1
304,316,316,324,1
306,317,314,315,1
308,317,312,306,1
307,316,309,297,1
304,314,307,289,1
298,311,305,282,1
293,305,304,277,1
287,299,302,274,1
281,292,301,273,1
277,287,301,274,1
279,282,302,276,1
285,280,303,279,1
293,281,305,282,1
301,284,306,286,1
307,289,307,291,1
312,295,308,296,1
314,301,307,300,1
314,307,307,304,1
313,312,307,307,1
311,315,307,310,1
310,318,308,312,1
309,319,309,315,1
307,319,310,319,1
307,319,312,323,1
306,319,313,327,1
305,318,314,329,1
305,315,313,329,1
304,311,311,328,1
304,306,309,326,1
304,302,307,323,1
305,298,306,320,1
306,296,305,316,1
307,295,306,312,1
308,295,306,310,1
307,298,306,310,1
305,300,306,312,1
302,303,307,315,1
300,306,308,319,1
298,309,309,323,1
298,312,310,325,1
299,315,311,325,1
300,317,310,322,1
301,318,309,317,1
302,318,308,310,1
301,318,307,304,1
299,317,306,296,1
300,316,305,289,1
304,313,306,283,1
307,309,306,281,1
307,303,306,281,1
307,299,306,283,1
309,296,305,287,1
311,294,304,291,1
311,294,302,296,1
312,295,301,301,1
313,298,301,305,1
315,301,301,307,1
317,304,301,308,1
316,307,301,307,1
314,309,301,305,1
310,311,300,305,1
307,312,301,306,1
305,314,304,308,1
303,315,308,311,1
301,316,312,315,1
301,318,314,319,1
300,318,315,323,1
300,317,316,325,1
302,314,317,324,1
305,313,317,323,1
310,311,317,322,1
315,310,316,321,1
320,308,315,322,1
324,307,313,322,1
324,307,312,324,1
322,308,311,324,1
318,309,310,322,1
312,312,309,320,1
306,314,307,316,1
301,315,306,313,1
297,315,304,308,1
293,313,302,305,1
291,310,302,302,1
292,308,303,301,1
294,306,304,300,1
297,304,306,301,1
299,303,308,304,1
300,301,310,308,1
301,300,311,313,1
303,298,312,318,1
304,297,311,320,1
305,298,310,320,1
306,298,309,318,1
307,300,309,314,1
308,302,308,309,1
305,304,308,303,1
299,306,307,298,1
292,306,307,298,1
293,307,307,300,1
298,306,307,303,1
304,306,308,307,1
308,307,308,311,1
310,307,308,314,1
310,307,308,317,1
310,308,308,320,1
309,308,307,322,1
308,307,306,322,1
305,304,304,320,1
302,300,302,316,1
302,297,301,310,1
305,294,300,304,1
309,292,300,299,1
314,291,301,295,1
317,290,303,293,1
317,292,305,293,1
315,295,306,294,1
313,298,306,297,1
310,302,305,299,1
309,304,303,302,1
310,306,302,304,1
311,308,300,307,1
312,309,299,310,1
311,310,298,313,1
308,310,298,314,1
307,310,296,314,1
307,308,295,312,1
307,306,294,310,1
308,303,294,309,1
308,300,296,310,1
307,298,299,313,1
304,297,303,317,1
301,298,307,320,1
297,300,310,322,1
295,302,312,324,1
293,305,313,323,1
292,307,313,321,1
291,309,312,316,1
293,310,311,308,1
297,309,309,302,1
302,308,308,297,1
308,307,306,294,1
311,305,306,294,1
314,304,305,295,1
315,302,306,297,1
315,301,305,300,1
314,300,303,305,1
312,299,300,310,1
310,297,297,315,1
309,295,296,318,1
308,293,298,320,1
310,292,300,322,1
315,293,303,323,1
318,294,307,324,1
321,297,310,326,1
321,300,312,329,1
320,303,314,333,1
318,306,314,336,1
314,307,315,339,1
308,308,314,339,1
303,307,314,337,1
298,307,313,334,1
294,307,312,331,1
292,308,311,328,1
292,309,310,325,1
293,309,308,319,1
295,309,306,312,1
298,309,304,305,1
301,308,303,299,1
304,305,302,296,1
307,302,302,295,1
310,299,302,297,1
312,297,303,299,1
310,295,303,301,1
305,296,304,302,1
301,297,305,302,1
298,299,306,301,1
296,300,305,301,1
296,301,304,303,1
300,302,302,305,1
305,303,300,307,1
308,304,297,306,1
309,305,297,303,1
310,306,298,298,1
310,306,299,294,1
310,306,301,290,1
310,306,303,290,1
311,306,305,291,1
312,305,305,294,1
314,305,306,297,1
315,305,306,302,1
316,304,306,305,1
316,303,306,309,1
315,302,307,310,1
314,301,307,310,1
313,301,306,307,1
314,301,304,304,1
313,301,300,302,1
310,301,296,302,1
306,301,293,302,1
304,302,291,303,1
304,301,292,307,1
305,301,296,312,1
306,302,300,319,1
307,303,304,325,1
308,304,306,327,1
306,304,308,325,1
303,305,308,322,1
300,305,307,319,1
298,306,306,314,1
299,307,306,310,1
303,307,306,307,1
307,306,307,306,1
309,306,308,305,1
309,307,310,304,1
307,309,311,303,1
304,311,312,301,1
303,313,312,299,1
301,315,312,296,1
298,316,311,295,1
293,317,309,295,1
288,318,307,296,1
284,318,306,298,1
282,318,305,300,1
282,316,305,303,1
286,313,304,307,1
289,311,304,312,1
288,309,302,315,1
287,307,301,318,1
292,304,301,321,1
301,302,302,323,1
308,300,303,326,1
312,299,305,329,1
312,298,307,331,1
311,299,308,331,1
310,300,309,331,1
309,302,311,331,1
309,305,313,330,1
310,308,314,327,1
311,311,314,324,1
311,313,314,321,1
311,314,313,321,1
311,315,312,323,1
310,316,309,326,1
309,314,307,329,1
308,313,306,328,1
307,311,305,324,1
305,308,304,319,1
305,305,303,312,1
303,301,303,304,1
302,297,301,296,1
302,295,298,289,1
305,293,294,284,1
307,293,292,281,1
310,295,290,280,1
312,298,291,281,1
314,303,295,284,1
317,307,300,288,1
318,311,304,292,1
317,314,306,296,1
315,316,307,300,1
313,317,307,306,1
311,317,307,311,1
308,315,306,314,1
306,314,306,316,1
304,313,306,317,1
304,311,307,316,1
303,310,306,314,1
303,309,305,311,1
304,308,303,307,1
306,308,300,302,1
309,309,297,297,1
314,310,293,292,1
319,311,291,289,1
323,310,291,289,1
325,309,292,291,1
324,309,294,294,1
323,309,298,297,1
321,309,303,300,1
319,309,307,302,1
315,309,311,306,1
311,308,313,309,1
305,309,313,313,1
297,310,314,315,1
290,310,313,316,1
286,311,313,315,1
286,311,312,314,1
289,311,312,313,1
293,310,310,314,1
297,308,309,313,1
300,305,308,310,1
302,302,306,305,1
300,299,305,300,1
294,297,304,296,1
285,295,304,294,1
279,295,304,293,1
281,296,306,293,1
291,299,308,295,1
302,302,310,297,1
311,305,311,299,1
315,308,311,301,1
314,311,310,304,1
310,313,308,307,1
303,315,306,310,1
297,315,303,311,1
294,315,302,310,1
294,315,303,311,1
295,314,305,314,1
298,313,309,318,1
302,312,312,324,1
307,312,315,329,1
313,312,317,332,1
319,311,318,333,1
326,311,319,334,1
332,312,320,335,1
334,313,321,335,1
332,314,320,332,1
327,315,318,324,1
320,313,314,317,1
313,312,311,312,1
309,312,308,310,1
306,312,307,310,1
303,311,305,310,1
300,310,304,310,1
299,310,303,308,1
299,309,303,304,1
299,309,302,299,1
299,307,300,295,1
298,306,299,291,1
299,305,297,289,1
300,304,297,288,1
302,303,298,290,1
305,304,300,294,1
309,305,302,297,1
312,305,304,300,1
313,306,306,301,1
310,307,307,302,1
307,309,308,302,1
305,311,308,301,1
304,312,307,299,1
303,312,307,297,1
302,311,307,296,1
303,308,307,295,1
302,307,308,293,1
302,306,308,292,1
301,306,307,293,1
301,308,307,295,1
300,308,307,297,1
299,309,307,298,1
298,308,306,299,1
298,307,303,301,1
299,307,300,304,1
301,306,297,308,1
301,305,295,313,1
301,303,293,316,1
304,302,293,318,1
309,303,297,318,1
314,303,302,316,1
316,303,307,312,1
316,304,311,309,1
315,305,313,307,1
312,306,314,306,1
309,307,314,305,1
305,308,312,305,1
304,309,311,304,1
304,309,309,302,1
307,309,308,299,1
310,308,306,296,1
311,306,305,294,1
310,304,305,293,1
307,303,305,295,1
303,302,307,299,1
298,302,308,304,1
295,304,309,310,1
295,305,309,314,1
298,307,310,319,1
300,309,310,322,1
302,310,310,323,1
302,310,311,322,1
303,311,313,319,1
303,310,313,315,1
301,311,315,311,1
298,312,315,307,1
291,313,316,304,1
283,315,314,301,1
282,316,313,301,1
289,316,311,302,1
300,317,310,305,1
309,318,309,308,1
315,317,308,310,1
318,314,308,313,1
319,309,309,316,1
319,306,311,318,1
319,304,312,319,1
319,303,314,319,1
319,304,315,318,1
320,306,315,317,1
323,308,315,314,1
324,310,314,310,1
322,311,311,304,1
319,312,309,298,1
314,311,306,293,1
309,310,304,290,1
303,310,303,289,1
298,309,302,290,1
292,308,302,290,1
288,307,301,291,1
286,306,299,291,1
289,304,296,292,1
297,303,294,296,1
306,302,293,302,1
312,301,294,308,1
315,301,297,313,1
316,303,303,317,1
317,305,309,320,1
316,306,313,322,1
314,308,316,322,1
313,310,318,321,1
311,313,318,319,1
311,313,318,318,1
310,313,318,318,1
308,313,317,316,1
307,312,317,312,1
305,312,316,307,1
304,311,314,303,1
303,310,312,301,1
304,309,309,300,1
303,308,306,300,1
302,306,304,300,1
301,304,302,302,1
302,301,302,305,1
304,299,302,310,1
306,299,304,314,1
309,300,305,316,1
312,302,305,315,1
315,305,304,313,1
316,307,302,311,1
316,310,299,309,1
313,311,296,306,1
311,313,294,303,1
309,313,295,300,1
309,314,298,298,1
310,315,301,297,1
311,315,304,296,1
312,315,307,296,1
313,313,309,296,1
315,310,309,295,1
316,307,309,295,1
316,303,308,295,1
315,300,308,297,1
314,298,309,301,1
314,297,311,306,1
314,297,314,312,1
315,298,317,317,1
314,300,319,321,1
311,302,319,325,1
307,307,317,329,1
304,311,315,333,1
306,314,313,336,1
311,315,312,339,1
312,315,311,340,1
309,315,310,338,1
305,314,310,335,1
299,313,309,331,1
292,311,306,326,1
288,310,303,320,1
289,308,299,313,1
292,305,296,305,1
295,302,294,297,1
295,298,293,291,1
294,295,293,287,1
293,292,293,285,1
293,292,295,286,1
293,292,298,289,1
295,294,301,293,1
300,296,304,296,1
305,300,307,298,1
313,303,308,298,1
318,307,308,296,1
321,309,308,293,1
320,311,307,291,1
317,311,307,289,1
313,311,307,289,1
310,311,307,291,1
308,311,307,294,1
307,311,307,296,1
306,311,307,299,1
305,312,307,302,1
306,312,308,307,1
306,313,309,313,1
305,314,309,319,1
305,314,309,324,1
307,314,306,327,1
310,313,304,328,1
314,312,302,329,1
316,312,301,327,1
317,312,302,325,1
316,313,303,321,1
315,314,305,318,1
314,315,306,314,1
313,315,306,312,1
310,315,306,309,1
306,314,307,307,1
301,314,307,307,1
295,312,306,306,1
291,311,304,306,1
290,309,303,305,1
290,307,301,304,1
289,304,300,303,1
289,301,298,301,1
290,300,295,300,1
294,301,293,300,1
299,304,292,301,1
303,308,292,303,1
305,312,293,303,1
306,315,296,305,1
306,317,301,309,1
305,319,306,314,1
305,320,310,318,1
305,320,312,321,1
306,319,313,322,1
306,318,314,320,1
305,316,313,316,1
304,315,312,313,1
304,314,310,309,1
303,313,308,304,1
302,311,307,302,1
301,309,306,302,1
300,306,305,304,1
301,302,305,307,1
306,299,306,309,1
312,296,306,311,1
316,295,307,312,1
317,295,307,313,1
314,296,307,314,1
307,297,308,313,1
301,300,308,310,1
295,301,308,306,1
291,302,307,300,1
290,303,307,295,1
292,304,308,291,1
298,305,307,290,1
303,306,307,289,1
306,307,305,288,1
307,308,303,287,1
306,309,301,287,1
301,309,300,289,1
294,309,300,292,1
289,308,302,294,1
289,308,304,296,1
294,307,305,297,1
300,307,307,297,1
307,307,308,296,1
312,309,309,295,1
314,310,309,294,1
315,309,309,294,1
316,309,309,294,1
317,309,310,294,1
317,309,310,295,1
316,309,310,297,1
314,308,310,301,1
311,307,309,307,1
309,305,307,312,1
307,303,304,316,1
306,302,301,318,1
308,302,298,316,1
308,301,294,314,1
306,300,291,310,1
302,300,291,308,1
297,301,293,306,1
294,302,297,304,1
291,303,300,303,1
289,305,303,305,1
289,307,305,309,1
292,308,306,314,1
294,310,305,318,1
296,310,303,319,1
300,311,301,317,1
304,311,298,314,1
307,310,297,310,1
308,310,298,307,1
307,311,300,306,1
305,311,303,305,1
304,311,306,303,1
303,310,309,302,1
302,308,310,301,1
303,305,310,301,1
302,303,309,302,1
300,299,309,304,1
298,296,308,307,1
298,294,308,311,1
297,293,309,314,1
297,294,309,317,1
297,296,311,318,1
298,300,311,317,1
302,303,312,317,1
306,306,313,317,1
309,308,313,319,1
309,308,314,321,1
306,308,314,323,1
302,308,314,326,1
299,306,314,330,1
300,306,313,334,1
304,305,313,338,1
309,305,313,341,1
315,304,312,340,1
318,303,310,335,1
320,302,306,325,1
320,302,303,314,1
320,302,299,302,1
318,300,297,292,1
316,298,297,285,1
313,298,300,282,1
310,298,302,282,1
310,299,305,283,1
311,300,307,285,1
312,301,309,285,1
312,302,309,285,1
310,302,310,285,1
309,302,309,285,1
307,303,308,286,1
308,304,307,287,1
308,304,308,287,1
309,305,307,288,1
309,307,306,288,1
309,308,304,289,1
309,308,303,289,1
308,307,302,291,1
306,306,301,293,1
304,306,301,295,1
302,306,301,297,1
300,305,301,298,1
301,304,301,300,1
307,304,302,303,1
316,304,302,306,1
325,305,303,309,1
329,307,305,311,1
328,308,305,313,1
323,309,305,313,1
317,309,304,313,1
310,309,303,314,1
302,308,303,314,1
297,307,303,313,1
298,305,304,312,1
300,304,305,313,1
300,304,305,313,1
297,303,305,314,1
294,302,305,315,1
292,299,305,316,1
294,298,305,317,1
298,295,305,315,1
303,293,305,312,1
309,293,303,309,1
314,293,301,306,1
319,296,299,305,1
323,299,297,305,1
324,302,295,305,1
322,304,295,305,1
318,304,296,304,1
312,302,299,304,1
307,302,303,303,1
304,301,306,302,1
303,300,309,301,1
303,299,311,300,1
303,300,312,301,1
302,301,312,304,1
299,304,312,307,1
295,306,312,312,1
293,308,312,317,1
293,309,313,323,1
297,308,314,330,1
304,307,316,339,1
311,306,318,346,1
316,307,319,351,1
320,308,319,354,1
321,308,318,355,1
322,310,318,353,1
320,311,317,350,1
317,312,315,343,1
316,312,312,334,1
313,311,310,323,1
309,310,307,311,1
304,309,305,300,1
301,308,301,292,1
299,307,299,288,1
300,306,297,287,1
303,305,295,287,1
308,302,295,288,1
311,300,296,288,1
313,300,297,289,1
312,300,299,291,1
308,302,301,292,1
305,302,302,294,1
303,303,303,295,1
303,304,303,295,1
304,306,303,296,1
305,308,303,298,1
307,310,304,300,1
309,310,306,301,1
311,310,307,301,1
311,308,309,299,1
310,306,309,298,1
308,306,309,297,1
305,305,308,297,1
302,304,307,299,1
302,304,307,304,1
304,304,306,310,1
309,303,306,316,1
314,302,306,322,1
317,302,305,325,1
320,301,305,326,1
320,300,305,324,1
319,301,306,320,1
318,304,307,315,1
318,306,308,312,1
319,309,310,309,1
320,313,310,306,1
320,315,309,303,1
318,317,308,300,1
316,318,306,298,1
312,317,305,296,1
305,316,304,296,1
297,315,303,297,1
291,315,302,299,1
290,314,302,301,1
289,313,302,302,1
285,312,302,301,1
282,310,302,300,1
284,307,302,300,1
289,303,302,301,1
295,300,302,303,1
302,298,301,303,1
309,297,299,304,1
315,298,299,304,1
320,299,299,304,1
322,302,302,304,1
321,304,305,303,1
319,306,308,303,1
316,307,310,304,1
314,308,312,305,1
312,308,313,305,1
312,308,314,305,1
312,308,314,305,1
313,309,313,304,1
313,309,312,303,1
311,309,311,303,1
308,309,309,303,1
307,308,308,306,1
307,307,307,310,1
308,305,307,315,1
309,304,306,320,1
309,303,306,323,1
308,304,305,326,1
306,304,303,327,1
304,306,301,328,1
301,308,299,329,1
297,310,300,329,1
294,311,303,330,1
293,313,307,330,1
295,313,310,329,1
299,314,312,326,1
305,314,311,320,1
308,314,309,311,1
311,313,305,302,1
313,311,302,295,1
312,311,300,290,1
308,310,299,287,1
304,308,299,286,1
300,306,300,286,1
297,304,300,287,1
297,301,301,288,1
298,298,301,288,1
302,297,303,289,1
305,297,305,291,1
308,297,307,292,1
309,298,308,294,1
309,300,307,295,1
306,303,306,296,1
304,306,305,296,1
302,309,305,297,1
302,312,305,298,1
303,314,304,301,1
305,314,304,304,1
305,312,303,307,1
301,310,303,309,1
294,308,303,309,1
285,305,303,310,1
279,302,302,313,1
276,299,302,320,1
281,296,303,327,1
292,295,305,334,1
305,294,307,339,1
317,297,310,341,1
327,302,313,340,1
331,306,315,337,1
328,312,315,332,1
323,316,315,326,1
319,318,314,319,1
318,320,312,310,1
318,320,310,300,1
319,319,306,290,1
318,317,302,283,1
314,314,297,276,1
306,312,293,272,1
300,310,290,269,1
301,311,290,270,1
308,312,294,274,1
314,312,299,280,1
317,311,304,287,1
315,310,309,295,1
312,309,314,301,1
309,306,317,307,1
305,304,319,310,1
302,303,319,310,1
301,304,318,308,1
301,307,317,304,1
303,310,317,302,1
306,312,317,300,1
307,313,316,301,1
308,313,314,302,1
308,312,312,304,1
308,310,309,306,1
306,309,306,308,1
303,308,302,309,1
301,308,298,309,1
301,307,297,308,1
303,305,297,307,1
305,303,299,305,1
308,300,302,304,1
310,298,304,303,1
311,296,305,303,1
311,294,306,302,1
308,294,308,302,1
304,295,309,302,1
298,296,311,303,1
292,297,313,304,1
286,299,315,306,1
281,301,316,308,1
278,303,316,310,1
278,304,317,311,1
283,305,317,311,1
290,306,317,310,1
297,306,316,307,1
304,305,315,303,1
309,304,313,302,1
313,304,310,301,1
315,302,308,300,1
317,300,304,299,1
316,299,303,297,1
314,297,302,294,1
311,295,302,291,1
308,294,303,290,1
307,294,303,289,1
306,296,303,291,1
307,299,303,295,1
308,303,304,301,1
311,307,306,306,1
314,311,307,310,1
316,314,307,311,1
315,315,307,313,1
314,317,307,315,1
312,319,307,317,1
309,319,307,319,1
305,317,306,319,1
300,316,305,319,1
297,315,304,318,1
295,313,305,316,1
296,312,304,312,1
299,310,304,310,1
303,307,304,308,1
308,305,304,307,1
313,303,305,305,1
317,302,305,304,1
319,301,307,304,1
322,301,307,305,1
322,302,308,306,1
319,304,307,307,1
314,308,306,310,1
310,312,304,314,1
307,315,303,320,1
304,316,301,328,1
303,315,298,334,1
302,313,296,336,1
300,312,294,335,1
300,311,294,330,1
301,310,295,322,1
302,308,299,313,1
303,306,302,304,1
304,303,304,295,1
307,301,306,288,1
310,299,308,284,1
312,299,309,284,1
310,300,310,288,1
308,301,310,293,1
305,303,310,300,1
303,304,310,306,1
301,306,310,310,1
304,308,309,312,1
310,309,309,313,1
313,311,309,313,1
312,312,309,312,1
307,312,310,311,1
299,313,309,309,1
290,313,308,305,1
283,312,306,301,1
280,311,303,297,1
280,309,302,294,1
285,307,302,293,1
292,305,302,294,1
300,304,302,297,1
305,302,299,300,1
309,302,297,304,1
310,301,295,308,1
310,302,294,310,1
313,303,296,310,1
314,305,300,308,1
315,306,304,306,1
313,304,307,305,1
310,302,310,304,1
304,298,313,305,1
299,296,314,307,1
294,295,315,310,1
292,297,314,312,1
294,299,313,313,1
299,303,311,314,1
305,305,309,312,1
309,307,307,311,1
310,306,304,311,1
309,304,303,314,1
306,302,303,316,1
305,301,303,319,1
305,300,303,321,1
307,299,304,323,1
307,300,304,322,1
305,302,305,322,1
304,305,307,321,1
304,310,308,322,1
305,314,308,322,1
306,318,308,322,1
305,319,309,321,1
305,319,308,318,1
304,318,307,314,1
303,316,305,310,1
303,315,303,304,1
304,312,303,299,1
305,309,302,295,1
305,305,302,292,1
306,302,301,293,1
306,299,300,296,1
306,297,299,301,1
305,296,300,306,1
302,297,300,312,1
296,300,301,317,1
290,303,303,320,1
285,305,305,321,1
281,308,306,319,1
282,311,307,315,1
290,312,305,311,1
303,313,303,308,1
315,312,300,307,1
324,311,298,309,1
327,309,296,313,1
325,307,297,318,1
321,306,300,324,1
315,306,305,328,1
307,307,311,331,1
301,307,315,330,1
295,307,317,328,1
290,305,317,323,1
287,303,315,316,1
285,301,313,309,1
284,300,311,304,1
286,299,309,299,1
294,298,308,296,1
305,298,307,296,1
315,300,307,297,1
323,302,308,299,1
326,305,308,301,1
327,307,309,302,1
326,308,309,302,1
325,308,310,301,1
323,309,310,302,1
320,310,310,303,1
317,311,308,304,1
314,312,305,305,1
312,312,303,305,1
312,312,299,305,1
313,310,298,304,1
314,307,299,303,1
317,303,301,303,1
318,300,304,303,1
319,299,307,305,1
319,298,311,306,1
318,298,313,305,1
316,299,313,304,1
313,301,312,301,1
308,303,310,298,1
302,305,307,295,1
296,307,304,294,1
293,309,301,294,1
291,312,299,297,1
291,314,298,303,1
291,316,298,311,1
291,317,300,319,1
292,318,302,325,1
295,318,304,328,1
299,316,306,328,1
303,313,307,325,1
306,310,308,318,1
310,307,309,311,1
312,303,309,304,1
312,299,309,298,1
310,295,309,293,1
305,294,309,289,1
300,295,309,289,1
297,298,309,292,1
297,301,309,298,1
299,304,308,305,1
302,306,308,312,1
301,307,309,318,1
299,308,308,321,1
296,309,308,323,1
292,309,307,323,1
290,310,306,321,1
290,311,305,316,1
295,312,303,310,1
303,312,301,303,1
311,311,299,297,1
317,310,299,294,1
319,311,298,294,1
320,312,299,297,1
321,313,301,302,1
321,313,303,306,1
321,312,304,310,1
320,312,303,312,1
319,311,302,314,1
318,310,300,315,1
317,309,298,314,1
316,308,296,312,1
315,307,296,308,1
313,306,298,304,1
311,305,302,301,1
307,303,304,298,1
302,302,306,297,1
300,301,306,298,1
298,301,306,300,1
294,301,305,302,1
291,301,304,302,1
295,302,304,302,1
303,303,305,301,1
309,304,307,301,1
312,304,309,301,1
314,306,311,302,1
315,308,311,305,1
315,311,311,306,1
314,314,310,306,1
314,318,309,307,1
312,319,307,308,1
310,319,305,310,1
309,318,305,312,1
308,316,307,314,1
310,316,308,316,1
313,315,309,316,1
318,314,308,314,1
323,312,306,309,1
326,309,304,302,1
326,307,302,295,1
321,305,300,290,1
311,305,297,287,1
300,304,295,286,1
294,304,295,288,1
294,305,297,291,1
295,304,301,294,1
297,303,305,297,1
298,302,308,300,1
298,302,312,302,1
297,303,313,304,1
293,304,313,307,1
285,305,311,310,1
279,306,308,313,1
278,306,306,316,1
281,306,305,318,1
285,305,305,316,1
292,304,305,314,1
301,305,308,311,1
310,305,309,308,1
316,305,311,305,1
319,303,312,302,1
318,301,311,301,1
318,298,310,301,1
317,297,309,303,1
315,296,310,310,1
314,296,311,317,1
313,298,312,325,1
312,301,312,331,1
311,304,312,336,1
309,307,311,339,1
307,309,310,336,1
305,309,309,329,1
304,309,309,319,1
301,310,308,310,1
298,310,307,303,1
294,310,307,300,1
292,310,306,301,1
294,309,305,302,1
301,308,303,302,1
307,304,301,302,1
311,300,298,302,1
314,295,296,302,1
315,290,295,299,1
315,287,296,296,1
315,286,299,293,1
314,288,303,292,1
315,292,307,292,1
315,295,309,293,1
315,298,308,294,1
312,300,306,294,1
308,302,303,295,1
304,304,301,298,1
300,307,302,303,1
298,309,304,308,1
297,311,306,314,1
297,314,309,319,1
294,315,310,324,1
294,315,311,325,1
297,313,311,325,1
302,310,311,322,1
306,308,309,319,1
310,306,308,315,1
312,303,306,310,1
313,301,304,304,1
315,298,303,298,1
316,296,302,293,1
318,295,302,290,1
318,295,302,288,1
318,295,302,288,1
317,296,304,288,1
315,297,304,288,1
311,297,304,288,1
308,298,304,289,1
306,299,304,290,1
306,299,304,292,1
306,300,305,294,1
307,302,307,297,1
307,304,308,300,1
305,304,309,302,1
300,303,308,303,1
294,302,306,304,1
290,299,303,304,1
287,298,302,304,1
289,298,300,304,1
297,298,300,306,1
308,299,301,310,1
318,300,302,316,1
323,302,304,321,1
323,303,306,325,1
319,305,308,325,1
314,307,308,324,1
310,308,308,321,1
305,308,306,316,1
300,307,305,312,1
299,306,304,308,1
301,306,304,304,1
304,306,304,301,1
308,306,303,300,1
307,306,302,300,1
305,305,301,301,1
303,303,300,303,1
302,302,300,305,1
302,301,299,307,1
302,300,300,308,1
304,300,303,308,1
305,300,306,310,1
306,301,308,312,1
306,302,309,313,1
305,305,309,313,1
303,306,309,312,1
299,309,308,309,1
296,309,306,306,1
297,309,305,302,1
301,308,305,297,1
304,309,304,293,1
307,310,304,290,1
308,310,303,290,1
308,310,301,291,1
308,310,297,294,1
308,309,294,296,1
310,305,291,297,1
310,300,289,298,1
308,294,288,299,1
306,289,290,300,1
306,285,293,302,1
306,284,297,302,1
305,285,301,302,1
300,288,305,303,1
294,294,307,303,1
293,300,309,304,1
296,307,311,306,1
301,312,313,309,1
306,316,315,314,1
310,319,316,320,1
316,320,316,326,1
322,319,315,329,1
328,317,313,329,1
333,315,311,326,1
338,312,309,322,1
344,310,308,318,1
347,307,305,312,1
343,305,303,309,1
330,304,302,305,1
315,302,300,304,1
302,301,300,302,1
293,301,301,303,1
289,303,304,305,1
287,305,306,308,1
286,309,307,311,1
285,312,305,311,1
283,313,302,309,1
282,314,299,306,1
283,314,297,305,1
285,314,298,305,1
290,315,300,305,1
297,315,303,305,1
306,314,306,304,1
312,312,308,302,1
316,310,308,299,1
318,306,308,296,1
320,302,306,294,1
321,298,304,292,1
324,296,303,292,1
325,296,304,294,1
325,298,308,299,1
320,301,311,304,1
314,305,314,310,1
309,308,315,315,1
306,312,316,318,1
303,315,316,319,1
300,316,314,317,1
299,317,311,314,1
298,317,307,310,1
298,316,303,305,1
299,316,298,302,1
300,316,295,298,1
301,316,294,295,1
302,317,295,293,1
305,317,297,292,1
306,315,300,292,1
305,311,301,294,1
303,306,302,296,1
301,302,302,298,1
299,298,301,300,1
298,296,299,303,1
296,296,297,305,1
294,296,296,306,1
294,298,297,309,1
296,300,298,312,1
299,303,301,314,1
304,305,304,314,1
307,307,307,313,1
308,309,309,313,1
306,311,310,315,1
304,313,311,318,1
300,314,313,322,1
299,314,315,324,1
301,312,315,324,1
303,310,314,321,1
306,307,312,315,1
310,303,309,306,1
316,297,305,296,1
319,292,302,289,1
321,288,301,287,1
321,288,301,289,1
320,291,302,294,1
317,296,304,298,1
314,302,306,302,1
313,308,307,305,1
311,312,306,306,1
307,313,305,307,1
303,313,303,309,1
302,314,302,312,1
303,314,302,314,1
304,315,301,315,1
302,315,301,315,1
300,315,301,315,1
298,314,299,313,1
294,313,298,308,1
290,312,297,302,1
286,310,296,295,1
284,308,295,289,1
283,304,295,285,1
285,302,294,283,1
289,299,294,283,1
296,299,294,285,1
303,301,295,288,1
308,305,296,294,1
311,309,298,300,1
312,312,300,306,1
312,315,301,311,1
312,316,302,315,1
313,316,302,320,1
314,316,301,323,1
317,317,300,324,1
320,317,299,323,1
323,315,298,318,1
324,313,297,311,1
323,310,294,305,1
320,308,291,301,1
315,306,289,299,1
310,304,287,298,1
306,302,287,299,1
306,301,289,301,1
308,301,292,304,1
309,300,294,306,1
310,301,295,307,1
310,302,296,308,1
311,303,299,309,1
311,305,301,309,1
311,307,301,308,1
309,308,300,307,1
306,309,298,306,1
302,308,297,306,1
300,308,298,305,1
296,307,298,305,1
292,306,298,305,1
287,305,299,305,1
283,305,301,306,1
282,305,303,307,1
287,304,305,308,1
294,303,307,309,1
300,303,308,309,1
305,302,310,310,1
307,303,310,311,1
310,304,309,311,1
311,305,307,311,1
310,306,306,310,1
308,307,304,310,1
306,308,304,309,1
303,309,303,309,1
299,310,303,308,1
298,311,303,307,1
301,310,303,305,1
304,309,301,304,1
305,306,299,304,1
304,305,296,305,1
303,303,294,307,1
300,303,292,309,1
298,303,291,310,1
293,304,292,309,1
288,304,296,308,1
283,305,299,306,1
278,305,303,305,1
274,304,306,306,1
274,303,308,309,1
284,304,309,314,1
299,306,310,319,1
310,308,310,322,1
315,309,308,322,1
313,310,306,321,1
310,311,305,318,1
308,311,304,313,1
310,310,302,308,1
313,309,301,304,1
317,309,301,301,1
320,308,301,300,1
323,308,301,300,1
324,308,301,302,1
323,307,300,304,1
319,305,299,306,1
316,304,299,309,1
314,303,300,312,1
313,302,301,315,1
313,302,304,318,1
315,303,306,318,1
317,304,306,318,1
318,304,305,317,1
319,305,302,316,1
319,305,300,315,1
318,306,299,315,1
318,308,300,316,1
317,310,302,318,1
316,311,305,321,1
314,312,308,324,1
311,313,311,327,1
308,314,312,330,1
306,315,312,333,1
304,314,310,333,1
303,312,307,329,1
300,310,303,323,1
298,307,301,316,1
296,305,299,308,1
295,303,297,299,1
294,301,296,289,1
292,297,294,281,1
290,293,292,277,1
288,291,291,275,1
286,290,290,277,1
285,290,291,279,1
287,291,293,281,1
289,293,295,284,1
292,294,297,286,1
294,296,301,289,1
294,297,305,293,1
294,299,309,298,1
297,302,312,304,1
301,306,314,309,1
305,308,314,314,1
305,309,314,317,1
303,309,313,317,1
300,308,311,314,1
297,306,310,310,1
296,303,309,306,1
294,301,308,302,1
292,299,307,299,1
293,299,306,297,1
297,300,305,296,1
300,303,305,295,1
303,306,305,294,1
307,307,304,293,1
310,308,305,292,1
315,308,306,293,1
321,308,308,293,1
327,307,310,292,1
329,307,310,292,1
327,307,307,293,1
322,307,305,296,1
317,308,303,298,1
315,308,303,301,1
314,308,306,303,1
314,310,310,305,1
315,312,314,306,1
316,313,317,307,1
318,313,319,308,1
316,310,320,309,1
312,306,322,312,1
308,304,323,316,1
306,303,323,321,1
306,304,322,324,1
308,304,321,322,1
311,304,320,317,1
313,303,319,311,1
316,303,317,304,1
318,304,317,298,1
318,306,315,293,1
313,307,314,288,1
306,308,313,284,1
298,309,312,282,1
292,309,311,281,1
289,308,310,280,1
288,307,311,282,1
289,306,312,283,1
292,307,314,285,1
296,306,315,285,1
300,304,316,285,1
303,304,317,289,1
306,305,319,296,1
308,309,321,303,1
311,313,322,309,1
314,316,322,313,1
315,316,322,316,1
315,315,321,318,1
313,313,321,318,1
312,311,320,317,1
310,309,318,312,1
310,307,314,306,1
309,305,309,301,1
307,304,306,298,1
303,303,304,296,1
298,304,304,296,1
294,304,305,298,1
291,305,307,299,1
294,304,311,299,1
300,302,314,298,1
310,301,317,298,1
317,299,318,298,1
321,298,319,300,1
322,298,320,302,1
319,299,321,305,1
316,300,323,307,1
314,302,323,308,1
313,305,322,309,1
313,309,320,309,1
315,312,319,310,1
316,314,318,311,1
317,316,317,313,1
318,318,316,315,1
320,318,315,319,1
319,317,313,321,1
315,314,312,323,1
315,311,312,322,1
318,308,312,320,1
319,305,312,314,1
317,302,312,308,1
314,297,313,303,1
314,294,315,299,1
314,293,317,298,1
313,294,319,299,1
309,296,319,301,1
304,299,320,304,1
301,302,321,307,1
299,304,321,309,1
301,306,320,313,1
305,308,319,316,1
309,310,316,318,1
313,312,312,319,1
317,314,308,319,1
321,315,304,318,1
323,315,302,317,1
322,315,303,317,1
320,315,306,318,1
319,314,309,317,1
319,312,313,315,1
321,310,317,311,1
323,307,319,308,1
321,305,320,306,1
313,302,319,306,1
303,300,317,307,1
293,300,315,307,1
287,301,314,307,1
287,304,314,307,1
292,308,315,305,1
299,313,315,303,1
306,316,315,299,1
311,318,315,294,1
314,319,314,291,1
316,319,314,290,1
318,317,313,290,1
320,314,313,292,1
319,311,312,294,1
318,307,311,298,1
317,305,311,302,1
316,304,312,306,1
317,303,313,309,1
317,304,314,310,1
317,306,315,310,1
318,307,316,308,1
320,309,316,308,1
321,310,317,309,1
322,313,316,311,1
323,315,316,315,1
322,317,314,320,1
319,319,313,325,1
314,320,312,331,1
309,320,312,334,1
305,319,312,333,1
304,316,312,329,1
304,313,312,323,1
305,309,310,313,1
304,303,309,300,1
304,297,308,290,1
306,293,308,283,1
310,290,308,280,1
315,289,309,281,1
320,291,310,284,1
324,294,310,289,1
325,299,309,294,1
324,304,307,298,1
322,308,306,300,1
316,310,305,300,1
307,312,306,301,1
302,314,308,300,1
302,314,310,299,1
301,313,311,298,1
297,310,313,298,1
292,307,313,301,1
290,304,314,304,1
295,302,315,308,1
304,300,316,312,1
313,299,318,315,1
319,298,319,318,1
321,298,321,322,1
320,298,323,326,1
318,298,324,329,1
314,299,324,330,1
308,300,324,327,1
303,302,322,323,1
300,305,320,318,1
300,306,316,313,1
303,307,313,307,1
309,307,310,303,1
316,309,309,301,1
320,312,307,300,1
320,313,306,301,1
319,312,304,302,1
319,310,302,304,1
322,308,300,305,1
325,306,298,306,1
326,305,297,307,1
326,303,298,309,1
326,301,300,311,1
328,302,305,312,1
330,303,309,314,1
331,306,313,315,1
328,309,316,314,1
323,311,318,313,1
316,313,319,313,1
309,314,320,312,1
303,315,320,311,1
299,315,321,310,1
297,314,320,307,1
299,311,320,302,1
303,309,318,298,1
308,308,317,295,1
311,308,316,294,1
311,308,314,294,1
308,308,313,296,1
303,308,312,297,1
296,306,310,299,1
292,305,308,300,1
293,304,307,302,1
296,303,306,303,1
300,302,306,304,1
306,301,306,306,1
312,302,307,309,1
315,303,310,312,1
314,306,313,316,1
308,307,314,320,1
300,309,315,323,1
295,311,315,326,1
294,311,315,329,1
298,312,314,330,1
304,313,313,331,1
312,314,312,330,1
319,317,308,329,1
323,320,304,326,1
323,322,299,320,1
320,322,294,311,1
316,320,290,302,1
311,316,289,294,1
306,311,291,287,1
299,305,295,285,1
294,300,301,285,1
291,297,307,286,1
291,296,311,288,1
292,296,315,291,1
295,296,317,294,1
297,296,317,298,1
298,295,318,302,1
295,295,318,305,1
289,295,319,309,1
286,295,318,312,1
289,296,318,315,1
295,298,318,318,1
301,301,318,320,1
306,303,317,322,1
311,303,316,324,1
315,304,316,328,1
317,305,315,330,1
316,308,313,332,1
315,309,311,332,1
317,310,309,331,1
320,308,307,328,1
324,307,305,322,1
327,306,304,315,1
330,306,304,308,1
331,305,304,303,1
329,305,304,299,1
326,305,303,297,1
323,306,302,297,1
319,308,300,298,1
316,311,298,301,1
313,314,297,305,1
312,315,297,308,1
311,315,297,309,1
310,315,299,310,1
309,314,302,311,1
305,312,304,312,1
299,308,305,314,1
292,305,306,317,1
286,301,306,320,1
284,299,305,321,1
284,299,304,321,1
287,301,304,320,1
294,303,306,319,1
303,305,308,316,1
310,307,310,313,1
316,309,313,310,1
320,312,314,307,1
321,314,314,306,1
320,316,314,306,1
319,317,314,306,1
316,318,313,306,1
314,319,311,306,1
312,319,307,305,1
312,319,303,304,1
314,318,299,303,1
316,317,298,300,1
314,314,299,298,1
307,310,301,297,1
296,307,305,297,1
284,303,309,297,1
276,301,312,296,1
275,299,313,296,1
279,297,313,296,1
287,296,313,295,1
296,296,311,296,1
304,297,310,298,1
311,301,310,301,1
317,306,310,303,1
320,311,311,304,1
322,314,311,304,1
323,316,311,304,1
323,318,312,306,1
322,316,313,308,1
320,313,314,311,1
317,310,314,312,1
314,306,313,312,1
311,303,312,311,1
308,302,311,310,1
307,302,310,310,1
308,303,310,310,1
308,305,311,312,1
307,307,313,314,1
304,307,315,319,1
301,306,317,325,1
298,307,318,331,1
296,308,320,335,1
293,309,320,337,1
286,310,320,336,1
279,310,319,334,1
278,309,316,330,1
285,309,314,325,1
296,308,311,319,1
306,307,307,313,1
315,306,304,305,1
320,306,300,298,1
322,307,297,293,1
323,308,296,291,1
324,309,295,291,1
324,308,294,293,1
326,307,295,296,1
326,305,296,299,1
326,303,297,303,1
324,301,299,306,1
321,301,300,309,1
317,302,300,313,1
314,305,298,316,1
310,308,295,315,1
306,311,290,311,1
304,314,286,307,1
302,316,284,305,1
300,316,285,303,1
297,317,289,303,1
292,317,295,303,1
288,316,301,303,1
282,314,306,304,1
279,312,308,303,1
280,309,310,302,1
285,306,310,301,1
294,302,309,303,1
301,299,307,305,1
305,297,303,308,1
308,298,300,311,1
310,300,297,313,1
313,303,297,313,1
316,306,298,311,1
315,311,300,309,1
311,315,303,306,1
308,320,304,303,1
306,323,306,300,1
305,325,307,297,1
305,326,307,294,1
304,325,306,293,1
305,323,305,295,1
306,320,305,298,1
308,316,306,302,1
308,312,307,304,1
309,309,307,306,1
308,306,307,307,1
305,305,306,307,1
301,303,305,306,1
298,302,304,305,1
295,301,304,304,1
296,302,303,304,1
299,303,303,306,1
300,305,303,310,1
299,307,303,313,1
299,309,304,315,1
303,310,304,317,1
309,311,305,317,1
314,312,305,314,1
316,313,306,312,1
315,313,306,310,1
313,313,306,309,1
311,313,304,309,1
310,312,303,309,1
312,310,302,311,1
316,307,301,313,1
321,305,301,315,1
325,302,300,317,1
325,300,300,317,1
324,298,300,315,1
321,296,299,311,1
316,296,299,309,1
311,299,299,308,1
307,303,299,309,1
304,307,298,310,1
302,310,297,310,1
302,312,295,311,1
300,313,295,311,1
298,313,295,311,1
295,312,297,311,1
292,312,299,310,1
290,311,302,310,1
290,310,303,310,1
294,309,304,308,1
299,308,304,305,1
304,306,305,302,1
309,303,307,301,1
311,299,308,301,1
313,296,309,304,1
313,294,308,308,1
311,294,308,312,1
309,297,306,314,1
309,302,304,315,1
310,308,302,313,1
309,312,302,310,1
305,314,303,305,1
301,313,305,300,1
298,313,306,297,1
298,311,305,296,1
299,310,303,297,1
299,308,302,299,1
299,308,301,301,1
297,309,301,300,1
295,311,301,297,1
296,313,300,295,1
299,316,300,293,1
301,318,302,293,1
302,316,305,293,1
302,312,307,293,1
302,306,309,294,1
303,301,311,295,1
304,299,312,296,1
307,298,313,297,1
309,300,314,299,1
310,302,315,302,1
309,304,316,306,1
306,305,317,309,1
301,307,316,312,1
297,309,314,314,1
294,310,313,315,1
292,311,312,315,1
292,311,310,314,1
295,310,309,311,1
301,308,307,307,1
305,306,305,303,1
306,304,304,299,1
304,303,302,296,1
300,302,301,292,1
297,301,300,291,1
295,300,300,291,1
295,300,300,292,1
297,302,300,294,1
301,304,301,298,1
306,306,302,302,1
311,307,303,305,1
316,307,304,310,1
319,308,304,315,1
318,308,305,318,1
313,308,304,319,1
306,307,304,319,1
300,307,303,318,1
294,308,304,317,1
290,308,304,315,1
288,308,304,314,1
289,309,305,314,1
296,309,305,315,1
304,308,306,317,1
311,307,307,320,1
312,305,308,319,1
307,302,309,316,1
299,300,309,312,1
292,298,309,307,1
288,298,308,303,1
290,300,307,300,1
296,302,307,298,1
300,304,307,298,1
302,306,307,298,1
300,310,308,300,1
298,314,309,301,1
299,316,310,302,1
305,318,309,302,1
311,318,305,300,1
313,318,299,299,1
314,318,292,299,1
313,318,287,300,1
312,317,284,301,1
312,315,286,302,1
312,312,291,305,1
312,310,299,307,1
311,309,307,311,1
309,308,313,314,1
306,308,318,317,1
304,309,320,318,1
301,310,322,317,1
298,313,322,315,1
297,315,321,312,1
298,317,319,308,1
302,319,316,304,1
306,320,312,300,1
310,319,307,295,1
313,316,303,292,1
317,311,301,289,1
321,306,301,289,1
324,301,302,289,1
324,298,304,289,1
320,296,305,288,1
316,293,306,287,1
311,293,305,286,1
307,292,304,286,1
305,293,303,288,1
303,295,303,291,1
299,297,304,295,1
294,298,305,300,1
289,300,307,305,1
286,300,309,310,1
283,300,310,313,1
281,301,309,316,1
280,301,308,318,1
281,302,308,319,1
284,302,307,318,1
289,302,306,315,1
294,303,304,313,1
299,303,304,311,1
305,304,304,313,1
310,304,306,314,1
311,304,307,315,1
310,304,308,315,1
308,304,306,315,1
305,303,305,315,1
302,303,305,316,1
301,302,307,317,1
300,302,309,317,1
299,302,310,316,1
299,302,311,314,1
300,302,310,312,1
303,302,310,309,1
305,302,310,309,1
309,303,310,311,1
312,303,311,314,1
315,303,312,318,1
315,304,311,321,1
314,306,311,323,1
313,308,310,324,1
311,309,309,323,1
308,308,307,320,1
306,307,306,316,1
304,305,303,311,1
302,302,302,308,1
302,300,302,306,1
304,299,304,306,1
308,299,306,308,1
311,300,308,310,1
313,304,309,312,1
315,307,309,313,1
315,310,307,313,1
313,313,305,312,1
309,316,303,312,1
303,318,302,311,1
297,320,302,310,1
290,319,302,306,1
284,317,301,303,1
283,313,300,300,1
285,311,299,300,1
288,310,299,301,1
290,309,301,303,1
291,308,303,305,1
294,306,306,307,1
298,305,307,307,1
302,305,307,306,1
305,304,307,304,1
307,304,307,302,1
309,303,309,300,1
310,303,311,299,1
310,304,312,299,1
306,304,312,298,1
300,304,311,298,1
293,305,311,298,1
285,305,310,298,1
278,306,309,299,1
276,306,307,299,1
280,306,305,300,1
288,306,304,300,1
299,305,304,300,1
311,304,304,300,1
320,303,304,300,1
324,301,303,299,1
325,299,302,298,1
323,300,302,298,1
319,302,301,299,1
315,305,302,300,1
312,308,303,301,1
310,310,305,304,1
307,311,307,306,1
304,311,309,309,1
300,310,311,310,1
295,309,312,312,1
290,308,312,314,1
289,308,313,316,1
291,307,313,317,1
294,306,314,318,1
299,306,314,319,1
304,308,315,321,1
309,309,315,322,1
313,309,315,323,1
314,307,315,322,1
313,305,314,319,1
312,302,312,316,1
313,300,310,313,1
314,299,308,311,1
315,299,308,310,1
316,298,307,310,1
316,298,307,310,1
319,299,308,313,1
321,300,310,317,1
321,302,311,321,1
317,304,312,323,1
310,305,311,323,1
303,307,311,321,1
296,308,311,318,1
290,310,310,315,1
284,312,309,312,1
281,313,308,309,1
285,313,306,308,1
295,313,304,308,1
306,312,303,311,1
314,311,304,314,1
317,309,306,317,1
312,308,308,317,1
305,307,311,316,1
298,305,311,313,1
293,304,309,309,1
291,303,305,306,1
293,301,303,304,1
298,301,301,303,1
303,301,302,300,1
307,301,303,296,1
311,300,306,290,1
312,298,309,287,1
311,297,310,285,1
310,297,311,286,1
309,299,311,288,1
309,301,311,292,1
309,303,311,296,1
309,305,312,299,1
309,306,313,302,1
310,307,313,305,1
311,308,314,307,1
311,307,315,310,1
312,306,316,312,1
314,304,317,312,1
317,302,317,313,1
320,300,317,314,1
324,299,317,315,1
325,299,316,314,1
324,299,315,310,1
319,299,313,306,1
311,300,311,301,1
300,300,309,297,1
290,299,307,292,1
283,298,305,289,1
282,296,304,288,1
287,294,303,288,1
294,292,302,288,1
302,291,301,289,1
307,292,301,290,1
309,295,300,292,1
310,298,300,293,1
311,303,300,294,1
310,306,302,296,1
308,309,303,297,1
305,311,304,301,1
307,313,306,305,1
309,314,308,309,1
312,314,310,312,1
313,314,311,315,1
313,313,312,316,1
310,314,313,317,1
305,315,313,318,1
300,318,312,319,1
296,320,311,320,1
295,321,311,322,1
296,321,311,323,1
298,320,313,324,1
301,318,313,323,1
303,316,314,322,1
306,314,312,320,1
309,312,311,319,1
311,310,309,318,1
314,309,309,316,1
317,308,309,316,1
319,308,310,317,1
321,307,311,319,1
321,307,312,322,1
320,306,313,323,1
318,307,312,324,1
315,307,310,323,1
310,306,307,322,1
303,304,304,321,1
295,301,301,317,1
289,299,299,313,1
287,298,299,310,1
290,297,300,306,1
297,295,301,303,1
303,295,302,300,1
306,295,303,298,1
307,296,304,295,1
309,296,305,293,1
309,295,305,293,1
309,295,306,295,1
309,295,305,299,1
311,294,303,304,1
313,294,302,308,1
315,294,302,310,1
318,295,303,312,1
320,297,306,313,1
323,301,310,314,1
323,305,314,316,1
323,309,317,317,1
321,312,320,318,1
317,313,320,316,1
311,313,318,312,1
304,312,315,306,1
300,311,312,301,1
298,310,309,296,1
299,309,308,292,1
298,306,307,289,1
297,302,306,287,1
294,298,305,285,1
294,294,305,286,1
296,292,307,288,1
299,291,308,290,1
302,291,309,292,1
302,293,311,293,1
303,295,313,294,1
304,298,314,297,1
302,301,314,300,1
301,304,315,303,1
300,307,315,306,1
301,311,315,308,1
305,314,314,310,1
310,315,315,311,1
316,316,315,313,1
320,316,315,315,1
319,316,315,316,1
312,314,315,316,1
300,312,314,316,1
290,310,313,316,1
285,308,312,316,1
283,307,310,317,1
283,305,307,317,1
283,305,303,317,1
284,305,300,317,1
292,305,298,317,1
305,306,297,317,1
317,308,299,318,1
325,310,303,319,1
331,312,308,320,1
332,314,312,321,1
331,315,315,322,1
327,314,315,321,1
321,311,315,319,1
315,306,315,315,1
309,303,314,313,1
305,301,312,311,1
302,299,312,308,1
300,299,311,306,1
299,299,310,304,1
300,299,309,302,1
301,299,308,301,1
304,300,307,302,1
308,300,306,307,1
310,300,304,311,1
310,300,303,316,1
308,300,302,319,1
305,300,302,320,1
301,301,304,319,1
297,302,307,317,1
293,302,310,314,1
291,303,312,312,1
292,303,314,310,1
293,303,315,308,1
292,302,315,307,1
291,301,315,307,1
294,300,314,309,1
298,299,314,312,1
303,297,313,315,1
307,296,310,318,1
312,295,308,321,1
314,295,306,324,1
316,297,305,326,1
316,299,304,326,1
314,301,305,324,1
310,304,306,323,1
306,308,308,320,1
303,311,309,317,1
301,314,310,313,1
300,315,310,310,1
300,316,310,306,1
303,316,310,303,1
306,315,311,302,1
309,314,311,302,1
309,311,311,303,1
308,308,311,304,1
305,305,310,305,1
302,303,308,304,1
296,301,305,302,1
292,299,301,299,1
291,297,298,298,1
291,296,297,296,1
294,296,297,296,1
299,298,299,296,1
303,299,301,298,1
304,301,303,301,1
300,304,304,304,1
292,306,305,305,1
284,307,305,305,1
280,307,304,303,1
280,308,302,302,1
285,307,302,303,1
293,307,303,305,1
302,305,304,307,1
310,304,304,308,1
314,302,305,309,1
316,300,306,308,1
314,299,306,306,1
311,298,305,304,1
306,298,304,303,1
302,297,302,303,1
298,298,302,305,1
296,299,302,309,1
299,302,303,314,1
307,305,304,319,1
316,309,304,323,1
321,312,303,326,1
322,314,301,326,1
321,315,298,324,1
319,315,296,322,1
315,313,295,319,1
310,310,297,316,1
306,308,301,312,1
304,306,305,309,1
302,305,307,305,1
302,305,308,303,1
301,305,309,302,1
301,304,308,300,1
301,303,305,297,1
303,301,300,294,1
304,298,296,291,1
306,296,292,291,1
306,294,291,292,1
308,294,292,294,1
310,295,296,298,1
312,297,302,302,1
313,301,307,306,1
312,305,311,308,1
310,308,313,309,1
305,310,314,309,1
300,310,314,308,1
293,309,313,306,1
283,308,311,305,1
274,306,309,305,1
272,305,306,306,1
277,304,305,308,1
285,305,304,312,1
294,307,306,316,1
299,308,308,318,1
303,308,309,319,1
305,308,311,318,1
308,307,313,317,1
312,306,315,316,1
315,305,316,318,1
317,305,317,322,1
320,307,317,326,1
324,310,319,329,1
326,313,320,330,1
326,315,320,329,1
325,317,320,327,1
320,319,319,324,1
312,320,317,321,1
305,320,314,318,1
299,320,312,315,1
296,319,310,311,1
295,318,308,307,1
298,316,307,304,1
303,313,306,302,1
308,309,304,299,1
312,305,301,296,1
313,302,299,293,1
312,299,297,290,1
310,298,297,289,1
311,298,298,291,1
312,300,300,293,1
314,304,302,296,1
315,308,303,298,1
315,313,303,298,1
311,315,303,296,1
307,315,302,293,1
304,313,301,291,1
304,311,300,291,1
305,310,301,293,1
309,310,302,296,1
314,310,304,300,1
318,310,305,304,1
320,311,306,308,1
318,311,307,311,1
312,311,309,313,1
305,311,308,315,1
300,309,305,316,1
295,306,301,317,1
292,303,297,315,1
290,300,294,313,1
290,298,293,310,1
294,297,296,307,1
303,298,301,305,1
312,301,305,305,1
317,303,309,306,1
317,305,311,310,1
314,306,312,315,1
309,307,312,321,1
304,308,312,325,1
299,310,312,327,1
295,312,311,324,1
292,313,310,318,1
291,312,308,311,1
290,310,306,307,1
289,307,303,306,1
289,304,301,308,1
291,300,299,313,1
295,298,299,318,1
299,298,301,322,1
303,300,303,324,1
306,302,306,324,1
307,304,310,323,1
306,306,312,322,1
300,307,313,319,1
292,307,312,315,1
286,307,311,311,1
284,307,310,307,1
286,307,308,302,1
289,306,307,299,1
290,305,305,295,1
291,304,303,293,1
288,302,301,291,1
285,302,299,290,1
284,301,297,289,1
290,301,296,288,1
303,300,297,288,1
315,299,298,290,1
323,299,299,292,1
327,299,301,294,1
327,300,303,298,1
325,301,304,303,1
323,303,306,307,1
321,305,307,312,1
322,308,308,314,1
323,311,309,315,1
324,313,310,313,1
325,314,310,311,1
325,315,309,309,1
323,316,309,308,1
320,316,309,310,1
318,316,311,314,1
317,317,312,319,1
315,318,313,325,1
312,319,315,330,1
309,319,315,331,1
305,318,314,331,1
304,317,313,328,1
304,314,310,324,1
305,311,307,318,1
306,307,304,312,1
304,305,303,307,1
301,304,302,304,1
298,304,302,303,1
297,305,302,302,1
298,306,302,302,1
304,308,301,303,1
310,310,299,304,1
316,311,297,306,1
321,311,298,306,1
325,310,301,307,1
326,309,304,308,1
324,308,307,310,1
321,308,309,311,1
318,308,311,313,1
315,308,311,315,1
312,307,312,317,1
310,306,312,319,1
308,305,311,319,1
305,304,308,317,1
302,305,305,315,1
298,305,301,313,1
293,306,299,313,1
288,308,299,315,1
284,311,302,319,1
284,313,307,321,1
287,314,311,321,1
292,313,314,319,1
296,311,315,316,1
299,308,316,314,1
304,307,316,314,1
308,305,315,315,1
313,305,314,315,1
317,305,314,314,1
320,304,314,313,1
323,304,314,313,1
324,304,313,314,1
322,303,313,315,1
318,303,313,315,1
315,303,312,314,1
312,302,312,311,1
311,300,311,307,1
313,299,310,302,1
313,298,310,298,1
312,299,309,296,1
309,300,309,295,1
306,302,310,295,1
305,304,310,297,1
304,307,310,301,1
303,311,311,305,1
301,313,311,308,1
300,315,311,310,1
298,316,311,311,1
297,315,310,312,1
297,314,307,312,1
300,312,305,311,1
304,311,302,308,1
305,308,301,304,1
303,306,301,301,1
298,304,303,299,1
294,302,306,298,1
293,301,309,298,1
292,301,312,299,1
293,302,313,300,1
299,305,315,302,1
311,309,316,306,1
321,312,318,310,1
326,314,318,314,1
328,317,318,318,1
328,318,318,320,1
328,320,317,322,1
328,321,316,322,1
329,321,314,320,1
330,320,313,318,1
331,319,310,315,1
332,317,307,312,1
331,315,304,308,1
331,311,300,305,1
329,309,297,304,1
325,308,296,305,1
320,308,297,307,1
316,310,301,313,1
313,311,305,320,1
311,313,309,325,1
310,314,312,327,1
309,314,314,324,1
309,312,314,318,1
309,311,313,311,1
307,310,311,304,1
303,310,307,299,1
301,310,304,295,1
299,308,301,294,1
301,307,299,293,1
306,305,297,293,1
312,303,293,292,1
316,300,289,292,1
319,299,287,293,1
320,300,287,295,1
322,301,290,297,1
324,302,295,299,1
324,304,300,299,1
322,306,305,300,1
320,309,309,301,1
316,311,312,303,1
312,312,313,304,1
306,313,314,305,1
303,311,314,305,1
301,308,315,305,1
300,306,314,306,1
300,305,313,306,1
301,305,311,306,1
305,307,309,307,1
311,309,308,308,1
316,310,308,312,1
317,311,309,315,1
316,310,310,319,1
313,308,310,321,1
311,306,311,323,1
312,304,311,326,1
313,302,312,327,1
313,300,312,326,1
311,300,312,323,1
307,299,312,318,1
304,300,310,311,1
303,300,309,304,1
304,301,307,297,1
304,301,305,291,1
303,301,303,288,1
302,302,302,288,1
304,303,301,291,1
310,306,302,293,1
315,307,304,294,1
320,309,305,296,1
321,310,306,298,1
320,310,308,299,1
316,310,309,300,1
312,310,309,302,1
307,309,310,304,1
305,308,311,308,1
306,306,313,311,1
307,306,314,315,1
307,306,315,318,1
306,307,316,321,1
303,309,317,322,1
302,312,317,323,1
303,314,318,325,1
304,316,319,327,1
303,317,317,331,1
301,317,315,334,1
296,317,312,336,1
290,316,307,337,1
288,314,304,335,1
293,311,304,331,1
303,308,305,326,1
311,305,306,319,1
315,303,306,313,1
317,302,306,309,1
319,300,305,307,1
320,300,304,307,1
320,300,305,308,1
320,300,306,309,1
320,299,307,309,1
320,299,308,310,1
320,300,309,312,1
319,303,308,315,1
318,305,305,317,1
318,307,301,317,1
318,308,297,315,1
317,309,293,312,1
316,308,291,310,1
314,307,293,308,1
310,306,296,309,1
307,307,301,311,1
306,308,305,313,1
304,309,308,315,1
302,308,310,314,1
300,307,311,311,1
299,305,310,307,1
299,302,309,303,1
298,300,307,299,1
297,298,306,295,1
297,298,305,294,1
299,299,305,296,1
301,302,305,299,1
308,306,305,303,1
317,309,306,307,1
324,311,306,310,1
325,312,306,311,1
321,312,306,311,1
316,311,305,311,1
313,310,305,311,1
313,309,304,310,1
316,308,303,308,1
320,306,303,305,1
324,305,302,301,1
325,303,300,299,1
324,301,298,296,1
320,300,296,294,1
317,300,295,295,1
314,301,297,298,1
312,303,300,302,1
310,305,304,307,1
308,306,308,311,1
308,309,312,313,1
311,310,315,315,1
315,312,316,317,1
319,311,315,318,1
320,309,312,318,1
318,308,308,320,1
312,307,304,321,1
304,308,301,322,1
297,308,301,322,1
293,308,304,322,1
292,308,308,323,1
289,308,312,322,1
283,308,314,319,1
274,307,314,316,1
269,306,313,313,1
269,305,311,310,1
274,304,310,307,1
284,303,308,304,1
296,302,307,302,1
309,302,307,303,1
319,303,306,304,1
326,305,305,304,1
331,308,305,304,1
332,310,304,304,1
331,310,303,304,1
326,311,302,308,1
320,311,303,313,1
312,310,304,319,1
304,309,303,322,1
298,308,301,324,1
295,308,298,324,1
293,309,296,324,1
293,311,295,323,1
293,312,295,321,1
295,312,296,316,1
297,310,299,309,1
297,307,302,301,1
296,304,306,296,1
299,303,308,294,1
305,303,310,295,1
309,305,310,296,1
311,307,309,296,1
311,308,309,294,1
310,308,309,291,1
310,308,309,288,1
310,307,309,285,1
309,306,309,284,1
307,306,309,284,1
303,307,308,287,1
298,307,307,289,1
293,306,306,291,1
286,304,304,294,1
282,302,303,296,1
286,300,303,299,1
296,299,304,303,1
307,298,306,308,1
317,299,308,313,1
323,302,310,317,1
327,307,312,319,1
327,312,314,320,1
323,316,314,318,1
315,318,313,315,1
307,318,311,311,1
301,316,310,309,1
296,313,308,309,1
294,309,307,311,1
296,306,305,312,1
297,304,303,312,1
299,303,301,313,1
300,303,301,313,1
300,303,301,313,1
299,305,302,312,1
296,307,302,310,1
295,308,302,307,1
295,308,302,305,1
299,309,303,304,1
306,309,304,304,1
313,310,305,305,1
318,310,307,307,1
320,311,308,308,1
319,312,309,308,1
317,312,310,307,1
312,312,308,305,1
309,311,306,303,1
306,309,304,302,1
303,307,302,301,1
301,306,301,299,1
303,307,302,297,1
303,307,303,297,1
303,306,304,297,1
301,306,306,298,1
298,305,306,299,1
298,305,307,302,1
301,306,307,307,1
305,307,309,313,1
309,309,310,319,1
313,311,311,325,1
317,313,311,329,1
320,314,311,330,1
322,315,312,329,1
322,315,312,328,1
321,315,312,324,1
317,315,310,322,1
314,315,309,320,1
311,314,307,318,1
307,313,305,317,1
302,311,303,316,1
302,310,302,315,1
304,309,300,315,1
308,309,299,314,1
310,310,297,312,1
307,310,296,308,1
304,310,295,304,1
302,309,296,302,1
303,308,300,304,1
303,307,306,308,1
303,305,311,312,1
305,304,315,314,1
307,302,317,314,1
309,302,318,312,1
310,303,317,310,1
311,304,316,308,1
311,306,315,305,1
311,307,314,304,1
311,309,313,303,1
308,310,313,302,1
305,311,313,302,1
302,311,313,301,1
300,311,312,300,1
300,310,310,299,1
299,309,308,298,1
298,308,307,298,1
297,305,306,300,1
297,303,306,300,1
297,301,306,301,1
298,299,306,302,1
299,298,307,301,1
300,297,308,300,1
301,297,308,300,1
300,297,308,301,1
298,299,307,302,1
298,302,307,304,1
300,304,307,305,1
299,306,307,306,1
294,309,305,306,1
289,311,303,306,1
286,312,301,306,1
289,313,302,306,1
293,312,304,307,1
297,311,307,309,1
301,310,309,309,1
305,309,310,307,1
309,308,311,305,1
313,308,311,304,1
317,308,311,304,1
320,307,312,304,1
324,306,312,304,1
327,304,313,304,1
329,302,313,306,1
330,301,313,309,1
327,301,314,312,1
321,302,313,315,1
313,304,314,318,1
305,307,315,319,1
298,310,314,317,1
292,312,312,313,1
287,313,309,309,1
287,313,305,307,1
295,312,302,308,1
306,310,300,312,1
318,307,301,316,1
325,304,303,318,1
330,301,305,319,1
329,298,306,318,1
323,294,307,318,1
316,292,308,319,1
311,292,308,323,1
309,294,308,328,1
308,297,310,333,1
307,300,311,336,1
305,303,311,334,1
303,307,309,329,1
302,312,306,323,1
304,317,302,314,1
309,319,298,305,1
312,320,298,299,1
313,319,300,296,1
311,317,304,296,1
308,314,309,297,1
305,312,312,297,1
303,310,314,296,1
302,308,313,293,1
301,305,312,290,1
303,302,311,289,1
304,300,311,288,1
306,298,310,290,1
306,296,311,293,1
306,294,312,297,1
305,293,314,304,1
304,292,315,310,1
302,292,316,314,1
300,296,316,317,1
300,301,316,318,1
302,306,315,316,1
304,309,313,313,1
305,311,312,309,1
306,311,309,305,1
306,311,307,303,1
306,310,305,303,1
304,310,304,304,1
304,309,304,304,1
305,307,305,305,1
307,305,305,303,1
306,301,304,301,1
305,298,304,299,1
304,296,304,299,1
304,296,305,298,1
303,296,306,298,1
301,298,307,299,1
302,301,308,301,1
303,306,310,304,1
301,311,311,307,1
302,316,312,311,1
306,319,313,316,1
311,322,314,322,1
313,323,315,326,1
315,322,315,328,1
316,322,315,328,1
317,321,315,328,1
317,320,314,326,1
318,319,312,324,1
319,316,311,321,1
317,311,309,319,1
313,306,309,316,1
307,301,308,313,1
303,297,308,310,1
302,295,307,308,1
303,295,307,307,1
307,296,306,307,1
311,298,306,307,1
313,300,306,307,1
312,302,306,305,1
309,304,306,302,1
306,307,304,300,1
304,309,302,298,1
303,309,300,298,1
303,309,299,298,1
304,307,300,300,1
304,306,303,301,1
303,304,304,301,1
302,303,306,302,1
302,303,306,301,1
301,303,306,299,1
301,304,306,299,1
301,304,307,301,1
303,303,307,305,1
306,302,308,309,1
310,301,308,314,1
313,301,306,317,1
315,302,304,320,1
315,304,302,324,1
313,305,300,324,1
312,306,299,323,1
310,306,301,322,1
310,305,304,319,1
309,304,306,315,1
309,304,308,309,1
309,305,308,302,1
308,306,308,296,1
307,307,308,292,1
307,308,309,290,1
305,307,310,292,1
304,305,310,296,1
302,304,309,299,1
299,302,308,302,1
295,300,306,305,1
293,298,305,307,1
292,297,304,307,1
295,297,303,306,1
301,298,303,304,1
308,300,303,302,1
313,304,304,301,1
315,307,305,300,1
312,311,305,299,1
309,313,305,298,1
307,316,305,298,1
305,318,305,300,1
303,321,305,304,1
302,322,305,310,1
303,321,305,316,1
309,319,305,321,1
317,316,306,323,1
324,313,306,324,1
328,310,307,323,1
325,306,307,320,1
319,304,307,318,1
311,302,307,317,1
305,301,306,316,1
302,301,306,314,1
303,302,305,311,1
306,304,304,307,1
309,306,302,304,1
312,308,300,301,1
312,309,298,299,1
308,311,298,298,1
303,311,300,297,1
297,311,303,296,1
293,309,305,295,1
290,308,306,292,1
290,307,307,292,1
291,306,307,293,1
293,306,307,294,1
294,305,307,296,1
294,303,308,296,1
292,300,308,295,1
295,296,308,294,1
301,294,308,295,1
308,293,310,297,1
311,293,311,299,1
313,296,311,301,1
314,300,311,302,1
315,304,311,301,1
317,308,311,300,1
318,312,310,301,1
318,314,308,304,1
315,316,309,308,1
310,318,310,313,1
304,318,311,318,1
295,318,311,322,1
287,317,308,325,1
282,315,304,325,1
280,312,301,323,1
284,310,298,319,1
292,309,298,314,1
302,309,302,310,1
310,310,305,307,1
316,312,309,306,1
319,314,313,305,1
320,315,315,305,1
319,315,315,305,1
317,314,315,303,1
315,313,314,301,1
