312,349,315,312,0
311,353,314,311,0
309,351,313,308,0
308,345,312,305,0
308,335,312,303,0
307,325,313,302,0
305,316,312,303,0
301,306,311,305,0
298,295,310,307,0
295,286,310,307,0
295,282,310,308,0
298,286,311,310,0
305,296,311,311,0
313,306,310,311,0
319,314,307,310,0
323,319,305,310,0
323,320,306,310,0
320,318,309,312,0
316,312,311,313,0
310,301,313,312,0
302,288,314,310,0
297,275,315,309,0
296,265,316,310,0
298,262,318,313,0
303,268,318,316,0
305,278,319,320,0
305,288,320,323,0
304,300,320,326,0
304,312,320,329,0
304,322,320,332,0
304,327,320,333,0
304,325,320,332,0
305,317,319,329,0
305,306,319,327,0
306,302,320,323,0
306,310,320,319,0
306,324,321,312,0
304,336,320,305,0
300,341,319,301,0
297,338,318,299,0
294,326,318,300,0
293,310,317,304,0
293,295,316,310,0
295,286,315,318,0
297,284,315,325,0
299,288,314,331,0
300,292,313,333,0
299,295,312,330,0
297,295,310,324,0
296,294,308,316,0
295,291,307,307,0
296,288,308,300,0
298,287,309,296,0
301,289,311,294,0
303,293,313,293,0
304,298,314,293,0
305,305,315,295,0
305,313,316,296,0
305,318,317,298,0
304,318,317,299,0
302,317,317,301,0
299,315,316,301,0
295,310,315,299,0
290,302,313,295,0
288,294,311,291,0
287,287,310,289,0
290,279,310,290,0
296,274,310,292,0
301,274,309,296,0
306,278,307,299,0
309,282,308,302,0
311,289,308,304,0
313,298,309,305,0
313,307,310,306,0
313,313,311,309,0
310,313,311,313,0
307,311,311,315,0
303,306,312,317,0
300,301,312,318,0
299,299,313,319,0
299,303,313,318,0
301,310,311,316,0
306,313,310,314,0
313,312,309,312,0
320,308,311,313,0
326,305,314,315,0
328,305,316,318,0
325,308,316,320,0
319,313,317,322,0
314,318,316,324,0
310,320,316,324,0
309,319,315,323,0
308,317,316,321,0
307,310,316,318,0
304,298,315,314,0
301,286,314,309,0
299,280,314,304,0
297,281,313,300,0
296,286,313,297,0
295,291,313,296,0
295,296,314,296,0
296,298,316,298,0
299,300,318,301,0
305,301,319,304,0
310,299,319,305,0
314,297,317,306,0
318,299,315,306,0
321,303,313,306,0
320,302,311,307,0
313,293,309,306,0
304,280,308,303,0
297,265,306,298,0
290,254,304,292,0
285,256,305,288,0
285,277,306,289,0
289,301,308,293,0
295,308,310,298,0
301,301,312,303,0
305,290,313,307,0
307,282,314,310,0
308,279,314,313,0
306,282,314,315,0
303,283,313,315,0
298,282,311,314,0
295,283,310,315,0
297,287,311,317,0
301,296,313,319,0
306,306,314,322,0
309,314,315,323,0
311,318,316,324,0
311,318,317,324,0
309,316,318,322,0
306,314,319,320,0
304,312,320,318,0
303,312,320,315,0
299,314,319,311,0
297,316,317,308,0
297,314,316,306,0
299,308,317,307,0
302,306,316,309,0
303,308,315,310,0
303,312,313,310,0
304,316,312,311,0
305,315,314,311,0
306,307,315,308,0
309,297,316,303,0
310,288,315,299,0
310,282,316,296,0
312,279,317,297,0
316,278,318,298,0
318,275,318,300,0
313,268,317,301,0
304,264,317,305,0
298,267,317,309,0
295,274,317,312,0
296,284,318,313,0
295,294,318,312,0
295,300,317,310,0
294,300,316,309,0
293,296,315,308,0
293,291,315,309,0
295,290,315,311,0
297,294,315,313,0
298,304,314,312,0
298,316,313,311,0
296,326,312,309,0
295,323,311,306,0
293,306,309,303,0
293,280,308,300,0
296,257,308,301,0
300,245,309,304,0
306,242,312,310,0
310,247,314,315,0
311,258,315,320,0
310,273,317,323,0
309,290,318,324,0
308,305,318,323,0
308,315,317,321,0
310,321,316,318,0
314,325,314,316,0
318,328,312,314,0
315,329,310,313,0
307,326,309,311,0
298,321,308,309,0
291,315,308,306,0
288,310,308,304,0
288,308,309,302,0
292,311,309,302,0
297,316,309,304,0
302,319,310,306,0
306,320,311,307,0
308,319,312,309,0
308,315,313,309,0
305,309,313,309,0
300,302,313,308,0
298,292,314,307,0
301,280,315,305,0
307,272,315,303,0
312,271,314,302,0
314,277,315,303,0
315,290,316,304,0
316,305,316,306,0
316,317,315,307,0
313,325,314,309,0
310,329,312,309,0
307,329,311,309,0
304,323,309,308,0
301,315,308,305,0
300,307,309,303,0
299,301,311,303,0
300,297,312,306,0
301,293,313,310,0
303,290,315,314,0
303,289,317,318,0
304,287,318,319,0
302,287,319,318,0
300,292,319,315,0
297,299,318,311,0
294,309,316,307,0
294,318,315,305,0
297,322,315,303,0
302,317,316,302,0
307,305,317,301,0
310,291,317,302,0
309,279,316,302,0
306,274,316,304,0
303,276,316,304,0
301,283,316,304,0
299,293,317,303,0
296,301,317,302,0
294,305,318,303,0
296,308,320,305,0
301,312,322,308,0
307,317,324,313,0
311,320,324,316,0
313,321,323,318,0
313,322,323,319,0
311,325,323,321,0
311,326,323,322,0
311,323,323,323,0
311,319,323,322,0
308,315,322,319,0
303,312,322,315,0
298,313,321,310,0
299,319,320,303,0
304,326,317,297,0
310,329,313,292,0
318,328,308,288,0
323,329,305,287,0
323,329,301,287,0
313,323,300,287,0
298,312,299,289,0
285,304,301,293,0
285,299,306,299,0
294,295,312,303,0
305,291,316,306,0
310,289,318,308,0
309,288,319,311,0
303,287,319,314,0
294,284,319,318,0
286,283,319,321,0
283,290,320,326,0
285,305,322,332,0
292,320,324,335,0
302,330,324,335,0
309,338,322,332,0
313,344,319,328,0
313,345,316,322,0
313,343,314,315,0
312,336,312,310,0
311,329,312,306,0
310,324,311,303,0
308,323,311,301,0
307,326,312,299,0
305,332,313,297,0
305,333,314,298,0
306,324,317,300,0
309,312,319,302,0
311,299,322,305,0
312,283,322,306,0
309,266,320,304,0
307,259,317,303,0
306,263,314,303,0
307,275,311,304,0
310,289,309,306,0
309,298,308,310,0
308,300,308,311,0
308,293,308,312,0
307,283,308,311,0
304,274,309,308,0
301,272,310,305,0
299,280,311,303,0
299,295,311,301,0
299,309,312,300,0
300,322,313,301,0
302,328,315,304,0
304,327,317,308,0
305,317,319,310,0
304,302,320,312,0
303,287,321,314,0
302,276,322,315,0
302,276,322,317,0
303,285,322,321,0
305,299,322,324,0
307,313,321,327,0
307,325,319,329,0
307,336,318,330,0
304,338,318,330,0
301,330,317,331,0
297,319,316,330,0
293,311,314,328,0
294,309,313,324,0
300,311,314,320,0
307,315,315,315,0
310,318,315,309,0
310,321,315,303,0
307,324,315,299,0
305,327,315,296,0
304,332,315,294,0
304,335,315,294,0
304,333,314,294,0
304,329,314,293,0
303,324,313,291,0
302,318,313,289,0
303,313,312,289,0
306,308,312,289,0
308,303,312,291,0
308,300,312,294,0
307,300,313,298,0
306,302,313,302,0
304,304,314,305,0
305,309,315,310,0
307,314,317,314,0
310,316,320,318,0
312,312,321,320,0
314,303,322,320,0
314,293,323,320,0
314,287,323,320,0
313,286,323,319,0
310,288,322,317,0
308,293,321,316,0
307,301,319,315,0
307,303,319,316,0
307,304,318,318,0
306,311,318,322,0
305,317,318,327,0
305,316,318,331,0
306,313,317,332,0
306,310,317,330,0
308,310,316,325,0
310,312,315,319,0
311,313,315,311,0
312,315,314,306,0
314,318,314,303,0
319,319,315,301,0
326,320,317,300,0
334,319,316,299,0
333,318,315,298,0
323,317,313,298,0
310,316,313,297,0
300,317,312,298,0
292,317,312,297,0
287,315,311,297,0
283,312,311,296,0
281,309,311,295,0
280,304,311,295,0
281,296,311,296,0
281,288,311,300,0
283,286,310,305,0
287,287,311,311,0
291,287,311,316,0
296,288,312,319,0
300,295,313,320,0
305,311,317,321,0
311,328,321,322,0
316,338,324,321,0
318,336,325,317,0
318,329,323,314,0
315,325,321,311,0
313,324,320,308,0
310,325,319,305,0
310,326,319,303,0
311,327,319,302,0
311,326,319,301,0
312,322,319,301,0
312,316,318,302,0
312,308,316,303,0
311,303,314,304,0
311,301,312,303,0
310,302,311,302,0
309,304,310,300,0
308,305,310,298,0
307,304,310,297,0
307,300,309,296,0
307,293,309,295,0
305,283,309,294,0
304,271,309,293,0
301,258,310,292,0
299,247,311,291,0
297,243,312,293,0
294,247,313,296,0
294,261,315,301,0
295,277,318,304,0
295,292,319,307,0
301,305,319,311,0
313,317,318,314,0
326,327,316,315,0
336,333,315,314,0
340,335,313,313,0
335,337,311,312,0
322,343,311,311,0
310,347,311,311,0
303,345,312,311,0
302,340,313,310,0
303,334,313,308,0
306,330,314,305,0
307,328,313,303,0
306,328,313,300,0
302,327,312,299,0
298,330,312,300,0
297,336,313,305,0
300,342,315,312,0
303,343,316,318,0
305,341,318,324,0
303,335,320,330,0
302,323,321,334,0
303,311,321,335,0
304,305,320,334,0
305,302,320,331,0
306,295,321,327,0
306,281,321,322,0
306,264,319,316,0
304,252,316,309,0
302,247,313,303,0
299,244,310,298,0
298,247,308,296,0
301,262,308,298,0
307,286,309,302,0
308,311,311,308,0
306,328,312,312,0
304,335,312,313,0
301,333,312,313,0
298,324,313,314,0
297,313,316,316,0
298,299,319,317,0
301,284,319,317,0
302,269,317,315,0
302,258,314,310,0
301,260,313,305,0
303,272,312,302,0
305,285,312,299,0
307,296,312,297,0
309,306,312,296,0
311,314,314,296,0
312,318,315,295,0
313,319,316,294,0
312,318,315,291,0
309,320,315,289,0
307,324,313,288,0
304,329,312,286,0
300,336,310,282,0
295,342,308,279,0
290,344,306,278,0
288,340,306,281,0
288,330,307,291,0
294,318,310,304,0
300,306,313,315,0
305,296,315,322,0
307,290,316,327,0
309,289,316,328,0
309,290,316,327,0
309,291,316,323,0
308,295,316,319,0
306,300,316,314,0
303,305,316,308,0
301,311,315,302,0
299,317,315,297,0
301,321,316,295,0
303,321,317,295,0
304,313,317,297,0
303,301,318,300,0
302,293,318,301,0
301,292,318,303,0
300,294,317,308,0
301,295,317,314,0
303,292,317,319,0
304,287,315,320,0
305,281,313,319,0
306,276,311,315,0
307,271,309,310,0
307,267,306,304,0
305,266,304,299,0
305,272,303,296,0
306,279,305,293,0
307,284,307,289,0
308,289,309,286,0
307,294,310,282,0
304,297,311,279,0
299,300,312,278,0
297,305,312,280,0
297,315,312,284,0
298,327,312,289,0
301,334,313,294,0
303,334,313,298,0
304,330,313,302,0
304,327,313,305,0
303,328,312,307,0
302,331,312,309,0
303,335,312,310,0
303,336,312,309,0
304,336,312,307,0
304,333,312,304,0
303,326,311,301,0
301,316,311,299,0
300,309,311,299,0
301,314,312,300,0
301,325,312,301,0
301,335,313,301,0
301,339,314,302,0
305,334,315,302,0
311,325,315,301,0
313,316,315,301,0
312,308,313,299,0
307,302,312,297,0
302,299,310,294,0
298,299,309,293,0
296,299,308,293,0
296,294,307,295,0
297,290,306,297,0
299,289,306,301,0
300,291,307,306,0
302,292,308,313,0
304,294,310,322,0
306,294,312,330,0
307,295,313,336,0
308,298,314,340,0
309,305,315,342,0
309,315,316,341,0
308,322,317,338,0
307,325,316,333,0
304,325,315,327,0
301,321,313,320,0
298,314,310,310,0
297,304,307,301,0
297,293,305,293,0
300,279,303,288,0
304,266,302,284,0
306,255,301,282,0
307,246,300,281,0
304,242,301,281,0
302,250,302,281,0
302,264,304,282,0
305,277,306,284,0
304,290,307,287,0
300,304,309,292,0
298,317,313,300,0
300,330,317,309,0
304,341,320,318,0
308,345,323,325,0
311,344,323,328,0
312,342,324,329,0
312,340,324,328,0
310,338,323,324,0
309,337,322,320,0
310,338,323,318,0
312,341,323,317,0
313,344,324,320,0
313,346,324,323,0
311,344,323,323,0
309,335,322,322,0
306,323,321,320,0
303,313,320,318,0
302,311,320,315,0
303,315,319,312,0
306,321,318,309,0
308,325,318,304,0
311,325,318,300,0
312,318,317,296,0
313,306,316,293,0
313,295,315,289,0
313,287,314,286,0
312,283,313,283,0
310,281,312,282,0
309,278,311,282,0
308,274,311,284,0
307,270,311,288,0
307,267,311,294,0
307,267,312,300,0
307,267,313,304,0
306,269,313,307,0
306,276,312,308,0
305,288,311,309,0
305,301,311,309,0
304,309,311,309,0
303,312,313,310,0
302,314,314,311,0
302,319,316,313,0
303,326,316,314,0
304,332,316,313,0
305,339,316,311,0
306,343,316,309,0
308,340,315,305,0
309,331,315,302,0
310,319,315,299,0
311,307,314,299,0
312,297,313,300,0
312,291,311,302,0
313,290,310,304,0
314,290,309,305,0
314,289,308,305,0
315,287,307,304,0
315,286,307,302,0
315,288,308,300,0
315,292,310,299,0
316,294,311,298,0
315,295,312,298,0
308,295,311,299,0
299,296,310,301,0
294,302,310,303,0
294,311,311,309,0
298,319,312,314,0
302,321,312,318,0
303,319,312,320,0
303,317,312,321,0
302,316,311,321,0
301,313,310,318,0
300,310,310,313,0
300,310,309,308,0
300,314,309,304,0
301,320,309,301,0
301,325,310,300,0
302,325,312,300,0
304,321,313,303,0
308,316,315,305,0
312,312,315,308,0
315,309,316,311,0
317,307,317,314,0
316,304,317,315,0
314,297,315,315,0
310,286,313,311,0
304,272,311,306,0
300,262,310,302,0
300,259,311,300,0
303,266,312,302,0
306,284,312,305,0
309,306,312,308,0
310,327,312,309,0
311,345,310,307,0
309,356,308,303,0
306,357,307,300,0
302,343,306,299,0
297,319,308,300,0
292,294,310,301,0
291,278,313,304,0
294,274,315,306,0
296,278,316,307,0
297,286,317,308,0
297,294,317,310,0
299,302,316,310,0
301,307,316,311,0
304,308,316,313,0
307,307,315,318,0
310,309,315,323,0
313,311,314,328,0
315,313,314,330,0
316,313,313,331,0
316,312,312,330,0
316,308,312,327,0
315,303,311,324,0
314,301,310,318,0
313,301,309,312,0
312,301,308,304,0
311,300,307,295,0
309,301,305,287,0
308,304,305,283,0
308,304,306,283,0
307,300,308,284,0
307,295,309,285,0
306,292,308,285,0
305,292,307,284,0
304,296,306,286,0
302,302,305,287,0
301,307,304,290,0
300,311,305,292,0
299,319,305,295,0
299,328,305,298,0
300,333,305,299,0
300,333,305,298,0
300,331,305,298,0
303,328,305,299,0
307,322,307,300,0
311,318,308,303,0
316,315,309,306,0
318,316,310,309,0
319,320,311,312,0
319,324,312,314,0
318,327,313,314,0
316,327,313,312,0
315,325,313,309,0
312,323,312,305,0
310,322,311,303,0
308,320,311,300,0
307,316,311,299,0
307,310,313,299,0
308,304,314,300,0
309,298,315,301,0
311,292,315,302,0
313,286,313,303,0
316,281,311,304,0
321,278,310,305,0
323,277,309,306,0
318,280,310,307,0
308,284,311,309,0
300,287,312,310,0
294,286,313,311,0
290,280,315,311,0
287,271,315,310,0
288,263,315,310,0
291,264,315,313,0
294,276,315,317,0
296,296,315,319,0
298,315,316,320,0
301,330,317,318,0
304,339,316,315,0
304,344,314,312,0
304,345,312,311,0
302,343,311,310,0
302,337,310,309,0
301,331,309,308,0
302,326,309,307,0
303,323,309,306,0
304,320,310,306,0
304,314,310,307,0
303,305,311,307,0
301,295,311,307,0
299,286,312,307,0
296,278,311,306,0
292,274,310,303,0
289,276,309,300,0
288,286,307,297,0
288,299,306,296,0
291,309,306,296,0
293,317,306,298,0
295,323,307,302,0
296,326,309,307,0
296,324,310,311,0
297,322,312,313,0
302,326,313,315,0
307,332,315,317,0
312,336,317,318,0
314,334,317,319,0
315,326,316,318,0
314,314,315,317,0
312,302,313,315,0
310,291,311,314,0
307,285,310,315,0
304,285,310,316,0
301,293,309,314,0
299,306,309,311,0
297,319,308,305,0
295,328,308,299,0
295,334,309,295,0
296,336,311,295,0
298,334,312,298,0
300,330,313,304,0
302,328,313,311,0
303,326,313,316,0
303,321,311,318,0
303,316,309,318,0
302,313,307,317,0
302,311,306,315,0
302,310,305,313,0
303,309,306,309,0
302,306,306,304,0
301,300,307,298,0
299,292,307,292,0
296,284,307,288,0
293,279,308,284,0
292,275,309,283,0
293,276,309,285,0
295,278,308,288,0
298,284,308,292,0
300,294,308,297,0
302,303,308,301,0
303,310,308,305,0
301,312,307,309,0
296,308,306,313,0
289,300,306,315,0
283,287,306,314,0
280,273,306,311,0
281,265,308,306,0
286,272,310,302,0
294,291,312,300,0
303,311,314,298,0
311,322,316,298,0
315,326,317,298,0
316,325,317,299,0
314,319,317,298,0
310,314,316,298,0
307,313,316,299,0
305,315,315,300,0
302,318,315,300,0
301,319,314,300,0
299,318,313,300,0
298,313,313,300,0
299,308,312,301,0
300,306,312,302,0
300,308,311,304,0
301,311,310,305,0
302,313,310,306,0
302,310,310,307,0
302,301,310,308,0
302,290,310,308,0
301,284,310,308,0
302,287,311,307,0
303,292,312,307,0
305,297,313,306,0
307,302,313,305,0
308,308,313,305,0
308,315,313,306,0
307,322,313,308,0
306,327,313,311,0
305,331,313,314,0
305,331,314,317,0
304,327,315,320,0
301,318,315,322,0
297,307,315,323,0
295,295,315,321,0
295,285,316,319,0
299,283,316,316,0
306,291,317,315,0
314,299,317,317,0
321,300,317,320,0
326,298,317,323,0
326,298,315,323,0
319,302,314,322,0
310,310,312,319,0
303,316,311,315,0
298,319,309,311,0
296,320,308,306,0
294,319,308,303,0
293,317,308,301,0
294,319,308,300,0
295,323,309,301,0
297,324,309,303,0
299,321,309,305,0
300,314,309,306,0
302,306,309,307,0
303,296,309,308,0
304,288,309,309,0
304,282,310,312,0
304,282,312,315,0
304,286,313,319,0
305,289,313,320,0
305,290,314,319,0
303,293,315,316,0
302,298,315,312,0
302,305,316,306,0
304,312,316,301,0
306,316,315,298,0
307,313,315,295,0
307,306,314,293,0
306,303,312,291,0
304,304,311,290,0
303,308,310,291,0
301,312,308,292,0
301,316,307,294,0
300,316,307,295,0
300,316,307,297,0
300,313,308,299,0
300,312,309,301,0
302,314,309,302,0
304,315,310,303,0
308,307,311,304,0
311,291,313,303,0
313,279,314,302,0
312,278,315,302,0
310,287,316,302,0
308,300,315,303,0
307,312,314,303,0
306,319,312,303,0
305,317,309,301,0
304,311,306,298,0
304,307,304,296,0
304,308,304,296,0
304,310,305,299,0
305,312,307,303,0
306,312,308,309,0
305,307,308,316,0
302,297,309,320,0
299,284,309,324,0
298,275,310,325,0
300,277,312,326,0
304,291,313,325,0
309,308,313,323,0
313,320,313,319,0
316,322,312,316,0
316,314,312,312,0
316,301,311,308,0
315,292,310,305,0
312,288,310,301,0
310,291,310,299,0
310,302,310,296,0
310,315,311,294,0
310,325,311,292,0
310,333,311,294,0
310,340,311,296,0
309,342,310,298,0
307,339,309,298,0
306,330,308,298,0
305,315,308,300,0
305,301,309,304,0
308,292,312,310,0
312,289,315,316,0
316,290,316,320,0
318,293,318,323,0
316,295,319,324,0
314,297,318,323,0
311,302,317,321,0
309,308,316,317,0
307,315,314,312,0
306,321,313,307,0
306,325,312,303,0
305,321,311,301,0
302,310,311,299,0
298,296,309,297,0
294,286,308,295,0
292,285,307,295,0
294,289,307,295,0
298,295,306,296,0
302,298,306,297,0
305,300,306,299,0
308,305,307,301,0
311,311,309,305,0
312,313,311,310,0
311,313,312,315,0
309,312,313,320,0
306,309,313,321,0
304,307,312,320,0
304,305,311,316,0
305,301,310,312,0
306,297,309,307,0
306,297,308,305,0
306,301,307,306,0
307,304,307,310,0
308,302,307,314,0
309,295,307,316,0
309,288,308,317,0
308,282,308,317,0
307,280,308,317,0
307,284,308,317,0
308,292,309,318,0
311,299,310,319,0
313,306,311,318,0
315,311,312,317,0
316,316,312,315,0
317,318,312,312,0
317,317,312,309,0
318,313,311,307,0
317,308,309,304,0
313,301,307,302,0
310,293,305,300,0
309,287,304,299,0
311,289,306,300,0
310,297,308,301,0
304,305,309,303,0
296,312,309,305,0
290,317,309,308,0
288,320,309,313,0
288,322,309,318,0
290,322,309,321,0
294,321,310,322,0
300,319,311,321,0
305,317,312,320,0
307,316,313,320,0
308,315,313,321,0
307,308,313,322,0
306,295,311,321,0
304,280,310,319,0
301,266,308,315,0
298,257,308,312,0
295,255,309,309,0
294,263,310,308,0
295,279,312,307,0
297,293,314,305,0
303,304,315,302,0
312,313,314,298,0
319,319,312,293,0
322,316,308,288,0
322,305,305,284,0
321,295,304,283,0
319,292,306,285,0
316,293,305,287,0
309,293,304,289,0
301,293,303,290,0
295,292,303,291,0
289,280,304,291,0
284,257,305,291,0
280,238,306,293,0
282,240,308,300,0
287,261,311,309,0
294,281,313,319,0
299,292,315,326,0
303,294,315,330,0
307,294,313,330,0
310,297,310,326,0
309,308,306,319,0
308,325,304,312,0
312,338,303,307,0
321,342,307,306,0
328,340,311,307,0
324,336,317,308,0
315,331,322,310,0
310,324,326,311,0
311,315,328,311,0
312,301,328,309,0
310,287,326,306,0
307,272,323,302,0
305,263,319,300,0
304,264,315,299,0
304,276,313,300,0
304,298,310,302,0
306,324,307,303,0
308,348,305,304,0
308,366,303,304,0
309,376,301,304,0
309,374,301,306,0
309,360,301,309,0
309,339,301,312,0
309,318,302,314,0
310,301,302,314,0
311,294,304,314,0
312,297,305,314,0
313,302,306,313,0
314,304,308,312,0
314,300,309,311,0
312,295,310,310,0
310,293,309,309,0
311,298,309,308,0
311,302,309,308,0
311,299,309,309,0
311,290,309,308,0
310,274,308,307,0
308,255,307,304,0
306,238,307,301,0
305,229,307,298,0
307,228,306,296,0
306,231,304,294,0
302,242,302,293,0
300,264,301,295,0
301,289,304,299,0
307,312,308,305,0
313,331,311,310,0
317,343,312,313,0
318,351,313,314,0
318,356,313,314,0
316,357,314,314,0
314,355,314,314,0
312,348,314,315,0
310,336,313,316,0
309,325,313,317,0
308,318,312,318,0
307,316,311,317,0
306,319,309,315,0
304,323,308,312,0
304,329,307,310,0
304,336,307,308,0
303,343,306,305,0
303,346,306,303,0
302,341,306,301,0
301,325,306,301,0
302,304,307,301,0
302,286,308,303,0
302,274,309,306,0
303,267,310,309,0
303,263,311,314,0
304,262,311,319,0
306,264,310,323,0
307,270,310,327,0
308,281,309,332,0
308,290,308,334,0
306,297,308,335,0
306,308,308,336,0
307,316,310,337,0
310,319,311,338,0
312,313,313,339,0
314,305,314,337,0
316,299,316,334,0
318,295,317,330,0
320,294,318,328,0
322,299,318,325,0
323,310,318,322,0
324,321,318,318,0
324,327,317,314,0
324,326,316,310,0
322,319,314,306,0
319,311,311,301,0
315,303,308,295,0
312,294,305,290,0
309,286,303,285,0
304,284,302,281,0
301,293,301,279,0
298,310,302,281,0
298,326,303,283,0
302,336,305,286,0
309,342,306,288,0
315,345,306,289,0
319,344,305,290,0
320,337,303,291,0
315,330,303,292,0
309,324,303,294,0
303,319,304,297,0
299,314,304,298,0
295,308,305,298,0
291,302,305,298,0
291,294,306,297,0
294,286,306,297,0
299,283,307,298,0
305,289,306,300,0
310,298,307,303,0
313,303,308,304,0
314,303,308,304,0
314,301,306,303,0
313,297,306,302,0
312,295,305,302,0
311,295,305,303,0
310,296,304,302,0
308,293,302,302,0
308,288,301,301,0
311,285,302,302,0
317,284,302,304,0
324,285,304,306,0
328,288,305,309,0
327,290,307,311,0
321,290,309,312,0
313,290,310,313,0
307,290,311,315,0
304,294,312,317,0
304,301,313,319,0
305,304,313,321,0
307,300,313,322,0
307,291,313,322,0
307,283,312,322,0
305,280,310,322,0
302,280,308,321,0
299,283,305,320,0
298,287,303,319,0
297,292,303,318,0
298,294,303,316,0
297,296,304,314,0
296,304,304,312,0
296,317,305,311,0
298,324,307,311,0
301,321,311,311,0
306,314,314,311,0
311,309,316,312,0
315,306,316,312,0
318,307,315,311,0
320,309,313,309,0
320,311,311,307,0
319,313,309,308,0
317,315,308,311,0
316,319,307,314,0
315,325,306,316,0
313,331,305,315,0
312,337,303,313,0
311,339,302,308,0
309,337,301,304,0
309,331,300,301,0
307,330,300,299,0
307,336,301,299,0
308,341,302,301,0
309,341,304,303,0
311,333,306,308,0
314,319,308,315,0
318,304,310,322,0
321,294,313,327,0
324,289,315,330,0
324,289,315,329,0
323,289,315,326,0
321,290,314,322,0
317,289,313,320,0
313,287,312,320,0
308,285,311,321,0
306,288,310,324,0
307,296,311,328,0
309,302,312,330,0
311,304,312,330,0
313,300,312,326,0
314,288,311,320,0
312,269,311,312,0
308,253,312,304,0
305,248,313,298,0
305,253,313,292,0
309,264,313,287,0
314,281,312,284,0
315,299,309,282,0
312,311,308,281,0
307,314,308,282,0
303,307,309,285,0
302,295,309,289,0
305,287,309,294,0
311,292,311,301,0
315,305,312,308,0
318,315,313,314,0
318,321,315,318,0
316,323,315,322,0
312,323,314,323,0
309,322,312,322,0
307,321,310,319,0
308,322,308,315,0
309,323,306,312,0
310,323,305,309,0
311,322,304,306,0
311,321,304,304,0
312,321,304,300,0
312,320,304,295,0
313,318,303,289,0
313,316,303,285,0
315,315,304,281,0
317,315,304,279,0
320,315,304,278,0
321,316,302,277,0
322,315,300,277,0
316,310,299,278,0
303,303,299,280,0
289,298,300,282,0
281,296,301,284,0
279,299,302,286,0
282,302,303,288,0
288,300,303,290,0
294,296,305,293,0
300,291,306,298,0
304,288,308,304,0
308,287,310,312,0
310,289,311,319,0
313,292,311,325,0
315,295,312,327,0
318,299,313,327,0
321,301,314,325,0
322,301,313,322,0
319,299,312,318,0
314,296,310,313,0
306,291,308,308,0
298,285,306,302,0
291,283,305,296,0
288,289,304,293,0
289,302,305,293,0
292,313,306,294,0
296,316,308,297,0
299,315,309,302,0
303,311,310,308,0
306,308,311,313,0
308,306,311,317,0
309,304,311,318,0
309,301,311,318,0
308,295,312,317,0
306,289,311,315,0
305,282,310,311,0
303,280,309,307,0
303,286,308,305,0
302,297,308,304,0
301,308,306,304,0
300,315,306,305,0
300,322,307,306,0
301,329,309,305,0
302,332,310,301,0
300,329,311,294,0
294,320,310,287,0
285,305,309,281,0
278,286,307,275,0
276,272,304,272,0
284,272,303,274,0
297,280,303,281,0
311,292,304,289,0
319,306,308,297,0
321,317,310,303,0
318,324,310,306,0
311,325,308,307,0
304,323,306,307,0
299,317,305,307,0
295,307,304,308,0
292,298,303,310,0
290,296,303,313,0
291,302,303,316,0
292,309,303,316,0
292,309,302,313,0
293,304,300,307,0
294,302,299,300,0
298,305,300,296,0
303,308,301,294,0
308,311,303,294,0
314,320,306,295,0
321,335,308,298,0
329,349,311,302,0
336,354,312,304,0
340,352,313,304,0
335,345,311,302,0
325,332,309,301,0
310,315,308,301,0
290,295,308,302,0
272,280,311,305,0
266,277,315,308,0
274,289,320,311,0
287,308,323,313,0
296,326,324,312,0
300,338,323,309,0
300,345,322,305,0
298,343,321,301,0
295,330,318,297,0
289,310,314,296,0
283,291,310,296,0
278,282,308,299,0
277,283,310,305,0
280,291,313,311,0
288,302,316,316,0
299,314,318,318,0
311,320,319,318,0
321,320,320,315,0
325,314,320,311,0
324,306,319,306,0
318,299,319,301,0
310,293,319,299,0
303,286,318,297,0
298,276,316,296,0
295,268,313,296,0
294,263,309,298,0
297,262,307,301,0
300,261,306,303,0
303,257,306,304,0
305,256,306,306,0
306,262,306,310,0
308,275,308,316,0
310,292,310,320,0
310,302,311,324,0
309,296,310,323,0
307,278,307,319,0
304,253,302,309,0
302,231,298,299,0
306,229,297,294,0
317,252,298,295,0
325,288,302,298,0
326,324,305,301,0
325,354,306,303,0
323,375,306,304,0
318,387,306,304,0
310,389,305,303,0
304,385,304,302,0
301,378,304,300,0
301,369,304,301,0
302,360,304,304,0
304,350,305,309,0
306,342,306,314,0
308,337,308,318,0
309,337,310,321,0
308,340,311,321,0
305,347,311,319,0
302,354,311,315,0
301,357,311,312,0
302,355,311,310,0
304,346,312,310,0
305,335,312,309,0
307,325,312,309,0
308,316,312,309,0
309,309,311,311,0
311,302,310,314,0
310,295,309,316,0
307,286,307,313,0
305,278,305,309,0
302,268,304,306,0
300,260,304,305,0
298,254,304,305,0
296,244,304,307,0
295,234,305,308,0
295,234,306,311,0
300,250,308,313,0
305,271,309,317,0
310,291,309,320,0
312,306,309,321,0
313,314,309,319,0
313,317,307,314,0
312,317,306,307,0
310,316,304,299,0
307,318,303,292,0
304,321,303,288,0
301,323,303,289,0
302,325,304,293,0
306,325,306,300,0
311,324,308,305,0
316,320,308,309,0
319,315,308,310,0
320,310,309,311,0
322,307,311,310,0
322,306,312,309,0
321,308,312,307,0
317,309,311,302,0
311,309,310,296,0
306,312,307,289,0
303,320,306,285,0
304,328,306,284,0
306,334,306,286,0
309,335,307,288,0
310,329,306,290,0
308,317,306,293,0
304,303,305,295,0
300,294,306,298,0
300,291,306,300,0
301,293,305,300,0
302,300,305,300,0
302,307,306,300,0
302,308,308,299,0
301,305,310,298,0
303,301,313,298,0
308,301,318,300,0
312,304,320,303,0
313,308,320,305,0
311,307,319,308,0
306,300,318,311,0
299,290,316,314,0
294,284,314,317,0
292,292,312,322,0
294,312,311,327,0
299,333,310,330,0
304,347,309,330,0
308,351,309,329,0
311,348,309,326,0
313,337,309,322,0
313,322,308,319,0
309,307,307,317,0
305,294,305,315,0
300,288,304,313,0
299,286,302,311,0
302,282,302,310,0
306,273,303,308,0
307,258,303,308,0
305,248,304,307,0
306,252,306,309,0
312,274,310,311,0
319,300,312,312,0
327,323,314,311,0
330,338,314,309,0
327,342,314,308,0
319,342,315,308,0
313,340,315,310,0
307,337,314,311,0
303,334,313,311,0
300,329,312,311,0
298,325,311,311,0
296,319,310,312,0
297,313,309,314,0
299,307,309,318,0
302,299,310,320,0
303,287,310,322,0
303,278,311,324,0
302,279,312,327,0
302,293,314,332,0
302,310,316,336,0
303,322,318,336,0
308,327,318,335,0
312,327,318,330,0
315,327,315,322,0
315,329,312,314,0
315,331,309,306,0
315,331,306,300,0
315,331,304,295,0
315,330,303,290,0
315,327,301,286,0
314,322,299,282,0
313,316,298,280,0
312,310,297,279,0
311,303,297,276,0
310,296,297,274,0
311,288,298,272,0
312,281,299,271,0
314,276,298,273,0
316,274,299,277,0
320,273,302,283,0
323,273,304,290,0
322,272,306,296,0
316,272,307,299,0
307,272,307,299,0
297,276,307,299,0
288,284,309,300,0
286,293,310,301,0
290,300,311,303,0
297,304,312,303,0
302,308,313,303,0
305,314,312,302,0
306,320,312,302,0
306,324,312,303,0
306,323,311,305,0
305,320,311,308,0
303,318,311,312,0
302,318,311,317,0
303,323,311,322,0
305,329,312,327,0
306,335,312,329,0
307,339,313,330,0
309,339,312,330,0
310,335,312,329,0
311,335,311,328,0
311,339,311,326,0
313,343,310,322,0
313,338,309,317,0
314,321,307,310,0
313,301,305,305,0
312,281,306,303,0
312,267,306,303,0
313,266,307,305,0
315,278,307,309,0
318,292,308,312,0
319,296,307,313,0
315,289,305,312,0
308,278,304,312,0
302,270,304,313,0
298,267,304,313,0
294,270,304,310,0
291,276,304,305,0
290,285,303,299,0
291,298,302,294,0
294,306,300,291,0
295,307,299,289,0
296,308,299,290,0
298,314,300,293,0
300,320,302,297,0
302,322,303,301,0
303,323,304,302,0
302,324,303,301,0
300,322,302,298,0
298,322,301,297,0
299,327,302,298,0
302,329,303,301,0
304,324,304,305,0
307,317,306,310,0
308,313,307,314,0
308,314,309,318,0
308,318,309,320,0
306,324,310,323,0
306,331,311,327,0
305,338,312,330,0
305,347,312,331,0
306,351,311,328,0
306,351,311,324,0
307,347,311,322,0
308,339,311,322,0
308,326,311,324,0
308,310,311,325,0
305,296,310,324,0
300,286,310,320,0
296,282,309,315,0
295,282,309,309,0
298,286,308,305,0
300,289,308,301,0
300,289,308,298,0
299,288,309,297,0
300,289,312,298,0
302,292,314,301,0
302,296,316,305,0
302,297,317,308,0
301,294,317,310,0
300,288,315,309,0
299,284,312,308,0
301,287,308,309,0
304,299,306,311,0
308,312,305,313,0
308,322,305,314,0
307,329,304,314,0
304,329,304,313,0
301,323,304,312,0
299,314,304,311,0
297,307,304,309,0
296,306,304,308,0
297,313,304,309,0
300,320,305,309,0
303,326,306,309,0
305,329,306,308,0
310,330,306,307,0
313,329,306,308,0
313,323,306,311,0
310,316,306,315,0
307,311,306,318,0
304,306,305,321,0
303,299,303,324,0
303,294,303,327,0
305,290,303,328,0
307,288,303,326,0
307,293,302,321,0
307,302,302,315,0
306,315,301,308,0
306,325,301,302,0
307,328,302,298,0
308,324,303,298,0
309,317,306,301,0
309,311,307,305,0
308,310,309,308,0
307,314,311,310,0
306,319,312,310,0
308,324,313,310,0
310,323,312,309,0
311,316,311,305,0
310,304,308,301,0
309,293,304,296,0
310,286,304,293,0
314,283,304,291,0
320,287,304,292,0
327,295,305,296,0
327,304,305,301,0
316,311,304,305,0
303,315,304,308,0
296,319,303,311,0
295,322,303,312,0
297,323,303,312,0
297,321,305,311,0
298,319,306,310,0
298,315,307,308,0
298,311,307,307,0
298,307,307,306,0
297,305,307,306,0
298,306,308,307,0
298,311,309,308,0
299,317,310,309,0
301,321,310,310,0
302,322,309,311,0
303,319,308,311,0
303,314,307,313,0
303,309,307,315,0
303,305,307,316,0
302,306,307,317,0
302,310,307,318,0
302,315,307,319,0
304,320,306,320,0
306,322,306,320,0
308,322,306,318,0
306,322,307,315,0
300,323,307,310,0
294,324,307,305,0
291,323,306,301,0
294,318,307,299,0
297,308,307,299,0
300,295,306,301,0
301,282,306,305,0
302,274,307,312,0
302,273,307,322,0
302,279,309,333,0
302,286,310,342,0
302,291,311,348,0
301,296,311,347,0
300,302,310,343,0
300,308,308,336,0
300,310,307,327,0
302,313,307,319,0
304,316,307,313,0
306,318,307,308,0
308,317,308,303,0
310,316,309,301,0
310,317,309,300,0
308,319,309,299,0
306,320,308,299,0
304,320,308,298,0
302,317,307,298,0
300,310,305,297,0
296,301,303,297,0
294,296,303,298,0
293,297,302,299,0
294,299,301,301,0
296,297,301,303,0
298,294,302,304,0
302,291,303,302,0
307,287,304,299,0
310,284,305,296,0
310,281,307,296,0
308,280,309,297,0
306,280,310,301,0
304,281,310,304,0
303,280,309,306,0
300,274,307,307,0
297,267,305,306,0
292,262,303,305,0
289,263,301,304,0
288,269,301,305,0
293,282,302,309,0
298,299,303,315,0
304,317,304,321,0
308,334,305,329,0
312,349,307,336,0
314,360,309,344,0
318,365,310,349,0
320,364,310,350,0
322,360,308,348,0
321,352,306,343,0
320,343,305,336,0
318,334,304,327,0
317,326,304,315,0
317,319,303,303,0
313,315,303,294,0
307,311,303,287,0
303,310,303,283,0
302,310,303,281,0
305,308,303,281,0
308,303,302,285,0
309,300,302,291,0
311,301,303,298,0
311,304,305,304,0
309,308,308,309,0
306,311,310,311,0
303,310,311,312,0
300,306,310,312,0
296,298,307,310,0
293,288,303,307,0
291,278,300,303,0
292,274,299,300,0
297,279,299,297,0
304,289,299,296,0
309,303,301,296,0
311,319,303,297,0
308,333,306,298,0
302,339,309,300,0
294,337,311,303,0
287,329,313,306,0
281,317,313,308,0
279,306,313,310,0
282,294,313,311,0
289,281,313,310,0
296,267,311,307,0
303,257,308,305,0
310,254,305,304,0
316,255,304,305,0
321,260,303,307,0
329,267,303,313,0
340,277,304,321,0
358,286,304,331,0
377,291,305,340,0
381,292,304,346,0
365,296,303,350,0
342,306,303,351,0
320,316,304,349,0
297,320,306,346,0
273,320,309,343,0
260,320,313,342,0
259,324,317,343,0
267,327,318,344,0
275,328,318,343,0
286,329,319,341,0
304,328,323,340,0
327,326,325,339,0
343,322,323,338,0
342,320,319,334,0
326,321,314,331,0
306,321,311,326,0
295,321,310,320,0
294,322,311,316,0
295,322,311,313,0
293,320,309,309,0
289,317,307,303,0
287,316,305,296,0
285,314,302,290,0
285,313,298,284,0
289,313,295,278,0
296,313,293,274,0
304,310,291,272,0
311,309,292,273,0
315,313,295,275,0
312,311,300,277,0
305,302,306,278,0
299,293,311,279,0
296,289,315,279,0
296,290,320,280,0
299,295,323,282,0
303,298,324,286,0
304,300,322,289,0
304,301,321,293,0
304,300,321,296,0
306,298,321,300,0
310,297,323,304,0
316,298,325,306,0
322,300,326,307,0
321,301,324,305,0
314,300,319,303,0
305,298,314,300,0
301,293,311,298,0
305,288,311,297,0
309,282,314,298,0
310,280,319,300,0
308,284,317,302,0
302,295,306,304,0
294,309,295,303,0
286,317,286,302,0
279,317,280,301,0
275,309,277,301,0
273,298,276,303,0
277,285,278,307,0
285,273,282,313,0
292,264,287,320,0
297,264,290,325,0
299,270,294,329,0
298,278,297,330,0
296,286,300,328,0
294,301,302,325,0
295,321,304,321,0
299,336,306,315,0
303,341,307,307,0
306,335,307,297,0
306,322,307,288,0
304,310,307,282,0
301,301,306,277,0
298,295,306,275,0
295,293,305,275,0
294,292,304,280,0
294,290,302,287,0
295,282,300,294,0
296,273,300,301,0
296,270,305,306,0
297,272,312,309,0
298,281,322,311,0
302,293,331,313,0
305,301,338,316,0
307,306,336,317,0
307,307,325,317,0
307,306,312,314,0
306,303,301,309,0
304,297,295,302,0
300,294,291,296,0
297,297,290,293,0
295,303,290,293,0
294,309,292,294,0
294,310,293,297,0
294,302,294,299,0
293,287,295,301,0
293,273,295,305,0
295,267,297,310,0
299,266,299,315,0
304,263,301,319,0
307,259,302,321,0
308,262,304,321,0
308,276,306,322,0
308,290,308,322,0
306,299,309,320,0
303,302,310,316,0
298,303,311,312,0
294,302,310,308,0
290,301,308,303,0
289,303,306,299,0
291,308,305,296,0
295,315,306,296,0
300,326,308,298,0
306,339,310,300,0
309,349,312,303,0
310,355,313,304,0
308,354,313,304,0
305,345,313,304,0
303,328,313,304,0
302,309,313,306,0
301,294,313,311,0
301,290,314,319,0
301,297,315,326,0
302,311,315,330,0
302,324,316,329,0
302,336,317,325,0
300,345,317,318,0
297,348,316,310,0
294,343,316,301,0
289,331,315,293,0
286,318,315,289,0
287,311,315,287,0
294,315,318,289,0
306,319,322,294,0
317,318,323,296,0
323,307,320,297,0
322,293,317,297,0
317,283,314,298,0
312,286,314,302,0
310,297,314,306,0
311,312,316,309,0
312,320,317,310,0
313,320,318,310,0
314,312,320,309,0
315,296,321,306,0
315,276,321,302,0
315,261,320,300,0
314,255,320,299,0
313,259,319,300,0
311,268,318,301,0
308,282,316,301,0
306,302,315,300,0
304,321,314,299,0
302,335,314,299,0
301,342,314,299,0
301,345,315,298,0
301,348,315,297,0
301,346,315,297,0
299,342,314,297,0
297,338,314,299,0
296,337,314,304,0
298,335,317,309,0
302,330,319,315,0
306,324,322,318,0
310,318,325,320,0
314,309,327,320,0
324,300,328,321,0
336,289,327,320,0
339,278,324,318,0
329,271,319,314,0
311,268,315,310,0
294,269,312,306,0
285,273,311,305,0
284,280,312,307,0
287,284,314,309,0
291,288,315,311,0
295,294,316,313,0
297,303,316,314,0
300,315,317,315,0
303,329,318,320,0
307,338,319,327,0
311,341,320,333,0
314,342,321,336,0
316,343,321,337,0
316,342,321,337,0
316,339,320,334,0
314,335,320,330,0
313,331,318,325,0
312,326,317,319,0
311,323,314,311,0
310,322,312,303,0
308,321,308,295,0
305,321,304,290,0
301,320,303,286,0
296,314,304,285,0
294,306,306,285,0
295,296,309,285,0
296,285,311,286,0
299,276,313,287,0
303,275,316,292,0
307,286,320,300,0
313,301,322,309,0
316,313,324,316,0
317,316,324,320,0
316,314,323,322,0
312,312,324,322,0
309,310,324,322,0
305,306,323,322,0
300,304,322,322,0
296,306,321,322,0
294,309,320,321,0
295,310,320,319,0
299,310,318,314,0
303,311,315,308,0
305,313,313,301,0
307,314,311,296,0
308,314,311,292,0
309,311,310,291,0
310,306,310,290,0
310,300,310,293,0
310,292,310,297,0
309,283,311,303,0
306,274,312,309,0
303,269,315,314,0
301,267,319,315,0
301,271,323,314,0
304,277,325,313,0
305,278,324,313,0
306,277,321,313,0
308,283,317,312,0
310,301,315,311,0
312,322,312,310,0
313,338,309,309,0
313,346,306,307,0
310,349,304,305,0
307,348,304,305,0
305,345,304,307,0
304,339,304,308,0
303,332,304,307,0
302,325,304,305,0
302,320,303,304,0
301,316,304,303,0
302,315,305,305,0
302,313,306,307,0
303,309,306,308,0
304,302,306,306,0
304,296,304,302,0
305,294,304,298,0
306,295,304,294,0
308,293,305,291,0
309,290,307,289,0
309,285,309,289,0
309,280,310,291,0
307,276,310,295,0
303,275,309,298,0
299,275,306,302,0
295,270,305,306,0
290,269,304,312,0
289,282,305,319,0
292,298,306,325,0
296,311,307,330,0
302,321,308,332,0
308,328,308,332,0
313,334,309,331,0
316,338,309,330,0
315,339,309,329,0
313,337,310,327,0
311,334,311,325,0
308,328,311,321,0
306,318,311,316,0
303,305,310,309,0
300,291,310,303,0
298,284,311,300,0
297,280,311,298,0
296,277,311,298,0
295,274,312,298,0
298,273,312,299,0
301,273,311,298,0
302,274,308,296,0
302,274,304,294,0
303,270,302,292,0
304,265,300,290,0
304,263,298,288,0
305,265,295,286,0
306,270,294,285,0
305,278,294,286,0
305,291,295,289,0
304,307,296,292,0
304,319,298,296,0
307,328,300,300,0
311,335,302,305,0
315,339,303,309,0
317,341,304,313,0
318,339,302,315,0
316,334,299,315,0
312,328,297,314,0
308,323,297,312,0
306,321,298,309,0
304,321,300,307,0
304,320,301,305,0
304,321,303,305,0
305,323,304,305,0
305,322,304,306,0
305,317,304,307,0
305,305,304,307,0
306,293,305,308,0
306,286,307,308,0
307,282,308,308,0
308,281,309,308,0
307,279,309,307,0
305,279,310,305,0
302,283,310,304,0
299,290,310,303,0
297,296,308,303,0
299,303,306,302,0
304,308,304,301,0
307,309,300,299,0
307,306,297,297,0
305,304,294,298,0
305,308,295,304,0
306,312,298,312,0
310,314,301,320,0
315,313,305,326,0
320,311,307,330,0
325,308,307,332,0
328,305,306,333,0
327,304,306,333,0
321,305,305,330,0
316,307,306,326,0
314,309,305,322,0
317,310,303,316,0
321,311,301,311,0
326,311,299,307,0
329,309,297,304,0
324,305,296,303,0
314,301,297,301,0
306,297,297,299,0
302,293,297,296,0
299,288,297,294,0
298,276,298,293,0
297,261,298,292,0
295,248,299,292,0
294,241,300,293,0
293,237,301,295,0
293,238,303,299,0
295,253,306,306,0
299,278,307,312,0
304,306,308,316,0
305,331,308,319,0
305,348,309,321,0
305,354,308,320,0
306,347,305,316,0
306,330,304,310,0
309,313,304,304,0
313,301,304,300,0
313,297,301,295,0
312,297,297,292,0
308,304,293,292,0
307,316,292,296,0
309,325,293,303,0
313,326,295,312,0
318,325,298,321,0
325,326,301,328,0
332,330,304,334,0
339,333,307,336,0
339,334,309,335,0
331,334,309,333,0
320,331,307,330,0
311,326,305,325,0
305,320,303,317,0
302,316,300,308,0
301,313,297,297,0
302,310,293,287,0
303,305,289,280,0
303,297,288,276,0
304,288,288,274,0
305,280,291,276,0
306,273,296,279,0
305,266,300,282,0
303,259,304,285,0
301,252,305,286,0
300,241,304,284,0
298,230,302,279,0
296,227,298,276,0
294,236,294,276,0
293,252,292,277,0
294,269,292,280,0
296,275,290,282,0
300,274,289,284,0
308,276,288,288,0
319,280,290,292,0
333,283,292,295,0
346,290,293,299,0
350,308,295,303,0
339,329,297,305,0
321,344,300,306,0
308,350,301,307,0
303,347,303,307,0
303,342,303,308,0
304,339,303,310,0
307,340,302,312,0
309,344,301,316,0
311,349,301,319,0
311,352,301,321,0
308,350,302,321,0
306,344,303,319,0
305,334,303,316,0
304,321,304,313,0
304,310,304,310,0
304,304,304,308,0
304,303,304,305,0
305,300,303,304,0
305,293,304,302,0
303,286,305,300,0
298,282,305,298,0
289,280,305,297,0
280,277,306,299,0
278,272,307,303,0
290,274,308,309,0
308,289,309,317,0
320,312,308,324,0
325,339,306,329,0
324,362,302,332,0
319,375,298,333,0
313,373,297,332,0
310,353,297,331,0
311,327,297,329,0
313,306,298,327,0
316,293,299,323,0
318,284,304,316,0
322,276,309,308,0
326,268,313,302,0
327,261,317,297,0
324,258,318,294,0
318,257,313,293,0
311,258,308,293,0
306,259,303,295,0
304,260,301,299,0
302,261,300,306,0
302,264,300,315,0
304,269,301,324,0
307,272,301,330,0
308,271,301,332,0
307,269,300,331,0
308,273,301,329,0
311,280,301,324,0
316,288,299,316,0
324,289,296,307,0
332,289,295,300,0
340,289,296,295,0
344,289,299,292,0
338,288,302,294,0
320,289,305,298,0
301,291,307,303,0
291,295,306,306,0
290,297,302,306,0
296,297,297,305,0
305,297,294,304,0
313,299,293,304,0
313,303,294,305,0
306,307,295,305,0
299,311,297,304,0
294,313,298,304,0
295,312,300,303,0
298,309,302,301,0
300,306,302,300,0
297,308,301,299,0
288,315,301,301,0
279,324,303,303,0
274,332,305,304,0
275,336,307,303,0
284,337,308,301,0
297,329,309,300,0
306,308,308,299,0
312,279,305,297,0
315,250,299,294,0
309,223,293,289,0
299,205,290,284,0
294,214,291,284,0
297,241,295,289,0
304,269,299,295,0
312,289,303,301,0
318,300,305,306,0
322,309,307,312,0
322,314,307,315,0
321,316,307,317,0
317,318,307,317,0
313,322,307,316,0
311,325,307,314,0
313,327,307,313,0
317,327,306,313,0
320,322,304,314,0
322,315,302,313,0
322,307,300,311,0
322,298,299,309,0
322,291,300,306,0
323,287,302,306,0
324,285,304,307,0
324,286,306,311,0
323,288,307,317,0
322,289,306,324,0
321,287,305,331,0
317,279,305,337,0
311,269,305,340,0
304,262,304,339,0
298,258,303,334,0
295,261,301,326,0
294,273,298,318,0
295,289,296,309,0
296,304,294,299,0
298,316,293,290,0
299,324,291,282,0
300,327,290,275,0
301,325,288,271,0
300,319,286,270,0
300,312,286,271,0
301,309,289,274,0
306,312,294,279,0
313,320,299,286,0
321,330,302,292,0
327,336,304,297,0
333,337,305,301,0
336,332,306,304,0
332,327,308,306,0
323,323,309,308,0
311,318,308,307,0
299,311,308,305,0
293,300,308,304,0
291,285,309,304,0
293,272,310,305,0
295,264,309,304,0
296,262,307,304,0
298,265,304,304,0
298,271,301,302,0
296,275,298,299,0
294,280,296,297,0
294,284,294,296,0
295,288,295,296,0
293,293,296,297,0
290,299,298,297,0
286,302,301,297,0
283,302,303,299,0
285,300,306,301,0
292,295,309,304,0
298,295,311,306,0
304,302,311,306,0
309,309,310,305,0
313,308,308,304,0
317,303,306,304,0
318,292,304,303,0
318,274,303,304,0
317,255,302,305,0
314,238,300,308,0
308,229,300,311,0
303,228,298,311,0
298,235,297,310,0
299,257,298,309,0
303,290,299,309,0
309,324,300,309,0
315,353,301,311,0
319,373,301,311,0
322,382,301,311,0
323,384,300,309,0
323,380,299,306,0
320,368,298,302,0
316,354,297,299,0
315,339,296,297,0
318,327,297,297,0
322,317,300,298,0
327,316,302,300,0
329,323,305,305,0
323,329,308,312,0
312,327,311,317,0
301,318,314,320,0
294,310,316,320,0
289,300,316,320,0
284,287,314,319,0
282,274,313,320,0
287,266,312,322,0
295,265,313,323,0
303,266,313,324,0
308,268,313,324,0
311,269,312,322,0
310,273,309,318,0
309,278,304,313,0
306,283,299,306,0
304,288,295,300,0
303,294,294,294,0
309,304,295,292,0
321,311,299,293,0
333,313,303,294,0
338,309,307,294,0
333,303,309,295,0
320,295,309,295,0
304,287,309,295,0
290,282,307,296,0
285,276,304,296,0
284,273,300,295,0
286,274,298,296,0
290,279,298,296,0
294,284,297,297,0
295,289,296,298,0
295,292,298,300,0
293,294,301,302,0
291,295,306,304,0
291,298,311,305,0
291,300,315,306,0
290,303,316,306,0
289,306,314,306,0
289,307,311,307,0
291,300,307,308,0
294,291,305,311,0
298,283,303,313,0
301,277,301,316,0
303,274,301,317,0
306,279,301,318,0
309,289,301,318,0
313,302,300,318,0
315,318,299,317,0
317,338,299,318,0
319,362,299,317,0
319,379,300,316,0
319,384,300,315,0
320,380,302,314,0
322,371,304,312,0
324,354,304,310,0
324,337,304,308,0
322,324,304,305,0
318,315,305,302,0
315,307,306,298,0
314,298,308,294,0
314,289,309,289,0
314,283,310,287,0
312,279,310,286,0
308,275,310,285,0
303,270,306,284,0
299,265,301,282,0
295,261,296,281,0
290,258,293,279,0
287,263,292,279,0
287,283,293,284,0
292,310,297,294,0
297,334,301,305,0
302,347,304,315,0
304,349,306,322,0
304,342,307,327,0
304,331,308,329,0
306,324,309,329,0
310,319,309,329,0
313,318,309,326,0
317,320,307,323,0
318,322,305,319,0
317,317,303,315,0
316,302,301,310,0
316,282,298,306,0
314,260,296,304,0
313,239,296,304,0
312,221,300,305,0
314,217,305,307,0
318,229,310,310,0
321,252,314,313,0
321,278,315,315,0
321,303,314,314,0
322,319,313,311,0
326,323,313,305,0
333,321,313,300,0
341,317,311,297,0
339,317,308,295,0
333,320,306,295,0
328,322,303,295,0
322,322,300,295,0
311,321,297,293,0
296,320,295,293,0
282,321,295,293,0
272,319,295,293,0
269,314,295,293,0
269,314,295,292,0
271,314,295,292,0
273,312,295,292,0
276,305,297,293,0
281,297,299,295,0
288,287,302,297,0
295,278,304,299,0
300,278,306,301,0
305,289,309,302,0
310,302,310,303,0
314,310,311,305,0
315,315,311,306,0
315,318,309,306,0
315,320,307,307,0
313,321,304,305,0
311,322,302,303,0
307,320,300,301,0
304,313,299,299,0
300,303,298,297,0
299,293,298,295,0
301,289,297,294,0
306,290,297,294,0
309,293,296,295,0
312,296,297,297,0
313,297,297,298,0
313,297,299,300,0
313,297,300,302,0
313,298,302,304,0
313,300,305,308,0
313,300,306,312,0
314,298,307,315,0
314,297,306,318,0
314,301,306,322,0
314,305,306,325,0
315,311,308,328,0
316,318,310,329,0
315,324,309,328,0
311,326,307,323,0
304,322,305,316,0
294,314,303,307,0
286,302,303,300,0
285,291,305,295,0
291,288,308,293,0
300,296,310,292,0
306,313,310,292,0
311,335,309,295,0
314,349,308,299,0
316,347,306,303,0
317,335,306,307,0
317,317,305,311,0
316,301,305,312,0
317,294,305,313,0
319,297,305,314,0
318,308,302,313,0
315,320,300,310,0
311,330,296,307,0
306,337,294,305,0
302,344,293,303,0
300,347,293,302,0
300,347,294,301,0
302,340,296,303,0
305,330,299,306,0
308,321,301,309,0
310,316,304,314,0
313,315,306,320,0
316,316,309,328,0
319,319,311,335,0
318,316,313,341,0
314,306,315,345,0
310,297,315,344,0
307,294,313,340,0
306,297,309,331,0
308,301,305,320,0
311,303,301,308,0
315,302,300,300,0
321,296,300,293,0
324,288,299,287,0
321,278,298,284,0
316,269,296,282,0
308,264,295,281,0
298,267,293,282,0
290,281,294,285,0
289,300,296,290,0
292,316,298,294,0
297,324,300,298,0
301,330,302,301,0
304,336,303,303,0
304,341,305,307,0
302,345,307,309,0
299,348,307,312,0
298,349,307,314,0
298,349,306,317,0
298,346,306,319,0
300,343,306,320,0
305,338,307,323,0
308,331,306,322,0
308,320,302,320,0
304,306,296,316,0
302,294,293,313,0
304,288,295,313,0
317,291,300,315,0
335,300,304,315,0
346,311,305,312,0
346,320,304,309,0
338,324,304,307,0
327,319,304,306,0
318,311,304,305,0
312,308,305,307,0
308,308,306,309,0
304,302,310,312,0
301,291,315,314,0
299,281,321,316,0
297,275,324,316,0
297,276,325,315,0
299,286,321,313,0
300,303,315,313,0
301,319,309,313,0
300,329,304,312,0
300,335,301,312,0
301,335,299,310,0
302,326,298,306,0
302,310,297,302,0
303,296,296,298,0
304,291,295,299,0
306,292,296,305,0
307,295,298,313,0
308,297,300,320,0
308,296,302,323,0
309,294,303,323,0
307,292,304,319,0
304,297,303,313,0
300,305,302,305,0
299,315,300,296,0
303,323,299,291,0
310,328,298,289,0
319,328,297,289,0
324,324,295,291,0
323,322,295,293,0
320,320,295,296,0
312,319,296,298,0
302,316,295,298,0
294,313,294,297,0
291,312,294,295,0
291,310,294,295,0
294,311,297,299,0
299,314,300,303,0
303,318,304,309,0
306,320,308,313,0
307,322,309,314,0
307,323,309,312,0
307,321,308,311,0
307,317,307,311,0
307,313,308,312,0
308,311,307,311,0
308,309,306,308,0
304,307,304,303,0
297,306,302,298,0
288,304,301,294,0
283,301,301,291,0
285,298,300,290,0
291,298,301,289,0
298,304,302,291,0
308,313,301,293,0
315,317,300,294,0
316,315,298,294,0
310,308,296,294,0
303,302,296,295,0
295,299,296,296,0
291,304,298,298,0
292,314,300,302,0
298,324,302,307,0
304,330,304,313,0
308,331,304,320,0
310,327,304,325,0
310,319,303,329,0
310,313,302,330,0
308,312,301,330,0
309,314,302,331,0
313,318,305,331,0
317,318,309,331,0
318,308,312,329,0
316,292,313,324,0
311,275,313,316,0
307,264,313,309,0
305,265,313,305,0
306,273,313,304,0
306,284,311,305,0
307,293,307,305,0
307,295,302,304,0
306,289,298,303,0
306,277,296,300,0
308,262,294,296,0
311,251,293,292,0
314,251,293,289,0
314,262,293,289,0
308,276,294,289,0
301,278,295,290,0
295,268,296,291,0
290,259,296,292,0
289,260,296,295,0
294,276,297,301,0
310,301,301,309,0
330,327,308,318,0
344,348,312,326,0
344,359,312,330,0
330,361,311,331,0
311,359,310,329,0
298,356,309,323,0
292,348,309,316,0
292,339,307,306,0
296,330,304,298,0
298,321,301,292,0
298,314,299,288,0
295,310,298,285,0
289,313,298,285,0
284,323,299,287,0
286,333,302,292,0
292,337,304,296,0
299,337,304,299,0
304,334,304,301,0
306,330,303,302,0
307,325,302,304,0
307,321,302,306,0
308,318,303,308,0
308,319,304,313,0
310,323,305,319,0
311,330,306,326,0
311,334,307,330,0
309,333,307,330,0
305,328,306,326,0
300,319,304,319,0
294,309,301,311,0
290,302,299,306,0
289,302,300,303,0
291,304,302,303,0
296,306,305,304,0
303,307,307,305,0
308,306,307,304,0
310,300,307,302,0
310,292,306,300,0
309,291,306,300,0
312,295,309,303,0
320,296,313,308,0
326,295,318,313,0
327,292,322,317,0
323,292,325,320,0
318,294,326,321,0
312,293,326,320,0
307,292,323,318,0
306,294,318,316,0
308,296,314,317,0
313,296,311,320,0
323,298,307,322,0
334,303,305,322,0
347,307,304,319,0
357,309,302,313,0
352,307,301,307,0
330,299,300,303,0
303,286,300,301,0
279,269,302,300,0
264,253,304,299,0
261,243,305,297,0
272,243,304,297,0
288,259,301,299,0
296,292,298,303,0
293,330,297,309,0
284,356,296,315,0
276,369,295,320,0
274,371,295,322,0
281,367,297,322,0
292,361,297,320,0
300,354,298,316,0
305,343,298,310,0
305,325,298,300,0
301,305,297,290,0
295,285,298,281,0
291,269,298,278,0
291,262,299,279,0
295,267,300,283,0
300,280,300,287,0
305,292,299,290,0
309,301,299,292,0
312,309,299,295,0
315,318,301,296,0
318,324,304,297,0
321,327,306,297,0
322,328,308,296,0
323,329,309,297,0
322,329,314,298,0
322,329,318,300,0
321,327,320,303,0
318,320,321,307,0
314,304,322,313,0
315,283,324,318,0
320,260,325,320,0
331,239,323,317,0
340,237,319,314,0
336,260,315,311,0
321,293,313,309,0
303,321,311,308,0
291,336,308,307,0
287,335,305,306,0
288,321,303,305,0
292,304,303,304,0
297,289,304,301,0
299,279,308,297,0
302,277,313,292,0
307,280,319,289,0
317,282,324,287,0
327,284,326,286,0
332,287,323,288,0
324,293,317,292,0
308,297,313,297,0
290,294,312,300,0
276,286,311,302,0
268,277,306,302,0
268,278,298,303,0
272,294,291,305,0
278,315,288,311,0
286,333,288,322,0
295,348,291,333,0
303,354,294,343,0
309,349,296,349,0
312,338,298,351,0
312,327,299,348,0
311,317,299,340,0
309,307,299,330,0
305,297,299,318,0
300,288,298,305,0
295,277,295,292,0
290,260,290,281,0
285,241,286,272,0
282,231,285,269,0
283,234,290,270,0
290,248,299,277,0
305,270,311,284,0
318,294,318,289,0
325,313,320,294,0
327,323,318,299,0
324,323,314,305,0
322,319,311,311,0
319,313,309,316,0
317,309,307,320,0
315,312,306,323,0
312,321,306,322,0
310,333,305,321,0
310,342,305,318,0
311,346,305,315,0
312,341,304,311,0
311,331,304,307,0
311,322,304,303,0
312,314,304,298,0
313,309,303,294,0
314,301,302,292,0
315,290,302,292,0
315,283,301,293,0
315,279,301,295,0
316,276,301,297,0
320,270,301,298,0
322,264,301,301,0
320,267,300,306,0
313,278,301,311,0
304,289,303,316,0
297,291,306,320,0
294,286,307,322,0
298,279,308,322,0
311,276,308,320,0
325,275,308,317,0
334,278,308,313,0
333,290,308,310,0
324,311,310,309,0
313,333,312,308,0
306,342,314,307,0
301,335,316,305,0
300,322,316,303,0
300,311,314,301,0
301,307,313,300,0
301,305,310,298,0
299,304,307,294,0
299,302,303,290,0
300,296,298,286,0
301,287,294,283,0
303,282,291,283,0
304,285,291,288,0
303,295,294,296,0
302,309,299,306,0
306,326,304,316,0
311,342,304,323,0
312,348,303,327,0
311,345,302,326,0
310,334,303,323,0
309,323,304,319,0
306,314,304,314,0
302,307,304,309,0
299,303,302,304,0
297,300,301,301,0
297,295,301,298,0
299,284,301,297,0
302,271,301,296,0
304,264,301,296,0
308,269,301,295,0
310,285,301,295,0
313,300,302,294,0
315,308,302,294,0
317,304,302,294,0
316,292,303,293,0
313,278,304,293,0
311,268,309,293,0
310,262,315,294,0
309,260,322,294,0
308,264,328,294,0
308,275,331,296,0
308,287,331,298,0
308,297,327,301,0
307,306,318,303,0
306,314,307,305,0
309,320,300,308,0
316,326,296,310,0
325,330,295,310,0
330,329,295,311,0
326,321,295,311,0
316,306,295,312,0
305,289,295,314,0
299,277,297,316,0
298,273,299,320,0
301,274,301,324,0
305,278,302,325,0
307,290,302,324,0
310,317,300,320,0
313,346,295,315,0
314,366,289,307,0
317,373,289,302,0
327,368,300,303,0
345,353,315,305,0
359,331,327,307,0
351,314,330,306,0
323,307,326,305,0
293,304,318,305,0
275,302,311,304,0
269,298,304,303,0
268,292,302,303,0
275,282,304,306,0
285,274,309,311,0
294,272,312,317,0
299,275,310,323,0
301,280,306,328,0
302,285,303,329,0
300,288,300,327,0
298,291,298,324,0
296,298,296,320,0
293,304,294,313,0
289,310,292,304,0
285,313,290,293,0
283,320,289,285,0
289,330,289,283,0
299,335,292,286,0
307,332,295,290,0
311,325,297,292,0
310,317,297,292,0
308,309,297,291,0
308,301,298,290,0
308,295,300,289,0
310,289,304,289,0
310,285,307,290,0
311,282,309,293,0
311,281,310,295,0
312,282,309,299,0
313,283,307,302,0
312,282,305,306,0
311,282,303,310,0
310,288,302,312,0
309,296,301,314,0
307,303,300,314,0
304,308,299,313,0
301,314,298,311,0
300,322,298,310,0
300,327,299,310,0
302,329,298,311,0
305,328,298,312,0
309,323,299,313,0
315,315,300,313,0
320,309,300,313,0
325,306,300,314,0
326,306,299,316,0
323,310,300,315,0
320,316,303,314,0
319,321,306,310,0
318,322,307,308,0
315,319,307,304,0
311,315,306,300,0
307,310,304,296,0
305,304,302,291,0
303,298,300,288,0
301,293,301,286,0
300,288,303,287,0
299,287,304,289,0
299,292,304,292,0
298,302,304,294,0
296,314,304,296,0
294,324,302,298,0
291,328,301,299,0
288,329,300,302,0
288,334,301,307,0
292,342,304,313,0
297,351,306,319,0
302,358,308,323,0
306,369,309,326,0
310,378,309,328,0
312,383,310,327,0
311,380,309,325,0
309,366,309,323,0
304,340,309,321,0
299,310,310,320,0
296,282,310,320,0
300,262,309,321,0
306,251,307,323,0
311,247,305,322,0
313,249,304,320,0
315,253,302,318,0
316,260,301,315,0
317,268,301,313,0
321,277,303,311,0
326,285,305,309,0
325,290,308,307,0
317,297,312,307,0
308,306,316,311,0
304,316,317,316,0
306,324,314,321,0
313,332,310,325,0
321,336,306,326,0
324,333,302,322,0
318,325,299,315,0
307,313,298,308,0
299,297,299,301,0
297,283,299,293,0
298,274,300,288,0
300,271,300,286,0
303,273,299,285,0
303,282,299,288,0
303,293,299,292,0
302,303,299,296,0
301,308,299,300,0
302,310,300,303,0
303,307,301,305,0
302,296,302,307,0
300,280,303,306,0
298,263,303,305,0
295,251,303,302,0
292,247,303,299,0
293,255,303,298,0
298,275,304,298,0
303,302,305,300,0
307,330,305,302,0
310,352,305,305,0
311,358,305,309,0
311,353,306,313,0
310,345,306,316,0
307,339,306,319,0
304,337,308,321,0
303,334,309,321,0
305,326,310,321,0
309,317,309,322,0
312,312,308,323,0
316,315,307,326,0
321,322,308,328,0
326,328,308,329,0
329,331,308,329,0
327,332,307,327,0
317,333,305,324,0
304,332,304,320,0
294,326,303,317,0
290,317,303,315,0
289,311,302,312,0
289,307,301,310,0
290,304,300,308,0
291,304,300,308,0
294,309,300,310,0
298,316,302,314,0
302,320,304,320,0
309,319,306,325,0
315,316,308,328,0
319,313,308,329,0
319,309,310,328,0
318,305,310,327,0
314,302,311,326,0
311,301,310,325,0
308,304,307,322,0
307,308,303,318,0
306,313,299,314,0
305,317,296,309,0
303,318,294,304,0
298,313,293,299,0
292,304,293,293,0
286,292,294,289,0
284,281,296,288,0
288,274,297,288,0
296,271,297,289,0
303,273,295,290,0
311,282,294,290,0
318,296,294,292,0
323,311,294,295,0
328,326,294,298,0
330,337,294,302,0
327,341,295,305,0
320,339,296,308,0
312,331,297,310,0
305,318,298,311,0
300,304,299,311,0
295,293,299,314,0
291,289,298,318,0
287,289,297,322,0
285,294,297,324,0
285,304,296,326,0
288,316,297,327,0
296,327,301,328,0
309,338,303,327,0
324,351,303,325,0
335,360,303,322,0
339,363,304,318,0
333,360,305,313,0
319,350,305,311,0
304,339,305,310,0
298,330,306,312,0
298,324,306,314,0
298,320,307,315,0
298,318,306,314,0
297,314,305,313,0
295,304,303,311,0
292,294,301,309,0
290,285,299,306,0
288,277,298,304,0
288,272,298,302,0
292,278,299,302,0
297,290,301,302,0
302,305,302,301,0
305,319,302,300,0
308,330,303,300,0
311,335,303,299,0
312,331,303,298,0
311,320,303,296,0
310,303,302,293,0
308,284,301,291,0
305,265,301,292,0
304,250,301,295,0
307,248,302,299,0
316,259,304,304,0
325,278,304,309,0
326,299,303,314,0
316,319,303,318,0
302,333,303,319,0
291,339,303,318,0
285,339,304,313,0
285,335,304,308,0
287,330,305,303,0
290,330,305,300,0
293,338,305,300,0
296,347,304,303,0
298,349,304,306,0
301,342,304,308,0
304,332,302,308,0
308,320,301,305,0
311,306,301,300,0
314,292,301,295,0
316,281,302,292,0
317,273,301,289,0
317,272,299,290,0
314,280,299,293,0
309,292,302,298,0
309,304,307,300,0
314,312,311,303,0
324,317,315,305,0
332,319,316,305,0
332,320,314,304,0
319,319,311,302,0
303,318,306,300,0
290,315,303,298,0
283,310,301,299,0
282,309,301,302,0
284,314,301,306,0
288,318,302,309,0
292,318,302,312,0
295,316,302,314,0
298,310,303,317,0
299,303,304,318,0
299,299,304,320,0
300,301,305,322,0
301,306,305,324,0
302,312,307,326,0
305,318,308,327,0
308,322,309,327,0
311,322,310,325,0
312,320,310,319,0
312,322,309,310,0
310,324,306,301,0
308,326,303,292,0
304,326,300,287,0
301,325,298,287,0
299,322,297,290,0
297,317,297,294,0
293,311,297,299,0
287,303,298,301,0
282,292,298,302,0
280,280,299,303,0
283,266,302,304,0
289,251,304,303,0
293,239,304,298,0
296,241,304,294,0
299,261,305,293,0
304,287,307,293,0
308,308,309,291,0
309,322,309,290,0
308,331,309,292,0
307,337,309,295,0
308,341,309,300,0
309,342,310,306,0
309,339,310,312,0
309,333,310,317,0
308,324,310,319,0
308,311,310,319,0
308,299,309,318,0
309,295,309,316,0
309,298,307,315,0
310,304,304,313,0
310,311,301,310,0
311,319,301,309,0
316,329,304,308,0
326,340,307,307,0
339,346,309,305,0
351,344,309,302,0
359,338,309,297,0
362,329,309,291,0
351,319,308,284,0
329,308,306,277,0
305,297,303,271,0
289,287,301,269,0
281,281,303,271,0
283,276,305,277,0
292,273,310,284,0
305,274,314,294,0
312,280,313,303,0
312,286,311,310,0
307,289,309,314,0
296,292,306,316,0
281,290,303,317,0
269,281,302,318,0
263,269,303,319,0
267,263,306,318,0
281,269,309,317,0
297,286,311,314,0
310,304,311,309,0
315,321,310,304,0
317,334,309,300,0
315,343,309,298,0
313,348,310,296,0
311,352,310,294,0
309,355,310,294,0
308,356,310,294,0
306,353,309,294,0
304,350,308,294,0
304,347,307,292,0
303,341,307,290,0
303,333,306,289,0
304,331,305,290,0
308,337,304,293,0
312,337,303,299,0
316,323,303,304,0
317,301,305,308,0
315,276,305,311,0
309,256,307,310,0
301,242,309,310,0
295,233,310,310,0
293,232,312,312,0
293,241,313,312,0
294,258,313,312,0
294,280,313,311,0
296,301,311,309,0
300,321,310,307,0
305,338,310,306,0
310,349,310,307,0
313,352,309,307,0
313,349,309,307,0
313,345,308,308,0
313,337,308,312,0
312,323,307,318,0
311,311,307,324,0
311,304,308,329,0
311,298,310,331,0
311,297,312,332,0
313,304,313,333,0
316,310,314,334,0
318,312,314,333,0
319,316,314,331,0
320,324,313,327,0
321,334,311,324,0
320,342,308,321,0
318,343,306,317,0
314,337,303,312,0
311,322,299,306,0
306,298,295,298,0
303,271,294,290,0
304,250,296,284,0
309,238,297,278,0
316,233,296,273,0
324,240,294,271,0
336,256,296,274,0
349,276,299,280,0
351,294,301,287,0
340,304,305,294,0
326,311,310,302,0
320,319,316,309,0
322,327,321,313,0
325,332,322,317,0
322,334,319,320,0
314,335,314,322,0
307,335,309,323,0
301,332,305,322,0
297,329,301,317,0
293,325,298,309,0
290,319,295,301,0
287,311,294,294,0
285,300,293,290,0
283,288,293,289,0
282,278,294,291,0
285,277,296,295,0
289,289,298,300,0
294,306,301,305,0
298,325,303,310,0
299,338,304,313,0
299,344,305,315,0
299,344,307,315,0
302,338,308,314,0
305,329,309,312,0
307,317,309,307,0
309,303,307,301,0
310,287,305,296,0
311,272,304,292,0
311,259,303,289,0
310,251,303,286,0
307,252,302,285,0
305,268,302,285,0
304,292,303,288,0
304,315,302,290,0
307,333,302,293,0
311,343,302,295,0
313,346,302,296,0
313,344,302,297,0
313,340,303,298,0
314,334,303,299,0
314,328,302,300,0
313,325,302,302,0
313,325,301,303,0
313,327,302,305,0
313,329,302,308,0
313,330,302,310,0
312,331,303,313,0
311,328,303,314,0
311,325,303,315,0
310,321,304,315,0
310,315,304,315,0
310,307,304,316,0
310,297,304,316,0
309,286,303,315,0
309,275,303,313,0
307,264,303,311,0
304,254,303,309,0
298,252,301,306,0
290,265,299,304,0
286,293,299,307,0
289,330,303,313,0
299,353,307,318,0
308,352,308,321,0
315,331,307,320,0
317,296,303,316,0
318,257,301,309,0
321,228,300,301,0
323,225,302,296,0
323,252,306,296,0
322,291,309,297,0
318,319,312,300,0
311,327,315,303,0
304,327,317,307,0
301,324,318,312,0
301,322,318,316,0
302,324,316,320,0
304,328,313,323,0
306,331,310,326,0
308,332,309,329,0
310,332,310,331,0
311,331,312,332,0
312,331,313,331,0
313,330,314,330,0
312,329,315,327,0
310,327,314,323,0
308,323,313,319,0
306,319,311,316,0
305,314,308,314,0
303,313,306,316,0
303,319,305,318,0
302,329,304,319,0
302,335,303,318,0
303,334,301,314,0
302,327,299,307,0
302,316,298,301,0
303,303,298,295,0
303,292,298,290,0
304,282,299,288,0
306,272,301,289,0
307,266,303,293,0
308,266,304,298,0
308,272,307,305,0
309,279,309,312,0
312,283,310,316,0
314,287,310,318,0
317,294,310,317,0
319,303,309,312,0
319,311,308,305,0
315,317,306,300,0
311,318,305,296,0
307,316,304,294,0
302,313,303,294,0
298,312,304,294,0
296,317,304,295,0
295,322,305,297,0
295,327,306,298,0
295,332,306,300,0
297,337,307,302,0
300,340,308,306,0
302,344,309,313,0
302,349,310,321,0
301,352,310,327,0
300,355,310,331,0
301,355,310,332,0
302,351,309,331,0
303,341,309,330,0
304,325,309,327,0
304,305,308,323,0
301,285,307,315,0
296,268,305,304,0
288,259,304,293,0
280,259,304,288,0
273,267,304,288,0
272,277,305,292,0
281,290,306,297,0
298,296,307,301,0
317,292,307,302,0
338,286,308,302,0
353,288,310,302,0
353,300,313,303,0
339,314,315,303,0
319,327,317,304,0
305,336,317,307,0
298,340,314,308,0
297,341,310,309,0
298,342,308,309,0
299,341,306,309,0
300,338,306,310,0
301,333,306,311,0
301,325,306,312,0
300,317,306,312,0
299,307,305,312,0
297,295,304,311,0
296,288,304,310,0
298,289,303,310,0
301,292,304,312,0
304,297,304,316,0
307,303,306,319,0
307,308,307,320,0
306,312,307,319,0
304,318,307,317,0
304,326,307,313,0
304,335,308,308,0
304,340,308,303,0
303,338,308,300,0
303,330,308,298,0
303,321,307,298,0
302,316,306,299,0
301,317,304,302,0
300,323,302,304,0
298,330,299,305,0
297,336,298,306,0
298,337,297,305,0
301,334,297,305,0
305,328,298,304,0
306,317,301,304,0
307,306,304,305,0
307,302,308,305,0
309,311,311,307,0
310,325,313,309,0
308,337,314,311,0
306,342,315,315,0
304,341,315,318,0
302,337,314,320,0
300,330,313,320,0
299,321,312,320,0
299,311,311,319,0
300,303,310,318,0
302,301,309,317,0
304,303,309,316,0
306,306,309,315,0
307,306,309,314,0
306,301,309,313,0
305,291,307,311,0
302,277,305,309,0
300,266,304,308,0
301,267,304,310,0
303,274,305,313,0
305,282,307,315,0
305,287,308,316,0
305,295,308,316,0
304,307,308,314,0
301,321,307,312,0
296,334,308,313,0
293,341,310,318,0
294,343,312,322,0
301,342,313,324,0
308,336,313,322,0
312,333,311,317,0
312,334,308,312,0
311,338,304,309,0
309,341,301,307,0
306,336,298,303,0
304,324,297,299,0
306,308,297,295,0
310,293,298,291,0
313,287,299,291,0
315,291,299,293,0
316,299,300,296,0
316,304,301,300,0
314,305,302,301,0
311,303,303,300,0
307,298,305,299,0
302,293,307,299,0
298,296,310,300,0
296,310,313,303,0
297,328,316,305,0
301,338,317,305,0
311,338,316,302,0
322,328,312,299,0
326,312,306,294,0
325,292,302,289,0
327,276,302,287,0
333,270,303,287,0
333,273,303,290,0
326,279,303,295,0
316,285,303,301,0
308,292,304,307,0
303,300,304,312,0
299,309,306,316,0
297,317,308,319,0
296,323,309,320,0
296,326,309,320,0
295,325,308,319,0
296,321,306,317,0
299,319,304,315,0
305,319,303,313,0
313,321,302,312,0
321,324,302,312,0
323,330,302,313,0
318,336,303,313,0
309,341,304,312,0
303,340,304,311,0
300,330,306,311,0
300,316,307,311,0
299,303,307,311,0
300,293,306,311,0
300,292,306,312,0
302,301,306,312,0
303,317,307,311,0
303,332,308,311,0
303,342,309,310,0
302,343,310,308,0
300,333,310,307,0
300,317,310,308,0
301,300,310,310,0
302,287,311,312,0
303,280,311,315,0
303,281,311,319,0
302,290,311,321,0
302,302,311,324,0
301,314,311,327,0
302,327,311,327,0
304,337,310,325,0
303,339,309,321,0
303,337,307,319,0
307,336,307,320,0
314,334,312,324,0
320,329,317,327,0
323,322,321,330,0
322,315,324,334,0
319,310,326,335,0
317,308,326,334,0
314,311,325,331,0
313,315,322,328,0
312,320,318,325,0
311,321,314,321,0
311,319,309,314,0
309,312,305,307,0
305,302,302,300,0
299,291,299,295,0
293,277,297,289,0
290,262,297,284,0
291,246,298,281,0
295,237,301,280,0
301,243,304,282,0
306,262,307,287,0
310,284,310,291,0
312,302,311,296,0
314,317,312,300,0
318,329,313,303,0
323,334,313,307,0
326,336,314,311,0
323,336,315,316,0
316,335,316,320,0
310,332,318,324,0
305,329,319,329,0
302,326,319,335,0
301,325,319,339,0
301,324,319,340,0
302,320,318,335,0
301,312,316,326,0
299,303,314,317,0
299,298,311,310,0
300,298,308,305,0
301,298,305,302,0
304,299,304,302,0
309,298,304,303,0
313,300,305,305,0
316,302,306,307,0
313,303,307,308,0
309,307,308,308,0
307,311,310,307,0
305,314,313,306,0
300,311,314,305,0
292,303,313,304,0
287,295,314,305,0
291,291,316,307,0
303,295,319,309,0
314,302,319,311,0
322,309,317,311,0
322,314,313,310,0
314,317,309,309,0
304,320,306,308,0
299,322,304,307,0
298,327,304,306,0
300,333,306,305,0
304,337,309,304,0
306,336,313,303,0
308,332,317,304,0
309,328,321,307,0
310,322,323,310,0
310,314,322,312,0
310,301,321,313,0
309,286,320,314,0
308,275,319,317,0
308,268,318,319,0
307,268,318,321,0
308,275,319,321,0
308,285,319,317,0
308,294,317,311,0
307,304,315,304,0
307,317,313,299,0
307,329,312,296,0
306,336,312,295,0
305,340,312,295,0
303,342,312,297,0
301,343,312,297,0
301,334,314,299,0
304,323,315,300,0
309,315,317,301,0
312,315,317,303,0
314,317,317,304,0
314,320,316,304,0
312,321,314,304,0
310,321,313,304,0
308,317,310,304,0
307,314,309,303,0
309,312,308,304,0
310,313,307,306,0
309,314,307,308,0
307,312,307,309,0
304,308,307,310,0
301,300,308,310,0
298,288,308,310,0
293,279,307,306,0
289,280,306,303,0
287,291,307,302,0
291,304,310,307,0
301,318,313,317,0
311,327,316,328,0
318,331,318,336,0
323,333,319,339,0
326,333,319,337,0
327,331,319,333,0
326,329,318,326,0
324,327,318,318,0
320,326,318,311,0
318,324,317,305,0
317,320,316,302,0
319,317,315,300,0
321,315,314,301,0
319,313,313,303,0
313,310,313,306,0
308,306,314,311,0
305,304,315,316,0
304,303,315,320,0
304,302,315,324,0
304,303,317,328,0
306,304,318,331,0
307,306,319,333,0
307,308,320,335,0
307,312,320,336,0
306,316,320,334,0
305,316,320,329,0
304,313,319,321,0
302,307,317,313,0
299,302,314,307,0
300,300,312,303,0
304,303,311,304,0
311,306,311,307,0
314,308,311,309,0
315,309,311,309,0
313,311,311,307,0
310,314,309,304,0
306,321,308,299,0
304,329,307,293,0
304,335,307,288,0
304,335,306,283,0
303,332,306,280,0
303,324,307,280,0
304,313,308,281,0
305,300,309,283,0
306,289,309,284,0
305,284,310,284,0
305,287,310,284,0
305,297,310,285,0
306,307,310,287,0
308,313,310,290,0
310,316,310,294,0
312,317,310,298,0
314,316,309,304,0
315,314,309,310,0
317,309,310,317,0
319,300,311,321,0
320,290,313,324,0
319,284,315,325,0
317,284,316,323,0
315,292,316,321,0
313,302,317,318,0
312,309,317,314,0
310,314,317,310,0
309,316,316,305,0
308,316,316,301,0
308,313,316,300,0
311,309,318,301,0
315,307,319,304,0
317,310,318,306,0
319,314,315,307,0
319,316,310,307,0
315,318,306,306,0
307,322,303,304,0
300,326,301,303,0
295,329,300,302,0
293,329,299,300,0
295,326,300,299,0
299,322,301,298,0
303,316,302,297,0
305,309,303,296,0
306,302,304,295,0
306,296,304,294,0
307,287,304,294,0
307,277,304,295,0
307,269,304,296,0
307,259,303,298,0
306,253,303,301,0
304,258,303,304,0
303,275,304,308,0
304,299,306,314,0
306,322,308,322,0
309,338,310,329,0
313,346,311,334,0
316,349,313,335,0
318,345,315,334,0
318,338,317,331,0
317,331,318,327,0
317,325,318,322,0
317,319,315,320,0
318,313,312,322,0
318,308,311,326,0
318,302,312,329,0
318,295,313,328,0
319,285,312,322,0
319,274,309,314,0
314,268,306,304,0
306,267,303,297,0
299,272,301,293,0
296,282,301,294,0
296,290,302,297,0
299,295,302,299,0
301,297,302,300,0
302,295,302,299,0
303,292,301,297,0
304,295,301,294,0
305,301,300,291,0
304,306,300,288,0
303,312,300,287,0
301,318,301,285,0
299,323,303,283,0
298,325,304,283,0
297,320,304,283,0
296,314,304,283,0
296,311,305,285,0
298,313,306,287,0
301,319,306,291,0
303,324,307,297,0
306,325,307,302,0
309,318,308,307,0
312,311,310,312,0
312,304,311,315,0
310,300,312,316,0
307,297,312,315,0
304,295,311,313,0
302,294,310,310,0
301,292,308,307,0
301,290,308,306,0
302,287,308,304,0
303,281,310,303,0
303,275,310,301,0
301,270,310,300,0
298,268,309,299,0
293,269,309,300,0
291,274,308,303,0
294,281,308,308,0
301,291,309,312,0
311,300,308,314,0
317,306,307,315,0
316,308,305,315,0
312,306,304,313,0
305,301,302,309,0
299,293,300,304,0
298,284,300,300,0
301,283,299,299,0
303,286,299,299,0
304,292,298,300,0
304,298,298,302,0
305,304,299,304,0
304,313,300,307,0
304,324,301,308,0
304,331,302,309,0
304,330,304,311,0
306,321,305,312,0
306,310,306,314,0
304,295,306,318,0
301,283,306,323,0
301,282,307,330,0
303,292,307,337,0
307,309,307,341,0
309,325,308,341,0
309,334,308,337,0
308,332,307,330,0
306,320,304,321,0
302,303,302,313,0
297,292,299,304,0
293,292,297,298,0
291,303,295,292,0
293,317,294,288,0
297,326,293,286,0
302,326,295,285,0
308,325,298,287,0
313,324,300,289,0
316,326,303,290,0
318,330,306,291,0
319,334,310,293,0
322,334,312,294,0
323,329,312,296,0
317,323,310,299,0
307,317,307,306,0
300,310,305,315,0
299,303,304,325,0
302,298,303,333,0
309,294,303,337,0
315,290,304,340,0
315,285,305,340,0
309,279,305,339,0
303,276,304,338,0
298,279,304,336,0
296,284,304,333,0
295,292,304,330,0
296,297,306,324,0
298,300,306,318,0
299,298,306,311,0
299,290,304,303,0
298,279,301,296,0
297,264,297,289,0
295,251,294,284,0
294,247,292,281,0
294,255,290,278,0
296,272,289,274,0
297,292,289,273,0
295,307,289,274,0
294,315,290,275,0
293,315,290,278,0
294,315,291,283,0
297,317,293,291,0
302,320,295,298,0
306,323,298,304,0
307,323,301,307,0
304,321,303,309,0
298,318,305,309,0
294,312,306,307,0
293,305,307,304,0
296,297,307,301,0
299,294,306,299,0
299,293,303,298,0
299,297,300,298,0
300,306,297,299,0
301,314,295,300,0
300,320,294,302,0
299,321,295,303,0
300,320,297,304,0
301,316,298,307,0
303,310,299,309,0
304,307,299,313,0
306,309,299,318,0
308,312,299,323,0
310,312,301,328,0
312,309,302,332,0
312,307,303,334,0
311,309,303,333,0
310,314,303,330,0
311,321,303,327,0
311,326,303,323,0
311,326,302,320,0
310,322,301,317,0
309,317,300,315,0
308,313,300,312,0
306,310,300,309,0
304,308,300,304,0
300,306,301,297,0
297,295,301,291,0
294,275,301,287,0
293,258,302,286,0
292,250,303,287,0
293,247,305,290,0
294,250,305,294,0
297,257,306,299,0
301,267,308,304,0
306,276,308,309,0
309,284,308,311,0
311,287,308,314,0
310,288,308,316,0
310,290,307,317,0
311,292,306,316,0
311,293,305,315,0
309,297,304,313,0
304,302,302,312,0
299,314,301,313,0
297,335,302,318,0
297,355,303,324,0
298,365,306,328,0
300,364,308,331,0
303,359,310,332,0
306,349,311,333,0
308,338,311,333,0
310,326,310,332,0
310,315,308,330,0
309,308,306,328,0
308,306,304,326,0
305,309,303,322,0
302,313,301,315,0
300,318,300,306,0
300,325,300,297,0
300,328,300,288,0
300,324,299,282,0
299,314,300,278,0
298,305,300,276,0
298,299,301,277,0
299,299,303,279,0
302,303,304,284,0
305,306,304,288,0
308,302,304,294,0
309,294,303,297,0
310,281,302,300,0
310,269,301,302,0
312,265,301,304,0
314,267,301,304,0
317,274,300,302,0
320,284,299,299,0
319,296,298,295,0
314,310,298,292,0
304,314,300,289,0
295,308,301,287,0
289,299,302,287,0
287,292,303,289,0
289,290,304,292,0
293,290,305,297,0
296,295,306,302,0
298,303,307,307,0
298,310,308,312,0
298,315,308,316,0
298,318,308,318,0
301,317,308,319,0
304,314,308,318,0
307,311,307,316,0
309,309,307,314,0
310,308,306,313,0
312,307,306,311,0
312,305,306,308,0
312,303,307,305,0
311,302,307,303,0
310,303,308,302,0
308,306,309,303,0
305,312,310,305,0
302,316,309,305,0
299,319,309,306,0
297,320,309,307,0
297,321,308,307,0
297,322,309,307,0
294,324,308,305,0
288,323,307,302,0
283,321,306,297,0
280,315,306,294,0
282,306,307,291,0
291,298,309,289,0
302,293,311,289,0
310,292,312,292,0
315,294,309,296,0
318,294,307,300,0
319,295,306,303,0
317,299,307,305,0
314,303,307,306,0
310,307,306,306,0
307,310,305,306,0
304,311,304,307,0
303,313,304,308,0
304,315,304,308,0
308,316,304,308,0
310,315,303,307,0
310,313,303,306,0
309,313,304,308,0
308,313,305,309,0
307,313,306,311,0
306,310,307,314,0
306,304,308,317,0
307,295,310,319,0
307,282,313,321,0
307,269,314,321,0
307,261,315,319,0
305,258,314,316,0
304,262,313,314,0
303,270,310,310,0
301,279,306,308,0
299,290,302,306,0
298,302,300,306,0
299,311,301,308,0
301,314,301,307,0
303,316,301,306,0
306,314,301,303,0
308,313,300,299,0
309,311,300,296,0
313,309,299,293,0
321,312,298,292,0
329,316,298,292,0
330,317,299,293,0
326,316,299,294,0
317,316,300,296,0
305,317,302,299,0
297,320,303,303,0
292,321,305,308,0
291,320,308,312,0
292,317,310,315,0
295,315,311,317,0
299,315,312,317,0
302,317,311,317,0
302,319,310,315,0
299,320,308,313,0
297,321,307,310,0
298,321,309,308,0
300,321,309,304,0
303,320,308,299,0
305,316,305,294,0
305,312,302,289,0
303,308,299,286,0
300,304,297,284,0
296,300,296,284,0
292,296,296,285,0
290,295,297,287,0
291,297,300,292,0
296,300,303,297,0
303,301,306,302,0
310,300,308,307,0
315,296,310,310,0
319,291,310,311,0
321,288,309,311,0
321,290,308,309,0
318,296,308,308,0
313,299,307,309,0
308,297,306,310,0
302,293,304,310,0
297,286,304,309,0
297,276,304,307,0
300,265,304,305,0
303,253,303,302,0
304,241,303,300,0
302,236,302,299,0
302,246,304,301,0
304,270,307,304,0
305,299,310,308,0
304,325,312,314,0
301,341,312,321,0
298,349,310,332,0
296,352,308,344,0
298,352,307,353,0
302,351,307,359,0
305,349,307,359,0
306,346,306,354,0
307,342,307,346,0
306,337,307,335,0
305,331,307,323,0
305,325,306,311,0
304,321,304,302,0
303,319,303,294,0
302,320,301,288,0
302,327,298,285,0
302,334,296,282,0
302,342,293,279,0
304,347,292,278,0
307,349,293,281,0
311,346,296,288,0
314,334,301,296,0
316,318,306,301,0
315,304,310,303,0
313,298,313,303,0
310,297,315,303,0
309,293,315,302,0
309,287,313,301,0
308,278,310,299,0
307,270,308,298,0
305,262,305,297,0
303,255,303,294,0
302,250,303,293,0
301,248,304,293,0
303,248,305,296,0
305,249,304,300,0
307,253,305,304,0
308,263,305,307,0
307,276,305,311,0
303,288,307,316,0
301,300,310,321,0
304,309,312,324,0
307,314,313,325,0
311,317,312,323,0
313,319,312,320,0
315,321,311,316,0
315,323,311,314,0
315,323,311,311,0
315,321,309,309,0
314,317,308,306,0
312,311,306,303,0
309,304,304,298,0
307,297,302,293,0
304,291,299,289,0
304,284,298,286,0
305,282,298,287,0
307,284,299,290,0
307,287,302,295,0
309,290,304,300,0
311,296,306,303,0
313,301,307,306,0
313,300,307,309,0
313,295,306,311,0
311,289,306,311,0
310,285,306,311,0
307,283,306,312,0
304,282,306,313,0
300,286,307,314,0
297,293,307,315,0
297,307,307,317,0
299,327,307,320,0
302,348,308,325,0
304,364,308,330,0
305,371,308,335,0
306,365,309,338,0
308,349,310,338,0
310,331,311,337,0
312,318,312,333,0
315,309,312,329,0
315,305,311,323,0
315,304,311,317,0
314,305,311,311,0
312,305,311,305,0
309,300,310,300,0
305,294,309,296,0
300,289,308,294,0
297,288,307,296,0
297,293,306,301,0
301,297,304,308,0
306,295,302,313,0
308,285,301,314,0
308,270,300,311,0
307,258,300,305,0
308,252,299,300,0
309,254,299,295,0
313,261,299,293,0
315,274,300,293,0
314,287,300,294,0
312,297,301,294,0
309,303,301,294,0
308,303,303,294,0
309,301,305,294,0
311,297,306,295,0
313,296,307,295,0
315,296,308,297,0
314,296,309,301,0
312,295,308,305,0
308,297,305,306,0
302,302,302,306,0
299,308,300,305,0
299,314,300,305,0
301,318,300,306,0
305,321,299,307,0
309,324,300,309,0
311,324,300,311,0
312,323,300,312,0
313,319,301,312,0
315,316,303,312,0
318,314,304,311,0
320,311,304,310,0
321,306,304,311,0
321,301,305,313,0
322,297,307,314,0
320,298,308,315,0
316,301,307,313,0
311,304,305,309,0
306,304,302,305,0
301,304,301,302,0
297,303,301,300,0
293,302,301,300,0
291,300,301,302,0
292,298,301,305,0
295,294,302,308,0
297,293,301,310,0
300,298,301,311,0
304,308,300,312,0
308,313,300,312,0
313,314,300,312,0
315,313,301,312,0
312,315,302,311,0
309,312,305,313,0
307,304,307,315,0
306,294,308,316,0
305,288,308,317,0
304,287,308,318,0
303,292,308,319,0
303,296,308,322,0
304,298,308,325,0
304,300,308,328,0
305,300,308,329,0
304,299,308,329,0
304,296,306,327,0
302,293,305,324,0
300,290,304,318,0
299,287,302,313,0
299,286,301,309,0
299,285,301,307,0
299,284,301,307,0
298,285,301,308,0
298,288,301,310,0
298,295,302,311,0
300,301,304,313,0
302,303,306,316,0
305,301,308,317,0
306,296,309,316,0
307,288,309,314,0
307,285,309,311,0
304,288,310,308,0
300,298,310,306,0
295,311,311,305,0
291,325,312,308,0
293,335,314,311,0
297,337,314,312,0
300,332,311,308,0
302,323,307,303,0
302,317,303,297,0
302,312,300,292,0
302,306,299,289,0
302,302,299,290,0
304,302,302,295,0
310,303,306,301,0
315,304,309,306,0
320,303,310,309,0
322,301,311,310,0
322,301,311,311,0
321,303,311,309,0
319,305,311,308,0
317,307,312,306,0
316,309,313,305,0
315,310,314,303,0
314,309,315,301,0
313,306,314,298,0
312,301,313,296,0
312,294,311,294,0
311,288,308,293,0
311,284,305,293,0
310,287,303,294,0
308,302,301,296,0
308,321,300,297,0
311,336,301,300,0
316,338,302,303,0
321,325,304,309,0
325,306,306,316,0
326,289,309,322,0
323,278,311,326,0
317,271,312,328,0
311,268,312,329,0
307,267,311,329,0
304,270,310,327,0
302,274,309,324,0
301,279,307,318,0
301,284,306,310,0
301,287,304,302,0
303,289,302,296,0
304,291,301,293,0
306,295,301,292,0
306,299,301,294,0
307,304,302,296,0
309,307,302,299,0
311,306,303,301,0
312,305,303,303,0
312,303,303,304,0
311,304,303,305,0
310,308,303,306,0
310,312,303,308,0
309,315,303,310,0
309,317,304,312,0
309,315,305,313,0
307,311,306,314,0
305,306,306,315,0
303,302,306,315,0
300,303,305,315,0
299,308,305,315,0
300,316,305,315,0
303,325,305,315,0
309,332,305,316,0
316,336,305,317,0
323,336,306,320,0
324,328,306,325,0
323,318,308,329,0
320,309,310,333,0
315,298,312,335,0
308,279,314,334,0
300,259,314,332,0
294,252,312,330,0
291,261,311,328,0
292,279,309,325,0
295,298,309,321,0
298,311,309,317,0
301,319,310,312,0
302,323,312,307,0
302,326,313,302,0
301,329,313,298,0
299,331,313,293,0
297,333,312,291,0
294,335,310,290,0
293,338,308,291,0
295,337,308,293,0
299,329,308,297,0
304,316,308,301,0
307,307,306,304,0
309,301,305,307,0
311,297,303,309,0
311,293,302,312,0
310,288,301,315,0
309,284,302,320,0
306,280,303,326,0
302,277,304,330,0
297,272,306,331,0
294,268,307,330,0
294,267,310,328,0
300,269,311,325,0
306,270,311,319,0
310,274,309,313,0
314,287,309,308,0
317,304,308,307,0
318,320,308,306,0
319,331,308,306,0
318,337,307,306,0
317,338,306,306,0
316,335,306,305,0
315,330,305,303,0
314,326,306,300,0
313,323,307,298,0
312,321,308,295,0
310,319,310,294,0
308,318,310,292,0
306,319,310,292,0
304,321,309,292,0
304,324,309,293,0
305,324,309,295,0
307,317,308,298,0
308,307,308,303,0
309,300,309,309,0
310,297,309,314,0
311,296,309,317,0
312,295,309,319,0
314,296,310,319,0
315,299,311,319,0
315,301,312,318,0
315,304,312,316,0
314,310,312,312,0
313,318,313,307,0
312,324,312,301,0
310,324,311,296,0
308,323,310,291,0
308,323,309,289,0
310,325,309,288,0
313,323,309,289,0
317,318,308,291,0
322,309,308,294,0
326,301,307,296,0
325,294,306,298,0
314,288,305,301,0
301,285,305,305,0
292,284,306,310,0
288,286,309,316,0
290,291,311,325,0
296,298,314,335,0
302,307,316,346,0
308,316,319,355,0
312,322,321,360,0
314,327,322,360,0
314,330,322,357,0
312,332,321,353,0
309,332,319,346,0
306,331,317,338,0
304,330,315,328,0
304,327,313,316,0
304,323,311,304,0
303,318,310,293,0
302,314,309,285,0
300,310,308,280,0
298,306,306,279,0
297,303,304,280,0
295,301,303,283,0
294,299,302,285,0
294,293,301,289,0
294,282,300,290,0
295,268,299,292,0
298,256,299,293,0
302,249,300,296,0
308,243,303,300,0
311,240,307,304,0
313,249,308,304,0
310,273,308,303,0
306,302,307,305,0
303,324,306,308,0
301,333,307,311,0
302,333,307,313,0
304,328,307,313,0
305,324,309,312,0
305,320,310,310,0
306,313,310,308,0
307,308,308,306,0
308,310,307,306,0
310,318,307,307,0
313,329,306,310,0
316,336,307,312,0
319,336,307,313,0
320,333,307,312,0
321,329,307,309,0
320,325,307,304,0
318,322,306,299,0
315,320,306,296,0
311,320,305,293,0
308,321,306,292,0
308,322,307,291,0
310,322,307,291,0
310,324,307,290,0
308,328,307,291,0
303,329,306,293,0
299,325,305,295,0
297,317,305,297,0
301,306,305,299,0
305,292,305,299,0
309,281,305,298,0
311,277,305,298,0
314,281,305,298,0
318,289,305,300,0
321,297,306,302,0
323,301,307,305,0
322,304,309,307,0
316,304,311,310,0
310,302,312,312,0
302,299,313,314,0
296,296,313,314,0
293,296,313,315,0
293,300,313,316,0
296,306,313,320,0
299,313,314,323,0
301,318,314,324,0
302,318,313,324,0
303,317,312,322,0
304,314,310,319,0
305,313,310,315,0
306,312,310,313,0
307,314,311,312,0
308,314,312,313,0
308,312,314,317,0
309,304,316,320,0
309,293,317,319,0
308,280,317,317,0
305,269,318,314,0
302,262,317,309,0
298,263,315,303,0
294,277,313,297,0
291,297,310,292,0
289,316,308,288,0
292,330,307,284,0
298,335,307,281,0
308,329,309,279,0
317,313,312,277,0
324,296,314,277,0
322,286,318,279,0
313,285,321,283,0
306,290,323,289,0
304,297,321,294,0
303,303,318,299,0
304,306,315,306,0
304,308,313,314,0
303,309,313,322,0
300,313,313,330,0
296,319,315,336,0
294,323,317,340,0
295,326,318,341,0
297,327,315,339,0
300,325,312,335,0
303,323,309,332,0
306,321,308,328,0
308,320,306,323,0
308,320,304,317,0
309,320,303,310,0
309,319,301,304,0
310,319,300,298,0
310,318,298,293,0
310,316,298,289,0
308,313,298,287,0
305,309,298,285,0
301,301,299,283,0
296,291,300,282,0
292,286,301,283,0
293,285,303,286,0
296,285,305,289,0
300,285,306,292,0
304,288,307,295,0
306,296,307,298,0
307,306,308,301,0
306,315,308,304,0
305,323,308,308,0
305,328,309,312,0
306,332,309,317,0
306,334,310,323,0
306,337,311,330,0
306,338,311,337,0
305,336,311,342,0
304,327,311,344,0
305,316,311,342,0
307,304,311,338,0
309,296,311,332,0
310,289,312,325,0
310,284,313,320,0
307,280,314,317,0
305,280,314,315,0
305,286,313,315,0
307,294,311,313,0
307,300,308,310,0
304,304,307,307,0
302,305,306,305,0
300,307,305,303,0
299,309,305,301,0
299,313,305,301,0
299,316,305,301,0
300,317,305,303,0
300,313,306,306,0
300,308,307,310,0
300,306,308,315,0
301,310,309,318,0
303,319,309,320,0
304,330,310,321,0
305,340,310,320,0
305,346,309,318,0
304,347,308,313,0
302,340,306,307,0
299,329,305,302,0
297,317,305,299,0
296,308,305,296,0
298,303,306,293,0
299,299,309,291,0
298,298,312,293,0
298,298,315,298,0
296,301,317,304,0
295,304,317,310,0
294,310,315,313,0
296,318,312,314,0
300,325,309,314,0
304,325,308,313,0
307,319,309,312,0
307,311,309,309,0
306,301,308,307,0
306,291,308,304,0
306,281,306,301,0
305,276,304,299,0
305,279,302,299,0
304,284,301,301,0
304,291,300,302,0
303,297,299,302,0
302,306,298,302,0
302,316,297,302,0
302,323,296,300,0
303,326,296,298,0
304,325,298,296,0
304,318,299,294,0
298,312,302,294,0
292,313,304,297,0
289,319,306,300,0
289,323,306,304,0
291,327,306,309,0
295,331,306,315,0
299,331,307,321,0
303,326,309,327,0
306,319,311,333,0
309,315,312,337,0
311,314,313,339,0
312,316,313,338,0
312,318,313,335,0
311,318,312,330,0
310,314,311,326,0
308,306,310,322,0
306,298,309,318,0
303,290,307,316,0
302,281,306,313,0
300,273,305,311,0
299,271,305,310,0
301,279,305,310,0
304,292,306,310,0
308,304,306,309,0
311,313,306,308,0
314,321,306,306,0
315,326,306,304,0
312,326,307,303,0
307,322,308,302,0
302,316,309,301,0
299,311,310,300,0
300,308,311,299,0
303,306,310,297,0
303,303,308,295,0
302,297,305,295,0
299,291,303,296,0
297,287,301,299,0
295,284,300,300,0
295,281,299,300,0
296,277,299,301,0
297,272,298,302,0
299,270,297,305,0
302,272,298,308,0
305,275,300,311,0
306,277,302,314,0
307,280,304,316,0
308,287,306,318,0
308,302,308,319,0
309,320,308,319,0
309,338,308,318,0
308,350,308,315,0
305,354,307,312,0
303,353,307,309,0
302,347,306,307,0
302,340,306,307,0
300,334,305,309,0
298,331,306,311,0
296,331,307,314,0
296,330,309,317,0
297,328,310,320,0
300,327,311,324,0
301,327,312,328,0
300,328,313,330,0
296,326,315,329,0
292,323,316,326,0
292,324,316,323,0
298,326,315,320,0
304,324,315,319,0
308,324,313,318,0
310,325,311,318,0
310,324,309,316,0
310,318,306,314,0
308,309,304,311,0
307,299,303,308,0
305,290,302,307,0
303,285,301,306,0
302,281,300,305,0
300,278,299,306,0
299,276,298,305,0
298,277,298,304,0
297,283,298,304,0
298,291,299,305,0
299,300,300,307,0
302,310,301,309,0
303,315,302,310,0
303,315,303,311,0
303,312,304,311,0
303,309,304,310,0
302,309,304,308,0
300,311,304,306,0
299,313,304,304,0
297,318,304,303,0
297,321,305,304,0
297,326,306,305,0
298,330,306,308,0
298,332,306,308,0
299,325,306,306,0
300,310,306,304,0
301,290,307,306,0
301,271,307,309,0
299,256,307,312,0
297,250,304,313,0
297,254,302,313,0
301,267,300,314,0
309,283,300,314,0
317,300,301,313,0
323,314,301,313,0
324,323,302,313,0
317,326,304,313,0
306,325,305,312,0
297,323,306,310,0
291,319,306,309,0
288,315,306,309,0
289,314,307,310,0
292,317,307,312,0
295,320,307,313,0
298,320,306,313,0
301,315,306,312,0
302,310,304,311,0
303,307,303,308,0
303,308,300,302,0
303,311,298,296,0
302,314,296,290,0
302,317,296,287,0
302,320,297,286,0
302,318,299,288,0
302,310,301,291,0
302,299,303,296,0
300,290,305,301,0
299,290,306,305,0
297,294,305,306,0
297,302,305,304,0
298,309,305,300,0
301,313,305,296,0
305,315,304,294,0
310,314,304,293,0
312,311,304,294,0
312,308,304,295,0
311,305,304,296,0
310,304,304,298,0
309,304,304,300,0
311,306,305,301,0
312,310,305,301,0
313,316,306,302,0
313,320,308,304,0
313,325,311,305,0
313,327,313,308,0
312,328,316,311,0
311,327,318,311,0
309,323,318,309,0
308,316,315,305,0
306,306,312,302,0
304,298,309,298,0
304,294,306,295,0
302,293,303,292,0
297,294,302,290,0
293,293,301,291,0
290,288,302,293,0
289,278,303,297,0
291,268,304,300,0
297,263,304,303,0
301,265,302,306,0
303,276,301,309,0
305,296,301,315,0
306,319,302,322,0
307,334,302,327,0
307,339,302,328,0
307,338,302,325,0
306,337,302,320,0
307,338,301,314,0
308,342,300,308,0
308,346,299,303,0
307,347,299,300,0
306,344,300,300,0
305,338,301,301,0
306,332,301,303,0
305,326,301,305,0
305,321,301,307,0
304,318,301,308,0
304,316,300,309,0
303,313,299,311,0
304,308,298,313,0
305,303,298,315,0
308,300,298,317,0
311,297,299,319,0
314,293,302,322,0
317,289,304,325,0
318,288,306,326,0
317,289,308,326,0
316,293,308,325,0
315,299,308,324,0
314,305,307,321,0
312,309,307,317,0
312,312,305,313,0
313,313,304,309,0
312,313,304,304,0
311,308,303,300,0
309,299,304,295,0
309,289,305,293,0
309,279,305,292,0
309,273,304,292,0
307,272,303,293,0
302,276,302,293,0
296,279,302,295,0
292,284,304,296,0
293,291,305,298,0
296,296,306,300,0
299,297,307,300,0
301,296,307,298,0
302,297,306,296,0
301,298,304,295,0
300,303,303,295,0
299,313,302,295,0
298,325,301,295,0
299,336,301,295,0
300,339,301,295,0
301,335,302,296,0
303,329,303,297,0
305,323,303,298,0
306,315,303,297,0
307,307,302,295,0
308,302,301,294,0
309,303,302,295,0
310,308,303,296,0
311,312,305,298,0
311,314,307,301,0
310,313,309,303,0
307,309,308,305,0
304,305,306,306,0
302,308,304,308,0
304,316,303,312,0
307,320,303,315,0
310,320,303,317,0
313,318,303,317,0
312,318,303,317,0
309,320,304,317,0
304,320,305,318,0
300,319,307,317,0
297,317,308,315,0
296,311,307,311,0
294,305,306,308,0
293,300,305,306,0
294,296,303,306,0
297,292,301,306,0
300,291,300,307,0
303,292,300,307,0
307,292,301,310,0
309,293,303,314,0
310,299,304,319,0
310,309,305,323,0
308,318,305,325,0
306,326,304,326,0
305,330,302,327,0
303,332,301,325,0
303,331,299,321,0
304,326,298,314,0
305,321,298,307,0
305,317,298,301,0
305,314,299,297,0
303,310,300,296,0
300,301,300,295,0
300,288,300,296,0
303,276,299,297,0
306,270,298,297,0
311,273,299,298,0
315,282,302,300,0
318,295,305,302,0
319,312,309,305,0
316,328,312,309,0
313,339,313,313,0
310,343,313,318,0
307,340,312,323,0
304,332,310,329,0
304,324,309,336,0
306,318,309,340,0
308,314,307,339,0
308,311,305,334,0
307,312,303,325,0
306,314,301,313,0
305,315,299,301,0
304,314,297,293,0
304,312,297,288,0
305,311,297,287,0
307,313,298,291,0
309,316,299,297,0
312,320,301,305,0
315,325,302,313,0
316,328,303,317,0
316,329,304,320,0
316,325,305,320,0
316,318,306,319,0
314,311,306,317,0
312,304,305,313,0
309,295,304,307,0
305,288,301,301,0
302,289,299,295,0
300,293,298,292,0
300,299,298,290,0
303,305,300,292,0
306,310,302,293,0
309,311,302,294,0
312,309,302,293,0
317,307,302,292,0
321,305,302,290,0
321,302,302,290,0
316,298,303,289,0
311,297,304,290,0
309,302,306,291,0
311,307,307,293,0
314,309,309,294,0
316,307,312,294,0
315,305,315,296,0
310,304,317,298,0
305,303,319,302,0
300,305,319,305,0
296,309,317,307,0
292,314,311,308,0
288,314,305,310,0
285,311,301,313,0
284,307,299,315,0
285,306,299,318,0
289,307,301,321,0
295,311,303,325,0
302,312,305,329,0
306,310,306,331,0
309,307,306,331,0
311,303,306,330,0
312,300,305,328,0
313,297,305,326,0
313,296,304,325,0
313,297,304,323,0
313,299,305,318,0
313,300,306,313,0
312,301,307,306,0
311,302,306,299,0
309,306,305,293,0
307,312,304,288,0
306,318,303,287,0
306,321,304,288,0
306,322,304,289,0
307,321,304,290,0
307,319,304,291,0
308,313,305,294,0
311,307,305,297,0
315,302,305,300,0
317,302,304,304,0
318,305,305,307,0
318,309,307,308,0
317,314,309,306,0
313,318,308,302,0
308,322,306,298,0
303,324,303,294,0
300,323,302,292,0
297,323,301,291,0
295,324,300,293,0
292,324,301,295,0
288,325,300,298,0
283,325,301,302,0
281,323,300,306,0
281,323,300,309,0
285,322,300,311,0
293,317,301,312,0
302,307,301,312,0
309,297,301,311,0
313,289,301,309,0
313,289,301,307,0
314,298,302,308,0
315,308,303,309,0
316,316,304,309,0
317,318,304,307,0
318,314,304,303,0
316,306,304,300,0
311,295,304,297,0
305,282,304,295,0
301,272,305,294,0
300,271,305,295,0
299,281,306,298,0
300,296,307,301,0
302,310,307,303,0
305,315,308,305,0
309,312,308,306,0
314,306,307,307,0
316,300,307,309,0
313,297,306,310,0
308,298,306,311,0
305,303,306,312,0
305,311,305,313,0
306,318,305,314,0
307,320,306,316,0
309,320,306,316,0
309,317,307,316,0
307,315,307,315,0
302,315,308,314,0
295,316,308,314,0
291,322,307,316,0
289,329,307,319,0
293,332,308,323,0
300,333,308,324,0
307,330,308,322,0
312,326,307,315,0
313,321,305,307,0
312,314,304,301,0
310,309,305,298,0
309,304,306,297,0
307,301,309,297,0
307,302,313,298,0
306,311,316,298,0
305,324,319,300,0
305,335,320,301,0
304,340,319,300,0
304,339,315,299,0
304,333,310,297,0
305,324,307,296,0
306,313,304,295,0
307,306,302,295,0
307,305,301,295,0
306,309,301,298,0
305,311,302,301,0
304,310,303,304,0
303,309,303,305,0
302,308,302,305,0
303,308,302,306,0
304,307,302,308,0
306,305,302,310,0
308,302,304,312,0
308,299,305,315,0
309,297,306,319,0
308,296,307,322,0
306,297,307,323,0
304,301,307,321,0
302,306,307,318,0
300,309,306,315,0
299,308,306,310,0
297,304,305,305,0
296,300,305,301,0
296,297,305,298,0
296,293,306,295,0
297,294,306,294,0
298,300,306,294,0
298,309,306,295,0
298,319,306,295,0
298,325,307,296,0
301,327,308,297,0
307,327,309,299,0
314,328,310,303,0
321,330,312,307,0
323,332,313,313,0
321,331,315,318,0
317,325,316,322,0
313,316,317,323,0
309,307,318,322,0
307,298,318,322,0
306,288,317,321,0
304,280,316,320,0
303,276,313,320,0
303,275,311,320,0
302,276,310,319,0
301,279,309,318,0
300,283,308,314,0
299,288,307,309,0
300,292,306,304,0
302,296,305,301,0
304,301,304,301,0
305,305,303,303,0
305,307,303,304,0
305,309,302,303,0
305,314,303,303,0
306,324,304,302,0
307,334,305,303,0
307,340,306,302,0
308,339,306,302,0
307,331,307,303,0
308,318,307,304,0
307,308,307,305,0
307,303,307,307,0
307,301,307,310,0
308,300,308,315,0
309,299,309,320,0
310,301,309,324,0
310,304,309,325,0
310,307,307,322,0
309,308,305,316,0
310,308,304,310,0
310,305,303,305,0
311,300,303,302,0
312,292,303,300,0
311,281,304,299,0
309,267,304,297,0
306,254,304,296,0
304,251,305,295,0
305,261,306,296,0
307,281,306,298,0
308,298,306,298,0
308,306,305,297,0
307,306,304,295,0
306,302,302,294,0
305,300,301,295,0
305,301,299,296,0
305,304,299,297,0
305,307,299,298,0
307,312,299,298,0
308,318,299,300,0
310,323,299,301,0
310,326,299,302,0
310,327,299,304,0
308,328,299,309,0
305,328,300,315,0
301,326,302,320,0
297,323,303,324,0
295,321,306,327,0
296,321,308,328,0
300,323,310,329,0
306,326,311,330,0
313,326,311,330,0
320,323,311,330,0
322,316,309,328,0
317,310,307,323,0
310,303,306,318,0
304,297,307,313,0
302,296,309,309,0
302,298,311,304,0
304,301,312,300,0
307,300,311,296,0
309,295,309,293,0
310,290,304,291,0
310,288,301,290,0
310,289,298,293,0
309,294,298,299,0
308,299,298,305,0
307,301,299,309,0
307,297,299,311,0
307,292,299,311,0
307,289,298,310,0
305,293,298,309,0
302,304,299,310,0
301,317,301,315,0
303,325,302,320,0
304,328,303,324,0
306,330,303,328,0
307,333,302,329,0
307,337,301,327,0
307,342,299,323,0
306,343,298,318,0
305,339,298,313,0
306,326,298,306,0
308,306,299,299,0
310,282,300,294,0
309,262,301,293,0
306,248,302,296,0
304,241,304,300,0
305,243,305,303,0
309,254,305,304,0
311,275,305,305,0
311,297,305,305,0
310,314,304,306,0
309,323,303,307,0
308,326,302,307,0
308,326,301,307,0
307,323,301,307,0
306,319,300,305,0
307,313,300,303,0
308,309,300,303,0
311,306,300,305,0
314,305,301,310,0
316,303,302,315,0
315,303,303,320,0
313,305,305,325,0
310,306,307,328,0
308,307,309,330,0
307,307,310,330,0
307,309,311,329,0
307,316,311,325,0
307,327,311,320,0
308,338,311,314,0
308,343,311,309,0
308,341,310,306,0
308,334,309,303,0
309,326,309,300,0
310,318,308,298,0
312,306,308,296,0
313,295,307,296,0
314,285,307,298,0
314,279,308,301,0
314,278,308,303,0
313,278,308,304,0
311,279,309,304,0
309,277,310,304,0
307,272,311,305,0
306,270,312,307,0
305,272,314,310,0
305,277,316,313,0
307,284,318,317,0
308,295,319,320,0
310,308,320,321,0
311,319,319,321,0
310,325,318,321,0
309,327,316,322,0
308,328,315,322,0
309,326,315,322,0
308,320,314,321,0
306,311,313,318,0
303,304,313,316,0
300,302,314,314,0
300,304,317,313,0
304,307,319,313,0
308,309,322,313,0
309,309,324,315,0
307,307,326,320,0
305,306,327,324,0
302,307,328,327,0
298,309,330,326,0
296,308,331,322,0
296,307,334,318,0
299,305,335,313,0
301,305,335,307,0
304,305,334,303,0
306,303,332,299,0
307,302,329,299,0
308,306,326,300,0
309,314,323,301,0
308,321,321,300,0
307,324,319,298,0
307,319,317,298,0
307,310,315,299,0
308,299,313,303,0
311,290,311,306,0
314,283,310,308,0
316,282,308,309,0
314,286,308,311,0
310,294,307,313,0
305,302,305,315,0
302,307,303,315,0
299,309,301,314,0
297,308,299,313,0
295,306,296,309,0
293,302,293,304,0
291,296,291,299,0
288,290,288,295,0
286,288,287,290,0
286,290,287,287,0
289,293,287,284,0
294,296,286,284,0
297,295,286,285,0
300,292,285,286,0
301,290,284,288,0
302,291,285,292,0
304,294,286,297,0
310,301,287,304,0
317,308,289,312,0
326,313,291,318,0
331,315,293,323,0
328,318,293,326,0
316,320,294,327,0
305,320,294,327,0
297,316,295,325,0
293,310,296,322,0
292,304,296,319,0
291,298,296,317,0
291,294,295,315,0
291,292,294,313,0
292,290,293,311,0
293,289,292,309,0
294,285,290,306,0
295,280,289,302,0
296,273,289,298,0
296,266,289,295,0
295,260,289,294,0
292,259,289,294,0
289,265,290,296,0
287,282,291,299,0
288,304,294,303,0
293,323,297,306,0
300,333,299,309,0
305,338,299,312,0
305,342,298,314,0
303,342,296,316,0
301,339,293,316,0
299,335,291,316,0
298,331,290,314,0
298,329,288,311,0
298,329,287,307,0
299,326,287,303,0
300,320,287,300,0
301,313,288,297,0
301,310,289,296,0
302,308,291,296,0
303,307,294,296,0
304,304,296,296,0
304,302,298,299,0
304,302,300,302,0
304,304,301,306,0
303,304,301,309,0
301,305,301,311,0
298,307,300,312,0
294,310,299,311,0
291,313,298,309,0
289,315,297,305,0
291,318,297,303,0
297,320,297,301,0
304,321,297,300,0
309,319,297,299,0
311,316,297,299,0
310,315,299,299,0
307,314,300,302,0
304,314,301,305,0
301,315,302,308,0
299,318,303,310,0
298,318,305,312,0
297,312,306,314,0
297,306,306,315,0
298,302,307,317,0
300,299,307,320,0
302,296,308,325,0
304,295,308,327,0
305,297,309,329,0
305,302,310,327,0
306,304,311,325,0
306,305,312,321,0
305,305,312,318,0
303,304,312,315,0
300,302,311,313,0
298,298,310,311,0
300,295,309,309,0
305,295,308,306,0
310,297,306,304,0
312,298,305,302,0
312,299,304,303,0
311,303,304,307,0
311,312,305,313,0
311,320,307,319,0
310,326,308,323,0
308,329,309,325,0
305,330,309,328,0
302,328,310,331,0
299,326,311,334,0
298,325,313,334,0
297,324,314,330,0
298,324,314,325,0
299,322,314,318,0
301,316,311,311,0
303,308,307,307,0
304,301,305,304,0
306,295,303,304,0
306,290,302,304,0
305,288,302,304,0
304,290,302,303,0
304,293,303,301,0
304,296,303,300,0
304,298,304,298,0
305,298,304,296,0
305,299,303,295,0
306,300,303,295,0
307,301,303,297,0
308,301,303,301,0
311,301,303,303,0
316,301,303,303,0
319,301,304,302,0
315,300,305,301,0
308,299,307,300,0
301,297,307,298,0
297,292,308,297,0
294,287,308,298,0
293,282,308,300,0
293,281,308,303,0
294,279,309,307,0
296,277,309,311,0
298,276,310,313,0
298,277,310,316,0
299,283,311,319,0
301,297,311,321,0
303,314,311,321,0
305,328,310,317,0
307,334,310,311,0
307,335,309,305,0
310,335,309,301,0
313,334,310,299,0
315,332,311,299,0
317,330,312,298,0
314,327,313,299,0
310,323,313,301,0
305,322,314,303,0
304,322,315,306,0
304,320,315,308,0
306,314,314,308,0
309,308,314,308,0
312,305,313,308,0
316,307,313,307,0
318,313,312,308,0
319,319,312,309,0
317,322,311,309,0
314,324,310,308,0
309,323,308,308,0
306,321,308,309,0
304,319,308,311,0
303,319,309,315,0
303,322,310,318,0
303,326,311,320,0
304,331,311,321,0
304,336,312,321,0
305,338,312,322,0
307,335,313,322,0
309,326,313,322,0
309,314,312,322,0
307,300,311,321,0
303,289,311,321,0
302,286,311,321,0
304,292,312,325,0
310,303,313,331,0
317,310,312,335,0
322,308,311,335,0
325,300,309,332,0
326,291,307,325,0
325,284,305,315,0
324,279,304,304,0
321,276,302,294,0
319,277,301,285,0
316,278,300,277,0
314,276,299,270,0
311,272,298,265,0
309,270,297,264,0
308,273,297,266,0
308,279,297,270,0
308,283,298,276,0
308,285,299,283,0
308,287,299,292,0
308,287,300,300,0
309,284,301,306,0
310,280,302,311,0
310,279,303,315,0
311,284,303,317,0
311,291,303,317,0
311,299,302,316,0
312,310,301,313,0
313,323,300,311,0
313,333,299,308,0
313,339,299,304,0
313,341,298,301,0
312,338,297,298,0
310,333,297,296,0
306,327,297,291,0
301,324,295,288,0
297,326,294,285,0
298,329,294,286,0
304,327,293,287,0
314,321,293,290,0
325,311,295,292,0
330,299,296,295,0
328,290,296,298,0
323,289,297,302,0
318,297,296,305,0
315,307,295,308,0
313,315,294,308,0
312,316,293,307,0
314,313,293,305,0
316,306,292,305,0
318,298,291,305,0
319,287,290,304,0
319,279,288,303,0
317,273,287,300,0
314,273,285,297,0
310,277,283,293,0
308,283,282,290,0
307,290,281,288,0
307,295,281,287,0
308,298,281,288,0
309,298,282,289,0
310,298,284,291,0
314,300,285,294,0
318,303,287,299,0
321,305,288,303,0
323,306,287,305,0
320,307,287,304,0
310,307,287,303,0
300,304,287,301,0
295,300,289,300,0
295,297,290,300,0
298,298,292,300,0
302,301,293,299,0
305,305,295,298,0
307,307,296,297,0
307,307,297,298,0
307,306,298,300,0
307,302,299,304,0
306,296,299,308,0
306,289,300,313,0
306,283,301,316,0
306,280,301,320,0
306,279,300,322,0
305,283,301,323,0
304,294,300,324,0
304,309,300,325,0
305,321,300,325,0
307,329,301,324,0
308,333,302,320,0
309,334,302,314,0
308,333,302,308,0
307,329,303,302,0
308,324,304,298,0
311,319,304,293,0
313,317,303,289,0
313,317,300,286,0
310,316,299,284,0
305,314,298,282,0
301,313,298,283,0
299,312,300,287,0
300,308,303,293,0
303,299,306,300,0
307,288,309,307,0
311,280,310,313,0
313,277,311,316,0
313,278,311,317,0
312,280,311,316,0
311,286,310,315,0
311,297,312,316,0
312,310,313,317,0
314,321,314,317,0
314,328,313,317,0
314,329,312,316,0
312,327,311,315,0
310,323,309,315,0
310,319,308,315,0
312,317,307,316,0
312,317,307,319,0
316,318,307,322,0
318,318,308,327,0
319,317,309,331,0
316,315,309,332,0
310,313,310,331,0
306,313,311,327,0
304,314,311,321,0
304,312,312,318,0
307,307,312,314,0
310,298,312,312,0
312,287,311,311,0
306,276,309,311,0
296,269,308,312,0
288,269,308,313,0
284,278,309,315,0
286,292,309,318,0
290,305,309,318,0
296,314,308,317,0
301,319,307,315,0
305,319,307,314,0
309,320,308,312,0
312,321,309,312,0
313,320,311,311,0
315,320,313,310,0
316,321,315,309,0
316,324,317,309,0
316,325,317,305,0
315,323,316,301,0
313,317,315,296,0
311,309,314,293,0
310,299,314,291,0
310,289,313,290,0
309,283,313,291,0
307,283,312,293,0
303,286,310,296,0
299,293,306,299,0
296,301,304,303,0
296,303,303,306,0
298,297,302,308,0
300,287,301,309,0
301,282,300,309,0
301,286,300,311,0
299,297,301,313,0
298,312,302,315,0
297,326,304,317,0
296,336,305,319,0
296,341,306,321,0
295,343,307,324,0
295,341,308,328,0
295,336,309,330,0
295,332,309,328,0
296,330,309,325,0
298,329,309,321,0
300,328,309,317,0
302,327,309,312,0
302,325,309,307,0
301,321,309,302,0
300,316,309,301,0
299,308,309,301,0
298,297,309,303,0
296,282,309,306,0
296,267,309,309,0
297,260,311,312,0
300,262,313,315,0
304,269,315,316,0
308,280,317,315,0
310,292,319,314,0
310,302,319,312,0
308,307,318,308,0
305,301,317,305,0
302,293,316,302,0
300,298,315,303,0
300,314,315,305,0
303,327,315,307,0
305,333,314,309,0
307,335,312,310,0
307,333,310,310,0
306,330,308,310,0
305,327,307,310,0
304,325,307,311,0
304,324,307,312,0
304,322,308,312,0
304,318,307,311,0
305,310,308,310,0
305,301,308,311,0
305,290,309,311,0
306,277,310,312,0
305,265,311,310,0
303,259,312,308,0
303,262,312,306,0
303,270,313,304,0
304,280,312,301,0
303,288,312,299,0
301,294,311,298,0
297,300,310,298,0
293,308,310,299,0
292,319,311,301,0
296,332,311,305,0
301,342,311,308,0
305,344,311,311,0
307,341,311,314,0
309,336,310,316,0
310,330,310,318,0
310,323,310,320,0
309,315,310,324,0
309,309,310,328,0
308,308,311,333,0
305,309,311,339,0
302,308,310,342,0
298,304,309,343,0
294,296,308,340,0
290,287,306,332,0
289,278,304,319,0
287,272,303,305,0
286,278,303,293,0
287,295,304,287,0
290,309,306,286,0
294,322,310,289,0
301,331,313,293,0
308,337,314,298,0
312,339,313,302,0
313,337,313,307,0
312,334,312,310,0
311,329,311,313,0
310,324,311,316,0
308,320,311,318,0
306,317,311,319,0
305,315,310,319,0
304,314,310,319,0
303,313,310,320,0
305,310,311,323,0
307,307,310,324,0
310,302,307,323,0
311,296,304,319,0
312,287,302,313,0
313,279,301,306,0
314,271,300,297,0
313,263,300,288,0
311,258,299,281,0
310,258,300,277,0
312,265,301,277,0
313,274,302,280,0
309,283,304,285,0
305,287,306,291,0
300,290,307,298,0
295,294,307,303,0
290,300,307,309,0
286,308,307,314,0
287,319,308,318,0
289,332,308,318,0
292,340,306,313,0
297,345,305,308,0
301,348,304,304,0
305,350,303,302,0
308,346,303,301,0
309,338,303,302,0
309,327,303,303,0
308,315,304,304,0
308,308,304,305,0
308,307,306,305,0
308,307,308,305,0
307,306,308,305,0
307,306,309,305,0
307,305,310,305,0
308,304,311,306,0
309,304,312,307,0
310,304,311,307,0
309,304,310,307,0
306,304,308,307,0
303,305,306,305,0
301,309,304,302,0
301,315,302,298,0
300,323,300,295,0
299,326,299,292,0
299,325,298,289,0
298,321,298,288,0
299,316,297,289,0
300,311,297,292,0
302,303,298,295,0
304,293,298,299,0
305,288,299,301,0
307,289,300,304,0
309,296,301,305,0
311,301,303,307,0
313,304,305,311,0
313,306,307,314,0
312,306,308,317,0
309,302,309,318,0
305,295,310,317,0
300,288,310,314,0
295,283,310,310,0
291,277,310,308,0
291,276,311,308,0
294,285,312,313,0
299,299,313,319,0
303,312,313,325,0
306,320,313,329,0
308,321,312,333,0
309,322,311,337,0
312,320,310,339,0
313,313,310,338,0
313,303,308,334,0
312,296,307,329,0
311,294,306,324,0
311,297,306,320,0
310,301,306,316,0
309,303,306,312,0
307,304,305,307,0
304,303,304,302,0
302,302,302,297,0
299,302,301,291,0
298,303,300,288,0
298,308,299,286,0
299,314,299,287,0
301,317,299,289,0
303,313,299,291,0
305,305,298,293,0
306,298,298,293,0
305,292,298,294,0
303,289,299,297,0
301,289,301,299,0
302,291,302,301,0
303,295,302,302,0
303,302,302,301,0
301,312,303,301,0
300,322,305,300,0
301,329,307,299,0
303,331,308,298,0
304,328,308,298,0
303,322,306,299,0
303,316,305,301,0
303,310,305,303,0
303,306,304,306,0
304,306,304,308,0
304,311,304,310,0
304,316,304,310,0
303,319,303,310,0
303,318,302,309,0
301,313,302,307,0
300,306,301,304,0
300,302,301,301,0
301,299,302,300,0
303,296,303,299,0
306,293,304,300,0
309,292,305,301,0
312,292,305,303,0
314,294,305,305,0
313,300,305,307,0
312,309,305,307,0
310,317,305,307,0
309,322,305,307,0
307,323,305,307,0
305,320,305,306,0
304,315,304,306,0
303,310,304,305,0
303,304,304,303,0
302,297,304,302,0
301,289,303,300,0
298,281,303,300,0
296,276,303,301,0
294,273,303,304,0
295,272,305,310,0
298,277,306,317,0
303,286,307,325,0
308,297,308,331,0
312,307,308,334,0
315,315,308,336,0
317,322,308,336,0
319,328,308,336,0
320,332,306,333,0
319,334,305,329,0
317,335,304,323,0
314,338,302,315,0
310,340,301,307,0
307,340,300,299,0
305,336,299,293,0
305,331,298,287,0
304,327,298,283,0
304,323,297,280,0
304,316,297,279,0
302,309,296,279,0
301,304,297,282,0
302,300,299,287,0
304,297,302,293,0
307,295,302,298,0
307,294,303,302,0
306,292,302,304,0
305,290,301,305,0
306,291,301,305,0
308,294,300,306,0
312,299,299,306,0
316,305,298,308,0
316,312,298,311,0
312,317,299,315,0
306,316,299,319,0
301,309,300,321,0
297,301,300,319,0
295,293,299,313,0
294,287,297,306,0
295,288,296,298,0
296,294,296,292,0
297,301,296,287,0
297,304,296,284,0
296,302,297,283,0
296,297,298,284,0
296,290,300,289,0
296,285,302,294,0
296,283,304,300,0
296,288,305,305,0
296,296,306,311,0
296,304,306,316,0
297,313,307,318,0
300,322,307,319,0
304,329,307,317,0
308,332,306,313,0
311,332,306,309,0
311,330,306,307,0
309,327,306,305,0
306,323,307,303,0
304,316,308,302,0
303,307,309,303,0
303,297,309,304,0
304,290,308,305,0
305,286,305,305,0
307,285,303,303,0
307,287,301,302,0
306,291,300,301,0
303,298,301,302,0
300,306,301,303,0
298,311,301,305,0
297,313,301,308,0
297,312,301,310,0
298,309,300,311,0
300,309,301,311,0
302,313,301,311,0
304,319,302,313,0
306,323,303,315,0
307,323,303,319,0
308,320,303,321,0
309,316,303,321,0
309,311,304,319,0
308,306,304,315,0
306,301,304,311,0
304,296,304,307,0
302,292,304,304,0
300,289,304,302,0
299,290,304,300,0
300,293,304,299,0
299,296,304,298,0
299,294,303,297,0
298,292,302,295,0
298,291,300,295,0
298,291,299,297,0
300,293,299,300,0
300,295,298,304,0
300,302,298,308,0
300,314,298,313,0
301,324,299,316,0
302,331,300,318,0
304,333,301,318,0
304,332,302,317,0
305,328,303,317,0
307,323,304,316,0
308,318,305,316,0
308,311,306,315,0
307,305,306,316,0
306,298,307,318,0
305,295,307,320,0
304,294,306,321,0
302,294,306,320,0
300,297,306,317,0
298,304,305,312,0
298,311,304,307,0
297,313,303,303,0
297,311,302,299,0
296,307,301,297,0
294,307,299,296,0
291,311,298,294,0
291,314,298,292,0
294,316,298,293,0
299,318,299,295,0
305,322,300,298,0
310,327,302,301,0
311,328,303,304,0
309,326,305,308,0
306,324,307,313,0
304,324,308,318,0
303,324,309,323,0
305,324,308,327,0
308,323,307,328,0
309,321,306,327,0
307,321,304,324,0
304,321,302,320,0
301,320,301,314,0
300,318,300,309,0
299,313,299,303,0
298,306,298,298,0
296,297,299,295,0
295,288,300,292,0
295,278,301,290,0
297,267,302,290,0
300,260,302,290,0
302,258,303,291,0
303,261,303,295,0
303,268,303,302,0
303,276,304,308,0
302,284,305,312,0
301,292,304,312,0
300,300,304,312,0
298,304,303,310,0
295,307,302,307,0
294,311,302,303,0
293,314,302,301,0
293,318,302,299,0
295,320,302,297,0
296,321,303,295,0
296,323,302,292,0
297,325,302,290,0
297,325,301,289,0
297,322,300,291,0
299,320,300,294,0
301,319,301,299,0
303,317,302,307,0
306,316,303,316,0
309,315,305,325,0
311,313,306,332,0
311,312,306,336,0
310,312,306,337,0
309,312,305,337,0
308,311,304,335,0
307,310,304,332,0
306,310,303,328,0
305,310,303,321,0
305,308,302,311,0
305,304,302,302,0
305,299,301,293,0
304,296,301,288,0
304,296,300,284,0
304,296,299,284,0
305,297,299,285,0
305,297,301,288,0
305,297,302,291,0
304,293,304,296,0
304,287,306,300,0
303,282,308,304,0
302,284,310,307,0
300,292,310,308,0
300,302,309,307,0
300,311,307,306,0
302,320,305,305,0
304,326,304,306,0
305,327,303,306,0
305,325,303,306,0
304,321,303,307,0
303,315,302,309,0
302,309,302,311,0
301,303,301,314,0
302,299,301,316,0
303,297,302,318,0
304,296,302,318,0
305,296,302,317,0
306,297,303,314,0
307,295,304,312,0
307,292,304,308,0
307,289,306,305,0
306,287,306,303,0
305,284,307,300,0
304,280,307,297,0
301,275,306,295,0
299,274,306,295,0
298,278,306,297,0
297,282,306,299,0
296,285,307,300,0
296,290,308,302,0
297,298,309,304,0
299,305,309,304,0
300,310,309,304,0
300,313,308,303,0
301,316,307,304,0
303,315,307,305,0
304,310,307,307,0
305,304,308,308,0
306,303,309,309,0
307,308,310,310,0
310,314,311,310,0
313,319,312,309,0
315,324,311,307,0
314,330,311,304,0
312,335,311,301,0
307,338,312,298,0
303,337,312,295,0
300,332,312,293,0
299,325,312,293,0
300,316,312,295,0
301,310,312,300,0
303,305,312,305,0
304,302,312,309,0
307,301,312,314,0
312,304,312,321,0
314,309,311,327,0
311,312,311,332,0
308,312,310,335,0
305,311,310,334,0
303,309,310,331,0
301,308,310,325,0
300,305,311,318,0
298,299,311,310,0
296,291,311,304,0
295,287,311,297,0
294,287,309,292,0
294,288,308,289,0
295,291,307,290,0
297,297,307,292,0
300,305,308,297,0
303,312,308,302,0
305,317,308,307,0
306,323,309,311,0
307,329,308,314,0
307,333,308,317,0
307,334,308,317,0
308,329,308,317,0
307,321,309,317,0
306,309,310,316,0
305,292,310,314,0
303,272,310,312,0
300,259,310,310,0
300,259,310,309,0
300,271,311,308,0
301,286,311,306,0
303,301,311,304,0
303,310,311,301,0
303,311,309,296,0
302,311,307,292,0
302,312,305,289,0
301,316,304,287,0
302,319,304,287,0
303,319,303,287,0
303,316,303,288,0
304,313,303,289,0
304,312,303,291,0
305,313,303,294,0
306,316,303,298,0
307,322,304,303,0
308,331,306,308,0
310,339,308,313,0
310,341,309,317,0
309,331,310,319,0
305,312,309,318,0
298,294,308,316,0
294,281,307,313,0
293,280,308,311,0
299,289,310,310,0
308,300,310,309,0
319,309,310,307,0
324,310,310,306,0
326,304,310,305,0
327,297,310,305,0
329,292,311,306,0
327,290,312,308,0
321,289,313,309,0
313,291,314,310,0
308,297,314,310,0
305,304,313,310,0
303,308,312,309,0
302,309,310,309,0
302,309,308,310,0
302,307,307,311,0
301,302,308,311,0
301,295,307,310,0
298,289,306,307,0
295,289,306,306,0
294,296,306,306,0
296,305,307,309,0
299,316,308,312,0
304,328,309,315,0
307,338,310,317,0
308,343,309,318,0
308,340,308,316,0
307,330,307,314,0
306,316,307,311,0
306,303,308,310,0
308,294,309,308,0
311,287,309,308,0
312,283,309,307,0
312,285,309,307,0
311,292,309,307,0
310,299,309,307,0
308,305,307,306,0
305,311,305,304,0
303,318,304,303,0
303,322,304,302,0
304,316,303,304,0
306,306,303,305,0
308,296,303,307,0
310,289,304,312,0
311,287,305,318,0
313,291,306,324,0
315,299,307,330,0
317,306,307,332,0
317,306,306,331,0
316,303,304,326,0
314,300,304,320,0
312,297,303,313,0
310,295,304,305,0
309,296,306,299,0
309,298,308,296,0
310,300,310,295,0
311,303,312,297,0
312,310,314,301,0
312,316,314,303,0
311,320,313,305,0
310,321,312,304,0
309,320,312,303,0
307,318,311,300,0
305,312,310,298,0
302,307,309,297,0
299,304,308,296,0
298,305,307,295,0
301,307,306,295,0
304,307,306,297,0
306,304,305,299,0
309,299,305,303,0
313,292,305,307,0
318,285,305,310,0
325,283,305,313,0
334,286,305,314,0
336,293,305,314,0
326,304,303,312,0
307,317,302,309,0
291,327,301,307,0
281,335,302,307,0
281,338,304,308,0
287,334,306,310,0
294,323,308,310,0
299,306,309,308,0
302,288,309,305,0
303,272,309,303,0
304,266,308,302,0
305,267,308,302,0
307,272,308,305,0
311,280,309,309,0
315,290,310,312,0
318,299,311,317,0
319,307,312,321,0
320,314,312,325,0
320,320,313,328,0
319,325,313,328,0
318,331,313,327,0
318,338,313,325,0
318,344,312,323,0
317,348,311,321,0
317,347,311,319,0
317,343,310,317,0
316,335,309,312,0
315,321,307,305,0
313,305,306,297,0
310,291,305,289,0
307,286,304,283,0
304,288,303,279,0
302,296,303,279,0
302,304,302,281,0
302,307,302,286,0
304,306,304,294,0
305,302,305,303,0
306,294,307,311,0
307,282,309,315,0
306,271,310,317,0
305,266,309,315,0
305,267,308,312,0
306,275,306,309,0
307,288,305,307,0
307,302,305,305,0
308,312,305,304,0
308,317,306,304,0
309,320,306,303,0
309,323,306,301,0
309,325,304,299,0
307,324,303,301,0
305,320,301,306,0
303,315,300,312,0
304,312,298,316,0
305,308,297,318,0
309,306,298,317,0
310,309,300,316,0
308,315,303,316,0
305,324,306,318,0
303,332,309,320,0
302,337,310,322,0
303,336,311,324,0
307,332,310,326,0
311,325,310,327,0
316,320,309,326,0
321,315,308,324,0
324,310,307,320,0
329,307,306,316,0
328,309,307,313,0
321,315,308,310,0
311,324,308,308,0
303,334,308,306,0
299,342,308,306,0
299,344,308,305,0
300,339,308,305,0
302,330,308,304,0
303,320,309,303,0
304,308,310,303,0
304,297,310,302,0
304,290,311,300,0
303,287,311,297,0
303,290,311,296,0
303,298,311,295,0
302,306,312,295,0
302,313,313,296,0
302,320,314,298,0
303,326,315,301,0
302,330,316,304,0
302,332,315,306,0
302,331,315,308,0
304,326,314,312,0
308,315,313,318,0
312,302,312,325,0
314,290,312,330,0
315,282,311,333,0
313,279,309,333,0
310,279,308,331,0
308,281,307,329,0
306,283,306,324,0
304,282,305,318,0
303,278,304,310,0
303,273,304,302,0
303,266,304,293,0
301,262,304,286,0
299,262,303,279,0
296,271,303,273,0
295,287,302,271,0
297,305,303,272,0
302,318,305,276,0
305,325,305,281,0
307,328,306,286,0
309,330,307,292,0
311,333,307,299,0
312,332,306,304,0
313,328,306,308,0
312,320,306,311,0
310,310,306,312,0
308,303,307,312,0
306,298,308,311,0
304,297,308,308,0
302,303,308,306,0
300,314,308,303,0
300,326,308,300,0
301,335,309,299,0
302,339,309,301,0
303,337,309,303,0
303,328,309,304,0
303,319,308,304,0
303,316,307,303,0
303,320,305,302,0
303,325,303,299,0
302,328,300,296,0
302,334,299,293,0
304,344,298,292,0
306,351,298,292,0
309,348,298,294,0
311,339,299,297,0
313,325,301,301,0
314,311,303,305,0
315,300,304,307,0
313,292,304,311,0
309,287,303,316,0
303,282,302,323,0
300,279,302,330,0
299,280,303,333,0
300,285,304,334,0
303,291,305,332,0
305,297,305,329,0
307,302,306,324,0
308,303,306,318,0
308,299,306,313,0
309,291,306,308,0
310,282,306,305,0
311,275,306,303,0
311,272,306,300,0
309,278,306,298,0
306,291,307,296,0
306,302,307,296,0
306,306,306,298,0
305,305,306,303,0
304,301,306,309,0
303,295,305,315,0
303,291,304,320,0
303,288,303,322,0
302,287,304,321,0
303,291,304,319,0
305,300,305,315,0
306,311,305,309,0
306,321,304,304,0
304,332,303,297,0
302,339,301,291,0
299,345,300,286,0
299,348,299,285,0
300,348,299,287,0
302,345,300,291,0
302,341,301,296,0
301,337,303,300,0
300,331,304,302,0
300,322,306,302,0
301,310,307,300,0
301,294,308,296,0
302,277,308,294,0
303,264,307,293,0
305,259,308,295,0
309,267,309,299,0
313,282,310,303,0
316,299,310,307,0
318,315,310,308,0
319,328,310,309,0
319,336,311,309,0
318,337,311,307,0
316,333,311,304,0
314,321,311,302,0
312,303,311,301,0
310,284,310,300,0
307,270,310,300,0
306,266,308,300,0
305,268,308,299,0
304,278,307,298,0
303,295,306,298,0
303,312,305,300,0
303,323,305,302,0
302,330,305,303,0
301,334,304,302,0
300,334,304,299,0
300,329,304,297,0
300,323,304,296,0
300,317,306,297,0
300,311,306,298,0
299,304,306,299,0
299,297,304,298,0
299,293,303,298,0
300,291,302,297,0
303,297,302,298,0
306,308,302,299,0
309,320,303,301,0
309,331,304,304,0
308,335,305,306,0
308,332,306,307,0
308,328,307,305,0
310,328,308,303,0
313,330,309,305,0
311,332,311,308,0
306,334,312,314,0
301,338,313,320,0
299,339,314,326,0
298,337,314,332,0
298,333,313,336,0
298,328,312,338,0
299,320,311,337,0
298,309,309,332,0
298,297,307,325,0
297,284,306,318,0
296,268,306,312,0
296,255,306,307,0
298,250,307,304,0
301,256,308,301,0
301,271,309,299,0
301,288,310,298,0
301,301,311,299,0
300,308,310,303,0
300,311,308,309,0
302,309,308,314,0
304,303,308,317,0
306,299,308,317,0
306,298,308,313,0
304,298,307,309,0
302,298,307,305,0
300,298,306,303,0
300,300,306,301,0
300,302,305,300,0
300,303,304,300,0
300,302,305,298,0
301,300,305,298,0
302,296,307,298,0
303,292,308,300,0
304,291,310,302,0
306,290,312,304,0
307,291,313,306,0
307,292,314,307,0
306,293,315,307,0
305,291,315,308,0
304,287,315,307,0
303,284,313,307,0
302,282,312,306,0
300,283,311,305,0
298,288,309,303,0
295,298,308,302,0
292,310,307,299,0
289,320,306,297,0
286,327,306,296,0
286,328,306,297,0
288,327,308,302,0
296,326,311,310,0
304,321,313,315,0
310,314,315,316,0
314,308,315,315,0
316,304,315,312,0
316,303,315,311,0
315,305,315,310,0
313,309,314,310,0
311,315,314,309,0
309,317,312,307,0
307,314,312,305,0
305,306,310,304,0
305,298,309,301,0
305,291,308,300,0
304,285,308,300,0
304,282,309,301,0
305,281,309,303,0
306,287,310,304,0
307,296,310,304,0
307,305,311,302,0
307,314,312,299,0
306,321,312,298,0
304,324,314,297,0
303,320,314,299,0
304,313,314,301,0
310,306,314,304,0
314,302,314,305,0
318,302,314,305,0
319,304,313,305,0
321,307,312,305,0
322,309,311,307,0
322,310,311,311,0
321,306,311,314,0
318,298,311,318,0
314,286,311,321,0
311,273,311,322,0
308,263,312,322,0
306,259,312,321,0
304,260,311,320,0
304,267,310,320,0
305,280,310,321,0
307,294,309,321,0
308,304,309,320,0
310,309,309,318,0
311,311,309,315,0
311,312,309,310,0
310,312,309,304,0
308,313,309,298,0
307,314,309,294,0
305,314,308,291,0
304,315,308,290,0
302,315,308,289,0
301,315,308,289,0
301,315,308,290,0
301,313,308,293,0
303,311,309,295,0
306,310,311,298,0
310,311,312,302,0
310,313,313,307,0
308,312,313,311,0
305,310,313,315,0
303,307,313,318,0
302,305,313,319,0
302,302,313,319,0
302,299,314,318,0
302,296,315,316,0
301,293,316,316,0
301,289,316,318,0
300,284,316,320,0
299,278,315,320,0
297,273,314,316,0
295,271,313,311,0
295,273,312,306,0
296,281,312,303,0
299,290,312,302,0
303,298,312,301,0
305,302,311,301,0
306,304,309,300,0
306,302,307,300,0
306,300,306,300,0
307,301,306,302,0
308,301,307,303,0
309,298,308,304,0
309,292,309,304,0
309,288,309,304,0
310,288,309,302,0
312,291,309,300,0
317,299,308,301,0
322,312,308,303,0
325,324,307,304,0
323,328,307,305,0
314,326,306,304,0
306,323,306,304,0
300,322,307,306,0
297,322,307,310,0
297,322,308,313,0
297,319,309,316,0
299,315,309,317,0
301,309,308,318,0
302,303,308,318,0
304,302,308,318,0
307,301,308,317,0
308,299,308,315,0
309,296,308,313,0
308,295,308,309,0
306,296,308,304,0
304,300,307,301,0
302,304,307,298,0
300,309,306,296,0
299,312,305,293,0
300,315,304,291,0
302,317,303,289,0
304,315,303,290,0
305,311,303,291,0
305,307,304,294,0
305,304,304,295,0
305,303,304,296,0
304,304,303,296,0
303,307,303,297,0
303,309,303,299,0
304,308,303,302,0
305,304,304,305,0
305,296,304,309,0
305,286,305,314,0
306,280,305,318,0
307,284,307,321,0
309,294,308,323,0
311,304,308,322,0
312,311,308,320,0
311,313,307,316,0
309,313,306,313,0
309,316,305,312,0
310,319,305,313,0
310,320,306,314,0
311,318,306,316,0
312,316,307,318,0
313,312,308,319,0
313,309,308,320,0
314,305,308,320,0
314,302,308,321,0
314,302,308,323,0
314,303,308,325,0
314,308,308,327,0
313,315,308,327,0
312,323,307,325,0
310,328,307,322,0
309,326,307,319,0
308,321,306,317,0
308,313,306,314,0
307,305,305,310,0
305,294,305,307,0
303,283,305,304,0
302,274,305,303,0
305,270,305,303,0
309,266,305,303,0
313,262,305,303,0
313,265,305,303,0
311,276,305,304,0
308,290,305,305,0
307,301,304,307,0
307,308,305,307,0
308,311,305,308,0
310,313,305,308,0
310,312,306,309,0
309,308,306,309,0
307,304,306,310,0
304,302,305,309,0
301,303,305,308,0
298,308,304,308,0
294,314,304,310,0
293,324,304,315,0
297,334,304,320,0
303,340,305,322,0
307,339,305,320,0
309,335,304,315,0
309,330,303,309,0
307,326,301,304,0
304,321,300,299,0
301,316,299,296,0
302,311,300,294,0
304,308,301,295,0
308,305,302,295,0
308,302,302,295,0
306,300,301,296,0
304,298,300,298,0
303,298,300,300,0
305,300,301,301,0
310,305,302,302,0
313,308,302,302,0
314,305,303,300,0
312,299,302,297,0
309,292,302,293,0
307,286,301,290,0
306,284,302,288,0
306,286,302,286,0
306,296,302,285,0
308,312,303,286,0
310,325,303,289,0
312,328,304,293,0
313,324,304,298,0
314,321,305,304,0
315,319,306,309,0
315,319,307,315,0
314,320,308,318,0
314,322,309,319,0
313,326,310,318,0
313,329,311,315,0
312,330,310,312,0
312,329,310,310,0
312,325,310,309,0
311,319,310,308,0
311,312,311,308,0
310,304,311,309,0
310,297,310,308,0
309,290,309,307,0
309,286,307,306,0
308,286,307,306,0
309,293,307,306,0
310,305,307,307,0
311,315,308,307,0
312,322,309,308,0
311,323,310,310,0
310,319,311,314,0
307,312,312,318,0
305,307,314,322,0
302,304,315,326,0
299,303,315,327,0
297,308,315,326,0
297,318,316,323,0
299,328,316,320,0
303,333,316,316,0
307,331,314,314,0
310,327,313,311,0
310,323,311,309,0
309,319,309,308,0
308,319,308,307,0
305,320,308,305,0
302,320,307,304,0
300,318,306,302,0
299,314,306,299,0
300,310,307,296,0
301,310,307,294,0
304,311,308,294,0
308,314,309,295,0
311,318,311,298,0
311,323,313,301,0
308,327,314,303,0
305,330,315,304,0
302,332,316,305,0
300,332,316,308,0
299,330,317,314,0
298,326,318,323,0
298,321,318,330,0
298,317,318,333,0
298,317,317,333,0
299,320,315,329,0
298,322,314,322,0
297,318,312,314,0
296,310,310,306,0
296,301,309,301,0
296,295,308,299,0
297,292,309,299,0
299,291,309,300,0
300,291,310,302,0
301,293,310,303,0
302,299,312,304,0
302,309,313,305,0
302,317,313,307,0
302,318,314,308,0
300,316,313,309,0
299,311,313,308,0
297,305,312,307,0
295,298,312,304,0
296,291,312,302,0
297,289,312,301,0
300,293,312,299,0
302,301,311,296,0
305,309,311,293,0
308,315,311,293,0
311,319,311,294,0
311,321,311,297,0
310,321,311,299,0
308,319,311,300,0
306,317,311,300,0
304,317,311,301,0
302,320,312,301,0
301,326,312,302,0
300,332,312,303,0
301,335,313,305,0
302,334,313,307,0
302,328,313,309,0
303,318,313,310,0
304,310,312,311,0
306,307,312,312,0
309,310,311,314,0
312,316,310,316,0
313,321,309,316,0
314,325,309,315,0
314,326,308,312,0
314,325,308,311,0
313,319,307,310,0
311,312,307,312,0
309,306,308,316,0
308,300,311,321,0
308,294,314,326,0
309,290,315,329,0
309,287,315,330,0
307,289,314,329,0
305,296,313,325,0
302,306,311,321,0
299,316,309,316,0
298,327,308,311,0
299,338,308,307,0
303,344,307,304,0
309,342,306,301,0
