297,300,296,286,1
289,300,297,289,1
282,301,298,296,1
276,303,300,303,1
276,306,301,310,1
278,308,303,315,1
287,311,304,318,1
297,313,307,318,1
307,314,308,316,1
316,315,308,313,1
325,316,307,309,1
329,316,305,305,1
326,316,303,302,1
319,315,301,303,1
312,315,300,305,1
307,314,300,307,1
306,313,301,310,1
308,312,303,314,1
313,312,305,317,1
317,312,307,321,1
321,312,308,323,1
324,312,310,323,1
327,311,311,322,1
329,311,312,319,1
328,311,313,316,1
324,312,313,312,1
318,312,312,306,1
311,312,312,302,1
305,312,312,302,1
301,312,312,305,1
300,313,312,308,1
299,315,312,311,1
301,316,312,311,1
302,318,312,309,1
304,318,310,304,1
306,317,308,299,1
306,315,306,296,1
304,313,304,295,1
300,310,302,296,1
297,308,302,297,1
300,306,303,299,1
303,306,304,299,1
303,307,304,298,1
301,307,305,296,1
300,308,305,294,1
299,310,304,293,1
299,311,302,293,1
298,312,300,292,1
298,312,298,291,1
300,312,296,291,1
301,313,295,292,1
304,313,295,294,1
308,312,294,297,1
310,312,292,301,1
312,311,289,304,1
312,310,286,306,1
314,308,283,307,1
315,307,282,307,1
315,305,284,306,1
314,303,288,306,1
313,302,291,307,1
312,302,295,308,1
314,303,297,308,1
318,304,298,307,1
322,307,299,305,1
326,308,298,303,1
328,309,298,301,1
325,310,297,300,1
320,310,296,300,1
316,311,296,300,1
313,312,294,299,1
311,313,294,300,1
310,314,294,302,1
309,314,294,304,1
308,315,294,306,1
306,314,293,309,1
304,313,293,315,1
303,312,293,320,1
302,310,293,323,1
301,308,294,323,1
300,307,294,320,1
298,306,295,316,1
297,305,295,310,1
294,304,295,304,1
291,304,295,301,1
290,305,295,301,1
293,306,294,301,1
302,307,292,302,1
311,308,290,301,1
319,309,288,300,1
322,310,286,298,1
320,310,286,296,1
318,310,287,294,1
319,310,289,293,1
322,310,292,292,1
328,309,294,293,1
333,308,296,292,1
337,306,296,292,1
337,304,295,292,1
332,302,293,293,1
325,300,292,294,1
319,301,293,296,1
316,302,295,297,1
314,305,297,297,1
312,307,300,298,1
311,309,302,299,1
309,311,304,300,1
309,312,305,301,1
309,312,305,302,1
306,312,305,304,1
304,312,304,305,1
301,311,303,305,1
299,311,302,303,1
298,311,300,299,1
297,311,299,294,1
297,310,298,290,1
297,308,298,289,1
296,306,298,288,1
293,303,298,289,1
289,301,298,290,1
285,300,298,291,1
285,300,298,293,1
288,300,298,295,1
293,300,300,297,1
297,301,301,300,1
299,302,300,301,1
297,303,298,301,1
294,306,296,303,1
290,309,296,309,1
288,311,299,315,1
291,313,301,322,1
300,314,304,329,1
308,313,305,334,1
314,313,307,339,1
317,314,309,341,1
319,314,311,340,1
321,315,311,336,1
321,315,311,329,1
320,315,311,322,1
317,314,311,316,1
315,314,310,313,1
313,314,310,313,1
310,314,310,313,1
307,313,309,312,1
304,313,308,309,1
301,313,306,307,1
300,313,304,304,1
301,313,301,302,1
302,314,299,300,1
304,314,297,299,1
307,314,297,299,1
310,314,296,299,1
312,313,295,299,1
316,311,293,298,1
321,309,291,297,1
323,307,290,296,1
322,305,289,295,1
316,303,290,295,1
310,302,292,297,1
306,302,297,300,1
304,302,302,301,1
303,302,306,301,1
302,303,310,301,1
302,303,312,302,1
302,304,313,304,1
302,305,314,304,1
301,306,313,304,1
300,307,312,301,1
299,307,311,299,1
301,308,310,296,1
303,308,310,295,1
306,308,310,295,1
307,308,310,297,1
307,308,309,300,1
304,308,307,304,1
301,308,306,309,1
297,307,304,313,1
291,307,304,317,1
285,305,304,322,1
280,304,305,326,1
276,304,306,330,1
275,303,306,335,1
278,305,307,340,1
282,307,309,344,1
285,310,312,345,1
288,313,314,341,1
292,315,314,336,1
297,317,314,328,1
303,319,312,320,1
308,319,310,314,1
306,318,308,309,1
297,316,306,306,1
286,313,304,305,1
277,310,303,305,1
274,306,301,305,1
278,303,299,304,1
286,300,298,300,1
299,298,297,295,1
313,298,297,291,1
324,298,298,286,1
331,299,299,283,1
333,300,300,282,1
333,301,300,282,1
331,302,300,284,1
327,304,298,286,1
322,305,299,287,1
318,306,300,288,1
316,307,303,291,1
316,307,305,294,1
318,307,307,298,1
323,307,308,300,1
327,307,308,302,1
329,306,308,304,1
331,306,307,306,1
329,304,306,308,1
322,302,305,309,1
312,301,305,310,1
304,300,304,310,1
299,299,305,311,1
297,299,305,311,1
297,299,306,312,1
297,300,307,312,1
299,301,308,311,1
302,302,308,310,1
305,304,308,308,1
308,305,308,307,1
309,306,307,305,1
308,307,304,302,1
306,306,301,300,1
305,305,297,299,1
305,304,294,301,1
307,304,292,305,1
308,304,292,311,1
307,305,293,318,1
305,306,296,325,1
301,306,301,330,1
298,306,306,332,1
299,306,310,332,1
301,304,313,328,1
302,302,314,323,1
301,300,315,318,1
300,298,315,313,1
298,297,315,310,1
295,297,315,306,1
290,298,315,302,1
285,300,315,299,1
280,301,314,296,1
278,302,312,294,1
278,302,311,293,1
281,303,310,293,1
288,303,309,292,1
296,303,310,291,1
300,303,311,289,1
301,303,312,290,1
299,303,313,292,1
295,302,313,294,1
290,301,312,297,1
289,298,311,300,1
294,296,310,303,1
303,295,309,307,1
313,293,310,312,1
317,293,312,316,1
317,294,314,320,1
316,296,317,323,1
315,298,319,327,1
315,301,320,331,1
312,303,320,334,1
311,305,319,335,1
313,305,319,333,1
314,306,319,329,1
313,307,320,323,1
312,307,320,316,1
312,306,320,311,1
313,305,320,307,1
316,304,320,304,1
319,302,320,302,1
322,299,319,302,1
324,297,319,301,1
324,296,318,300,1
321,295,318,300,1
316,295,318,301,1
313,296,319,302,1
311,297,319,303,1
309,299,320,304,1
309,299,320,304,1
310,300,321,305,1
311,301,322,306,1
313,302,324,306,1
314,303,324,307,1
315,304,325,308,1
317,306,325,309,1
319,307,324,308,1
319,307,323,305,1
316,306,322,303,1
311,305,320,301,1
305,304,317,300,1
301,303,312,300,1
299,302,307,303,1
297,300,305,306,1
297,299,307,310,1
297,299,312,314,1
298,299,316,317,1
299,301,319,319,1
300,303,321,319,1
300,305,322,316,1
299,305,321,313,1
299,305,321,308,1
301,305,320,305,1
303,305,320,301,1
305,305,319,300,1
306,306,317,299,1
305,306,314,297,1
305,305,309,296,1
308,304,306,295,1
313,304,303,294,1
318,303,301,293,1
319,303,301,292,1
318,302,303,294,1
317,302,307,296,1
316,300,311,299,1
315,300,315,303,1
313,299,317,308,1
308,299,318,312,1
301,299,318,316,1
294,299,317,320,1
291,300,315,322,1
288,302,313,324,1
288,303,310,321,1
296,304,307,316,1
310,305,307,312,1
322,306,307,310,1
327,307,308,306,1
326,308,308,302,1
320,308,308,298,1
315,308,307,296,1
313,307,306,296,1
313,306,305,297,1
312,305,303,300,1
313,302,301,303,1
314,301,301,306,1
316,300,301,308,1
316,300,303,310,1
316,301,304,311,1
314,302,305,310,1
312,304,305,308,1
309,305,305,307,1
309,307,304,307,1
312,308,303,308,1
316,309,302,310,1
321,309,302,313,1
324,309,302,315,1
326,309,301,314,1
325,308,299,310,1
320,307,298,305,1
314,306,297,301,1
309,306,298,299,1
307,306,298,298,1
305,305,299,299,1
306,304,299,302,1
307,303,299,306,1
309,303,299,311,1
310,303,299,314,1
311,304,299,315,1
311,305,299,315,1
309,306,300,314,1
306,308,301,311,1
303,309,301,307,1
299,310,301,303,1
296,310,299,299,1
293,311,296,296,1
293,311,294,294,1
293,311,293,294,1
294,311,293,296,1
296,312,294,303,1
299,312,297,311,1
303,311,300,319,1
303,308,301,326,1
303,306,302,330,1
301,303,303,332,1
301,301,303,332,1
302,301,304,330,1
303,302,304,328,1
305,303,305,323,1
305,304,305,319,1
306,305,305,313,1
308,305,305,307,1
311,306,305,301,1
316,306,305,296,1
320,305,304,293,1
323,305,303,291,1
322,305,302,291,1
319,305,301,293,1
316,304,301,297,1
315,304,302,302,1
314,303,303,307,1
316,303,304,309,1
314,302,304,309,1
309,301,303,307,1
299,300,303,303,1
289,299,303,301,1
282,299,303,300,1
279,299,303,302,1
281,300,303,304,1
288,301,301,307,1
294,303,301,310,1
297,305,300,310,1
295,307,300,308,1
295,308,302,305,1
298,309,305,302,1
301,309,309,300,1
303,308,313,299,1
305,308,315,298,1
310,307,317,298,1
315,307,317,297,1
319,306,317,298,1
318,306,316,299,1
315,305,313,300,1
313,304,311,303,1
312,303,309,306,1
312,303,310,310,1
309,303,311,313,1
303,302,313,313,1
293,301,312,313,1
283,299,311,313,1
276,299,311,313,1
276,298,311,312,1
282,299,312,310,1
290,300,313,308,1
298,302,315,306,1
303,304,316,305,1
306,305,316,304,1
308,306,315,303,1
309,307,314,303,1
309,307,313,302,1
308,307,313,302,1
308,306,312,302,1
308,304,311,302,1
309,303,310,303,1
312,302,311,306,1
316,302,312,311,1
320,303,312,316,1
322,302,312,322,1
324,302,312,329,1
324,303,313,335,1
323,305,316,341,1
320,307,318,345,1
314,310,319,348,1
308,312,320,350,1
301,313,320,349,1
295,314,319,345,1
290,314,319,339,1
287,314,317,332,1
284,314,316,324,1
284,313,315,317,1
284,312,314,309,1
283,310,313,301,1
282,307,312,294,1
282,305,310,288,1
284,303,309,286,1
289,301,308,286,1
295,299,309,288,1
301,299,310,293,1
305,299,311,296,1
307,300,311,296,1
307,301,311,292,1
308,302,311,285,1
309,302,311,279,1
309,302,309,274,1
307,301,307,271,1
305,301,307,271,1
304,301,308,272,1
304,301,309,275,1
304,302,309,278,1
306,302,309,281,1
308,302,308,284,1
311,302,307,286,1
313,301,306,289,1
312,300,306,291,1
309,298,307,294,1
303,297,309,301,1
295,296,310,310,1
291,296,310,317,1
289,296,309,322,1
289,297,307,323,1
292,299,305,321,1
297,302,304,317,1
302,304,304,311,1
304,306,303,306,1
304,307,305,302,1
303,309,307,298,1
301,309,310,295,1
300,309,313,292,1
302,310,314,290,1
306,310,315,290,1
310,310,317,291,1
310,309,317,292,1
305,308,317,294,1
301,306,315,296,1
300,303,313,298,1
304,302,311,301,1
307,301,311,305,1
311,302,313,310,1
313,304,315,313,1
314,306,317,313,1
316,307,319,312,1
318,308,320,310,1
318,309,320,307,1
319,309,320,305,1
319,308,320,303,1
320,308,319,303,1
319,307,318,304,1
317,307,317,305,1
313,307,317,305,1
308,307,315,305,1
305,307,314,305,1
304,306,314,306,1
305,304,315,307,1
306,302,316,308,1
307,300,317,310,1
308,299,317,312,1
310,298,317,314,1
312,298,317,316,1
313,299,318,318,1
313,299,320,320,1
311,300,322,324,1
309,301,324,325,1
306,302,325,326,1
304,303,325,326,1
302,305,325,326,1
300,307,326,326,1
297,309,325,324,1
291,309,326,322,1
282,310,325,320,1
273,310,325,319,1
266,309,323,319,1
264,309,322,319,1
269,307,321,319,1
281,307,322,320,1
295,306,323,318,1
309,306,324,315,1
321,305,323,314,1
328,304,323,313,1
330,305,322,314,1
328,306,322,313,1
325,306,321,311,1
322,307,321,307,1
320,307,322,302,1
319,307,323,297,1
316,307,324,293,1
310,306,323,291,1
305,305,322,289,1
302,303,321,289,1
299,301,320,290,1
295,301,319,292,1
292,301,319,294,1
291,301,318,296,1
292,300,316,298,1
297,299,314,302,1
304,299,313,306,1
310,299,312,311,1
313,301,312,313,1
315,303,313,314,1
314,305,314,314,1
313,307,315,314,1
311,309,319,313,1
310,310,324,312,1
309,312,328,309,1
307,312,330,308,1
305,311,332,307,1
303,311,331,307,1
300,311,330,307,1
297,311,328,307,1
295,311,326,307,1
294,311,324,306,1
294,310,321,305,1
297,309,319,302,1
302,307,317,299,1
312,304,314,297,1
321,302,313,296,1
328,300,313,296,1
330,299,312,297,1
326,298,312,298,1
316,296,311,299,1
303,296,310,300,1
293,296,311,300,1
287,297,311,301,1
286,299,313,302,1
290,302,314,302,1
295,304,315,303,1
302,305,314,304,1
310,307,313,306,1
317,309,311,309,1
321,311,310,311,1
321,311,309,312,1
320,311,308,313,1
317,310,308,314,1
314,309,308,318,1
311,307,307,321,1
310,305,306,323,1
313,303,306,322,1
318,301,306,320,1
324,300,307,316,1
327,298,308,312,1
326,298,309,310,1
322,299,310,310,1
316,300,310,311,1
309,302,311,312,1
304,305,310,315,1
301,308,310,317,1
298,310,310,317,1
295,312,310,315,1
293,313,310,311,1
293,312,309,305,1
297,311,307,299,1
301,309,306,293,1
305,307,305,290,1
308,306,304,289,1
309,305,303,289,1
309,303,303,291,1
310,303,305,295,1
310,303,307,300,1
310,303,307,306,1
308,304,307,310,1
306,304,307,313,1
307,305,308,314,1
311,305,309,313,1
316,306,310,312,1
317,306,311,313,1
316,306,312,312,1
313,305,312,312,1
311,305,311,311,1
310,305,310,309,1
312,305,310,307,1
314,306,310,306,1
316,308,309,305,1
314,308,309,305,1
308,307,308,304,1
302,305,306,302,1
297,303,304,300,1
295,300,303,298,1
295,299,303,298,1
298,298,304,299,1
302,299,307,302,1
305,300,309,306,1
305,302,311,308,1
305,305,309,309,1
307,307,306,310,1
312,310,302,311,1
314,311,298,313,1
314,312,296,316,1
314,312,298,320,1
313,312,303,325,1
310,312,310,329,1
305,312,315,334,1
300,312,318,336,1
297,313,320,334,1
297,311,320,328,1
299,309,319,319,1
303,306,318,310,1
309,303,316,301,1
313,301,315,294,1
315,299,314,289,1
314,298,314,286,1
311,298,314,286,1
308,299,314,287,1
307,301,314,290,1
305,302,314,294,1
299,302,313,297,1
293,302,311,299,1
289,301,310,302,1
290,300,310,307,1
294,299,312,312,1
299,298,314,315,1
300,298,315,316,1
300,298,315,316,1
298,298,314,315,1
297,297,312,312,1
298,297,311,310,1
302,297,311,308,1
304,297,312,308,1
306,298,313,310,1
308,300,315,311,1
310,301,316,313,1
311,302,316,315,1
312,304,316,317,1
310,306,315,317,1
306,306,314,314,1
300,305,314,309,1
294,304,313,305,1
289,302,312,300,1
286,300,310,293,1
287,298,308,286,1
296,296,306,281,1
308,294,304,279,1
316,293,303,279,1
320,292,301,279,1
321,293,300,280,1
319,293,300,281,1
319,293,301,285,1
318,292,302,289,1
317,291,303,295,1
316,292,304,299,1
315,294,305,302,1
315,297,308,303,1
316,300,311,304,1
316,302,314,306,1
315,303,316,311,1
314,304,317,319,1
313,305,317,330,1
312,306,314,340,1
311,306,309,345,1
312,305,303,344,1
315,305,297,338,1
316,303,292,329,1
316,302,290,319,1
315,301,290,309,1
313,299,294,301,1
309,298,299,296,1
308,298,304,294,1
308,298,308,295,1
308,298,311,298,1
309,298,313,302,1
310,299,315,306,1
310,301,317,311,1
308,304,319,316,1
306,307,321,321,1
304,309,322,323,1
300,310,321,322,1
296,309,321,321,1
295,309,321,322,1
297,309,321,324,1
302,308,320,324,1
305,306,318,323,1
307,304,316,321,1
307,302,313,318,1
304,301,310,314,1
297,299,308,309,1
289,298,308,303,1
283,297,308,297,1
283,296,309,293,1
286,295,310,290,1
289,295,310,289,1
294,295,311,291,1
304,297,311,294,1
314,298,312,297,1
321,300,312,300,1
323,302,313,302,1
323,304,314,305,1
321,306,314,310,1
319,308,314,314,1
318,309,314,316,1
316,308,313,313,1
315,305,313,307,1
316,304,313,301,1
317,302,313,298,1
317,301,313,294,1
316,299,312,289,1
314,297,311,284,1
312,295,311,281,1
311,292,310,282,1
309,291,310,288,1
307,290,309,296,1
305,291,310,305,1
302,293,312,314,1
302,298,315,321,1
303,303,318,325,1
304,308,320,326,1
304,312,320,323,1
303,315,317,319,1
300,317,313,311,1
297,316,310,304,1
295,315,310,299,1
294,313,311,297,1
294,313,312,298,1
297,313,314,301,1
302,313,316,304,1
307,313,318,307,1
310,312,320,309,1
310,310,321,310,1
309,308,323,312,1
308,305,324,315,1
305,303,326,319,1
302,300,326,324,1
301,299,325,326,1
302,298,322,324,1
302,299,319,318,1
302,301,315,311,1
301,303,313,304,1
298,305,312,298,1
290,305,313,292,1
284,304,315,288,1
283,302,318,287,1
290,300,321,288,1
302,299,325,291,1
316,300,328,294,1
327,301,330,297,1
332,301,331,297,1
329,301,331,297,1
322,301,329,295,1
316,300,329,296,1
314,301,329,297,1
314,301,329,300,1
312,303,330,303,1
309,304,331,306,1
306,307,332,311,1
302,311,333,316,1
298,314,335,323,1
296,317,338,327,1
294,317,339,328,1
294,316,339,325,1
292,314,339,319,1
288,311,338,313,1
287,309,337,306,1
287,307,335,300,1
285,304,334,295,1
284,302,332,291,1
287,300,331,289,1
292,299,330,290,1
298,298,329,292,1
303,298,330,295,1
306,299,332,299,1
307,300,334,302,1
308,302,335,304,1
307,304,335,304,1
308,306,334,302,1
311,307,332,301,1
318,308,330,299,1
325,310,329,298,1
328,311,329,298,1
328,311,330,297,1
326,312,332,295,1
323,311,332,294,1
320,310,333,293,1
320,308,332,292,1
321,306,330,292,1
321,304,329,292,1
320,302,327,293,1
316,300,325,295,1
312,298,323,297,1
309,297,321,299,1
306,296,320,302,1
307,296,320,305,1
310,296,322,309,1
312,298,323,313,1
312,301,325,316,1
312,304,326,319,1
312,307,327,321,1
311,309,326,321,1
312,309,325,319,1
316,309,324,314,1
319,309,323,310,1
321,309,322,307,1
321,309,320,304,1
318,308,317,301,1
314,308,315,301,1
308,305,312,302,1
302,303,309,304,1
297,300,306,307,1
293,297,303,312,1
290,295,302,317,1
290,295,303,324,1
293,296,305,328,1
300,298,309,330,1
308,301,313,329,1
313,305,317,324,1
315,307,320,320,1
312,308,321,316,1
306,308,321,314,1
300,307,320,314,1
295,306,319,314,1
294,305,319,315,1
297,304,317,316,1
301,303,314,317,1
304,303,311,318,1
304,304,309,314,1
305,304,309,308,1
306,303,309,301,1
311,303,310,296,1
315,303,313,292,1
317,304,314,288,1
317,303,315,284,1
319,303,314,282,1
321,302,313,281,1
322,303,312,281,1
322,304,311,282,1
321,304,310,282,1
319,305,310,284,1
316,306,309,286,1
312,307,309,288,1
308,307,310,291,1
306,307,312,292,1
308,307,314,293,1
312,307,315,295,1
317,307,316,298,1
321,306,316,302,1
322,306,316,306,1
320,305,316,311,1
318,305,315,318,1
322,307,316,327,1
326,308,317,334,1
329,309,318,340,1
328,311,320,344,1
323,312,321,345,1
315,313,321,342,1
302,314,321,336,1
288,314,320,327,1
277,313,319,317,1
270,312,318,310,1
268,311,318,306,1
271,311,319,302,1
277,310,319,299,1
283,310,318,296,1
289,311,318,294,1
293,312,318,295,1
295,312,319,297,1
296,311,319,300,1
297,310,320,304,1
301,308,321,309,1
310,306,321,312,1
317,303,320,313,1
322,301,318,312,1
322,299,316,311,1
320,299,314,311,1
318,300,313,309,1
317,302,312,305,1
316,303,312,301,1
314,304,311,296,1
312,304,309,291,1
308,304,306,288,1
305,304,305,286,1
303,305,304,285,1
303,308,305,286,1
305,311,306,288,1
307,313,308,290,1
310,313,312,291,1
310,310,317,291,1
308,307,320,292,1
305,304,321,293,1
302,302,322,293,1
303,302,321,294,1
307,302,322,294,1
312,302,324,295,1
313,302,325,297,1
310,303,325,298,1
305,303,326,299,1
301,304,327,299,1
298,304,328,298,1
296,303,329,297,1
296,303,329,296,1
294,302,327,296,1
293,301,325,296,1
292,301,324,297,1
293,302,323,299,1
294,304,323,301,1
295,306,324,302,1
294,307,324,302,1
290,307,322,301,1
285,307,319,300,1
284,307,316,299,1
288,307,314,300,1
296,308,314,304,1
306,310,316,311,1
313,310,319,318,1
315,309,322,323,1
309,307,324,326,1
299,305,325,327,1
289,302,325,326,1
284,301,325,325,1
284,300,325,324,1
287,301,324,324,1
295,302,325,325,1
305,305,326,327,1
313,306,327,328,1
319,308,327,328,1
322,309,327,326,1
322,309,327,320,1
322,310,326,312,1
322,309,325,303,1
322,306,324,296,1
322,302,324,293,1
322,297,323,293,1
320,293,323,294,1
316,291,324,296,1
311,291,325,298,1
308,292,326,300,1
307,293,327,302,1
308,295,328,304,1
309,296,328,305,1
310,297,327,306,1
310,297,326,307,1
309,299,325,309,1
305,299,324,313,1
300,300,323,316,1
296,302,324,320,1
293,304,326,321,1
289,306,327,319,1
286,307,326,315,1
287,308,326,311,1
293,308,325,307,1
300,307,325,304,1
307,305,324,302,1
311,300,322,300,1
313,295,320,298,1
311,290,318,297,1
303,287,315,296,1
296,286,314,295,1
291,287,313,296,1
290,288,315,296,1
295,288,319,298,1
304,290,324,300,1
314,293,329,304,1
322,298,332,308,1
327,302,335,312,1
328,305,337,314,1
326,305,337,314,1
323,304,337,314,1
321,303,335,315,1
321,303,335,318,1
321,304,335,322,1
320,304,335,326,1
318,305,335,329,1
316,305,336,330,1
313,305,337,330,1
312,305,338,331,1
310,306,339,334,1
308,306,339,337,1
305,306,339,340,1
305,304,338,339,1
305,302,336,336,1
304,298,334,332,1
300,295,332,327,1
296,292,329,320,1
295,289,327,312,1
296,287,325,304,1
298,286,323,296,1
301,286,323,290,1
302,287,324,287,1
303,289,326,286,1
303,292,327,286,1
304,294,328,287,1
306,296,328,288,1
309,298,328,290,1
312,301,329,293,1
315,304,329,297,1
316,307,330,300,1
315,310,330,302,1
313,311,330,302,1
311,309,329,302,1
308,307,329,302,1
304,305,329,301,1
301,303,330,300,1
298,303,330,299,1
294,303,330,298,1
291,303,330,297,1
289,303,329,297,1
290,301,328,296,1
297,301,329,297,1
307,300,331,300,1
315,299,333,304,1
322,297,335,307,1
325,296,337,309,1
328,294,338,310,1
329,293,339,310,1
329,293,339,310,1
326,294,340,310,1
325,296,339,310,1
326,299,338,309,1
326,300,337,309,1
324,301,336,309,1
321,302,334,311,1
318,303,333,312,1
315,303,332,313,1
311,303,330,315,1
306,304,327,320,1
302,305,323,325,1
298,306,318,331,1
292,306,314,333,1
289,305,311,333,1
290,304,311,330,1
298,303,314,327,1
308,301,319,324,1
317,300,324,323,1
323,299,329,321,1
327,299,332,317,1
329,299,334,313,1
332,299,334,309,1
337,300,334,306,1
340,300,332,305,1
339,301,330,307,1
335,301,327,309,1
329,302,324,311,1
322,303,322,313,1
316,303,321,317,1
309,305,320,321,1
302,306,318,324,1
296,307,316,324,1
292,305,314,320,1
291,303,312,314,1
294,300,310,310,1
299,297,309,308,1
306,293,309,306,1
310,290,310,304,1
309,288,311,302,1
304,286,310,300,1
299,286,310,299,1
298,288,311,299,1
301,291,311,301,1
305,296,312,304,1
310,300,313,307,1
315,304,313,311,1
320,308,314,314,1
325,312,314,317,1
330,315,314,319,1
333,316,313,319,1
333,315,312,316,1
330,313,311,313,1
325,311,310,311,1
320,308,309,311,1
315,305,307,310,1
311,301,306,307,1
309,297,305,303,1
309,295,305,301,1
312,293,305,302,1
316,292,305,304,1
319,292,305,305,1
321,294,307,306,1
323,296,308,306,1
321,298,309,302,1
314,300,308,296,1
306,301,308,290,1
299,302,307,284,1
294,302,306,281,1
292,303,306,281,1
291,304,306,282,1
294,305,306,285,1
298,305,307,289,1
304,305,308,292,1
308,304,310,295,1
312,302,311,298,1
314,300,312,301,1
316,298,313,303,1
317,298,313,307,1
318,299,310,312,1
318,299,306,316,1
316,300,302,319,1
313,300,300,319,1
312,301,301,315,1
312,300,304,309,1
311,298,308,302,1
308,297,310,295,1
308,296,311,289,1
308,295,312,286,1
303,293,313,284,1
296,293,313,286,1
292,294,315,290,1
292,296,317,296,1
297,298,319,301,1
303,300,321,306,1
309,301,323,311,1
310,301,323,314,1
308,300,323,316,1
307,301,324,318,1
307,303,326,319,1
307,305,327,320,1
304,307,327,319,1
299,308,325,316,1
294,308,323,313,1
294,308,321,311,1
297,308,320,313,1
301,309,319,313,1
305,309,319,313,1
308,309,319,311,1
310,309,319,309,1
311,309,319,307,1
311,309,319,306,1
312,308,318,305,1
312,306,318,304,1
310,303,317,302,1
306,300,317,303,1
299,299,317,304,1
294,298,319,306,1
291,298,321,308,1
290,299,322,309,1
294,301,323,310,1
304,303,324,311,1
313,306,326,313,1
319,308,327,316,1
319,309,327,321,1
318,309,327,326,1
315,309,327,331,1
312,311,326,335,1
309,312,325,336,1
305,313,325,337,1
304,313,325,336,1
305,311,325,334,1
308,309,324,331,1
308,308,325,327,1
305,306,325,325,1
301,305,327,324,1
301,306,328,326,1
305,309,329,329,1
310,312,331,333,1
314,315,331,338,1
319,317,332,344,1
324,318,332,351,1
330,316,331,358,1
331,313,329,360,1
323,309,325,356,1
308,306,322,350,1
295,304,319,341,1
285,304,318,330,1
283,305,316,316,1
286,305,314,301,1
292,306,311,287,1
300,303,307,277,1
308,300,304,272,1
314,297,302,271,1
319,295,305,273,1
323,294,309,276,1
325,293,315,279,1
322,293,319,280,1
317,293,322,281,1
311,294,323,281,1
308,295,324,280,1
308,297,325,281,1
308,300,325,282,1
308,304,325,284,1
307,307,325,286,1
304,309,323,288,1
301,309,322,290,1
299,307,319,291,1
297,305,317,292,1
299,303,314,292,1
303,302,313,292,1
309,301,312,293,1
312,301,312,294,1
313,302,312,295,1
313,304,312,296,1
314,305,312,296,1
316,306,312,296,1
318,306,313,298,1
318,305,314,298,1
315,304,315,299,1
309,303,317,300,1
305,304,319,301,1
304,306,320,302,1
305,308,320,303,1
305,311,319,304,1
303,312,317,307,1
300,312,316,310,1
298,310,317,311,1
296,308,317,311,1
295,306,318,311,1
296,305,318,312,1
298,305,318,312,1
300,305,318,313,1
299,305,319,313,1
294,305,320,313,1
285,304,320,312,1
275,301,319,312,1
271,297,317,314,1
276,292,316,315,1
288,288,316,316,1
303,287,317,316,1
315,288,318,314,1
322,292,319,310,1
323,295,320,304,1
322,297,319,300,1
320,298,318,296,1
317,297,317,294,1
313,298,316,295,1
308,300,315,297,1
302,302,314,302,1
296,304,312,309,1
290,305,310,315,1
288,304,308,320,1
294,301,307,323,1
304,298,307,323,1
313,295,306,320,1
320,291,307,314,1
327,290,310,308,1
334,292,315,301,1
336,297,318,295,1
334,301,322,291,1
328,306,325,290,1
324,311,326,291,1
322,313,326,294,1
321,313,325,298,1
319,310,325,303,1
318,305,324,309,1
316,304,324,314,1
315,305,324,323,1
313,303,325,335,1
312,294,325,349,1
310,282,324,361,1
307,270,323,368,1
301,260,322,368,1
292,255,320,361,1
285,255,318,348,1
281,263,316,331,1
282,272,316,312,1
289,280,316,296,1
300,288,318,287,1
312,298,320,284,1
319,308,322,284,1
322,316,323,284,1
321,321,323,284,1
319,325,323,284,1
317,327,323,286,1
315,328,323,290,1
316,328,324,294,1
317,328,324,298,1
318,326,323,300,1
316,323,320,301,1
315,321,317,301,1
314,319,314,299,1
316,316,313,297,1
320,312,314,295,1
323,308,315,294,1
323,305,318,294,1
319,302,319,296,1
311,301,320,298,1
299,300,320,300,1
288,301,319,300,1
284,302,320,299,1
287,303,321,299,1
295,304,322,300,1
301,305,322,300,1
304,305,322,302,1
305,305,323,303,1
304,305,323,304,1
303,305,324,304,1
302,305,324,304,1
302,304,324,306,1
304,304,325,308,1
306,304,325,311,1
308,303,325,311,1
309,303,325,311,1
310,302,324,308,1
311,302,323,304,1
312,301,323,300,1
315,301,323,296,1
315,301,324,293,1
314,302,324,292,1
311,302,325,292,1
305,302,325,292,1
294,301,325,293,1
282,300,325,295,1
271,298,325,298,1
262,298,324,300,1
256,299,323,302,1
259,303,321,303,1
274,308,320,304,1
293,313,320,303,1
309,315,321,303,1
317,315,323,304,1
319,315,325,306,1
317,313,326,311,1
314,310,327,316,1
313,306,328,320,1
315,303,327,321,1
315,300,324,321,1
315,299,320,320,1
312,299,315,317,1
310,303,312,315,1
311,307,311,312,1
312,311,312,309,1
316,313,314,305,1
320,315,318,302,1
323,315,320,302,1
323,314,324,302,1
318,314,326,304,1
311,313,326,307,1
306,312,325,309,1
302,312,323,311,1
299,311,319,309,1
300,309,315,306,1
304,308,312,305,1
308,307,310,307,1
309,307,307,312,1
309,307,305,318,1
311,307,305,323,1
316,309,306,327,1
321,311,309,330,1
324,315,312,334,1
324,318,315,339,1
324,320,317,344,1
322,319,318,346,1
320,315,317,342,1
317,311,317,335,1
313,309,315,326,1
309,308,314,316,1
303,307,312,306,1
297,307,311,297,1
293,307,308,290,1
291,306,305,285,1
291,304,303,283,1
296,303,301,284,1
306,303,301,287,1
316,303,302,292,1
321,304,304,296,1
323,306,304,299,1
322,307,304,301,1
319,309,304,302,1
313,311,305,303,1
307,312,305,304,1
302,312,305,304,1
298,312,304,304,1
299,311,304,305,1
302,309,305,306,1
307,306,307,308,1
313,304,307,309,1
318,303,308,310,1
320,305,308,311,1
319,306,309,311,1
317,308,309,312,1
314,309,310,313,1
309,309,310,314,1
306,308,310,317,1
306,308,310,321,1
308,308,310,326,1
309,309,312,329,1
310,309,314,329,1
310,309,316,327,1
309,308,317,322,1
303,308,317,316,1
290,307,317,309,1
275,306,315,304,1
267,305,313,299,1
267,305,313,297,1
274,306,313,297,1
288,307,314,298,1
301,309,314,299,1
310,311,314,300,1
315,311,314,301,1
317,311,314,301,1
318,311,314,301,1
319,311,314,302,1
320,312,312,303,1
320,315,311,306,1
318,317,309,308,1
316,319,308,312,1
312,319,310,315,1
308,317,313,318,1
304,314,318,322,1
302,311,322,325,1
302,309,325,327,1
303,308,328,327,1
303,307,328,326,1
302,307,327,323,1
304,307,325,319,1
309,307,324,314,1
313,308,323,309,1
315,308,321,304,1
314,309,320,301,1
310,309,319,300,1
305,308,319,301,1
301,307,320,303,1
298,306,321,307,1
295,305,322,312,1
293,305,323,317,1
293,305,323,322,1
296,305,322,324,1
301,306,321,325,1
306,307,321,323,1
311,307,320,321,1
312,306,319,317,1
311,306,318,313,1
311,307,317,310,1
313,310,318,308,1
313,314,320,308,1
312,317,322,309,1
310,319,324,311,1
308,319,325,314,1
307,318,325,318,1
305,316,325,321,1
304,314,323,323,1
301,311,322,324,1
298,304,321,324,1
295,295,320,323,1
294,287,320,322,1
298,284,320,320,1
304,284,320,318,1
309,286,320,315,1
310,290,318,312,1
308,294,316,310,1
305,299,314,308,1
306,303,313,307,1
309,307,314,306,1
311,310,315,304,1
313,312,316,302,1
314,313,317,298,1
314,312,318,295,1
313,310,318,292,1
312,306,317,291,1
311,304,314,292,1
310,302,312,296,1
309,301,310,301,1
308,301,310,308,1
309,301,310,314,1
310,302,310,319,1
310,303,312,321,1
310,303,313,319,1
308,304,314,316,1
305,305,314,312,1
303,306,314,311,1
300,307,314,311,1
296,308,313,313,1
292,308,313,316,1
290,308,314,320,1
290,308,315,321,1
293,308,315,320,1
299,308,315,317,1
304,307,315,312,1
309,306,313,307,1
312,305,308,303,1
312,303,303,300,1
309,302,298,298,1
304,301,294,299,1
297,301,292,300,1
288,301,292,303,1
281,301,295,306,1
276,302,300,310,1
276,303,304,312,1
278,305,307,314,1
281,307,309,314,1
288,309,311,315,1
299,310,313,318,1
312,309,315,323,1
322,309,316,327,1
328,310,317,329,1
331,311,318,328,1
331,313,317,325,1
328,314,316,320,1
325,315,314,314,1
321,315,313,307,1
318,314,311,301,1
316,312,310,297,1
314,310,309,293,1
313,308,309,292,1
311,306,309,295,1
311,305,310,300,1
311,305,310,307,1
312,305,310,315,1
314,306,311,321,1
316,309,311,325,1
318,312,310,325,1
320,314,309,322,1
320,318,306,316,1
319,320,305,310,1
316,322,305,306,1
309,322,305,304,1
299,321,305,304,1
291,317,305,306,1
285,311,305,309,1
283,303,304,311,1
282,294,304,312,1
285,288,303,313,1
293,285,302,314,1
301,286,303,317,1
307,288,304,320,1
309,291,305,321,1
307,294,306,318,1
303,298,308,316,1
298,302,310,315,1
295,305,311,316,1
294,307,312,318,1
295,307,312,321,1
297,308,311,323,1
300,308,309,323,1
301,307,308,320,1
302,305,307,315,1
301,302,307,308,1
299,299,307,302,1
298,294,307,296,1
298,290,306,292,1
299,286,305,290,1
303,281,305,291,1
307,279,305,292,1
310,278,306,293,1
310,281,306,293,1
309,285,306,295,1
308,291,307,298,1
306,299,308,302,1
307,306,309,305,1
307,312,310,306,1
307,314,309,305,1
305,314,306,302,1
301,313,303,297,1
295,311,299,293,1
291,310,298,292,1
290,310,298,295,1
290,310,301,299,1
291,310,305,303,1
291,310,310,307,1
292,309,313,310,1
295,309,316,313,1
298,308,318,314,1
297,308,320,315,1
298,309,323,317,1
303,309,325,320,1
311,310,326,323,1
318,312,326,326,1
322,312,326,327,1
321,312,325,329,1
315,311,322,329,1
309,311,320,329,1
307,310,318,328,1
307,310,318,325,1
310,309,318,322,1
315,308,317,318,1
319,307,317,312,1
322,305,317,307,1
322,304,317,303,1
322,304,317,299,1
321,303,316,295,1
320,302,315,290,1
316,300,314,287,1
313,298,313,285,1
311,297,313,284,1
310,296,314,286,1
308,299,314,289,1
304,303,315,294,1
299,307,316,300,1
294,311,317,307,1
291,315,318,313,1
289,318,319,319,1
289,320,319,323,1
291,321,319,327,1
293,322,319,328,1
295,322,318,327,1
299,321,318,327,1
305,320,318,326,1
309,319,318,324,1
310,317,318,320,1
310,315,318,316,1
309,313,316,312,1
308,311,315,309,1
309,310,315,308,1
310,308,314,309,1
312,308,314,311,1
314,307,313,313,1
318,308,312,313,1
320,309,311,312,1
317,311,312,312,1
311,313,312,312,1
307,315,312,311,1
305,316,311,311,1
303,316,310,311,1
300,317,311,313,1
299,318,312,315,1
298,318,312,316,1
299,318,312,316,1
300,319,311,314,1
301,318,311,311,1
301,318,310,307,1
302,316,308,305,1
305,313,306,305,1
307,310,304,308,1
310,308,301,315,1
312,307,298,323,1
316,306,296,331,1
318,306,294,336,1
314,307,293,338,1
308,309,294,337,1
302,312,297,332,1
301,316,300,324,1
299,318,303,316,1
294,320,305,312,1
287,321,308,310,1
280,320,310,310,1
274,320,311,312,1
271,319,312,314,1
274,319,312,314,1
283,319,311,313,1
298,318,311,312,1
313,315,310,309,1
326,313,310,307,1
335,311,308,305,1
338,308,306,303,1
335,305,304,302,1
330,304,304,303,1
325,303,304,307,1
322,303,307,312,1
319,304,309,316,1
317,306,311,319,1
315,308,312,319,1
313,308,312,320,1
311,310,312,323,1
309,313,311,327,1
308,315,310,328,1
307,317,309,327,1
306,317,308,324,1
305,317,307,322,1
304,315,305,318,1
303,313,304,313,1
301,309,303,307,1
299,307,302,301,1
297,307,302,296,1
297,308,302,292,1
298,309,302,292,1
300,309,303,292,1
301,309,304,294,1
304,308,306,296,1
306,309,307,300,1
308,310,309,304,1
309,312,310,308,1
307,314,310,311,1
304,315,311,313,1
301,316,311,316,1
301,317,312,319,1
302,319,314,323,1
303,320,316,325,1
302,319,317,325,1
301,316,316,324,1
298,313,316,322,1
295,309,315,319,1
297,307,315,317,1
302,306,315,316,1
306,305,316,316,1
308,304,316,318,1
305,304,316,320,1
299,304,316,322,1
292,305,317,325,1
288,307,317,327,1
288,309,317,327,1
292,311,318,326,1
297,311,318,322,1
302,312,319,318,1
305,312,319,315,1
305,313,319,312,1
301,313,319,311,1
292,313,318,310,1
281,312,317,310,1
273,311,316,309,1
272,311,314,309,1
275,311,313,308,1
281,310,311,307,1
293,308,308,305,1
307,306,306,305,1
320,304,306,305,1
327,302,306,306,1
329,302,308,309,1
329,302,312,310,1
327,304,316,312,1
322,306,319,313,1
316,308,322,315,1
310,310,324,316,1
305,312,325,319,1
302,314,326,321,1
300,316,327,324,1
301,316,326,326,1
304,316,325,327,1
307,314,322,327,1
310,311,320,328,1
310,307,318,330,1
311,302,315,334,1
311,297,314,338,1
309,292,313,340,1
304,289,313,339,1
299,288,314,333,1
297,289,314,325,1
298,291,314,318,1
297,296,315,311,1
296,302,316,306,1
295,308,317,303,1
295,313,316,300,1
293,316,315,298,1
293,316,314,297,1
293,315,313,297,1
297,314,313,298,1
303,312,313,298,1
306,311,314,298,1
307,311,314,298,1
306,311,315,297,1
304,311,314,296,1
304,311,313,294,1
306,310,312,294,1
311,309,311,292,1
318,307,310,292,1
322,305,310,293,1
324,304,310,294,1
321,303,311,297,1
317,302,312,300,1
311,303,313,303,1
307,303,313,306,1
303,304,313,309,1
298,305,311,312,1
294,306,311,316,1
290,306,311,319,1
286,306,312,322,1
285,306,312,323,1
287,306,313,323,1
295,306,313,324,1
304,307,313,325,1
312,307,313,326,1
317,306,313,326,1
320,306,313,323,1
319,304,313,319,1
316,303,312,313,1
312,301,311,307,1
308,300,309,302,1
303,299,308,300,1
301,299,308,301,1
301,298,307,303,1
301,299,307,308,1
301,299,308,313,1
298,300,309,318,1
294,301,310,321,1
291,301,310,321,1
288,300,309,319,1
279,299,307,315,1
268,298,305,312,1
261,298,303,308,1
259,297,301,304,1
261,296,300,299,1
266,297,298,297,1
274,298,297,298,1
288,299,297,302,1
304,302,299,307,1
320,304,303,313,1
331,306,308,320,1
337,306,312,327,1
338,307,315,332,1
337,308,317,334,1
334,311,318,332,1
329,313,318,327,1
325,316,318,320,1
320,318,317,314,1
316,320,315,310,1
312,320,313,308,1
308,319,311,307,1
304,318,310,304,1
299,316,309,301,1
295,314,307,298,1
295,312,306,295,1
300,309,305,293,1
306,306,305,291,1
313,303,305,290,1
319,300,306,291,1
323,297,308,294,1
323,295,309,297,1
321,295,309,302,1
320,296,309,307,1
319,297,310,313,1
318,300,312,317,1
316,303,315,320,1
314,306,316,321,1
310,307,316,320,1
307,309,316,317,1
305,310,314,314,1
303,311,313,309,1
303,313,312,305,1
304,314,311,300,1
304,314,310,297,1
305,314,310,295,1
305,312,311,294,1
304,308,312,294,1
305,306,313,294,1
308,304,315,294,1
311,304,315,295,1
312,305,316,297,1
310,306,317,299,1
304,309,319,301,1
298,313,320,301,1
290,315,318,301,1
285,317,316,301,1
287,316,314,301,1
294,313,312,301,1
305,309,310,301,1
314,305,310,301,1
318,302,311,302,1
313,300,313,305,1
302,299,315,310,1
292,299,317,316,1
290,299,318,322,1
290,301,319,328,1
293,302,319,333,1
298,303,319,337,1
304,304,319,340,1
310,306,320,343,1
313,309,320,345,1
314,311,321,343,1
310,312,320,338,1
302,312,320,330,1
293,313,319,322,1
286,312,319,313,1
283,312,320,304,1
285,311,320,298,1
287,309,321,292,1
289,307,320,288,1
290,305,318,285,1
289,303,314,284,1
289,302,309,285,1
297,301,304,287,1
310,301,301,291,1
323,301,300,296,1
330,301,301,300,1
333,300,304,303,1
333,301,311,305,1
331,303,317,307,1
329,304,322,311,1
326,304,325,314,1
324,303,327,315,1
322,303,328,313,1
320,303,326,309,1
318,304,324,304,1
316,306,322,300,1
313,307,320,298,1
308,307,317,298,1
304,307,316,301,1
301,307,315,304,1
298,306,314,308,1
294,304,314,312,1
290,302,314,316,1
288,300,314,320,1
291,301,314,324,1
296,302,313,326,1
301,303,312,325,1
305,304,311,319,1
308,305,308,309,1
311,306,307,299,1
313,306,307,294,1
316,308,308,293,1
317,309,309,294,1
316,310,308,293,1
316,309,307,292,1
316,308,306,291,1
316,306,306,292,1
315,306,306,292,1
311,305,304,293,1
304,304,303,294,1
298,304,303,295,1
297,305,304,299,1
297,306,305,304,1
294,308,307,311,1
286,308,307,317,1
278,307,308,321,1
275,306,308,325,1
276,305,308,327,1
280,305,309,329,1
290,305,310,328,1
302,305,312,324,1
311,304,313,318,1
317,304,313,313,1
320,305,312,309,1
320,307,311,305,1
321,309,309,302,1
323,311,307,299,1
322,313,305,298,1
321,314,304,297,1
319,315,304,296,1
317,315,304,296,1
315,314,304,297,1
312,311,302,297,1
311,308,299,297,1
311,305,298,298,1
312,303,299,300,1
312,301,300,304,1
311,301,302,308,1
308,300,303,314,1
302,300,305,318,1
294,301,306,323,1
287,301,307,327,1
287,302,307,333,1
293,304,307,339,1
299,305,308,340,1
304,306,307,336,1
307,306,306,331,1
309,306,304,326,1
310,306,302,320,1
310,306,301,313,1
310,306,300,308,1
310,307,301,305,1
309,308,305,304,1
308,308,309,305,1
306,308,312,305,1
304,307,314,306,1
304,305,315,307,1
307,302,315,309,1
310,300,316,311,1
312,299,317,311,1
315,299,318,314,1
317,300,318,316,1
321,301,318,319,1
323,303,316,321,1
323,305,315,320,1
320,308,315,318,1
316,311,315,314,1
313,315,317,311,1
309,317,318,308,1
304,318,318,306,1
298,319,318,305,1
291,319,317,306,1
287,319,317,308,1
285,318,317,310,1
288,317,317,312,1
296,315,318,315,1
305,314,317,318,1
312,312,315,320,1
317,310,314,321,1
321,307,314,322,1
325,306,314,320,1
325,304,313,316,1
324,304,313,311,1
323,304,312,305,1
320,306,311,299,1
313,307,309,294,1
303,308,308,291,1
295,310,308,291,1
289,311,309,292,1
287,310,309,295,1
289,309,310,297,1
294,307,310,300,1
297,306,308,301,1
299,305,305,302,1
297,304,302,302,1
294,303,301,304,1
288,302,301,309,1
280,301,301,314,1
273,301,302,321,1
275,301,304,327,1
283,303,306,332,1
295,304,309,334,1
304,306,312,335,1
310,306,314,332,1
315,305,316,326,1
318,304,316,319,1
320,303,316,314,1
320,303,316,309,1
321,304,315,305,1
321,304,313,300,1
321,305,310,295,1
319,305,308,292,1
315,304,307,290,1
311,304,306,289,1
307,304,305,288,1
304,303,305,289,1
301,301,305,290,1
298,300,305,292,1
297,299,306,294,1
296,299,308,298,1
297,299,309,302,1
296,300,310,306,1
298,300,309,310,1
301,301,308,313,1
304,301,307,316,1
306,303,306,320,1
308,306,305,322,1
307,308,304,322,1
305,310,301,317,1
300,310,298,310,1
293,308,294,302,1
287,307,292,297,1
287,305,292,296,1
291,304,296,298,1
298,302,300,302,1
306,300,303,305,1
312,299,306,306,1
316,297,308,306,1
318,297,310,305,1
317,297,311,305,1
316,298,312,303,1
314,300,312,302,1
312,302,311,301,1
312,303,311,301,1
311,305,310,300,1
311,306,309,299,1
310,307,309,299,1
309,307,309,299,1
305,307,309,299,1
303,308,308,300,1
304,309,307,304,1
308,311,307,310,1
312,311,308,316,1
314,310,307,322,1
312,307,308,326,1
308,304,308,330,1
305,302,308,333,1
303,301,307,335,1
304,301,307,335,1
305,302,307,332,1
304,304,306,328,1
300,305,306,319,1
294,305,305,306,1
287,303,303,290,1
282,299,302,277,1
284,293,302,268,1
290,288,303,262,1
295,285,304,261,1
297,284,306,265,1
299,286,308,272,1
301,290,311,281,1
305,297,313,290,1
309,301,314,298,1
309,304,312,301,1
304,304,309,302,1
297,303,306,302,1
292,301,305,302,1
287,300,304,302,1
283,298,304,303,1
285,298,304,304,1
292,299,305,307,1
303,300,306,311,1
310,301,309,317,1
314,304,311,321,1
318,306,313,324,1
321,308,315,327,1
324,310,316,330,1
326,312,316,335,1
325,314,317,342,1
322,315,318,348,1
315,316,318,354,1
304,315,317,358,1
294,315,315,360,1
285,314,313,359,1
282,314,310,351,1
282,311,307,340,1
283,308,304,328,1
290,303,304,316,1
302,300,305,304,1
316,297,306,294,1
330,295,308,286,1
338,294,309,281,1
339,293,309,279,1
333,293,308,279,1
321,292,306,279,1
307,292,306,284,1
298,292,308,291,1
294,293,310,300,1
290,295,312,309,1
286,298,313,316,1
280,298,312,317,1
275,297,308,316,1
272,293,304,311,1
276,291,300,308,1
287,292,300,308,1
300,294,302,311,1
312,295,305,314,1
319,297,308,317,1
322,297,310,316,1
320,296,310,311,1
317,297,311,307,1
315,299,313,306,1
313,303,314,303,1
312,306,314,299,1
310,307,311,293,1
308,306,309,289,1
306,304,308,288,1
304,301,307,289,1
303,300,307,293,1
304,302,308,300,1
305,307,308,309,1
305,311,305,317,1
303,314,300,323,1
299,314,295,326,1
291,311,291,328,1
282,307,289,325,1
274,303,292,322,1
273,299,297,318,1
277,296,303,316,1
286,295,307,316,1
297,296,312,318,1
307,298,317,320,1
314,302,320,320,1
316,307,320,318,1
315,311,319,314,1
311,314,317,309,1
307,314,315,303,1
305,314,313,296,1
305,314,310,290,1
307,313,309,286,1
312,312,307,284,1
313,311,305,283,1
312,310,303,283,1
312,307,301,284,1
313,303,301,286,1
315,300,302,288,1
314,297,303,291,1
311,296,304,295,1
309,295,305,300,1
310,295,307,305,1
312,295,308,309,1
315,296,307,311,1
316,298,306,310,1
315,301,304,308,1
316,304,303,307,1
318,307,302,305,1
318,309,301,304,1
314,311,300,304,1
309,312,300,302,1
304,312,299,302,1
302,313,299,301,1
301,312,299,303,1
302,312,300,304,1
304,310,300,306,1
307,309,300,308,1
308,307,299,310,1
309,305,298,311,1
309,303,297,311,1
309,302,297,309,1
308,300,298,307,1
307,299,300,306,1
306,299,302,306,1
304,299,303,306,1
301,301,303,307,1
297,303,302,306,1
292,305,300,305,1
291,307,300,305,1
294,308,299,307,1
298,308,299,310,1
302,308,300,315,1
303,308,300,318,1
302,307,300,318,1
300,307,301,318,1
298,307,300,315,1
295,304,299,310,1
291,297,297,303,1
290,290,295,297,1
293,285,295,295,1
300,285,300,301,1
308,290,305,309,1
311,294,307,313,1
311,300,308,317,1
308,306,308,321,1
305,312,306,320,1
302,314,304,315,1
297,316,303,308,1
289,317,302,303,1
279,317,301,299,1
271,317,299,297,1
268,316,299,295,1
269,315,299,294,1
273,313,299,294,1
281,310,299,295,1
289,306,300,298,1
296,304,299,302,1
304,303,298,308,1
312,304,298,314,1
320,307,297,318,1
329,309,297,319,1
335,310,297,317,1
335,309,299,315,1
329,309,304,314,1
323,310,309,313,1
318,311,313,312,1
314,311,315,309,1
311,310,316,304,1
308,309,317,300,1
305,307,316,297,1
303,305,315,297,1
302,304,315,301,1
302,306,314,307,1
302,306,313,313,1
304,307,312,317,1
307,308,312,319,1
310,309,312,321,1
311,309,311,321,1
310,308,311,322,1
307,307,310,325,1
305,307,310,329,1
305,306,309,331,1
307,307,310,330,1
311,308,311,328,1
314,309,311,324,1
316,309,311,318,1
316,308,311,310,1
311,308,311,304,1
305,308,311,301,1
297,310,311,302,1
288,311,311,304,1
280,311,309,306,1
273,311,307,310,1
269,311,306,312,1
268,311,305,311,1
272,311,304,308,1
276,309,304,303,1
279,305,303,298,1
280,301,303,294,1
281,297,303,292,1
283,294,303,291,1
288,293,303,292,1
297,292,304,294,1
306,293,305,297,1
313,294,307,301,1
314,296,308,304,1
313,298,308,307,1
309,301,307,307,1
306,304,306,306,1
303,306,304,304,1
301,307,303,301,1
299,308,303,296,1
300,307,303,293,1
301,309,304,294,1
301,311,305,297,1
299,314,306,301,1
298,316,306,303,1
299,317,306,305,1
298,317,306,308,1
296,315,305,311,1
297,313,305,314,1
299,311,304,315,1
302,309,304,314,1
305,308,304,312,1
308,309,306,310,1
309,311,308,308,1
310,313,308,308,1
310,314,306,307,1
312,315,304,306,1
314,316,304,306,1
314,316,303,305,1
313,315,304,305,1
311,314,304,304,1
310,312,304,304,1
311,310,303,304,1
315,307,301,303,1
319,304,299,300,1
319,302,299,299,1
314,301,300,299,1
307,301,302,298,1
305,303,304,299,1
306,305,307,301,1
307,307,309,304,1
306,308,311,309,1
305,308,313,312,1
303,308,312,311,1
301,307,312,311,1
298,309,312,312,1
295,310,312,314,1
292,311,311,314,1
289,312,310,313,1
286,312,307,311,1
283,311,304,308,1
281,310,301,305,1
283,310,299,302,1
286,309,297,300,1
293,309,296,299,1
299,308,296,297,1
306,306,298,295,1
311,304,302,294,1
313,302,305,294,1
313,300,307,294,1
312,299,309,296,1
310,300,311,300,1
309,302,311,306,1
309,304,311,313,1
307,305,311,318,1
302,306,311,320,1
295,306,312,321,1
288,307,313,322,1
284,309,313,322,1
283,310,312,320,1
285,312,312,319,1
291,313,311,318,1
298,314,311,317,1
303,313,311,317,1
304,311,310,317,1
305,309,311,318,1
307,308,312,319,1
311,307,312,319,1
313,306,313,318,1
314,306,314,318,1
311,307,314,315,1
305,307,314,311,1
298,307,312,306,1
293,307,311,302,1
294,307,310,300,1
300,308,312,302,1
307,311,314,305,1
312,314,317,309,1
314,318,319,312,1
315,319,319,314,1
314,319,318,313,1
313,318,317,310,1
313,316,316,304,1
314,313,315,299,1
313,311,313,297,1
308,308,312,297,1
299,306,310,299,1
289,304,309,303,1
283,303,309,309,1
278,303,310,315,1
277,303,311,321,1
279,303,312,326,1
285,304,310,327,1
287,304,309,327,1
292,304,308,325,1
303,307,307,324,1
316,309,307,321,1
323,312,308,315,1
325,314,308,309,1
321,315,309,305,1
315,315,308,304,1
308,316,307,304,1
302,315,306,306,1
298,314,305,308,1
296,313,304,310,1
298,310,304,311,1
302,308,304,312,1
307,306,304,311,1
308,303,304,309,1
303,301,304,306,1
293,300,303,304,1
283,301,301,303,1
276,303,299,302,1
275,305,296,302,1
281,307,294,303,1
295,310,294,305,1
311,312,298,310,1
324,314,302,315,1
331,316,307,320,1
335,317,310,324,1
335,318,312,328,1
333,317,313,328,1
330,314,312,324,1
326,311,310,320,1
320,309,309,317,1
313,307,307,316,1
307,306,306,317,1
305,306,305,318,1
306,307,305,318,1
309,307,305,317,1
311,307,306,315,1
310,308,305,310,1
306,308,305,303,1
300,307,303,295,1
294,306,301,289,1
290,306,299,284,1
294,305,297,282,1
304,305,296,281,1
314,304,297,283,1
317,303,298,285,1
315,302,298,289,1
308,302,298,296,1
299,303,298,304,1
292,304,298,311,1
288,306,298,316,1
288,306,298,320,1
291,307,299,321,1
296,306,299,323,1
299,306,299,324,1
304,305,300,326,1
309,304,301,327,1
312,304,302,326,1
313,305,302,322,1
313,305,301,315,1
313,304,301,306,1
311,303,300,297,1
307,302,300,290,1
304,301,299,286,1
302,302,300,285,1
301,303,300,285,1
298,305,300,287,1
295,306,300,289,1
293,307,299,291,1
292,306,298,295,1
295,304,297,299,1
300,302,297,304,1
307,299,299,310,1
311,297,301,315,1
313,297,303,320,1
314,298,306,324,1
314,302,308,326,1
316,307,310,325,1
318,311,312,320,1
318,315,313,314,1
316,317,313,309,1
314,317,311,307,1
313,317,309,307,1
311,315,308,307,1
311,313,307,307,1
310,312,306,307,1
308,311,306,307,1
305,310,305,308,1
303,310,305,310,1
300,310,305,312,1
297,310,304,313,1
293,308,303,314,1
287,305,301,315,1
281,302,299,316,1
283,299,298,318,1
293,298,298,321,1
303,298,299,323,1
312,300,300,324,1
318,303,302,323,1
322,306,304,320,1
324,310,305,317,1
325,314,306,314,1
324,318,306,312,1
323,321,305,310,1
320,321,304,305,1
317,319,302,301,1
313,317,298,295,1
310,314,295,292,1
307,312,293,290,1
306,311,292,290,1
305,309,293,290,1
305,307,296,292,1
305,305,300,296,1
305,304,303,299,1
305,303,306,303,1
304,304,307,307,1
303,305,308,311,1
303,307,309,315,1
302,309,310,319,1
301,312,311,323,1
298,314,312,328,1
298,315,313,331,1
299,316,314,332,1
302,317,314,332,1
305,318,313,331,1
308,317,312,330,1
310,316,311,329,1
312,315,310,327,1
313,313,309,326,1
312,310,308,324,1
311,308,307,322,1
308,305,304,320,1
303,303,303,318,1
298,301,302,315,1
293,300,300,313,1
286,300,299,310,1
278,301,299,307,1
273,302,299,305,1
272,303,299,304,1
276,302,300,305,1
283,301,300,307,1
291,300,301,311,1
299,300,304,314,1
307,303,306,320,1
317,305,308,327,1
329,307,309,333,1
336,308,310,337,1
337,309,309,337,1
333,309,308,335,1
327,309,306,331,1
321,308,304,327,1
317,308,303,325,1
315,308,304,325,1
313,308,305,327,1
313,308,307,330,1
314,307,308,333,1
314,306,309,336,1
311,305,309,336,1
303,304,308,336,1
294,304,306,336,1
283,305,304,336,1
272,307,301,333,1
263,308,298,327,1
261,310,296,319,1
272,311,295,308,1
289,311,295,298,1
306,311,297,291,1
320,310,298,288,1
329,309,300,289,1
334,308,301,294,1
336,308,302,300,1
335,307,303,305,1
332,306,303,309,1
329,306,304,311,1
327,306,305,313,1
326,308,306,314,1
325,309,307,315,1
323,311,308,315,1
322,312,308,313,1
320,312,309,310,1
318,312,309,306,1
316,311,309,304,1
314,310,308,302,1
312,310,307,301,1
310,309,307,299,1
308,309,306,298,1
307,309,305,297,1
307,309,303,298,1
307,308,300,301,1
307,308,297,305,1
308,306,295,309,1
310,305,293,310,1
313,303,294,310,1
317,300,297,310,1
318,298,301,309,1
315,297,305,309,1
309,297,308,309,1
297,298,309,309,1
281,299,308,309,1
270,300,307,312,1
273,302,307,317,1
288,304,309,325,1
306,307,311,331,1
320,311,312,335,1
327,314,312,333,1
329,316,310,325,1
329,318,308,313,1
327,318,308,299,1
324,318,308,289,1
321,316,307,284,1
319,314,306,284,1
316,312,305,287,1
313,310,304,292,1
310,308,304,296,1
307,307,305,300,1
305,307,307,304,1
303,308,309,309,1
301,309,310,313,1
300,311,311,315,1
298,312,311,315,1
297,313,311,311,1
298,314,309,305,1
299,314,308,299,1
303,313,306,296,1
306,312,306,297,1
309,312,305,301,1
312,311,305,306,1
314,310,304,309,1
313,309,304,309,1
310,307,304,308,1
304,306,305,307,1
299,304,306,307,1
294,302,307,308,1
293,299,308,310,1
297,298,309,314,1
307,297,311,319,1
317,299,313,325,1
325,303,314,331,1
326,307,313,334,1
319,312,310,330,1
310,315,308,320,1
304,316,308,310,1
305,316,309,301,1
307,316,310,295,1
310,315,311,294,1
312,315,311,295,1
311,314,311,298,1
310,313,311,300,1
310,312,310,301,1
311,312,310,300,1
314,312,309,299,1
315,311,307,300,1
315,310,307,300,1
313,309,307,302,1
310,308,307,305,1
309,308,308,308,1
309,309,309,310,1
309,310,309,311,1
309,312,309,311,1
310,313,309,310,1
309,314,308,307,1
307,313,307,304,1
303,313,305,300,1
298,312,303,296,1
294,311,300,292,1
288,308,296,290,1
284,306,294,289,1
288,305,293,292,1
297,305,293,297,1
307,304,293,303,1
313,305,294,310,1
315,306,296,316,1
316,306,298,321,1
316,306,302,323,1
318,306,306,321,1
320,306,310,318,1
321,306,313,316,1
322,307,315,317,1
321,309,317,320,1
318,313,318,325,1
316,315,317,330,1
314,318,315,333,1
313,319,313,334,1
312,319,311,336,1
310,319,310,338,1
306,318,310,340,1
300,317,309,339,1
292,315,309,333,1
284,312,307,324,1
274,309,305,313,1
267,305,302,305,1
269,302,300,298,1
277,299,298,293,1
286,298,298,292,1
293,298,298,294,1
300,299,299,299,1
307,301,301,305,1
313,303,303,310,1
318,306,304,314,1
322,309,304,315,1
324,312,303,315,1
324,314,303,313,1
322,315,302,309,1
320,315,301,305,1
318,314,301,301,1
315,313,301,298,1
313,313,300,297,1
311,312,300,298,1
309,310,299,297,1
307,307,299,296,1
306,305,298,295,1
305,303,297,297,1
306,302,297,303,1
304,302,298,309,1
300,303,298,314,1
297,304,300,317,1
293,305,301,319,1
290,307,303,320,1
290,309,305,321,1
291,310,305,320,1
289,312,305,318,1
288,313,304,316,1
289,314,303,314,1
292,314,301,311,1
296,312,300,308,1
304,311,300,305,1
314,310,301,302,1
321,310,302,300,1
323,311,302,298,1
321,310,302,296,1
317,308,301,295,1
312,306,301,294,1
309,304,300,295,1
309,302,301,297,1
310,301,301,302,1
312,301,303,308,1
313,302,303,313,1
311,304,301,316,1
308,306,299,317,1
305,308,297,316,1
304,311,296,315,1
305,314,297,315,1
306,317,300,315,1
307,319,305,316,1
307,320,309,319,1
306,320,312,322,1
306,318,314,325,1
307,314,315,328,1
312,312,316,328,1
317,310,316,326,1
322,308,315,322,1
325,306,314,320,1
325,304,314,318,1
321,302,313,315,1
316,300,313,313,1
312,299,314,311,1
309,300,316,310,1
308,301,317,309,1
306,303,316,307,1
306,304,315,306,1
305,304,313,306,1
305,305,311,309,1
305,306,311,312,1
306,307,311,316,1
307,307,311,319,1
307,306,312,323,1
303,304,312,325,1
294,303,312,327,1
281,302,311,327,1
268,302,310,325,1
260,302,308,321,1
262,301,306,315,1
274,300,305,308,1
291,298,304,302,1
309,295,304,296,1
324,294,305,292,1
333,295,306,291,1
336,297,307,293,1
334,300,308,295,1
330,304,309,299,1
326,308,310,303,1
324,311,310,305,1
321,314,310,308,1
321,315,310,310,1
321,316,310,312,1
319,315,309,312,1
317,313,309,311,1
314,311,309,309,1
313,310,308,308,1
313,307,307,309,1
311,305,306,309,1
305,302,305,310,1
297,300,304,310,1
293,298,304,310,1
293,297,304,309,1
296,298,304,305,1
300,300,304,302,1
304,302,305,300,1
307,305,306,299,1
308,307,306,299,1
307,310,307,299,1
304,311,307,299,1
302,312,307,300,1
302,312,307,304,1
305,311,306,309,1
310,310,305,312,1
311,309,305,313,1
309,307,306,314,1
308,306,305,315,1
305,305,303,316,1
304,303,300,318,1
303,301,297,322,1
303,300,294,329,1
305,298,292,335,1
309,297,293,339,1
311,298,296,342,1
313,299,302,343,1
315,302,308,341,1
316,304,313,336,1
315,308,316,330,1
315,310,316,324,1
314,311,314,318,1
314,312,312,314,1
315,312,309,307,1
317,311,306,301,1
319,311,304,295,1
317,310,302,290,1
309,308,300,285,1
299,305,299,281,1
290,303,298,279,1
286,300,298,280,1
288,297,299,282,1
295,295,300,286,1
303,293,302,288,1
310,293,303,290,1
316,294,304,293,1
319,295,305,296,1
318,297,305,299,1
315,300,304,300,1
311,303,303,299,1
309,306,302,298,1
310,308,301,297,1
314,310,301,297,1
320,312,301,297,1
325,313,302,298,1
328,313,303,299,1
329,313,303,300,1
325,312,303,302,1
320,310,302,304,1
315,309,302,304,1
311,307,302,305,1
308,305,302,304,1
305,303,303,304,1
304,301,303,304,1
303,299,304,304,1
301,297,305,303,1
299,296,306,302,1
296,296,307,301,1
295,297,308,302,1
296,299,309,304,1
298,304,312,308,1
301,308,313,311,1
304,311,313,313,1
307,314,312,315,1
310,315,311,316,1
311,316,310,318,1
310,315,310,318,1
306,315,309,318,1
299,314,308,318,1
293,314,308,322,1
288,313,309,326,1
283,311,310,331,1
281,310,310,334,1
281,310,310,334,1
286,310,311,333,1
296,311,310,327,1
309,309,310,318,1
320,307,308,307,1
326,305,306,297,1
326,305,304,289,1
323,305,303,283,1
318,305,303,278,1
313,303,303,275,1
309,302,304,274,1
306,301,304,274,1
304,301,305,277,1
304,301,305,281,1
304,302,303,287,1
304,303,301,292,1
304,304,299,297,1
305,305,298,300,1
305,304,298,302,1
307,304,299,302,1
309,303,302,302,1
312,302,305,302,1
315,301,309,301,1
318,300,312,300,1
319,300,314,300,1
317,300,314,296,1
312,298,313,291,1
307,297,310,287,1
305,297,307,285,1
301,298,303,286,1
296,300,301,289,1
292,304,301,294,1
291,308,302,298,1
292,310,305,302,1
294,312,307,304,1
296,313,308,307,1
297,313,308,308,1
297,312,308,310,1
297,310,307,310,1
298,308,307,311,1
301,305,306,310,1
303,302,306,310,1
303,301,306,310,1
300,301,307,311,1
295,302,308,313,1
290,303,307,314,1
284,304,306,312,1
281,305,305,309,1
280,306,305,306,1
287,307,304,303,1
296,307,304,301,1
304,307,303,297,1
306,307,302,293,1
305,306,301,290,1
304,305,300,289,1
304,304,299,289,1
302,303,298,289,1
300,301,297,289,1
296,299,295,289,1
292,299,294,289,1
292,298,293,290,1
294,298,294,292,1
301,298,295,295,1
309,299,297,297,1
318,300,299,299,1
325,301,301,301,1
327,302,302,303,1
324,303,302,304,1
317,302,301,304,1
308,301,299,305,1
304,301,298,308,1
303,301,297,311,1
305,300,297,315,1
307,300,299,320,1
310,299,301,323,1
310,300,303,322,1
309,301,304,320,1
309,302,306,317,1
309,303,306,313,1
307,303,306,310,1
306,302,303,306,1
304,301,298,303,1
303,301,294,299,1
303,300,290,296,1
303,301,288,293,1
303,302,288,292,1
301,303,291,293,1
300,304,295,298,1
300,305,299,303,1
298,304,302,308,1
295,303,304,313,1
295,302,306,320,1
298,302,307,328,1
301,304,308,338,1
304,305,308,346,1
307,308,308,349,1
310,309,307,346,1
313,310,306,339,1
316,309,306,330,1
317,307,306,320,1
317,305,306,309,1
317,304,305,300,1
315,303,305,293,1
312,303,305,288,1
308,302,304,285,1
306,302,303,284,1
304,302,303,285,1
303,303,304,287,1
300,304,305,291,1
297,306,305,294,1
293,308,305,298,1
289,309,305,301,1
284,308,305,304,1
281,307,306,307,1
280,306,306,309,1
280,305,307,308,1
281,304,306,304,1
284,302,304,298,1
290,300,303,293,1
297,298,303,290,1
303,296,303,289,1
308,295,305,288,1
312,293,306,288,1
315,292,306,290,1
317,292,307,293,1
316,293,307,297,1
311,295,306,301,1
304,297,305,306,1
297,298,304,310,1
292,300,303,312,1
291,302,302,314,1
293,304,301,314,1
296,306,301,311,1
299,306,301,305,1
302,306,301,301,1
301,306,301,300,1
298,306,300,301,1
294,306,299,304,1
290,306,299,307,1
289,306,300,310,1
292,304,301,313,1
298,303,302,316,1
304,303,303,319,1
307,303,304,323,1
309,303,305,326,1
309,303,306,328,1
311,303,307,326,1
314,303,308,324,1
317,305,309,320,1
319,307,308,315,1
320,310,307,312,1
319,312,306,310,1
317,314,303,310,1
315,315,300,310,1
312,315,297,311,1
311,314,294,309,1
311,312,290,307,1
311,309,287,306,1
311,306,287,308,1
313,304,289,312,1
314,302,294,314,1
314,300,298,314,1
313,299,301,310,1
312,299,303,305,1
312,299,304,302,1
313,302,305,299,1
314,304,306,297,1
312,306,306,295,1
307,307,306,294,1
302,308,305,296,1
298,309,306,298,1
297,309,306,301,1
300,310,308,302,1
304,311,309,303,1
306,311,310,304,1
304,310,309,304,1
301,309,308,303,1
300,308,307,302,1
300,307,306,300,1
300,305,304,298,1
299,304,304,296,1
294,303,303,295,1
286,302,302,295,1
282,301,300,295,1
282,302,300,295,1
286,303,300,296,1
288,305,301,298,1
291,307,302,301,1
294,308,303,302,1
297,308,303,301,1
300,307,302,299,1
305,306,301,297,1
309,306,300,298,1
310,306,299,299,1
310,306,299,302,1
309,307,301,305,1
308,307,302,309,1
307,307,304,311,1
304,306,304,312,1
303,305,304,313,1
303,305,305,313,1
305,305,305,313,1
308,306,306,312,1
310,308,305,311,1
309,310,305,311,1
307,311,305,311,1
302,313,305,312,1
297,315,306,312,1
291,315,306,311,1
287,315,306,311,1
286,314,306,310,1
286,313,306,309,1
286,312,306,309,1
286,312,305,310,1
289,312,305,308,1
294,311,306,304,1
300,311,306,300,1
307,309,307,297,1
314,307,308,294,1
320,304,308,293,1
324,303,309,295,1
326,302,309,300,1
326,302,310,306,1
323,302,311,314,1
321,303,312,323,1
320,305,312,331,1
318,307,314,336,1
315,309,314,338,1
312,311,315,338,1
308,312,314,335,1
303,313,314,331,1
301,313,313,326,1
301,313,313,319,1
304,312,312,311,1
306,311,310,303,1
306,310,306,298,1
306,308,301,294,1
307,307,297,293,1
305,306,295,295,1
301,305,294,299,1
294,304,296,304,1
288,303,301,310,1
286,301,307,315,1
286,299,313,319,1
289,298,317,322,1
295,297,319,324,1
304,297,320,325,1
316,297,319,324,1
325,297,315,320,1
329,298,311,318,1
330,300,308,317,1
328,302,308,318,1
324,304,310,321,1
319,305,312,324,1
313,306,313,326,1
308,307,314,324,1
304,307,313,318,1
302,306,312,310,1
301,304,310,302,1
302,303,309,296,1
305,301,309,292,1
309,300,309,290,1
311,298,310,290,1
311,298,310,291,1
307,299,310,294,1
301,300,310,296,1
296,302,310,298,1
292,304,310,299,1
289,305,311,299,1
288,307,310,298,1
291,307,308,297,1
296,307,307,295,1
301,306,306,293,1
304,305,306,294,1
308,304,306,296,1
310,304,306,300,1
311,304,306,303,1
310,305,306,307,1
308,305,306,310,1
307,305,307,311,1
305,304,307,312,1
305,303,306,312,1
307,302,306,313,1
311,303,305,312,1
313,304,304,311,1
316,307,303,309,1
318,310,302,308,1
319,313,303,308,1
319,314,304,307,1
319,315,305,306,1
319,314,306,305,1
318,313,305,304,1
318,311,304,304,1
318,310,304,303,1
318,308,304,303,1
318,306,302,302,1
318,304,301,301,1
318,302,299,301,1
319,299,299,302,1
321,298,298,304,1
322,297,299,306,1
322,297,300,309,1
318,298,301,312,1
311,300,303,313,1
304,302,303,313,1
296,304,303,312,1
289,305,302,310,1
284,306,301,311,1
284,307,299,312,1
289,307,299,314,1
298,308,299,316,1
307,309,299,317,1
314,309,299,317,1
320,309,297,316,1
325,308,296,313,1
327,307,295,312,1
327,305,295,311,1
325,304,296,312,1
322,302,296,312,1
319,301,296,313,1
317,300,296,314,1
314,300,297,315,1
313,300,298,315,1
312,301,299,315,1
312,302,301,314,1
313,303,301,313,1
312,304,300,312,1
310,306,297,311,1
307,307,294,310,1
304,308,292,310,1
303,309,291,311,1
304,309,292,311,1
307,309,295,312,1
312,308,299,313,1
317,307,303,312,1
320,306,306,311,1
319,304,308,310,1
316,302,307,309,1
312,300,305,310,1
309,298,301,312,1
308,297,300,314,1
311,297,301,318,1
315,298,303,324,1
317,299,304,331,1
321,300,306,337,1
324,302,307,340,1
326,303,309,338,1
322,306,310,336,1
315,309,311,334,1
305,312,311,334,1
297,315,311,335,1
294,318,312,334,1
294,318,311,331,1
297,317,311,327,1
300,315,311,324,1
301,313,311,320,1
302,311,310,314,1
302,308,309,306,1
304,306,308,300,1
306,305,307,296,1
307,304,305,295,1
307,304,305,296,1
305,305,304,297,1
304,306,305,299,1
303,307,305,298,1
304,308,307,297,1
305,309,308,297,1
307,310,309,296,1
309,310,310,296,1
310,311,309,296,1
310,311,308,296,1
309,310,306,295,1
307,310,306,294,1
306,310,305,293,1
304,309,304,293,1
303,308,304,293,1
302,307,303,294,1
301,305,302,297,1
300,303,301,302,1
300,301,302,307,1
301,300,302,312,1
303,298,303,316,1
305,298,304,320,1
304,299,305,322,1
303,302,306,322,1
303,304,307,321,1
302,306,308,318,1
301,307,307,315,1
301,308,306,312,1
302,308,304,310,1
301,309,303,309,1
297,310,302,309,1
292,310,301,307,1
289,309,301,305,1
289,308,301,301,1
294,307,301,297,1
299,305,300,294,1
307,302,300,293,1
319,300,300,294,1
328,298,300,298,1
334,297,301,303,1
336,296,302,309,1
334,296,303,315,1
326,296,303,319,1
316,297,302,322,1
308,298,301,321,1
305,299,301,318,1
308,301,300,310,1
312,303,297,302,1
314,304,292,296,1
315,305,288,293,1
315,306,287,294,1
315,307,289,297,1
317,308,292,302,1
320,310,296,309,1
324,311,301,314,1
324,311,304,320,1
320,310,306,327,1
314,308,308,334,1
309,306,310,338,1
305,304,309,339,1
304,303,309,336,1
308,302,308,332,1
313,303,308,323,1
317,304,307,313,1
317,306,305,304,1
314,308,304,297,1
311,310,302,291,1
306,311,300,286,1
303,313,299,284,1
300,313,298,286,1
299,313,297,289,1
299,313,297,295,1
300,313,298,299,1
301,311,299,302,1
303,309,299,304,1
306,306,299,305,1
310,303,300,306,1
314,301,299,306,1
315,299,299,304,1
313,297,298,300,1
310,296,298,296,1
308,295,297,293,1
308,296,297,290,1
308,296,297,289,1
308,298,298,290,1
308,300,299,291,1
308,301,299,292,1
308,303,299,294,1
307,304,299,296,1
306,305,300,299,1
304,306,301,302,1
303,306,301,305,1
303,306,301,307,1
304,307,301,309,1
309,307,300,309,1
312,307,300,308,1
313,306,299,306,1
311,304,300,304,1
310,302,300,303,1
309,301,300,304,1
309,300,299,305,1
309,300,299,307,1
309,301,300,308,1
310,302,303,309,1
311,304,306,311,1
312,306,308,312,1
313,308,309,312,1
313,309,310,313,1
311,310,309,314,1
310,311,309,315,1
309,311,310,316,1
308,310,310,319,1
307,309,311,321,1
307,309,311,324,1
307,308,311,326,1
308,307,309,325,1
306,306,308,322,1
303,304,306,320,1
298,302,306,318,1
294,300,305,316,1
290,299,306,315,1
288,299,306,315,1
286,301,307,315,1
286,303,308,317,1
288,305,310,321,1
291,308,311,326,1
296,311,312,330,1
301,313,312,330,1
308,314,312,328,1
314,315,312,321,1
315,315,312,313,1
313,314,312,303,1
309,313,311,295,1
306,311,311,288,1
304,310,311,284,1
303,309,309,283,1
303,307,306,285,1
306,307,303,289,1
310,305,301,295,1
313,305,300,300,1
316,304,300,306,1
318,304,303,312,1
320,305,308,317,1
321,306,312,319,1
322,307,316,321,1
323,308,318,323,1
322,308,319,326,1
319,308,319,326,1
314,307,319,324,1
307,307,318,318,1
301,305,317,314,1
297,305,316,312,1
297,305,315,312,1
299,306,314,311,1
302,306,312,309,1
307,305,309,305,1
312,304,306,298,1
316,302,304,290,1
318,300,303,284,1
311,298,302,281,1
300,297,302,280,1
290,296,304,281,1
281,296,305,283,1
275,297,307,285,1
276,300,308,287,1
286,302,310,291,1
300,305,312,294,1
313,306,312,298,1
320,307,312,301,1
321,308,311,304,1
320,309,310,308,1
315,310,309,312,1
310,312,309,317,1
306,313,309,320,1
304,313,308,321,1
307,312,307,321,1
310,311,307,319,1
311,309,306,317,1
311,308,305,315,1
310,306,304,312,1
309,305,302,308,1
308,306,301,304,1
307,306,301,302,1
307,307,301,301,1
307,308,302,301,1
308,309,302,303,1
307,310,302,305,1
307,311,302,307,1
305,311,302,308,1
304,311,301,309,1
302,311,301,309,1
300,311,300,312,1
299,312,300,316,1
298,313,300,322,1
298,314,300,326,1
298,314,300,329,1
298,313,300,331,1
299,312,300,332,1
301,311,300,332,1
302,309,300,331,1
300,307,301,329,1
296,305,301,326,1
291,304,301,322,1
286,303,300,316,1
282,302,299,307,1
284,302,298,298,1
291,302,297,290,1
299,302,296,285,1
305,302,296,283,1
310,302,297,284,1
312,302,298,286,1
313,303,298,288,1
312,303,298,291,1
309,303,297,294,1
302,302,296,296,1
294,301,295,297,1
289,299,295,297,1
286,297,294,300,1
287,296,295,306,1
292,296,296,313,1
300,296,297,320,1
307,298,298,324,1
311,301,298,325,1
313,304,297,323,1
314,308,296,321,1
313,310,295,318,1
312,312,294,316,1
311,313,295,316,1
310,314,296,317,1
311,315,299,317,1
311,315,301,315,1
310,314,303,313,1
308,314,304,310,1
305,312,304,308,1
299,310,304,304,1
292,307,304,300,1
287,305,304,297,1
288,303,304,297,1
291,301,304,298,1
295,299,305,300,1
295,298,305,302,1
293,298,305,304,1
292,298,304,305,1
294,299,305,306,1
299,301,306,306,1
304,304,307,305,1
307,307,308,302,1
308,310,308,299,1
308,313,307,296,1
307,314,307,295,1
307,315,306,294,1
306,316,306,295,1
305,315,306,297,1
305,315,306,299,1
303,313,306,301,1
302,311,306,304,1
301,309,306,307,1
301,306,306,311,1
300,304,307,314,1
301,302,308,316,1
302,302,309,317,1
304,302,310,317,1
304,302,310,317,1
304,302,309,318,1
300,303,308,317,1
296,304,308,316,1
293,305,307,314,1
293,306,306,312,1
294,306,305,310,1
295,305,305,308,1
296,305,305,307,1
296,306,306,307,1
295,306,307,309,1
295,306,308,313,1
295,306,310,317,1
298,305,310,322,1
300,304,311,326,1
301,303,310,330,1
300,302,310,334,1
297,301,309,336,1
296,302,309,338,1
296,303,309,335,1
297,304,308,330,1
300,304,306,322,1
302,304,304,316,1
304,304,303,313,1
307,303,302,315,1
309,304,303,319,1
310,305,303,324,1
311,306,303,327,1
311,307,303,328,1
310,308,302,325,1
307,307,301,320,1
303,307,301,312,1
299,306,300,305,1
295,305,300,300,1
295,304,300,297,1
296,302,300,296,1
298,301,301,295,1
301,299,301,296,1
303,297,302,299,1
304,297,302,304,1
304,296,302,308,1
304,297,303,310,1
304,300,302,308,1
304,302,302,303,1
304,305,302,297,1
304,307,301,293,1
304,308,302,290,1
303,309,302,289,1
302,310,303,288,1
299,310,303,288,1
296,309,302,290,1
294,307,300,294,1
293,305,296,299,1
296,303,293,305,1
300,302,290,312,1
303,301,289,320,1
304,302,291,327,1
306,304,296,333,1
308,306,301,334,1
308,306,305,330,1
308,307,308,322,1
307,307,310,313,1
306,306,311,305,1
305,306,311,299,1
305,305,311,295,1
304,304,310,293,1
305,304,310,292,1
305,302,309,292,1
306,300,307,292,1
308,299,306,293,1
310,298,306,296,1
311,297,305,302,1
310,297,305,308,1
304,296,304,313,1
297,295,304,315,1
288,293,304,316,1
282,294,304,318,1
278,295,305,319,1
278,297,306,319,1
282,298,307,319,1
289,299,307,317,1
297,300,307,314,1
302,301,307,309,1
305,301,307,304,1
308,302,306,299,1
312,302,304,293,1
314,302,301,286,1
313,301,298,281,1
311,300,295,279,1
308,299,294,281,1
307,299,296,286,1
307,299,298,293,1
306,299,301,302,1
304,299,303,313,1
304,299,304,322,1
304,299,305,330,1
306,298,305,335,1
308,297,306,337,1
311,296,307,334,1
315,296,308,328,1
316,296,308,321,1
313,298,307,312,1
309,299,306,306,1
304,301,305,304,1
297,303,304,303,1
289,303,302,303,1
283,304,302,303,1
283,305,301,305,1
286,306,301,307,1
290,307,302,309,1
293,308,302,311,1
299,308,303,313,1
306,308,303,314,1
312,307,302,313,1
314,304,302,310,1
315,301,303,306,1
316,298,303,303,1
318,296,303,301,1
321,295,303,300,1
323,295,301,298,1
324,295,298,296,1
324,295,296,294,1
324,295,293,294,1
323,295,290,295,1
320,295,289,297,1
312,296,289,298,1
298,297,291,299,1
284,298,295,300,1
275,299,300,302,1
271,300,304,301,1
269,302,306,298,1
269,303,308,295,1
273,304,310,293,1
281,304,310,292,1
291,303,309,293,1
302,302,309,294,1
310,301,308,296,1
314,300,307,300,1
315,299,306,304,1
314,299,305,308,1
313,300,305,312,1
313,301,305,317,1
313,303,305,322,1
311,304,304,326,1
309,306,302,328,1
306,308,300,328,1
303,309,298,325,1
301,310,299,320,1
300,310,301,314,1
301,309,302,312,1
302,309,303,312,1
303,309,303,314,1
306,309,303,315,1
308,309,304,315,1
309,308,303,314,1
309,305,302,313,1
307,302,301,313,1
306,300,299,313,1
305,297,299,313,1
303,296,299,311,1
299,295,299,307,1
294,295,300,303,1
290,297,299,297,1
287,298,299,290,1
286,300,297,283,1
289,301,295,279,1
294,302,294,277,1
297,303,294,279,1
298,304,294,284,1
299,306,295,291,1
301,308,297,300,1
304,309,298,308,1
307,309,299,314,1
308,308,299,319,1
308,307,299,322,1
309,305,299,324,1
310,304,300,324,1
311,303,300,324,1
312,303,301,322,1
312,303,302,319,1
311,303,304,314,1
309,304,304,309,1
308,305,304,305,1
306,306,303,303,1
305,307,303,301,1
304,308,302,299,1
303,309,302,296,1
301,309,302,295,1
298,309,301,295,1
297,308,301,296,1
295,307,301,298,1
291,306,301,301,1
286,305,301,304,1
285,304,300,306,1
289,303,300,307,1
293,302,300,309,1
300,300,300,309,1
309,299,300,310,1
317,299,300,310,1
322,299,301,312,1
325,300,302,314,1
324,302,304,314,1
322,304,305,313,1
316,304,305,309,1
308,304,304,305,1
299,304,302,301,1
295,304,299,298,1
295,304,296,297,1
299,304,294,297,1
302,304,292,298,1
305,306,292,301,1
309,307,292,303,1
313,307,294,305,1
316,306,298,308,1
320,306,304,312,1
323,304,309,317,1
326,303,313,321,1
327,301,316,324,1
323,300,316,327,1
317,300,316,333,1
311,302,315,341,1
307,305,315,348,1
304,308,314,350,1
301,311,313,347,1
299,313,312,342,1
299,315,312,335,1
300,315,312,326,1
302,314,310,315,1
304,313,308,304,1
306,312,307,295,1
306,311,306,288,1
305,310,305,284,1
301,308,305,282,1
296,305,305,282,1
290,303,304,283,1
287,301,302,286,1
287,300,302,290,1
289,299,302,296,1
294,300,303,303,1
300,303,305,311,1
303,307,306,316,1
305,310,308,317,1
307,311,309,316,1
308,312,309,314,1
308,312,309,313,1
308,313,309,313,1
308,313,309,314,1
308,313,309,315,1
305,313,309,316,1
302,313,308,316,1
299,312,307,313,1
296,310,306,309,1
293,309,306,306,1
294,308,305,304,1
298,307,304,303,1
304,307,303,301,1
311,306,301,298,1
315,305,300,294,1
318,305,300,292,1
320,305,301,291,1
320,306,302,293,1
318,307,304,297,1
314,309,305,301,1
309,310,306,305,1
305,311,306,307,1
303,312,307,309,1
302,313,308,309,1
302,313,309,309,1
302,312,310,307,1
302,312,311,305,1
299,310,310,302,1
297,307,309,299,1
301,305,307,297,1
304,303,305,294,1
303,301,301,292,1
299,299,297,291,1
296,298,293,293,1
296,298,292,297,1
301,299,291,303,1
307,302,293,310,1
314,304,296,315,1
319,307,301,319,1
321,310,307,321,1
322,311,312,322,1
322,312,315,320,1
323,313,317,317,1
323,313,318,315,1
321,313,317,314,1
318,311,316,316,1
316,309,315,319,1
313,307,313,323,1
310,305,312,326,1
306,303,311,328,1
301,301,310,328,1
296,299,308,326,1
292,299,307,324,1
291,298,307,320,1
292,298,307,315,1
295,298,307,309,1
298,298,308,308,1
302,300,309,311,1
305,301,311,319,1
308,303,313,328,1
309,305,313,335,1
309,306,313,336,1
308,307,312,334,1
306,307,310,328,1
304,308,308,321,1
302,308,306,314,1
301,307,304,307,1
299,306,302,301,1
298,305,301,298,1
295,304,302,297,1
292,303,303,297,1
289,301,303,298,1
288,299,304,299,1
287,297,304,300,1
289,296,305,302,1
292,296,307,306,1
295,297,309,311,1
297,300,310,318,1
299,302,311,323,1
302,304,312,325,1
306,306,312,326,1
312,308,312,327,1
316,308,311,328,1
318,308,310,328,1
319,307,308,327,1
320,307,306,325,1
322,306,305,320,1
323,306,304,315,1
322,306,304,310,1
320,305,303,305,1
317,304,302,301,1
313,302,302,300,1
311,301,301,301,1
309,299,302,304,1
308,297,303,308,1
307,295,304,312,1
306,295,305,315,1
305,295,306,320,1
304,297,308,324,1
304,300,310,327,1
302,303,311,330,1
301,307,311,332,1
300,310,311,334,1
299,312,309,335,1
298,313,308,335,1
298,314,307,335,1
297,314,306,333,1
297,313,306,330,1
296,312,306,325,1
295,310,306,320,1
294,308,304,314,1
293,304,300,306,1
294,301,295,297,1
298,299,290,290,1
301,298,288,287,1
304,298,289,290,1
305,300,292,295,1
305,301,298,301,1
303,303,304,303,1
303,305,308,302,1
307,306,311,299,1
311,306,313,296,1
315,307,313,293,1
317,307,312,291,1
317,308,311,290,1
316,307,310,289,1
314,307,309,289,1
310,307,308,290,1
303,307,308,291,1
295,307,307,293,1
288,308,306,295,1
286,307,304,297,1
289,306,303,298,1
295,305,302,301,1
303,304,303,303,1
312,303,303,308,1
321,304,305,312,1
328,305,307,315,1
331,307,307,316,1
330,309,307,316,1
327,312,307,315,1
323,313,306,314,1
319,315,306,314,1
314,316,305,314,1
310,315,304,313,1
308,313,303,314,1
308,311,302,316,1
307,310,301,319,1
306,309,300,320,1
306,309,300,319,1
306,310,300,318,1
308,311,300,316,1
311,309,300,314,1
312,308,300,312,1
313,307,300,313,1
311,306,300,313,1
309,306,299,314,1
307,306,299,313,1
307,306,300,311,1
305,306,300,307,1
304,307,301,305,1
299,306,301,303,1
293,307,301,303,1
288,308,301,303,1
288,309,301,304,1
290,311,301,306,1
296,312,301,308,1
305,313,301,308,1
312,313,301,307,1
316,313,301,307,1
317,312,299,306,1
318,310,299,306,1
318,307,298,305,1
317,304,298,305,1
317,303,299,306,1
317,301,299,310,1
317,300,300,315,1
316,301,301,320,1
316,302,302,325,1
316,305,304,328,1
316,309,304,326,1
317,312,304,323,1
315,314,305,320,1
311,315,305,319,1
303,316,305,318,1
292,315,302,314,1
283,313,300,310,1
279,312,298,303,1
281,311,298,297,1
290,310,297,291,1
300,309,295,286,1
307,308,293,283,1
311,307,291,283,1
312,306,289,286,1
312,306,291,289,1
311,305,295,294,1
313,305,301,297,1
316,306,305,300,1
319,307,310,301,1
318,308,312,302,1
313,310,313,304,1
309,311,313,307,1
311,312,313,311,1
317,312,313,316,1
323,313,312,319,1
325,313,312,322,1
326,313,311,322,1
325,311,310,321,1
323,309,309,318,1
322,307,307,315,1
320,305,306,313,1
316,304,304,311,1
312,303,303,309,1
307,302,302,307,1
305,302,302,306,1
304,302,302,307,1
303,303,302,308,1
305,303,303,310,1
306,304,304,310,1
305,303,304,309,1
302,301,303,305,1
296,300,301,300,1
287,298,299,295,1
277,298,298,292,1
271,298,297,291,1
272,298,298,292,1
281,299,300,294,1
290,300,301,298,1
296,303,303,302,1
297,305,304,307,1
296,306,305,311,1
295,306,305,316,1
296,305,305,320,1
301,305,305,324,1
308,305,305,327,1
315,306,306,329,1
320,307,307,330,1
323,308,308,329,1
324,310,309,326,1
323,311,309,323,1
320,311,309,318,1
317,311,308,313,1
313,311,307,310,1
309,311,307,309,1
306,311,307,311,1
303,310,306,314,1
299,309,306,319,1
297,307,306,322,1
297,306,306,324,1
299,305,305,324,1
300,305,304,320,1
300,304,302,315,1
300,304,301,309,1
302,304,301,304,1
304,304,301,301,1
307,304,302,299,1
308,304,302,299,1
312,305,303,299,1
314,305,303,299,1
315,304,303,298,1
315,305,303,296,1
317,305,302,295,1
319,305,301,294,1
320,306,300,293,1
318,306,298,292,1
317,306,296,294,1
316,306,295,295,1
315,307,294,297,1
313,308,296,300,1
311,308,297,303,1
306,308,297,305,1
300,306,298,308,1
295,304,298,311,1
293,302,300,316,1
291,301,301,320,1
291,301,301,323,1
296,302,300,326,1
304,304,300,327,1
311,307,300,329,1
315,310,299,330,1
317,312,300,330,1
317,312,303,330,1
313,311,306,329,1
308,311,308,327,1
305,309,310,325,1
303,308,312,323,1
301,306,313,321,1
298,305,313,318,1
295,304,311,316,1
293,305,309,314,1
290,305,308,310,1
287,306,306,305,1
284,305,304,300,1
283,304,303,294,1
285,303,303,291,1
288,304,304,290,1
293,304,305,292,1
301,305,306,295,1
308,306,307,297,1
314,306,308,297,1
319,306,308,296,1
324,307,307,296,1
330,308,306,298,1
334,309,306,299,1
337,309,305,300,1
334,310,303,299,1
328,310,302,297,1
320,310,301,297,1
312,310,300,298,1
305,309,300,300,1
301,308,300,301,1
302,307,300,302,1
306,305,301,304,1
312,305,301,306,1
316,304,301,308,1
319,304,301,312,1
319,305,301,316,1
318,306,302,319,1
316,307,303,322,1
312,308,304,324,1
308,310,304,326,1
302,312,305,328,1
298,314,307,330,1
296,316,308,332,1
295,319,309,333,1
295,320,310,333,1
297,320,311,332,1
299,320,312,330,1
301,319,311,329,1
302,318,310,326,1
302,316,308,322,1
302,312,307,316,1
302,309,305,311,1
304,307,305,305,1
305,306,305,300,1
307,305,305,296,1
306,305,305,295,1
304,305,306,297,1
303,307,307,302,1
303,309,308,307,1
304,311,309,310,1
305,313,310,310,1
306,314,311,309,1
307,315,312,308,1
307,314,312,306,1
305,312,312,304,1
301,310,311,305,1
297,309,310,307,1
292,308,307,310,1
288,308,305,314,1
285,308,302,315,1
283,308,299,314,1
286,307,297,312,1
293,305,296,310,1
299,305,298,307,1
303,305,299,304,1
304,306,301,302,1
303,307,303,301,1
303,308,306,303,1
305,311,310,306,1
307,313,313,309,1
310,316,315,313,1
314,317,317,317,1
318,319,318,321,1
321,319,319,325,1
324,320,319,329,1
325,320,319,332,1
326,320,318,333,1
325,319,316,332,1
322,318,314,327,1
320,316,312,321,1
318,315,309,316,1
317,313,307,314,1
318,311,305,312,1
317,309,304,311,1
315,308,304,310,1
312,307,305,309,1
310,308,305,308,1
311,309,305,306,1
312,311,305,304,1
312,312,306,300,1
312,313,306,297,1
311,314,306,294,1
310,314,305,294,1
308,314,305,295,1
308,314,304,297,1
309,313,305,302,1
312,313,305,307,1
314,313,305,312,1
317,313,306,315,1
319,313,307,313,1
320,311,306,307,1
319,308,306,301,1
317,305,305,298,1
313,303,305,298,1
306,303,306,301,1
301,304,307,307,1
298,306,309,313,1
298,308,310,318,1
300,311,310,321,1
304,313,311,324,1
310,314,311,328,1
314,315,311,329,1
315,315,311,328,1
314,315,311,325,1
312,314,310,323,1
310,314,310,321,1
307,313,308,320,1
306,312,307,318,1
305,311,306,315,1
305,310,304,313,1
306,310,302,310,1
310,309,301,308,1
313,308,301,305,1
316,306,300,302,1
317,304,300,300,1
315,303,302,298,1
312,303,304,296,1
306,303,305,294,1
302,305,306,293,1
300,306,307,292,1
301,306,306,291,1
305,306,304,291,1
309,307,302,292,1
313,307,299,294,1
312,307,297,297,1
305,308,294,299,1
297,309,294,302,1
297,310,297,306,1
306,312,302,310,1
319,314,306,316,1
329,314,309,320,1
333,314,311,324,1
333,313,312,326,1
329,311,312,325,1
325,309,313,323,1
322,307,314,320,1
319,306,314,320,1
318,307,314,321,1
318,310,315,323,1
317,313,315,322,1
315,316,314,319,1
313,317,312,316,1
312,318,310,313,1
311,318,309,312,1
311,319,308,311,1
309,319,307,312,1
308,318,307,312,1
306,318,307,313,1
304,317,308,314,1
300,315,308,314,1
296,312,307,314,1
293,310,307,313,1
293,308,305,311,1
296,307,303,309,1
299,305,302,307,1
302,305,301,306,1
305,305,302,307,1
311,305,303,309,1
316,307,305,312,1
319,309,306,315,1
319,311,307,317,1
318,312,308,317,1
316,313,308,316,1
313,314,307,315,1
313,315,307,313,1
312,314,306,311,1
311,314,306,310,1
310,314,306,310,1
310,314,305,310,1
309,313,305,310,1
307,311,304,311,1
304,310,304,313,1
300,309,303,317,1
297,310,304,321,1
294,310,304,324,1
293,310,304,325,1
293,309,304,322,1
296,308,304,316,1
301,308,304,308,1
306,308,305,301,1
311,309,306,297,1
313,309,308,298,1
314,310,309,302,1
315,311,309,307,1
317,311,309,311,1
318,311,308,313,1
317,310,306,312,1
313,309,305,308,1
309,307,302,303,1
305,305,298,299,1
303,304,294,297,1
302,302,292,298,1
303,302,291,301,1
303,301,293,306,1
304,302,297,310,1
303,302,302,313,1
298,303,306,312,1
293,304,308,309,1
292,304,309,303,1
296,305,309,298,1
302,306,308,296,1
309,307,307,296,1
318,308,307,298,1
327,310,308,302,1
334,311,308,306,1
338,313,308,310,1
338,314,308,313,1
334,316,308,315,1
326,316,308,318,1
318,316,308,320,1
312,315,309,322,1
308,313,309,323,1
306,311,309,323,1
305,310,309,322,1
304,309,309,322,1
304,310,309,323,1
304,311,310,324,1
305,313,312,325,1
305,315,313,323,1
303,316,313,318,1
300,315,311,310,1
297,313,308,301,1
294,311,305,294,1
294,309,301,290,1
297,307,299,289,1
302,307,299,290,1
305,306,298,294,1
305,307,299,299,1
301,307,299,303,1
295,307,299,307,1
290,307,299,311,1
287,307,299,313,1
292,306,299,313,1
302,306,301,312,1
313,305,304,309,1
319,305,306,305,1
321,306,307,303,1
320,307,308,303,1
318,309,309,303,1
316,310,309,303,1
314,312,309,303,1
312,313,309,303,1
311,314,309,302,1
309,314,308,299,1
308,314,308,297,1
307,313,308,296,1
307,312,308,296,1
307,311,307,297,1
307,310,307,298,1
307,309,307,299,1
306,307,308,300,1
306,305,308,301,1
306,302,308,304,1
307,300,309,306,1
309,300,310,309,1
310,300,311,314,1
311,302,311,317,1
311,305,312,321,1
310,309,313,323,1
307,313,313,323,1
304,316,313,322,1
303,317,312,320,1
303,316,312,318,1
305,315,312,317,1
307,314,313,315,1
309,314,312,311,1
310,315,312,306,1
310,314,311,302,1
310,313,311,299,1
308,312,311,298,1
305,310,312,299,1
301,309,311,300,1
298,307,311,303,1
298,306,310,308,1
302,306,311,314,1
306,308,314,321,1
309,310,317,329,1
312,311,319,336,1
314,313,320,341,1
315,314,318,343,1
314,314,315,341,1
310,314,312,339,1
306,314,309,336,1
302,315,307,331,1
300,316,305,327,1
298,316,303,322,1
295,316,300,317,1
291,316,299,312,1
288,314,298,306,1
290,312,299,303,1
300,310,302,302,1
309,309,305,301,1
317,307,308,300,1
322,305,309,299,1
328,304,310,299,1
332,304,311,302,1
335,305,311,305,1
334,306,312,307,1
329,308,312,308,1
320,309,311,306,1
310,311,310,301,1
302,311,308,295,1
295,311,305,287,1
291,311,302,281,1
288,311,300,275,1
287,311,299,271,1
287,311,299,268,1
287,311,298,269,1
291,311,298,273,1
296,310,298,279,1
301,310,298,285,1
307,308,298,290,1
311,308,298,295,1
314,307,300,299,1
316,307,301,301,1
317,307,302,303,1
317,307,302,303,1
317,306,302,303,1
317,306,302,301,1
317,306,303,300,1
318,308,303,301,1
319,309,303,303,1
319,311,303,306,1
319,312,303,309,1
317,313,304,311,1
313,313,304,311,1
311,313,305,310,1
310,313,306,310,1
308,312,307,308,1
305,310,307,307,1
303,309,306,307,1
304,308,306,306,1
305,307,306,306,1
308,307,306,307,1
311,307,308,307,1
313,308,309,308,1
315,310,310,309,1
316,312,311,309,1
314,313,310,308,1
312,313,309,308,1
309,313,307,308,1
305,312,306,307,1
301,311,304,305,1
296,310,303,300,1
292,308,302,292,1
289,306,301,285,1
290,304,301,280,1
294,304,302,277,1
298,304,303,275,1
301,304,304,275,1
304,304,305,274,1
309,304,305,275,1
312,303,306,275,1
314,303,306,278,1
315,303,306,282,1
315,304,307,288,1
314,306,308,293,1
314,307,308,298,1
313,309,309,300,1
311,310,309,301,1
309,310,308,300,1
305,310,307,299,1
301,310,306,298,1
298,309,306,296,1
297,309,306,296,1
296,309,306,296,1
298,309,305,297,1
301,309,302,299,1
305,309,299,305,1
310,309,296,311,1
313,309,294,316,1
312,308,294,319,1
310,308,295,319,1
309,307,299,318,1
310,306,304,316,1
312,306,309,312,1
315,306,313,307,1
319,307,316,303,1
322,308,316,300,1
323,310,316,300,1
322,312,315,301,1
320,312,313,303,1
318,313,311,307,1
316,313,310,311,1
315,313,310,316,1
313,312,310,318,1
311,311,309,317,1
309,310,308,313,1
307,309,306,308,1
304,308,305,303,1
303,306,303,297,1
303,305,302,292,1
305,303,301,290,1
308,302,302,290,1
312,301,303,291,1
315,301,303,293,1
319,301,304,295,1
321,302,305,296,1
321,303,305,296,1
319,304,305,297,1
316,304,305,297,1
312,304,304,297,1
308,305,304,298,1
305,305,304,298,1
304,306,305,300,1
305,307,305,303,1
305,307,306,305,1
305,308,306,308,1
305,309,307,310,1
305,310,307,311,1
305,310,307,312,1
305,309,307,313,1
304,308,306,314,1
304,308,305,316,1
304,309,305,317,1
304,310,305,317,1
304,312,306,316,1
303,313,306,316,1
303,314,306,317,1
303,315,306,316,1
304,317,306,314,1
304,318,305,313,1
304,318,303,310,1
304,316,302,307,1
304,314,301,304,1
304,312,300,303,1
305,312,301,303,1
305,311,301,306,1
304,309,302,310,1
301,308,303,316,1
299,306,305,324,1
297,305,306,332,1
297,304,307,337,1
300,303,307,338,1
303,303,307,338,1
305,304,307,336,1
307,306,307,332,1
309,309,306,324,1
313,311,306,317,1
317,312,306,311,1
320,314,306,306,1
321,315,306,303,1
318,315,305,300,1
313,314,304,298,1
306,313,304,298,1
301,313,305,300,1
296,312,307,303,1
293,311,307,305,1
291,310,307,306,1
291,309,306,306,1
292,307,305,304,1
294,305,303,300,1
298,303,302,295,1
304,302,300,290,1
310,300,297,287,1
314,298,294,285,1
315,297,292,285,1
312,297,290,286,1
307,296,289,288,1
299,297,290,290,1
289,298,293,293,1
284,298,298,297,1
287,299,304,302,1
295,301,308,306,1
302,303,312,308,1
305,305,314,310,1
305,309,315,311,1
303,312,315,310,1
300,312,314,310,1
299,312,313,312,1
303,310,311,315,1
308,309,309,318,1
312,307,308,319,1
314,307,306,317,1
315,307,305,314,1
315,307,306,309,1
315,308,307,304,1
316,309,307,300,1
318,310,308,298,1
321,310,308,297,1
322,310,306,297,1
318,310,304,296,1
311,311,302,296,1
304,311,301,296,1
297,312,299,296,1
293,312,297,296,1
292,313,296,295,1
294,313,295,293,1
298,312,294,290,1
304,310,295,288,1
309,308,295,287,1
313,307,296,287,1
317,305,296,288,1
317,302,295,290,1
313,301,293,292,1
307,300,292,293,1
300,300,291,295,1
292,301,292,297,1
287,303,294,299,1
287,305,297,302,1
290,308,299,305,1
296,311,300,307,1
301,312,302,307,1
307,314,302,309,1
312,314,303,310,1
316,314,303,312,1
317,314,302,313,1
316,313,302,315,1
313,313,301,316,1
309,312,300,315,1
306,310,300,314,1
304,308,299,312,1
303,306,299,309,1
304,304,299,306,1
306,304,300,304,1
310,304,300,303,1
314,304,299,304,1
317,304,298,305,1
319,305,298,308,1
320,305,298,312,1
320,306,299,316,1
318,307,300,318,1
314,308,301,320,1
309,309,301,318,1
305,310,301,317,1
302,310,300,314,1
300,311,300,311,1
298,311,300,306,1
298,311,300,302,1
298,310,300,298,1
297,309,300,295,1
297,308,300,293,1
296,306,300,292,1
297,305,301,292,1
299,304,302,293,1
301,304,303,294,1
304,304,304,295,1
306,306,305,297,1
307,307,306,299,1
307,309,307,302,1
307,310,308,304,1
307,310,307,306,1
306,310,306,308,1
305,310,305,310,1
304,309,304,312,1
304,309,303,312,1
304,308,304,312,1
304,308,303,312,1
303,307,303,312,1
300,307,303,314,1
297,305,304,318,1
295,304,305,323,1
294,302,306,329,1
295,302,307,335,1
300,302,308,337,1
307,303,310,336,1
315,305,311,333,1
321,307,310,328,1
320,309,307,324,1
317,312,304,321,1
313,315,301,320,1
309,317,300,320,1
305,319,300,321,1
303,319,304,321,1
303,319,308,319,1
305,318,312,316,1
306,317,315,312,1
306,315,316,310,1
306,314,317,309,1
306,313,317,311,1
306,312,317,315,1
306,311,317,320,1
305,310,317,321,1
305,309,316,320,1
304,309,316,318,1
301,308,317,317,1
296,308,318,317,1
288,308,318,316,1
282,308,316,314,1
280,308,313,311,1
281,308,310,307,1
287,308,307,305,1
296,309,306,304,1
306,309,305,304,1
311,308,305,303,1
312,307,305,303,1
311,306,306,302,1
308,306,308,303,1
304,307,309,303,1
300,308,310,302,1
297,307,311,300,1
296,307,311,298,1
296,306,311,296,1
297,306,311,295,1
298,305,311,295,1
301,305,312,295,1
305,305,312,295,1
311,305,312,296,1
314,305,312,297,1
316,306,312,299,1
316,307,313,301,1
314,308,313,304,1
311,309,313,310,1
309,312,313,318,1
306,314,313,323,1
303,317,313,324,1
300,319,312,322,1
298,320,312,316,1
296,319,311,309,1
294,316,309,299,1
294,313,308,290,1
296,310,307,283,1
299,308,307,280,1
303,305,307,279,1
305,303,308,279,1
305,302,309,282,1
309,303,309,286,1
318,304,311,290,1
327,306,311,292,1
330,307,311,295,1
328,309,310,296,1
323,310,309,297,1
318,311,307,297,1
312,313,305,295,1
306,314,302,292,1
301,314,298,290,1
299,315,295,290,1
299,314,293,291,1
300,313,293,292,1
303,312,294,293,1
305,310,295,295,1
307,309,298,297,1
308,307,301,299,1
310,305,304,301,1
313,304,305,301,1
316,303,307,301,1
318,302,307,301,1
318,304,308,301,1
317,306,309,303,1
312,308,309,302,1
304,310,309,301,1
296,312,309,298,1
290,312,308,295,1
287,313,307,293,1
288,313,306,292,1
293,312,305,292,1
301,311,305,294,1
308,310,305,295,1
312,309,305,296,1
313,308,305,296,1
311,306,304,296,1
308,305,303,296,1
307,304,303,298,1
305,304,303,300,1
305,304,304,302,1
306,303,306,306,1
309,303,307,310,1
312,302,307,314,1
314,302,307,318,1
314,302,307,323,1
313,303,306,328,1
310,304,306,331,1
305,306,306,334,1
297,309,307,335,1
288,312,308,331,1
279,313,308,324,1
276,313,309,315,1
282,314,309,306,1
290,314,309,299,1
298,313,308,294,1
304,312,308,290,1
307,310,308,288,1
309,307,308,288,1
310,303,308,288,1
308,300,309,288,1
307,299,309,289,1
307,298,309,289,1
310,298,309,288,1
312,298,308,287,1
313,298,306,286,1
312,298,304,285,1
309,299,303,286,1
304,299,303,288,1
298,300,302,290,1
293,301,303,292,1
291,302,304,294,1
290,302,304,297,1
288,303,304,300,1
290,304,304,303,1
298,306,304,305,1
306,306,304,305,1
310,307,304,305,1
312,307,304,306,1
313,307,304,309,1
312,307,304,313,1
310,307,305,318,1
306,307,306,323,1
303,307,308,327,1
301,308,308,328,1
301,308,306,325,1
303,309,303,319,1
309,308,301,311,1
315,308,300,307,1
318,308,301,306,1
318,308,301,309,1
317,308,301,310,1
314,309,301,309,1
311,309,301,305,1
307,309,300,300,1
303,309,300,296,1
302,308,301,293,1
302,307,301,291,1
304,305,302,292,1
307,304,302,293,1
309,303,303,296,1
310,303,303,300,1
309,303,304,306,1
307,304,305,312,1
303,306,305,317,1
298,307,302,320,1
292,307,299,321,1
287,308,296,321,1
282,308,293,319,1
278,309,293,315,1
276,310,294,312,1
278,311,297,310,1
286,310,302,311,1
297,310,306,312,1
306,310,309,314,1
309,310,311,315,1
309,309,311,314,1
307,308,310,312,1
304,307,309,309,1
301,305,308,305,1
298,303,308,299,1
296,301,308,293,1
298,301,308,288,1
302,301,308,288,1
305,304,308,290,1
307,306,308,294,1
308,308,307,300,1
306,309,307,304,1
303,310,306,307,1
299,310,305,309,1
295,310,304,307,1
292,310,304,304,1
289,308,304,300,1
288,306,302,296,1
286,304,301,293,1
286,301,301,291,1
289,298,302,289,1
293,296,302,287,1
298,294,302,285,1
303,294,301,284,1
308,295,301,285,1
311,296,301,286,1
312,298,301,289,1
310,300,301,292,1
306,302,302,295,1
303,305,303,297,1
299,308,304,299,1
297,310,305,303,1
296,312,306,307,1
300,314,307,311,1
305,316,307,315,1
309,317,308,317,1
312,318,308,317,1
314,318,308,312,1
317,317,308,306,1
319,314,307,299,1
319,311,305,294,1
316,307,304,291,1
312,304,304,290,1
306,301,304,291,1
300,299,305,295,1
297,298,307,300,1
297,298,308,306,1
300,299,310,314,1
304,302,312,322,1
308,306,313,329,1
311,309,313,334,1
312,311,312,337,1
311,312,311,339,1
310,312,310,338,1
310,311,310,332,1
309,309,308,321,1
308,307,306,308,1
306,305,306,299,1
305,304,305,293,1
304,304,305,290,1
305,304,305,287,1
306,304,306,286,1
307,304,307,286,1
305,303,307,288,1
303,302,307,291,1
301,301,308,295,1
300,301,308,298,1
299,302,309,302,1
300,302,310,304,1
302,303,310,306,1
304,304,309,305,1
305,305,308,305,1
307,306,307,306,1
308,307,307,311,1
309,308,306,317,1
309,309,304,322,1
307,310,300,322,1
305,309,297,320,1
302,308,293,315,1
299,307,290,310,1
297,306,290,306,1
297,304,293,304,1
297,302,298,303,1
296,301,302,303,1
295,300,305,304,1
294,300,308,306,1
292,301,309,307,1
292,303,310,308,1
295,306,310,309,1
299,309,310,310,1
304,311,309,311,1
308,313,308,312,1
309,314,308,314,1
308,314,307,313,1
306,313,307,312,1
304,311,305,309,1
302,308,305,307,1
300,305,305,306,1
297,303,304,306,1
292,300,303,306,1
286,299,303,307,1
283,299,302,308,1
283,300,302,308,1
288,302,302,308,1
297,304,302,308,1
309,306,303,309,1
319,308,305,311,1
324,310,307,315,1
325,312,309,317,1
324,314,310,318,1
320,314,310,317,1
318,313,310,315,1
316,312,309,313,1
315,310,308,310,1
313,309,307,308,1
309,308,306,306,1
303,307,305,304,1
297,307,303,303,1
291,306,301,302,1
288,305,299,303,1
289,303,299,304,1
293,302,299,306,1
298,301,300,310,1
303,302,302,314,1
309,303,305,319,1
316,305,308,321,1
320,307,310,322,1
323,310,311,323,1
323,312,312,324,1
321,314,312,323,1
320,315,312,322,1
318,316,312,321,1
316,316,312,321,1
313,317,312,319,1
311,316,312,317,1
309,315,312,315,1
307,315,312,314,1
305,314,311,314,1
303,313,310,316,1
302,311,310,319,1
300,310,310,322,1
297,308,309,325,1
297,306,308,329,1
302,304,309,332,1
310,304,309,332,1
317,305,310,328,1
322,308,310,322,1
323,310,310,317,1
324,312,311,314,1
325,313,311,314,1
326,314,312,318,1
327,314,311,324,1
326,314,310,327,1
321,313,308,326,1
315,311,306,321,1
309,310,305,315,1
305,310,303,307,1
302,310,303,299,1
300,310,303,292,1
300,310,304,288,1
300,311,306,287,1
302,311,307,290,1
304,311,309,294,1
308,311,310,298,1
311,310,310,301,1
311,310,308,303,1
309,310,305,304,1
305,310,302,302,1
302,311,300,300,1
299,312,299,299,1
297,313,299,298,1
296,313,301,296,1
297,314,304,295,1
298,314,306,293,1
299,313,308,293,1
298,313,309,292,1
295,313,310,293,1
293,311,310,292,1
294,309,309,291,1
296,307,308,289,1
299,305,308,288,1
303,303,308,288,1
309,301,308,287,1
316,301,308,287,1
321,301,309,286,1
324,301,309,286,1
324,302,309,287,1
323,304,310,289,1
321,306,311,291,1
319,309,312,294,1
317,311,311,297,1
314,313,311,300,1
312,315,310,304,1
311,316,309,308,1
309,316,308,313,1
305,316,307,318,1
300,317,306,322,1
297,317,305,324,1
296,317,304,321,1
298,315,302,314,1
301,313,300,305,1
305,310,299,295,1
310,307,299,289,1
315,305,299,287,1
316,303,300,288,1
314,301,302,292,1
312,301,304,299,1
311,302,306,305,1
310,304,307,309,1
309,306,308,311,1
308,309,307,309,1
308,311,306,306,1
307,313,305,303,1
305,314,304,299,1
302,314,303,298,1
299,313,303,300,1
296,312,304,304,1
295,311,304,306,1
293,309,304,305,1
291,306,304,300,1
290,302,304,295,1
298,300,303,291,1
309,298,303,289,1
321,298,303,289,1
330,299,304,291,1
337,301,305,294,1
338,303,306,298,1
335,305,306,302,1
328,307,306,305,1
320,309,305,308,1
313,311,304,311,1
309,312,304,315,1
307,314,305,322,1
306,316,305,328,1
306,317,306,333,1
305,319,307,335,1
306,319,308,334,1
305,319,308,329,1
305,318,307,321,1
303,316,306,313,1
302,313,305,306,1
301,309,303,299,1
301,305,302,294,1
301,302,301,291,1
302,300,300,292,1
303,298,301,294,1
304,298,301,298,1
305,299,303,300,1
304,300,306,300,1
302,302,307,299,1
298,304,308,297,1
294,307,308,295,1
291,309,307,295,1
289,310,307,297,1
289,310,307,300,1
292,310,306,304,1
298,310,307,308,1
306,310,307,311,1
311,309,308,313,1
313,307,308,313,1
313,305,308,313,1
310,303,307,313,1
305,302,304,314,1
301,302,300,314,1
297,303,297,313,1
295,304,294,312,1
294,305,292,311,1
297,307,292,312,1
301,309,295,315,1
305,312,301,317,1
307,314,306,318,1
307,314,308,316,1
309,313,309,313,1
310,311,308,308,1
311,309,306,304,1
311,308,305,299,1
310,307,305,295,1
306,307,304,291,1
302,306,302,287,1
299,304,301,284,1
297,302,300,283,1
298,301,299,283,1
301,299,300,286,1
307,299,301,290,1
312,298,303,294,1
315,299,305,298,1
314,300,306,302,1
311,302,308,305,1
305,303,308,306,1
300,305,308,306,1
298,306,306,307,1
300,307,305,307,1
304,308,303,309,1
307,309,303,311,1
308,310,302,312,1
308,310,302,311,1
307,309,301,309,1
306,308,300,305,1
304,306,299,302,1
304,305,299,299,1
308,303,299,297,1
312,302,300,297,1
315,301,301,299,1
315,300,301,303,1
314,301,303,310,1
314,303,305,317,1
312,305,306,323,1
310,307,307,328,1
309,309,308,330,1
305,311,308,331,1
302,312,308,329,1
298,312,308,326,1
295,311,307,321,1
294,310,306,315,1
295,309,305,308,1
298,307,304,302,1
301,307,303,296,1
304,306,303,292,1
306,306,302,289,1
306,305,302,287,1
306,304,301,285,1
306,302,300,285,1
307,301,300,286,1
310,300,299,289,1
312,300,300,294,1
313,300,301,299,1
311,301,302,304,1
308,302,303,309,1
305,305,304,316,1
304,308,304,321,1
305,311,304,324,1
306,314,305,324,1
307,315,305,322,1
308,315,305,320,1
307,315,304,318,1
305,314,302,315,1
303,314,301,313,1
297,314,299,309,1
290,312,297,304,1
285,310,296,301,1
281,308,296,298,1
278,305,297,296,1
277,303,299,295,1
278,302,299,296,1
285,301,297,299,1
296,302,295,302,1
307,304,293,304,1
315,306,291,304,1
318,308,291,302,1
319,311,293,299,1
318,313,297,298,1
316,314,302,298,1
312,315,306,300,1
308,314,309,302,1
304,314,310,305,1
300,313,310,306,1
297,312,309,307,1
294,311,308,306,1
290,310,308,306,1
287,310,307,305,1
286,308,305,306,1
288,307,305,308,1
293,306,306,312,1
299,306,307,316,1
305,305,307,319,1
311,305,308,321,1
314,306,308,321,1
311,307,309,318,1
307,307,309,314,1
303,309,309,310,1
302,310,309,308,1
302,311,310,308,1
302,312,309,309,1
299,312,309,310,1
296,312,307,310,1
293,312,306,310,1
294,312,306,310,1
297,311,305,309,1
303,311,305,308,1
308,310,304,307,1
312,309,304,305,1
313,307,304,302,1
313,305,304,298,1
311,304,304,297,1
310,304,303,297,1
308,304,304,299,1
308,305,304,302,1
308,306,305,304,1
310,307,305,305,1
311,308,305,307,1
311,309,305,309,1
310,310,304,311,1
307,311,303,312,1
305,312,302,313,1
302,313,303,314,1
299,313,303,315,1
294,311,304,316,1
293,311,305,319,1
297,310,307,323,1
304,309,308,327,1
310,309,309,330,1
313,309,308,331,1
314,308,308,329,1
314,307,307,323,1
312,305,305,318,1
313,304,304,314,1
315,304,303,311,1
319,306,302,308,1
321,308,302,304,1
321,310,301,300,1
318,311,301,295,1
313,312,301,291,1
306,312,301,289,1
297,313,300,288,1
286,312,299,289,1
275,310,298,291,1
266,308,299,296,1
260,306,300,298,1
257,304,301,299,1
259,303,301,298,1
271,302,301,298,1
290,301,300,298,1
309,300,299,299,1
323,300,298,301,1
331,300,297,304,1
335,300,297,308,1
335,301,297,313,1
333,302,299,316,1
330,304,303,317,1
329,307,306,315,1
327,307,308,312,1
324,308,309,308,1
320,308,309,304,1
315,308,308,301,1
310,307,307,298,1
305,307,305,297,1
303,306,305,298,1
301,306,305,298,1
298,305,307,298,1
292,304,308,299,1
286,303,308,300,1
281,301,308,300,1
281,299,309,301,1
283,297,309,301,1
287,296,310,301,1
293,295,311,303,1
302,295,312,305,1
310,297,313,309,1
317,299,314,315,1
320,302,314,321,1
321,304,313,325,1
319,305,312,328,1
317,306,311,327,1
314,306,311,324,1
311,306,310,322,1
308,306,310,321,1
306,307,310,320,1
304,308,309,318,1
303,307,308,316,1
303,305,306,311,1
303,303,305,305,1
304,300,304,298,1
305,297,304,292,1
307,295,304,288,1
308,293,304,287,1
308,292,304,287,1
307,291,305,288,1
307,291,305,290,1
307,293,305,293,1
307,295,305,295,1
305,297,304,297,1
301,300,304,300,1
300,303,303,304,1
301,305,303,308,1
301,306,303,312,1
301,307,304,316,1
300,306,303,319,1
300,305,304,321,1
300,304,304,322,1
300,304,305,323,1
302,304,305,322,1
305,305,306,320,1
308,306,306,319,1
310,306,306,320,1
311,306,306,318,1
311,306,306,315,1
309,307,306,311,1
306,308,306,305,1
303,308,306,299,1
300,308,305,293,1
297,308,304,288,1
293,308,303,284,1
288,308,302,282,1
285,308,301,281,1
287,308,300,282,1
291,308,300,286,1
296,307,301,290,1
302,306,302,293,1
308,305,302,297,1
312,304,302,300,1
313,304,301,304,1
315,304,301,310,1
316,305,300,317,1
317,306,300,322,1
316,306,301,324,1
315,307,301,324,1
312,307,300,322,1
309,308,298,319,1
305,309,296,316,1
303,310,294,312,1
305,310,292,308,1
308,310,292,303,1
310,310,295,299,1
311,310,299,297,1
310,310,303,295,1
309,310,305,294,1
307,309,306,292,1
305,308,306,291,1
305,306,304,290,1
303,304,302,289,1
301,302,300,287,1
298,300,298,285,1
297,298,297,283,1
299,297,297,282,1
304,297,297,282,1
306,297,298,284,1
308,298,299,288,1
311,300,300,295,1
314,302,302,303,1
316,304,303,313,1
318,307,304,322,1
317,309,305,331,1
314,310,305,337,1
312,311,305,339,1
310,311,305,339,1
310,312,306,336,1
310,312,307,331,1
310,311,305,326,1
310,310,303,320,1
310,308,300,312,1
309,306,298,304,1
308,303,297,298,1
309,302,297,293,1
309,301,297,288,1
309,300,298,284,1
308,300,298,281,1
305,299,298,280,1
301,300,298,280,1
300,302,298,280,1
300,303,298,281,1
302,304,299,282,1
304,305,299,282,1
305,305,299,284,1
306,305,298,286,1
305,306,298,287,1
304,306,299,289,1
304,307,300,291,1
302,309,301,293,1
301,309,301,296,1
300,310,301,298,1
297,309,301,301,1
293,308,300,304,1
290,307,300,310,1
293,306,301,319,1
300,308,303,328,1
307,309,305,338,1
313,312,308,347,1
315,314,311,354,1
315,317,313,359,1
311,318,313,362,1
307,319,312,361,1
305,320,311,356,1
305,319,310,345,1
308,319,309,331,1
312,318,308,318,1
316,316,307,307,1
317,314,307,298,1
318,312,307,291,1
317,310,306,285,1
315,308,304,279,1
312,307,303,275,1
308,305,302,272,1
303,303,302,271,1
298,302,301,272,1
291,301,301,274,1
285,301,299,276,1
284,302,298,279,1
289,303,297,281,1
296,304,295,284,1
302,306,292,286,1
304,307,289,287,1
303,308,287,288,1
298,308,286,287,1
292,308,286,287,1
290,308,288,287,1
295,308,294,290,1
304,308,301,293,1
312,308,306,297,1
317,308,311,301,1
319,308,313,304,1
320,308,314,307,1
320,307,313,309,1
319,306,312,311,1
318,305,311,312,1
317,304,310,315,1
318,304,309,319,1
318,304,309,324,1
318,305,311,328,1
318,306,312,331,1
316,307,312,333,1
311,309,312,332,1
306,310,311,330,1
301,311,311,325,1
296,311,310,318,1
291,311,310,313,1
286,311,309,309,1
286,310,310,309,1
288,309,310,310,1
294,309,311,311,1
300,308,311,313,1
306,306,310,313,1
311,304,310,314,1
314,302,309,315,1
317,301,309,315,1
317,301,310,314,1
314,301,310,313,1
309,301,311,314,1
303,302,311,313,1
296,303,310,312,1
290,304,309,310,1
286,304,309,308,1
284,304,307,306,1
284,304,305,304,1
288,303,303,304,1
293,303,302,305,1
298,303,302,307,1
303,303,301,309,1
306,304,302,311,1
307,304,302,313,1
308,303,303,315,1
308,303,303,317,1
308,302,304,318,1
308,301,305,316,1
309,299,305,313,1
309,298,306,311,1
309,299,305,310,1
310,301,305,310,1
310,303,305,310,1
310,305,305,309,1
310,307,305,308,1
310,307,305,308,1
310,307,305,307,1
309,306,305,306,1
308,306,305,306,1
306,306,303,307,1
304,307,301,309,1
304,307,297,310,1
306,308,295,310,1
307,307,293,310,1
308,305,292,309,1
307,303,292,308,1
305,299,295,308,1
302,296,299,308,1
300,294,302,308,1
303,293,304,309,1
306,293,306,310,1
307,295,307,309,1
306,298,308,308,1
305,302,309,310,1
304,305,310,313,1
303,308,311,316,1
300,310,311,319,1
298,310,311,322,1
298,310,312,324,1
298,309,311,326,1
298,308,311,328,1
298,307,310,331,1
301,307,309,333,1
304,308,308,334,1
306,309,306,332,1
309,308,305,328,1
312,308,303,323,1
314,306,303,318,1
317,304,304,315,1
319,303,304,313,1
321,301,303,311,1
322,300,302,308,1
321,300,301,307,1
318,300,302,307,1
313,300,305,308,1
306,300,306,309,1
297,301,307,309,1
289,301,306,308,1
281,301,307,309,1
276,301,307,311,1
276,302,308,314,1
283,304,308,316,1
292,304,308,316,1
301,304,307,317,1
308,304,307,320,1
312,305,306,325,1
314,305,306,328,1
313,304,305,329,1
312,305,306,328,1
311,305,306,323,1
312,305,306,319,1
314,306,306,314,1
314,307,306,309,1
312,309,306,302,1
309,309,306,296,1
306,310,306,292,1
303,310,305,290,1
302,310,305,290,1
302,309,304,290,1
305,309,302,290,1
309,308,302,289,1
312,308,301,288,1
315,306,300,286,1
314,304,299,284,1
311,302,298,285,1
307,301,298,289,1
305,300,298,295,1
304,301,300,301,1
304,302,302,307,1
304,303,303,312,1
304,305,304,316,1
306,307,306,317,1
310,308,306,316,1
313,309,306,315,1
314,310,304,315,1
315,310,302,315,1
316,312,301,315,1
316,312,300,311,1
313,312,300,304,1
309,310,302,298,1
309,309,304,293,1
310,308,307,292,1
309,308,310,293,1
306,307,312,296,1
302,307,312,298,1
300,305,310,301,1
300,303,308,303,1
302,302,306,305,1
305,301,305,307,1
308,301,305,309,1
313,302,305,311,1
316,303,306,314,1
316,305,307,318,1
314,308,308,322,1
309,310,309,325,1
305,311,310,326,1
300,311,310,324,1
297,310,309,321,1
295,308,309,318,1
296,307,309,317,1
299,306,308,317,1
302,307,308,318,1
305,308,308,318,1
306,309,307,315,1
305,309,307,312,1
306,309,306,308,1
308,309,305,305,1
310,308,305,303,1
312,307,306,301,1
314,306,308,299,1
314,305,309,299,1
313,305,309,300,1
312,305,309,305,1
311,306,308,311,1
312,307,307,318,1
315,309,307,325,1
318,310,307,329,1
319,312,307,329,1
318,313,308,327,1
315,314,307,325,1
311,316,306,322,1
306,316,306,317,1
301,315,305,309,1
298,313,305,301,1
296,310,304,293,1
295,307,303,288,1
297,304,302,284,1
299,301,301,282,1
303,299,302,283,1
308,298,302,286,1
312,298,304,291,1
314,298,305,294,1
315,299,306,297,1
315,300,306,298,1
314,302,307,298,1
311,302,308,297,1
308,302,308,297,1
306,301,307,296,1
303,300,306,295,1
301,299,305,294,1
301,298,304,293,1
302,298,304,293,1
302,297,303,294,1
301,297,304,296,1
299,296,303,298,1
297,296,301,301,1
296,295,299,304,1
297,295,299,308,1
299,296,298,312,1
299,297,299,316,1
299,298,302,322,1
304,300,308,329,1
309,302,314,335,1
312,305,318,339,1
315,307,320,340,1
317,309,320,336,1
316,309,319,329,1
313,308,318,322,1
310,308,318,317,1
309,307,318,316,1
309,307,319,317,1
307,307,319,318,1
305,308,318,317,1
303,308,316,313,1
300,307,314,308,1
295,305,311,302,1
291,303,307,296,1
288,300,304,293,1
286,298,303,292,1
285,296,302,293,1
287,296,301,295,1
292,297,302,299,1
298,300,302,303,1
305,302,304,307,1
311,304,306,308,1
317,306,307,309,1
321,309,308,310,1
323,310,309,310,1
324,311,309,308,1
323,311,308,305,1
322,311,308,302,1
320,310,307,300,1
318,310,307,298,1
315,308,306,296,1
312,307,307,296,1
311,306,307,297,1
310,304,307,299,1
310,303,308,303,1
312,302,308,307,1
316,301,309,310,1
320,300,310,314,1
323,300,310,317,1
324,301,310,319,1
322,303,309,319,1
317,304,307,317,1
312,305,305,314,1
307,306,304,312,1
303,307,303,310,1
301,307,303,308,1
300,307,303,306,1
299,307,303,306,1
298,307,303,307,1
298,306,302,307,1
299,304,302,308,1
301,301,303,310,1
302,298,303,314,1
303,296,303,319,1
303,295,303,323,1
300,295,303,323,1
295,295,303,320,1
291,295,304,316,1
288,297,304,312,1
288,299,306,309,1
288,301,307,307,1
291,303,309,306,1
300,306,310,304,1
309,307,311,301,1
315,309,311,297,1
317,309,309,294,1
317,309,306,291,1
317,308,302,291,1
315,308,297,291,1
311,308,294,293,1
305,307,292,295,1
298,305,292,297,1
291,304,294,300,1
286,302,299,303,1
283,301,303,306,1
283,300,307,310,1
291,299,310,313,1
302,299,312,316,1
311,299,314,319,1
315,300,314,321,1
316,301,313,323,1
314,301,312,325,1
311,302,311,327,1
305,303,310,329,1
301,304,310,330,1
299,305,310,329,1
300,305,309,326,1
300,305,309,320,1
302,304,308,315,1
305,303,308,314,1
307,303,307,315,1
310,303,306,317,1
314,302,306,316,1
315,302,305,311,1
316,302,305,305,1
316,302,305,299,1
316,303,304,296,1
315,304,305,296,1
315,305,305,298,1
315,306,305,300,1
315,307,306,304,1
315,308,305,307,1
314,308,305,307,1
312,307,305,307,1
310,307,304,303,1
308,306,303,300,1
306,305,302,296,1
305,304,301,293,1
305,304,300,289,1
304,303,300,285,1
304,303,299,284,1
304,301,298,285,1
305,299,297,288,1
308,298,298,292,1
312,297,299,296,1
317,296,300,300,1
320,296,301,304,1
320,295,301,307,1
317,296,302,308,1
315,297,302,305,1
313,298,302,303,1
311,300,302,301,1
307,302,302,302,1
304,303,302,304,1
300,304,301,307,1
297,304,301,312,1
295,304,301,315,1
294,304,301,317,1
296,305,301,317,1
298,306,302,315,1
297,306,304,313,1
293,305,304,309,1
288,304,304,306,1
284,301,304,304,1
284,300,303,303,1
286,298,304,303,1
290,297,305,303,1
296,296,307,303,1
300,296,310,303,1
306,297,311,304,1
315,299,312,304,1
322,299,312,305,1
326,300,311,305,1
326,301,311,306,1
324,301,310,307,1
322,300,310,309,1
320,300,308,313,1
319,300,306,317,1
319,301,304,321,1
319,303,302,324,1
318,305,301,325,1
316,305,300,323,1
313,305,300,319,1
310,304,301,316,1
309,302,302,313,1
310,299,303,310,1
312,296,305,308,1
313,294,307,306,1
313,294,310,304,1
311,294,312,302,1
309,297,312,300,1
308,298,311,300,1
307,300,309,299,1
305,301,307,299,1
302,302,305,299,1
300,302,304,302,1
298,302,304,305,1
297,303,305,309,1
299,304,306,312,1
302,305,307,313,1
305,306,308,313,1
307,306,308,311,1
309,304,308,308,1
309,302,308,306,1
311,300,308,305,1
313,299,308,307,1
315,299,309,311,1
315,300,309,314,1
317,300,309,317,1
318,301,309,321,1
320,302,308,325,1
319,303,308,330,1
316,304,307,333,1
312,306,307,334,1
308,307,307,333,1
305,308,306,330,1
304,308,306,324,1
302,308,305,318,1
301,307,304,312,1
300,306,304,309,1
299,305,303,306,1
297,305,301,301,1
297,304,299,294,1
298,302,298,289,1
303,300,298,285,1
310,297,299,282,1
318,295,300,281,1
326,295,301,282,1
330,295,303,284,1
328,296,305,287,1
321,297,306,289,1
309,299,307,291,1
296,301,307,292,1
285,303,306,293,1
281,304,305,293,1
283,305,305,293,1
287,305,305,293,1
289,305,305,294,1
293,306,306,295,1
297,307,307,297,1
301,307,307,300,1
302,307,308,302,1
302,306,308,304,1
304,305,308,308,1
309,305,309,312,1
313,305,311,318,1
315,306,312,324,1
316,308,314,332,1
315,311,316,341,1
313,314,317,346,1
312,318,318,350,1
312,321,318,350,1
310,322,317,348,1
308,323,315,343,1
305,322,312,336,1
304,321,308,326,1
305,319,304,316,1
310,317,300,307,1
313,315,297,300,1
314,313,294,295,1
314,312,291,292,1
312,310,292,290,1
311,308,295,289,1
309,307,299,289,1
308,306,303,290,1
307,304,307,292,1
305,303,310,295,1
301,302,312,298,1
298,301,313,302,1
294,301,312,306,1
292,302,310,308,1
292,302,309,309,1
294,303,307,309,1
299,304,306,309,1
305,305,305,309,1
309,306,305,308,1
312,308,305,307,1
314,308,306,305,1
315,309,306,305,1
315,309,306,305,1
313,309,306,305,1
311,309,305,306,1
309,308,305,308,1
308,306,305,310,1
308,305,306,313,1
309,304,307,314,1
310,304,307,313,1
309,304,307,311,1
308,304,307,309,1
307,305,308,307,1
307,308,308,306,1
308,310,308,305,1
310,311,307,303,1
310,311,305,301,1
308,310,304,299,1
306,309,302,299,1
301,309,302,301,1
296,308,302,306,1
290,309,303,316,1
286,311,304,326,1
282,312,306,334,1
282,313,307,338,1
285,313,307,336,1
291,312,306,328,1
298,309,305,318,1
304,306,305,307,1
310,304,306,299,1
319,304,307,294,1
326,303,309,290,1
330,303,310,287,1
327,303,310,286,1
320,304,309,287,1
312,305,308,288,1
306,307,308,290,1
303,309,308,292,1
303,311,308,296,1
304,313,308,301,1
305,315,307,306,1
304,316,307,309,1
304,315,306,309,1
304,314,306,308,1
304,313,305,305,1
305,311,306,304,1
306,310,306,303,1
307,309,305,303,1
308,307,305,304,1
308,306,305,305,1
310,305,305,305,1
313,305,305,304,1
316,305,306,304,1
317,306,308,305,1
315,307,308,306,1
313,308,307,307,1
310,309,306,309,1
308,310,304,309,1
306,311,303,307,1
305,311,302,304,1
301,311,301,300,1
297,312,300,297,1
292,312,297,294,1
286,312,295,293,1
281,312,292,293,1
278,311,291,293,1
280,310,290,292,1
284,308,292,292,1
293,307,295,295,1
305,306,300,299,1
314,305,304,304,1
318,306,308,307,1
319,307,309,310,1
318,308,310,310,1
317,309,309,309,1
314,310,308,308,1
313,311,307,307,1
312,311,307,307,1
313,311,306,308,1
313,312,305,309,1
313,312,304,310,1
310,311,303,309,1
305,310,301,307,1
298,308,299,306,1
291,306,298,305,1
285,303,296,304,1
283,301,295,302,1
284,299,295,300,1
288,297,295,302,1
295,297,296,306,1
303,297,297,312,1
309,299,298,317,1
313,301,299,319,1
313,303,300,319,1
311,306,301,317,1
309,309,302,315,1
307,311,302,312,1
307,312,303,310,1
307,313,304,310,1
308,313,304,310,1
308,313,305,308,1
307,312,305,305,1
306,311,306,299,1
304,310,306,294,1
302,309,306,289,1
301,307,305,288,1
301,306,304,288,1
300,305,304,289,1
299,305,303,291,1
297,304,302,292,1
296,304,302,292,1
295,303,303,293,1
295,303,304,293,1
296,303,304,293,1
296,303,304,294,1
299,305,303,296,1
304,306,304,299,1
310,307,305,303,1
313,309,306,306,1
313,310,307,310,1
308,310,307,313,1
303,310,306,316,1
302,309,305,318,1
304,309,304,318,1
305,309,302,314,1
306,308,301,308,1
306,308,300,302,1
307,308,299,298,1
310,308,300,297,1
311,309,302,298,1
312,310,303,301,1
310,312,305,305,1
308,314,305,309,1
304,315,305,313,1
301,316,305,317,1
301,317,305,321,1
303,317,305,323,1
305,317,305,323,1
307,317,305,323,1
309,316,305,322,1
310,316,305,320,1
312,315,305,319,1
313,314,305,316,1
313,313,305,312,1
314,312,303,306,1
316,309,299,301,1
318,306,296,297,1
318,304,294,296,1
316,303,292,297,1
310,303,293,301,1
300,303,297,306,1
290,305,303,312,1
283,307,308,317,1
281,310,312,320,1
283,312,315,323,1
289,313,317,324,1
295,314,317,323,1
299,314,317,321,1
303,314,315,317,1
307,314,314,315,1
313,314,312,315,1
315,314,311,314,1
316,313,309,313,1
315,312,306,311,1
313,311,303,309,1
313,310,301,307,1
314,310,301,309,1
317,310,301,312,1
319,310,303,316,1
318,310,304,319,1
315,309,304,322,1
311,310,304,322,1
307,310,305,321,1
303,311,305,319,1
300,312,305,315,1
300,313,304,310,1
301,313,304,305,1
302,313,304,301,1
303,313,303,299,1
303,313,303,299,1
303,313,303,300,1
304,314,303,303,1
304,314,303,306,1
303,313,303,308,1
299,312,303,310,1
295,310,303,311,1
291,308,303,310,1
290,304,303,310,1
290,302,303,311,1
289,301,303,313,1
289,302,304,316,1
296,305,305,318,1
306,307,306,317,1
315,310,307,314,1
320,313,307,309,1
321,314,306,304,1
318,315,304,299,1
314,315,303,296,1
311,315,303,298,1
311,315,302,302,1
310,315,302,307,1
310,315,302,310,1
309,315,303,310,1
308,314,303,307,1
307,313,303,302,1
307,311,302,297,1
308,309,302,292,1
310,307,302,288,1
313,304,302,288,1
315,302,302,289,1
315,301,303,293,1
314,301,304,297,1
312,302,304,302,1
308,303,306,306,1
303,304,306,309,1
296,304,306,308,1
290,304,306,307,1
284,305,307,307,1
282,307,307,308,1
283,307,307,309,1
289,308,307,309,1
297,308,306,309,1
306,308,303,309,1
311,307,300,310,1
312,306,296,309,1
310,305,294,308,1
307,304,291,307,1
305,303,291,306,1
305,303,295,306,1
307,302,300,306,1
311,302,305,306,1
318,303,310,308,1
323,304,313,310,1
325,305,316,314,1
324,307,317,316,1
321,308,317,320,1
319,310,316,323,1
319,311,315,326,1
321,312,313,327,1
324,313,311,327,1
324,313,309,325,1
320,311,306,318,1
310,310,302,309,1
301,308,299,301,1
296,307,299,296,1
296,306,302,294,1
299,306,305,295,1
302,307,309,299,1
304,308,312,303,1
306,310,314,307,1
306,312,317,311,1
307,313,318,314,1
307,315,319,316,1
307,317,319,317,1
307,318,318,316,1
308,319,317,315,1
308,319,315,314,1
307,319,313,313,1
307,318,312,312,1
306,318,311,313,1
305,317,311,313,1
304,317,309,314,1
301,316,308,312,1
298,315,307,309,1
295,313,305,305,1
292,311,304,303,1
289,309,303,303,1
285,307,302,305,1
280,306,301,307,1
279,305,300,309,1
283,304,300,308,1
289,304,301,306,1
297,305,302,301,1
307,307,303,298,1
317,309,303,298,1
323,312,304,301,1
326,314,305,303,1
325,314,306,305,1
322,315,307,306,1
319,316,307,306,1
316,316,307,303,1
314,315,307,300,1
311,313,306,297,1
309,311,304,296,1
307,309,304,295,1
306,306,303,295,1
305,303,303,296,1
305,302,303,299,1
305,302,304,304,1
305,303,305,310,1
306,306,306,317,1
306,309,307,322,1
307,312,308,325,1
308,315,307,327,1
309,317,305,326,1
310,317,301,325,1
311,317,297,322,1
309,317,293,317,1
305,316,289,310,1
301,315,290,303,1
296,315,293,297,1
294,314,298,291,1
293,314,302,288,1
295,313,306,285,1
298,312,308,284,1
300,310,310,283,1
302,308,310,284,1
303,307,310,286,1
302,307,310,288,1
301,307,309,290,1
301,307,310,293,1
304,308,311,296,1
306,309,312,301,1
306,310,314,304,1
305,311,313,307,1
304,312,313,308,1
304,313,312,310,1
305,314,311,311,1
306,315,309,311,1
307,314,307,309,1
308,313,304,306,1
309,312,302,304,1
309,310,301,303,1
310,308,299,302,1
312,306,298,300,1
313,303,298,296,1
312,300,298,294,1
309,298,298,294,1
304,296,299,296,1
296,294,299,298,1
288,294,299,300,1
282,295,299,302,1
282,297,301,303,1
289,299,303,303,1
299,301,305,302,1
308,303,307,301,1
312,305,307,301,1
312,307,308,302,1
307,309,308,305,1
303,310,308,307,1
302,311,308,309,1
305,311,308,312,1
310,311,308,313,1
314,311,308,313,1
315,310,308,310,1
316,309,307,305,1
315,307,306,302,1
314,304,305,299,1
312,302,305,296,1
310,300,304,295,1
307,299,304,295,1
306,300,304,297,1
306,302,304,301,1
305,305,305,307,1
303,308,305,313,1
300,310,305,316,1
298,311,306,317,1
298,312,307,316,1
302,311,307,313,1
307,311,308,309,1
313,311,308,306,1
318,312,310,305,1
320,313,310,304,1
321,313,310,304,1
319,313,308,304,1
316,312,308,304,1
314,311,308,305,1
311,310,308,307,1
306,309,308,308,1
304,308,308,308,1
306,308,307,307,1
309,308,308,307,1
312,309,308,308,1
313,310,308,308,1
311,311,307,306,1
309,311,306,304,1
306,312,305,302,1
304,312,305,302,1
301,313,304,303,1
300,311,300,303,1
298,310,297,305,1
297,309,294,308,1
296,308,293,312,1
297,307,293,315,1
298,306,296,315,1
301,304,299,311,1
305,302,303,304,1
307,300,306,301,1
306,299,310,300,1
303,299,312,302,1
299,299,314,305,1
297,300,314,306,1
298,301,314,307,1
304,303,313,307,1
310,305,312,308,1
314,308,311,307,1
315,310,309,304,1
312,311,308,300,1
307,311,307,295,1
302,311,307,291,1
299,309,307,288,1
299,308,306,287,1
302,307,306,288,1
307,306,306,289,1
313,305,306,291,1
319,304,306,293,1
324,303,307,295,1
327,302,307,299,1
328,302,308,303,1
326,302,309,307,1
323,303,310,312,1
318,304,311,315,1
312,306,311,316,1
307,307,311,316,1
303,308,310,316,1
302,308,309,315,1
302,308,309,314,1
305,307,309,312,1
309,307,308,309,1
313,307,308,304,1
312,306,308,299,1
306,304,308,293,1
298,302,306,288,1
292,301,305,284,1
289,300,303,281,1
291,299,301,281,1
296,298,301,283,1
302,298,301,288,1
307,297,303,295,1
311,298,306,302,1
314,299,310,310,1
317,301,313,317,1
318,303,315,323,1
317,305,315,327,1
314,308,314,330,1
311,312,313,331,1
309,314,312,331,1
307,317,311,331,1
305,318,311,333,1
304,318,310,337,1
304,318,310,339,1
304,317,310,337,1
303,315,309,332,1
302,313,309,325,1
302,312,309,316,1
302,309,308,307,1
302,306,307,301,1
302,302,307,299,1
302,300,307,300,1
302,298,308,304,1
301,298,309,307,1
300,298,309,310,1
299,299,310,311,1
298,301,310,310,1
295,302,309,308,1
291,304,309,306,1
291,305,309,304,1
293,306,308,304,1
293,308,308,303,1
293,309,304,302,1
294,309,301,301,1
297,308,298,300,1
301,308,295,300,1
308,308,296,302,1
316,307,299,305,1
322,306,303,309,1
325,304,306,313,1
324,302,308,315,1
321,300,309,316,1
318,299,311,314,1
315,299,313,311,1
312,299,314,307,1
309,300,314,302,1
307,302,313,298,1
303,304,312,296,1
300,306,310,295,1
300,308,308,296,1
302,310,307,299,1
304,311,306,303,1
305,312,306,306,1
305,312,305,309,1
303,312,305,311,1
302,312,304,313,1
302,311,304,315,1
302,310,304,317,1
303,308,305,319,1
305,305,306,320,1
306,303,306,320,1
307,301,306,320,1
307,300,305,318,1
307,299,304,315,1
308,299,303,311,1
311,300,303,308,1
314,302,304,305,1
316,303,304,302,1
314,304,304,299,1
309,304,302,296,1
304,304,301,294,1
300,304,299,292,1
300,304,299,292,1
303,304,299,293,1
307,304,299,296,1
311,305,301,300,1
313,306,302,302,1
314,307,302,302,1
313,306,303,302,1
313,306,304,304,1
311,305,304,305,1
309,305,304,306,1
309,305,304,307,1
309,306,304,307,1
306,307,305,308,1
303,308,305,311,1
300,310,306,315,1
294,312,307,319,1
289,313,306,320,1
285,314,306,318,1
285,314,305,315,1
289,313,305,312,1
294,312,305,309,1
299,311,306,306,1
303,310,307,303,1
305,309,308,301,1
305,308,308,299,1
306,306,307,299,1
312,304,306,300,1
319,303,305,302,1
323,302,305,305,1
324,301,304,309,1
323,302,305,314,1
322,302,304,318,1
319,302,303,319,1
318,304,302,319,1
316,305,300,318,1
315,307,299,316,1
314,307,298,314,1
313,307,299,312,1
312,306,301,311,1
311,306,304,311,1
311,306,307,310,1
312,307,309,308,1
312,306,310,304,1
311,305,309,299,1
309,303,307,297,1
306,301,305,295,1
303,299,304,294,1
300,298,303,294,1
298,297,302,294,1
296,298,303,294,1
296,297,303,294,1
297,297,304,294,1
300,297,304,295,1
301,298,303,296,1
302,300,302,297,1
304,303,303,298,1
305,305,303,298,1
306,307,304,298,1
306,308,305,299,1
305,309,306,300,1
305,309,307,302,1
305,309,307,305,1
305,308,307,309,1
305,308,308,315,1
307,306,308,319,1
309,305,308,322,1
312,303,308,324,1
315,300,306,323,1
314,299,305,319,1
313,297,304,316,1
312,296,305,312,1
312,296,306,308,1
310,297,307,305,1
307,299,308,302,1
303,302,309,300,1
299,304,309,299,1
291,307,310,300,1
282,309,309,301,1
273,311,309,303,1
266,311,308,305,1
265,311,308,307,1
270,310,308,307,1
280,309,308,307,1
291,307,307,306,1
302,306,307,305,1
310,304,306,304,1
316,302,305,302,1
321,300,304,300,1
323,299,304,298,1
326,299,305,298,1
329,300,307,299,1
331,301,309,301,1
332,303,310,304,1
333,305,312,306,1
332,306,312,308,1
330,308,313,311,1
326,310,312,316,1
321,311,311,321,1
317,312,310,324,1
314,312,309,324,1
313,311,308,321,1
310,312,306,317,1
308,311,306,313,1
305,311,306,308,1
302,310,306,304,1
301,308,307,300,1
300,307,306,298,1
296,305,305,298,1
292,303,304,301,1
292,302,303,303,1
297,300,301,306,1
302,300,299,308,1
307,300,297,311,1
310,301,295,312,1
313,303,294,312,1
314,305,294,312,1
316,307,297,311,1
315,309,301,310,1
315,309,304,307,1
315,310,307,302,1
314,309,310,297,1
313,308,312,293,1
312,308,314,292,1
309,308,315,293,1
305,308,316,294,1
298,308,316,295,1
291,308,315,297,1
285,308,314,298,1
281,307,312,299,1
280,306,311,300,1
282,304,311,303,1
288,303,311,308,1
295,303,312,313,1
301,304,313,318,1
308,306,315,321,1
313,309,314,321,1
316,310,312,318,1
317,311,309,313,1
318,311,306,307,1
319,311,305,302,1
320,311,305,299,1
320,310,305,297,1
319,309,305,297,1
317,308,305,298,1
314,306,306,299,1
310,305,306,300,1
306,303,306,302,1
300,301,306,303,1
294,299,306,303,1
291,298,305,303,1
290,298,305,302,1
290,297,305,301,1
290,297,305,301,1
294,298,306,302,1
299,300,307,304,1
307,302,308,307,1
316,303,309,310,1
326,304,309,312,1
331,304,309,313,1
332,304,308,313,1
330,304,307,312,1
327,303,305,310,1
324,302,304,308,1
321,302,304,305,1
317,301,305,304,1
314,300,304,303,1
311,299,304,304,1
306,299,304,306,1
301,298,303,309,1
297,298,303,312,1
297,298,303,314,1
302,299,304,315,1
307,301,305,315,1
310,303,307,312,1
312,305,307,306,1
313,307,308,300,1
313,308,308,297,1
313,309,308,295,1
314,310,308,294,1
315,311,308,294,1
314,311,307,296,1
311,312,306,300,1
308,311,306,308,1
305,311,305,318,1
301,310,306,328,1
298,309,306,335,1
296,307,306,338,1
294,305,305,337,1
292,304,305,333,1
292,302,304,325,1
297,301,304,318,1
301,301,304,313,1
304,302,304,312,1
305,303,305,312,1
304,305,305,313,1
305,306,306,315,1
306,306,306,314,1
308,307,305,313,1
311,306,303,310,1
314,306,301,305,1
314,306,297,298,1
314,305,294,292,1
312,304,292,287,1
309,302,292,284,1
307,301,295,283,1
304,299,299,283,1
301,298,302,284,1
298,296,303,284,1
297,293,305,285,1
297,292,306,288,1
297,292,307,292,1
298,293,308,298,1
299,294,309,303,1
300,296,310,308,1
298,298,310,312,1
297,301,310,314,1
297,303,310,315,1
298,304,309,315,1
301,304,308,314,1
303,304,307,314,1
303,304,307,315,1
301,303,307,316,1
297,303,308,317,1
295,303,308,317,1
294,303,307,315,1
293,302,306,310,1
294,301,304,304,1
296,301,302,300,1
302,300,302,298,1
308,299,302,298,1
312,298,302,300,1
313,298,303,303,1
314,298,304,306,1
316,299,305,308,1
316,302,306,309,1
316,305,306,310,1
314,308,305,311,1
312,311,304,312,1
310,312,304,316,1
308,313,303,321,1
307,313,303,326,1
307,311,303,330,1
308,308,303,330,1
308,305,302,328,1
308,303,301,323,1
305,300,298,315,1
302,297,297,307,1
299,295,296,299,1
299,293,296,293,1
301,293,297,289,1
305,293,299,287,1
309,294,301,287,1
309,296,303,293,1
307,299,305,300,1
302,301,306,307,1
298,303,307,312,1
295,305,307,315,1
295,306,307,315,1
297,305,307,314,1
301,305,307,314,1
306,304,306,313,1
312,303,306,313,1
316,302,305,313,1
316,301,304,311,1
315,300,303,308,1
313,299,303,305,1
311,299,301,301,1
311,299,301,298,1
313,298,301,295,1
317,298,302,293,1
320,298,303,292,1
321,298,304,292,1
320,298,305,292,1
319,299,306,293,1
316,300,307,293,1
310,301,306,293,1
299,301,305,292,1
287,301,303,291,1
280,300,301,291,1
275,299,299,291,1
274,299,299,294,1
280,299,299,297,1
289,300,301,300,1
297,302,303,303,1
302,304,305,306,1
307,305,307,312,1
312,305,308,316,1
315,305,309,319,1
316,305,310,320,1
316,304,310,318,1
315,303,310,315,1
314,301,310,311,1
313,301,309,306,1
313,300,308,302,1
313,301,308,300,1
311,301,308,298,1
308,302,308,297,1
305,303,308,294,1
299,303,307,292,1
294,304,307,291,1
292,306,307,289,1
291,307,306,287,1
293,307,306,286,1
297,306,306,283,1
300,305,305,282,1
304,304,304,282,1
308,302,304,285,1
313,301,304,289,1
316,301,304,293,1
318,301,305,297,1
314,301,306,301,1
308,302,306,304,1
302,303,306,307,1
298,303,306,310,1
297,304,307,311,1
299,304,306,311,1
301,304,306,313,1
301,304,306,316,1
301,305,306,321,1
306,306,305,324,1
313,308,304,325,1
315,310,301,321,1
313,310,298,315,1
308,309,294,306,1
303,308,292,299,1
300,306,290,292,1
298,303,291,288,1
296,301,293,287,1
295,298,297,288,1
294,296,300,293,1
297,295,304,302,1
303,296,309,313,1
314,297,313,325,1
327,299,317,336,1
338,302,320,345,1
343,305,321,349,1
342,308,320,348,1
336,310,319,339,1
327,310,318,326,1
315,310,315,313,1
304,309,313,303,1
291,308,310,296,1
280,307,308,291,1
273,307,306,289,1
273,306,304,290,1
279,306,304,295,1
288,305,304,302,1
298,304,306,307,1
307,303,308,308,1
312,301,309,307,1
314,299,310,305,1
314,298,310,302,1
313,297,310,299,1
310,298,309,297,1
308,300,310,296,1
306,302,310,295,1
