315,314,315,304,0
316,302,318,304,0
315,303,319,304,0
314,311,321,306,0
313,318,321,309,0
312,323,321,313,0
312,323,320,317,0
312,320,319,318,0
309,317,318,315,0
305,315,316,308,0
301,311,314,299,0
300,299,312,292,0
299,285,312,287,0
300,273,313,286,0
302,269,314,287,0
304,269,316,288,0
306,269,316,290,0
306,265,317,291,0
306,265,319,295,0
307,273,320,300,0
309,287,322,306,0
311,305,323,310,0
312,323,324,314,0
313,336,324,318,0
314,341,325,319,0
313,337,325,319,0
311,327,324,316,0
307,311,323,314,0
302,297,322,313,0
299,291,322,312,0
297,293,323,311,0
298,301,323,311,0
299,309,324,311,0
301,314,324,308,0
301,316,324,305,0
299,318,324,301,0
298,319,323,298,0
299,317,320,298,0
302,311,318,302,0
304,303,317,309,0
305,297,317,318,0
306,293,317,325,0
306,294,317,332,0
305,297,318,336,0
303,302,318,336,0
302,307,319,334,0
300,310,319,328,0
298,307,318,321,0
296,302,317,314,0
294,300,316,309,0
292,301,316,308,0
293,301,317,311,0
296,296,319,315,0
299,288,320,318,0
301,281,320,319,0
303,276,320,319,0
304,276,319,317,0
307,283,319,315,0
309,292,318,311,0
311,300,317,308,0
306,305,316,304,0
301,308,316,302,0
297,307,315,299,0
294,307,315,296,0
293,309,314,292,0
292,312,313,287,0
292,315,311,284,0
293,316,311,281,0
296,312,311,279,0
298,307,311,277,0
300,303,310,277,0
302,300,310,277,0
303,297,310,278,0
305,291,309,279,0
307,285,309,281,0
308,280,309,284,0
309,276,310,289,0
309,272,310,294,0
309,270,312,300,0
308,268,313,305,0
307,271,314,310,0
306,283,315,314,0
307,299,316,319,0
308,312,316,323,0
309,321,317,326,0
310,329,317,328,0
310,334,318,329,0
308,338,318,328,0
304,340,318,325,0
301,340,317,320,0
299,337,317,315,0
298,330,316,309,0
297,319,315,303,0
297,302,314,300,0
296,291,311,298,0
294,292,309,298,0
295,299,307,300,0
296,298,306,306,0
298,292,305,314,0
300,288,306,324,0
302,287,308,332,0
302,290,309,338,0
304,295,311,341,0
306,300,313,340,0
307,304,313,335,0
308,307,313,327,0
308,309,312,318,0
308,309,311,310,0
307,306,311,302,0
306,303,311,296,0
306,299,311,293,0
305,297,310,292,0
303,295,310,291,0
300,295,309,293,0
298,299,307,294,0
296,303,306,295,0
296,305,305,297,0
296,306,305,300,0
296,306,306,303,0
297,308,307,306,0
298,309,308,309,0
298,305,308,312,0
298,297,308,314,0
298,289,309,315,0
300,286,309,314,0
302,289,310,312,0
304,295,310,308,0
306,301,309,305,0
308,305,308,303,0
308,302,307,301,0
307,295,306,299,0
307,289,306,297,0
308,286,306,296,0
310,284,307,295,0
310,285,309,294,0
311,290,311,294,0
312,297,311,292,0
311,300,311,289,0
309,297,309,287,0
306,290,309,287,0
304,283,309,288,0
304,277,311,292,0
304,276,313,296,0
304,282,315,302,0
303,294,316,306,0
301,306,316,308,0
298,313,316,308,0
297,312,315,307,0
298,305,314,305,0
299,296,313,303,0
300,289,311,301,0
301,287,309,299,0
302,292,307,297,0
303,300,306,295,0
304,306,305,295,0
304,308,305,295,0
305,304,305,297,0
306,296,306,301,0
306,286,307,306,0
305,283,309,312,0
305,281,311,318,0
306,278,313,323,0
308,276,315,326,0
310,278,317,329,0
311,281,319,330,0
311,282,320,330,0
312,289,320,329,0
313,300,320,328,0
315,314,320,326,0
317,324,319,323,0
319,329,318,319,0
317,327,316,315,0
311,325,315,311,0
304,321,313,309,0
300,317,312,306,0
298,310,311,304,0
297,302,310,303,0
299,297,310,304,0
302,296,309,306,0
304,295,309,307,0
306,297,308,307,0
306,301,308,307,0
307,307,309,306,0
306,314,309,307,0
305,323,310,307,0
303,330,310,308,0
302,335,310,311,0
301,339,311,314,0
302,341,312,318,0
303,340,313,323,0
306,333,314,329,0
308,323,316,334,0
311,313,317,337,0
314,303,318,338,0
316,295,318,336,0
317,291,319,331,0
315,289,318,324,0
313,291,317,314,0
311,294,316,305,0
309,298,314,295,0
309,303,313,287,0
309,303,312,283,0
309,297,312,282,0
308,289,313,284,0
306,282,314,287,0
304,279,314,290,0
300,278,313,291,0
297,280,313,291,0
296,288,313,291,0
295,297,313,292,0
295,301,313,295,0
296,303,313,297,0
298,303,313,299,0
300,304,314,301,0
303,303,315,302,0
305,300,316,305,0
307,295,315,307,0
308,287,315,308,0
308,278,314,308,0
307,272,314,308,0
306,271,313,308,0
307,278,313,308,0
310,289,314,308,0
314,301,316,308,0
316,311,316,308,0
317,319,317,307,0
317,325,317,307,0
317,328,316,307,0
318,331,315,308,0
317,334,314,308,0
314,335,314,308,0
308,335,314,309,0
303,334,314,309,0
301,329,314,308,0
300,321,313,305,0
300,314,311,300,0
301,305,307,296,0
303,298,305,292,0
305,294,304,291,0
306,291,304,293,0
307,288,305,295,0
308,286,305,297,0
309,286,306,300,0
308,288,306,302,0
306,293,306,304,0
305,301,306,305,0
303,311,307,306,0
301,319,307,307,0
302,323,308,306,0
303,321,309,305,0
304,312,310,303,0
304,299,311,304,0
303,286,312,306,0
302,276,312,309,0
303,276,313,311,0
305,281,313,313,0
306,286,312,314,0
306,290,311,314,0
305,295,311,315,0
305,302,312,316,0
305,312,314,317,0
308,324,315,317,0
310,332,317,316,0
311,334,318,315,0
311,324,318,312,0
310,310,318,310,0
309,298,316,309,0
308,291,315,308,0
307,287,314,306,0
307,287,313,304,0
307,286,311,302,0
308,282,309,302,0
307,279,308,302,0
305,279,307,303,0
304,282,306,304,0
303,288,306,307,0
304,296,304,312,0
306,303,302,316,0
309,308,301,319,0
311,313,301,319,0
313,318,300,318,0
314,321,301,316,0
314,323,302,314,0
313,323,304,313,0
312,321,305,311,0
311,316,306,307,0
310,311,306,303,0
309,306,305,298,0
309,300,304,292,0
309,297,303,288,0
311,299,302,286,0
310,305,301,284,0
304,312,301,283,0
298,315,300,282,0
298,316,301,282,0
300,314,301,284,0
304,307,301,287,0
308,300,302,289,0
312,299,303,293,0
315,302,305,299,0
316,305,309,305,0
313,307,311,310,0
311,309,314,314,0
308,311,315,316,0
306,314,317,315,0
304,319,317,314,0
304,324,317,312,0
304,326,316,311,0
304,327,315,311,0
304,326,313,313,0
304,323,311,316,0
304,320,310,321,0
303,318,308,327,0
303,316,308,332,0
303,314,308,336,0
303,311,307,337,0
303,307,307,333,0
304,302,307,327,0
304,296,307,320,0
304,286,307,311,0
303,274,306,303,0
300,268,306,296,0
298,269,307,290,0
298,277,307,288,0
300,284,308,289,0
301,287,309,292,0
303,291,309,295,0
305,298,309,298,0
307,306,309,300,0
309,312,308,301,0
311,317,307,300,0
311,321,306,299,0
308,321,304,296,0
304,316,303,292,0
300,309,301,289,0
298,301,300,287,0
298,294,299,286,0
298,288,298,286,0
301,288,298,286,0
305,290,299,288,0
310,290,301,290,0
314,287,303,294,0
316,287,306,299,0
318,292,307,308,0
318,301,309,318,0
317,310,310,328,0
316,315,311,334,0
314,317,312,336,0
310,316,311,335,0
307,314,311,331,0
303,314,311,325,0
300,316,311,319,0
300,319,311,315,0
304,320,311,312,0
307,319,309,309,0
308,318,307,304,0
307,316,304,299,0
305,313,301,293,0
303,311,299,286,0
301,312,298,281,0
300,313,298,278,0
301,310,299,278,0
302,308,301,279,0
302,307,302,283,0
302,306,304,287,0
302,309,305,291,0
303,315,307,294,0
306,321,307,296,0
310,322,306,297,0
313,320,306,297,0
312,315,306,299,0
309,309,307,301,0
305,304,307,303,0
303,300,308,304,0
301,298,308,303,0
300,299,308,302,0
301,301,307,302,0
302,304,308,304,0
304,307,309,310,0
305,307,311,320,0
307,303,313,330,0
308,294,315,341,0
307,284,317,348,0
307,277,318,351,0
307,276,318,350,0
307,276,316,345,0
309,274,314,337,0
313,271,314,328,0
319,271,314,318,0
322,274,314,309,0
319,280,312,300,0
313,287,310,292,0
306,292,308,286,0
300,299,307,284,0
294,307,305,285,0
289,318,304,287,0
287,332,303,288,0
287,341,302,290,0
288,346,302,290,0
290,344,304,291,0
291,335,306,292,0
292,320,308,294,0
292,303,310,296,0
292,289,311,297,0
291,280,313,297,0
292,275,313,296,0
292,274,312,293,0
292,279,310,292,0
294,291,309,292,0
296,306,308,295,0
298,315,309,299,0
300,319,310,304,0
301,320,311,310,0
301,320,311,314,0
300,320,311,316,0
300,318,309,315,0
299,316,307,311,0
300,313,306,309,0
302,307,306,308,0
305,298,308,308,0
308,293,309,308,0
311,294,311,308,0
312,300,312,308,0
311,304,313,309,0
309,307,314,311,0
306,309,314,315,0
306,310,314,320,0
307,310,314,324,0
307,311,312,326,0
306,313,310,328,0
305,311,308,329,0
304,304,307,328,0
303,297,307,325,0
303,292,306,320,0
303,290,306,314,0
304,289,306,306,0
307,292,306,301,0
310,299,307,298,0
311,307,307,296,0
311,314,307,295,0
312,315,307,294,0
311,312,309,293,0
310,305,310,293,0
307,299,312,296,0
305,295,312,299,0
303,294,312,304,0
303,295,311,308,0
303,299,310,311,0
305,304,310,313,0
308,307,309,315,0
310,307,309,314,0
312,303,308,310,0
312,301,306,303,0
312,303,305,295,0
311,309,303,290,0
311,312,301,288,0
310,311,299,288,0
309,307,297,290,0
311,301,298,293,0
312,297,298,297,0
311,298,299,301,0
309,302,300,305,0
308,307,302,308,0
307,310,305,311,0
307,313,307,315,0
307,314,308,318,0
307,314,308,322,0
305,313,308,325,0
303,310,307,326,0
299,305,305,325,0
296,300,303,322,0
294,299,302,319,0
296,303,301,316,0
301,312,302,313,0
307,323,302,310,0
313,331,301,307,0
315,333,300,304,0
311,332,299,302,0
306,330,299,301,0
303,327,298,302,0
302,319,298,305,0
304,307,298,309,0
307,296,299,313,0
311,290,301,317,0
314,289,303,318,0
315,292,305,317,0
313,299,307,314,0
311,309,308,312,0
307,316,309,310,0
305,317,310,308,0
303,312,310,308,0
302,306,310,309,0
301,305,309,311,0
302,308,307,317,0
305,312,306,324,0
308,312,305,331,0
312,310,303,337,0
315,305,302,341,0
315,299,301,343,0
313,298,301,344,0
310,301,302,342,0
308,307,303,339,0
306,312,304,333,0
303,313,305,325,0
300,309,306,316,0
297,299,307,305,0
297,289,308,294,0
299,285,307,287,0
303,291,307,283,0
304,302,306,284,0
304,313,305,291,0
303,321,305,300,0
303,327,305,309,0
306,331,305,314,0
308,329,306,317,0
309,326,307,316,0
308,323,307,313,0
307,320,306,309,0
306,316,306,306,0
307,313,307,304,0
308,311,306,303,0
310,311,306,300,0
312,309,305,296,0
315,303,306,293,0
316,293,306,292,0
314,279,307,292,0
310,265,307,294,0
304,255,306,295,0
298,254,306,297,0
296,263,305,299,0
296,279,304,301,0
297,297,303,302,0
298,314,302,302,0
300,325,301,302,0
302,330,301,305,0
303,327,301,307,0
304,319,301,309,0
305,309,302,309,0
305,299,303,309,0
305,287,304,308,0
304,278,306,310,0
304,275,308,312,0
304,275,310,314,0
305,280,311,317,0
307,288,312,318,0
308,297,311,318,0
308,311,309,315,0
306,324,307,310,0
303,330,305,305,0
298,330,303,301,0
294,325,302,299,0
292,317,301,297,0
293,307,300,296,0
297,295,300,294,0
304,287,298,293,0
313,283,296,292,0
320,282,296,294,0
324,286,297,297,0
328,296,298,302,0
331,313,300,308,0
327,328,302,314,0
320,335,304,319,0
313,334,305,322,0
308,327,307,324,0
305,321,309,325,0
305,320,311,325,0
309,319,314,323,0
313,317,314,319,0
313,315,314,314,0
311,314,313,309,0
309,314,311,303,0
307,311,309,299,0
307,305,309,299,0
309,297,309,301,0
310,289,309,304,0
312,283,308,305,0
312,281,307,304,0
311,282,306,301,0
309,286,305,298,0
309,285,305,296,0
311,283,306,296,0
313,282,307,298,0
315,283,309,302,0
316,284,312,306,0
316,288,314,311,0
315,301,316,315,0
313,322,317,318,0
312,337,317,319,0
310,339,315,315,0
309,330,313,308,0
307,315,310,301,0
305,302,308,295,0
304,293,306,291,0
302,289,306,291,0
301,291,305,296,0
302,296,304,302,0
303,302,304,309,0
305,308,304,313,0
308,312,304,315,0
309,311,305,315,0
311,306,306,314,0
313,300,307,314,0
315,295,309,315,0
316,296,311,315,0
316,305,313,313,0
316,313,315,312,0
316,314,316,311,0
315,314,316,313,0
314,315,315,316,0
314,316,315,319,0
313,319,315,321,0
312,320,314,321,0
309,318,313,319,0
307,313,311,313,0
306,307,308,304,0
306,302,304,295,0
307,300,301,289,0
309,302,300,286,0
309,305,299,285,0
309,313,299,282,0
309,320,298,281,0
309,327,299,279,0
311,330,301,279,0
312,325,303,281,0
312,313,305,282,0
310,300,307,283,0
306,290,307,284,0
303,280,306,285,0
300,272,306,287,0
298,269,306,291,0
299,276,307,295,0
301,292,307,300,0
305,307,307,303,0
306,314,306,305,0
305,316,305,306,0
305,315,305,307,0
307,313,305,309,0
311,311,305,311,0
316,311,305,315,0
321,311,304,318,0
324,312,304,322,0
319,314,305,325,0
311,315,306,326,0
302,314,307,324,0
294,308,308,319,0
290,299,308,314,0
288,291,309,310,0
288,285,308,306,0
290,280,307,303,0
293,274,306,301,0
297,270,306,302,0
302,272,307,304,0
307,280,307,307,0
311,289,308,312,0
314,297,309,315,0
316,303,308,315,0
316,308,307,313,0
315,311,305,310,0
314,312,305,308,0
314,311,304,306,0
315,311,304,307,0
316,312,305,309,0
316,314,306,312,0
316,313,307,317,0
316,310,308,322,0
313,305,309,325,0
311,298,310,326,0
308,290,311,326,0
307,285,311,325,0
305,287,312,324,0
305,298,313,323,0
305,311,313,322,0
305,319,312,320,0
304,323,310,318,0
302,326,309,316,0
300,327,308,315,0
299,326,307,315,0
302,323,307,315,0
309,320,308,314,0
317,317,309,313,0
323,314,309,311,0
325,310,309,309,0
322,305,309,306,0
316,302,309,301,0
310,301,309,296,0
306,304,309,290,0
304,309,309,286,0
303,315,310,286,0
304,320,310,287,0
304,321,310,290,0
304,317,308,293,0
303,307,306,294,0
303,294,304,295,0
303,285,303,296,0
303,282,302,297,0
304,283,302,297,0
305,283,301,298,0
306,281,300,297,0
307,278,300,297,0
309,274,301,297,0
310,270,302,299,0
311,271,304,302,0
311,273,306,304,0
312,277,308,306,0
312,280,309,308,0
312,279,310,310,0
309,271,309,309,0
305,260,308,307,0
301,252,307,303,0
298,258,306,298,0
297,280,307,294,0
299,301,306,292,0
299,315,304,292,0
300,323,302,294,0
301,327,300,296,0
303,329,300,299,0
305,329,301,303,0
307,327,301,306,0
309,323,302,309,0
310,319,304,312,0
310,316,306,315,0
309,317,307,318,0
309,320,309,318,0
309,324,309,317,0
308,327,309,314,0
307,331,309,312,0
305,336,307,309,0
303,339,306,305,0
302,340,305,303,0
301,337,304,300,0
302,327,303,298,0
302,312,302,294,0
304,298,300,290,0
307,288,299,287,0
310,282,298,285,0
312,281,299,287,0
312,285,300,291,0
312,296,301,297,0
310,309,302,304,0
307,318,304,310,0
304,321,306,315,0
302,319,308,319,0
302,315,311,323,0
304,310,313,327,0
307,307,315,329,0
307,306,316,329,0
304,306,317,330,0
301,308,316,331,0
297,311,314,332,0
296,313,312,333,0
295,315,311,333,0
295,317,311,334,0
295,317,311,336,0
294,317,310,336,0
292,313,310,336,0
290,308,309,334,0
289,303,308,331,0
292,302,307,327,0
297,303,307,321,0
302,307,307,314,0
307,306,308,307,0
311,298,309,300,0
312,285,310,295,0
313,272,312,293,0
313,263,312,291,0
313,260,312,290,0
311,265,312,292,0
310,278,311,294,0
309,297,310,298,0
308,314,310,303,0
306,324,309,308,0
305,326,309,312,0
303,324,309,315,0
302,325,309,316,0
301,328,308,316,0
300,328,308,316,0
299,323,307,314,0
298,317,305,313,0
300,313,304,311,0
304,311,303,309,0
309,310,303,306,0
313,308,304,303,0
314,307,305,300,0
313,307,306,300,0
311,307,307,299,0
309,307,308,299,0
308,307,310,299,0
310,306,311,298,0
310,304,311,297,0
309,303,311,297,0
307,303,310,297,0
305,305,310,299,0
304,314,311,302,0
303,326,310,304,0
301,337,308,305,0
298,341,306,304,0
298,339,304,303,0
301,331,302,302,0
306,317,302,302,0
312,303,304,303,0
312,293,307,305,0
312,287,311,309,0
312,286,315,312,0
313,286,316,315,0
312,287,316,317,0
309,289,316,318,0
305,295,315,319,0
303,305,313,319,0
303,316,311,318,0
303,322,308,318,0
306,324,306,318,0
310,322,303,319,0
311,317,302,320,0
307,309,301,319,0
303,303,302,317,0
300,300,303,314,0
298,300,304,311,0
297,302,305,311,0
296,304,306,313,0
296,302,307,316,0
298,295,308,316,0
298,284,308,313,0
299,273,307,307,0
302,260,306,302,0
305,257,307,298,0
308,271,307,296,0
310,292,308,295,0
311,311,309,296,0
310,322,310,298,0
310,328,310,299,0
309,333,310,299,0
308,335,310,299,0
308,334,310,299,0
309,331,309,300,0
309,325,309,302,0
309,319,309,307,0
309,313,309,315,0
309,308,310,323,0
310,304,310,329,0
311,302,309,330,0
311,300,309,327,0
311,301,309,321,0
311,300,308,314,0
311,297,308,305,0
311,295,307,298,0
313,302,307,293,0
314,316,307,291,0
312,331,306,290,0
310,342,305,290,0
308,345,305,292,0
306,342,305,295,0
307,336,305,299,0
309,330,306,302,0
311,324,306,303,0
311,320,306,302,0
310,315,306,301,0
310,307,307,301,0
311,299,307,301,0
312,294,308,301,0
311,291,308,301,0
308,288,308,301,0
307,283,307,302,0
307,279,307,302,0
309,275,308,303,0
310,273,308,306,0
311,278,308,309,0
309,286,308,313,0
307,296,308,315,0
305,302,307,316,0
305,304,305,315,0
306,305,303,312,0
307,303,302,308,0
307,300,300,304,0
306,303,300,301,0
304,313,299,299,0
301,325,300,298,0
299,331,301,300,0
297,331,302,305,0
296,328,304,313,0
297,324,307,322,0
301,320,309,330,0
307,317,311,335,0
312,317,312,337,0
316,322,313,335,0
318,328,313,330,0
319,333,312,322,0
318,338,311,314,0
316,340,309,305,0
314,341,307,297,0
310,339,305,290,0
308,336,304,285,0
306,329,303,282,0
306,319,304,280,0
306,310,306,282,0
306,302,308,285,0
306,292,308,290,0
306,283,308,296,0
306,277,307,304,0
307,278,308,310,0
309,288,308,315,0
310,298,308,318,0
312,307,307,319,0
313,313,306,320,0
316,320,306,319,0
318,326,306,319,0
316,334,305,317,0
310,338,303,316,0
304,334,302,315,0
300,329,301,315,0
301,325,301,315,0
303,321,302,315,0
305,317,303,314,0
306,312,303,313,0
308,307,303,310,0
309,303,302,306,0
310,299,301,300,0
310,295,301,295,0
309,294,300,292,0
309,295,300,291,0
309,298,301,291,0
312,301,302,293,0
314,305,303,295,0
314,307,306,297,0
311,308,308,297,0
308,306,310,298,0
305,303,312,298,0
303,296,312,298,0
303,290,313,300,0
302,291,313,300,0
302,303,312,301,0
303,322,310,301,0
305,340,309,300,0
305,351,307,299,0
305,354,305,299,0
305,350,304,300,0
307,344,303,303,0
308,339,303,306,0
309,334,303,310,0
308,328,304,313,0
306,321,304,318,0
304,314,304,324,0
303,307,305,330,0
303,303,308,335,0
305,302,310,338,0
307,304,313,337,0
307,304,315,333,0
306,301,315,326,0
304,296,315,320,0
304,289,315,315,0
304,284,315,310,0
304,283,314,307,0
305,286,313,305,0
307,289,311,305,0
307,291,310,306,0
306,291,309,308,0
305,289,309,311,0
304,288,309,313,0
304,289,308,316,0
304,293,307,318,0
306,300,305,318,0
309,308,304,317,0
313,313,304,318,0
318,315,305,319,0
321,316,308,320,0
322,316,310,321,0
321,315,311,321,0
318,316,311,319,0
314,316,309,316,0
310,315,308,311,0
308,315,306,307,0
307,319,305,305,0
307,322,304,304,0
307,329,304,305,0
307,336,303,307,0
307,341,304,309,0
306,343,304,310,0
305,341,304,313,0
305,338,303,318,0
306,332,301,324,0
309,325,300,330,0
313,318,301,334,0
315,310,303,336,0
316,307,306,336,0
316,307,309,335,0
316,311,312,334,0
316,312,314,332,0
315,308,314,330,0
312,300,314,327,0
306,294,314,323,0
302,294,314,319,0
298,300,315,314,0
296,312,315,310,0
295,329,316,309,0
295,344,317,309,0
296,349,317,311,0
296,342,317,312,0
297,328,315,312,0
297,313,312,312,0
298,304,309,310,0
299,299,307,308,0
303,299,307,304,0
309,298,308,301,0
314,294,308,299,0
315,285,308,296,0
313,272,307,295,0
309,261,306,295,0
306,256,305,299,0
304,261,306,306,0
304,276,307,315,0
302,293,307,322,0
297,308,307,325,0
292,319,307,325,0
290,323,306,322,0
291,323,305,318,0
293,316,305,312,0
295,306,304,306,0
297,294,303,300,0
298,282,302,297,0
300,271,302,296,0
303,263,303,296,0
304,260,303,297,0
305,259,304,299,0
306,260,306,300,0
306,265,307,303,0
304,276,309,307,0
301,287,310,312,0
299,299,310,315,0
298,313,309,316,0
299,324,308,316,0
302,330,307,315,0
308,334,306,312,0
310,339,306,308,0
310,343,305,304,0
308,347,305,301,0
304,351,305,298,0
301,349,304,297,0
298,339,304,297,0
298,322,304,297,0
300,302,304,298,0
303,286,304,298,0
304,277,304,298,0
305,272,303,297,0
304,271,303,296,0
302,276,303,296,0
300,290,305,297,0
300,307,306,298,0
301,318,308,299,0
303,323,308,302,0
303,323,308,305,0
304,321,307,309,0
303,315,306,314,0
302,310,305,317,0
300,309,304,320,0
298,310,304,321,0
296,312,302,320,0
297,311,302,317,0
299,306,302,312,0
302,299,302,307,0
302,292,303,303,0
301,283,303,301,0
300,275,304,301,0
298,268,306,302,0
295,263,308,302,0
292,266,309,301,0
292,279,310,300,0
294,303,310,300,0
297,330,310,299,0
301,349,309,299,0
303,353,307,300,0
305,344,307,302,0
305,329,307,307,0
305,317,307,313,0
304,307,309,318,0
303,303,310,324,0
304,300,312,331,0
306,299,313,336,0
308,298,313,339,0
309,299,311,339,0
308,302,309,337,0
306,303,306,335,0
305,302,304,333,0
304,299,304,332,0
304,297,304,330,0
306,298,305,326,0
309,299,305,319,0
312,298,305,312,0
314,296,304,306,0
309,292,304,300,0
303,288,303,296,0
299,287,302,293,0
298,290,301,291,0
300,297,302,291,0
303,303,302,291,0
306,306,302,290,0
309,306,301,288,0
313,303,301,286,0
315,302,302,285,0
317,303,304,287,0
317,303,307,289,0
315,304,309,292,0
312,309,309,294,0
309,315,309,297,0
307,320,308,298,0
305,320,308,298,0
304,318,308,299,0
304,315,308,300,0
304,310,309,302,0
304,305,309,303,0
302,304,309,304,0
301,306,310,305,0
299,307,310,306,0
298,307,309,306,0
298,306,309,307,0
299,306,308,307,0
299,306,307,307,0
299,306,305,307,0
299,304,303,307,0
299,304,302,307,0
301,303,301,309,0
302,303,302,311,0
304,303,303,314,0
304,303,304,316,0
303,301,305,318,0
301,299,307,320,0
297,298,309,324,0
294,298,311,328,0
291,298,312,332,0
290,301,313,337,0
292,305,314,342,0
296,308,315,347,0
300,311,315,348,0
304,310,314,345,0
306,308,312,338,0
308,305,309,330,0
309,304,306,322,0
309,305,304,314,0
309,304,302,306,0
309,304,300,301,0
309,302,298,296,0
309,300,298,295,0
309,301,299,299,0
310,303,301,306,0
311,306,304,312,0
312,307,306,315,0
311,308,307,317,0
308,311,307,316,0
304,314,307,315,0
300,317,307,312,0
297,319,307,309,0
296,320,307,307,0
296,322,308,304,0
299,324,308,300,0
302,325,307,295,0
305,322,306,290,0
308,319,304,287,0
311,319,303,285,0
312,321,303,284,0
312,327,302,283,0
312,330,302,285,0
311,327,303,288,0
310,322,304,292,0
308,317,304,295,0
306,310,305,297,0
305,303,306,299,0
304,299,307,300,0
303,297,309,300,0
304,298,310,301,0
304,300,312,302,0
305,300,312,302,0
305,301,311,301,0
305,305,308,301,0
305,309,304,302,0
305,311,301,304,0
304,312,299,305,0
304,310,297,306,0
303,307,296,306,0
302,304,295,306,0
301,299,295,306,0
301,291,296,305,0
300,285,297,305,0
300,282,299,308,0
303,286,303,313,0
309,295,307,317,0
314,303,310,319,0
317,310,310,319,0
319,314,308,319,0
319,317,306,318,0
315,316,303,318,0
308,315,302,318,0
303,316,302,318,0
300,319,301,317,0
298,322,301,316,0
298,325,300,314,0
297,327,300,312,0
298,327,300,310,0
298,324,300,307,0
300,318,299,304,0
303,311,298,302,0
306,305,297,300,0
307,303,298,300,0
308,303,299,303,0
309,303,301,307,0
310,302,303,311,0
311,303,306,315,0
311,307,308,318,0
310,314,309,321,0
309,323,308,322,0
306,333,307,321,0
304,336,304,318,0
303,329,301,313,0
302,316,299,306,0
301,301,298,299,0
299,286,296,293,0
298,270,295,289,0
299,262,295,288,0
300,263,295,290,0
302,268,296,293,0
304,272,297,298,0
307,272,297,301,0
311,270,299,304,0
314,272,301,307,0
317,280,302,310,0
319,293,304,311,0
320,303,306,312,0
320,306,308,309,0
319,303,309,305,0
314,299,308,301,0
306,302,307,296,0
299,309,305,294,0
294,316,304,297,0
292,325,303,303,0
292,332,302,309,0
293,335,302,314,0
295,333,303,316,0
296,328,303,315,0
296,323,304,312,0
297,319,304,309,0
298,315,305,305,0
300,312,307,303,0
302,310,308,302,0
304,309,310,302,0
306,309,311,303,0
308,309,312,304,0
308,310,313,305,0
308,312,314,305,0
308,314,314,304,0
307,315,314,303,0
307,316,314,303,0
305,316,313,304,0
304,315,313,305,0
304,314,312,307,0
304,314,311,308,0
304,314,309,309,0
304,317,307,309,0
304,326,305,308,0
302,337,303,305,0
300,344,301,300,0
298,341,297,295,0
296,329,294,291,0
297,309,294,292,0
300,281,298,296,0
304,258,304,303,0
308,250,310,310,0
310,258,314,315,0
310,273,317,318,0
307,285,317,318,0
303,294,317,316,0
298,299,315,312,0
294,302,313,308,0
295,304,312,304,0
298,305,310,302,0
302,306,309,300,0
306,306,307,299,0
308,308,304,299,0
310,309,302,301,0
311,308,301,302,0
312,307,301,303,0
312,305,300,303,0
312,305,300,303,0
313,305,301,302,0
314,307,302,300,0
315,308,304,297,0
316,310,305,296,0
316,310,306,295,0
315,307,307,296,0
313,301,307,297,0
308,293,308,298,0
304,282,308,298,0
301,270,308,298,0
298,257,307,296,0
298,255,306,295,0
302,272,306,296,0
310,302,306,297,0
316,326,305,296,0
313,338,303,293,0
304,337,300,289,0
297,327,300,288,0
294,315,301,288,0
296,305,303,289,0
301,301,305,291,0
306,299,306,292,0
307,299,308,293,0
305,299,310,294,0
304,299,312,296,0
303,300,314,299,0
303,304,315,301,0
303,308,314,304,0
303,313,313,306,0
302,316,312,311,0
301,318,312,320,0
301,318,313,331,0
300,318,314,342,0
299,318,316,351,0
299,320,318,355,0
300,321,319,355,0
300,321,319,351,0
301,320,320,345,0
303,318,319,338,0
305,316,318,331,0
307,313,317,323,0
308,311,315,314,0
309,309,313,304,0
309,308,311,294,0
308,308,310,287,0
307,309,308,282,0
306,311,307,279,0
305,313,305,281,0
304,317,304,286,0
303,320,303,294,0
302,323,303,303,0
299,325,303,309,0
295,326,303,313,0
291,322,303,313,0
289,315,302,310,0
293,309,302,305,0
300,305,302,298,0
307,302,302,291,0
312,299,303,287,0
315,294,304,286,0
317,286,305,288,0
318,277,307,291,0
318,272,309,297,0
317,274,310,304,0
315,283,312,313,0
314,295,313,320,0
312,305,314,325,0
310,313,314,327,0
307,318,312,325,0
304,318,311,319,0
301,315,309,310,0
299,311,309,301,0
298,307,309,294,0
299,302,308,288,0
302,298,307,285,0
304,298,306,282,0
304,302,304,282,0
305,307,303,282,0
306,313,303,283,0
308,318,303,284,0
308,322,304,285,0
308,321,305,286,0
307,318,306,288,0
307,313,308,291,0
308,310,311,295,0
309,305,313,299,0
309,298,314,301,0
309,293,313,301,0
308,291,312,300,0
306,294,311,299,0
304,299,310,299,0
302,303,309,298,0
301,307,308,297,0
302,307,306,295,0
304,303,305,295,0
306,299,304,297,0
305,296,305,299,0
302,294,305,301,0
301,292,305,304,0
301,293,305,306,0
302,294,305,306,0
304,295,306,307,0
306,295,307,310,0
308,293,308,314,0
308,291,309,317,0
307,293,309,319,0
305,296,309,320,0
303,301,308,319,0
302,304,307,317,0
301,307,306,316,0
300,306,304,315,0
299,305,304,315,0
298,306,304,315,0
298,310,304,318,0
298,315,304,324,0
299,320,303,332,0
301,325,303,338,0
303,330,304,343,0
304,334,304,345,0
305,337,304,345,0
307,338,306,342,0
309,337,308,339,0
311,331,311,335,0
311,319,313,331,0
310,303,314,326,0
309,288,313,321,0
307,276,312,318,0
305,275,311,315,0
304,283,310,313,0
301,291,308,308,0
300,296,307,303,0
300,298,306,297,0
301,301,306,293,0
302,305,307,291,0
303,310,307,293,0
303,315,307,297,0
302,319,306,302,0
300,321,306,309,0
298,323,305,314,0
298,323,304,315,0
299,323,304,313,0
305,320,304,309,0
313,318,305,303,0
321,316,305,297,0
325,313,305,293,0
320,311,305,292,0
312,308,306,292,0
304,303,306,294,0
300,297,306,294,0
297,293,305,292,0
295,291,304,288,0
293,291,303,283,0
291,290,301,280,0
290,291,300,278,0
290,294,300,279,0
293,296,301,282,0
296,293,303,287,0
300,291,305,292,0
304,294,307,298,0
308,299,308,303,0
310,303,309,308,0
311,306,311,313,0
311,307,313,318,0
312,307,317,323,0
314,305,320,326,0
314,303,321,328,0
312,301,320,327,0
310,298,318,324,0
308,294,316,321,0
307,291,315,318,0
307,291,312,314,0
306,293,310,311,0
306,297,307,309,0
305,302,305,306,0
305,306,304,302,0
304,310,302,298,0
303,312,301,294,0
302,313,300,292,0
302,312,299,292,0
303,313,300,294,0
305,312,301,297,0
306,309,303,299,0
307,304,305,301,0
307,298,307,303,0
307,290,309,305,0
307,280,310,307,0
307,272,310,309,0
307,274,311,310,0
308,287,311,314,0
310,301,312,320,0
312,310,313,326,0
312,315,314,332,0
312,320,314,337,0
312,323,314,341,0
312,324,313,345,0
312,324,312,346,0
311,323,310,342,0
311,321,309,336,0
310,317,308,327,0
310,313,306,316,0
310,307,306,305,0
310,303,306,296,0
311,304,306,290,0
312,307,306,285,0
313,310,306,283,0
313,311,306,283,0
312,312,307,283,0
310,310,307,284,0
309,309,307,285,0
309,309,307,288,0
310,309,308,291,0
310,308,308,295,0
309,305,308,299,0
308,302,309,305,0
305,301,311,311,0
302,303,311,319,0
301,306,311,327,0
301,312,311,331,0
302,321,310,334,0
303,331,310,334,0
305,337,310,334,0
308,338,310,332,0
312,334,311,329,0
317,324,311,325,0
320,310,310,318,0
323,294,309,310,0
326,281,307,303,0
327,277,306,299,0
321,285,306,298,0
311,295,307,299,0
301,302,308,300,0
294,303,308,301,0
291,303,309,301,0
293,302,310,299,0
296,302,311,298,0
298,304,311,297,0
299,304,310,298,0
300,303,310,299,0
300,301,310,301,0
301,298,309,302,0
301,294,309,303,0
302,287,309,303,0
302,281,309,304,0
301,277,309,304,0
302,280,311,306,0
304,290,312,308,0
305,299,313,308,0
306,305,313,307,0
307,307,312,306,0
308,306,312,305,0
308,302,311,307,0
308,297,310,309,0
307,291,310,311,0
305,285,310,312,0
304,278,309,311,0
302,274,309,309,0
301,276,308,305,0
301,283,307,300,0
301,292,306,296,0
301,302,305,292,0
303,312,305,290,0
306,321,306,288,0
309,326,307,287,0
311,329,308,288,0
311,332,309,291,0
311,335,311,296,0
310,335,313,302,0
310,334,314,308,0
309,332,314,314,0
308,331,314,318,0
306,329,314,320,0
304,328,313,321,0
303,326,312,320,0
303,324,311,317,0
304,323,310,315,0
304,322,309,313,0
305,320,308,314,0
306,318,307,318,0
307,316,308,324,0
309,315,309,328,0
311,314,310,329,0
313,311,310,329,0
315,308,311,325,0
317,303,311,321,0
315,299,312,316,0
311,298,312,310,0
304,300,312,305,0
299,302,311,303,0
295,302,310,302,0
295,298,309,303,0
296,293,308,304,0
298,289,307,304,0
301,287,306,301,0
302,285,305,299,0
303,281,305,297,0
304,278,305,294,0
306,277,304,290,0
307,280,303,287,0
307,289,302,285,0
303,299,301,284,0
299,304,301,285,0
297,305,301,286,0
299,302,301,288,0
302,298,302,290,0
304,295,304,292,0
305,295,306,295,0
306,301,308,298,0
306,308,310,302,0
306,315,311,307,0
307,321,312,309,0
306,327,313,312,0
306,332,313,314,0
306,335,313,314,0
305,335,312,314,0
304,332,311,314,0
304,323,309,314,0
304,312,307,315,0
305,298,306,315,0
305,285,305,315,0
307,276,304,315,0
309,272,304,316,0
312,275,304,318,0
314,282,305,318,0
316,294,305,318,0
317,311,305,316,0
315,329,305,315,0
314,343,305,313,0
313,349,305,309,0
312,346,304,304,0
312,340,304,300,0
313,332,304,297,0
312,325,303,296,0
307,322,304,297,0
302,321,304,300,0
300,321,304,303,0
299,318,304,308,0
299,312,304,311,0
299,303,303,314,0
300,295,303,317,0
302,288,303,318,0
302,282,303,317,0
301,279,304,315,0
300,279,304,311,0
298,282,304,308,0
299,291,304,306,0
302,302,305,307,0
307,309,307,308,0
313,308,308,309,0
316,303,309,312,0
315,297,310,314,0
310,295,311,316,0
306,298,311,317,0
301,304,311,316,0
299,309,310,314,0
297,306,310,310,0
297,297,310,307,0
297,287,309,304,0
297,281,308,301,0
297,282,307,299,0
297,287,306,298,0
297,291,305,297,0
299,294,305,298,0
302,297,307,301,0
304,300,309,305,0
303,306,310,310,0
301,313,311,316,0
300,318,311,322,0
298,319,310,327,0
298,314,309,328,0
301,306,308,328,0
304,300,306,326,0
306,297,305,322,0
307,299,304,318,0
309,304,303,313,0
310,309,303,308,0
311,313,302,302,0
312,314,301,299,0
312,314,300,299,0
312,313,300,302,0
313,311,301,305,0
314,308,303,309,0
315,304,304,311,0
315,299,305,312,0
314,295,306,312,0
313,293,307,312,0
312,291,308,312,0
311,288,307,309,0
309,286,307,305,0
306,288,305,299,0
304,295,304,293,0
301,302,302,290,0
299,311,302,289,0
299,324,302,290,0
301,334,302,293,0
303,340,303,296,0
305,340,302,297,0
305,335,301,298,0
306,326,299,298,0
306,317,296,298,0
307,311,294,297,0
308,307,294,298,0
309,305,295,299,0
309,303,297,301,0
309,303,300,304,0
308,303,302,306,0
307,305,304,309,0
306,310,305,310,0
303,317,305,309,0
302,325,305,306,0
302,329,305,303,0
306,330,304,300,0
311,326,302,297,0
314,315,302,297,0
317,296,303,298,0
320,273,303,300,0
319,256,304,305,0
312,252,305,313,0
302,258,305,319,0
297,271,304,324,0
295,287,304,327,0
297,299,303,327,0
299,309,302,324,0
301,314,302,321,0
302,314,303,319,0
303,311,304,317,0
304,304,305,315,0
304,299,306,311,0
304,298,306,307,0
303,301,305,303,0
304,307,305,300,0
306,313,305,298,0
309,316,304,298,0
309,319,305,298,0
306,321,305,298,0
303,322,305,298,0
301,321,305,298,0
300,319,305,298,0
299,315,306,301,0
299,308,306,307,0
298,303,306,312,0
296,299,305,317,0
298,298,304,319,0
302,297,302,320,0
308,297,302,318,0
313,299,301,315,0
317,304,300,311,0
319,310,300,308,0
319,314,300,305,0
315,312,299,301,0
308,304,299,297,0
302,293,298,294,0
298,285,299,293,0
297,285,300,297,0
297,288,301,302,0
297,288,303,309,0
298,286,304,314,0
299,285,305,318,0
300,287,306,320,0
301,289,306,319,0
303,292,306,318,0
304,295,305,316,0
305,297,305,314,0
307,299,305,311,0
308,301,306,308,0
309,306,308,305,0
311,314,309,304,0
312,323,309,302,0
312,328,309,300,0
310,329,307,297,0
306,329,305,295,0
302,330,303,294,0
298,335,302,295,0
296,339,301,297,0
296,340,300,299,0
296,337,301,300,0
298,329,301,300,0
300,319,300,298,0
303,308,300,296,0
305,301,299,295,0
307,299,299,296,0
309,302,299,297,0
311,306,300,298,0
313,307,302,299,0
314,304,303,301,0
316,300,305,300,0
316,296,305,300,0
314,296,305,300,0
311,301,305,302,0
308,306,306,304,0
304,306,306,306,0
304,303,306,308,0
306,301,306,309,0
309,303,305,310,0
312,310,304,311,0
313,317,303,312,0
309,324,302,314,0
306,327,301,317,0
304,327,300,320,0
307,322,299,324,0
312,313,298,326,0
318,301,298,327,0
317,293,299,326,0
313,291,300,323,0
308,293,302,320,0
306,296,304,316,0
304,300,305,313,0
303,302,305,310,0
300,303,306,305,0
297,301,306,299,0
294,297,305,295,0
291,293,306,293,0
289,289,307,293,0
288,283,308,295,0
287,274,309,296,0
286,263,308,296,0
287,256,306,294,0
288,260,305,293,0
291,273,303,292,0
295,288,302,291,0
301,298,301,292,0
307,303,302,295,0
312,307,303,300,0
317,312,305,305,0
318,316,307,311,0
317,319,309,314,0
314,319,311,316,0
311,319,312,316,0
309,319,312,314,0
306,319,312,313,0
305,320,311,311,0
303,322,310,310,0
301,323,307,308,0
299,324,304,306,0
297,325,302,304,0
296,326,301,302,0
294,327,299,299,0
293,326,298,296,0
294,325,297,294,0
295,322,296,294,0
298,313,296,297,0
302,300,297,301,0
306,289,299,306,0
309,284,301,312,0
311,286,304,317,0
312,295,307,322,0
312,304,309,325,0
312,312,310,326,0
312,317,310,326,0
312,317,309,324,0
311,316,309,321,0
311,314,310,315,0
310,312,309,308,0
308,309,307,301,0
306,307,304,299,0
304,306,302,302,0
304,308,301,307,0
304,312,301,311,0
305,316,302,312,0
306,319,303,310,0
306,320,303,306,0
307,319,303,302,0
309,316,303,300,0
311,312,304,299,0
314,309,306,301,0
318,308,308,304,0
319,311,310,307,0
316,316,311,308,0
311,320,311,307,0
307,319,311,305,0
304,311,311,302,0
301,299,311,297,0
297,288,310,292,0
292,280,309,288,0
288,276,309,287,0
287,276,311,292,0
290,278,313,300,0
294,279,314,307,0
300,277,314,313,0
305,279,313,318,0
308,285,313,322,0
310,293,313,324,0
312,299,313,323,0
314,302,313,319,0
317,302,313,313,0
318,298,312,305,0
317,295,312,296,0
315,293,311,288,0
312,294,310,284,0
307,298,310,284,0
303,304,309,286,0
300,309,310,289,0
298,309,310,293,0
298,305,311,296,0
299,299,311,298,0
301,297,311,299,0
305,300,310,299,0
310,305,309,298,0
315,312,308,298,0
319,317,307,298,0
321,319,306,299,0
318,316,306,300,0
311,313,306,301,0
303,310,306,302,0
298,308,308,302,0
295,306,309,303,0
295,308,310,303,0
296,316,311,304,0
297,326,310,305,0
297,334,309,306,0
296,337,307,307,0
294,337,306,308,0
292,335,305,308,0
291,333,305,309,0
291,331,305,309,0
292,328,306,309,0
293,327,307,309,0
296,327,307,307,0
298,326,306,305,0
300,325,306,303,0
303,324,305,304,0
306,322,305,306,0
310,318,306,310,0
313,312,307,313,0
315,309,308,317,0
316,311,310,321,0
316,316,312,323,0
314,319,314,324,0
311,318,314,325,0
308,314,313,325,0
306,308,311,326,0
304,304,309,326,0
303,301,308,326,0
304,300,307,325,0
306,300,306,322,0
308,299,306,319,0
310,297,306,316,0
310,294,305,313,0
307,292,304,310,0
303,291,304,307,0
301,291,304,302,0
300,292,305,297,0
299,293,306,293,0
299,287,307,290,0
298,275,308,290,0
296,261,309,292,0
294,250,311,296,0
295,244,313,302,0
298,244,315,311,0
301,254,317,321,0
305,270,318,330,0
309,286,317,334,0
312,304,316,334,0
312,320,313,330,0
311,333,309,324,0
309,343,305,317,0
307,347,303,311,0
307,348,301,304,0
307,343,300,298,0
307,336,299,294,0
306,330,299,292,0
304,324,300,291,0
302,322,301,290,0
300,321,301,290,0
300,323,302,292,0
299,327,304,294,0
300,327,305,297,0
302,324,307,301,0
302,320,308,303,0
303,317,307,305,0
302,316,306,306,0
302,314,304,307,0
303,313,304,308,0
304,313,303,307,0
306,313,303,304,0
307,313,304,302,0
306,310,306,301,0
304,300,307,300,0
302,290,308,301,0
302,285,308,304,0
302,284,308,310,0
302,287,307,315,0
302,293,306,319,0
301,302,305,321,0
302,309,305,322,0
305,315,306,321,0
308,318,307,318,0
311,321,306,314,0
313,325,305,309,0
315,331,304,305,0
316,337,303,302,0
316,338,302,301,0
315,336,302,300,0
314,329,301,300,0
314,321,300,300,0
316,314,298,301,0
319,309,296,302,0
322,305,294,303,0
321,300,293,304,0
318,297,293,306,0
311,294,295,310,0
304,291,297,315,0
300,289,300,320,0
298,289,304,326,0
300,291,307,330,0
303,293,310,331,0
306,294,310,329,0
307,293,309,323,0
306,291,307,315,0
306,288,304,307,0
307,287,302,300,0
309,288,301,298,0
309,288,300,301,0
309,289,300,307,0
308,288,299,313,0
306,286,298,319,0
304,284,297,323,0
303,284,297,325,0
304,288,296,324,0
306,300,296,324,0
310,314,297,324,0
312,325,298,325,0
313,330,299,327,0
312,331,301,329,0
311,330,303,329,0
310,329,305,328,0
308,330,306,324,0
305,331,307,319,0
303,332,306,312,0
300,332,305,303,0
298,331,302,292,0
297,326,300,283,0
297,320,297,275,0
297,313,295,270,0
299,307,294,268,0
300,304,295,269,0
302,302,295,273,0
302,298,296,278,0
302,293,297,285,0
304,286,299,295,0
305,279,301,307,0
305,277,302,317,0
304,285,303,323,0
303,299,304,325,0
303,313,306,324,0
304,325,307,320,0
305,334,307,315,0
305,340,306,307,0
304,340,305,300,0
301,334,303,295,0
298,322,302,293,0
296,308,303,293,0
297,294,304,296,0
300,279,306,300,0
304,271,308,305,0
308,271,309,310,0
310,279,309,315,0
312,290,307,316,0
312,299,306,316,0
311,305,305,315,0
312,308,304,313,0
313,310,304,313,0
315,310,304,314,0
317,309,305,316,0
318,309,306,318,0
315,309,307,318,0
311,310,309,318,0
305,310,310,317,0
302,311,311,314,0
301,316,311,311,0
301,321,311,307,0
303,324,312,304,0
304,321,313,302,0
305,313,313,302,0
304,306,313,304,0
304,301,313,307,0
303,298,313,310,0
302,296,312,312,0
301,297,309,310,0
302,301,306,307,0
302,305,303,302,0
302,307,301,297,0
302,305,299,294,0
303,300,299,293,0
304,293,300,294,0
304,286,302,297,0
305,282,304,300,0
304,283,306,303,0
305,285,307,305,0
307,288,307,305,0
307,291,306,306,0
307,294,305,305,0
308,297,304,306,0
310,304,302,307,0
313,314,300,309,0
315,325,299,312,0
317,334,298,316,0
318,340,298,319,0
317,344,299,321,0
317,347,299,322,0
318,343,299,322,0
319,335,300,322,0
316,321,301,322,0
309,302,303,323,0
304,282,306,325,0
303,270,309,326,0
305,267,312,324,0
306,270,313,318,0
305,275,312,312,0
304,284,310,307,0
304,298,309,304,0
306,312,308,303,0
308,322,307,302,0
310,330,306,300,0
310,334,305,297,0
309,334,304,295,0
309,329,302,292,0
307,322,301,290,0
306,316,299,289,0
307,311,299,289,0
308,307,298,290,0
310,302,298,293,0
312,298,300,296,0
313,293,301,299,0
313,291,302,301,0
313,293,304,302,0
312,299,305,302,0
312,303,307,302,0
310,303,308,304,0
309,300,308,307,0
306,298,307,313,0
305,297,307,317,0
305,296,308,320,0
306,296,308,321,0
307,299,308,321,0
309,303,307,318,0
306,307,306,314,0
301,314,304,309,0
296,321,302,304,0
292,325,301,300,0
291,324,300,299,0
293,320,301,301,0
298,317,303,304,0
304,315,305,308,0
309,313,307,312,0
311,311,308,316,0
313,310,309,317,0
312,309,308,316,0
310,308,308,313,0
308,308,306,308,0
305,310,305,304,0
304,310,304,301,0
304,308,304,299,0
305,305,304,298,0
307,302,304,299,0
308,302,305,299,0
310,306,305,301,0
310,312,305,302,0
308,316,306,304,0
306,316,306,306,0
305,312,307,308,0
303,305,307,310,0
302,300,307,312,0
302,298,308,313,0
303,299,309,315,0
303,304,311,316,0
304,305,312,318,0
304,303,314,319,0
302,299,315,322,0
301,297,316,325,0
299,295,316,329,0
299,294,316,332,0
298,296,315,334,0
297,305,314,335,0
296,313,312,335,0
294,316,311,334,0
293,312,310,331,0
295,304,308,325,0
299,298,305,318,0
302,294,303,310,0
303,294,300,302,0
303,298,299,296,0
302,303,299,292,0
302,306,300,292,0
302,308,302,294,0
302,312,305,297,0
301,316,307,299,0
300,318,309,302,0
299,319,309,305,0
297,320,309,307,0
295,322,308,308,0
294,323,308,309,0
293,324,307,309,0
292,323,305,307,0
291,322,303,306,0
291,320,302,307,0
292,322,302,308,0
293,324,301,309,0
294,326,301,309,0
296,325,301,307,0
297,321,301,305,0
300,314,304,306,0
306,303,309,309,0
313,292,312,312,0
319,282,315,316,0
320,274,316,321,0
311,268,317,326,0
300,267,316,331,0
292,271,314,335,0
289,278,310,336,0
287,287,307,336,0
286,300,305,334,0
288,314,303,329,0
290,326,302,320,0
291,332,300,309,0
290,333,298,298,0
289,331,297,291,0
289,328,297,292,0
290,323,297,295,0
292,316,297,301,0
295,310,297,305,0
298,306,298,308,0
300,306,300,308,0
302,305,302,306,0
305,302,303,304,0
307,298,305,302,0
308,295,306,300,0
310,291,308,300,0
311,288,308,299,0
310,285,308,299,0
307,284,308,298,0
304,285,307,298,0
302,288,307,298,0
300,295,306,298,0
298,305,305,299,0
298,312,304,301,0
298,312,303,302,0
299,304,302,302,0
299,291,301,301,0
300,276,300,301,0
301,266,300,302,0
303,264,302,305,0
303,272,304,307,0
302,286,306,309,0
301,301,308,310,0
299,313,310,309,0
298,321,312,308,0
300,325,312,308,0
302,326,312,309,0
303,329,311,310,0
304,332,310,311,0
304,335,309,312,0
305,337,308,311,0
305,335,307,309,0
305,330,305,307,0
304,324,304,306,0
303,320,303,306,0
302,318,302,308,0
301,316,300,309,0
299,313,299,310,0
297,310,299,310,0
297,306,299,310,0
300,304,300,308,0
305,306,301,305,0
310,314,301,301,0
313,324,300,297,0
314,333,299,295,0
311,339,299,295,0
306,341,301,297,0
300,339,302,301,0
295,331,304,305,0
291,316,305,308,0
289,300,305,309,0
289,288,306,309,0
290,285,305,310,0
290,291,303,311,0
290,302,302,312,0
290,312,300,312,0
292,319,300,311,0
295,319,300,310,0
299,310,300,306,0
302,297,299,301,0
305,287,299,296,0
307,283,299,292,0
308,281,298,291,0
309,280,299,293,0
308,280,299,297,0
307,282,300,301,0
306,283,300,307,0
304,283,300,313,0
302,282,299,318,0
301,279,299,322,0
301,276,299,323,0
300,275,299,322,0
298,279,299,318,0
298,285,298,313,0
299,292,297,307,0
302,297,296,301,0
304,299,296,296,0
308,298,295,293,0
311,296,295,292,0
315,297,295,293,0
315,299,295,296,0
311,305,296,299,0
306,310,298,303,0
303,313,300,306,0
301,312,302,308,0
299,308,303,309,0
297,304,304,311,0
297,304,304,316,0
297,308,304,321,0
297,316,303,325,0
295,322,302,326,0
293,326,301,323,0
292,325,300,319,0
293,321,300,316,0
295,313,301,316,0
295,306,302,317,0
296,304,303,319,0
296,305,304,321,0
297,307,305,323,0
300,307,306,323,0
306,307,306,322,0
314,309,307,318,0
320,312,308,314,0
324,316,310,309,0
322,318,311,304,0
316,317,311,299,0
310,313,311,295,0
306,309,310,293,0
304,306,309,292,0
303,304,308,291,0
303,306,306,291,0
303,309,303,291,0
303,312,301,291,0
303,313,301,292,0
304,313,301,293,0
304,313,301,294,0
304,313,301,296,0
305,311,300,298,0
306,307,301,301,0
307,300,302,304,0
308,295,303,306,0
308,290,304,309,0
308,288,305,311,0
308,287,305,312,0
308,289,304,310,0
307,294,303,309,0
306,303,303,308,0
306,314,302,309,0
307,326,303,311,0
308,335,304,314,0
309,336,304,316,0
309,329,305,318,0
308,321,305,321,0
305,315,306,326,0
302,310,308,330,0
298,305,309,330,0
297,300,310,326,0
297,297,310,318,0
298,296,309,309,0
299,294,306,300,0
301,292,304,292,0
304,290,302,286,0
310,288,301,281,0
315,285,300,278,0
320,285,299,276,0
321,287,299,275,0
316,290,299,275,0
307,291,299,275,0
301,294,300,276,0
298,301,300,278,0
297,309,300,281,0
297,314,300,285,0
295,315,299,288,0
294,317,299,291,0
292,322,298,296,0
293,325,299,300,0
294,323,299,305,0
298,318,300,311,0
304,312,301,321,0
312,307,303,331,0
319,305,304,339,0
323,307,306,343,0
322,309,308,344,0
320,314,310,340,0
317,317,312,335,0
314,320,313,328,0
312,320,312,320,0
309,316,311,311,0
308,312,310,304,0
306,309,308,296,0
304,310,306,289,0
303,316,305,283,0
303,323,305,280,0
305,323,305,279,0
306,313,306,279,0
306,294,307,280,0
306,272,305,280,0
307,251,304,281,0
310,237,303,283,0
313,235,303,285,0
317,246,302,287,0
319,267,301,290,0
317,289,300,293,0
313,308,300,297,0
309,327,301,300,0
306,341,302,303,0
303,351,302,305,0
301,358,302,307,0
300,360,302,306,0
299,357,302,305,0
299,353,302,303,0
301,348,303,303,0
303,344,303,302,0
305,341,303,302,0
306,335,304,303,0
306,328,306,304,0
305,317,308,305,0
305,305,309,307,0
304,292,310,309,0
303,282,310,311,0
301,277,310,312,0
300,275,310,313,0
300,278,311,312,0
301,282,311,312,0
304,287,312,311,0
307,292,313,311,0
308,295,313,310,0
309,297,312,312,0
309,300,312,314,0
308,305,311,317,0
307,312,311,319,0
305,314,309,319,0
303,310,308,317,0
302,307,307,315,0
304,306,308,313,0
306,303,308,310,0
308,299,309,308,0
310,297,310,309,0
312,298,312,311,0
314,302,312,314,0
316,308,312,315,0
320,313,311,314,0
323,316,310,313,0
324,314,309,312,0
323,307,309,311,0
322,299,308,308,0
322,292,306,305,0
321,287,304,302,0
322,286,303,300,0
322,290,302,301,0
321,298,303,305,0
320,306,304,312,0
320,312,305,320,0
320,318,306,328,0
314,324,306,333,0
306,327,306,334,0
300,327,305,332,0
296,324,304,326,0
295,318,303,319,0
295,313,302,313,0
296,309,301,307,0
298,308,301,305,0
302,308,302,306,0
306,307,304,309,0
310,306,306,313,0
311,307,308,317,0
309,309,309,320,0
305,310,311,321,0
301,309,311,320,0
300,306,310,318,0
301,303,309,313,0
303,302,308,307,0
305,300,306,300,0
304,298,304,292,0
303,299,302,286,0
303,305,301,281,0
303,315,299,280,0
303,325,299,280,0
303,333,298,283,0
303,341,298,288,0
303,346,298,294,0
303,344,300,302,0
305,337,304,313,0
306,325,308,325,0
307,312,311,333,0
307,303,312,337,0
306,298,312,334,0
304,295,310,329,0
302,296,308,322,0
302,300,307,316,0
304,304,307,312,0
307,305,307,310,0
309,304,307,309,0
311,303,307,309,0
312,301,307,309,0
313,299,306,306,0
314,296,305,302,0
314,293,303,297,0
314,288,302,293,0
313,282,301,292,0
314,276,300,292,0
315,272,301,294,0
316,270,302,298,0
318,271,304,302,0
317,274,306,306,0
314,278,307,309,0
311,288,308,309,0
310,301,308,308,0
311,311,308,305,0
311,317,306,302,0
309,317,303,299,0
307,311,300,298,0
301,304,300,298,0
294,302,301,299,0
291,303,302,301,0
292,307,304,302,0
295,313,305,302,0
299,320,304,301,0
303,322,303,301,0
307,322,302,302,0
310,322,302,304,0
312,321,303,308,0
312,322,304,311,0
312,325,305,314,0
310,328,308,317,0
309,331,310,319,0
308,331,312,320,0
307,328,313,321,0
306,322,314,322,0
307,314,314,323,0
308,308,313,325,0
310,303,312,324,0
311,295,311,322,0
314,286,310,319,0
316,279,310,317,0
318,282,309,315,0
317,290,308,313,0
314,300,308,311,0
312,311,307,309,0
311,323,307,306,0
312,333,306,304,0
314,340,306,302,0
314,340,306,302,0
310,334,307,304,0
306,325,307,308,0
302,315,307,312,0
299,305,307,316,0
298,297,308,320,0
299,293,310,324,0
301,292,312,327,0
303,294,314,327,0
303,299,315,326,0
303,304,315,322,0
302,306,313,317,0
302,305,311,310,0
302,303,309,302,0
303,302,307,295,0
304,302,305,290,0
306,305,305,288,0
307,307,305,289,0
307,308,307,293,0
308,309,309,297,0
308,310,312,300,0
308,308,313,302,0
306,307,314,303,0
305,307,314,304,0
303,309,312,303,0
301,312,311,301,0
301,312,309,299,0
302,309,308,298,0
303,306,308,299,0
302,302,308,300,0
302,301,307,302,0
301,305,307,305,0
303,315,308,310,0
306,325,308,316,0
310,332,307,320,0
313,334,306,322,0
316,333,304,321,0
318,327,304,317,0
318,316,305,310,0
315,306,307,306,0
313,300,309,304,0
312,299,312,306,0
312,302,313,308,0
311,307,314,310,0
309,312,313,310,0
305,315,312,309,0
301,314,310,306,0
299,313,309,301,0
298,312,308,296,0
297,309,307,291,0
297,305,306,287,0
297,301,306,285,0
297,297,305,285,0
296,294,304,286,0
294,298,304,288,0
293,307,303,290,0
294,316,303,293,0
295,320,303,295,0
298,319,304,297,0
302,313,306,299,0
306,306,307,302,0
310,298,309,303,0
311,291,309,304,0
310,285,309,304,0
307,280,307,305,0
304,274,306,305,0
302,273,306,305,0
302,279,305,306,0
304,290,306,306,0
305,302,307,309,0
305,312,308,313,0
304,318,309,318,0
303,320,310,324,0
302,318,311,329,0
301,316,312,332,0
301,316,312,334,0
302,316,311,334,0
304,316,310,333,0
307,314,308,330,0
310,310,306,327,0
311,305,306,323,0
313,301,305,319,0
313,299,305,314,0
314,301,305,310,0
313,306,305,307,0
314,312,305,305,0
317,317,306,303,0
318,322,306,300,0
313,324,307,299,0
307,325,307,298,0
302,323,307,297,0
301,322,308,298,0
303,321,308,300,0
305,315,307,303,0
306,305,306,306,0
303,293,306,309,0
300,285,306,312,0
299,279,305,313,0
300,278,303,312,0
303,283,302,311,0
305,292,302,309,0
306,299,304,307,0
307,302,307,304,0
308,302,309,302,0
308,303,311,300,0
305,305,311,299,0
300,306,310,299,0
294,308,309,300,0
289,309,308,303,0
288,312,309,306,0
289,314,309,309,0
292,314,309,311,0
296,310,309,311,0
299,304,308,311,0
302,297,308,310,0
303,290,307,310,0
304,284,305,309,0
305,281,305,310,0
306,280,304,314,0
307,280,305,319,0
308,279,307,325,0
310,282,308,329,0
311,291,310,331,0
312,304,312,331,0
312,314,313,331,0
311,316,314,331,0
311,312,314,330,0
310,310,313,327,0
311,310,312,323,0
311,312,310,319,0
310,314,307,316,0
309,314,306,312,0
308,311,305,307,0
308,307,303,303,0
308,303,302,300,0
308,299,302,299,0
308,297,302,300,0
309,295,303,303,0
310,294,304,306,0
310,293,305,310,0
310,292,306,312,0
309,291,307,312,0
308,289,307,312,0
307,291,307,310,0
306,296,306,306,0
305,305,304,300,0
305,319,302,296,0
305,331,301,295,0
306,339,301,295,0
306,342,301,296,0
306,340,301,297,0
305,335,301,297,0
304,327,301,297,0
305,319,300,295,0
306,314,299,295,0
308,312,298,295,0
311,310,298,296,0
313,308,299,299,0
313,306,300,303,0
312,304,302,307,0
310,301,303,311,0
309,296,304,314,0
308,291,304,317,0
308,288,304,320,0
306,292,303,321,0
302,304,302,322,0
300,315,302,322,0
298,319,302,322,0
297,316,303,322,0
297,307,304,321,0
297,296,304,318,0
301,283,306,316,0
307,273,306,313,0
311,267,305,311,0
310,261,304,309,0
304,255,303,311,0
299,253,303,314,0
299,256,303,318,0
303,261,305,324,0
307,271,306,330,0
311,284,308,335,0
314,296,310,337,0
315,309,311,336,0
315,321,312,331,0
314,330,311,324,0
313,336,309,316,0
310,338,307,307,0
308,338,305,299,0
306,337,304,295,0
304,334,303,292,0
302,328,302,291,0
301,322,302,291,0
301,314,302,293,0
301,307,302,296,0
301,302,303,299,0
301,299,304,304,0
301,296,305,308,0
301,292,307,312,0
300,285,309,316,0
302,281,312,319,0
306,281,314,322,0
309,286,316,324,0
311,294,317,326,0
312,302,317,327,0
309,308,315,325,0
306,315,312,322,0
304,321,309,319,0
303,326,306,316,0
301,329,303,314,0
300,331,302,312,0
300,332,301,311,0
300,331,301,311,0
302,329,302,312,0
304,328,302,313,0
305,327,301,315,0
305,329,299,314,0
305,331,297,312,0
305,333,295,309,0
305,335,294,304,0
306,337,294,300,0
306,338,296,297,0
307,335,299,297,0
309,328,302,297,0
314,317,304,298,0
316,304,304,298,0
314,289,303,299,0
308,276,303,302,0
301,270,303,307,0
296,268,304,314,0
292,267,304,321,0
291,269,304,326,0
293,275,303,326,0
297,284,302,323,0
301,292,301,318,0
304,298,301,313,0
306,301,300,307,0
307,301,300,302,0
308,298,300,299,0
307,295,300,298,0
306,288,301,297,0
304,281,301,297,0
303,274,302,298,0
303,270,302,299,0
303,269,302,299,0
302,278,301,299,0
303,296,301,303,0
304,315,301,308,0
307,329,302,314,0
309,335,304,319,0
310,338,305,324,0
310,339,306,328,0
310,339,307,330,0
311,336,307,330,0
310,330,306,329,0
309,322,304,326,0
307,315,303,322,0
306,310,302,317,0
306,306,302,313,0
307,304,303,309,0
308,304,304,307,0
310,303,305,307,0
311,302,306,307,0
313,301,307,307,0
313,299,307,305,0
315,299,305,303,0
315,297,304,300,0
310,295,304,297,0
303,297,303,296,0
298,304,303,295,0
297,312,303,294,0
295,317,303,291,0
295,318,302,289,0
294,316,301,287,0
294,312,300,286,0
294,308,299,286,0
294,308,298,287,0
295,308,298,289,0
298,308,298,294,0
301,305,300,301,0
304,302,302,308,0
306,301,304,313,0
307,302,306,318,0
307,304,308,322,0
308,306,309,326,0
311,307,310,328,0
315,309,311,328,0
317,310,310,327,0
315,312,310,324,0
310,315,309,321,0
304,321,308,317,0
298,329,308,313,0
295,336,307,308,0
293,341,306,302,0
292,339,305,294,0
292,324,303,288,0
292,300,303,286,0
293,275,305,288,0
296,258,309,294,0
300,253,312,302,0
304,259,316,310,0
308,276,318,318,0
310,295,321,324,0
311,310,322,328,0
309,318,320,329,0
306,319,318,328,0
302,314,315,327,0
300,307,312,325,0
301,302,309,322,0
303,300,307,319,0
305,298,304,314,0
305,297,302,309,0
304,298,299,304,0
303,298,297,299,0
301,295,295,296,0
298,291,294,293,0
294,287,293,293,0
292,284,293,296,0
293,281,296,302,0
298,283,300,308,0
304,293,304,314,0
309,305,307,318,0
312,312,309,321,0
313,315,310,324,0
313,318,311,326,0
312,320,311,327,0
310,323,311,326,0
308,325,309,325,0
306,324,309,323,0
305,323,308,321,0
304,322,308,317,0
304,324,307,312,0
305,326,306,308,0
306,327,306,310,0
308,328,306,316,0
309,326,306,322,0
310,320,307,327,0
310,310,307,327,0
311,297,307,324,0
312,284,308,320,0
313,275,309,314,0
315,272,311,310,0
316,274,314,308,0
318,277,316,308,0
321,276,316,308,0
324,276,314,307,0
327,279,311,307,0
327,285,309,306,0
322,295,307,305,0
313,308,306,305,0
301,321,305,306,0
292,328,306,307,0
288,330,306,307,0
287,331,307,307,0
288,329,306,308,0
289,325,306,309,0
292,321,306,311,0
296,319,307,314,0
299,317,307,317,0
303,318,308,317,0
306,319,307,316,0
308,319,307,311,0
308,317,307,305,0
308,310,307,298,0
307,301,308,292,0
307,294,309,289,0
308,292,311,290,0
308,298,312,292,0
309,310,313,293,0
308,323,313,294,0
307,330,311,294,0
305,327,310,294,0
302,319,309,294,0
299,310,309,295,0
298,300,308,296,0
299,287,308,298,0
302,274,307,301,0
308,268,308,305,0
314,271,308,307,0
319,281,309,309,0
322,292,310,310,0
323,303,310,309,0
322,310,310,308,0
321,313,311,307,0
322,313,312,306,0
324,313,312,306,0
323,313,312,304,0
320,311,311,303,0
317,311,311,301,0
314,309,310,300,0
309,303,309,299,0
306,293,308,300,0
303,281,308,301,0
302,272,308,304,0
303,271,308,307,0
304,276,307,311,0
305,284,306,313,0
307,292,305,314,0
310,298,304,316,0
313,302,303,316,0
313,305,304,316,0
312,310,305,316,0
307,312,308,314,0
304,312,310,313,0
301,310,312,311,0
298,307,312,311,0
297,305,312,310,0
296,303,311,309,0
296,299,310,307,0
296,291,308,303,0
295,283,307,298,0
295,282,307,296,0
296,288,307,295,0
297,296,307,297,0
298,303,306,298,0
298,308,305,298,0
299,311,303,298,0
299,312,302,298,0
299,313,302,300,0
301,317,303,302,0
304,320,305,304,0
306,320,307,307,0
309,318,308,312,0
312,313,309,319,0
314,308,311,326,0
316,301,313,333,0
317,290,314,336,0
318,277,313,336,0
317,267,312,334,0
310,263,311,329,0
303,262,310,323,0
298,265,310,316,0
297,272,309,309,0
298,284,308,304,0
302,296,307,300,0
305,306,306,298,0
308,314,305,296,0
309,320,305,294,0
309,326,304,292,0
308,327,304,291,0
306,321,304,288,0
305,310,304,286,0
306,299,305,288,0
307,291,306,294,0
306,287,306,300,0
305,285,306,304,0
305,288,305,305,0
305,293,305,304,0
305,299,304,301,0
304,304,303,296,0
303,309,303,291,0
302,313,302,287,0
303,315,303,286,0
307,317,303,287,0
311,316,304,288,0
314,315,304,290,0
315,314,304,294,0
316,313,305,298,0
317,312,307,302,0
318,309,309,306,0
319,306,310,309,0
320,301,311,311,0
319,297,310,312,0
318,291,309,311,0
318,285,308,310,0
316,281,307,308,0
313,282,305,307,0
307,288,302,306,0
298,299,300,305,0
291,315,300,305,0
288,329,300,305,0
289,339,300,305,0
293,345,300,305,0
297,350,298,304,0
300,352,296,305,0
303,348,294,305,0
305,335,292,306,0
306,319,291,306,0
307,299,291,305,0
308,278,291,305,0
309,259,294,305,0
311,249,297,306,0
312,246,299,305,0
314,250,303,304,0
314,262,305,302,0
313,280,306,299,0
311,303,305,296,0
309,323,303,293,0
307,335,301,291,0
305,340,298,289,0
304,340,297,287,0
303,338,295,285,0
303,335,295,286,0
304,332,296,287,0
304,331,297,289,0
303,330,299,291,0
303,328,301,293,0
304,324,301,295,0
305,319,302,298,0
306,314,302,299,0
308,310,301,300,0
309,306,302,301,0
310,302,302,301,0
310,298,303,301,0
309,297,304,303,0
307,297,304,306,0
306,297,305,311,0
305,301,305,317,0
304,304,305,321,0
303,304,304,325,0
304,305,304,328,0
306,307,304,330,0
309,311,304,331,0
315,315,304,332,0
318,318,303,329,0
315,319,302,324,0
310,318,301,318,0
306,316,300,311,0
304,313,300,304,0
306,311,301,298,0
311,311,301,294,0
314,311,301,291,0
314,312,301,291,0
311,310,301,291,0
308,307,301,291,0
306,306,301,292,0
307,308,301,293,0
309,309,301,295,0
312,310,301,296,0
312,310,300,296,0
309,307,300,296,0
305,303,299,296,0
301,298,299,294,0
299,292,299,292,0
298,287,299,291,0
298,288,298,290,0
299,296,298,290,0
301,307,298,292,0
304,319,299,299,0
308,328,300,309,0
311,334,301,319,0
313,338,303,328,0
315,337,306,334,0
316,333,308,337,0
315,323,308,337,0
313,312,308,335,0
312,300,308,331,0
310,287,308,325,0
308,275,308,318,0
306,273,307,313,0
305,282,305,310,0
304,299,303,308,0
303,315,300,306,0
304,327,298,306,0
304,335,296,305,0
304,338,294,306,0
305,336,293,305,0
306,329,293,303,0
308,322,292,300,0
310,316,293,297,0
312,312,294,295,0
313,311,295,294,0
314,311,296,294,0
313,312,296,295,0
312,313,297,297,0
310,314,298,297,0
309,316,298,298,0
307,318,299,299,0
306,319,299,300,0
305,318,299,300,0
304,316,299,299,0
302,312,299,298,0
299,308,300,297,0
296,304,300,297,0
293,299,300,298,0
291,293,299,298,0
293,285,299,298,0
296,279,298,298,0
300,280,297,298,0
305,284,296,299,0
309,287,297,301,0
314,290,298,304,0
320,299,299,308,0
325,311,300,312,0
325,322,300,317,0
322,328,301,322,0
318,330,302,327,0
313,330,303,330,0
310,328,302,330,0
307,326,302,326,0
305,324,301,320,0
304,322,300,314,0
302,320,298,309,0
301,318,297,305,0
301,316,296,303,0
301,313,295,301,0
302,309,295,300,0
304,304,295,300,0
305,298,296,300,0
307,293,299,301,0
307,293,301,302,0
307,297,304,304,0
311,302,308,305,0
317,306,310,306,0
325,308,311,307,0
331,308,310,307,0
332,309,308,308,0
330,315,305,311,0
323,328,303,315,0
312,341,302,319,0
303,348,303,323,0
299,348,305,325,0
300,337,306,327,0
303,319,307,326,0
305,302,306,322,0
306,290,305,317,0
306,284,303,311,0
306,283,301,304,0
305,286,298,296,0
305,291,297,289,0
305,297,296,284,0
305,301,296,280,0
305,304,297,279,0
304,306,298,280,0
304,306,300,281,0
304,307,301,282,0
303,310,302,284,0
301,314,303,285,0
300,318,303,287,0
298,322,303,289,0
296,325,303,291,0
294,325,302,293,0
292,321,301,293,0
291,318,301,294,0
293,315,301,296,0
296,311,301,298,0
299,306,301,300,0
302,301,301,306,0
303,299,302,314,0
305,300,303,323,0
307,301,305,332,0
308,302,308,339,0
310,306,311,344,0
311,311,313,348,0
313,314,314,350,0
313,314,314,349,0
314,314,313,344,0
314,314,311,338,0
313,311,309,330,0
312,308,308,322,0
311,307,306,314,0
310,308,304,305,0
309,308,301,297,0
308,309,299,289,0
308,309,297,283,0
308,307,295,276,0
305,303,294,271,0
301,298,293,268,0
298,293,294,268,0
298,293,296,270,0
301,299,298,273,0
303,306,300,276,0
305,314,302,280,0
306,322,304,284,0
307,330,306,287,0
307,338,306,290,0
306,341,308,294,0
305,341,308,297,0
303,336,308,301,0
302,326,308,305,0
303,315,308,308,0
305,304,308,310,0
308,294,308,310,0
311,289,307,308,0
312,286,306,306,0
310,284,306,305,0
307,284,306,307,0
304,284,305,308,0
302,282,305,309,0
299,279,303,310,0
297,277,303,310,0
297,275,303,311,0
299,276,304,313,0
303,280,305,315,0
306,291,307,318,0
308,305,307,321,0
308,318,306,323,0
307,324,305,325,0
308,319,306,326,0
310,308,307,326,0
312,301,308,325,0
314,303,308,323,0
316,311,307,320,0
318,317,305,316,0
320,320,303,312,0
321,321,301,310,0
321,323,299,308,0
322,323,299,306,0
324,319,298,305,0
325,311,298,305,0
320,302,299,306,0
312,297,301,308,0
306,295,303,311,0
303,294,305,312,0
302,294,306,312,0
301,295,307,311,0
300,295,306,310,0
299,296,305,308,0
299,297,305,308,0
301,297,305,307,0
302,296,305,308,0
304,294,306,308,0
304,294,306,307,0
304,295,306,305,0
304,299,304,303,0
304,302,303,301,0
305,306,300,300,0
305,308,299,298,0
305,309,297,297,0
306,309,297,298,0
309,310,298,301,0
312,314,300,306,0
315,320,303,310,0
316,324,306,314,0
315,328,309,316,0
313,327,312,317,0
312,320,314,319,0
313,308,315,320,0
313,298,315,323,0
311,293,314,324,0
308,290,311,324,0
304,288,309,320,0
300,284,306,313,0
297,282,303,306,0
295,282,299,300,0
296,286,298,296,0
301,291,298,295,0
308,296,299,296,0
313,297,300,297,0
314,298,302,300,0
313,300,304,302,0
313,305,306,306,0
313,312,308,310,0
313,318,311,312,0
314,322,312,313,0
314,322,312,313,0
314,322,311,313,0
314,322,309,312,0
313,320,308,312,0
312,315,307,315,0
311,305,307,322,0
309,290,307,330,0
308,275,308,337,0
307,263,308,341,0
305,256,308,342,0
304,256,308,340,0
305,265,308,336,0
305,279,307,330,0
306,294,306,322,0
308,307,306,316,0
311,321,308,310,0
314,333,309,306,0
314,340,310,303,0
312,341,310,300,0
310,336,311,297,0
307,329,311,295,0
305,321,311,292,0
304,314,310,291,0
304,309,310,292,0
304,305,310,295,0
304,302,310,299,0
304,300,311,303,0
303,299,311,306,0
302,302,311,307,0
302,306,310,306,0
301,310,310,305,0
302,312,309,303,0
302,313,308,300,0
303,312,307,297,0
304,311,307,295,0
306,310,307,293,0
308,309,308,293,0
308,308,309,294,0
309,307,310,297,0
310,306,313,300,0
309,304,314,302,0
308,300,315,303,0
307,297,315,303,0
305,293,314,302,0
303,290,313,301,0
303,287,312,301,0
303,285,312,303,0
304,284,312,308,0
305,285,310,313,0
306,287,309,318,0
307,290,309,323,0
307,295,309,326,0
308,299,309,327,0
309,303,310,326,0
311,307,310,324,0
312,311,310,323,0
313,313,310,321,0
314,312,311,319,0
315,310,311,314,0
316,308,311,307,0
316,310,310,301,0
313,313,309,297,0
307,314,308,295,0
303,314,307,296,0
301,313,306,297,0
298,309,306,300,0
294,305,306,303,0
292,303,307,305,0
291,301,308,306,0
290,300,308,305,0
290,297,306,304,0
292,293,305,301,0
294,290,305,299,0
298,289,305,298,0
302,293,306,300,0
306,300,307,303,0
310,304,308,307,0
313,304,309,310,0
314,299,309,312,0
314,291,309,313,0
313,282,309,315,0
313,273,309,315,0
311,271,309,313,0
309,283,308,308,0
307,301,306,302,0
305,318,305,297,0
305,331,303,294,0
305,338,302,293,0
304,342,302,295,0
304,341,302,299,0
304,333,302,303,0
304,322,303,307,0
305,311,304,309,0
306,301,305,310,0
308,295,306,311,0
311,292,308,312,0
315,293,309,312,0
319,295,310,312,0
320,298,311,312,0
319,301,311,312,0
315,306,311,313,0
312,309,311,314,0
308,308,311,313,0
305,304,310,313,0
303,303,308,315,0
302,306,307,318,0
301,313,306,321,0
299,325,305,323,0
297,339,305,325,0
296,350,304,326,0
296,352,304,324,0
298,347,304,321,0
301,336,304,318,0
305,320,304,313,0
308,302,304,309,0
311,289,304,306,0
314,280,305,308,0
316,276,308,312,0
318,278,310,316,0
318,284,313,319,0
318,289,314,320,0
317,292,316,320,0
315,293,316,320,0
314,291,315,318,0
311,290,313,317,0
310,294,312,315,0
310,302,311,313,0
312,310,310,309,0
314,316,311,306,0
314,318,311,303,0
310,318,312,301,0
303,315,311,300,0
298,311,311,299,0
294,305,311,299,0
294,299,311,299,0
297,292,311,297,0
299,285,310,294,0
300,280,308,292,0
300,277,306,290,0
299,278,305,289,0
298,285,304,289,0
299,300,304,291,0
304,322,305,295,0
311,340,305,300,0
316,347,305,305,0
317,343,306,308,0
315,332,307,310,0
311,321,308,312,0
308,311,308,313,0
306,300,309,314,0
305,290,308,316,0
306,283,308,320,0
307,283,307,323,0
310,288,306,325,0
313,295,304,326,0
315,300,304,324,0
315,303,303,321,0
309,304,305,319,0
304,304,306,315,0
301,302,308,311,0
299,301,308,307,0
297,304,308,302,0
296,309,308,299,0
297,314,308,296,0
299,316,307,293,0
301,316,306,291,0
303,315,305,289,0
303,314,303,288,0
303,314,302,287,0
304,314,301,288,0
305,313,302,291,0
306,313,302,295,0
308,314,304,301,0
310,314,305,306,0
310,313,306,310,0
309,313,307,310,0
306,312,307,308,0
304,314,307,306,0
303,316,307,305,0
304,317,308,303,0
307,317,308,301,0
309,315,308,298,0
310,311,306,297,0
310,307,305,296,0
310,308,304,297,0
310,314,304,299,0
310,321,304,301,0
311,328,304,304,0
312,333,303,306,0
311,333,303,308,0
308,325,302,309,0
305,312,300,310,0
303,298,299,311,0
303,288,299,310,0
304,280,300,310,0
306,274,301,309,0
309,273,304,309,0
312,281,307,310,0
314,293,310,310,0
313,304,312,310,0
310,312,311,308,0
307,316,311,307,0
305,316,310,307,0
304,313,310,308,0
303,306,309,310,0
302,298,309,312,0
301,290,310,314,0
301,285,313,320,0
302,283,315,328,0
303,281,317,337,0
304,283,318,344,0
308,290,318,349,0
311,300,319,351,0
310,310,319,351,0
308,317,320,347,0
308,318,320,341,0
308,314,319,334,0
308,307,317,327,0
307,301,315,322,0
307,298,313,320,0
307,299,312,317,0
309,302,313,315,0
312,306,315,312,0
313,310,318,308,0
311,312,322,303,0
308,312,325,297,0
305,310,329,293,0
302,310,332,292,0
300,311,333,294,0
297,313,330,296,0
294,315,323,299,0
294,318,317,302,0
298,322,313,304,0
302,325,313,305,0
306,326,317,306,0
309,325,322,308,0
313,320,328,309,0
314,314,331,312,0
314,308,331,313,0
310,303,327,313,0
302,301,315,311,0
294,299,300,307,0
290,300,288,301,0
287,301,280,295,0
288,299,276,291,0
292,292,276,290,0
297,283,277,291,0
300,279,279,294,0
301,285,281,297,0
301,295,283,300,0
301,302,284,301,0
303,305,286,302,0
308,307,288,302,0
316,304,292,303,0
325,295,296,303,0
331,285,299,303,0
332,278,301,301,0
326,274,303,300,0
317,278,305,298,0
308,290,306,299,0
302,307,306,303,0
300,323,304,307,0
299,333,303,311,0
300,336,302,312,0
299,332,302,311,0
299,325,302,310,0
300,320,301,310,0
300,320,301,309,0
301,324,300,310,0
303,327,299,310,0
306,326,299,310,0
311,322,300,308,0
314,316,301,305,0
314,307,302,300,0
310,298,303,297,0
306,292,304,295,0
303,291,306,295,0
303,294,309,297,0
303,302,311,299,0
305,313,312,302,0
308,323,312,305,0
310,330,311,307,0
310,333,309,308,0
310,329,307,310,0
310,322,305,313,0
310,314,305,315,0
310,307,305,317,0
311,304,305,315,0
312,303,305,313,0
312,302,304,308,0
312,301,304,305,0
312,298,304,302,0
312,292,304,300,0
312,284,304,299,0
313,275,306,299,0
314,268,308,300,0
314,266,310,303,0
314,270,312,305,0
313,277,313,307,0
311,288,314,307,0
309,301,313,306,0
306,314,313,305,0
305,327,312,305,0
305,336,312,307,0
305,339,313,311,0
305,336,314,320,0
306,329,317,331,0
307,322,319,341,0
308,317,322,348,0
310,314,324,352,0
311,314,324,351,0
311,314,323,346,0
313,313,322,338,0
314,311,320,327,0
316,309,316,316,0
317,309,312,306,0
318,310,310,299,0
317,311,309,295,0
316,313,309,292,0
315,313,310,291,0
313,310,310,290,0
309,302,310,289,0
306,295,308,287,0
303,289,306,286,0
301,289,304,287,0
301,293,303,289,0
302,301,303,291,0
303,308,304,294,0
305,314,306,296,0
307,318,308,297,0
308,323,310,297,0
308,326,313,297,0
307,327,315,299,0
306,326,316,301,0
306,324,317,305,0
308,322,317,309,0
309,321,318,314,0
309,325,320,319,0
309,328,321,325,0
312,329,321,330,0
317,328,322,331,0
321,325,320,329,0
323,319,317,323,0
323,308,314,317,0
321,298,310,312,0
313,294,308,309,0
307,296,306,307,0
302,297,307,305,0
299,298,307,302,0
297,298,308,299,0
297,297,308,296,0
297,293,307,294,0
299,286,307,293,0
301,282,307,292,0
302,284,307,291,0
304,292,308,291,0
306,303,310,292,0
307,314,311,295,0
306,324,313,298,0
305,331,313,300,0
303,331,313,302,0
302,328,313,304,0
302,326,313,306,0
302,323,313,308,0
303,320,314,309,0
303,316,315,309,0
304,309,315,307,0
305,299,315,303,0
305,292,314,299,0
304,291,313,296,0
304,295,311,296,0
304,299,309,297,0
305,304,308,301,0
307,304,307,306,0
309,302,306,310,0
311,300,306,311,0
312,299,306,311,0
314,300,307,310,0
316,301,308,309,0
317,301,309,308,0
316,299,310,307,0
315,296,309,306,0
313,296,308,306,0
312,301,308,306,0
310,308,308,305,0
310,316,309,305,0
312,321,310,306,0
315,326,311,308,0
317,327,310,311,0
316,328,310,314,0
314,327,310,317,0
312,326,310,321,0
311,322,310,325,0
311,317,311,329,0
310,311,312,332,0
310,305,312,332,0
310,301,312,331,0
311,301,312,329,0
310,306,312,326,0
308,313,311,321,0
306,319,310,315,0
303,322,310,311,0
300,322,309,310,0
299,320,310,314,0
298,317,311,320,0
300,313,313,325,0
307,313,316,328,0
316,314,319,328,0
322,313,321,325,0
324,308,322,318,0
323,301,320,309,0
318,294,315,300,0
313,287,311,293,0
308,282,306,287,0
305,280,304,283,0
303,282,303,282,0
302,292,303,284,0
300,307,305,287,0
299,321,308,291,0
299,329,310,295,0
302,332,313,300,0
307,332,313,303,0
313,330,314,305,0
317,328,312,304,0
320,323,310,304,0
315,317,308,304,0
307,310,306,305,0
298,307,305,307,0
293,309,304,309,0
290,314,304,311,0
289,319,304,312,0
290,323,303,312,0
294,326,303,312,0
299,328,303,310,0
304,327,303,306,0
307,323,303,305,0
311,319,303,304,0
313,315,304,305,0
314,309,305,305,0
314,298,307,305,0
313,286,307,304,0
311,275,307,304,0
308,267,306,302,0
305,262,305,301,0
302,259,303,300,0
301,262,302,302,0
299,272,302,305,0
298,282,302,309,0
296,288,302,311,0
295,291,302,312,0
296,297,304,313,0
299,303,305,315,0
303,309,307,316,0
306,315,307,316,0
308,320,308,316,0
308,323,308,315,0
309,321,309,314,0
309,319,310,314,0
309,318,310,315,0
310,318,310,316,0
311,317,310,317,0
311,316,309,319,0
311,314,308,319,0
310,311,307,320,0
308,311,307,320,0
304,311,307,322,0
301,313,307,322,0
298,315,307,322,0
298,317,308,321,0
299,317,308,320,0
299,315,309,318,0
299,312,309,317,0
299,306,308,315,0
300,302,308,314,0
301,298,308,313,0
303,294,307,312,0
305,292,306,311,0
310,294,305,311,0
315,301,304,309,0
317,310,303,307,0
314,315,302,304,0
309,318,301,300,0
305,315,302,297,0
304,312,302,296,0
304,310,303,296,0
305,309,304,296,0
305,307,305,296,0
304,306,304,295,0
304,307,303,294,0
304,310,300,292,0
305,312,297,290,0
305,313,295,287,0
306,309,294,285,0
307,298,294,284,0
307,283,294,287,0
307,269,295,293,0
307,262,297,303,0
307,263,299,314,0
307,268,302,325,0
306,275,305,333,0
304,283,307,337,0
303,294,309,339,0
303,303,310,339,0
302,309,310,339,0
303,314,308,340,0
303,320,307,340,0
304,323,304,335,0
305,321,301,328,0
305,318,299,319,0
305,317,297,312,0
306,319,296,306,0
306,321,296,300,0
305,324,295,295,0
305,328,295,293,0
304,329,296,294,0
303,328,298,298,0
303,322,299,302,0
306,316,300,306,0
312,312,300,307,0
318,311,301,305,0
323,310,301,304,0
327,310,301,302,0
324,311,301,301,0
318,313,302,300,0
313,318,303,301,0
310,325,304,302,0
309,332,305,304,0
308,339,305,304,0
306,343,304,303,0
305,343,302,299,0
304,339,300,295,0
304,332,297,292,0
306,324,297,291,0
307,315,297,292,0
309,307,299,296,0
309,300,300,300,0
308,292,301,305,0
306,287,303,309,0
304,284,304,311,0
304,282,304,313,0
304,282,303,312,0
304,284,302,309,0
304,286,301,305,0
305,287,300,301,0
306,287,300,297,0
306,283,300,295,0
307,276,300,295,0
306,271,300,299,0
303,272,301,305,0
299,282,301,311,0
295,297,301,314,0
295,313,301,313,0
296,324,299,309,0
299,330,298,304,0
304,332,298,299,0
310,329,298,297,0
315,322,300,297,0
317,314,302,299,0
314,311,304,302,0
309,311,305,306,0
304,315,306,308,0
302,320,307,311,0
303,325,309,313,0
305,329,309,315,0
307,330,307,317,0
308,328,304,318,0
307,324,302,318,0
307,320,300,317,0
308,318,299,314,0
308,314,298,308,0
309,307,297,301,0
308,299,296,294,0
306,291,296,289,0
306,286,296,287,0
308,284,297,288,0
310,290,299,291,0
312,300,301,293,0
313,309,302,294,0
314,313,303,294,0
313,314,305,293,0
312,315,306,295,0
311,315,308,298,0
311,314,308,302,0
310,312,308,305,0
311,310,308,305,0
311,310,307,305,0
310,311,306,308,0
309,312,306,314,0
307,313,307,320,0
307,312,308,324,0
307,309,308,325,0
308,305,309,325,0
309,300,308,321,0
310,294,307,317,0
311,290,305,313,0
314,287,305,312,0
317,286,303,310,0
316,286,302,307,0
310,288,301,305,0
303,291,301,304,0
297,293,302,302,0
294,297,302,301,0
294,303,302,301,0
296,312,303,302,0
300,322,304,304,0
304,328,305,308,0
309,327,305,311,0
311,320,306,313,0
309,312,306,315,0
306,307,307,316,0
304,305,307,317,0
302,304,307,316,0
301,303,307,315,0
301,303,307,314,0
301,306,308,312,0
302,310,309,311,0
302,316,310,310,0
302,320,311,311,0
303,320,312,313,0
305,314,313,315,0
305,308,314,316,0
305,305,314,316,0
303,304,314,315,0
299,304,312,315,0
295,305,310,315,0
294,303,308,316,0
294,297,307,314,0
295,290,305,313,0
296,286,303,311,0
299,285,300,309,0
302,284,298,305,0
303,284,296,301,0
305,283,295,297,0
306,283,295,293,0
306,280,295,291,0
307,279,296,293,0
307,280,298,298,0
306,285,301,304,0
305,289,304,310,0
303,291,307,315,0
302,295,309,322,0
303,302,310,328,0
304,310,311,332,0
306,314,310,332,0
306,312,308,329,0
307,309,306,322,0
306,304,303,313,0
305,303,301,305,0
305,304,299,297,0
305,310,298,290,0
305,318,296,284,0
304,324,296,280,0
305,329,295,278,0
305,329,296,279,0
306,323,297,282,0
308,313,298,288,0
309,301,300,295,0
310,290,302,302,0
311,281,304,308,0
311,273,306,314,0
311,269,308,318,0
311,270,311,323,0
311,279,313,327,0
310,291,315,329,0
307,305,316,328,0
303,315,317,326,0
299,319,317,322,0
298,318,316,318,0
297,313,314,313,0
296,307,309,308,0
296,300,304,304,0
296,292,297,301,0
297,285,294,299,0
299,279,291,298,0
303,279,291,298,0
306,283,292,299,0
308,291,293,299,0
306,298,295,299,0
302,306,298,302,0
300,310,300,309,0
301,308,302,317,0
302,307,303,325,0
304,310,304,331,0
307,313,305,334,0
310,314,306,335,0
310,314,306,334,0
304,314,306,332,0
299,312,307,329,0
296,309,307,324,0
295,307,307,320,0
296,305,307,317,0
298,304,306,315,0
300,305,306,315,0
303,306,307,318,0
306,308,307,321,0
308,310,308,324,0
308,311,309,327,0
306,311,309,329,0
302,311,310,329,0
299,312,310,326,0
299,313,310,321,0
301,314,309,314,0
302,315,308,305,0
301,316,307,296,0
299,318,306,290,0
296,317,306,286,0
294,312,306,285,0
293,309,307,287,0
295,306,307,291,0
298,305,307,298,0
302,307,307,307,0
305,311,307,316,0
308,315,305,321,0
309,317,304,325,0
309,319,304,325,0
309,316,303,323,0
311,312,303,320,0
312,305,303,317,0
315,297,303,315,0
315,287,304,313,0
314,274,304,311,0
311,265,305,311,0
308,265,305,313,0
302,271,306,316,0
297,280,306,317,0
294,292,307,317,0
293,306,307,317,0
295,318,308,316,0
298,325,308,313,0
300,327,309,310,0
303,327,308,308,0
305,326,305,306,0
307,323,304,306,0
309,319,302,306,0
311,316,302,306,0
312,314,303,307,0
314,313,304,307,0
315,313,305,307,0
315,314,306,308,0
316,317,307,309,0
317,320,308,309,0
317,322,307,307,0
316,323,306,303,0
312,322,305,299,0
306,317,303,294,0
300,311,302,292,0
296,307,301,293,0
296,305,301,295,0
297,307,301,298,0
298,308,301,301,0
298,307,301,303,0
299,306,302,306,0
302,303,303,309,0
304,299,304,311,0
305,296,306,315,0
306,294,308,318,0
308,294,311,321,0
308,296,313,322,0
308,301,314,322,0
308,309,315,321,0
308,316,313,322,0
306,319,309,324,0
305,318,305,328,0
302,315,303,332,0
301,311,301,333,0
299,306,300,334,0
298,301,300,332,0
298,297,300,328,0
298,297,301,322,0
298,300,301,314,0
299,303,301,307,0
300,305,300,301,0
302,306,299,297,0
304,305,299,296,0
307,306,301,296,0
310,307,302,297,0
312,310,303,298,0
313,314,303,299,0
311,318,304,302,0
306,320,306,305,0
301,320,307,306,0
297,316,308,305,0
298,310,307,303,0
304,304,306,300,0
311,301,303,298,0
317,302,301,297,0
321,307,299,299,0
320,315,299,303,0
315,325,300,306,0
308,334,301,307,0
302,338,303,308,0
297,338,304,309,0
294,333,304,311,0
292,324,305,315,0
292,312,306,321,0
293,298,308,328,0
295,284,311,335,0
297,275,314,340,0
299,271,316,345,0
300,274,318,349,0
301,283,317,351,0
300,294,316,349,0
298,304,314,344,0
294,311,311,334,0
290,315,307,323,0
290,316,305,312,0
292,316,303,304,0
296,316,302,299,0
299,315,301,295,0
301,313,299,291,0
300,310,299,288,0
301,306,299,287,0
301,303,299,287,0
302,298,299,288,0
303,294,300,288,0
304,289,300,289,0
304,286,300,289,0
305,282,300,289,0
304,283,299,288,0
302,286,299,288,0
300,289,300,288,0
299,287,299,290,0
298,285,299,293,0
297,285,299,294,0
298,285,300,295,0
299,285,301,295,0
301,288,301,296,0
302,296,302,297,0
304,305,302,301,0
305,315,303,305,0
305,327,303,308,0
305,338,304,310,0
306,344,303,311,0
305,343,303,309,0
305,336,302,308,0
305,329,302,308,0
305,323,304,310,0
306,318,305,312,0
308,314,307,314,0
309,314,309,315,0
310,318,310,316,0
310,322,309,317,0
310,326,310,320,0
309,327,311,325,0
308,325,312,330,0
307,322,312,334,0
306,319,312,336,0
305,313,312,337,0
304,306,313,336,0
305,298,314,333,0
306,289,315,328,0
307,281,315,322,0
307,275,315,317,0
307,276,315,314,0
306,287,315,312,0
304,304,313,309,0
303,318,310,307,0
302,327,306,305,0
303,332,304,304,0
305,333,303,304,0
308,331,303,305,0
313,327,304,305,0
315,320,304,308,0
313,315,305,315,0
308,314,305,323,0
305,314,304,331,0
306,315,304,336,0
310,316,304,337,0
313,318,303,335,0
310,318,302,329,0
303,316,301,320,0
297,311,300,311,0
294,304,299,304,0
294,297,299,300,0
296,291,299,300,0
299,287,301,302,0
302,284,302,305,0
305,287,303,307,0
308,295,304,309,0
310,305,305,310,0
312,314,306,311,0
312,322,306,310,0
311,327,306,308,0
310,330,306,304,0
309,330,305,298,0
307,327,305,291,0
305,323,304,284,0
303,318,303,278,0
301,311,302,274,0
300,303,302,273,0
300,299,300,273,0
300,298,299,275,0
301,295,298,277,0
301,291,297,279,0
302,287,297,281,0
304,287,298,285,0
307,289,300,290,0
310,294,303,296,0
313,300,305,302,0
315,307,308,306,0
315,312,309,309,0
313,313,309,311,0
311,314,309,314,0
308,315,309,317,0
305,315,309,319,0
302,314,309,320,0
301,309,308,321,0
300,306,308,321,0
301,310,308,321,0
304,316,307,320,0
306,320,305,320,0
308,322,303,321,0
310,321,303,323,0
312,317,302,325,0
314,313,303,325,0
315,312,303,324,0
316,313,304,322,0
317,317,304,319,0
316,320,305,317,0
316,321,307,313,0
313,318,307,309,0
311,314,307,304,0
308,310,307,299,0
306,307,305,295,0
304,303,304,291,0
303,299,303,288,0
303,294,302,287,0
304,290,302,286,0
307,287,301,287,0
310,288,301,288,0
313,295,301,290,0
313,307,301,291,0
312,320,301,296,0
312,332,302,303,0
312,339,302,312,0
315,340,303,321,0
317,338,304,327,0
318,334,306,329,0
317,325,309,327,0
314,316,310,322,0
312,308,312,316,0
311,302,313,310,0
312,296,313,306,0
313,293,314,304,0
315,293,313,304,0
315,295,312,304,0
311,296,310,304,0
306,297,309,306,0
302,300,308,308,0
300,300,307,310,0
298,299,306,312,0
299,295,307,311,0
300,290,307,309,0
302,285,307,305,0
304,281,307,300,0
305,280,307,295,0
304,283,307,292,0
304,286,307,291,0
307,285,307,293,0
311,279,309,297,0
313,268,310,301,0
313,258,310,305,0
312,250,310,309,0
312,247,309,312,0
312,249,308,312,0
314,258,307,313,0
316,272,306,315,0
317,290,305,318,0
312,306,304,320,0
304,316,303,322,0
296,316,303,321,0
293,313,302,319,0
293,313,303,316,0
295,317,303,314,0
298,320,304,311,0
300,321,305,306,0
301,318,307,302,0
301,311,309,297,0
302,302,311,292,0
303,296,313,288,0
304,297,313,284,0
305,301,312,284,0
307,310,311,285,0
309,320,309,287,0
310,327,307,290,0
310,330,306,294,0
309,329,306,297,0
308,324,306,301,0
307,316,307,305,0
306,309,307,307,0
306,303,307,308,0
305,300,307,309,0
306,299,307,311,0
307,300,307,313,0
308,302,308,314,0
311,306,309,314,0
315,308,310,314,0
319,309,312,314,0
320,309,313,316,0
319,311,314,318,0
315,314,312,320,0
310,317,311,321,0
306,317,309,319,0
301,316,307,315,0
298,315,305,309,0
296,314,304,303,0
294,313,304,296,0
293,310,303,291,0
291,304,303,287,0
292,299,303,285,0
294,296,303,286,0
297,293,303,288,0
300,292,303,291,0
304,292,303,293,0
311,291,304,297,0
317,289,306,305,0
322,289,308,315,0
321,290,310,325,0
317,294,313,332,0
311,299,315,335,0
306,304,316,335,0
302,306,316,331,0
299,308,316,326,0
297,308,314,320,0
295,306,313,314,0
292,303,312,306,0
289,300,310,298,0
288,298,309,292,0
288,297,308,286,0
288,296,308,284,0
290,299,309,284,0
294,303,310,287,0
300,308,311,292,0
307,312,312,298,0
312,315,313,304,0
315,317,314,310,0
316,318,315,315,0
316,318,316,318,0
316,318,318,319,0
314,317,319,319,0
312,317,320,316,0
310,316,320,314,0
308,315,319,312,0
305,313,318,310,0
303,309,317,309,0
302,306,316,309,0
302,303,316,308,0
302,299,316,307,0
303,293,317,306,0
304,285,317,308,0
306,277,317,313,0
307,273,318,319,0
308,270,318,324,0
308,269,317,328,0
307,274,316,331,0
307,288,317,333,0
307,307,318,334,0
306,325,318,330,0
305,336,319,324,0
303,342,319,315,0
301,342,319,306,0
299,335,318,299,0
297,324,317,294,0
294,316,315,291,0
291,314,314,291,0
288,315,314,292,0
289,316,314,295,0
294,314,314,299,0
303,311,315,304,0
313,308,316,309,0
318,307,316,315,0
317,309,316,321,0
312,314,317,325,0
307,320,318,327,0
304,326,317,327,0
302,329,317,327,0
303,327,318,326,0
306,320,320,325,0
310,311,322,325,0
314,303,322,324,0
314,299,321,322,0
309,298,319,319,0
302,298,318,316,0
296,300,316,313,0
293,301,316,310,0
295,300,315,308,0
297,297,314,305,0
300,291,313,303,0
302,286,313,300,0
303,282,312,297,0
303,280,312,295,0
304,279,311,294,0
304,282,310,294,0
306,287,309,295,0
306,288,309,296,0
307,287,309,297,0
307,285,310,298,0
305,285,311,301,0
303,286,312,304,0
301,285,313,308,0
300,286,315,312,0
299,289,317,318,0
297,293,319,325,0
295,299,320,330,0
293,304,322,333,0
294,309,323,334,0
298,313,323,334,0
302,317,322,331,0
304,320,318,326,0
304,320,313,319,0
303,318,309,310,0
303,314,306,302,0
303,312,305,295,0
304,309,305,289,0
306,307,306,287,0
307,306,308,287,0
309,305,309,290,0
310,303,312,295,0
311,301,315,301,0
311,300,316,305,0
310,302,318,308,0
308,305,318,311,0
306,309,318,313,0
305,313,317,313,0
303,316,316,314,0
302,319,314,313,0
300,320,312,311,0
298,320,311,309,0
296,319,310,308,0
296,319,310,308,0
298,316,311,307,0
300,308,312,305,0
303,299,312,300,0
305,289,311,294,0
306,282,311,288,0
307,279,310,284,0
307,282,310,282,0
305,291,311,283,0
301,303,312,285,0
297,312,313,287,0
296,319,314,290,0
296,323,316,293,0
298,326,318,295,0
301,327,319,296,0
304,329,318,297,0
305,331,318,298,0
304,333,318,299,0
303,330,315,301,0
302,327,312,303,0
302,330,309,304,0
303,336,307,304,0
305,343,305,304,0
308,348,305,304,0
312,347,304,304,0
316,335,304,305,0
319,318,305,305,0
322,298,307,304,0
325,283,308,303,0
325,276,310,302,0
318,275,311,302,0
307,276,311,302,0
298,278,311,301,0
296,283,311,302,0
297,288,310,302,0
299,292,309,301,0
300,293,309,300,0
299,291,309,300,0
298,288,307,300,0
297,282,306,299,0
296,277,304,298,0
295,277,303,297,0
295,284,302,297,0
295,291,302,298,0
295,296,302,299,0
297,301,303,301,0
301,307,305,305,0
307,313,307,309,0
310,318,309,315,0
311,321,310,321,0
310,322,311,328,0
309,322,311,331,0
308,321,310,331,0
306,321,309,330,0
305,322,308,327,0
303,323,307,324,0
301,322,306,321,0
302,319,305,315,0
303,315,305,308,0
304,308,305,300,0
305,300,305,293,0
307,289,305,287,0
308,281,306,284,0
308,277,306,285,0
307,276,307,288,0
305,272,308,292,0
303,274,309,296,0
303,286,309,300,0
305,304,309,304,0
308,323,309,307,0
311,337,310,309,0
313,343,311,309,0
315,342,311,307,0
317,336,312,305,0
318,328,313,305,0
315,320,314,305,0
311,313,314,307,0
307,307,315,309,0
304,303,315,309,0
303,300,315,308,0
303,297,314,307,0
304,297,313,306,0
307,300,312,306,0
309,307,311,306,0
309,311,309,305,0
308,308,307,305,0
308,304,306,306,0
309,306,308,308,0
309,310,310,310,0
309,312,312,311,0
308,311,313,312,0
308,306,313,311,0
308,298,311,307,0
306,286,309,304,0
306,277,307,301,0
307,271,306,300,0
309,267,305,301,0
311,269,305,302,0
311,279,305,304,0
305,293,305,305,0
297,304,305,306,0
291,313,306,307,0
292,316,307,307,0
296,313,309,307,0
300,305,310,307,0
303,295,310,308,0
307,286,310,310,0
309,278,310,313,0
311,275,310,315,0
311,279,310,317,0
310,292,309,318,0
308,310,308,319,0
307,327,307,318,0
307,337,306,315,0
309,341,306,313,0
311,341,304,309,0
312,338,303,306,0
310,336,302,301,0
308,333,302,297,0
304,330,302,293,0
303,326,301,289,0
301,320,300,287,0
301,313,299,287,0
301,309,300,291,0
303,307,300,298,0
304,305,302,305,0
306,304,302,310,0
308,304,304,312,0
310,304,305,311,0
311,303,307,307,0
312,302,309,302,0
312,302,310,298,0
313,305,311,296,0
313,307,313,297,0
314,310,315,299,0
313,314,315,302,0
310,315,314,304,0
306,313,313,304,0
301,309,310,302,0
297,308,308,299,0
296,309,305,295,0
297,311,303,294,0
300,313,302,295,0
304,314,302,299,0
307,312,304,305,0
310,306,305,312,0
311,297,308,318,0
313,287,310,322,0
315,280,313,326,0
317,279,316,330,0
318,284,318,332,0
318,292,318,332,0
317,300,318,329,0
315,310,316,324,0
313,320,314,318,0
311,328,313,311,0
309,333,311,304,0
307,336,308,298,0
306,335,306,292,0
305,331,305,288,0
303,327,304,286,0
302,323,304,286,0
302,320,305,288,0
302,317,307,291,0
303,313,308,296,0
305,310,309,300,0
308,310,309,305,0
313,310,310,308,0
317,310,311,309,0
318,309,312,311,0
318,309,313,311,0
317,309,314,311,0
316,312,314,311,0
316,317,316,312,0
318,319,317,313,0
314,317,317,313,0
305,311,316,312,0
295,306,316,311,0
290,304,317,310,0
290,301,317,310,0
294,294,316,307,0
297,286,316,304,0
299,278,315,302,0
300,275,314,300,0
301,280,311,300,0
302,291,310,301,0
304,303,309,302,0
306,310,309,304,0
307,312,309,305,0
308,310,309,305,0
309,306,308,305,0
310,303,309,305,0
310,305,310,305,0
309,308,310,304,0
307,311,310,303,0
306,315,310,303,0
305,319,310,304,0
304,322,311,306,0
305,324,312,311,0
306,325,313,317,0
307,323,313,322,0
308,319,313,326,0
308,312,312,327,0
306,305,312,325,0
305,300,312,321,0
304,297,311,316,0
303,292,309,311,0
302,287,307,306,0
301,282,306,304,0
301,279,306,303,0
302,278,307,304,0
303,283,308,307,0
304,297,309,312,0
306,312,309,315,0
306,321,308,316,0
305,323,307,316,0
303,318,306,317,0
303,311,307,320,0
303,304,309,322,0
303,299,311,323,0
303,293,312,322,0
303,288,313,318,0
303,284,312,313,0
304,281,310,306,0
304,277,308,300,0
303,274,307,296,0
304,275,307,294,0
304,279,309,294,0
306,284,310,295,0
308,292,313,296,0
311,299,315,298,0
312,303,317,300,0
311,303,318,301,0
311,302,319,304,0
310,303,319,309,0
309,306,319,316,0
308,310,320,322,0
307,310,320,326,0
305,309,320,328,0
302,307,320,329,0
299,307,320,327,0
297,306,319,324,0
296,303,318,321,0
295,302,318,319,0
296,304,317,317,0
297,306,317,315,0
298,307,317,314,0
299,308,318,315,0
303,312,319,316,0
307,317,320,316,0
313,322,321,315,0
317,326,320,313,0
316,327,319,309,0
312,329,317,306,0
307,329,315,305,0
307,327,314,306,0
309,321,314,308,0
313,315,314,309,0
314,307,314,310,0
309,301,313,309,0
303,296,313,308,0
298,293,312,305,0
296,294,311,304,0
295,296,310,301,0
294,294,310,298,0
294,290,310,298,0
295,291,312,299,0
298,297,313,302,0
302,304,314,305,0
305,311,315,310,0
306,323,318,317,0
307,337,319,322,0
307,344,320,326,0
307,342,321,329,0
307,335,322,330,0
306,328,322,330,0
305,319,322,329,0
303,309,320,326,0
302,299,317,324,0
302,292,315,321,0
301,287,314,320,0
300,283,313,317,0
300,277,313,315,0
300,272,314,312,0
301,271,315,309,0
303,272,316,308,0
305,279,318,309,0
305,292,319,310,0
304,306,319,311,0
301,316,319,310,0
299,323,319,308,0
297,329,318,306,0
296,331,316,303,0
297,329,312,300,0
298,321,308,296,0
299,312,305,293,0
300,305,304,289,0
301,299,303,287,0
302,295,303,285,0
302,295,303,285,0
303,300,303,287,0
304,306,303,290,0
307,312,304,294,0
310,315,304,298,0
314,315,305,302,0
317,313,306,307,0
317,310,307,314,0
315,307,309,321,0
313,305,311,328,0
311,305,313,333,0
309,307,314,335,0
306,311,314,333,0
303,314,313,329,0
301,317,311,323,0
299,323,310,317,0
298,329,310,313,0
297,329,309,312,0
297,322,308,312,0
299,311,309,313,0
300,300,310,313,0
300,291,310,311,0
301,289,310,310,0
301,292,310,307,0
300,297,308,304,0
300,300,307,302,0
300,302,307,301,0
301,305,307,301,0
303,309,307,302,0
305,314,308,304,0
306,317,309,304,0
305,319,309,305,0
304,316,309,305,0
303,309,310,307,0
304,299,310,309,0
306,290,310,312,0
306,283,309,314,0
305,276,308,315,0
304,271,308,315,0
304,274,308,313,0
307,288,307,313,0
309,304,307,316,0
308,317,307,321,0
306,325,307,327,0
306,329,305,332,0
308,328,303,335,0
311,325,303,336,0
313,320,303,334,0
313,315,304,329,0
312,309,306,325,0
311,304,308,322,0
310,298,310,321,0
308,294,313,320,0
307,293,314,318,0
305,297,315,316,0
305,304,315,313,0
305,308,315,308,0
305,309,313,301,0
305,309,309,294,0
305,307,304,287,0
305,305,300,283,0
305,302,297,281,0
305,300,296,282,0
304,298,295,281,0
304,297,294,279,0
304,296,293,277,0
305,295,293,277,0
306,295,294,278,0
307,296,297,282,0
308,298,300,287,0
310,303,302,292,0
310,310,304,297,0
310,318,305,302,0
308,327,306,306,0
306,334,306,308,0
304,339,306,309,0
304,342,307,310,0
306,340,307,312,0
308,333,308,314,0
308,321,308,315,0
309,307,309,315,0
309,294,309,314,0
310,284,310,313,0
311,281,309,312,0
311,283,309,309,0
311,289,309,307,0
311,291,309,306,0
310,290,310,305,0
309,283,309,306,0
308,273,310,307,0
307,264,310,306,0
308,261,310,304,0
311,267,310,302,0
314,277,310,299,0
316,287,311,297,0
318,295,312,296,0
318,300,312,296,0
317,304,312,298,0
316,308,312,300,0
314,312,312,303,0
310,314,312,305,0
308,314,312,308,0
308,313,311,310,0
309,311,310,312,0
311,309,308,314,0
312,307,307,317,0
314,304,307,318,0
314,300,308,318,0
312,296,310,317,0
309,295,311,315,0
305,295,313,314,0
302,297,314,313,0
302,298,315,313,0
302,302,316,314,0
303,305,316,315,0
305,305,315,316,0
306,303,314,319,0
307,304,313,323,0
310,311,313,328,0
312,321,313,331,0
314,329,313,331,0
314,331,313,329,0
312,331,312,327,0
310,327,312,325,0
309,320,311,323,0
309,312,310,319,0
310,302,309,313,0
311,292,307,306,0
312,286,307,300,0
313,287,307,297,0
314,292,308,294,0
315,298,309,292,0
315,302,311,290,0
315,304,311,287,0
316,300,311,285,0
317,294,310,283,0
314,285,310,283,0
305,277,308,283,0
296,271,307,283,0
291,270,305,284,0
290,276,305,288,0
292,288,306,293,0
295,300,308,298,0
298,309,309,301,0
300,315,309,303,0
302,319,308,305,0
303,317,308,308,0
304,313,308,310,0
306,310,308,312,0
310,312,309,312,0
313,319,308,312,0
313,323,308,312,0
310,322,308,311,0
306,322,308,309,0
303,322,307,308,0
301,322,305,305,0
298,320,304,304,0
297,319,303,302,0
296,317,303,302,0
297,314,303,303,0
298,311,303,304,0
299,308,303,303,0
300,308,303,303,0
301,310,302,302,0
304,311,302,302,0
306,310,303,303,0
308,303,304,305,0
308,294,306,308,0
308,284,308,313,0
307,274,311,318,0
307,268,314,323,0
309,270,317,328,0
310,279,319,332,0
309,293,319,334,0
309,304,318,333,0
308,312,316,330,0
307,314,315,326,0
306,312,313,324,0
306,305,311,324,0
307,296,310,326,0
308,289,309,330,0
309,288,308,334,0
310,292,307,338,0
310,297,306,339,0
311,300,304,336,0
311,301,303,331,0
310,303,301,325,0
309,303,300,320,0
307,298,299,314,0
306,293,300,311,0
304,291,301,308,0
304,294,304,306,0
304,300,307,304,0
306,306,309,303,0
307,314,311,301,0
309,325,312,302,0
311,331,313,303,0
312,333,313,307,0
313,334,313,314,0
312,336,313,325,0
310,336,311,334,0
310,332,309,341,0
310,327,306,342,0
309,321,304,337,0
307,316,302,329,0
306,312,301,319,0
307,309,301,310,0
309,305,301,302,0
311,302,301,296,0
312,299,301,292,0
313,297,301,288,0
313,295,301,286,0
312,292,301,285,0
311,290,300,285,0
309,289,300,285,0
308,289,300,285,0
307,289,300,283,0
306,293,300,283,0
304,300,301,285,0
303,306,300,287,0
303,307,300,292,0
303,305,300,295,0
303,303,299,298,0
303,301,299,299,0
303,300,299,299,0
301,302,299,298,0
300,306,299,298,0
299,307,299,297,0
300,306,300,297,0
301,305,301,298,0
302,307,302,300,0
304,309,303,302,0
306,311,304,304,0
306,312,304,306,0
306,312,304,306,0
305,313,303,306,0
304,314,302,305,0
305,316,301,306,0
306,316,301,306,0
309,312,301,307,0
312,308,302,308,0
311,302,302,309,0
307,293,302,310,0
305,284,301,312,0
305,276,301,315,0
306,270,301,320,0
307,266,303,326,0
307,266,304,333,0
307,270,305,340,0
307,280,307,345,0
309,293,309,347,0
311,308,310,347,0
312,324,311,343,0
312,341,309,338,0
311,353,307,333,0
311,359,306,328,0
311,357,304,322,0
311,349,303,315,0
310,339,303,307,0
309,327,302,300,0
307,316,301,292,0
306,304,299,287,0
305,290,298,284,0
304,279,297,285,0
305,271,296,287,0
305,268,295,291,0
306,272,294,297,0
306,281,295,304,0
307,293,296,310,0
311,301,297,312,0
314,304,299,311,0
313,304,299,308,0
311,306,299,304,0
307,313,298,298,0
305,326,298,294,0
303,341,297,291,0
302,351,298,291,0
302,356,300,292,0
302,355,302,293,0
302,350,304,295,0
302,345,306,297,0
301,339,307,299,0
302,331,308,300,0
302,321,308,300,0
302,312,307,299,0
303,301,305,298,0
304,288,303,297,0
305,278,300,298,0
305,272,299,298,0
305,267,298,298,0
303,265,298,297,0
302,269,299,298,0
301,283,299,300,0
301,300,299,301,0
302,314,299,301,0
302,323,299,301,0
303,328,300,301,0
304,329,301,302,0
305,329,302,303,0
306,326,303,305,0
309,322,304,306,0
311,319,304,307,0
313,314,304,308,0
311,308,305,307,0
306,303,305,307,0
299,300,306,308,0
294,298,307,309,0
290,302,309,311,0
292,310,311,315,0
297,321,312,320,0
302,328,312,325,0
305,330,310,331,0
306,327,307,334,0
305,324,305,333,0
304,320,304,331,0
303,315,304,327,0
301,310,303,323,0
300,306,304,319,0
299,304,304,314,0
298,303,303,309,0
296,303,303,305,0
295,305,303,302,0
296,308,304,300,0
298,309,304,300,0
303,306,304,300,0
309,301,304,302,0
314,295,303,305,0
317,289,304,309,0
320,285,304,314,0
322,283,304,319,0
324,285,304,323,0
326,293,305,325,0
330,305,304,326,0
328,319,303,323,0
319,332,302,319,0
310,344,301,314,0
304,353,300,310,0
302,359,300,309,0
301,358,300,309,0
302,351,301,311,0
304,339,302,312,0
305,328,303,310,0
306,319,304,307,0
307,313,303,304,0
308,310,303,307,0
308,307,303,313,0
308,305,303,318,0
308,301,303,320,0
307,295,303,318,0
307,289,303,314,0
306,284,304,307,0
305,282,305,300,0
304,286,305,293,0
302,291,304,286,0
302,296,304,281,0
302,296,304,279,0
303,293,303,280,0
304,289,303,282,0
304,286,303,285,0
303,287,303,288,0
303,290,302,290,0
304,296,302,292,0
306,302,302,293,0
309,306,301,294,0
311,309,301,295,0
309,309,302,298,0
306,310,302,301,0
303,313,304,305,0
301,316,305,309,0
300,319,307,313,0
299,321,309,316,0
298,318,309,317,0
296,309,310,315,0
295,299,309,314,0
295,292,308,314,0
296,293,308,315,0
298,301,307,319,0
302,310,307,323,0
305,316,307,326,0
306,320,307,327,0
308,322,307,327,0
308,324,308,325,0
309,326,309,322,0
310,325,309,317,0
311,323,308,311,0
312,320,307,305,0
312,314,306,297,0
312,306,304,291,0
312,297,303,286,0
312,291,303,286,0
312,288,305,287,0
312,286,307,290,0
313,285,308,294,0
314,285,308,298,0
314,285,308,302,0
315,285,308,303,0
315,287,307,304,0
314,290,306,303,0
311,295,305,303,0
308,304,304,303,0
305,316,304,304,0
302,325,304,305,0
299,330,303,306,0
299,331,303,307,0
302,328,304,308,0
306,322,305,311,0
306,318,306,312,0
304,315,306,314,0
302,311,307,316,0
301,305,309,315,0
302,297,310,313,0
302,288,311,308,0
302,283,309,302,0
301,287,307,296,0
301,301,306,292,0
301,319,305,291,0
302,331,306,293,0
304,333,306,298,0
305,328,307,303,0
307,321,306,309,0
308,313,306,313,0
308,306,306,317,0
307,304,307,319,0
307,308,306,319,0
307,315,305,316,0
307,323,304,311,0
307,330,302,306,0
307,336,301,305,0
307,341,301,309,0
307,343,302,315,0
307,340,303,319,0
307,331,305,321,0
307,317,307,319,0
307,300,309,316,0
306,284,310,312,0
306,272,310,309,0
305,265,310,306,0
303,262,308,305,0
302,264,305,307,0
301,269,301,310,0
302,280,299,314,0
305,294,299,317,0
308,306,299,317,0
312,313,300,317,0
316,313,300,315,0
321,308,300,314,0
324,303,301,312,0
324,300,302,310,0
319,302,304,309,0
311,307,305,308,0
304,313,306,304,0
301,318,306,300,0
300,322,307,296,0
299,325,307,292,0
298,326,306,291,0
297,328,306,293,0
297,330,306,296,0
298,333,305,300,0
299,335,305,304,0
299,336,305,307,0
300,336,305,308,0
300,334,304,308,0
300,330,303,306,0
301,327,301,305,0
302,323,299,305,0
304,319,297,306,0
305,315,297,307,0
305,312,297,308,0
306,308,298,309,0
307,304,299,311,0
308,299,301,312,0
310,296,303,313,0
310,296,305,313,0
309,300,305,312,0
309,306,305,309,0
308,313,305,304,0
308,319,305,300,0
308,320,306,297,0
309,315,307,296,0
309,306,308,294,0
309,298,309,294,0
306,294,308,293,0
301,293,307,291,0
294,295,306,288,0
291,301,304,286,0
292,306,303,286,0
295,311,302,287,0
298,314,301,288,0
301,315,302,292,0
305,315,303,297,0
308,315,305,302,0
310,315,306,306,0
310,317,308,310,0
309,319,309,313,0
308,321,310,316,0
307,322,309,318,0
305,321,308,318,0
302,319,306,316,0
298,318,306,315,0
297,316,306,314,0
297,315,306,313,0
300,316,306,313,0
302,315,304,314,0
301,312,303,316,0
301,306,301,318,0
301,297,300,319,0
301,290,299,320,0
301,286,300,321,0
301,286,302,323,0
303,290,304,325,0
304,296,306,326,0
306,303,308,326,0
307,308,308,323,0
307,312,308,317,0
308,312,307,307,0
309,310,305,296,0
310,306,304,287,0
308,303,304,280,0
303,299,303,276,0
296,297,302,276,0
289,298,301,278,0
285,304,301,281,0
285,315,302,286,0
289,325,303,289,0
295,333,303,291,0
300,335,303,292,0
305,330,304,293,0
309,322,304,295,0
311,315,306,297,0
313,309,307,299,0
313,303,308,302,0
314,296,309,305,0
313,288,311,309,0
311,281,311,315,0
309,276,313,321,0
307,269,314,326,0
305,263,315,329,0
303,259,315,329,0
301,262,314,327,0
300,267,313,324,0
299,274,312,321,0
300,284,312,317,0
301,294,310,309,0
301,303,308,300,0
302,311,307,291,0
303,315,306,285,0
305,318,305,281,0
307,320,305,282,0
308,319,306,284,0
308,318,307,287,0
307,317,308,292,0
306,318,309,297,0
305,320,310,302,0
305,321,309,305,0
305,322,308,307,0
306,322,306,306,0
306,319,305,303,0
306,313,304,299,0
307,304,303,294,0
307,295,302,289,0
307,291,302,288,0
308,292,303,295,0
310,293,304,305,0
310,293,305,315,0
305,295,305,322,0
301,298,305,325,0
298,301,305,325,0
295,303,306,324,0
294,307,308,323,0
295,310,310,321,0
296,314,312,319,0
298,319,313,314,0
299,324,314,308,0
300,326,314,303,0
300,324,312,298,0
301,320,308,293,0
300,316,304,290,0
299,312,300,288,0
298,309,298,286,0
298,306,295,285,0
297,305,293,286,0
298,303,292,286,0
298,303,291,286,0
299,304,291,285,0
301,305,291,285,0
304,307,291,286,0
309,309,292,288,0
313,312,293,291,0
316,314,295,293,0
316,315,296,294,0
314,316,299,295,0
314,315,302,296,0
315,313,306,297,0
315,311,308,297,0
313,310,309,297,0
310,309,309,298,0
306,304,308,300,0
304,298,306,302,0
302,292,303,303,0
301,288,300,304,0
302,287,297,305,0
303,288,295,305,0
304,291,294,306,0
304,294,293,307,0
305,296,293,310,0
306,296,293,313,0
308,295,294,316,0
309,294,296,319,0
312,295,298,322,0
314,297,300,324,0
315,300,302,327,0
315,303,304,329,0
314,307,305,329,0
312,308,305,328,0
311,305,303,326,0
308,297,302,322,0
306,286,299,316,0
304,273,297,308,0
302,260,294,300,0
301,250,293,295,0
300,254,292,291,0
300,267,292,291,0
300,282,292,292,0
302,295,292,294,0
305,305,293,294,0
306,312,293,294,0
307,315,294,295,0
307,315,294,296,0
308,313,295,298,0
308,310,296,300,0
309,307,298,304,0
309,307,300,307,0
310,309,303,310,0
309,311,305,311,0
308,313,307,310,0
308,317,308,310,0
310,320,308,310,0
310,323,307,311,0
310,323,306,311,0
309,323,304,310,0
308,320,303,310,0
306,316,303,313,0
304,311,303,316,0
303,308,303,319,0
302,305,304,322,0
301,305,304,324,0
301,306,305,325,0
303,306,306,326,0
307,307,307,329,0
313,308,308,332,0
320,307,308,333,0
327,301,309,329,0
331,293,309,322,0
324,287,309,314,0
312,286,309,308,0
300,290,310,303,0
292,301,310,299,0
288,316,312,297,0
288,329,313,296,0
291,336,315,297,0
294,336,315,298,0
296,330,315,298,0
298,317,313,297,0
299,307,311,294,0
301,302,309,290,0
304,300,308,287,0
306,299,307,285,0
308,299,308,284,0
310,301,309,286,0
312,304,311,288,0
313,307,314,291,0
314,307,316,294,0
313,306,318,297,0
312,305,318,298,0
311,304,319,301,0
310,306,319,303,0
308,308,319,305,0
306,311,319,307,0
302,311,319,309,0
300,308,320,310,0
300,298,321,310,0
303,285,321,307,0
305,272,321,306,0
306,264,320,307,0
305,264,318,310,0
305,273,316,315,0
307,290,315,322,0
309,308,316,330,0
313,322,319,337,0
318,331,323,341,0
321,337,325,341,0
322,339,327,338,0
320,338,328,331,0
314,336,327,322,0
306,333,325,311,0
300,331,322,300,0
298,329,320,290,0
299,327,318,282,0
301,325,316,278,0
304,323,315,276,0
307,320,313,276,0
309,318,312,279,0
310,315,312,285,0
309,311,312,293,0
309,308,312,301,0
309,305,313,308,0
309,301,313,314,0
310,298,314,317,0
312,296,315,320,0
313,296,317,320,0
315,297,318,316,0
315,299,319,310,0
313,304,320,301,0
311,309,320,292,0
309,311,320,285,0
307,310,320,283,0
307,310,321,284,0
307,310,321,286,0
308,310,321,290,0
309,310,320,295,0
312,313,320,302,0
313,318,320,309,0
315,320,320,314,0
316,317,319,315,0
317,309,318,313,0
318,301,317,310,0
319,296,316,308,0
317,297,316,306,0
312,299,316,305,0
306,300,316,305,0
302,301,316,306,0
300,305,318,309,0
300,307,320,311,0
301,305,321,313,0
301,303,321,313,0
303,302,321,311,0
304,302,321,310,0
306,304,320,309,0
307,308,319,309,0
308,310,319,310,0
309,312,318,313,0
309,313,317,316,0
308,313,316,317,0
308,312,315,318,0
308,312,314,318,0
309,312,314,319,0
310,312,314,319,0
311,311,313,320,0
312,309,313,319,0
311,306,314,316,0
310,301,315,312,0
308,295,316,308,0
306,287,316,303,0
303,279,316,299,0
302,272,315,295,0
302,267,314,293,0
303,264,313,292,0
303,265,312,292,0
303,269,311,293,0
303,280,311,295,0
304,294,310,299,0
305,308,310,303,0
308,322,309,307,0
310,329,309,310,0
312,329,309,313,0
312,324,309,315,0
311,319,311,318,0
313,316,312,321,0
315,314,314,323,0
317,315,316,324,0
317,316,317,322,0
316,317,317,320,0
314,316,317,318,0
313,314,318,317,0
311,308,318,316,0
310,301,318,315,0
309,295,318,313,0
307,290,318,308,0
305,289,317,303,0
302,290,314,297,0
299,293,311,290,0
297,299,309,286,0
298,310,308,284,0
301,321,308,285,0
306,329,308,287,0
311,333,308,289,0
316,335,308,292,0
321,343,309,294,0
325,354,309,296,0
324,360,311,299,0
318,355,313,303,0
311,340,316,308,0
307,321,319,313,0
307,305,322,317,0
310,296,324,320,0
313,288,325,320,0
316,281,324,320,0
316,276,323,320,0
312,274,323,320,0
308,276,323,320,0
304,278,324,320,0
302,281,324,318,0
299,281,322,314,0
297,283,319,310,0
297,289,317,308,0
300,298,315,308,0
305,308,313,308,0
310,314,311,307,0
313,315,309,306,0
314,312,308,305,0
315,308,309,304,0
315,302,309,302,0
314,299,310,300,0
313,302,310,299,0
311,311,309,298,0
310,319,309,298,0
308,319,309,297,0
307,313,309,294,0
306,304,309,291,0
305,294,309,288,0
305,282,309,286,0
304,270,309,284,0
304,264,309,283,0
305,266,309,285,0
307,274,310,288,0
308,282,310,292,0
309,291,311,296,0
309,300,311,300,0
309,309,311,305,0
309,315,313,310,0
310,318,314,315,0
311,317,316,320,0
310,315,317,325,0
310,315,319,329,0
310,315,319,331,0
309,315,318,332,0
308,316,317,333,0
308,319,317,335,0
307,321,316,335,0
307,322,315,335,0
307,323,315,334,0
308,325,314,330,0
309,328,313,325,0
310,330,312,320,0
310,332,311,317,0
310,334,310,314,0
309,333,310,309,0
309,329,310,304,0
308,324,309,297,0
309,318,309,293,0
308,314,310,292,0
307,311,311,293,0
304,309,311,295,0
301,308,312,297,0
299,309,311,299,0
299,310,311,301,0
301,305,312,302,0
303,299,312,302,0
304,295,313,300,0
306,296,313,298,0
307,296,312,297,0
307,295,311,297,0
307,293,310,298,0
306,291,308,298,0
306,291,307,298,0
306,292,305,295,0
307,295,304,293,0
308,299,304,291,0
310,304,305,291,0
311,309,306,293,0
312,312,307,296,0
311,313,309,300,0
310,311,310,303,0
307,311,311,305,0
304,314,311,306,0
303,319,311,306,0
303,321,311,306,0
304,319,311,305,0
305,316,310,304,0
307,311,309,304,0
307,305,309,304,0
306,302,307,304,0
305,300,305,303,0
305,299,304,302,0
307,298,302,301,0
309,299,301,300,0
313,300,302,300,0
313,302,303,301,0
311,301,304,304,0
309,298,305,307,0
307,292,307,311,0
305,285,308,316,0
303,280,309,321,0
302,280,309,326,0
301,286,309,329,0
301,295,308,330,0
301,302,306,330,0
300,306,304,328,0
298,308,302,325,0
295,310,301,322,0
292,313,300,319,0
290,317,300,315,0
291,321,299,309,0
294,320,299,304,0
299,315,299,299,0
304,308,299,295,0
308,301,299,292,0
308,298,301,292,0
307,299,302,294,0
307,303,303,297,0
306,307,304,299,0
306,310,304,300,0
305,312,303,300,0
305,313,302,300,0
305,313,301,300,0
304,313,299,302,0
304,312,299,305,0
303,313,299,307,0
303,314,299,308,0
301,315,299,305,0
301,313,299,301,0
301,308,299,296,0
301,304,298,290,0
301,304,298,286,0
302,307,298,286,0
304,310,299,288,0
305,312,299,292,0
305,314,299,296,0
305,317,299,299,0
306,319,300,300,0
309,320,301,302,0
312,319,302,304,0
312,315,303,305,0
311,311,304,307,0
309,310,304,309,0
307,312,304,311,0
306,316,304,312,0
305,320,303,314,0
305,319,302,317,0
305,314,300,320,0
305,308,299,320,0
305,304,297,319,0
306,303,295,314,0
308,301,292,308,0
311,294,291,302,0
314,287,289,297,0
318,280,289,295,0
321,279,290,296,0
317,282,291,298,0
312,290,293,301,0
308,300,296,303,0
305,312,298,304,0
304,323,299,305,0
303,331,300,306,0
303,332,300,307,0
302,331,300,308,0
303,329,300,309,0
305,325,299,311,0
307,319,298,311,0
309,312,297,310,0
308,307,297,310,0
306,307,298,309,0
303,309,300,307,0
301,308,301,305,0
299,307,303,305,0
299,309,303,305,0
301,312,304,308,0
303,314,305,311,0
304,312,304,314,0
305,310,304,317,0
305,311,304,320,0
305,316,304,323,0
306,321,305,326,0
306,324,305,328,0
305,325,304,328,0
305,325,303,325,0
306,324,302,319,0
306,323,299,313,0
307,325,298,307,0
308,329,296,302,0
310,333,295,299,0
313,337,295,297,0
313,338,294,297,0
312,332,294,297,0
310,322,294,298,0
309,308,295,300,0
309,294,296,301,0
310,281,297,301,0
311,271,298,299,0
313,269,300,296,0
314,275,303,295,0
316,285,304,295,0
317,293,304,295,0
316,300,304,294,0
314,304,303,293,0
311,307,302,293,0
307,309,300,292,0
305,311,299,290,0
303,311,298,289,0
302,311,297,288,0
300,308,296,288,0
298,304,296,287,0
298,300,296,287,0
300,301,295,288,0
304,304,295,291,0
306,304,295,293,0
308,304,295,295,0
310,304,296,298,0
311,305,297,301,0
312,307,298,305,0
313,309,300,309,0
313,313,302,312,0
312,317,303,315,0
311,321,304,318,0
309,326,304,324,0
307,329,305,331,0
305,332,306,336,0
303,333,306,338,0
303,332,306,335,0
304,327,305,329,0
306,316,304,321,0
307,302,303,313,0
307,288,302,305,0
307,278,302,300,0
307,271,302,298,0
305,265,303,299,0
303,264,303,303,0
300,269,304,308,0
299,280,305,314,0
303,295,305,318,0
308,307,306,320,0
311,315,306,320,0
313,317,307,318,0
314,318,306,316,0
315,320,305,312,0
314,323,305,306,0
310,325,304,301,0
306,325,303,297,0
302,326,302,292,0
300,326,302,289,0
299,325,301,288,0
298,322,301,289,0
298,316,300,290,0
296,305,300,292,0
296,295,300,295,0
296,287,302,300,0
298,287,304,307,0
300,294,306,314,0
304,304,308,321,0
308,315,310,328,0
312,323,312,333,0
316,328,313,338,0
317,328,314,339,0
316,324,314,336,0
313,318,312,331,0
310,312,310,326,0
307,307,308,321,0
304,303,307,317,0
302,301,306,314,0
299,299,305,312,0
296,301,305,309,0
292,304,303,306,0
291,306,303,303,0
293,305,303,301,0
296,302,302,302,0
300,301,302,304,0
305,302,302,307,0
309,305,303,311,0
312,308,305,315,0
314,310,307,317,0
314,310,308,317,0
314,307,309,314,0
312,303,308,307,0
309,299,307,299,0
305,298,304,292,0
300,298,303,287,0
297,302,301,284,0
296,310,301,284,0
297,316,301,286,0
301,317,302,291,0
304,310,302,295,0
306,298,302,299,0
307,292,302,303,0
308,295,301,307,0
309,303,300,309,0
310,311,300,311,0
309,316,301,313,0
309,316,302,313,0
307,313,303,313,0
307,307,305,313,0
308,301,306,312,0
310,296,308,312,0
311,292,310,312,0
310,290,311,314,0
309,290,312,318,0
308,294,312,324,0
308,302,311,332,0
307,311,310,339,0
306,318,308,344,0
305,320,306,345,0
304,320,303,343,0
305,318,302,338,0
306,314,300,332,0
308,309,300,325,0
311,305,298,318,0
315,303,298,313,0
320,303,298,309,0
326,302,298,306,0
330,300,299,303,0
326,298,301,301,0
314,296,302,300,0
302,295,302,299,0
294,294,303,295,0
288,297,302,290,0
285,308,302,284,0
285,321,301,279,0
286,329,301,277,0
289,326,301,278,0
293,316,301,281,0
296,305,302,285,0
298,298,303,290,0
300,294,304,295,0
301,291,305,300,0
302,289,306,305,0
303,288,307,312,0
305,287,307,319,0
308,287,308,327,0
311,287,308,335,0
313,288,309,340,0
313,288,310,343,0
311,288,312,341,0
310,288,312,336,0
308,291,311,329,0
305,296,311,321,0
303,301,311,314,0
302,305,311,308,0
301,309,309,304,0
300,310,308,300,0
300,310,307,296,0
299,307,305,293,0
300,300,304,291,0
300,295,303,291,0
300,289,302,294,0
300,284,302,297,0
300,280,302,300,0
301,282,302,301,0
302,286,303,304,0
304,290,303,307,0
304,293,303,310,0
304,294,303,311,0
303,293,302,311,0
302,293,302,309,0
304,297,303,309,0
307,303,304,310,0
309,309,305,310,0
308,314,305,310,0
306,318,306,309,0
303,320,306,309,0
301,320,305,308,0
303,314,304,306,0
304,303,303,303,0
305,293,301,300,0
306,287,300,297,0
307,283,299,296,0
308,278,299,298,0
308,275,298,303,0
308,279,298,309,0
308,289,298,316,0
308,300,299,322,0
308,309,301,327,0
309,317,302,333,0
311,325,303,338,0
312,332,303,340,0
313,336,302,339,0
313,332,301,334,0
312,323,300,327,0
311,318,299,317,0
308,318,298,308,0
306,320,298,301,0
304,319,297,297,0
303,315,297,295,0
303,309,298,294,0
304,303,298,295,0
305,300,299,298,0
305,301,299,301,0
306,304,299,303,0
306,308,300,304,0
306,313,299,303,0
305,316,299,299,0
305,317,299,295,0
305,317,300,292,0
305,316,301,292,0
305,313,303,295,0
307,306,304,300,0
310,297,305,306,0
311,291,307,314,0
310,290,307,322,0
307,293,308,328,0
303,296,308,330,0
300,298,307,327,0
298,298,306,319,0
296,299,304,309,0
292,297,301,299,0
288,292,299,291,0
286,285,297,286,0
287,282,297,284,0
292,285,297,285,0
297,293,299,287,0
303,300,300,292,0
307,306,302,297,0
311,311,303,301,0
312,315,304,305,0
312,320,306,308,0
311,323,307,310,0
310,324,307,311,0
309,325,306,312,0
307,325,306,313,0
306,325,306,313,0
305,324,306,315,0
305,321,305,316,0
306,319,304,317,0
307,319,303,317,0
308,320,302,315,0
308,319,300,309,0
307,314,299,304,0
306,308,298,301,0
306,299,298,301,0
306,289,299,303,0
308,282,301,306,0
312,281,304,309,0
316,284,306,311,0
321,291,307,312,0
324,301,307,313,0
320,310,308,316,0
314,313,307,319,0
307,309,307,320,0
303,301,307,320,0
301,291,306,319,0
301,284,306,317,0
301,278,306,314,0
301,273,306,309,0
301,274,305,303,0
300,284,303,298,0
300,300,301,295,0
300,315,300,292,0
300,329,299,291,0
302,339,299,292,0
304,342,300,295,0
307,337,302,298,0
310,328,305,303,0
313,320,308,308,0
314,316,310,313,0
314,317,312,317,0
313,319,313,318,0
311,319,314,317,0
309,319,314,315,0
307,317,314,315,0
306,314,313,316,0
305,308,312,320,0
305,302,312,323,0
306,297,311,326,0
307,292,310,327,0
308,285,309,327,0
309,281,309,326,0
311,286,308,326,0
313,295,309,323,0
315,303,308,319,0
316,309,309,314,0
318,311,308,309,0
318,313,307,304,0
318,314,306,298,0
318,313,305,294,0
317,313,304,290,0
316,313,304,290,0
313,316,304,292,0
309,320,305,294,0
305,325,306,297,0
302,328,306,297,0
298,329,306,295,0
297,328,306,292,0
298,326,305,288,0
303,324,305,285,0
308,324,304,282,0
309,325,303,283,0
307,325,303,285,0
305,320,303,290,0
302,314,304,295,0
299,307,305,299,0
298,300,305,303,0
299,297,305,308,0
304,298,307,313,0
308,303,307,317,0
310,307,308,319,0
310,311,308,318,0
307,312,307,316,0
304,310,307,313,0
303,305,307,310,0
302,298,306,308,0
301,290,306,304,0
301,284,304,299,0
301,281,302,294,0
301,279,300,291,0
301,282,298,289,0
301,290,297,288,0
302,301,297,291,0
303,308,297,294,0
304,311,299,299,0
306,313,301,304,0
307,312,303,309,0
307,308,305,313,0
306,305,307,316,0
306,305,309,319,0
306,306,311,322,0
305,305,311,325,0
306,302,311,328,0
307,301,308,328,0
308,300,306,326,0
308,301,303,322,0
308,305,301,317,0
308,312,299,313,0
307,318,297,309,0
306,322,296,306,0
305,324,295,304,0
304,324,295,303,0
304,324,295,302,0
304,327,295,303,0
305,333,297,304,0
307,338,299,305,0
309,339,301,306,0
311,337,303,308,0
312,333,305,310,0
313,327,305,311,0
315,315,305,310,0
315,303,304,308,0
314,293,302,305,0
312,287,302,301,0
311,283,301,298,0
310,282,300,295,0
310,286,300,295,0
311,291,300,296,0
310,299,300,297,0
308,307,300,298,0
305,314,301,298,0
302,319,301,297,0
300,319,301,295,0
299,313,301,292,0
298,303,301,291,0
298,290,302,291,0
297,282,303,292,0
297,286,303,296,0
299,303,304,300,0
302,323,305,303,0
305,339,305,303,0
306,346,305,302,0
307,345,305,301,0
306,338,305,301,0
306,325,305,300,0
306,310,304,298,0
306,298,304,297,0
305,291,303,297,0
305,289,303,299,0
306,292,303,301,0
307,295,302,303,0
307,296,301,304,0
306,293,300,304,0
303,290,300,303,0
300,286,300,303,0
300,285,301,304,0
301,290,303,305,0
302,296,305,307,0
303,304,307,307,0
302,311,308,306,0
302,315,309,304,0
301,316,310,301,0
301,313,310,298,0
301,312,310,296,0
302,312,311,296,0
303,313,310,298,0
303,316,310,300,0
303,321,309,301,0
301,324,308,303,0
299,326,308,303,0
298,326,308,305,0
296,323,308,306,0
297,319,309,307,0
301,314,309,309,0
307,310,309,310,0
315,309,309,311,0
321,311,309,311,0
321,312,309,311,0
315,312,310,312,0
308,309,311,313,0
303,305,312,316,0
301,300,314,317,0
299,296,314,318,0
299,292,314,318,0
299,291,314,319,0
299,290,313,321,0
299,291,313,324,0
300,294,312,327,0
300,301,311,329,0
301,312,310,329,0
301,319,308,328,0
302,319,307,328,0
302,313,306,327,0
303,304,306,327,0
303,296,306,326,0
304,291,307,324,0
306,292,308,322,0
308,294,309,320,0
309,296,310,316,0
310,298,311,312,0
310,299,311,307,0
308,300,310,301,0
305,303,309,296,0
303,312,308,294,0
302,320,307,295,0
301,325,307,298,0
300,327,307,301,0
301,325,307,304,0
302,317,307,307,0
305,306,308,308,0
308,297,309,307,0
307,295,310,305,0
304,300,310,302,0
299,305,310,301,0
296,310,310,302,0
296,311,310,304,0
298,308,310,307,0
301,305,311,310,0
304,305,311,312,0
306,308,312,313,0
307,311,313,313,0
308,311,313,312,0
309,310,313,308,0
308,309,313,302,0
304,310,312,294,0
301,308,310,287,0
298,303,309,283,0
296,298,308,281,0
295,293,307,281,0
295,290,305,282,0
294,289,304,284,0
295,292,303,287,0
295,298,303,291,0
295,304,304,296,0
295,307,305,302,0
296,310,305,308,0
297,311,306,314,0
299,311,307,318,0
300,307,308,320,0
302,303,309,320,0
303,297,309,318,0
302,290,308,314,0
301,282,307,309,0
300,278,307,305,0
299,284,305,303,0
299,299,304,303,0
299,317,304,305,0
300,332,304,309,0
301,339,304,312,0
301,337,303,314,0
302,331,302,314,0
302,324,301,314,0
303,316,300,314,0
306,311,301,312,0
309,306,301,310,0
310,302,301,308,0
311,302,302,308,0
311,303,302,308,0
311,303,303,309,0
309,302,304,309,0
307,304,305,311,0
304,309,305,312,0
301,313,305,312,0
301,316,303,312,0
301,317,302,311,0
302,315,300,310,0
302,311,298,307,0
300,307,297,305,0
298,302,296,304,0
296,294,295,306,0
296,287,295,310,0
296,285,296,313,0
298,290,296,314,0
300,296,297,314,0
302,301,297,311,0
303,304,297,307,0
303,306,296,303,0
304,303,297,300,0
306,295,298,298,0
311,286,300,298,0
315,280,301,299,0
317,281,302,300,0
319,289,303,303,0
321,301,304,308,0
321,314,304,313,0
318,323,304,318,0
310,326,303,321,0
303,327,303,322,0
299,325,303,323,0
298,321,303,321,0
298,320,302,319,0
299,320,302,316,0
300,319,301,313,0
302,318,301,310,0
303,318,300,307,0
304,319,301,302,0
305,318,302,297,0
306,319,303,293,0
305,321,304,291,0
305,324,304,290,0
304,327,304,290,0
302,330,304,291,0
301,331,303,292,0
300,329,303,292,0
298,325,303,292,0
297,316,302,289,0
295,304,301,287,0
295,294,300,285,0
296,288,300,284,0
296,283,300,285,0
296,281,300,286,0
296,279,300,290,0
298,279,301,295,0
299,281,302,300,0
302,288,302,306,0
305,300,304,312,0
308,311,305,318,0
312,318,308,325,0
314,320,311,333,0
316,322,313,340,0
316,324,315,345,0
315,326,315,347,0
313,328,314,346,0
311,330,311,340,0
309,332,308,331,0
308,334,305,319,0
307,334,303,305,0
306,331,300,292,0
306,327,298,282,0
305,321,296,275,0
305,316,296,273,0
305,312,296,273,0
304,306,296,275,0
304,299,296,278,0
305,292,297,282,0
305,289,298,286,0
306,290,298,290,0
307,293,299,293,0
308,293,299,294,0
309,288,300,296,0
308,281,302,297,0
308,275,303,298,0
308,272,303,299,0
307,273,304,300,0
307,279,305,302,0
306,289,306,304,0
307,301,306,306,0
306,310,307,307,0
305,315,307,308,0
306,317,308,310,0
306,318,308,313,0
308,318,308,314,0
309,319,308,315,0
310,320,307,317,0
311,322,307,319,0
309,324,307,320,0
307,325,307,322,0
308,326,308,322,0
313,326,309,321,0
319,323,309,318,0
322,319,309,314,0
319,315,309,310,0
311,312,309,309,0
304,309,308,309,0
298,308,307,310,0
296,307,307,311,0
295,310,306,310,0
295,314,305,308,0
295,319,304,303,0
296,324,303,298,0
295,327,302,293,0
295,327,302,289,0
295,323,302,288,0
297,319,303,289,0
299,316,304,294,0
301,313,305,300,0
304,311,307,306,0
306,311,309,313,0
308,310,310,318,0
309,311,311,320,0
310,313,311,318,0
308,315,310,313,0
307,314,310,309,0
305,308,308,305,0
304,302,306,302,0
302,296,304,300,0
301,294,302,299,0
302,290,301,299,0
302,285,301,298,0
302,280,301,297,0
303,278,301,295,0
303,280,302,294,0
303,286,302,295,0
302,293,302,297,0
302,300,302,299,0
303,308,302,300,0
305,313,302,302,0
307,316,303,304,0
307,318,304,307,0
308,318,305,311,0
308,318,307,314,0
307,317,308,318,0
307,318,309,322,0
306,319,308,325,0
306,318,307,325,0
305,317,305,323,0
304,315,302,318,0
302,313,300,311,0
302,311,298,305,0
302,310,298,300,0
302,308,298,299,0
302,305,299,299,0
303,301,299,301,0
304,296,300,303,0
305,290,301,305,0
305,284,302,308,0
306,282,304,311,0
310,286,306,315,0
314,293,307,319,0
316,301,309,323,0
315,310,310,326,0
313,317,310,328,0
311,323,308,330,0
309,327,307,330,0
307,329,305,329,0
306,331,303,326,0
305,331,301,322,0
306,328,300,318,0
307,322,299,313,0
309,316,298,309,0
310,311,298,304,0
310,306,297,299,0
310,301,296,293,0
309,297,296,288,0
308,295,296,284,0
308,296,297,282,0
307,299,298,283,0
308,305,299,287,0
309,311,301,292,0
310,313,303,299,0
310,308,305,306,0
310,301,307,314,0
310,296,308,324,0
312,297,310,334,0
312,304,311,340,0
313,312,312,343,0
312,319,314,341,0
308,323,314,336,0
303,321,313,328,0
298,315,311,320,0
295,309,309,313,0
293,304,306,309,0
293,302,304,307,0
294,302,302,307,0
296,303,300,309,0
299,305,300,310,0
302,306,300,311,0
304,306,300,311,0
305,304,301,307,0
305,300,301,301,0
304,296,301,297,0
304,291,301,295,0
303,286,301,294,0
303,283,301,294,0
302,281,301,294,0
302,284,301,295,0
302,291,301,296,0
301,303,301,298,0
301,315,300,299,0
301,324,300,300,0
302,328,300,302,0
303,325,300,306,0
304,316,300,312,0
305,305,300,318,0
307,294,300,325,0
307,283,301,331,0
308,276,301,335,0
308,275,302,337,0
309,281,303,338,0
309,292,304,337,0
310,302,305,335,0
309,309,304,330,0
306,311,303,323,0
301,311,301,314,0
298,311,299,306,0
296,309,297,298,0
295,305,295,290,0
296,300,293,283,0
298,298,292,277,0
300,298,290,273,0
301,299,290,272,0
301,300,289,272,0
302,303,288,274,0
302,309,288,276,0
302,312,288,280,0
302,312,288,284,0
302,310,288,290,0
303,309,290,297,0
305,309,292,305,0
307,309,295,313,0
308,311,299,318,0
307,315,301,320,0
305,318,302,320,0
304,320,302,318,0
303,318,302,317,0
303,315,301,316,0
302,313,301,316,0
301,311,300,315,0
301,310,300,314,0
301,310,299,313,0
300,310,298,311,0
299,311,298,309,0
299,309,296,306,0
299,302,296,303,0
300,294,296,300,0
300,286,296,299,0
300,279,297,300,0
301,275,299,301,0
303,273,300,303,0
304,275,301,306,0
305,279,301,308,0
305,288,300,310,0
305,300,300,310,0
305,314,298,309,0
306,325,297,306,0
307,329,296,303,0
309,328,296,300,0
311,324,295,297,0
314,321,294,296,0
314,321,294,296,0
313,323,293,296,0
312,325,292,296,0
311,324,291,295,0
310,319,290,295,0
308,308,291,296,0
306,296,291,298,0
305,285,293,303,0
304,276,295,313,0
304,277,297,324,0
303,286,300,333,0
301,297,301,338,0
300,304,302,340,0
298,307,302,337,0
296,307,301,332,0
295,306,300,324,0
293,304,299,315,0
293,302,298,309,0
293,302,298,303,0
295,303,298,299,0
297,303,299,297,0
300,301,300,297,0
303,296,300,298,0
304,291,299,300,0
306,289,299,304,0
308,293,299,309,0
309,302,300,314,0
310,309,300,317,0
311,313,301,319,0
311,315,302,319,0
311,315,303,318,0
311,314,303,315,0
311,310,303,311,0
313,307,302,308,0
315,304,301,305,0
317,306,300,304,0
317,313,300,304,0
311,321,302,305,0
305,328,302,306,0
301,331,303,309,0
298,330,304,313,0
297,326,305,318,0
296,320,305,322,0
297,313,305,327,0
298,306,305,331,0
301,300,305,336,0
304,294,306,342,0
307,291,308,348,0
309,292,309,352,0
310,294,311,355,0
309,296,311,353,0
306,296,312,347,0
301,296,311,337,0
294,294,310,327,0
290,294,308,318,0
291,298,308,310,0
295,304,308,304,0
301,308,307,300,0
304,309,306,294,0
305,308,303,288,0
304,308,302,283,0
305,309,301,280,0
306,309,300,278,0
308,307,299,277,0
310,305,299,279,0
312,302,298,283,0
311,299,299,288,0
309,298,299,293,0
308,298,301,298,0
308,300,304,302,0
309,304,307,305,0
311,310,310,308,0
313,314,312,312,0
314,318,314,315,0
315,319,315,317,0
312,320,315,320,0
307,319,315,325,0
302,317,315,330,0
298,314,314,331,0
295,309,314,329,0
295,304,313,324,0
295,301,312,319,0
296,300,311,315,0
297,299,311,311,0
299,300,311,307,0
301,301,311,302,0
303,303,310,296,0
305,305,309,291,0
307,309,308,287,0
308,315,308,285,0
310,321,309,284,0
312,323,310,283,0
313,320,311,283,0
312,312,312,285,0
310,301,313,289,0
309,292,313,296,0
307,291,313,303,0
305,295,314,310,0
303,300,314,314,0
302,304,313,315,0
301,303,314,315,0
300,299,313,313,0
298,289,312,310,0
297,282,310,307,0
296,279,307,304,0
296,281,305,302,0
297,282,305,300,0
300,281,305,300,0
302,281,307,301,0
304,281,309,302,0
305,283,312,303,0
306,291,315,304,0
308,302,316,305,0
308,313,316,306,0
309,322,314,306,0
309,328,312,307,0
308,329,311,307,0
308,326,311,307,0
307,321,311,307,0
307,315,311,309,0
306,310,312,312,0
306,305,313,315,0
306,301,314,318,0
307,298,314,321,0
307,296,313,323,0
307,294,313,325,0
307,292,313,325,0
307,289,312,323,0
307,287,311,320,0
308,286,312,318,0
308,288,314,317,0
309,293,316,315,0
309,299,317,314,0
308,305,318,312,0
306,309,318,309,0
303,309,317,306,0
300,303,316,303,0
298,294,314,301,0
298,287,312,300,0
299,282,310,300,0
302,283,308,300,0
304,290,306,300,0
305,301,304,299,0
306,310,303,297,0
307,316,303,295,0
308,319,302,294,0
308,321,302,294,0
309,325,303,295,0
310,328,304,299,0
311,331,305,304,0
312,330,306,308,0
312,325,308,311,0
311,314,308,313,0
308,298,308,314,0
306,285,308,313,0
304,279,307,311,0
304,283,305,309,0
304,295,305,308,0
306,307,305,312,0
309,315,306,318,0
311,319,306,322,0
310,318,306,322,0
307,316,306,319,0
305,313,306,316,0
303,311,305,314,0
303,307,305,313,0
304,301,305,313,0
306,294,305,314,0
307,287,306,314,0
308,280,307,315,0
309,276,308,315,0
307,276,310,315,0
302,278,310,314,0
297,281,310,312,0
294,286,309,308,0
294,294,308,304,0
297,303,307,300,0
299,308,306,297,0
300,309,305,293,0
301,309,305,291,0
301,309,305,289,0
300,313,304,289,0
298,317,303,288,0
296,322,302,287,0
295,325,300,286,0
295,327,300,287,0
297,324,301,288,0
300,319,302,290,0
302,310,304,292,0
304,302,305,293,0
304,294,307,295,0
304,287,308,298,0
304,281,309,302,0
302,276,309,307,0
301,271,309,312,0
300,270,308,316,0
299,271,308,319,0
299,275,308,322,0
300,281,307,324,0
301,288,306,325,0
302,298,306,324,0
302,310,305,323,0
301,322,305,321,0
300,330,304,319,0
300,330,304,318,0
301,324,304,317,0
302,314,305,315,0
304,304,305,311,0
306,299,305,307,0
309,301,306,303,0
313,307,306,299,0
316,315,306,296,0
317,321,305,294,0
312,324,304,293,0
304,324,303,293,0
299,321,302,294,0
296,315,302,295,0
296,309,301,298,0
297,308,301,301,0
298,311,301,306,0
300,315,300,311,0
300,316,299,315,0
301,311,298,318,0
302,300,296,318,0
304,287,294,316,0
305,274,293,311,0
307,264,293,306,0
307,260,293,301,0
307,264,295,296,0
306,272,296,294,0
304,282,299,294,0
