306,292,296,295,0
302,294,296,291,0
297,300,296,290,0
295,307,297,289,0
293,312,297,290,0
292,312,298,291,0
291,310,298,292,0
290,308,298,295,0
291,307,299,300,0
292,308,300,306,0
293,309,302,311,0
292,309,302,316,0
292,311,303,321,0
293,311,304,326,0
295,311,305,329,0
296,310,305,331,0
297,311,305,329,0
298,315,304,327,0
300,318,303,323,0
301,316,304,319,0
302,311,305,316,0
303,304,307,314,0
302,296,308,315,0
302,290,309,316,0
302,288,310,318,0
302,289,311,318,0
302,292,311,316,0
301,296,310,312,0
301,298,309,308,0
301,301,308,304,0
301,305,306,299,0
300,310,305,296,0
300,315,304,294,0
300,314,304,294,0
301,310,304,294,0
302,305,304,296,0
305,300,303,297,0
309,298,302,297,0
314,295,301,298,0
314,292,302,299,0
309,293,303,302,0
304,295,304,305,0
302,299,304,308,0
301,303,305,311,0
299,307,308,315,0
297,308,310,318,0
293,308,312,319,0
290,310,314,320,0
289,313,315,320,0
289,314,316,321,0
290,315,315,320,0
292,314,313,318,0
293,311,310,316,0
292,307,308,312,0
292,306,306,308,0
292,306,305,305,0
292,308,304,306,0
294,309,304,308,0
295,312,303,311,0
297,313,303,315,0
298,315,304,317,0
298,314,304,318,0
299,312,306,318,0
300,308,307,318,0
302,307,308,316,0
304,306,308,312,0
304,303,309,307,0
303,300,309,304,0
302,302,309,302,0
300,310,309,302,0
299,319,309,303,0
299,324,309,306,0
300,322,310,308,0
300,315,310,309,0
301,304,309,309,0
302,296,308,307,0
303,292,308,306,0
302,291,306,303,0
302,286,304,300,0
301,276,303,297,0
301,264,303,293,0
301,256,304,292,0
302,256,304,292,0
304,264,305,293,0
305,280,306,296,0
306,302,308,300,0
305,325,309,304,0
302,340,309,307,0
297,347,310,309,0
295,347,310,308,0
294,344,309,306,0
295,334,308,303,0
295,320,308,301,0
295,310,307,299,0
297,307,307,299,0
299,311,307,300,0
301,315,306,300,0
303,316,305,300,0
303,317,304,302,0
304,317,303,305,0
305,314,302,310,0
307,309,303,316,0
308,304,304,321,0
310,301,306,324,0
310,299,308,325,0
310,298,309,324,0
309,299,310,322,0
306,302,310,319,0
304,305,309,317,0
302,309,309,314,0
300,312,308,311,0
299,312,308,307,0
299,311,307,304,0
299,309,308,303,0
300,305,308,302,0
299,300,309,302,0
298,295,309,301,0
296,289,308,300,0
297,287,308,301,0
300,287,308,303,0
304,288,308,307,0
309,293,309,312,0
312,300,309,315,0
314,306,309,319,0
315,310,309,321,0
315,310,309,321,0
316,309,308,320,0
316,307,307,317,0
313,307,307,313,0
310,307,306,309,0
305,309,306,305,0
301,311,304,303,0
298,312,303,302,0
296,309,302,303,0
296,301,302,306,0
296,293,303,311,0
297,288,304,316,0
298,288,306,321,0
299,290,307,324,0
300,296,308,326,0
302,305,308,326,0
303,315,307,324,0
305,324,307,320,0
307,328,306,315,0
308,327,306,311,0
308,324,305,306,0
308,321,304,302,0
308,319,303,301,0
307,317,302,303,0
306,317,302,306,0
306,321,301,309,0
305,324,301,311,0
305,325,302,311,0
304,323,302,309,0
305,318,302,304,0
305,313,301,299,0
307,307,301,295,0
308,305,301,293,0
310,304,303,292,0
311,305,304,294,0
310,310,305,299,0
309,319,308,305,0
308,326,310,312,0
307,329,313,318,0
305,329,315,322,0
304,329,315,325,0
302,329,315,325,0
300,328,314,322,0
299,325,313,318,0
299,323,311,314,0
301,322,311,309,0
303,323,310,305,0
304,324,309,301,0
303,325,308,299,0
301,325,308,298,0
299,322,307,298,0
299,318,307,298,0
299,313,306,298,0
302,305,306,298,0
307,295,307,299,0
313,286,308,299,0
315,281,309,298,0
316,277,308,296,0
317,274,309,296,0
317,273,310,298,0
318,274,312,301,0
317,278,313,305,0
314,282,312,307,0
312,290,311,310,0
309,299,309,311,0
307,311,308,311,0
305,321,307,310,0
305,329,306,308,0
305,331,305,306,0
305,332,305,304,0
305,330,304,303,0
306,327,303,302,0
308,323,303,302,0
309,318,303,304,0
310,313,304,307,0
310,308,306,310,0
309,304,307,312,0
308,301,309,314,0
308,302,310,315,0
307,309,312,316,0
307,319,312,315,0
306,328,312,312,0
304,334,311,307,0
303,336,310,303,0
303,334,310,300,0
304,332,310,299,0
304,328,310,300,0
305,321,311,302,0
305,312,311,305,0
307,304,310,309,0
309,299,310,312,0
310,297,309,314,0
311,297,308,315,0
313,299,308,317,0
315,299,308,320,0
316,299,309,323,0
318,299,310,325,0
319,300,311,325,0
320,304,313,326,0
321,307,314,325,0
321,311,315,322,0
319,314,315,319,0
318,315,315,316,0
316,315,315,313,0
314,314,314,312,0
313,312,314,310,0
312,311,313,308,0
312,311,311,304,0
313,311,310,298,0
313,311,308,293,0
313,309,307,290,0
312,308,307,289,0
313,304,307,290,0
312,295,308,293,0
312,286,309,296,0
312,282,310,299,0
313,281,311,302,0
314,282,313,303,0
315,282,315,303,0
317,282,316,304,0
320,283,317,305,0
322,289,318,305,0
324,298,319,307,0
325,309,319,309,0
326,318,319,310,0
326,324,318,311,0
322,328,316,310,0
315,331,314,308,0
309,331,313,306,0
305,329,312,304,0
303,320,311,302,0
303,309,310,302,0
304,297,309,302,0
306,285,308,304,0
309,277,308,307,0
311,274,309,310,0
313,277,310,313,0
316,282,311,315,0
316,286,311,317,0
316,289,312,317,0
315,291,312,316,0
314,295,312,314,0
313,301,312,310,0
312,309,312,306,0
312,319,312,303,0
311,329,312,300,0
311,337,312,299,0
310,340,313,298,0
310,340,313,297,0
311,340,312,297,0
314,338,310,297,0
317,334,309,299,0
320,328,309,301,0
321,321,309,304,0
321,317,309,307,0
321,312,309,311,0
321,306,310,314,0
321,301,312,316,0
321,298,313,317,0
320,297,314,318,0
319,299,315,318,0
317,305,315,316,0
316,311,315,315,0
315,314,314,316,0
316,311,314,318,0
316,302,313,321,0
315,292,313,326,0
315,287,313,329,0
316,284,312,329,0
316,282,311,326,0
317,281,309,321,0
317,285,307,314,0
318,292,306,307,0
320,299,306,302,0
321,303,306,297,0
323,306,306,294,0
324,307,308,291,0
324,306,308,289,0
325,303,309,289,0
325,299,310,289,0
325,297,311,290,0
324,296,311,291,0
322,298,312,293,0
321,303,313,295,0
319,309,313,298,0
317,314,314,301,0
315,317,314,303,0
314,320,314,305,0
314,323,314,307,0
314,326,315,310,0
315,328,315,312,0
315,326,315,314,0
315,321,313,316,0
315,316,312,318,0
316,311,311,321,0
316,307,311,324,0
317,303,312,326,0
317,302,312,325,0
317,303,312,323,0
316,304,311,320,0
316,306,312,317,0
317,309,312,314,0
317,312,312,312,0
316,315,312,310,0
316,319,312,309,0
315,321,311,308,0
314,322,310,308,0
313,322,310,307,0
313,320,310,307,0
314,317,310,306,0
316,312,310,304,0
319,310,309,302,0
320,313,308,299,0
318,317,307,296,0
314,320,307,294,0
310,318,306,292,0
308,314,306,291,0
308,307,306,292,0
308,300,308,295,0
309,296,310,300,0
310,297,312,305,0
310,300,314,311,0
311,304,316,316,0
311,306,316,319,0
310,307,317,319,0
310,309,317,319,0
311,311,317,320,0
312,311,316,320,0
313,311,315,319,0
314,309,313,318,0
315,304,312,318,0
315,298,311,318,0
314,290,309,317,0
312,286,308,315,0
308,286,308,313,0
306,288,309,311,0
305,292,311,309,0
306,297,313,309,0
308,303,315,308,0
309,306,317,308,0
310,308,317,308,0
310,307,318,306,0
310,304,316,304,0
309,301,315,301,0
308,298,314,298,0
307,294,313,294,0
306,292,312,290,0
306,291,311,289,0
305,293,311,289,0
304,299,310,292,0
303,306,310,295,0
303,311,310,299,0
304,316,310,303,0
305,321,310,307,0
306,329,311,312,0
308,338,311,316,0
310,345,311,319,0
311,346,311,322,0
310,343,312,322,0
310,337,313,323,0
309,327,314,322,0
309,315,315,320,0
308,305,315,316,0
309,300,314,311,0
309,303,314,307,0
309,313,313,305,0
310,323,311,304,0
311,329,309,301,0
311,330,307,298,0
312,327,306,296,0
313,320,306,294,0
313,307,307,293,0
312,295,308,295,0
311,285,308,298,0
310,277,309,302,0
309,274,309,305,0
309,277,308,309,0
311,283,308,311,0
313,290,308,313,0
314,296,309,313,0
314,299,309,312,0
314,300,311,308,0
313,298,310,303,0
312,294,308,298,0
310,291,306,294,0
308,293,306,293,0
306,299,305,294,0
304,306,305,297,0
304,313,305,300,0
304,317,306,303,0
303,317,306,305,0
303,314,305,307,0
302,312,304,307,0
303,311,304,307,0
304,312,304,307,0
306,314,304,308,0
307,315,305,310,0
308,316,306,314,0
308,317,307,319,0
308,317,308,324,0
308,317,309,327,0
307,317,310,328,0
306,318,310,326,0
305,318,310,323,0
304,318,310,319,0
302,319,311,316,0
300,320,311,312,0
298,319,310,308,0
298,316,308,304,0
300,314,307,301,0
303,312,305,297,0
306,311,304,294,0
308,307,304,292,0
308,301,303,292,0
306,297,302,294,0
304,297,303,297,0
303,297,303,301,0
303,295,304,306,0
304,291,306,310,0
304,288,308,313,0
304,286,309,316,0
304,285,310,317,0
304,283,309,316,0
302,283,308,314,0
300,284,307,311,0
298,291,306,308,0
297,301,306,306,0
296,310,305,305,0
293,316,305,305,0
292,315,304,305,0
291,307,302,305,0
291,298,301,306,0
292,291,299,306,0
294,289,298,308,0
296,288,298,309,0
298,289,297,309,0
300,293,297,308,0
302,298,298,305,0
303,304,298,302,0
303,311,299,300,0
302,315,299,299,0
300,315,299,299,0
297,313,299,298,0
294,309,299,298,0
291,305,299,297,0
290,300,300,297,0
290,295,300,297,0
290,292,300,300,0
290,292,301,305,0
290,294,301,311,0
289,297,301,316,0
288,303,301,320,0
287,307,300,320,0
285,312,300,320,0
283,315,300,321,0
281,317,300,322,0
279,317,300,323,0
279,316,301,322,0
282,316,303,321,0
286,314,304,318,0
290,310,306,313,0
292,304,306,308,0
292,299,305,303,0
292,293,304,299,0
292,288,303,296,0
291,289,301,295,0
291,297,301,297,0
292,308,301,299,0
293,317,300,302,0
292,323,301,305,0
292,326,301,306,0
291,325,300,307,0
291,321,300,307,0
291,318,301,307,0
292,314,301,307,0
293,311,300,309,0
294,309,301,311,0
294,307,301,313,0
293,307,302,316,0
293,307,303,319,0
293,307,305,320,0
293,306,306,320,0
293,304,305,318,0
294,300,303,315,0
294,294,301,313,0
293,290,299,311,0
293,288,297,311,0
293,290,296,311,0
293,296,296,311,0
293,302,296,311,0
294,304,297,310,0
295,301,298,309,0
297,296,298,308,0
298,294,299,310,0
299,294,300,311,0
300,297,301,313,0
301,304,302,314,0
302,313,303,313,0
304,320,304,311,0
303,325,305,309,0
303,326,305,306,0
301,325,304,301,0
299,322,303,297,0
296,318,301,295,0
294,316,300,294,0
293,315,299,294,0
293,314,299,295,0
294,313,299,297,0
294,311,299,299,0
295,306,298,301,0
295,301,298,304,0
295,294,298,306,0
295,287,298,306,0
296,281,298,305,0
296,276,298,302,0
298,275,298,300,0
302,275,299,297,0
306,273,300,297,0
311,275,301,301,0
311,278,303,305,0
309,284,304,310,0
305,294,305,312,0
302,306,306,313,0
300,316,306,311,0
298,323,306,309,0
297,326,305,306,0
297,325,304,304,0
298,323,303,302,0
300,322,303,300,0
299,325,302,298,0
298,327,302,295,0
296,326,301,291,0
294,319,300,288,0
293,311,299,288,0
294,304,299,290,0
295,299,300,296,0
298,298,302,302,0
300,298,304,308,0
302,299,306,313,0
302,298,307,315,0
301,295,308,314,0
299,291,310,312,0
298,286,310,309,0
298,283,311,309,0
300,282,310,308,0
301,282,310,309,0
302,284,309,310,0
301,292,308,311,0
302,299,307,312,0
303,302,306,312,0
302,300,304,310,0
301,296,301,305,0
301,297,299,300,0
302,301,298,297,0
304,308,298,296,0
307,316,299,300,0
310,325,301,305,0
313,330,302,311,0
315,332,304,317,0
316,333,306,320,0
316,335,307,321,0
315,334,309,319,0
314,331,309,316,0
311,325,309,312,0
308,318,309,309,0
305,310,309,308,0
305,306,309,308,0
305,304,309,310,0
306,306,309,313,0
307,308,309,315,0
307,310,308,313,0
306,312,305,310,0
307,311,303,307,0
308,307,301,303,0
310,300,300,300,0
311,292,299,297,0
312,283,299,294,0
312,278,299,292,0
313,277,300,291,0
313,283,301,290,0
312,292,302,290,0
310,299,302,289,0
310,302,302,289,0
310,302,302,292,0
311,302,302,294,0
311,304,303,297,0
310,306,303,298,0
309,311,303,300,0
308,316,303,301,0
308,318,303,302,0
307,320,303,305,0
307,321,303,311,0
308,322,304,320,0
310,321,304,329,0
312,318,305,338,0
314,317,306,345,0
316,316,309,349,0
315,315,312,349,0
312,314,313,346,0
307,312,313,339,0
304,306,312,331,0
302,298,311,323,0
300,291,310,315,0
299,289,309,308,0
298,290,307,302,0
298,295,306,297,0
300,304,305,297,0
301,315,305,300,0
303,327,305,305,0
304,336,306,308,0
302,340,306,310,0
299,333,307,310,0
298,321,307,309,0
301,309,308,309,0
305,299,309,309,0
307,293,310,309,0
309,292,311,311,0
310,295,312,312,0
311,297,313,312,0
311,298,313,311,0
310,300,312,310,0
309,302,311,309,0
308,304,309,307,0
306,305,307,307,0
304,304,304,306,0
303,302,302,304,0
303,300,301,302,0
303,298,300,300,0
304,296,299,298,0
304,294,299,296,0
304,292,299,293,0
304,293,299,289,0
304,296,297,284,0
304,297,296,282,0
305,295,297,283,0
307,290,298,288,0
308,284,301,293,0
309,281,303,299,0
309,283,305,305,0
310,291,308,310,0
309,300,310,314,0
308,308,312,319,0
306,314,313,324,0
302,318,313,330,0
299,322,314,335,0
296,324,314,336,0
295,324,313,336,0
294,324,311,333,0
294,330,309,329,0
297,337,307,323,0
301,338,305,316,0
304,329,303,309,0
306,318,300,301,0
309,307,298,295,0
311,296,297,291,0
311,285,297,289,0
310,279,298,290,0
310,278,300,291,0
311,282,303,293,0
314,287,306,295,0
316,292,309,297,0
317,296,312,299,0
314,302,313,301,0
307,306,313,303,0
302,310,312,305,0
299,311,312,307,0
297,311,311,308,0
296,309,310,307,0
297,307,310,304,0
299,304,309,300,0
300,301,309,295,0
302,299,308,291,0
302,298,307,289,0
302,298,306,289,0
303,299,305,290,0
304,302,304,293,0
305,305,304,296,0
307,309,305,299,0
308,312,305,302,0
309,311,306,304,0
309,307,306,305,0
307,300,307,304,0
305,292,308,301,0
304,284,308,299,0
302,278,307,296,0
301,275,306,293,0
300,273,306,291,0
300,272,305,290,0
300,272,304,290,0
301,274,303,291,0
301,280,301,292,0
302,285,300,292,0
301,289,300,292,0
301,291,300,293,0
301,292,300,294,0
301,294,302,297,0
302,298,303,302,0
302,304,305,308,0
302,312,307,313,0
302,319,309,317,0
303,327,310,319,0
304,331,311,321,0
306,331,311,323,0
307,329,312,326,0
308,324,312,330,0
309,318,313,334,0
310,313,312,337,0
310,313,311,338,0
310,315,311,337,0
310,317,310,331,0
310,316,309,323,0
309,312,308,315,0
308,305,307,308,0
307,303,307,306,0
306,308,307,306,0
305,314,307,306,0
305,317,307,304,0
304,312,307,302,0
303,304,308,300,0
302,295,308,298,0
301,290,309,296,0
300,286,308,294,0
301,287,308,294,0
302,292,308,296,0
304,300,308,298,0
304,309,308,300,0
303,316,307,302,0
302,320,306,303,0
302,322,306,303,0
301,322,306,304,0
301,319,306,304,0
302,315,306,305,0
304,310,306,305,0
305,305,306,306,0
308,302,305,306,0
310,297,305,308,0
310,289,306,309,0
308,277,308,310,0
306,266,309,309,0
304,261,309,306,0
303,266,309,304,0
302,284,310,302,0
300,310,310,299,0
298,334,309,297,0
296,347,308,295,0
294,348,305,294,0
292,338,304,294,0
292,321,304,295,0
293,304,304,298,0
294,292,304,303,0
295,287,304,309,0
297,291,304,317,0
299,299,304,324,0
302,306,303,328,0
305,311,303,328,0
307,314,302,325,0
309,317,302,320,0
310,319,302,313,0
311,320,303,306,0
311,319,305,300,0
310,316,307,295,0
309,305,308,291,0
308,289,307,289,0
306,276,307,288,0
304,274,307,290,0
304,282,308,292,0
303,293,309,295,0
303,306,310,299,0
303,317,310,301,0
302,326,309,303,0
302,332,308,305,0
302,336,307,307,0
302,337,305,308,0
302,335,304,310,0
301,328,303,312,0
301,318,302,314,0
301,308,302,316,0
302,305,302,320,0
304,308,304,326,0
306,311,304,329,0
306,311,304,329,0
305,308,304,325,0
304,303,303,319,0
304,300,302,311,0
304,299,302,304,0
303,298,302,299,0
301,296,302,296,0
300,292,302,293,0
301,288,303,292,0
302,285,304,290,0
304,280,304,290,0
305,272,304,289,0
307,263,303,289,0
307,256,302,290,0
304,255,302,292,0
300,257,303,295,0
297,262,304,298,0
294,271,304,300,0
292,288,304,301,0
292,309,305,302,0
293,329,306,304,0
295,346,307,305,0
297,358,307,306,0
299,366,307,309,0
300,368,306,312,0
300,365,306,313,0
301,356,305,314,0
301,345,304,311,0
302,334,304,308,0
301,324,304,303,0
301,316,305,299,0
300,308,305,297,0
300,302,304,297,0
300,297,304,298,0
302,295,304,302,0
304,293,304,304,0
308,290,305,306,0
310,291,306,307,0
308,296,306,307,0
305,304,307,306,0
300,313,307,304,0
296,320,308,305,0
293,325,307,309,0
291,326,307,316,0
289,323,307,322,0
289,315,307,324,0
290,307,306,322,0
292,301,306,317,0
294,299,304,311,0
295,297,303,303,0
294,295,302,295,0
293,291,300,288,0
292,290,299,285,0
293,290,299,284,0
295,292,300,285,0
299,296,300,286,0
302,301,301,288,0
303,303,302,290,0
303,302,303,293,0
304,297,304,297,0
304,293,306,302,0
306,293,307,307,0
308,297,309,312,0
309,299,309,314,0
309,300,309,315,0
308,302,308,314,0
306,305,306,312,0
303,306,303,307,0
299,308,301,303,0
297,312,299,300,0
297,318,298,298,0
298,326,298,297,0
300,330,298,296,0
302,329,299,295,0
304,323,299,297,0
306,314,301,299,0
306,306,303,302,0
306,301,304,304,0
305,300,305,307,0
305,303,306,310,0
306,308,306,313,0
308,311,306,315,0
310,312,306,316,0
311,313,305,315,0
313,314,305,314,0
311,317,304,312,0
306,316,304,308,0
300,311,303,304,0
296,304,303,299,0
295,298,303,294,0
296,294,303,289,0
298,291,303,287,0
300,288,303,290,0
303,288,304,295,0
306,290,305,302,0
308,293,304,307,0
310,294,305,310,0
313,294,306,311,0
316,295,307,311,0
318,294,307,309,0
319,292,307,307,0
317,293,307,304,0
312,299,307,301,0
308,308,307,300,0
305,317,308,298,0
303,320,308,297,0
302,319,307,296,0
302,315,307,297,0
302,311,306,297,0
302,311,307,298,0
302,316,307,297,0
302,321,307,298,0
302,321,306,300,0
304,316,306,304,0
305,309,307,310,0
306,303,308,317,0
307,300,310,322,0
308,301,311,324,0
309,306,313,323,0
311,314,313,320,0
314,322,312,317,0
317,328,311,315,0
320,330,309,314,0
321,328,307,311,0
315,325,305,308,0
307,323,303,304,0
302,323,301,300,0
300,323,301,296,0
301,322,301,292,0
302,319,302,289,0
303,316,303,287,0
304,314,304,285,0
302,310,304,285,0
300,302,305,287,0
298,290,306,290,0
298,282,306,294,0
299,278,307,300,0
302,276,308,307,0
306,278,310,313,0
311,285,310,318,0
314,294,311,320,0
316,302,311,320,0
315,309,310,320,0
312,312,310,317,0
308,312,308,313,0
303,312,308,308,0
301,312,307,305,0
300,311,306,302,0
301,309,306,300,0
302,309,306,300,0
304,309,306,301,0
304,308,305,303,0
305,304,304,305,0
306,299,303,304,0
308,292,302,302,0
309,283,303,300,0
310,274,303,298,0
311,266,305,298,0
312,261,308,299,0
313,261,311,302,0
313,265,313,302,0
313,272,313,301,0
311,283,312,300,0
311,294,312,302,0
312,305,313,306,0
312,315,314,312,0
311,322,314,317,0
309,325,314,320,0
307,325,313,321,0
305,326,313,319,0
304,328,311,313,0
304,331,310,308,0
304,334,308,305,0
306,336,308,304,0
308,338,307,305,0
311,339,307,306,0
313,340,308,308,0
315,340,310,309,0
315,338,312,310,0
316,336,313,308,0
316,332,314,305,0
316,326,314,302,0
316,319,313,300,0
316,312,313,300,0
317,306,312,304,0
317,301,312,311,0
317,298,311,320,0
317,297,311,327,0
317,298,311,330,0
316,300,310,330,0
315,301,310,328,0
314,300,309,324,0
313,297,308,318,0
313,292,308,313,0
314,291,308,311,0
316,293,310,313,0
318,297,312,316,0
318,302,315,320,0
316,305,316,325,0
316,307,318,331,0
317,310,319,336,0
318,312,320,339,0
318,314,320,339,0
318,314,317,334,0
317,314,314,327,0
316,313,311,317,0
316,307,307,306,0
314,298,304,295,0
312,288,302,286,0
309,281,300,279,0
308,280,299,277,0
308,284,299,278,0
311,289,300,282,0
316,292,302,287,0
322,292,303,293,0
328,290,305,299,0
331,286,307,304,0
331,285,308,307,0
333,287,309,309,0
332,296,310,311,0
327,307,311,312,0
320,317,313,311,0
315,326,313,310,0
314,332,314,309,0
315,331,314,307,0
315,327,314,305,0
313,321,313,304,0
310,317,313,305,0
307,315,313,308,0
305,314,313,312,0
303,314,312,317,0
302,313,310,320,0
301,311,308,321,0
301,308,305,319,0
300,307,303,314,0
300,306,300,307,0
299,305,298,300,0
300,305,298,295,0
302,309,299,292,0
305,312,299,292,0
308,315,301,293,0
309,316,301,294,0
309,315,301,294,0
308,314,300,294,0
308,317,300,295,0
308,320,302,297,0
309,320,303,301,0
310,321,304,304,0
309,321,304,306,0
308,320,304,307,0
306,320,304,307,0
305,321,303,307,0
305,321,302,307,0
306,319,301,311,0
308,312,300,317,0
309,298,301,324,0
309,279,302,330,0
309,264,304,334,0
307,251,305,334,0
304,244,306,333,0
302,248,307,332,0
301,257,308,331,0
301,268,308,329,0
302,277,307,326,0
303,285,306,322,0
305,289,304,316,0
307,292,303,310,0
308,291,302,302,0
308,289,300,296,0
306,287,297,292,0
304,289,296,291,0
301,297,295,293,0
300,307,294,296,0
300,313,294,299,0
300,312,294,300,0
299,307,295,298,0
300,304,295,296,0
301,305,296,294,0
304,312,296,293,0
306,322,297,294,0
308,330,298,296,0
309,336,299,298,0
310,339,300,299,0
311,340,300,300,0
308,339,300,300,0
303,335,299,299,0
297,331,299,296,0
292,327,298,293,0
289,323,297,289,0
288,320,296,286,0
289,317,296,285,0
292,313,296,286,0
294,309,297,289,0
295,309,298,292,0
295,309,300,295,0
295,310,302,298,0
296,312,303,304,0
298,313,304,311,0
300,314,305,318,0
303,319,306,324,0
305,323,307,327,0
303,321,308,328,0
300,313,308,326,0
298,304,308,325,0
296,297,307,322,0
296,295,307,319,0
295,296,306,314,0
293,298,305,309,0
292,298,304,304,0
290,295,304,301,0
289,289,303,299,0
288,278,302,298,0
288,268,302,298,0
288,263,301,298,0
289,261,301,297,0
290,263,301,297,0
291,265,301,297,0
292,266,302,295,0
291,267,302,295,0
290,271,303,298,0
289,280,304,304,0
289,292,305,310,0
290,305,306,314,0
291,317,307,316,0
292,325,306,316,0
292,330,306,314,0
291,333,304,311,0
291,334,304,306,0
290,333,303,301,0
290,329,303,298,0
289,326,302,296,0
289,324,302,296,0
289,324,302,298,0
291,322,302,301,0
293,318,303,305,0
295,310,303,307,0
296,300,303,309,0
297,290,303,310,0
297,280,303,310,0
295,274,303,308,0
293,275,303,304,0
291,285,301,298,0
290,302,300,291,0
289,318,299,287,0
289,332,299,287,0
290,343,299,290,0
292,350,300,294,0
292,351,300,297,0
292,348,299,296,0
290,344,298,295,0
289,339,297,293,0
290,329,296,292,0
292,316,296,290,0
294,305,296,290,0
296,299,297,289,0
298,297,297,291,0
301,297,299,292,0
304,298,300,295,0
306,302,302,297,0
305,306,303,300,0
302,307,305,302,0
297,306,306,304,0
294,304,306,305,0
292,302,306,305,0
291,298,306,306,0
289,290,306,308,0
288,277,306,311,0
286,261,305,315,0
285,244,304,317,0
284,229,303,320,0
284,223,303,322,0
286,228,303,323,0
289,246,304,324,0
294,270,304,326,0
299,293,304,329,0
302,311,305,332,0
304,325,305,334,0
305,335,305,334,0
306,342,306,331,0
308,345,306,326,0
310,346,307,318,0
308,344,308,310,0
302,340,308,302,0
297,335,308,296,0
293,329,308,292,0
291,322,307,290,0
290,316,305,287,0
290,312,304,287,0
291,310,302,286,0
290,309,300,287,0
290,311,299,288,0
290,316,299,292,0
289,321,299,295,0
289,326,299,298,0
288,330,299,299,0
288,334,300,301,0
289,338,301,304,0
291,342,303,308,0
294,343,306,312,0
297,339,309,318,0
299,333,310,326,0
300,325,312,336,0
301,320,313,344,0
301,317,313,349,0
300,317,313,350,0
299,318,312,347,0
298,319,311,341,0
296,320,309,332,0
293,316,307,321,0
292,310,304,310,0
290,304,302,301,0
290,303,300,294,0
291,305,298,289,0
294,308,297,287,0
299,313,296,287,0
305,318,296,289,0
310,319,296,293,0
314,310,296,299,0
315,293,296,306,0
312,274,298,315,0
307,261,300,322,0
302,255,302,326,0
298,254,303,328,0
296,258,304,328,0
296,264,304,327,0
296,272,304,324,0
296,281,303,319,0
296,288,302,312,0
295,294,300,306,0
295,297,299,301,0
295,298,299,296,0
296,299,298,292,0
297,301,297,289,0
300,306,297,289,0
304,311,298,292,0
309,314,299,297,0
313,317,300,304,0
314,318,302,311,0
311,318,305,319,0
307,319,307,325,0
304,318,310,329,0
302,316,312,329,0
299,316,313,328,0
296,318,313,325,0
294,322,313,322,0
292,327,312,320,0
291,331,310,317,0
290,332,308,315,0
289,329,307,312,0
288,321,307,310,0
289,311,307,307,0
289,299,307,305,0
288,290,307,303,0
289,284,306,303,0
290,284,307,305,0
295,290,307,308,0
300,299,307,312,0
304,305,308,315,0
306,310,309,317,0
307,313,309,319,0
306,317,310,320,0
305,322,310,322,0
303,328,310,324,0
301,336,310,322,0
300,343,310,318,0
299,346,309,313,0
300,346,308,308,0
302,343,309,304,0
303,337,309,303,0
304,329,310,304,0
305,319,310,308,0
305,311,310,311,0
305,305,309,313,0
305,300,308,313,0
306,295,307,312,0
308,292,307,312,0
309,290,307,312,0
310,290,308,313,0
310,290,310,314,0
310,291,312,315,0
308,292,313,315,0
307,294,313,314,0
305,296,313,313,0
304,295,311,311,0
303,293,311,307,0
303,289,309,302,0
303,285,308,297,0
303,282,307,294,0
303,279,307,293,0
302,278,306,293,0
301,282,305,295,0
302,289,304,298,0
303,299,304,301,0
304,308,304,303,0
306,314,305,308,0
308,317,306,313,0
311,317,307,318,0
313,315,308,322,0
315,316,310,323,0
317,320,311,321,0
319,321,312,318,0
320,318,312,314,0
320,311,312,311,0
318,304,312,309,0
317,299,311,308,0
316,296,310,308,0
314,298,308,307,0
309,303,305,305,0
303,311,303,302,0
298,319,302,299,0
296,324,301,298,0
296,325,301,299,0
297,323,302,302,0
299,319,303,306,0
301,316,304,310,0
303,314,306,314,0
305,314,308,319,0
307,317,310,325,0
309,322,313,334,0
310,328,316,343,0
311,334,317,351,0
311,337,318,355,0
310,335,317,355,0
309,327,316,349,0
306,312,314,338,0
302,295,311,325,0
298,277,308,310,0
295,261,305,297,0
294,252,303,288,0
297,259,302,284,0
303,277,302,284,0
310,295,302,286,0
316,309,303,288,0
321,318,304,291,0
323,324,305,293,0
319,324,305,297,0
312,322,306,303,0
308,321,306,309,0
306,322,307,314,0
306,324,308,317,0
307,325,308,318,0
308,326,308,316,0
308,324,307,313,0
307,320,307,310,0
307,315,306,307,0
305,310,306,304,0
304,304,305,301,0
302,301,304,298,0
301,304,304,298,0
301,312,304,299,0
302,318,305,301,0
303,321,305,303,0
304,323,306,306,0
304,321,306,308,0
306,312,305,310,0
308,297,306,311,0
310,283,306,310,0
313,272,306,309,0
315,267,306,309,0
318,267,307,310,0
319,272,309,312,0
318,280,311,313,0
316,290,311,312,0
314,300,310,310,0
312,308,309,308,0
309,316,308,307,0
306,322,307,307,0
303,324,307,307,0
302,320,305,307,0
301,313,305,307,0
302,303,304,307,0
302,293,303,307,0
304,288,302,307,0
305,286,301,306,0
307,285,301,305,0
308,283,301,304,0
308,282,301,304,0
308,283,303,303,0
311,283,304,303,0
315,284,305,303,0
318,285,306,304,0
318,290,307,306,0
316,297,307,307,0
313,302,307,309,0
310,304,306,310,0
308,306,305,313,0
306,307,304,315,0
306,305,304,319,0
307,304,304,322,0
309,307,305,323,0
309,314,305,323,0
307,318,305,322,0
305,319,305,321,0
305,316,306,324,0
305,313,307,332,0
305,309,307,340,0
304,309,308,348,0
304,312,309,353,0
304,318,311,354,0
304,325,312,351,0
305,328,313,346,0
305,328,313,337,0
305,327,311,329,0
304,327,309,322,0
303,326,307,316,0
302,323,305,311,0
301,320,304,307,0
300,317,304,304,0
300,314,303,301,0
301,313,302,299,0
300,311,301,295,0
300,309,300,290,0
299,310,299,286,0
300,310,298,283,0
299,306,298,281,0
298,296,297,279,0
298,284,298,279,0
299,272,301,279,0
301,264,304,281,0
304,260,308,284,0
307,263,311,287,0
309,272,312,291,0
308,285,313,295,0
307,299,313,299,0
306,312,313,302,0
305,322,313,304,0
304,330,312,306,0
303,334,312,307,0
301,333,310,308,0
298,327,309,309,0
295,315,308,309,0
293,300,307,309,0
292,283,306,309,0
292,268,305,310,0
293,260,305,311,0
295,262,306,313,0
299,270,307,316,0
303,283,307,319,0
307,298,309,319,0
311,313,310,319,0
313,325,311,317,0
313,330,312,316,0
313,328,313,314,0
312,321,314,312,0
311,312,313,309,0
309,305,312,307,0
309,307,311,305,0
308,317,311,305,0
307,328,312,305,0
306,338,312,305,0
305,344,311,306,0
303,345,309,306,0
302,338,306,306,0
302,323,304,306,0
302,303,303,306,0
303,283,301,305,0
303,268,300,304,0
304,259,300,304,0
305,256,301,304,0
306,259,303,304,0
307,267,305,305,0
307,281,306,306,0
306,297,307,309,0
305,312,308,312,0
306,323,308,315,0
307,329,307,319,0
311,332,307,324,0
318,333,307,328,0
325,334,306,332,0
329,335,305,334,0
323,333,305,333,0
309,327,305,332,0
296,317,305,329,0
288,306,305,326,0
288,295,304,323,0
293,288,303,320,0
298,285,302,318,0
302,288,302,316,0
304,295,303,311,0
303,306,305,306,0
302,315,306,303,0
299,321,306,303,0
297,325,307,308,0
294,327,307,314,0
290,324,308,319,0
288,318,308,324,0
287,314,308,327,0
287,313,308,327,0
289,315,308,324,0
291,317,308,319,0
293,315,308,311,0
295,310,306,304,0
296,307,305,300,0
297,304,304,299,0
298,297,305,299,0
297,287,305,298,0
295,277,305,297,0
292,272,306,297,0
293,274,307,299,0
296,287,310,303,0
300,299,312,306,0
304,307,313,310,0
306,308,312,314,0
308,307,311,317,0
309,306,309,319,0
310,307,308,320,0
310,308,307,320,0
309,309,306,318,0
306,309,305,316,0
302,308,305,314,0
299,306,305,313,0
296,302,305,312,0
294,298,304,313,0
294,295,305,316,0
296,295,306,319,0
299,297,307,320,0
302,299,305,319,0
304,300,305,317,0
302,301,305,314,0
298,301,305,310,0
294,301,305,306,0
292,298,305,302,0
291,296,304,299,0
292,296,303,297,0
292,299,302,295,0
293,304,301,295,0
294,306,300,296,0
294,308,300,300,0
295,305,301,307,0
295,303,302,317,0
294,305,304,327,0
293,310,305,335,0
292,316,307,343,0
291,318,308,348,0
292,318,309,351,0
294,317,310,352,0
296,316,309,351,0
298,313,309,349,0
299,308,308,344,0
300,302,307,336,0
299,297,305,325,0
298,294,304,312,0
296,292,303,302,0
295,292,302,295,0
295,294,302,291,0
297,298,303,291,0
299,301,304,296,0
300,303,304,303,0
301,304,305,311,0
301,304,305,318,0
302,304,305,321,0
303,303,304,320,0
304,300,304,317,0
304,297,303,310,0
304,295,303,304,0
305,295,303,300,0
305,298,304,298,0
305,302,306,299,0
306,306,309,303,0
306,308,312,308,0
305,307,313,314,0
304,304,315,319,0
305,300,315,321,0
306,297,314,321,0
306,296,312,319,0
304,296,310,315,0
303,302,307,312,0
303,312,306,307,0
302,322,304,302,0
302,328,303,298,0
304,329,301,296,0
308,324,300,296,0
312,317,299,298,0
317,311,298,302,0
320,306,299,306,0
316,301,299,310,0
308,295,300,312,0
302,289,302,313,0
298,286,303,313,0
297,287,304,313,0
297,294,305,314,0
299,303,306,313,0
300,311,306,311,0
301,315,306,309,0
302,314,306,306,0
304,311,305,303,0
305,305,304,300,0
306,299,304,300,0
305,291,304,301,0
304,286,305,304,0
301,285,305,306,0
299,290,306,309,0
299,303,307,311,0
299,319,308,315,0
302,332,309,319,0
305,339,311,324,0
310,340,313,330,0
315,335,315,336,0
319,320,318,342,0
322,300,319,345,0
321,282,318,345,0
317,267,318,341,0
313,257,315,333,0
309,253,313,324,0
307,259,310,313,0
307,273,308,300,0
307,290,308,288,0
307,304,307,280,0
308,315,307,275,0
309,319,306,274,0
310,318,305,275,0
311,316,305,275,0
312,314,305,276,0
313,315,306,276,0
314,313,307,279,0
315,305,308,282,0
317,295,310,287,0
318,290,312,297,0
320,296,314,309,0
320,308,315,320,0
320,320,316,326,0
319,327,315,326,0
319,328,314,321,0
319,325,312,312,0
318,318,310,302,0
317,308,308,293,0
315,297,307,287,0
314,293,306,285,0
313,296,307,285,0
313,306,308,287,0
316,316,310,288,0
318,318,311,289,0
321,315,312,289,0
324,311,313,291,0
328,306,315,296,0
333,303,315,300,0
335,301,316,304,0
335,299,316,305,0
333,299,316,304,0
331,303,314,302,0
329,308,313,301,0
326,312,311,299,0
324,310,310,298,0
321,307,310,299,0
319,306,311,301,0
317,309,312,303,0
314,314,312,304,0
313,319,313,305,0
313,323,313,306,0
313,324,314,307,0
315,324,314,307,0
316,323,314,307,0
317,321,315,305,0
316,318,315,304,0
318,313,316,306,0
320,305,317,309,0
323,297,318,312,0
327,290,320,316,0
331,287,321,321,0
333,287,323,326,0
331,290,323,331,0
328,294,323,334,0
326,295,322,334,0
326,293,321,334,0
328,295,320,335,0
333,303,319,335,0
336,309,319,334,0
332,311,319,331,0
322,310,318,327,0
313,310,316,320,0
307,312,315,312,0
306,317,313,302,0
307,320,311,293,0
309,319,309,286,0
311,316,308,282,0
314,311,307,281,0
317,307,307,282,0
320,306,308,284,0
321,307,309,288,0
322,307,310,292,0
321,307,311,294,0
319,309,310,297,0
318,314,310,298,0
318,318,310,299,0
318,322,309,300,0
318,324,309,301,0
319,324,309,302,0
321,320,310,302,0
323,315,310,301,0
325,311,310,300,0
326,308,310,299,0
326,305,310,299,0
327,303,309,297,0
327,300,309,296,0
327,297,309,294,0
328,294,308,293,0
328,294,308,295,0
329,297,309,297,0
329,298,310,299,0
329,297,310,301,0
328,295,310,303,0
326,293,311,304,0
324,290,311,305,0
321,288,311,307,0
318,284,311,307,0
316,281,310,304,0
314,279,308,299,0
311,280,305,295,0
309,283,304,292,0
308,289,304,293,0
308,296,304,296,0
310,299,305,301,0
311,300,305,307,0
314,300,305,313,0
319,300,305,319,0
323,302,307,322,0
325,306,308,323,0
327,311,309,321,0
327,312,311,316,0
326,308,311,309,0
325,303,311,301,0
323,301,311,294,0
322,305,311,287,0
322,311,311,282,0
321,316,310,281,0
321,318,309,281,0
320,318,309,284,0
320,317,310,288,0
320,316,310,292,0
322,314,310,297,0
324,311,311,301,0
327,304,310,305,0
327,295,309,308,0
324,284,308,311,0
319,272,307,313,0
316,261,307,315,0
315,254,307,316,0
313,253,308,315,0
312,262,309,313,0
312,277,311,309,0
312,293,312,303,0
312,307,311,297,0
312,320,310,291,0
312,331,308,287,0
312,335,308,285,0
312,336,307,284,0
312,334,307,284,0
312,331,307,286,0
311,327,306,287,0
309,324,306,289,0
308,322,306,290,0
308,319,306,291,0
309,317,305,293,0
311,318,305,296,0
313,321,305,298,0
316,321,305,299,0
317,321,305,300,0
318,321,305,300,0
318,321,306,302,0
317,320,307,303,0
315,318,309,305,0
313,315,309,307,0
312,314,310,307,0
312,316,310,306,0
312,321,309,304,0
314,321,308,300,0
316,311,307,294,0
320,296,306,289,0
324,282,306,286,0
328,272,305,284,0
330,269,305,285,0
324,270,305,287,0
316,271,305,290,0
310,271,305,294,0
307,272,306,299,0
306,275,308,303,0
306,283,309,307,0
307,297,310,310,0
307,311,311,312,0
307,321,310,313,0
308,329,310,313,0
310,333,310,311,0
311,333,310,308,0
312,333,310,305,0
312,332,309,303,0
312,332,308,302,0
312,332,307,302,0
311,330,306,301,0
310,327,305,301,0
309,322,304,301,0
307,317,304,301,0
305,312,304,299,0
305,305,303,297,0
307,299,303,295,0
309,294,302,294,0
309,294,302,294,0
310,295,302,297,0
312,298,302,300,0
315,301,303,303,0
318,305,304,306,0
322,308,304,308,0
326,310,305,308,0
327,306,306,308,0
322,298,306,306,0
313,290,305,305,0
303,286,304,302,0
298,288,303,299,0
295,295,301,295,0
294,305,300,293,0
296,315,300,293,0
299,325,302,296,0
303,330,302,300,0
305,332,302,304,0
307,332,301,309,0
308,330,301,314,0
309,326,300,317,0
310,318,300,319,0
310,312,300,318,0
310,308,301,317,0
310,308,303,316,0
311,312,304,314,0
312,316,305,313,0
312,320,305,313,0
311,323,306,315,0
310,323,306,316,0
308,322,306,317,0
307,317,305,315,0
305,309,305,314,0
305,299,305,312,0
304,289,306,311,0
305,283,306,310,0
305,280,307,309,0
304,281,307,309,0
303,284,307,309,0
303,290,307,308,0
303,297,308,307,0
303,301,308,303,0
303,297,307,298,0
303,291,305,293,0
303,287,304,290,0
304,284,304,288,0
306,282,306,289,0
307,286,307,290,0
307,294,308,291,0
306,305,309,291,0
304,315,308,291,0
302,323,307,291,0
301,328,306,290,0
301,331,304,289,0
302,330,303,289,0
304,328,303,289,0
305,323,303,290,0
305,316,303,292,0
305,308,303,295,0
304,303,303,299,0
300,299,304,306,0
298,296,306,315,0
299,295,310,324,0
303,296,313,330,0
307,297,313,331,0
309,300,313,328,0
310,306,311,320,0
311,312,310,312,0
313,316,307,304,0
315,320,305,298,0
317,323,304,293,0
316,325,302,291,0
309,323,302,291,0
302,318,302,294,0
299,311,302,298,0
295,305,302,302,0
291,304,302,306,0
286,306,302,310,0
284,309,302,313,0
284,312,303,316,0
285,316,304,317,0
288,320,304,315,0
291,326,304,312,0
294,330,305,310,0
297,334,306,308,0
300,336,307,307,0
302,336,308,306,0
303,335,308,305,0
304,329,307,304,0
303,322,307,303,0
303,317,306,302,0
303,313,305,300,0
303,309,304,298,0
302,304,303,296,0
300,299,303,296,0
300,295,302,295,0
299,291,302,295,0
298,286,301,295,0
298,278,301,295,0
298,269,301,296,0
299,262,301,299,0
301,256,302,304,0
302,256,303,310,0
303,264,304,316,0
304,277,305,321,0
304,294,306,324,0
303,311,306,324,0
303,328,305,321,0
303,339,305,316,0
302,343,305,312,0
302,341,305,310,0
302,337,306,311,0
302,333,307,314,0
302,330,308,319,0
303,328,309,325,0
303,328,309,329,0
304,328,309,329,0
304,329,309,327,0
304,328,308,323,0
304,323,307,319,0
303,314,307,316,0
302,302,307,314,0
300,287,307,313,0
299,272,307,312,0
298,261,308,310,0
297,258,307,308,0
298,267,307,305,0
300,287,306,303,0
303,312,304,300,0
305,335,303,297,0
307,348,303,294,0
309,349,303,294,0
311,340,303,296,0
313,330,303,298,0
314,322,302,298,0
315,317,301,297,0
315,314,300,295,0
315,312,298,294,0
314,312,297,295,0
312,314,297,300,0
310,317,298,308,0
308,319,299,318,0
307,319,301,326,0
307,317,304,333,0
307,314,307,337,0
308,313,309,339,0
309,313,311,338,0
309,314,311,333,0
309,316,311,327,0
308,319,310,320,0
307,321,308,313,0
306,322,306,304,0
305,322,303,297,0
304,322,302,293,0
304,321,301,290,0
305,320,300,289,0
305,319,301,289,0
306,317,301,289,0
307,313,301,287,0
309,308,300,283,0
312,302,298,277,0
316,295,297,270,0
319,284,296,265,0
317,267,297,264,0
311,251,299,268,0
304,245,303,277,0
302,248,306,287,0
303,259,306,297,0
307,273,306,304,0
309,289,305,309,0
304,305,304,310,0
297,319,303,311,0
292,329,302,311,0
291,335,302,313,0
293,338,301,314,0
296,339,301,316,0
298,338,301,317,0
301,334,301,316,0
303,328,302,317,0
304,323,303,317,0
307,319,304,317,0
308,316,305,317,0
309,315,305,316,0
310,314,305,315,0
310,315,306,313,0
310,315,306,313,0
310,317,307,313,0
310,318,307,317,0
310,320,308,324,0
311,321,308,331,0
310,323,309,336,0
308,323,308,336,0
306,322,307,332,0
304,317,306,324,0
302,307,305,314,0
300,295,304,304,0
299,283,303,295,0
301,274,303,289,0
303,268,302,286,0
306,266,302,285,0
309,268,303,288,0
313,273,304,293,0
317,280,305,300,0
319,284,306,306,0
317,287,306,312,0
314,295,307,317,0
310,305,307,317,0
306,315,307,314,0
304,325,306,310,0
304,332,305,305,0
304,337,304,301,0
304,337,303,299,0
303,337,302,300,0
303,337,302,303,0
303,337,302,308,0
304,335,303,313,0
305,331,303,315,0
306,327,303,318,0
307,323,303,319,0
307,321,303,321,0
308,320,303,323,0
309,319,304,324,0
309,318,304,324,0
310,318,305,323,0
311,319,306,320,0
310,321,307,318,0
310,323,307,316,0
309,325,308,314,0
307,328,309,312,0
306,330,310,313,0
305,331,311,315,0
304,331,311,318,0
303,332,310,320,0
302,332,309,321,0
300,327,307,319,0
298,320,305,315,0
297,313,303,310,0
297,310,302,305,0
299,303,302,301,0
303,289,302,299,0
306,275,303,299,0
309,269,305,299,0
313,273,306,298,0
317,279,307,296,0
320,282,307,293,0
322,285,308,294,0
322,288,309,297,0
319,292,311,303,0
313,297,313,309,0
307,302,312,313,0
302,305,311,317,0
297,308,309,321,0
295,312,307,325,0
296,316,305,327,0
298,319,304,326,0
300,321,304,325,0
304,321,303,324,0
307,319,302,326,0
309,314,301,329,0
310,307,300,333,0
310,302,299,335,0
310,302,298,334,0
311,308,298,330,0
311,317,299,321,0
311,324,300,312,0
310,328,300,302,0
310,329,301,295,0
309,330,301,291,0
309,328,302,290,0
308,319,302,291,0
308,306,303,295,0
307,296,304,300,0
307,289,306,305,0
308,288,306,308,0
309,293,307,309,0
311,301,307,308,0
313,307,306,306,0
314,310,305,303,0
313,310,304,301,0
311,308,304,299,0
310,305,304,300,0
309,300,306,302,0
309,295,308,303,0
309,290,308,302,0
309,286,308,301,0
310,282,307,298,0
312,279,306,295,0
315,279,306,295,0
316,282,305,297,0
312,286,305,301,0
305,287,304,305,0
299,288,305,309,0
296,290,305,313,0
295,295,306,317,0
296,304,307,320,0
300,313,308,322,0
303,321,308,320,0
307,327,307,316,0
309,331,306,312,0
310,333,306,310,0
310,334,306,308,0
309,333,307,307,0
308,332,307,308,0
308,330,307,310,0
308,330,307,313,0
308,330,308,317,0
308,328,308,320,0
308,325,307,320,0
307,322,306,320,0
306,320,306,320,0
305,319,305,320,0
304,319,304,321,0
304,320,305,321,0
304,322,305,321,0
305,324,305,321,0
306,324,304,319,0
307,323,304,315,0
308,321,303,309,0
307,315,301,304,0
306,306,300,299,0
306,296,300,297,0
306,287,301,297,0
306,281,301,299,0
307,279,303,304,0
307,282,304,310,0
308,291,305,315,0
310,301,307,318,0
314,310,308,319,0
317,313,307,320,0
316,311,306,320,0
314,307,305,318,0
312,305,303,314,0
312,306,302,310,0
310,306,302,306,0
307,307,303,303,0
303,306,304,300,0
299,303,303,297,0
296,300,301,295,0
295,299,300,294,0
295,299,299,294,0
297,301,300,296,0
299,303,302,299,0
300,306,304,302,0
301,309,305,304,0
301,311,306,307,0
299,309,306,309,0
298,304,307,311,0
296,298,307,312,0
296,291,307,312,0
296,284,306,311,0
295,282,305,310,0
295,285,304,310,0
295,294,302,311,0
297,305,302,312,0
298,315,301,314,0
299,321,300,313,0
300,327,298,310,0
300,334,297,307,0
301,338,296,303,0
303,340,296,302,0
305,340,296,302,0
306,338,297,304,0
307,337,298,307,0
307,338,300,308,0
306,337,301,308,0
305,335,303,308,0
303,330,305,309,0
301,324,306,310,0
300,316,307,312,0
300,310,307,314,0
302,307,306,316,0
304,304,305,316,0
306,302,303,315,0
310,301,301,314,0
316,303,299,315,0
318,305,297,316,0
315,307,297,319,0
309,306,296,320,0
306,303,295,319,0
304,299,294,318,0
304,296,294,318,0
302,295,295,320,0
300,296,297,321,0
298,300,299,322,0
297,303,300,321,0
297,304,300,320,0
296,302,300,320,0
294,300,300,320,0
292,300,299,319,0
291,303,299,319,0
293,309,299,318,0
296,312,300,317,0
298,312,300,316,0
301,307,299,313,0
303,298,298,310,0
305,290,298,308,0
307,285,297,306,0
307,281,297,304,0
307,277,297,303,0
306,275,296,304,0
306,282,297,307,0
307,298,297,310,0
310,315,298,314,0
313,326,299,317,0
315,334,301,319,0
316,340,303,321,0
317,344,304,321,0
315,345,305,322,0
311,344,305,322,0
305,344,306,324,0
301,344,306,326,0
297,342,305,327,0
294,338,305,327,0
293,333,306,325,0
294,327,306,322,0
295,319,304,318,0
296,310,302,313,0
296,304,301,308,0
297,301,300,305,0
299,303,300,303,0
301,305,301,302,0
302,305,303,304,0
304,306,304,307,0
306,310,306,311,0
308,314,308,314,0
309,317,309,318,0
309,317,310,321,0
308,316,310,323,0
306,312,309,322,0
305,309,308,319,0
304,308,307,314,0
303,308,306,308,0
302,309,304,303,0
302,311,303,300,0
302,314,302,297,0
303,315,303,296,0
304,315,303,295,0
304,313,303,295,0
304,314,304,297,0
304,317,305,302,0
304,320,306,308,0
304,321,307,312,0
305,320,308,315,0
307,319,309,319,0
310,317,309,325,0
313,313,310,331,0
314,309,310,334,0
311,302,309,335,0
304,295,308,332,0
298,288,308,327,0
295,283,307,320,0
293,282,307,310,0
293,281,306,300,0
294,277,306,293,0
296,271,305,289,0
297,268,305,288,0
297,271,305,291,0
297,277,304,296,0
297,282,303,301,0
297,288,304,305,0
298,296,304,307,0
299,303,304,309,0
301,312,306,310,0
304,325,307,312,0
307,339,308,312,0
310,348,309,312,0
313,350,309,313,0
315,349,309,314,0
315,346,308,315,0
313,341,307,316,0
312,335,306,316,0
312,332,305,316,0
313,333,304,315,0
311,335,304,312,0
306,337,303,307,0
299,335,302,302,0
293,325,301,297,0
288,307,300,293,0
285,287,299,291,0
284,265,299,291,0
285,243,299,294,0
287,224,300,296,0
289,213,302,298,0
291,206,304,300,0
294,207,305,301,0
296,226,306,303,0
299,261,307,305,0
302,297,308,307,0
305,326,309,312,0
307,342,309,318,0
308,349,309,324,0
308,349,310,331,0
308,347,309,335,0
306,343,308,338,0
304,337,307,337,0
302,329,306,334,0
300,320,305,329,0
298,309,305,324,0
298,300,306,320,0
299,297,307,317,0
301,299,308,314,0
303,308,307,312,0
305,321,306,309,0
306,334,305,305,0
306,344,303,301,0
306,349,302,297,0
305,349,300,291,0
304,344,299,285,0
304,333,298,281,0
306,316,298,279,0
309,293,298,278,0
310,270,299,279,0
306,249,300,280,0
301,233,301,281,0
296,226,301,281,0
294,235,301,283,0
294,251,301,285,0
294,261,300,288,0
294,262,299,290,0
293,260,299,292,0
294,268,300,296,0
297,285,304,303,0
301,303,308,311,0
306,317,311,318,0
309,324,313,324,0
312,327,315,328,0
314,327,316,330,0
316,325,315,330,0
314,321,315,328,0
310,319,313,324,0
304,315,312,320,0
300,308,312,315,0
298,307,313,311,0
299,318,314,309,0
301,331,315,308,0
304,334,315,308,0
306,328,314,306,0
305,315,311,302,0
303,300,308,297,0
301,282,304,295,0
299,265,301,293,0
302,255,301,294,0
308,251,302,295,0
315,253,303,296,0
321,259,305,298,0
320,270,306,300,0
314,288,308,303,0
306,304,310,305,0
301,316,311,307,0
297,321,312,310,0
295,322,312,313,0
296,327,311,316,0
299,334,311,318,0
302,339,312,320,0
304,343,312,323,0
306,342,313,326,0
307,337,313,327,0
307,330,311,327,0
306,323,309,325,0
306,318,306,322,0
304,314,304,318,0
304,311,302,314,0
301,310,302,310,0
299,310,302,308,0
297,310,303,308,0
296,308,304,308,0
296,303,305,306,0
299,299,304,302,0
305,297,303,298,0
308,300,301,294,0
306,301,299,291,0
302,297,298,289,0
300,288,297,289,0
299,279,297,288,0
300,273,297,287,0
303,273,298,286,0
304,279,299,287,0
302,287,300,289,0
298,295,301,290,0
294,298,301,291,0
291,295,303,291,0
292,290,305,294,0
296,290,308,299,0
302,294,311,305,0
305,301,313,310,0
307,308,315,314,0
308,316,316,316,0
307,322,315,315,0
305,323,314,313,0
302,322,314,312,0
301,320,314,311,0
302,318,314,310,0
306,315,312,307,0
310,310,309,305,0
312,305,306,304,0
312,304,303,303,0
310,304,302,303,0
308,303,301,304,0
306,297,299,305,0
305,287,298,304,0
304,280,298,302,0
305,277,299,301,0
308,276,300,299,0
312,272,300,299,0
316,267,302,299,0
318,265,304,300,0
315,265,305,302,0
307,262,304,302,0
299,261,303,303,0
294,271,302,303,0
292,291,301,302,0
292,309,300,302,0
294,317,300,303,0
296,317,301,305,0
298,312,301,308,0
300,304,301,311,0
302,294,301,316,0
304,284,301,320,0
306,274,302,323,0
309,271,302,325,0
313,278,303,326,0
319,289,305,327,0
323,297,307,328,0
323,301,309,329,0
319,303,310,328,0
313,306,310,325,0
306,314,309,320,0
301,327,307,314,0
296,338,304,308,0
294,344,303,304,0
294,347,302,302,0
297,344,302,303,0
299,330,302,306,0
303,310,302,309,0
306,291,302,312,0
308,278,303,313,0
312,271,303,313,0
315,268,303,312,0
318,268,303,309,0
319,268,303,305,0
317,266,302,303,0
314,260,302,302,0
308,254,302,303,0
303,249,303,305,0
297,244,303,307,0
293,246,303,307,0
290,256,303,308,0
290,272,303,308,0
292,282,302,307,0
293,288,302,306,0
297,297,302,305,0
302,306,303,304,0
308,315,303,303,0
314,319,303,302,0
318,319,303,301,0
320,318,301,301,0
318,316,300,300,0
314,312,298,299,0
310,308,297,299,0
309,305,295,301,0
315,303,296,306,0
324,298,297,312,0
327,291,298,316,0
317,283,301,318,0
303,278,303,318,0
291,274,306,316,0
285,271,309,314,0
285,277,310,311,0
288,290,311,308,0
292,305,310,306,0
297,314,310,307,0
302,314,310,309,0
308,307,310,310,0
311,299,310,310,0
313,292,310,311,0
314,286,309,310,0
313,276,308,309,0
310,264,306,308,0
307,249,305,307,0
304,236,305,307,0
304,225,304,306,0
305,219,304,305,0
307,226,304,305,0
312,247,305,306,0
318,272,306,308,0
322,293,308,311,0
323,306,309,312,0
323,311,310,313,0
320,310,311,313,0
318,308,310,314,0
315,309,309,314,0
313,312,308,314,0
311,317,307,314,0
309,324,306,315,0
308,330,305,315,0
306,328,303,314,0
305,318,301,312,0
303,304,300,309,0
301,291,300,308,0
301,280,301,309,0
303,274,302,311,0
307,278,304,314,0
312,286,307,318,0
317,295,310,322,0
322,302,313,324,0
325,305,314,322,0
327,304,315,321,0
331,301,316,322,0
335,298,316,323,0
338,292,314,321,0
342,285,311,317,0
339,276,308,311,0
328,265,306,306,0
315,253,306,301,0
304,248,306,298,0
297,253,307,295,0
294,265,308,295,0
294,278,309,296,0
296,288,308,297,0
300,295,307,298,0
305,299,306,298,0
308,298,303,298,0
310,296,302,299,0
310,293,301,300,0
304,289,301,301,0
301,283,302,302,0
305,277,303,303,0
314,275,304,304,0
322,274,305,305,0
323,273,305,306,0
315,276,305,308,0
304,282,304,309,0
296,281,304,309,0
291,276,305,311,0
291,280,306,313,0
295,291,306,314,0
298,297,305,313,0
301,294,303,313,0
301,286,302,312,0
301,279,302,310,0
302,273,305,310,0
306,266,307,310,0
310,256,309,310,0
311,243,310,309,0
310,232,310,307,0
307,227,310,306,0
307,235,310,305,0
308,250,310,303,0
312,270,307,301,0
317,290,304,300,0
322,307,302,299,0
325,321,301,299,0
323,334,301,300,0
318,345,301,303,0
312,347,303,308,0
306,338,304,314,0
302,322,306,319,0
299,302,306,323,0
297,281,307,327,0
297,265,307,330,0
298,258,307,332,0
300,260,308,335,0
303,269,309,337,0
307,281,310,338,0
310,292,311,336,0
312,302,312,332,0
313,309,313,327,0
312,310,313,321,0
311,307,313,317,0
310,303,312,312,0
308,300,312,308,0
306,299,311,304,0
304,299,310,301,0
303,298,309,299,0
302,299,307,296,0
301,297,305,293,0
300,291,304,291,0
301,279,303,290,0
303,263,303,289,0
306,248,302,289,0
309,236,302,290,0
314,231,302,291,0
319,231,303,292,0
321,237,304,294,0
318,249,305,296,0
311,262,307,300,0
305,271,310,303,0
303,277,312,305,0
302,282,314,309,0
303,286,315,314,0
303,288,315,322,0
302,292,315,331,0
301,297,314,339,0
302,302,314,344,0
303,305,313,345,0
303,305,312,344,0
302,300,310,340,0
300,291,308,333,0
299,282,306,325,0
300,277,304,317,0
301,275,304,310,0
302,275,303,304,0
303,273,303,300,0
305,272,303,298,0
306,271,304,297,0
307,268,304,296,0
308,263,304,295,0
309,255,304,294,0
307,248,304,292,0
304,240,304,292,0
300,236,302,291,0
296,238,300,290,0
295,249,300,289,0
297,267,299,290,0
302,288,299,292,0
305,300,299,295,0
307,305,300,298,0
308,306,300,300,0
307,307,301,302,0
305,306,301,305,0
303,304,302,310,0
300,300,302,315,0
297,294,303,320,0
297,287,303,324,0
299,281,304,327,0
303,276,305,329,0
305,268,305,327,0
304,257,304,324,0
304,248,304,320,0
304,248,305,316,0
307,258,306,314,0
310,273,307,311,0
311,283,307,311,0
308,288,308,311,0
305,289,307,312,0
300,290,306,311,0
297,290,305,310,0
296,286,304,308,0
296,279,303,306,0
298,272,304,304,0
301,264,305,302,0
304,258,305,300,0
307,257,307,299,0
308,258,308,299,0
309,260,309,300,0
309,262,310,302,0
308,266,312,305,0
307,270,312,308,0
306,273,312,310,0
305,275,311,312,0
303,275,310,313,0
301,273,309,310,0
300,271,306,306,0
299,271,304,303,0
299,274,303,299,0
299,278,302,296,0
299,282,302,293,0
301,290,301,290,0
301,301,301,289,0
300,309,300,288,0
299,311,300,289,0
299,307,300,291,0
300,302,301,295,0
302,298,302,299,0
303,296,304,303,0
304,293,307,308,0
305,288,308,312,0
306,285,309,315,0
306,285,310,318,0
305,283,311,320,0
303,279,311,322,0
302,273,311,325,0
301,269,310,328,0
301,264,308,329,0
301,258,307,327,0
302,256,305,327,0
301,261,305,326,0
298,271,306,324,0
294,284,308,320,0
293,296,309,315,0
296,304,309,309,0
302,305,308,304,0
309,300,307,300,0
317,297,306,297,0
319,296,307,296,0
315,298,309,296,0
308,300,310,295,0
303,300,311,293,0
301,297,312,290,0
302,295,311,288,0
303,292,310,286,0
302,290,308,285,0
301,287,306,284,0
300,280,305,283,0
299,273,304,284,0
299,270,304,286,0
300,271,304,289,0
300,273,304,291,0
303,272,305,294,0
306,272,305,297,0
309,272,306,300,0
312,271,307,303,0
313,267,308,305,0
311,257,309,307,0
310,249,309,312,0
308,247,310,315,0
307,250,310,319,0
305,254,310,321,0
303,257,309,321,0
302,262,308,320,0
301,271,307,317,0
300,279,307,314,0
299,284,307,310,0
299,287,307,307,0
299,292,306,306,0
300,299,306,305,0
301,305,305,304,0
302,311,305,303,0
303,315,306,300,0
303,318,306,298,0
304,318,306,298,0
305,315,307,299,0
306,312,308,302,0
307,310,309,305,0
308,310,310,308,0
310,311,311,310,0
312,312,311,310,0
313,312,310,309,0
312,312,310,308,0
308,309,308,306,0
303,306,308,305,0
299,302,307,305,0
296,299,306,304,0
293,300,305,304,0
292,303,304,304,0
293,305,304,304,0
294,305,303,304,0
295,294,302,305,0
295,272,301,306,0
295,247,300,307,0
294,222,300,309,0
293,196,299,309,0
292,177,299,308,0
292,177,301,306,0
294,205,303,305,0
298,246,305,307,0
303,284,308,310,0
307,311,309,312,0
309,324,310,312,0
309,327,310,312,0
309,324,310,310,0
308,318,310,308,0
308,311,309,307,0
307,305,310,308,0
307,301,309,311,0
307,299,309,313,0
307,299,309,314,0
307,300,308,315,0
307,301,308,316,0
307,302,307,317,0
307,305,306,319,0
306,306,304,319,0
304,305,303,319,0
304,304,303,317,0
305,306,304,314,0
310,309,305,311,0
316,309,306,307,0
319,309,307,303,0
318,308,308,302,0
314,309,308,303,0
308,307,307,308,0
303,303,305,314,0
300,299,304,320,0
299,296,304,323,0
298,295,303,325,0
298,294,302,322,0
298,293,302,317,0
297,290,301,310,0
298,286,300,304,0
298,282,300,300,0
300,281,301,298,0
303,284,303,298,0
305,288,305,299,0
307,292,308,301,0
308,295,310,301,0
307,298,311,301,0
305,303,311,301,0
302,307,310,301,0
299,308,309,300,0
297,304,307,301,0
298,296,305,301,0
303,282,304,301,0
311,270,303,302,0
315,270,302,302,0
314,278,302,302,0
307,286,302,301,0
301,288,303,300,0
296,288,303,298,0
294,292,304,298,0
296,300,305,299,0
298,307,307,304,0
301,312,309,312,0
302,315,311,321,0
302,316,313,330,0
302,315,314,336,0
302,314,315,340,0
303,312,315,340,0
303,311,314,337,0
304,311,313,330,0
306,310,311,322,0
308,309,310,313,0
309,305,308,304,0
308,301,306,295,0
304,294,304,288,0
300,289,302,283,0
296,287,302,281,0
296,292,301,282,0
297,298,302,283,0
299,306,303,286,0
302,310,304,289,0
305,307,307,292,0
308,302,308,295,0
310,296,309,296,0
311,291,310,296,0
310,288,310,295,0
309,288,309,295,0
307,293,308,295,0
304,297,308,296,0
302,300,309,298,0
301,304,309,300,0
300,306,309,302,0
299,307,309,303,0
299,307,309,305,0
299,304,309,305,0
297,301,309,305,0
297,300,308,304,0
296,298,307,303,0
295,297,305,302,0
294,299,304,302,0
296,303,303,303,0
299,308,303,305,0
303,316,303,308,0
307,324,305,313,0
310,329,307,318,0
313,330,310,321,0
317,329,312,323,0
320,327,313,322,0
319,324,313,320,0
315,319,313,317,0
310,314,312,314,0
304,308,310,312,0
300,302,309,312,0
298,297,308,315,0
297,295,307,318,0
298,297,306,318,0
298,300,305,315,0
298,301,304,311,0
299,298,304,308,0
300,295,304,306,0
301,295,306,304,0
304,298,307,302,0
307,302,309,303,0
310,305,311,304,0
312,308,312,305,0
313,312,312,305,0
313,316,312,305,0
312,318,311,303,0
311,319,310,301,0
308,316,310,298,0
304,311,310,295,0
299,305,309,293,0
294,304,307,293,0
292,305,306,293,0
293,305,306,293,0
296,305,305,294,0
300,303,305,296,0
305,298,304,299,0
308,292,304,302,0
311,288,303,306,0
313,290,303,308,0
312,299,303,312,0
310,306,306,317,0
309,309,308,323,0
310,310,311,328,0
312,313,313,333,0
313,315,314,337,0
313,314,314,339,0
313,309,314,337,0
312,301,314,331,0
310,293,312,323,0
306,287,311,315,0
304,282,309,306,0
302,284,307,299,0
300,292,306,297,0
298,301,305,298,0
297,310,305,302,0
297,317,306,306,0
299,326,306,309,0
303,334,305,310,0
307,339,304,309,0
308,340,304,307,0
308,338,304,306,0
308,335,304,305,0
308,331,304,306,0
307,328,305,308,0
306,326,306,310,0
304,324,306,310,0
302,323,306,310,0
302,323,307,308,0
302,323,307,307,0
302,322,307,306,0
303,321,306,305,0
303,318,305,303,0
305,313,304,301,0
307,308,304,300,0
309,305,303,298,0
310,305,303,296,0
310,307,303,296,0
310,309,302,298,0
312,310,303,301,0
315,312,303,305,0
320,314,304,310,0
322,319,305,313,0
318,325,306,316,0
310,331,307,318,0
302,335,309,320,0
298,333,311,321,0
296,325,311,322,0
295,310,311,322,0
294,290,310,321,0
294,271,309,317,0
295,262,308,311,0
296,267,307,304,0
298,284,306,299,0
299,303,305,297,0
301,320,304,296,0
302,331,303,297,0
303,335,302,300,0
303,334,301,305,0
304,330,301,310,0
304,324,302,316,0
305,317,303,322,0
307,310,305,330,0
308,307,306,337,0
309,308,308,342,0
309,310,309,343,0
308,312,310,339,0
307,312,310,332,0
305,308,310,323,0
303,303,310,313,0
301,299,309,305,0
299,299,308,300,0
299,299,308,297,0
299,296,307,294,0
298,292,307,293,0
298,291,307,291,0
299,295,306,291,0
300,303,306,291,0
301,311,305,291,0
302,317,304,292,0
304,321,304,295,0
306,328,303,300,0
308,335,304,304,0
311,340,305,308,0
314,342,306,311,0
316,342,307,313,0
318,340,308,312,0
317,334,308,310,0
312,326,308,308,0
307,318,309,305,0
303,313,308,302,0
300,311,308,301,0
298,313,307,300,0
297,319,306,300,0
297,323,306,300,0
296,323,305,298,0
295,317,303,296,0
295,307,302,293,0
297,297,301,292,0
299,293,301,292,0
302,294,301,294,0
304,297,302,295,0
305,301,302,295,0
305,305,303,297,0
306,308,305,299,0
307,313,307,304,0
309,319,310,309,0
310,321,312,313,0
310,320,315,316,0
309,316,315,317,0
308,312,314,317,0
307,309,312,316,0
307,309,311,314,0
306,310,310,311,0
304,312,309,310,0
301,314,308,310,0
301,315,306,312,0
302,316,304,313,0
304,315,302,314,0
305,308,301,314,0
307,295,299,312,0
307,281,298,308,0
308,268,298,303,0
309,258,298,297,0
310,256,299,289,0
310,268,300,284,0
309,288,300,281,0
307,308,301,280,0
305,323,300,281,0
302,334,300,282,0
302,335,299,285,0
303,333,300,288,0
305,335,301,291,0
307,343,302,295,0
310,352,304,300,0
313,355,306,305,0
314,352,307,309,0
314,348,308,310,0
313,345,308,310,0
312,339,307,307,0
312,331,307,305,0
311,320,306,302,0
312,307,306,300,0
311,295,307,300,0
310,286,308,301,0
307,282,309,302,0
305,281,309,302,0
302,282,309,303,0
300,283,308,305,0
298,284,308,307,0
296,286,306,309,0
294,288,304,310,0
293,290,302,310,0
294,292,302,309,0
296,291,301,305,0
298,294,301,301,0
302,306,300,298,0
308,321,300,298,0
311,332,301,298,0
313,335,302,299,0
312,332,303,301,0
311,328,304,302,0
311,325,303,303,0
312,324,303,303,0
313,322,304,304,0
318,319,305,304,0
319,319,306,304,0
314,321,307,304,0
309,320,308,305,0
306,316,309,306,0
308,314,310,308,0
309,313,312,312,0
308,314,313,317,0
305,313,314,320,0
301,311,313,320,0
299,308,310,318,0
301,306,307,314,0
302,300,303,311,0
305,293,301,309,0
309,291,299,307,0
313,296,298,304,0
314,303,298,301,0
313,312,299,299,0
309,323,301,300,0
303,330,304,302,0
300,330,306,305,0
299,320,307,307,0
300,303,306,308,0
301,282,305,308,0
304,264,304,309,0
305,247,303,309,0
306,231,303,308,0
306,226,303,307,0
306,239,303,306,0
308,266,303,304,0
310,293,303,300,0
313,313,303,296,0
316,323,303,293,0
318,320,303,292,0
315,305,304,292,0
310,286,303,292,0
305,273,302,294,0
303,271,302,296,0
306,270,301,299,0
311,262,302,301,0
312,255,304,302,0
307,256,305,302,0
299,268,307,301,0
292,298,309,300,0
290,337,310,301,0
292,359,311,304,0
297,357,312,307,0
301,336,312,309,0
300,303,310,309,0
296,264,308,308,0
289,235,306,306,0
284,233,306,305,0
283,257,309,308,0
289,295,313,312,0
299,331,315,317,0
314,355,318,320,0
330,371,319,321,0
344,379,319,319,0
347,383,317,315,0
343,384,315,311,0
337,382,313,307,0
333,377,311,304,0
330,367,309,303,0
329,355,308,301,0
326,343,308,301,0
317,332,308,302,0
307,323,307,303,0
301,318,307,305,0
298,316,307,306,0
298,316,307,308,0
302,317,307,309,0
309,316,307,311,0
315,315,306,314,0
317,313,306,319,0
318,312,306,323,0
319,311,306,327,0
321,310,306,329,0
323,307,306,328,0
326,303,306,324,0
326,302,307,321,0
320,304,307,319,0
312,304,308,318,0
307,300,309,317,0
305,293,310,315,0
305,294,310,314,0
308,298,312,314,0
309,301,313,315,0
307,303,313,316,0
304,304,313,317,0
298,307,312,317,0
292,309,310,313,0
287,311,307,307,0
286,315,304,300,0
287,320,302,293,0
291,323,300,287,0
297,318,299,282,0
302,303,299,281,0
307,287,302,282,0
311,278,304,284,0
313,280,307,286,0
315,288,309,287,0
315,297,310,288,0
314,311,312,289,0
313,326,313,291,0
312,338,315,294,0
311,346,315,297,0
309,352,316,299,0
308,357,316,301,0
307,360,316,302,0
307,358,315,303,0
307,350,314,303,0
307,334,312,302,0
307,320,311,302,0
308,313,310,304,0
310,315,311,308,0
313,317,312,313,0
315,315,314,318,0
316,309,317,321,0
316,299,318,322,0
315,288,319,319,0
314,277,318,313,0
313,274,318,308,0
313,276,318,304,0
315,286,317,303,0
318,301,316,303,0
319,314,315,305,0
320,328,314,307,0
318,341,313,310,0
318,350,311,313,0
318,354,310,316,0
318,351,309,319,0
313,341,307,318,0
307,323,305,314,0
301,298,302,309,0
298,272,301,304,0
297,255,301,300,0
299,260,302,298,0
303,283,305,299,0
307,305,307,301,0
311,316,309,306,0
312,317,310,311,0
313,313,312,317,0
313,309,313,323,0
313,305,313,331,0
311,303,313,337,0
309,304,313,342,0
307,306,313,343,0
305,311,314,341,0
305,317,314,337,0
304,321,314,334,0
304,320,313,329,0
306,313,310,324,0
305,301,307,316,0
304,287,304,308,0
301,276,302,298,0
300,276,301,289,0
302,291,301,282,0
306,314,302,278,0
312,335,303,277,0
316,347,305,278,0
318,350,306,281,0
318,347,308,283,0
315,343,308,286,0
312,335,308,288,0
308,324,307,290,0
305,309,306,291,0
304,295,306,293,0
305,285,306,294,0
309,279,307,297,0
313,281,308,301,0
316,292,309,304,0
312,310,310,308,0
305,328,311,310,0
299,341,311,310,0
296,348,311,312,0
294,348,312,313,0
295,340,312,315,0
296,330,312,317,0
299,320,313,320,0
303,314,314,322,0
307,311,316,323,0
309,311,316,322,0
311,311,316,321,0
311,310,315,320,0
310,308,313,318,0
307,305,312,316,0
304,298,310,315,0
302,290,308,313,0
301,286,306,310,0
302,290,306,306,0
303,296,305,301,0
302,296,305,295,0
301,291,304,291,0
301,285,304,289,0
299,279,302,288,0
297,279,301,289,0
294,288,300,294,0
293,312,300,299,0
295,337,300,305,0
299,352,301,311,0
301,352,303,316,0
303,341,304,319,0
303,322,306,321,0
303,307,307,321,0
304,302,308,321,0
304,307,310,321,0
304,318,310,320,0
303,331,310,315,0
302,341,308,309,0
302,345,306,306,0
303,344,305,306,0
305,341,305,308,0
309,337,306,311,0
312,330,307,313,0
310,319,306,313,0
305,307,305,312,0
300,292,304,309,0
298,278,302,304,0
296,266,302,298,0
295,260,301,292,0
295,266,302,287,0
297,286,303,286,0
298,313,304,288,0
301,336,306,292,0
302,348,308,296,0
303,352,308,298,0
303,350,308,299,0
301,347,308,301,0
299,345,308,306,0
298,343,308,313,0
295,339,307,322,0
293,330,306,328,0
293,316,305,333,0
295,300,304,334,0
297,287,305,332,0
299,284,305,327,0
299,290,305,320,0
299,303,305,314,0
299,319,305,309,0
301,334,305,307,0
305,343,306,306,0
308,344,307,305,0
308,338,307,304,0
308,331,307,303,0
306,324,306,303,0
304,320,306,304,0
302,318,306,306,0
302,313,305,308,0
300,301,304,308,0
299,284,303,307,0
299,271,302,305,0
300,266,301,305,0
301,276,300,305,0
304,296,300,306,0
305,320,300,305,0
304,340,300,303,0
303,354,300,302,0
301,362,300,302,0
300,363,300,303,0
299,360,300,305,0
301,352,301,309,0
306,342,302,311,0
311,334,303,313,0
318,331,304,314,0
325,330,305,313,0
330,329,305,312,0
330,329,304,312,0
320,329,304,312,0
308,329,304,311,0
299,327,303,309,0
294,325,303,307,0
292,322,302,305,0
292,319,301,303,0
293,315,300,301,0
295,311,299,300,0
298,306,298,300,0
302,301,299,301,0
306,299,300,305,0
309,300,303,311,0
312,302,305,316,0
313,307,308,318,0
311,314,308,321,0
310,319,308,324,0
306,320,308,327,0
303,314,308,328,0
299,303,307,326,0
296,289,305,323,0
294,276,303,316,0
292,270,300,308,0
291,280,297,300,0
292,302,296,294,0
293,321,295,288,0
294,329,295,284,0
293,325,295,284,0
293,316,296,286,0
294,309,297,288,0
298,306,298,292,0
303,305,299,297,0
309,307,300,301,0
314,313,302,304,0
314,321,304,307,0
311,331,305,309,0
305,340,306,313,0
299,344,306,315,0
296,341,306,316,0
294,329,306,316,0
295,316,307,315,0
296,308,308,314,0
297,305,308,314,0
300,307,308,313,0
302,315,308,311,0
303,322,308,309,0
305,329,308,308,0
309,332,308,307,0
314,332,307,303,0
317,330,305,299,0
318,329,303,295,0
318,329,302,291,0
317,329,302,290,0
315,329,302,290,0
313,327,303,291,0
309,327,303,293,0
306,326,303,295,0
304,322,303,296,0
302,314,302,296,0
301,301,301,295,0
302,285,301,295,0
302,268,301,296,0
301,255,301,297,0
300,255,302,300,0
300,269,303,303,0
302,291,303,306,0
303,312,303,308,0
305,329,303,308,0
307,341,304,308,0
308,348,305,307,0
310,351,306,306,0
310,351,307,305,0
311,348,307,305,0
310,342,308,305,0
308,334,308,305,0
306,328,309,307,0
304,321,309,308,0
301,314,308,311,0
297,308,307,314,0
292,306,307,317,0
289,308,307,320,0
289,311,307,321,0
294,315,308,322,0
304,319,309,322,0
316,321,309,320,0
326,316,307,318,0
327,303,306,315,0
316,285,304,313,0
302,267,304,309,0
290,255,303,304,0
282,255,302,298,0
279,264,302,293,0
280,282,304,291,0
285,307,306,291,0
291,330,308,293,0
297,345,310,295,0
300,351,311,297,0
302,353,311,297,0
303,353,311,298,0
304,349,310,300,0
303,344,309,303,0
301,338,308,307,0
299,335,307,311,0
298,333,305,315,0
297,330,305,319,0
296,326,305,320,0
296,319,305,319,0
297,313,305,318,0
298,308,306,316,0
301,305,307,314,0
303,305,309,312,0
305,309,311,313,0
306,312,312,316,0
306,310,313,320,0
306,304,314,323,0
306,298,313,324,0
304,293,313,321,0
303,288,312,316,0
301,284,311,309,0
299,279,309,301,0
297,277,307,294,0
297,284,306,291,0
300,298,305,289,0
303,315,304,288,0
306,328,304,288,0
308,337,303,289,0
310,340,303,289,0
311,338,304,289,0
311,334,304,290,0
311,330,305,292,0
312,327,306,296,0
315,324,308,301,0
317,324,308,303,0
317,325,309,306,0
315,328,309,309,0
310,331,308,312,0
305,333,308,315,0
301,333,307,318,0
298,330,307,321,0
297,326,306,324,0
296,325,306,326,0
297,326,305,326,0
298,331,305,325,0
300,339,305,320,0
301,346,304,315,0
301,347,304,310,0
300,343,304,307,0
299,335,304,306,0
298,325,304,308,0
299,315,305,311,0
299,305,306,313,0
300,299,307,312,0
299,301,309,310,0
300,308,309,309,0
302,313,310,309,0
306,320,309,308,0
311,326,308,309,0
312,327,308,312,0
312,320,308,315,0
311,307,309,318,0
312,293,310,319,0
311,276,310,316,0
310,260,309,311,0
308,250,308,306,0
306,246,307,300,0
303,250,306,295,0
303,265,306,292,0
304,284,305,290,0
307,303,305,292,0
311,317,305,296,0
312,326,306,302,0
311,329,307,307,0
309,330,308,312,0
307,329,309,317,0
303,329,310,319,0
300,329,311,319,0
296,328,312,317,0
295,324,313,315,0
297,320,313,312,0
300,319,313,310,0
303,320,312,308,0
305,320,311,304,0
305,320,309,301,0
305,321,307,299,0
304,322,305,298,0
304,321,304,299,0
304,317,303,300,0
306,309,303,301,0
306,302,303,301,0
305,300,304,302,0
306,304,305,304,0
308,310,307,307,0
316,310,308,312,0
325,304,310,316,0
334,300,311,319,0
338,298,311,321,0
331,298,312,321,0
318,301,312,320,0
306,307,311,319,0
298,315,309,317,0
294,322,307,315,0
294,328,305,313,0
294,332,304,313,0
295,332,304,314,0
295,327,304,316,0
296,317,304,316,0
296,307,304,316,0
297,298,304,315,0
297,293,305,313,0
298,290,305,311,0
299,293,305,308,0
301,302,306,305,0
303,312,307,304,0
305,320,309,306,0
307,327,310,311,0
307,333,311,317,0
307,335,312,321,0
304,331,312,323,0
302,325,312,323,0
299,318,311,321,0
297,310,311,317,0
296,300,310,312,0
296,292,309,308,0
296,291,306,305,0
296,297,304,303,0
297,304,303,303,0
297,310,301,305,0
299,313,301,308,0
302,310,301,310,0
304,306,301,310,0
306,302,303,309,0
309,301,304,307,0
311,300,306,305,0
312,298,307,304,0
313,299,308,304,0
313,302,309,306,0
311,302,308,307,0
309,300,308,308,0
308,294,307,308,0
309,288,307,308,0
312,289,306,308,0
314,296,304,308,0
314,305,302,308,0
309,312,301,307,0
303,320,300,305,0
299,325,301,303,0
298,326,301,302,0
299,324,302,303,0
301,319,302,304,0
302,313,303,306,0
303,307,304,308,0
304,302,306,310,0
305,300,307,312,0
304,301,308,315,0
304,306,309,319,0
305,314,310,321,0
306,320,310,323,0
306,323,310,323,0
304,326,309,322,0
301,327,309,322,0
299,329,309,323,0
298,331,310,323,0
297,333,310,323,0
298,332,310,323,0
299,326,310,322,0
299,319,310,320,0
300,311,310,321,0
300,307,311,323,0
301,311,311,326,0
300,320,312,327,0
300,328,313,324,0
300,330,314,319,0
303,323,314,313,0
304,309,313,308,0
303,288,312,302,0
299,265,310,296,0
295,250,309,293,0
293,249,309,294,0
295,260,309,297,0
300,276,309,302,0
304,292,309,306,0
307,304,307,307,0
309,311,305,305,0
309,315,303,302,0
308,322,301,300,0
307,330,301,298,0
307,333,302,296,0
308,332,302,295,0
309,332,302,295,0
310,333,303,296,0
312,331,304,299,0
314,329,306,303,0
315,326,308,307,0
316,324,310,311,0
316,324,310,316,0
315,326,311,318,0
314,329,311,318,0
312,333,311,317,0
310,338,310,314,0
307,344,309,311,0
306,347,308,307,0
306,346,307,304,0
309,342,307,303,0
314,337,307,306,0
319,329,307,309,0
318,320,307,312,0
312,310,307,313,0
306,301,307,313,0
304,295,307,313,0
303,289,307,312,0
305,284,306,311,0
306,282,306,310,0
308,283,307,309,0
310,286,308,310,0
310,288,309,311,0
309,288,310,310,0
306,285,310,310,0
305,283,309,311,0
304,282,308,312,0
306,286,308,313,0
309,294,308,315,0
312,300,308,316,0
315,304,308,318,0
318,306,310,320,0
321,305,311,320,0
323,302,309,318,0
323,296,307,315,0
320,289,305,311,0
314,286,304,308,0
308,284,304,306,0
304,284,304,306,0
301,289,306,307,0
300,300,307,308,0
300,312,308,309,0
300,322,307,311,0
300,332,307,314,0
299,339,307,317,0
299,341,306,320,0
300,341,305,321,0
301,337,305,321,0
303,331,304,322,0
304,323,304,322,0
304,315,304,320,0
304,311,304,316,0
303,311,304,312,0
303,313,303,308,0
303,318,303,304,0
305,326,302,303,0
306,336,302,305,0
307,344,303,308,0
308,348,304,312,0
308,345,305,316,0
308,340,307,318,0
308,336,308,318,0
307,331,310,317,0
306,319,311,315,0
305,302,311,312,0
305,285,310,308,0
305,271,308,304,0
307,263,306,302,0
308,262,306,300,0
309,263,305,301,0
307,262,305,303,0
305,259,307,305,0
304,257,308,307,0
302,257,309,307,0
302,266,308,306,0
301,286,306,305,0
300,310,305,305,0
301,329,305,305,0
305,340,306,304,0
309,344,307,302,0
312,345,307,300,0
314,346,309,300,0
315,347,310,303,0
315,347,311,304,0
315,345,311,307,0
315,339,312,308,0
315,330,311,309,0
314,320,311,311,0
313,311,310,311,0
313,304,309,310,0
313,296,308,309,0
313,287,308,306,0
314,277,307,304,0
314,272,307,300,0
315,274,306,297,0
315,281,305,294,0
315,292,305,294,0
316,303,306,295,0
317,311,306,297,0
317,316,307,299,0
317,321,308,302,0
317,325,309,305,0
317,331,310,307,0
316,336,311,309,0
315,338,311,309,0
315,333,311,309,0
315,323,310,308,0
313,316,308,307,0
312,312,307,307,0
310,311,306,308,0
310,308,306,309,0
312,300,305,310,0
314,293,305,311,0
316,287,304,309,0
314,282,303,306,0
313,280,302,303,0
315,281,302,303,0
317,288,303,303,0
316,299,305,304,0
310,307,307,305,0
303,311,309,306,0
299,315,310,306,0
297,316,311,306,0
295,312,312,306,0
294,304,312,305,0
294,296,311,304,0
297,295,310,302,0
299,304,308,302,0
300,318,306,301,0
299,329,304,300,0
298,336,302,300,0
297,339,300,301,0
295,339,300,301,0
293,338,300,302,0
292,336,302,303,0
292,335,304,303,0
295,336,305,304,0
300,338,306,304,0
307,339,306,305,0
312,337,306,306,0
316,331,306,308,0
318,324,307,312,0
321,315,307,319,0
322,305,307,328,0
322,298,308,334,0
321,294,308,338,0
319,293,308,340,0
317,292,309,339,0
314,292,308,335,0
312,292,307,330,0
311,294,306,322,0
310,298,304,316,0
309,302,303,310,0
310,302,301,306,0
310,302,300,306,0
310,301,300,307,0
309,300,299,309,0
309,300,299,310,0
308,301,300,310,0
308,305,302,310,0
310,310,304,310,0
314,308,307,311,0
319,300,310,312,0
322,294,313,312,0
323,297,313,312,0
324,303,313,310,0
323,309,311,309,0
319,314,309,308,0
313,319,307,309,0
306,323,305,310,0
301,325,304,310,0
298,325,302,310,0
297,323,301,310,0
297,319,300,309,0
298,312,300,307,0
300,304,299,305,0
302,295,299,302,0
305,288,300,301,0
308,285,301,301,0
309,292,303,303,0
310,303,304,306,0
310,313,305,309,0
309,317,306,311,0
308,309,306,314,0
306,292,306,314,0
304,270,306,313,0
304,251,306,312,0
307,250,306,310,0
312,266,306,308,0
314,295,306,306,0
314,323,306,304,0
312,340,306,302,0
310,346,305,300,0
306,345,304,299,0
304,342,304,298,0
304,343,305,298,0
305,345,306,299,0
306,348,306,300,0
306,349,307,302,0
305,345,308,305,0
304,336,311,310,0
303,325,313,313,0
302,315,314,315,0
301,309,314,314,0
301,306,313,312,0
300,304,311,310,0
301,303,310,308,0
301,304,309,308,0
300,303,308,311,0
300,301,308,316,0
303,300,308,322,0
308,300,307,328,0
313,301,305,330,0
316,303,303,328,0
319,303,300,324,0
319,301,298,319,0
314,296,297,313,0
309,292,297,308,0
308,292,298,304,0
309,297,298,300,0
309,306,299,299,0
307,316,300,300,0
305,322,301,300,0
304,324,303,299,0
306,323,305,297,0
310,319,306,295,0
315,315,306,296,0
318,312,306,297,0
319,308,304,298,0
317,308,302,300,0
316,309,300,301,0
314,310,300,302,0
309,308,299,302,0
304,302,300,302,0
302,293,301,303,0
301,286,302,305,0
301,288,302,308,0
302,301,303,311,0
304,313,304,314,0
307,321,305,315,0
311,321,307,316,0
314,315,308,314,0
316,307,310,312,0
317,300,311,310,0
317,298,311,308,0
316,297,311,306,0
312,296,310,304,0
306,296,309,303,0
301,295,309,303,0
299,295,308,304,0
300,297,308,306,0
303,303,307,308,0
307,314,307,309,0
308,325,306,309,0
309,332,306,309,0
309,335,305,308,0
310,335,305,307,0
310,334,305,307,0
310,332,306,308,0
309,326,307,309,0
308,317,308,310,0
307,305,309,311,0
305,294,309,309,0
304,286,309,307,0
303,283,309,305,0
302,286,308,303,0
301,294,306,302,0
301,305,305,301,0
301,316,303,301,0
301,325,302,300,0
300,330,300,299,0
300,329,300,298,0
299,326,299,298,0
297,324,299,297,0
297,324,300,295,0
299,322,301,294,0
304,319,304,295,0
311,316,306,299,0
316,318,309,305,0
314,320,312,311,0
310,320,314,318,0
307,314,314,323,0
304,303,314,328,0
303,290,311,331,0
301,278,308,332,0
299,268,306,330,0
297,260,304,326,0
296,257,303,319,0
296,263,302,313,0
298,277,301,307,0
301,295,300,302,0
303,308,299,299,0
303,315,299,300,0
303,317,298,303,0
301,315,298,307,0
300,305,297,310,0
300,289,296,311,0
302,277,294,309,0
305,281,295,307,0
307,295,296,306,0
307,310,299,304,0
309,320,302,302,0
310,324,305,300,0
310,326,307,298,0
308,331,308,299,0
306,339,310,300,0
304,347,310,301,0
302,353,310,303,0
299,356,309,305,0
297,356,307,305,0
294,353,306,305,0
292,348,305,304,0
292,341,304,302,0
294,335,303,298,0
298,326,301,295,0
301,314,299,293,0
303,299,299,294,0
304,281,301,297,0
304,263,304,301,0
305,251,307,304,0
305,247,310,305,0
306,251,312,304,0
305,261,313,303,0
303,276,315,301,0
299,296,315,298,0
296,314,313,296,0
294,325,312,295,0
294,330,310,293,0
295,332,309,291,0
296,332,308,293,0
299,330,306,296,0
303,325,304,300,0
305,317,303,302,0
307,306,301,303,0
308,295,300,303,0
308,285,299,304,0
308,279,298,305,0
308,275,298,305,0
309,279,298,304,0
312,290,299,303,0
314,303,299,301,0
317,315,299,300,0
318,327,300,300,0
318,340,301,300,0
316,348,301,301,0
314,350,301,302,0
312,344,301,303,0
309,332,301,305,0
308,315,301,307,0
306,295,302,308,0
305,278,303,309,0
305,269,303,309,0
306,268,304,310,0
309,278,304,312,0
312,293,304,315,0
315,307,303,318,0
317,317,302,321,0
318,322,302,324,0
318,325,304,323,0
318,326,305,319,0
317,329,305,312,0
317,332,304,303,0
316,333,304,295,0
315,330,303,288,0
314,325,302,283,0
313,319,301,281,0
314,312,300,283,0
315,305,299,287,0
319,301,299,290,0
324,302,298,291,0
323,305,298,292,0
313,306,299,294,0
303,307,300,296,0
296,308,302,298,0
293,305,303,299,0
292,302,303,301,0
293,302,304,303,0
295,307,304,306,0
297,313,305,309,0
299,317,306,312,0
301,320,307,315,0
303,321,308,317,0
304,320,309,320,0
303,316,309,322,0
302,309,310,325,0
301,299,310,325,0
302,287,310,322,0
304,279,309,316,0
306,280,309,308,0
306,287,307,301,0
303,295,306,295,0
300,303,305,292,0
298,309,305,290,0
297,310,305,291,0
296,303,306,291,0
295,288,307,292,0
294,270,307,294,0
295,260,308,296,0
298,265,308,299,0
303,285,309,303,0
308,313,311,307,0
311,333,312,308,0
311,342,311,306,0
310,342,309,303,0
308,339,307,301,0
306,335,307,300,0
304,330,306,299,0
302,325,305,299,0
302,320,306,299,0
303,313,306,300,0
302,304,306,302,0
302,297,306,303,0
302,296,307,303,0
301,301,306,302,0
301,311,305,302,0
300,320,305,302,0
299,323,304,303,0
298,317,304,302,0
300,307,303,302,0
304,297,304,302,0
309,291,304,303,0
312,292,304,303,0
313,296,305,303,0
313,301,304,303,0
311,303,304,301,0
308,304,303,299,0
306,309,303,298,0
305,323,303,298,0
306,337,304,300,0
308,347,305,303,0
309,351,305,304,0
309,353,304,303,0
308,349,303,299,0
307,340,303,295,0
306,327,301,292,0
306,313,301,291,0
306,300,301,290,0
306,288,301,290,0
307,277,302,292,0
307,269,304,293,0
306,265,306,294,0
306,263,308,295,0
305,265,309,296,0
305,269,311,296,0
304,274,311,295,0
304,277,311,294,0
305,280,310,293,0
307,287,310,293,0
309,300,309,294,0
311,314,309,295,0
311,326,308,296,0
307,334,308,298,0
303,338,308,300,0
300,337,307,303,0
299,333,308,304,0
300,327,307,307,0
301,320,307,309,0
302,315,308,313,0
303,312,308,319,0
305,309,310,326,0
309,309,312,333,0
314,315,314,337,0
322,324,315,339,0
326,326,315,338,0
320,321,315,332,0
310,314,315,325,0
301,307,315,316,0
294,304,314,307,0
291,308,312,300,0
290,316,309,295,0
291,326,307,292,0
294,334,306,291,0
297,340,306,290,0
302,340,306,288,0
305,333,306,285,0
309,322,306,284,0
311,311,307,284,0
312,302,308,286,0
313,297,309,291,0
313,295,310,297,0
313,295,311,303,0
311,296,313,308,0
309,297,315,311,0
306,295,316,312,0
304,288,318,311,0
302,280,318,307,0
300,270,318,302,0
298,261,316,296,0
296,251,313,288,0
294,242,310,280,0
293,245,307,273,0
293,260,306,271,0
294,277,305,272,0
296,292,305,275,0
301,309,306,279,0
307,325,307,284,0
313,336,307,288,0
315,341,307,292,0
314,341,307,296,0
310,337,308,301,0
305,331,308,306,0
302,325,310,311,0
301,322,311,314,0
303,319,312,316,0
305,318,312,315,0
307,317,311,312,0
309,317,310,308,0
310,317,309,305,0
310,316,308,303,0
309,317,308,301,0
308,322,307,300,0
308,323,307,299,0
308,318,307,300,0
308,308,307,299,0
307,298,306,297,0
307,289,304,295,0
306,275,304,294,0
307,267,303,295,0
308,274,304,297,0
312,290,305,301,0
315,305,307,306,0
318,314,309,309,0
321,316,310,310,0
322,316,310,310,0
320,317,309,309,0
315,321,308,309,0
310,324,308,309,0
307,328,309,309,0
305,328,309,309,0
305,326,309,309,0
305,322,309,310,0
305,318,308,310,0
305,315,307,310,0
304,309,306,309,0
301,300,305,308,0
300,292,306,308,0
300,287,308,309,0
301,288,310,311,0
304,293,312,314,0
308,299,313,317,0
312,302,313,320,0
313,303,313,322,0
312,307,313,324,0
310,313,313,325,0
307,319,312,323,0
305,320,311,322,0
303,318,309,320,0
301,314,308,316,0
299,311,306,310,0
299,310,305,303,0
299,311,304,296,0
299,313,303,290,0
300,317,303,288,0
302,324,304,287,0
305,327,304,290,0
308,323,304,297,0
310,315,305,308,0
313,309,307,320,0
315,304,309,328,0
317,298,310,330,0
319,292,311,328,0
320,288,311,322,0
321,290,310,316,0
321,297,310,309,0
321,305,310,303,0
319,313,309,296,0
316,320,307,291,0
311,325,305,287,0
305,328,304,284,0
300,328,304,283,0
297,327,304,282,0
299,322,304,282,0
302,316,303,281,0
307,308,302,281,0
311,299,302,282,0
312,292,302,284,0
311,288,303,285,0
309,287,303,287,0
308,289,305,289,0
308,292,307,292,0
308,293,309,295,0
310,288,309,299,0
312,278,311,303,0
315,268,312,305,0
317,261,313,307,0
319,263,312,309,0
314,276,312,312,0
305,306,312,315,0
300,343,311,317,0
301,371,309,316,0
306,383,306,311,0
311,378,303,306,0
312,361,301,304,0
310,343,301,303,0
308,329,302,304,0
307,324,303,306,0
307,323,304,309,0
308,323,305,311,0
310,321,306,313,0
311,318,308,315,0
312,316,309,317,0
313,315,310,319,0
313,316,311,320,0
312,319,310,321,0
311,324,308,321,0
310,329,307,320,0
309,332,306,319,0
308,330,305,317,0
308,324,305,315,0
308,317,304,311,0
308,312,303,307,0
308,307,302,303,0
308,304,301,301,0
308,303,301,300,0
308,302,301,302,0
308,303,301,307,0
308,305,302,315,0
308,306,304,325,0
307,305,306,335,0
306,302,309,344,0
304,301,311,351,0
302,300,313,353,0
302,297,314,349,0
302,287,313,338,0
303,272,312,324,0
303,258,310,310,0
304,248,308,298,0
307,243,306,290,0
309,248,306,286,0
310,264,304,284,0
309,283,302,285,0
308,301,301,288,0
306,313,300,293,0
306,323,301,297,0
305,331,301,299,0
304,334,301,299,0
304,334,300,298,0
304,331,299,295,0
303,328,299,293,0
302,329,299,292,0
300,333,299,292,0
299,337,301,294,0
302,338,303,296,0
305,337,304,298,0
308,334,305,298,0
310,330,306,300,0
312,325,306,300,0
312,320,306,301,0
310,317,307,302,0
307,317,307,302,0
303,318,308,303,0
300,319,308,304,0
298,319,307,304,0
297,319,306,305,0
297,318,305,304,0
298,316,303,304,0
298,314,303,305,0
299,313,304,307,0
300,311,305,309,0
300,307,305,311,0
298,302,306,313,0
296,294,306,314,0
294,283,307,313,0
293,275,307,310,0
292,270,306,304,0
291,271,305,298,0
292,281,304,295,0
296,295,305,296,0
301,311,305,299,0
306,325,306,303,0
310,331,307,306,0
313,329,306,308,0
316,320,305,308,0
315,308,303,308,0
312,294,302,308,0
307,281,301,307,0
304,275,300,305,0
301,276,299,305,0
300,282,299,305,0
300,291,300,306,0
300,302,301,309,0
301,312,303,312,0
301,321,306,316,0
301,329,307,319,0
300,335,308,324,0
300,338,309,328,0
300,341,309,332,0
299,342,308,335,0
299,342,307,337,0
298,341,306,337,0
297,339,305,336,0
298,336,305,335,0
298,332,304,333,0
298,328,304,331,0
299,324,302,327,0
299,319,301,320,0
300,315,299,313,0
300,313,298,306,0
302,312,298,301,0
303,312,299,299,0
304,313,301,298,0
303,313,302,300,0
302,310,304,303,0
298,304,304,306,0
294,296,305,308,0
290,283,305,307,0
287,262,305,305,0
286,235,303,300,0
288,214,303,295,0
295,209,303,293,0
300,226,303,296,0
301,258,303,299,0
303,294,302,302,0
302,321,302,301,0
301,336,301,300,0
299,341,300,297,0
299,338,301,294,0
302,334,302,291,0
307,329,303,290,0
312,326,304,290,0
315,325,305,290,0
318,325,305,291,0
318,323,305,292,0
317,321,305,292,0
315,320,305,294,0
313,318,305,297,0
311,318,304,299,0
310,319,304,303,0
309,320,304,306,0
308,321,304,310,0
307,320,304,313,0
306,319,303,316,0
306,318,303,319,0
305,316,303,320,0
304,313,303,320,0
304,310,303,319,0
305,308,302,317,0
306,307,302,314,0
307,306,301,311,0
308,304,302,310,0
309,303,303,309,0
308,303,304,309,0
306,304,305,307,0
304,304,306,305,0
302,302,306,302,0
300,297,306,299,0
298,293,305,296,0
297,289,305,296,0
298,287,305,299,0
300,288,305,303,0
302,293,305,308,0
303,297,305,311,0
304,300,305,313,0
305,300,305,313,0
309,299,305,312,0
315,298,305,312,0
319,297,304,310,0
317,296,303,309,0
313,296,304,309,0
311,296,305,308,0
309,296,307,307,0
309,296,308,305,0
308,298,309,305,0
306,302,309,304,0
304,308,308,304,0
303,317,306,305,0
302,325,305,307,0
301,330,305,309,0
300,331,304,313,0
300,331,305,318,0
301,330,305,322,0
301,326,306,325,0
302,326,306,326,0
303,326,306,325,0
304,325,306,323,0
304,321,305,319,0
304,316,304,316,0
304,312,304,312,0
305,309,304,308,0
306,309,304,306,0
307,315,305,306,0
308,325,306,307,0
307,334,306,308,0
305,339,307,308,0
303,337,306,308,0
300,329,306,308,0
299,316,305,308,0
297,300,305,306,0
295,288,305,306,0
292,284,306,305,0
294,288,306,305,0
297,297,306,305,0
302,307,305,304,0
305,315,303,304,0
308,320,301,303,0
309,320,299,303,0
310,315,299,304,0
310,308,300,306,0
310,301,300,307,0
310,296,301,308,0
310,292,303,307,0
310,290,305,306,0
310,289,308,305,0
309,291,309,306,0
310,295,310,310,0
310,299,309,318,0
310,304,308,327,0
310,309,306,334,0
307,311,305,338,0
305,312,304,337,0
302,314,304,334,0
298,317,303,328,0
295,321,303,322,0
291,324,302,315,0
289,327,302,309,0
291,330,304,304,0
295,330,305,301,0
299,325,305,299,0
302,317,306,298,0
305,307,307,298,0
307,297,306,298,0
306,286,304,299,0
305,280,303,299,0
304,281,303,299,0
304,292,305,298,0
304,304,307,299,0
305,310,308,301,0
306,310,308,304,0
308,311,307,307,0
310,313,306,309,0
313,315,305,310,0
319,318,305,309,0
325,322,304,308,0
327,324,304,306,0
321,325,305,305,0
310,324,305,305,0
300,323,306,307,0
295,322,307,311,0
292,321,308,315,0
294,320,309,317,0
299,321,310,318,0
304,322,311,320,0
306,322,312,322,0
307,320,313,322,0
306,316,312,322,0
304,312,312,320,0
302,309,312,318,0
300,310,312,316,0
299,313,312,314,0
300,314,312,313,0
300,311,312,312,0
301,302,311,311,0
302,288,311,311,0
302,270,310,309,0
301,257,309,307,0
299,260,308,305,0
299,274,308,304,0
301,296,308,304,0
304,317,308,303,0
306,332,309,301,0
307,341,310,299,0
308,342,310,297,0
309,334,311,296,0
308,321,310,295,0
306,306,309,293,0
304,293,310,293,0
303,281,310,293,0
302,272,310,293,0
302,274,310,295,0
303,283,310,298,0
303,289,310,302,0
304,295,310,307,0
305,301,310,313,0
306,308,309,318,0
307,313,309,321,0
307,316,308,323,0
308,317,308,323,0
309,317,309,322,0
311,316,309,321,0
312,316,309,319,0
313,317,310,317,0
313,318,311,314,0
312,320,312,312,0
308,322,313,310,0
303,324,313,311,0
298,324,312,314,0
295,318,312,318,0
295,309,311,320,0
297,301,311,319,0
299,295,310,315,0
303,288,309,309,0
305,283,308,302,0
307,282,307,297,0
308,284,306,295,0
310,286,306,294,0
310,286,306,293,0
311,284,306,295,0
311,284,306,297,0
312,285,307,299,0
312,289,308,303,0
313,296,309,307,0
313,306,310,311,0
314,317,312,314,0
315,327,313,317,0
316,335,314,321,0
314,340,314,324,0
310,342,314,327,0
306,341,313,326,0
302,337,312,323,0
300,331,310,318,0
299,321,308,314,0
298,309,307,310,0
299,294,306,307,0
299,284,306,307,0
300,277,306,307,0
300,275,306,309,0
302,279,306,312,0
305,287,309,317,0
310,299,312,322,0
318,309,316,327,0
326,315,318,328,0
328,318,317,328,0
324,319,315,326,0
318,320,313,322,0
312,320,311,318,0
305,321,309,317,0
295,323,308,316,0
287,323,307,317,0
282,320,307,315,0
281,314,306,312,0
282,310,305,308,0
285,308,305,305,0
289,303,306,305,0
294,299,308,305,0
298,300,310,304,0
301,304,311,302,0
304,308,312,300,0
305,309,312,297,0
306,306,312,296,0
306,301,311,296,0
307,295,309,297,0
308,291,308,298,0
310,289,307,300,0
310,290,307,301,0
310,293,306,300,0
308,298,305,299,0
307,303,304,299,0
305,306,303,300,0
304,307,303,302,0
303,307,303,304,0
302,308,303,309,0
302,306,304,316,0
303,305,304,322,0
304,304,305,327,0
304,304,305,329,0
304,302,305,328,0
304,300,305,325,0
305,298,305,321,0
306,299,305,317,0
307,300,306,314,0
308,302,307,313,0
309,306,309,314,0
311,310,311,318,0
312,318,313,322,0
313,327,314,326,0
312,334,315,328,0
311,336,314,328,0
309,334,314,328,0
308,331,314,329,0
308,328,313,331,0
308,325,312,331,0
309,322,311,331,0
310,318,311,328,0
309,311,310,322,0
306,302,308,313,0
301,292,306,305,0
298,282,305,299,0
297,275,304,296,0
297,276,304,293,0
298,285,305,291,0
299,297,307,289,0
301,308,309,288,0
303,317,311,289,0
305,322,312,290,0
305,320,313,290,0
304,315,313,292,0
303,308,313,294,0
302,302,311,294,0
301,296,309,293,0
301,293,306,292,0
300,293,305,294,0
301,295,304,298,0
301,295,304,303,0
302,297,303,308,0
303,302,302,310,0
304,308,301,312,0
305,311,301,312,0
307,309,302,313,0
309,302,303,317,0
311,295,306,322,0
312,293,309,328,0
312,298,312,336,0
313,306,316,344,0
312,314,319,350,0
312,320,321,351,0
312,325,321,348,0
314,328,318,341,0
316,328,315,332,0
318,328,312,321,0
315,328,310,311,0
309,327,309,301,0
303,325,307,291,0
298,320,305,283,0
295,314,304,276,0
294,306,303,273,0
295,295,303,271,0
297,285,302,272,0
299,280,303,275,0
302,282,303,279,0
304,289,304,282,0
306,297,304,285,0
307,301,306,288,0
308,302,307,289,0
308,301,310,290,0
307,297,313,290,0
305,296,317,291,0
303,298,318,294,0
300,305,316,301,0
297,312,312,310,0
294,317,307,319,0
294,320,304,326,0
296,319,302,330,0
297,315,301,332,0
298,309,301,331,0
300,299,301,330,0
304,285,300,327,0
306,274,300,325,0
308,271,299,322,0
308,275,298,318,0
308,280,297,313,0
308,289,297,309,0
308,300,298,308,0
309,304,299,309,0
310,303,301,311,0
309,300,302,311,0
309,301,302,309,0
309,309,303,308,0
309,320,303,308,0
309,331,303,309,0
309,337,304,309,0
308,338,304,307,0
308,337,304,305,0
307,332,304,304,0
308,326,303,304,0
309,321,303,305,0
312,316,302,306,0
314,312,303,307,0
315,308,303,308,0
314,306,303,309,0
311,304,304,311,0
308,305,305,311,0
306,309,307,311,0
305,315,309,309,0
304,319,311,307,0
304,320,312,303,0
305,315,311,300,0
304,307,308,297,0
303,300,307,295,0
303,298,305,294,0
303,302,305,294,0
304,307,305,296,0
303,310,306,297,0
300,311,306,299,0
296,311,305,301,0
293,313,304,301,0
293,315,304,300,0
299,319,303,298,0
307,323,303,297,0
316,322,303,296,0
322,317,302,296,0
320,307,303,297,0
314,295,303,299,0
308,286,304,300,0
305,282,306,301,0
305,280,307,302,0
306,282,307,304,0
307,292,307,305,0
306,303,306,305,0
304,311,306,305,0
302,315,306,304,0
300,315,306,304,0
299,309,306,304,0
297,303,306,304,0
297,297,306,305,0
298,294,306,306,0
299,291,306,308,0
302,288,306,310,0
304,284,306,312,0
306,281,307,313,0
307,281,308,315,0
308,288,310,320,0
307,300,311,326,0
306,314,312,330,0
304,325,311,332,0
304,330,310,329,0
304,330,309,324,0
304,326,307,317,0
304,319,305,310,0
303,313,304,305,0
302,310,304,302,0
302,310,304,301,0
303,314,304,301,0
304,324,305,302,0
305,337,305,303,0
306,347,305,304,0
308,350,305,307,0
310,346,306,310,0
311,340,306,313,0
313,334,307,315,0
314,327,309,315,0
314,322,310,314,0
315,320,311,311,0
314,316,312,307,0
311,314,313,304,0
306,313,313,303,0
301,314,313,304,0
297,313,312,305,0
296,308,312,305,0
298,304,312,303,0
301,303,311,300,0
305,303,311,298,0
309,306,312,297,0
312,311,313,298,0
314,313,313,300,0
313,311,311,304,0
311,307,309,309,0
310,303,308,313,0
310,301,307,317,0
309,301,306,319,0
309,300,306,320,0
310,298,305,319,0
309,293,304,316,0
308,287,303,312,0
307,277,301,306,0
306,271,299,302,0
306,270,298,300,0
305,275,297,298,0
305,286,296,296,0
304,304,296,294,0
303,320,295,292,0
304,331,295,290,0
304,338,296,289,0
305,341,297,291,0
305,340,299,293,0
305,338,299,294,0
305,335,299,297,0
305,333,299,300,0
305,330,300,304,0
306,324,302,308,0
307,316,304,312,0
307,308,307,316,0
307,301,309,320,0
306,297,311,325,0
304,296,312,327,0
303,301,311,328,0
302,311,309,325,0
303,323,307,322,0
305,333,306,318,0
307,336,305,315,0
309,336,303,312,0
311,337,303,310,0
311,338,302,308,0
310,334,302,308,0
309,328,302,309,0
308,319,301,309,0
310,310,300,308,0
313,301,300,306,0
315,292,300,303,0
312,283,301,299,0
305,271,302,298,0
297,259,304,298,0
292,250,307,299,0
291,247,308,300,0
292,251,310,299,0
296,263,310,298,0
300,281,311,297,0
304,300,310,297,0
307,316,310,298,0
309,329,309,299,0
310,335,309,300,0
310,336,307,300,0
310,334,306,300,0
309,331,305,299,0
309,330,304,300,0
309,329,304,301,0
309,328,303,302,0
308,325,303,302,0
309,322,303,303,0
309,318,304,305,0
310,314,305,308,0
310,311,307,312,0
310,308,309,317,0
311,305,311,320,0
312,304,314,321,0
312,305,316,322,0
310,309,317,321,0
309,316,316,319,0
306,323,314,315,0
301,326,311,310,0
297,326,308,305,0
293,324,306,300,0
293,321,305,297,0
294,315,304,296,0
296,307,304,297,0
298,305,303,300,0
301,309,303,304,0
304,312,303,307,0
306,314,302,309,0
308,318,302,310,0
311,322,303,309,0
313,326,305,308,0
314,327,306,306,0
315,325,306,303,0
317,320,306,299,0
317,312,306,295,0
318,303,304,291,0
315,295,303,291,0
306,291,303,292,0
298,292,303,294,0
295,295,303,296,0
295,296,303,299,0
296,299,303,303,0
297,303,303,307,0
298,307,304,311,0
299,309,304,314,0
300,308,305,316,0
301,306,306,318,0
301,303,307,319,0
302,300,307,320,0
303,295,308,321,0
303,289,308,321,0
303,287,309,320,0
301,289,309,318,0
298,295,308,316,0
296,302,307,316,0
297,312,306,317,0
300,323,306,317,0
305,331,307,313,0
309,333,307,307,0
311,333,306,299,0
312,331,306,294,0
313,327,305,290,0
311,320,305,288,0
307,314,305,287,0
302,306,305,287,0
298,301,305,287,0
296,303,305,289,0
295,310,306,293,0
295,319,307,297,0
295,321,309,302,0
295,319,311,305,0
296,313,313,307,0
298,308,315,307,0
301,302,317,307,0
304,297,319,306,0
305,296,319,304,0
306,300,320,303,0
308,307,320,304,0
309,313,318,305,0
309,320,315,307,0
309,325,313,310,0
307,330,311,313,0
306,334,309,316,0
306,336,308,317,0
305,336,306,317,0
305,333,305,316,0
305,329,305,316,0
306,322,306,315,0
307,314,308,313,0
309,307,310,311,0
309,301,312,310,0
309,295,313,309,0
308,290,312,306,0
307,290,311,303,0
306,296,309,300,0
305,302,306,297,0
305,308,303,294,0
304,313,301,293,0
303,314,300,292,0
303,315,301,294,0
303,319,301,299,0
305,322,302,306,0
306,325,302,312,0
306,327,301,315,0
304,328,301,318,0
303,327,300,319,0
302,322,300,320,0
302,315,301,321,0
302,306,303,322,0
303,298,305,323,0
305,292,307,323,0
305,290,308,322,0
305,291,309,320,0
303,292,308,316,0
300,291,307,311,0
297,292,305,305,0
295,295,302,298,0
295,301,301,292,0
295,309,299,288,0
295,318,298,288,0
296,329,298,292,0
296,334,298,298,0
297,335,300,302,0
298,335,300,302,0
299,335,301,300,0
300,331,301,297,0
303,326,302,295,0
305,319,303,294,0
307,312,304,293,0
309,306,307,295,0
311,300,309,298,0
312,291,310,303,0
311,281,311,309,0
308,271,311,313,0
304,264,310,317,0
301,260,309,319,0
298,259,309,320,0
299,268,308,319,0
301,288,309,317,0
305,310,309,315,0
307,325,309,313,0
310,334,308,312,0
311,338,307,312,0
311,339,307,312,0
309,338,306,314,0
307,334,306,315,0
306,331,307,316,0
309,328,310,315,0
315,326,312,314,0
321,324,314,312,0
322,322,317,311,0
320,318,318,310,0
315,313,320,308,0
311,306,321,307,0
308,301,320,305,0
304,297,317,303,0
298,297,313,304,0
295,300,310,307,0
292,302,308,313,0
291,305,306,321,0
291,309,305,329,0
293,312,305,336,0
296,314,306,338,0
298,314,307,334,0
300,313,306,326,0
300,313,305,316,0
301,311,303,306,0
302,308,303,300,0
303,304,303,299,0
304,301,304,302,0
305,301,306,305,0
305,305,307,308,0
306,308,308,310,0
306,312,308,309,0
305,318,307,305,0
302,322,305,299,0
299,321,303,291,0
295,317,300,283,0
292,315,299,277,0
293,315,299,271,0
296,314,298,268,0
299,311,298,266,0
302,309,298,267,0
304,310,298,271,0
306,313,298,277,0
309,317,299,282,0
310,319,299,286,0
310,319,300,289,0
310,318,301,292,0
310,316,301,294,0
310,312,303,296,0
311,309,304,298,0
310,309,306,299,0
309,311,307,300,0
307,313,308,301,0
304,312,308,302,0
301,310,307,302,0
299,306,305,301,0
297,300,304,300,0
296,291,303,299,0
294,283,302,299,0
295,280,302,303,0
298,280,303,309,0
304,286,305,316,0
313,293,306,321,0
320,297,305,322,0
321,302,305,321,0
314,308,305,320,0
308,313,306,318,0
304,315,308,317,0
301,315,309,316,0
301,316,310,315,0
300,318,310,315,0
300,322,310,313,0
298,325,308,311,0
297,329,306,306,0
295,334,303,302,0
294,343,301,299,0
295,351,300,298,0
297,357,300,297,0
299,355,299,296,0
298,345,300,296,0
296,330,300,296,0
295,313,301,297,0
295,297,302,299,0
295,281,303,301,0
297,270,303,306,0
301,269,304,313,0
307,277,304,319,0
312,289,305,324,0
313,300,306,328,0
309,306,308,332,0
302,309,310,336,0
297,309,313,342,0
296,308,314,344,0
295,307,315,345,0
294,309,315,344,0
294,311,315,342,0
294,315,316,338,0
294,322,315,332,0
296,336,315,325,0
298,350,315,319,0
300,356,312,312,0
301,351,309,307,0
302,337,305,302,0
302,318,302,297,0
303,298,301,294,0
303,284,300,293,0
305,277,300,293,0
306,278,301,293,0
308,288,302,293,0
308,299,304,292,0
307,308,305,290,0
306,312,306,290,0
304,311,306,289,0
303,309,307,288,0
300,309,307,287,0
296,314,307,288,0
292,321,308,288,0
290,329,307,288,0
289,332,307,291,0
292,334,307,294,0
295,333,308,298,0
297,330,308,300,0
299,325,307,303,0
302,318,305,305,0
306,311,304,306,0
310,305,304,307,0
312,307,304,308,0
313,312,306,310,0
314,316,309,314,0
314,317,311,318,0
313,313,314,323,0
312,309,317,327,0
311,305,318,330,0
310,301,318,331,0
308,297,318,328,0
306,296,316,323,0
305,300,313,316,0
306,307,311,310,0
307,311,308,305,0
307,311,307,302,0
307,310,306,299,0
306,309,306,297,0
306,306,307,294,0
307,303,308,292,0
309,302,308,292,0
310,304,309,292,0
309,307,309,292,0
306,308,309,293,0
303,308,308,293,0
301,306,307,295,0
301,306,307,297,0
304,308,307,300,0
308,310,307,303,0
312,312,307,306,0
317,315,307,308,0
319,321,307,311,0
314,324,308,314,0
306,325,309,319,0
301,325,309,323,0
297,325,308,327,0
296,323,307,331,0
296,318,306,335,0
296,311,305,337,0
297,304,305,337,0
299,298,305,334,0
302,296,306,331,0
304,300,307,328,0
305,307,308,325,0
306,313,309,322,0
305,318,309,320,0
306,320,310,318,0
306,317,311,317,0
307,310,311,316,0
307,307,311,317,0
309,313,312,317,0
310,324,311,316,0
310,330,311,311,0
310,332,310,304,0
311,332,309,297,0
311,330,308,290,0
311,329,306,285,0
311,330,304,282,0
309,332,302,280,0
307,333,301,281,0
307,331,299,282,0
306,328,299,284,0
307,323,300,286,0
309,314,302,289,0
310,303,304,294,0
311,293,306,299,0
311,286,308,304,0
310,282,309,309,0
309,283,309,312,0
307,288,309,316,0
305,297,309,317,0
303,305,308,317,0
300,309,308,317,0
297,308,308,315,0
295,303,307,312,0
294,298,307,308,0
294,297,307,304,0
296,301,305,301,0
299,307,304,299,0
303,313,303,299,0
308,318,303,299,0
313,322,304,301,0
317,323,306,303,0
319,320,307,305,0
320,312,309,308,0
318,301,312,311,0
315,288,314,313,0
311,278,317,314,0
306,272,319,316,0
303,273,321,316,0
301,280,321,316,0
302,295,320,316,0
305,313,317,316,0
306,327,312,315,0
306,331,307,315,0
305,329,303,315,0
303,325,299,316,0
300,323,297,319,0
299,324,297,327,0
299,326,297,336,0
300,327,298,343,0
300,328,300,346,0
301,329,301,343,0
302,330,302,337,0
303,327,303,328,0
306,320,304,319,0
308,314,305,308,0
310,310,306,298,0
312,310,305,290,0
314,313,304,285,0
317,319,304,284,0
320,327,304,288,0
321,334,304,293,0
318,337,305,299,0
313,336,305,306,0
309,334,306,311,0
307,330,306,314,0
306,327,307,315,0
307,320,307,315,0
309,307,306,313,0
310,291,306,310,0
311,280,305,307,0
312,274,304,304,0
311,272,304,301,0
311,274,304,300,0
310,281,305,300,0
310,289,305,301,0
309,295,305,301,0
308,301,305,301,0
308,311,305,300,0
308,320,304,299,0
308,324,303,298,0
307,325,302,297,0
305,327,301,295,0
304,326,300,294,0
303,320,301,293,0
303,309,303,294,0
305,298,304,295,0
309,291,305,296,0
311,287,305,296,0
310,286,304,297,0
307,289,303,298,0
306,296,302,299,0
308,306,302,300,0
312,317,303,303,0
316,325,305,304,0
317,328,306,305,0
316,328,307,305,0
314,323,307,305,0
311,318,308,305,0
310,314,309,307,0
310,311,310,309,0
311,307,310,311,0
315,301,310,314,0
319,299,310,316,0
320,301,309,318,0
315,308,308,319,0
306,314,307,319,0
300,320,305,317,0
297,324,304,314,0
298,325,303,310,0
301,324,303,308,0
304,321,304,307,0
306,317,306,308,0
308,312,309,308,0
309,308,310,310,0
310,307,311,314,0
310,308,312,317,0
309,311,311,321,0
308,317,310,324,0
307,326,307,328,0
306,331,306,329,0
305,331,305,328,0
304,324,304,327,0
304,314,304,326,0
304,306,303,325,0
303,303,303,322,0
302,301,302,318,0
302,298,302,313,0
302,293,301,309,0
304,292,302,306,0
308,297,303,305,0
312,307,304,305,0
315,316,305,309,0
316,320,306,314,0
316,320,306,318,0
315,317,307,320,0
315,312,307,319,0
315,311,308,318,0
314,313,310,316,0
312,314,311,315,0
310,313,312,314,0
309,311,313,315,0
307,311,313,316,0
306,312,310,317,0
306,312,307,317,0
306,313,303,316,0
306,314,300,312,0
305,316,298,307,0
305,317,298,302,0
305,316,299,298,0
306,313,299,297,0
308,307,300,297,0
310,300,302,300,0
311,294,304,302,0
311,291,306,303,0
311,294,308,303,0
309,299,309,302,0
308,304,309,300,0
307,310,308,297,0
306,318,307,295,0
307,327,305,293,0
307,332,304,291,0
307,334,302,289,0
307,334,301,288,0
307,334,301,288,0
308,333,300,287,0
308,332,301,288,0
310,329,300,289,0
312,323,301,291,0
314,314,301,293,0
316,304,301,296,0
315,294,302,299,0
313,283,304,303,0
312,276,305,306,0
310,277,307,309,0
309,286,307,311,0
307,298,308,313,0
305,309,308,314,0
303,317,308,315,0
302,322,309,318,0
302,324,309,321,0
302,326,308,324,0
303,327,307,326,0
304,325,307,328,0
304,322,307,328,0
305,317,308,326,0
304,313,308,323,0
304,307,308,319,0
305,301,308,316,0
308,293,308,314,0
309,283,308,313,0
310,271,308,314,0
310,264,309,314,0
310,264,309,314,0
312,275,310,314,0
314,293,310,313,0
316,307,310,313,0
317,317,310,313,0
317,327,309,312,0
316,338,309,311,0
313,345,308,308,0
310,346,308,306,0
306,340,308,305,0
303,329,308,304,0
301,314,307,303,0
298,298,306,301,0
296,282,305,300,0
296,272,304,299,0
296,270,304,298,0
297,281,304,298,0
300,305,305,301,0
305,329,307,306,0
310,340,310,315,0
314,339,313,324,0
315,335,316,331,0
313,329,318,335,0
311,325,319,334,0
309,320,318,329,0
307,316,318,323,0
306,312,317,315,0
306,310,315,308,0
306,307,312,301,0
306,303,309,295,0
306,301,307,289,0
306,302,306,286,0
307,304,304,284,0
307,306,303,283,0
307,309,302,283,0
307,309,302,284,0
306,309,302,287,0
306,310,302,291,0
305,311,302,296,0
305,311,303,301,0
305,310,305,306,0
304,308,306,311,0
305,305,309,314,0
305,299,311,316,0
306,292,311,317,0
306,286,311,316,0
307,283,310,314,0
306,281,309,312,0
305,280,308,311,0
304,280,308,311,0
304,284,307,313,0
304,295,307,315,0
304,309,307,318,0
304,318,306,319,0
304,321,305,318,0
305,318,303,315,0
304,311,303,311,0
304,304,302,307,0
304,300,303,304,0
304,300,304,301,0
304,300,305,300,0
305,303,306,299,0
308,307,307,300,0
311,310,309,301,0
313,314,309,302,0
314,320,309,303,0
313,328,308,305,0
310,336,307,307,0
308,342,306,309,0
306,343,304,311,0
304,337,303,313,0
304,329,303,314,0
304,323,303,314,0
304,314,303,313,0
304,302,303,313,0
303,289,302,313,0
301,278,301,314,0
300,272,300,317,0
300,272,301,322,0
302,277,302,327,0
304,287,304,330,0
308,298,306,331,0
312,306,307,332,0
316,312,307,331,0
319,317,307,329,0
318,321,306,326,0
315,325,306,322,0
313,329,306,319,0
310,332,305,317,0
305,333,304,315,0
300,333,303,312,0
295,332,301,309,0
292,334,300,306,0
291,339,299,304,0
292,339,298,304,0
295,332,298,304,0
298,320,299,305,0
301,310,301,307,0
303,304,302,309,0
306,303,304,311,0
308,303,305,313,0
309,304,307,315,0
310,305,308,319,0
310,306,310,326,0
311,306,311,333,0
310,304,311,339,0
309,298,311,340,0
307,292,310,337,0
304,290,308,330,0
303,291,307,322,0
302,294,306,315,0
302,299,306,309,0
302,307,306,306,0
302,315,306,303,0
302,321,306,303,0
302,322,306,302,0
303,319,306,302,0
304,313,305,300,0
304,304,304,299,0
304,296,303,298,0
305,293,302,298,0
305,298,301,299,0
305,310,301,301,0
305,320,301,302,0
304,323,301,302,0
302,324,301,301,0
301,326,300,299,0
299,323,299,296,0
298,313,298,292,0
297,304,298,288,0
298,302,298,285,0
299,305,298,282,0
302,310,299,282,0
304,313,300,282,0
307,315,301,284,0
310,313,301,287,0
311,307,301,291,0
311,301,301,294,0
311,297,301,298,0
310,294,301,302,0
310,295,302,305,0
310,297,304,308,0
310,300,306,310,0
308,302,307,311,0
306,304,309,311,0
304,309,309,311,0
303,314,309,311,0
304,320,309,310,0
306,324,309,310,0
308,324,309,308,0
308,324,308,306,0
307,326,307,304,0
306,328,306,304,0
305,330,305,305,0
305,331,304,307,0
304,331,304,309,0
302,326,303,310,0
301,316,303,308,0
300,302,301,303,0
300,285,301,298,0
304,264,301,296,0
311,246,303,296,0
318,244,305,300,0
320,258,307,307,0
318,280,307,313,0
314,301,307,317,0
312,315,306,320,0
311,323,305,320,0
312,325,304,319,0
313,324,303,317,0
311,322,302,314,0
306,322,302,312,0
300,324,302,310,0
294,326,301,309,0
290,326,300,309,0
289,323,300,310,0
292,316,300,311,0
297,309,301,312,0
303,305,301,312,0
308,303,300,312,0
310,303,300,311,0
312,302,300,311,0
313,300,301,312,0
314,301,302,313,0
314,304,303,315,0
314,308,302,316,0
313,310,302,318,0
311,311,301,317,0
309,308,300,317,0
307,304,299,316,0
306,303,299,316,0
305,305,300,315,0
306,307,301,313,0
306,306,301,313,0
306,300,301,315,0
307,293,302,319,0
308,288,302,322,0
308,284,303,325,0
308,282,303,324,0
307,284,304,322,0
306,290,303,317,0
306,300,303,311,0
307,310,303,304,0
309,318,304,299,0
310,321,305,296,0
311,322,306,293,0
311,324,306,291,0
311,324,306,289,0
311,323,305,289,0
310,320,302,289,0
307,315,300,291,0
305,310,298,293,0
304,304,298,295,0
304,298,298,297,0
305,292,299,297,0
306,289,300,297,0
307,292,300,297,0
307,300,300,296,0
307,310,299,297,0
308,319,299,298,0
309,324,299,299,0
310,325,300,302,0
310,322,302,304,0
310,316,304,306,0
308,307,305,307,0
306,297,306,309,0
304,288,306,311,0
305,282,306,313,0
306,278,305,315,0
307,275,303,315,0
308,274,302,315,0
308,278,301,314,0
306,288,301,315,0
304,299,302,315,0
303,305,303,316,0
303,309,304,317,0
303,313,304,320,0
304,317,304,323,0
306,319,303,324,0
306,322,302,322,0
307,327,300,318,0
307,333,299,314,0
306,338,298,309,0
305,337,298,305,0
305,329,298,302,0
305,316,298,300,0
306,306,299,299,0
307,301,299,299,0
309,299,299,301,0
310,300,299,303,0
311,303,300,304,0
312,306,300,306,0
312,308,300,308,0
312,306,300,309,0
311,301,300,311,0
310,295,299,313,0
309,292,299,316,0
308,290,300,318,0
308,290,303,322,0
309,288,305,327,0
311,286,307,331,0
312,291,309,334,0
313,303,310,335,0
314,320,311,333,0
314,333,311,329,0
314,340,310,323,0
313,342,308,315,0
311,341,307,308,0
309,339,305,302,0
308,336,304,297,0
307,333,303,293,0
308,327,302,291,0
308,320,301,290,0
306,311,301,290,0
304,302,302,291,0
302,294,302,294,0
304,287,303,299,0
308,280,304,305,0
312,277,304,310,0
314,279,306,314,0
316,287,307,315,0
317,295,308,314,0
316,302,308,311,0
315,307,307,308,0
313,311,306,304,0
310,310,305,300,0
307,305,304,296,0
305,297,303,293,0
304,291,302,291,0
303,293,302,291,0
304,299,302,293,0
305,302,302,295,0
306,303,303,297,0
308,304,303,299,0
310,306,304,300,0
311,309,305,300,0
311,312,304,300,0
311,316,303,300,0
311,319,303,300,0
312,322,302,301,0
312,325,303,304,0
312,327,304,307,0
313,327,306,311,0
312,325,307,313,0
311,319,309,314,0
309,312,310,315,0
306,304,311,315,0
304,296,311,315,0
303,290,310,313,0
302,288,309,307,0
301,294,306,302,0
301,307,305,299,0
303,320,303,296,0
305,327,302,296,0
307,329,302,295,0
311,328,302,296,0
314,325,303,297,0
317,320,305,301,0
319,315,307,306,0
318,309,309,313,0
314,304,311,320,0
309,300,313,326,0
305,297,315,329,0
301,295,315,330,0
299,296,315,328,0
299,302,313,324,0
299,312,311,321,0
300,323,309,317,0
302,332,307,313,0
303,333,306,310,0
303,328,306,307,0
304,319,305,305,0
303,311,304,300,0
303,305,304,295,0
302,302,302,291,0
301,300,302,288,0
301,298,301,287,0
302,296,300,290,0
304,296,301,294,0
307,301,301,299,0
311,307,303,302,0
313,316,304,305,0
314,323,306,306,0
315,329,307,306,0
314,331,307,304,0
313,331,306,302,0
311,330,305,299,0
308,327,304,296,0
306,323,303,293,0
303,318,302,291,0
302,315,302,291,0
301,312,302,292,0
302,310,302,296,0
305,310,302,302,0
309,310,303,307,0
311,310,302,311,0
313,309,301,311,0
312,308,302,309,0
308,310,303,307,0
305,314,305,305,0
304,312,308,301,0
303,307,310,299,0
303,303,311,297,0
303,301,313,297,0
304,298,313,296,0
304,296,313,296,0
304,294,311,295,0
304,291,309,295,0
304,289,307,294,0
304,291,306,292,0
304,295,304,291,0
304,301,303,291,0
304,304,302,291,0
302,303,301,292,0
301,300,300,294,0
300,295,300,296,0
301,289,300,298,0
301,283,302,300,0
300,278,302,302,0
300,277,304,306,0
300,284,306,311,0
303,296,308,315,0
307,308,309,317,0
311,320,309,317,0
312,328,308,317,0
313,330,307,317,0
312,330,307,317,0
310,329,306,317,0
308,328,306,318,0
307,327,305,318,0
305,330,304,318,0
304,335,303,317,0
302,337,303,317,0
301,334,303,315,0
301,326,302,313,0
303,314,302,312,0
306,304,302,312,0
309,302,302,311,0
311,307,303,308,0
312,314,303,306,0
312,317,305,306,0
312,312,307,306,0
310,298,310,306,0
307,278,311,305,0
304,261,310,303,0
303,251,310,301,0
303,256,310,301,0
305,273,310,301,0
307,293,310,302,0
310,309,309,303,0
310,319,308,304,0
309,324,306,304,0
308,325,304,302,0
306,323,302,300,0
306,318,300,298,0
306,312,299,296,0
307,305,299,296,0
308,300,299,297,0
310,295,299,299,0
310,290,301,301,0
308,287,302,304,0
304,289,305,308,0
301,302,307,312,0
300,320,309,315,0
301,335,310,316,0
302,342,311,316,0
304,343,311,315,0
306,338,310,312,0
307,332,309,308,0
306,326,308,304,0
305,320,306,301,0
305,315,305,297,0
304,310,304,295,0
304,307,303,294,0
303,304,303,295,0
303,302,303,298,0
304,304,303,301,0
304,308,304,305,0
305,312,304,308,0
305,319,305,310,0
305,325,305,312,0
306,329,306,312,0
306,328,307,311,0
306,324,308,309,0
304,321,308,308,0
303,321,307,309,0
302,321,307,312,0
302,314,306,314,0
301,303,305,315,0
300,294,304,312,0
299,285,303,309,0
298,280,303,305,0
299,281,303,305,0
301,286,304,306,0
302,293,304,307,0
303,302,305,309,0
305,307,305,311,0
305,310,306,311,0
307,313,306,312,0
311,316,307,313,0
315,318,308,314,0
320,316,309,314,0
323,312,310,312,0
321,308,310,310,0
315,307,310,306,0
308,309,310,303,0
303,314,310,301,0
300,323,310,300,0
300,330,310,301,0
300,334,310,304,0
301,331,311,305,0
302,325,311,307,0
302,320,312,308,0
302,318,312,308,0
300,317,311,307,0
298,316,311,307,0
296,314,311,308,0
295,312,312,310,0
300,307,313,313,0
308,300,314,316,0
314,289,315,319,0
317,282,315,320,0
315,282,316,320,0
310,287,316,319,0
306,296,315,317,0
302,303,314,315,0
300,307,313,313,0
299,309,311,312,0
298,309,310,311,0
298,311,308,309,0
298,315,306,306,0
299,322,305,304,0
299,329,305,302,0
300,334,304,302,0
300,338,304,301,0
299,334,303,300,0
298,320,302,299,0
299,305,303,300,0
302,296,304,302,0
306,299,305,304,0
310,306,307,306,0
312,313,308,306,0
312,317,308,305,0
311,316,308,302,0
308,309,308,299,0
305,299,307,299,0
302,288,307,301,0
299,278,308,303,0
295,276,307,304,0
293,279,307,304,0
294,290,306,303,0
295,302,305,303,0
297,314,305,305,0
300,323,306,307,0
302,329,307,309,0
303,333,308,313,0
305,334,310,319,0
307,333,310,324,0
310,330,311,328,0
311,327,311,330,0
312,325,311,331,0
312,324,310,331,0
311,324,310,329,0
310,325,310,325,0
307,327,309,320,0
304,331,308,316,0
302,333,307,313,0
303,331,306,309,0
304,327,305,306,0
306,321,303,303,0
309,315,302,301,0
308,306,302,299,0
305,292,303,297,0
301,282,303,293,0
299,278,303,289,0
299,275,303,287,0
299,272,303,285,0
301,270,303,285,0
301,269,303,286,0
302,270,303,289,0
304,278,305,294,0
307,290,307,299,0
310,303,309,304,0
312,316,309,307,0
312,327,309,308,0
311,334,308,307,0
310,337,308,305,0
309,337,307,303,0
309,336,306,301,0
310,335,305,300,0
311,334,305,298,0
309,333,304,298,0
304,332,304,298,0
298,330,304,297,0
294,326,303,297,0
294,320,302,297,0
296,310,301,298,0
299,298,299,298,0
300,290,300,301,0
302,289,301,304,0
303,292,303,306,0
303,299,305,308,0
303,306,307,308,0
303,314,308,308,0
304,320,309,309,0
305,321,309,309,0
305,319,308,310,0
304,312,307,311,0
302,303,305,312,0
300,297,305,313,0
299,296,305,313,0
300,299,305,311,0
300,304,304,309,0
299,309,302,306,0
298,314,300,303,0
298,321,299,302,0
300,325,298,303,0
302,325,298,305,0
303,323,298,307,0
304,321,299,309,0
305,319,300,312,0
305,318,301,315,0
305,319,303,318,0
304,320,303,321,0
302,322,303,322,0
301,324,303,323,0
300,327,304,324,0
299,329,304,323,0
300,332,304,319,0
300,334,304,311,0
300,331,303,304,0
299,327,302,299,0
299,321,301,297,0
299,316,301,295,0
300,312,300,294,0
301,308,300,294,0
303,306,300,296,0
306,306,300,299,0
308,308,301,302,0
309,312,303,303,0
310,318,304,304,0
309,323,306,305,0
307,324,306,308,0
305,323,306,309,0
303,317,306,310,0
302,308,306,309,0
302,298,306,306,0
302,290,305,303,0
302,287,304,300,0
303,289,304,297,0
303,295,304,295,0
304,301,304,295,0
305,306,303,295,0
306,308,303,296,0
306,307,303,296,0
307,304,303,297,0
308,302,303,298,0
308,300,303,299,0
309,300,303,300,0
309,301,304,301,0
308,301,305,303,0
308,302,307,307,0
308,302,309,314,0
308,301,311,321,0
309,299,312,328,0
310,300,312,334,0
310,305,312,338,0
310,313,310,338,0
309,318,308,333,0
308,320,305,325,0
307,316,303,313,0
305,311,300,300,0
304,309,299,289,0
304,310,299,281,0
305,312,299,278,0
305,313,301,279,0
304,316,302,284,0
304,320,304,290,0
304,324,306,294,0
304,324,306,296,0
305,319,307,296,0
308,314,307,297,0
311,313,307,298,0
313,315,307,299,0
314,319,306,300,0
314,323,305,300,0
313,326,304,300,0
311,328,304,300,0
308,327,303,300,0
306,326,303,298,0
305,326,302,297,0
303,325,302,297,0
302,321,302,296,0
303,316,302,295,0
304,311,302,294,0
307,305,301,295,0
309,298,301,296,0
311,293,302,299,0
314,290,303,305,0
316,290,305,311,0
317,290,307,316,0
318,288,308,319,0
318,284,308,320,0
313,279,307,319,0
304,271,306,316,0
297,265,305,312,0
293,264,305,308,0
293,273,305,303,0
296,292,306,301,0
299,312,306,302,0
302,329,306,304,0
303,340,306,306,0
304,345,305,306,0
303,344,304,306,0
303,340,304,306,0
303,334,304,307,0
303,325,305,309,0
304,317,306,311,0
305,310,307,314,0
306,308,308,318,0
306,309,309,324,0
307,313,310,329,0
307,318,311,333,0
307,323,312,332,0
307,328,311,328,0
307,330,309,322,0
307,330,308,315,0
308,324,307,309,0
308,314,307,305,0
308,303,307,303,0
307,296,306,303,0
307,292,306,304,0
307,294,305,305,0
308,300,306,307,0
309,307,306,307,0
310,312,306,307,0
310,315,306,306,0
310,316,306,306,0
311,317,305,306,0
312,319,304,306,0
313,319,304,307,0
313,317,304,307,0
314,313,306,309,0
314,307,308,310,0
314,302,310,312,0
313,299,311,313,0
311,297,311,315,0
309,298,312,316,0
307,304,312,318,0
306,313,312,319,0
306,321,312,319,0
305,325,312,316,0
304,328,312,313,0
304,330,312,309,0
304,332,312,305,0
305,330,311,301,0
306,324,310,298,0
308,313,310,296,0
309,300,310,296,0
311,287,310,299,0
312,276,311,302,0
312,272,312,304,0
311,274,312,306,0
310,280,310,304,0
308,285,308,302,0
306,288,307,299,0
303,287,306,296,0
301,289,305,294,0
300,301,303,293,0
301,319,302,293,0
302,332,302,295,0
304,336,302,297,0
305,334,302,300,0
306,330,303,304,0
308,330,304,308,0
309,330,305,312,0
310,329,305,315,0
311,326,305,317,0
310,322,306,318,0
310,319,306,319,0
310,315,307,320,0
311,311,307,321,0
311,309,308,321,0
310,305,308,318,0
309,296,307,315,0
308,288,306,313,0
306,287,305,312,0
303,291,306,315,0
301,296,307,321,0
300,298,308,327,0
299,298,309,330,0
301,298,308,328,0
303,300,308,323,0
306,301,307,314,0
309,299,305,303,0
312,294,305,292,0
314,286,303,284,0
317,276,303,278,0
318,273,303,276,0
317,278,303,278,0
313,288,305,282,0
310,300,307,288,0
309,313,308,294,0
309,323,309,300,0
311,332,309,305,0
312,336,309,309,0
312,335,308,311,0
309,330,308,310,0
307,322,307,308,0
306,311,306,303,0
305,299,304,297,0
305,287,303,293,0
304,279,302,290,0
303,282,302,290,0
303,292,302,291,0
303,304,302,295,0
303,315,302,299,0
304,323,302,304,0
305,325,303,308,0
307,322,303,310,0
309,318,304,310,0
310,313,305,308,0
311,309,306,304,0
311,308,307,299,0
311,310,307,296,0
311,315,308,295,0
310,321,308,297,0
309,326,308,300,0
308,329,308,302,0
306,330,307,303,0
305,329,307,304,0
304,324,307,306,0
304,315,307,308,0
304,306,307,310,0
303,302,307,310,0
303,299,306,309,0
303,298,306,307,0
302,296,305,307,0
303,294,306,307,0
304,292,306,307,0
304,289,307,307,0
304,286,307,307,0
305,283,308,309,0
307,289,309,314,0
310,303,310,322,0
312,315,311,329,0
314,320,312,334,0
314,319,311,335,0
313,315,310,332,0
312,308,309,328,0
310,301,308,323,0
308,294,307,316,0
307,290,306,309,0
307,289,304,302,0
308,292,302,295,0
311,296,301,290,0
313,301,301,287,0
315,304,301,286,0
314,308,302,286,0
314,312,303,288,0
314,317,305,290,0
314,323,306,293,0
314,329,307,296,0
313,333,307,298,0
311,334,306,300,0
310,333,306,300,0
308,332,305,300,0
307,329,304,299,0
305,324,304,298,0
304,315,304,297,0
303,303,305,296,0
302,291,306,296,0
303,283,307,300,0
304,280,307,305,0
305,281,306,310,0
306,285,305,315,0
309,292,305,318,0
313,299,305,319,0
316,306,305,318,0
317,312,305,317,0
315,317,306,313,0
312,320,306,310,0
309,321,307,306,0
307,321,307,303,0
306,320,307,301,0
307,318,306,300,0
308,316,306,302,0
308,314,306,303,0
305,309,306,304,0
300,306,306,303,0
298,304,307,302,0
297,304,308,302,0
296,304,308,305,0
297,305,308,308,0
298,306,308,312,0
298,305,308,314,0
299,302,307,316,0
299,299,307,317,0
300,296,308,316,0
300,291,308,313,0
300,284,308,309,0
300,279,308,305,0
300,278,309,303,0
300,286,309,303,0
300,298,309,302,0
301,309,309,302,0
302,317,308,301,0
305,318,308,301,0
306,317,307,301,0
307,316,307,302,0
307,318,307,304,0
307,322,306,306,0
305,329,305,308,0
304,337,304,309,0
302,341,303,307,0
299,341,302,304,0
298,335,302,301,0
297,327,303,298,0
298,315,304,297,0
300,300,305,297,0
303,284,307,298,0
305,272,308,300,0
305,270,308,300,0
305,277,309,300,0
305,285,309,300,0
304,294,309,298,0
303,301,307,296,0
302,306,306,294,0
300,309,305,293,0
300,311,304,293,0
300,313,305,294,0
301,313,305,295,0
302,312,305,297,0
304,313,305,298,0
306,314,305,300,0
307,316,304,304,0
308,318,304,308,0
309,319,304,311,0
310,319,305,314,0
310,317,306,314,0
310,313,307,312,0
309,309,308,309,0
308,303,308,307,0
306,296,309,304,0
303,289,309,304,0
302,288,309,307,0
302,297,309,311,0
302,307,309,314,0
303,313,309,316,0
303,315,309,316,0
303,317,309,314,0
302,318,309,309,0
301,320,309,304,0
301,320,309,299,0
302,322,309,295,0
304,327,309,293,0
306,331,309,294,0
309,330,309,297,0
310,321,310,301,0
311,307,311,306,0
311,291,312,310,0
310,275,313,313,0
309,265,313,312,0
308,263,312,309,0
307,269,312,307,0
307,277,312,306,0
306,284,313,307,0
307,290,313,310,0
307,295,312,313,0
308,302,312,319,0
309,312,312,327,0
309,324,311,334,0
309,333,310,339,0
308,339,310,341,0
307,339,309,340,0
306,333,309,336,0
305,324,309,331,0
304,318,309,326,0
304,314,309,320,0
303,313,309,314,0
303,314,309,308,0
303,317,309,305,0
304,319,310,304,0
305,319,310,303,0
306,317,310,303,0
306,314,310,304,0
305,312,310,306,0
304,311,310,309,0
304,313,310,312,0
303,317,309,314,0
302,320,309,316,0
301,323,309,317,0
299,322,308,316,0
298,319,308,313,0
297,312,306,309,0
297,302,305,305,0
297,299,305,302,0
299,303,304,301,0
301,306,304,301,0
303,303,305,303,0
304,302,306,307,0
305,303,308,311,0
306,306,309,314,0
305,310,310,315,0
305,314,310,313,0
304,318,310,309,0
302,318,310,304,0
300,313,309,300,0
298,305,308,299,0
296,298,307,299,0
294,291,307,300,0
293,287,307,302,0
293,292,307,302,0
293,303,307,303,0
294,310,307,303,0
295,312,306,303,0
298,308,307,305,0
302,299,307,307,0
305,289,307,308,0
309,281,308,310,0
312,280,309,313,0
315,287,311,317,0
316,298,312,319,0
317,308,312,320,0
314,318,312,321,0
309,328,312,323,0
305,337,312,324,0
303,345,313,324,0
304,350,312,325,0
304,350,311,326,0
303,348,309,327,0
302,344,307,327,0
301,339,306,325,0
301,334,303,320,0
301,328,302,315,0
300,325,300,312,0
301,323,300,310,0
302,319,300,311,0
303,311,302,312,0
304,304,303,314,0
303,302,304,317,0
304,303,305,320,0
305,305,306,321,0
306,303,306,320,0
307,300,306,317,0
306,301,306,313,0
305,306,306,309,0
304,314,306,305,0
304,320,306,303,0
303,324,307,303,0
302,325,307,305,0
302,323,307,306,0
301,317,307,306,0
301,309,307,305,0
300,301,306,303,0
299,294,305,300,0
299,290,304,298,0
298,288,304,298,0
298,287,304,299,0
299,289,305,300,0
302,295,307,303,0
304,302,308,305,0
306,307,309,307,0
305,308,310,309,0
304,308,310,311,0
302,308,309,312,0
301,309,308,315,0
300,312,307,318,0
300,313,307,321,0
301,311,307,322,0
302,311,306,320,0
302,309,306,314,0
302,306,306,307,0
302,304,306,299,0
302,304,306,295,0
303,308,306,293,0
304,311,307,294,0
307,310,308,297,0
308,306,309,298,0
309,302,310,298,0
309,300,310,296,0
308,301,310,295,0
308,306,309,295,0
309,314,308,295,0
309,323,307,296,0
310,329,305,297,0
310,330,304,297,0
310,329,302,297,0
309,327,301,297,0
307,327,301,298,0
306,328,300,299,0
305,328,301,301,0
305,326,301,302,0
305,319,301,302,0
306,310,301,301,0
306,302,301,301,0
307,297,301,304,0
308,296,301,308,0
308,297,302,314,0
307,299,304,324,0
307,300,305,336,0
307,300,307,345,0
307,296,308,349,0
307,292,309,349,0
306,294,309,345,0
306,302,309,337,0
307,312,309,329,0
309,322,308,321,0
311,328,309,314,0
313,328,308,307,0
313,325,307,299,0
313,319,305,292,0
313,313,304,287,0
313,310,303,284,0
313,309,302,284,0
315,311,301,286,0
317,313,301,290,0
319,311,301,296,0
320,305,301,300,0
319,294,302,303,0
316,279,302,304,0
311,264,302,302,0
304,251,303,299,0
298,246,303,295,0
294,253,303,294,0
294,272,304,296,0
296,295,305,302,0
300,313,306,309,0
304,323,307,316,0
306,330,307,320,0
308,336,307,322,0
308,342,307,323,0
308,346,307,321,0
307,346,306,318,0
306,344,305,313,0
305,340,303,309,0
306,333,302,306,0
307,326,302,303,0
309,318,301,301,0
310,314,301,298,0
310,312,302,297,0
311,313,302,297,0
313,315,303,298,0
313,315,304,298,0
312,311,305,297,0
310,303,305,295,0
306,293,304,293,0
302,289,303,291,0
298,291,302,291,0
296,295,301,292,0
295,298,301,293,0
296,296,302,293,0
297,289,302,292,0
298,279,302,291,0
300,276,302,291,0
302,280,302,292,0
304,286,302,296,0
306,296,302,299,0
309,310,303,303,0
311,324,304,306,0
313,332,305,310,0
314,335,306,316,0
314,332,308,321,0
313,328,309,326,0
311,322,309,327,0
309,318,309,328,0
308,313,308,328,0
308,309,308,327,0
308,307,307,325,0
307,310,306,321,0
307,314,305,315,0
306,317,304,310,0
306,318,303,304,0
306,317,302,300,0
305,312,301,299,0
305,304,300,301,0
305,296,300,307,0
305,290,300,313,0
305,287,301,317,0
304,287,302,319,0
304,292,303,319,0
304,302,304,317,0
304,310,305,314,0
303,314,305,309,0
304,314,305,304,0
306,311,306,302,0
309,303,306,301,0
311,290,306,302,0
312,281,307,304,0
310,281,307,307,0
308,291,306,310,0
308,303,306,312,0
309,311,305,312,0
312,313,304,311,0
314,310,303,308,0
316,308,302,304,0
316,312,300,301,0
313,319,300,300,0
309,325,300,301,0
305,327,300,304,0
302,328,301,307,0
300,330,302,310,0
300,333,302,311,0
301,334,302,311,0
301,329,303,308,0
300,317,303,305,0
300,304,303,302,0
300,300,303,300,0
302,304,304,301,0
305,311,304,304,0
307,317,304,307,0
308,319,304,309,0
308,319,304,310,0
308,318,304,310,0
308,315,304,311,0
308,312,304,313,0
308,308,305,315,0
308,304,305,316,0
308,299,305,316,0
306,293,305,317,0
304,288,306,317,0
303,282,306,316,0
300,274,306,313,0
297,263,306,307,0
296,255,305,300,0
298,252,305,293,0
301,250,306,288,0
305,248,306,284,0
307,249,305,280,0
307,256,305,276,0
308,271,305,275,0
308,289,305,277,0
309,306,305,282,0
310,320,304,287,0
311,331,304,291,0
315,340,304,295,0
317,347,304,300,0
319,348,303,303,0
320,345,304,305,0
317,340,305,307,0
313,335,306,310,0
311,332,308,312,0
310,331,309,314,0
309,331,310,315,0
308,331,310,315,0
306,329,309,313,0
305,328,308,311,0
304,326,306,310,0
303,325,306,309,0
303,323,306,309,0
303,321,306,310,0
303,319,306,311,0
303,317,306,316,0
304,315,307,322,0
306,313,307,328,0
306,311,308,333,0
308,308,307,336,0
308,306,306,335,0
309,305,305,332,0
309,304,305,326,0
309,303,305,319,0
309,302,305,311,0
307,301,305,305,0
304,301,305,302,0
301,302,305,301,0
298,300,305,303,0
295,297,304,305,0
292,293,303,308,0
291,285,303,310,0
291,273,302,311,0
291,260,302,310,0
292,243,301,306,0
293,227,300,301,0
294,222,299,296,0
297,236,300,294,0
303,263,302,294,0
309,294,303,296,0
314,318,304,298,0
318,329,305,300,0
321,334,306,302,0
322,335,307,304,0
323,333,307,306,0
322,329,308,307,0
320,326,307,307,0
316,322,307,306,0
312,319,306,305,0
308,319,305,305,0
305,321,305,306,0
304,324,305,308,0
303,325,305,309,0
304,325,305,311,0
305,325,307,315,0
305,324,309,319,0
305,323,311,323,0
305,321,312,325,0
305,319,312,324,0
305,317,312,323,0
306,314,311,322,0
308,311,311,320,0
310,308,310,318,0
312,306,311,315,0
313,305,311,313,0
313,306,311,312,0
313,307,311,309,0
313,308,310,306,0
312,309,310,302,0
311,310,310,300,0
311,310,308,298,0
310,309,307,297,0
309,307,306,296,0
309,303,305,295,0
308,298,304,295,0
307,293,305,296,0
306,286,305,296,0
305,279,305,294,0
303,271,305,293,0
302,264,305,291,0
303,257,305,291,0
305,247,306,292,0
308,241,308,293,0
313,242,310,296,0
315,249,313,299,0
314,261,315,302,0
313,277,317,306,0
313,297,318,312,0
315,316,318,317,0
316,331,317,322,0
317,342,316,323,0
318,349,314,321,0
318,351,313,317,0
319,348,312,313,0
320,341,312,311,0
320,332,312,311,0
318,325,312,312,0
313,322,312,312,0
310,323,311,312,0
307,325,310,311,0
306,327,309,311,0
306,328,309,312,0
307,328,309,314,0
308,327,310,318,0
308,326,311,320,0
309,325,313,322,0
309,324,314,322,0
309,323,314,319,0
308,323,313,316,0
307,322,312,313,0
306,321,312,312,0
305,320,312,311,0
305,318,312,311,0
305,317,312,310,0
306,316,312,309,0
306,315,313,309,0
306,315,313,306,0
305,314,311,302,0
304,313,310,296,0
303,310,308,291,0
302,307,307,286,0
301,303,307,283,0
302,302,307,281,0
302,301,307,283,0
303,300,309,285,0
304,299,311,289,0
304,303,314,292,0
305,310,315,295,0
304,314,316,298,0
305,311,317,301,0
307,302,318,303,0
310,289,317,303,0
311,278,316,303,0
311,269,316,304,0
309,264,316,306,0
307,262,315,310,0
304,264,315,313,0
302,267,314,314,0
302,273,313,315,0
302,283,312,315,0
304,294,312,316,0
307,302,311,318,0
309,305,311,318,0
311,309,310,319,0
312,315,310,319,0
313,322,310,318,0
313,328,310,317,0
312,333,309,315,0
311,335,309,314,0
311,335,308,311,0
311,334,307,309,0
310,331,307,308,0
310,330,306,308,0
310,329,306,310,0
310,327,307,312,0
309,325,307,312,0
309,323,307,313,0
308,320,307,313,0
307,318,308,315,0
306,316,308,319,0
306,313,309,325,0
306,310,310,332,0
305,304,311,337,0
303,295,311,337,0
302,287,310,335,0
301,283,310,329,0
