336,327,436,335,1
332,328,433,332,1
327,327,430,325,1
321,325,427,315,1
312,322,424,305,1
304,317,420,293,1
296,311,417,281,1
290,305,415,271,1
285,301,412,265,1
281,299,410,265,1
280,297,410,267,1
282,297,410,272,1
285,300,410,281,1
286,305,410,293,1
284,308,409,305,1
281,309,408,317,1
283,308,409,328,1
291,303,410,335,1
299,298,414,340,1
309,296,418,341,1
316,298,419,335,1
319,299,417,319,1
319,299,413,300,1
322,299,410,285,1
329,301,408,274,1
336,302,404,269,1
341,303,398,270,1
340,304,392,274,1
331,303,387,281,1
321,300,383,288,1
314,297,380,297,1
308,297,379,306,1
301,298,381,318,1
294,300,385,330,1
291,302,390,341,1
291,305,395,350,1
294,305,397,354,1
297,305,397,354,1
298,304,397,350,1
292,304,396,342,1
281,303,393,332,1
266,301,388,320,1
249,299,383,311,1
238,297,379,304,1
240,293,377,299,1
251,289,377,293,1
262,287,376,287,1
269,287,375,283,1
273,287,374,281,1
273,287,373,278,1
269,286,371,276,1
266,285,370,275,1
272,283,373,277,1
287,284,374,280,1
306,287,374,283,1
325,292,373,286,1
335,299,373,292,1
337,305,373,298,1
334,310,371,305,1
331,313,371,313,1
329,316,374,322,1
327,318,377,330,1
326,321,378,335,1
325,325,379,338,1
322,328,379,339,1
319,328,376,336,1
314,325,369,330,1
307,319,360,322,1
303,313,354,316,1
301,308,351,311,1
301,304,351,308,1
303,301,356,307,1
304,300,362,309,1
303,302,368,314,1
299,306,373,318,1
293,312,378,321,1
288,319,380,323,1
286,325,379,325,1
287,329,376,327,1
291,333,372,329,1
296,334,365,330,1
304,333,354,329,1
308,331,342,327,1
308,329,333,327,1
306,326,329,327,1
304,323,328,324,1
300,319,327,318,1
296,315,327,309,1
294,311,326,304,1
292,309,327,303,1
291,308,328,306,1
292,309,328,310,1
295,311,328,314,1
300,312,329,316,1
304,312,330,320,1
306,312,331,322,1
303,311,330,323,1
301,310,328,321,1
298,309,326,318,1
288,308,324,315,1
271,307,321,316,1
256,310,320,317,1
252,312,319,320,1
259,315,318,325,1
272,318,317,331,1
287,319,316,335,1
302,319,314,336,1
314,317,311,335,1
326,313,310,332,1
335,310,313,330,1
336,308,315,330,1
330,306,316,331,1
319,305,314,334,1
310,305,313,338,1
305,307,314,343,1
306,310,313,345,1
308,314,313,343,1
307,319,312,337,1
302,321,313,330,1
294,324,313,322,1
285,324,309,313,1
278,322,303,305,1
275,318,299,298,1
275,315,298,292,1
277,315,298,287,1
277,316,297,282,1
279,317,296,278,1
286,318,296,276,1
299,317,297,276,1
315,317,297,279,1
327,315,296,285,1
331,311,295,293,1
327,305,295,303,1
319,300,296,313,1
311,296,297,323,1
300,293,299,328,1
288,291,303,331,1
279,291,307,328,1
273,294,309,322,1
264,301,309,315,1
257,312,307,312,1
254,325,306,309,1
260,336,304,306,1
279,343,301,303,1
304,347,296,302,1
328,348,293,302,1
344,348,292,303,1
353,347,291,303,1
355,344,291,303,1
351,341,290,302,1
344,337,291,303,1
335,334,295,307,1
326,331,298,311,1
317,329,297,315,1
306,329,295,317,1
295,329,290,318,1
286,330,285,317,1
284,331,280,315,1
286,332,275,311,1
289,334,273,307,1
291,335,274,306,1
291,337,278,308,1
291,336,283,312,1
294,333,287,317,1
301,328,291,319,1
310,322,295,320,1
316,317,297,321,1
318,311,298,320,1
314,305,295,314,1
305,297,292,303,1
297,292,289,293,1
297,291,290,287,1
306,296,293,285,1
319,303,295,289,1
329,310,297,295,1
333,316,296,302,1
327,319,295,307,1
317,320,296,312,1
306,320,297,315,1
298,320,297,318,1
292,322,298,320,1
288,324,298,322,1
282,325,297,322,1
279,324,294,322,1
281,322,289,322,1
287,319,284,322,1
296,317,280,324,1
306,315,277,325,1
318,313,277,325,1
327,311,279,325,1
331,310,283,325,1
331,311,288,327,1
326,313,291,327,1
316,314,292,328,1
300,315,293,332,1
286,317,293,336,1
284,319,292,339,1
291,320,291,337,1
302,321,291,331,1
310,322,290,323,1
315,322,291,316,1
320,322,293,313,1
324,322,295,314,1
327,322,298,316,1
328,323,300,318,1
327,323,302,319,1
322,322,303,320,1
313,320,302,321,1
300,317,299,324,1
288,312,296,328,1
278,306,293,329,1
272,300,290,326,1
272,295,288,320,1
282,293,288,313,1
297,294,289,305,1
313,298,291,298,1
321,306,294,294,1
322,316,295,293,1
318,325,295,295,1
312,333,293,297,1
308,337,291,299,1
308,338,289,299,1
312,336,288,299,1
319,332,289,301,1
324,328,291,303,1
328,325,293,305,1
329,322,295,305,1
329,320,295,304,1
328,317,294,302,1
328,314,293,300,1
329,312,293,300,1
330,310,295,301,1
329,309,297,302,1
325,309,297,301,1
323,309,296,298,1
323,311,296,295,1
324,313,297,294,1
324,314,296,293,1
325,316,295,293,1
322,316,295,295,1
312,316,296,296,1
298,316,299,299,1
286,316,304,303,1
275,317,307,309,1
270,318,309,313,1
276,319,308,317,1
292,320,305,317,1
306,320,301,315,1
315,320,297,314,1
320,318,296,314,1
320,317,298,315,1
320,316,299,317,1
318,314,300,320,1
319,314,300,321,1
321,313,300,320,1
324,313,304,319,1
327,313,309,317,1
328,313,313,313,1
326,313,315,308,1
322,312,315,303,1
315,310,314,298,1
302,308,312,294,1
285,306,309,292,1
269,304,307,290,1
259,303,305,289,1
258,304,306,292,1
272,308,310,297,1
294,312,313,303,1
314,314,317,307,1
330,316,318,310,1
344,315,318,312,1
353,312,317,313,1
354,310,317,315,1
343,307,318,316,1
322,306,318,314,1
298,305,317,313,1
283,307,318,311,1
284,310,319,312,1
297,314,322,315,1
316,317,326,319,1
331,320,329,325,1
339,323,327,330,1
340,326,325,334,1
335,329,322,335,1
327,330,321,334,1
319,330,320,330,1
314,330,321,324,1
312,329,321,319,1
313,328,321,317,1
320,326,322,315,1
329,324,322,313,1
335,322,322,311,1
340,319,323,307,1
342,317,324,301,1
342,316,325,295,1
338,315,325,289,1
331,314,324,285,1
321,313,322,283,1
311,313,321,282,1
298,314,320,285,1
286,315,322,289,1
279,317,325,294,1
278,317,328,299,1
282,317,329,303,1
287,315,328,304,1
290,314,326,303,1
287,314,324,303,1
281,314,324,303,1
279,315,326,304,1
281,315,329,306,1
288,315,332,310,1
292,315,335,314,1
293,318,337,317,1
291,320,339,318,1
291,322,339,318,1
288,323,336,317,1
283,323,331,313,1
280,322,326,307,1
278,321,323,302,1
274,322,321,298,1
275,323,320,294,1
286,325,319,292,1
302,326,319,291,1
318,327,319,293,1
330,328,321,298,1
337,329,324,302,1
340,330,326,305,1
338,329,325,306,1
335,326,322,307,1
331,322,320,309,1
328,320,319,310,1
326,317,321,311,1
323,316,323,312,1
320,316,324,314,1
316,317,325,315,1
313,319,326,316,1
308,320,326,317,1
303,319,325,316,1
299,319,324,315,1
302,320,323,314,1
308,321,324,314,1
313,321,323,312,1
313,320,322,309,1
309,318,320,308,1
303,317,319,309,1
299,316,318,309,1
299,315,318,309,1
305,315,318,308,1
313,315,318,305,1
317,313,319,299,1
318,311,319,293,1
320,309,321,288,1
324,307,322,286,1
328,306,322,287,1
329,305,322,288,1
326,305,322,288,1
322,305,321,288,1
318,306,321,288,1
315,307,323,288,1
310,308,324,289,1
304,309,325,291,1
298,310,325,295,1
295,310,326,300,1
294,310,327,306,1
295,310,327,310,1
298,308,326,311,1
301,307,325,310,1
299,305,322,308,1
293,305,320,305,1
284,306,318,302,1
274,308,315,301,1
266,311,312,301,1
264,313,313,305,1
273,315,317,311,1
291,319,322,316,1
308,324,327,321,1
321,328,330,324,1
326,331,331,327,1
325,333,330,331,1
321,333,328,334,1
316,332,325,334,1
311,329,323,331,1
308,325,320,325,1
305,321,319,319,1
303,320,320,313,1
301,318,321,305,1
301,317,322,297,1
303,315,322,289,1
305,313,322,283,1
306,312,320,280,1
302,308,319,277,1
294,303,318,276,1
284,299,317,278,1
272,294,316,281,1
261,289,314,284,1
256,284,314,287,1
261,280,314,289,1
273,278,315,291,1
287,281,317,295,1
302,291,320,300,1
316,304,322,304,1
327,315,322,308,1
336,322,321,310,1
342,328,319,312,1
345,332,316,313,1
342,334,314,313,1
337,333,311,311,1
329,330,310,309,1
320,327,310,307,1
312,322,311,306,1
309,318,313,306,1
307,314,315,307,1
309,312,317,311,1
309,312,318,315,1
307,314,319,319,1
306,316,320,321,1
305,317,320,319,1
303,316,319,314,1
300,316,318,308,1
295,316,317,299,1
289,317,315,290,1
281,317,313,281,1
270,316,311,274,1
259,312,309,270,1
254,308,306,269,1
257,304,304,271,1
264,301,304,275,1
276,297,305,280,1
293,294,308,287,1
306,291,310,292,1
310,291,311,296,1
312,292,312,301,1
316,295,313,307,1
321,300,315,314,1
324,306,316,319,1
325,313,318,321,1
326,319,318,321,1
326,323,318,320,1
327,327,317,318,1
330,329,316,315,1
333,331,313,312,1
334,332,310,310,1
334,332,308,311,1
333,331,308,313,1
330,330,310,316,1
327,328,312,319,1
323,326,313,319,1
319,322,312,316,1
317,319,310,311,1
317,315,308,306,1
319,312,307,303,1
322,310,308,301,1
325,310,310,301,1
327,312,311,300,1
328,315,313,300,1
326,318,315,300,1
322,321,316,299,1
315,323,316,297,1
304,324,314,295,1
289,324,312,291,1
276,323,308,286,1
268,320,304,282,1
269,318,300,279,1
278,317,297,279,1
292,315,295,283,1
306,311,295,290,1
318,307,296,298,1
327,304,297,306,1
332,302,299,310,1
333,300,302,313,1
331,298,304,312,1
325,296,304,310,1
318,295,302,307,1
311,297,301,304,1
305,299,300,302,1
302,302,301,299,1
300,305,302,296,1
298,307,302,296,1
296,308,301,296,1
294,309,300,297,1
294,311,299,297,1
296,314,298,296,1
298,318,297,297,1
301,324,297,297,1
301,329,298,296,1
297,331,297,293,1
286,332,296,288,1
270,331,294,282,1
258,328,292,278,1
256,324,289,277,1
263,319,287,280,1
279,317,288,285,1
298,318,290,293,1
313,319,294,301,1
320,321,296,307,1
322,322,297,312,1
322,324,296,314,1
323,324,295,314,1
324,322,295,313,1
321,320,295,311,1
315,319,293,308,1
307,318,291,306,1
299,317,289,304,1
291,317,288,304,1
289,319,287,304,1
294,322,288,305,1
304,328,288,306,1
312,334,289,306,1
317,340,288,304,1
321,344,287,301,1
326,345,286,297,1
329,339,285,293,1
327,330,285,291,1
321,320,287,291,1
314,313,289,292,1
311,310,291,293,1
311,310,295,295,1
313,310,299,297,1
312,309,303,300,1
306,307,303,302,1
295,305,297,304,1
288,303,289,306,1
288,302,283,307,1
292,302,279,307,1
295,301,276,306,1
299,303,275,306,1
305,306,276,306,1
313,309,277,307,1
321,312,279,307,1
325,313,282,307,1
327,314,284,306,1
327,313,288,306,1
324,313,291,307,1
320,314,294,310,1
315,313,295,314,1
308,312,295,316,1
301,310,294,314,1
295,307,292,309,1
296,303,289,304,1
302,298,286,297,1
309,293,283,292,1
314,289,281,288,1
315,288,280,287,1
311,287,280,285,1
304,288,280,284,1
297,291,281,284,1
293,296,281,285,1
292,300,282,288,1
290,304,282,290,1
283,306,281,293,1
275,303,279,296,1
272,298,278,299,1
274,294,278,303,1
279,292,278,306,1
286,293,279,308,1
294,297,280,310,1
303,303,282,310,1
311,309,283,310,1
319,315,283,308,1
325,319,283,306,1
327,321,282,304,1
325,320,281,302,1
321,318,280,301,1
317,316,279,302,1
313,315,279,303,1
312,315,278,305,1
315,317,279,306,1
321,318,279,307,1
328,320,278,308,1
332,320,277,306,1
331,320,276,302,1
322,319,275,297,1
308,318,274,292,1
291,320,273,288,1
278,323,272,286,1
272,326,273,287,1
273,326,275,291,1
278,325,277,295,1
284,321,278,299,1
289,318,278,301,1
294,314,277,300,1
303,310,277,299,1
313,304,276,298,1
321,297,275,297,1
325,290,275,296,1
323,287,274,294,1
321,288,273,293,1
321,291,273,292,1
322,293,273,292,1
323,294,273,292,1
324,294,273,292,1
325,293,274,293,1
326,293,275,295,1
326,295,276,298,1
323,299,276,304,1
316,304,277,313,1
304,309,277,322,1
290,314,276,328,1
275,318,276,331,1
260,321,276,329,1
249,321,276,324,1
245,320,276,317,1
247,318,276,309,1
255,316,275,301,1
267,314,274,294,1
287,314,273,292,1
306,314,274,293,1
320,314,274,297,1
328,313,275,301,1
332,312,277,305,1
333,310,278,309,1
335,308,280,311,1
339,306,282,313,1
344,306,284,314,1
350,306,286,313,1
353,306,288,311,1
353,307,289,307,1
347,307,289,301,1
336,307,288,293,1
322,306,285,286,1
308,305,282,281,1
302,305,279,279,1
304,305,277,279,1
309,306,278,280,1
312,307,278,282,1
310,308,279,284,1
307,309,280,287,1
306,308,280,288,1
308,307,281,290,1
311,306,282,291,1
312,304,283,292,1
310,304,284,295,1
305,304,285,298,1
299,305,286,302,1
293,308,288,307,1
290,311,289,311,1
288,314,290,314,1
290,317,290,315,1
294,318,290,314,1
298,318,290,313,1
301,318,289,312,1
304,317,288,311,1
307,317,289,309,1
310,316,289,307,1
310,315,289,305,1
309,313,288,303,1
307,310,287,301,1
306,307,287,299,1
306,305,286,297,1
308,304,285,297,1
313,303,285,296,1
319,304,285,296,1
323,308,287,295,1
322,313,289,293,1
318,317,289,292,1
309,319,288,290,1
293,319,285,289,1
273,317,283,288,1
251,315,281,288,1
235,314,279,288,1
237,315,279,289,1
252,319,280,292,1
271,323,282,296,1
287,326,283,301,1
304,327,284,305,1
319,328,285,307,1
327,329,286,308,1
329,328,286,308,1
325,326,286,307,1
316,323,286,307,1
305,321,285,308,1
297,320,285,310,1
289,319,285,313,1
287,318,285,317,1
293,318,286,321,1
310,318,286,325,1
328,317,286,327,1
342,317,285,326,1
349,315,285,324,1
347,313,286,319,1
339,311,286,313,1
329,310,286,306,1
319,310,285,299,1
309,312,284,292,1
302,313,284,285,1
303,314,284,280,1
308,315,284,278,1
315,315,283,278,1
321,316,283,280,1
326,317,282,283,1
330,316,282,286,1
329,315,282,289,1
324,313,282,291,1
318,311,282,292,1
316,310,284,293,1
319,310,286,294,1
321,310,287,295,1
320,310,289,295,1
313,310,289,295,1
303,310,288,294,1
292,309,286,293,1
282,307,284,293,1
279,306,284,294,1
281,306,284,296,1
288,307,285,297,1
295,309,286,299,1
301,312,287,300,1
304,315,288,301,1
305,317,289,300,1
302,318,290,298,1
297,318,290,295,1
292,317,292,294,1
292,315,292,294,1
298,314,292,296,1
309,313,292,298,1
319,314,292,299,1
323,315,292,300,1
321,316,291,299,1
315,317,290,297,1
309,319,288,294,1
306,321,287,289,1
307,323,287,286,1
309,325,287,284,1
311,324,287,285,1
310,320,287,285,1
308,314,287,286,1
305,309,288,287,1
305,307,289,290,1
307,305,289,292,1
308,303,288,296,1
308,302,288,298,1
305,300,288,298,1
302,300,288,297,1
298,300,289,296,1
293,301,289,297,1
287,302,289,300,1
284,303,289,302,1
285,304,288,304,1
291,304,287,305,1
298,303,287,307,1
305,302,287,309,1
309,303,288,311,1
311,304,289,313,1
312,306,290,317,1
313,308,292,320,1
314,311,294,323,1
315,314,295,324,1
315,318,296,322,1
314,322,295,317,1
313,324,294,310,1
311,321,294,302,1
310,316,293,295,1
309,309,293,291,1
307,305,294,287,1
302,303,295,286,1
296,304,296,286,1
289,307,297,286,1
283,311,297,285,1
279,314,297,285,1
277,317,296,285,1
279,320,295,288,1
284,321,294,293,1
293,321,295,299,1
302,320,296,305,1
308,320,297,311,1
313,321,299,317,1
315,321,300,321,1
315,321,300,323,1
313,321,299,322,1
311,321,298,320,1
305,321,296,316,1
300,321,294,311,1
292,322,293,306,1
286,322,291,299,1
287,321,290,294,1
297,320,290,288,1
308,319,291,284,1
314,315,292,279,1
317,311,293,279,1
320,307,294,282,1
323,304,294,288,1
323,304,294,293,1
321,305,294,296,1
317,306,295,297,1
313,307,295,297,1
310,308,297,297,1
307,308,298,295,1
304,307,299,293,1
302,307,299,292,1
298,306,299,291,1
294,305,299,292,1
291,305,299,294,1
288,305,300,296,1
287,306,300,300,1
288,308,300,303,1
294,311,301,306,1
301,313,301,308,1
306,315,301,312,1
308,316,302,314,1
308,316,302,315,1
307,316,302,314,1
306,315,303,312,1
304,315,304,311,1
303,313,304,313,1
301,312,304,317,1
297,310,303,320,1
290,307,301,322,1
281,305,299,322,1
274,302,298,322,1
270,300,296,320,1
269,298,295,316,1
273,297,295,310,1
282,297,295,304,1
296,297,296,297,1
310,299,296,290,1
319,303,297,283,1
322,307,297,279,1
321,311,297,277,1
319,314,297,278,1
316,317,297,281,1
314,318,298,284,1
314,318,298,288,1
315,319,299,292,1
316,317,299,294,1
316,316,300,295,1
313,315,301,296,1
309,314,301,296,1
306,313,300,296,1
302,311,300,296,1
298,310,299,296,1
294,309,298,297,1
294,309,298,299,1
295,309,297,300,1
297,310,297,301,1
300,312,297,303,1
304,315,298,305,1
307,319,299,307,1
307,321,301,308,1
305,322,301,308,1
299,322,302,308,1
292,321,301,310,1
284,319,301,312,1
278,316,300,314,1
276,311,299,317,1
280,307,297,320,1
288,304,296,323,1
296,304,295,326,1
302,303,295,328,1
307,302,294,328,1
310,300,293,327,1
310,298,293,322,1
307,297,294,316,1
302,297,294,309,1
300,300,294,303,1
300,306,295,298,1
302,313,296,297,1
302,321,297,297,1
303,328,297,298,1
306,336,298,300,1
307,342,298,300,1
308,347,298,300,1
308,349,297,300,1
306,344,296,298,1
300,335,294,297,1
291,322,294,295,1
280,309,294,295,1
265,299,293,294,1
251,291,292,296,1
244,286,290,300,1
245,281,289,305,1
254,277,288,309,1
270,274,287,313,1
297,273,288,316,1
323,275,290,317,1
341,279,292,317,1
351,284,294,315,1
353,289,295,310,1
348,293,295,306,1
340,297,296,305,1
332,299,297,306,1
327,302,297,309,1
322,304,297,312,1
320,307,298,313,1
316,308,298,312,1
311,309,297,309,1
306,308,297,305,1
301,308,296,300,1
297,308,295,296,1
293,308,294,293,1
291,308,294,291,1
295,308,294,292,1
302,308,294,292,1
307,308,296,295,1
309,308,297,299,1
310,309,299,306,1
315,311,301,314,1
322,312,303,319,1
326,312,304,321,1
327,312,305,319,1
326,312,304,316,1
321,311,302,312,1
316,311,300,307,1
311,311,298,303,1
307,311,297,299,1
303,314,296,298,1
300,319,296,297,1
299,326,296,297,1
299,332,295,298,1
299,339,295,300,1
298,345,294,302,1
297,351,293,306,1
297,357,293,310,1
298,358,293,314,1
298,356,294,317,1
298,347,294,317,1
293,334,294,315,1
288,319,294,311,1
285,305,295,306,1
284,291,296,302,1
280,280,296,297,1
272,273,295,291,1
265,270,295,285,1
265,271,294,282,1
270,274,294,281,1
279,277,295,282,1
294,281,297,285,1
309,285,297,289,1
319,289,298,293,1
319,293,298,296,1
315,297,299,299,1
309,301,299,299,1
304,304,298,298,1
303,308,298,298,1
310,311,299,298,1
319,314,300,301,1
326,317,302,305,1
329,320,303,310,1
329,323,305,313,1
327,324,305,316,1
325,320,305,317,1
324,313,305,316,1
323,306,304,313,1
322,298,302,307,1
321,290,300,302,1
320,282,299,297,1
316,275,298,293,1
313,271,296,291,1
308,269,296,289,1
306,269,295,289,1
305,272,296,292,1
305,275,297,298,1
306,278,298,306,1
305,281,299,313,1
302,284,301,319,1
299,288,302,321,1
298,292,304,321,1
300,295,304,318,1
304,298,305,313,1
309,301,304,307,1
313,302,304,303,1
315,304,304,301,1
315,305,304,300,1
312,306,305,301,1
307,306,305,301,1
303,306,305,301,1
301,306,304,300,1
299,305,304,299,1
298,305,304,299,1
298,306,304,303,1
299,306,304,308,1
300,306,304,312,1
301,306,304,314,1
301,306,304,313,1
301,306,304,312,1
302,306,304,309,1
302,306,304,305,1
302,307,304,299,1
302,307,304,292,1
301,306,304,286,1
299,306,303,282,1
294,305,302,279,1
289,304,302,280,1
288,303,302,283,1
290,304,303,289,1
293,305,304,295,1
298,306,305,300,1
301,306,305,303,1
300,305,304,304,1
296,304,303,305,1
293,303,303,305,1
291,303,304,306,1
289,303,305,306,1
287,304,306,306,1
284,305,307,304,1
280,305,307,303,1
280,306,307,300,1
286,307,307,296,1
294,307,307,293,1
300,307,306,291,1
303,307,306,289,1
303,307,306,289,1
304,307,306,290,1
306,306,305,291,1
309,304,304,293,1
309,301,304,293,1
303,299,303,292,1
292,299,301,291,1
281,300,300,291,1
276,300,300,292,1
281,299,301,295,1
295,299,304,297,1
310,298,307,299,1
321,299,309,300,1
328,300,311,300,1
330,302,312,299,1
329,303,311,298,1
328,305,309,297,1
325,306,307,295,1
320,306,306,293,1
318,307,305,291,1
316,307,305,290,1
315,306,304,288,1
313,306,303,287,1
311,305,301,287,1
310,305,301,288,1
308,305,301,289,1
303,305,302,291,1
295,306,303,295,1
286,306,305,300,1
277,307,305,306,1
274,307,305,311,1
279,306,306,315,1
287,306,307,318,1
294,306,308,320,1
298,307,309,320,1
302,308,310,319,1
306,311,311,316,1
308,313,311,312,1
307,314,311,307,1
304,314,310,304,1
299,315,309,302,1
297,315,307,303,1
295,315,305,304,1
295,315,304,304,1
297,314,303,305,1
304,314,303,305,1
312,313,304,304,1
318,312,303,303,1
319,310,304,300,1
317,309,303,299,1
310,308,304,299,1
301,307,306,299,1
292,307,307,300,1
287,307,308,303,1
288,309,308,305,1
295,310,309,305,1
303,312,310,303,1
309,313,310,301,1
312,314,309,302,1
312,314,309,307,1
310,315,308,314,1
307,315,308,321,1
303,315,308,327,1
296,315,307,330,1
289,314,306,330,1
286,314,306,328,1
285,314,305,323,1
282,314,305,315,1
278,315,304,305,1
274,314,304,297,1
274,313,304,289,1
283,312,304,284,1
294,311,304,282,1
301,310,303,281,1
304,310,303,280,1
307,310,303,280,1
310,311,303,282,1
312,312,304,283,1
312,313,304,286,1
311,313,304,287,1
310,314,303,289,1
307,313,303,289,1
301,312,302,289,1
291,311,302,288,1
280,309,301,288,1
274,308,301,287,1
272,307,300,286,1
275,306,300,285,1
285,306,300,284,1
299,305,301,284,1
312,305,303,285,1
320,306,304,286,1
324,307,305,287,1
322,307,306,289,1
315,307,306,291,1
305,308,306,292,1
295,308,307,293,1
287,309,306,293,1
281,310,305,294,1
285,311,304,296,1
296,312,303,299,1
308,312,303,302,1
315,313,303,304,1
317,314,303,307,1
316,314,303,309,1
313,315,304,312,1
310,315,303,315,1
307,314,304,316,1
304,312,303,317,1
301,310,303,317,1
298,309,302,316,1
296,308,302,315,1
298,308,302,313,1
302,308,302,312,1
305,309,303,310,1
308,310,304,309,1
312,311,306,307,1
315,312,307,305,1
316,313,307,304,1
317,313,306,303,1
315,313,306,303,1
313,313,306,305,1
309,312,306,307,1
307,312,305,311,1
306,311,305,316,1
309,310,305,320,1
312,310,305,323,1
314,309,304,325,1
314,308,304,325,1
313,307,304,325,1
311,306,305,324,1
310,305,306,323,1
312,304,307,324,1
316,303,307,326,1
318,303,306,327,1
316,303,305,324,1
313,304,304,319,1
309,304,303,310,1
300,304,301,301,1
289,304,300,293,1
282,305,299,288,1
280,305,298,286,1
284,307,297,285,1
289,307,296,286,1
296,308,296,288,1
303,308,295,291,1
307,308,295,295,1
309,307,296,298,1
311,306,296,301,1
312,305,296,303,1
312,304,297,304,1
313,304,298,304,1
313,304,300,305,1
311,305,302,307,1
309,306,304,308,1
306,307,304,309,1
305,308,303,310,1
308,309,302,311,1
310,309,301,313,1
309,310,300,315,1
304,311,299,316,1
301,311,299,316,1
300,312,300,316,1
301,312,300,313,1
302,311,301,309,1
301,309,301,304,1
301,307,301,297,1
301,305,300,292,1
300,303,299,288,1
301,301,298,285,1
302,300,299,283,1
304,299,300,282,1
304,299,301,282,1
302,299,303,284,1
300,300,305,287,1
297,302,306,290,1
295,304,307,294,1
294,306,308,296,1
295,309,308,298,1
297,312,308,299,1
298,313,308,301,1
298,315,308,305,1
298,315,309,311,1
298,315,310,317,1
299,314,312,322,1
302,313,313,324,1
306,311,313,322,1
310,309,312,318,1
313,306,310,313,1
314,304,309,308,1
314,303,308,303,1
312,302,307,297,1
309,302,307,292,1
306,301,307,288,1
305,301,307,287,1
305,302,308,288,1
305,304,309,289,1
305,306,309,289,1
304,307,308,290,1
303,307,307,291,1
302,306,307,293,1
304,307,307,296,1
306,308,307,299,1
305,309,308,304,1
301,311,308,311,1
294,311,308,319,1
289,312,308,324,1
290,312,308,327,1
296,312,308,325,1
302,312,308,321,1
307,311,309,315,1
311,310,311,309,1
313,309,312,303,1
312,308,313,298,1
310,308,314,294,1
306,309,314,292,1
303,310,315,293,1
299,312,316,295,1
294,314,316,297,1
290,315,315,298,1
285,315,315,300,1
280,315,314,301,1
275,314,314,301,1
273,313,313,298,1
274,312,313,295,1
275,311,312,292,1
275,310,310,291,1
277,308,307,292,1
284,306,306,296,1
299,304,307,302,1
315,303,309,309,1
328,303,311,316,1
334,304,313,320,1
336,306,315,323,1
334,308,315,324,1
329,308,315,324,1
325,309,315,323,1
321,309,314,321,1
318,309,314,317,1
315,309,314,311,1
312,309,313,305,1
309,309,312,300,1
308,308,311,295,1
308,307,310,292,1
310,307,309,289,1
310,307,309,288,1
309,308,309,286,1
309,307,309,285,1
309,307,309,285,1
309,307,309,287,1
310,306,310,292,1
309,305,311,296,1
307,304,312,302,1
305,303,314,306,1
301,302,315,311,1
299,302,315,316,1
297,303,315,319,1
296,304,315,319,1
296,305,313,318,1
294,306,312,317,1
290,307,310,315,1
280,307,308,312,1
269,308,308,309,1
262,308,308,306,1
261,307,307,303,1
269,306,307,300,1
283,305,306,298,1
296,303,306,297,1
307,301,306,298,1
314,299,307,300,1
318,299,308,302,1
320,298,309,306,1
320,298,310,311,1
317,297,311,315,1
314,298,312,319,1
310,299,313,320,1
303,300,314,319,1
291,302,314,316,1
284,304,313,314,1
282,307,313,312,1
284,309,313,311,1
286,310,313,310,1
290,311,313,309,1
297,312,313,310,1
306,312,313,311,1
315,312,312,311,1
320,311,311,308,1
323,309,309,303,1
325,307,307,300,1
324,304,305,300,1
320,301,304,302,1
315,298,304,305,1
309,297,304,308,1
305,297,304,309,1
304,298,304,310,1
307,300,306,310,1
312,303,310,311,1
317,305,313,312,1
319,307,315,311,1
319,308,316,309,1
316,307,316,309,1
313,307,316,309,1
309,307,316,310,1
306,307,316,311,1
302,307,315,311,1
301,307,314,310,1
302,307,313,310,1
305,306,311,311,1
307,304,309,311,1
307,303,308,313,1
307,302,308,316,1
309,302,308,317,1
312,303,309,317,1
315,304,311,315,1
318,306,313,314,1
319,308,314,314,1
318,309,314,317,1
312,310,314,322,1
303,312,314,327,1
295,313,315,331,1
289,315,317,333,1
288,316,318,332,1
289,316,319,328,1
291,315,318,322,1
294,314,318,312,1
299,312,318,304,1
304,310,318,296,1
307,308,315,290,1
307,306,312,286,1
304,304,309,282,1
298,302,306,280,1
292,300,305,279,1
286,300,305,279,1
281,300,306,280,1
278,301,307,282,1
279,303,310,285,1
282,305,313,289,1
285,307,314,293,1
289,309,315,296,1
291,312,315,297,1
293,312,315,298,1
298,313,315,297,1
305,312,315,296,1
311,311,314,295,1
315,310,313,295,1
315,309,312,294,1
314,309,311,294,1
312,307,312,294,1
314,305,313,294,1
319,303,314,295,1
324,302,315,296,1
326,301,316,297,1
326,301,316,298,1
323,302,317,300,1
318,305,317,302,1
313,308,317,305,1
308,310,317,306,1
306,311,317,307,1
305,312,316,306,1
304,312,314,306,1
305,312,312,305,1
309,311,309,302,1
313,309,307,296,1
315,307,305,291,1
313,305,305,288,1
309,304,306,286,1
303,304,307,286,1
303,304,310,287,1
311,304,312,291,1
321,305,315,296,1
329,306,317,302,1
331,307,318,306,1
326,308,319,311,1
316,308,319,315,1
306,309,318,320,1
298,310,318,323,1
295,312,319,326,1
298,313,320,327,1
302,314,321,327,1
307,315,322,325,1
311,316,322,321,1
311,316,321,315,1
309,315,318,309,1
305,314,316,302,1
301,312,314,298,1
298,310,313,295,1
296,308,310,292,1
293,306,308,288,1
290,304,306,285,1
287,303,304,283,1
285,301,302,282,1
282,300,300,283,1
277,299,298,284,1
274,298,296,286,1
279,297,297,288,1
293,297,299,290,1
308,298,301,292,1
318,300,303,294,1
321,303,304,295,1
322,305,306,297,1
323,308,309,300,1
323,311,310,303,1
321,313,312,305,1
316,314,312,306,1
310,314,314,306,1
307,314,313,306,1
309,314,312,304,1
312,314,310,302,1
314,312,307,300,1
318,310,304,300,1
324,307,302,299,1
328,305,303,300,1
329,303,305,302,1
325,303,306,304,1
321,302,308,306,1
321,302,310,305,1
320,303,311,303,1
318,304,311,301,1
315,305,310,301,1
311,308,310,302,1
308,312,310,305,1
308,315,310,307,1
311,318,311,308,1
314,319,312,307,1
317,319,312,305,1
318,318,312,302,1
318,316,312,299,1
316,314,312,297,1
317,312,312,296,1
319,310,311,294,1
321,307,308,293,1
320,305,305,292,1
320,304,302,292,1
319,303,300,293,1
318,304,300,294,1
316,304,301,296,1
313,304,303,298,1
310,304,305,301,1
309,305,306,304,1
310,307,308,307,1
311,310,309,310,1
311,313,310,313,1
311,315,311,315,1
310,316,312,316,1
308,317,313,317,1
304,317,313,316,1
298,316,313,314,1
289,314,312,311,1
280,311,310,309,1
270,308,309,307,1
264,305,307,308,1
264,303,306,309,1
271,303,306,310,1
281,305,307,309,1
294,307,308,308,1
308,309,309,307,1
318,310,311,306,1
323,311,311,306,1
326,311,310,307,1
327,311,308,307,1
325,311,306,306,1
324,311,304,304,1
324,310,303,301,1
322,309,305,297,1
318,308,308,293,1
313,307,310,290,1
309,306,309,289,1
307,304,308,289,1
308,304,306,290,1
310,303,306,291,1
313,302,306,292,1
319,302,308,293,1
328,301,311,294,1
340,300,312,296,1
353,300,313,296,1
362,300,312,296,1
360,300,310,296,1
349,300,308,297,1
334,300,306,299,1
319,301,305,302,1
307,304,306,305,1
297,306,307,307,1
287,308,307,308,1
280,308,306,309,1
273,308,304,308,1
270,307,301,305,1
275,305,300,303,1
285,303,299,302,1
295,300,301,300,1
300,297,301,297,1
299,296,300,295,1
296,295,300,294,1
294,295,301,294,1
297,297,302,295,1
303,299,304,297,1
312,303,306,298,1
319,306,309,298,1
324,309,310,297,1
324,312,310,296,1
321,314,310,294,1
318,315,310,292,1
316,315,309,290,1
313,314,308,289,1
310,312,306,289,1
311,310,304,290,1
315,309,303,292,1
317,307,303,294,1
315,305,304,297,1
307,304,305,301,1
297,302,305,305,1
287,303,306,310,1
282,302,306,312,1
289,301,307,311,1
302,299,307,311,1
315,299,308,313,1
322,300,309,316,1
323,301,309,318,1
321,302,308,318,1
318,303,306,315,1
318,304,303,310,1
321,304,300,305,1
326,304,298,300,1
333,303,297,298,1
338,302,298,296,1
340,301,298,296,1
338,300,299,296,1
333,299,300,296,1
325,299,300,296,1
319,298,300,298,1
316,297,301,301,1
316,297,302,306,1
318,298,304,312,1
316,298,306,318,1
310,300,307,323,1
306,301,308,326,1
303,304,307,325,1
299,306,305,320,1
294,306,301,311,1
291,305,298,302,1
292,305,297,296,1
296,306,297,292,1
296,305,296,289,1
293,304,294,285,1
291,303,291,282,1
288,302,289,280,1
288,301,288,279,1
293,301,288,281,1
305,302,288,284,1
318,303,291,289,1
331,304,295,294,1
342,307,298,299,1
350,308,300,304,1
353,309,302,311,1
354,309,303,317,1
350,310,304,321,1
340,311,304,324,1
328,312,304,324,1
318,313,305,322,1
312,314,306,320,1
309,316,308,317,1
306,317,308,314,1
304,318,309,309,1
302,317,309,303,1
299,315,308,295,1
297,312,305,288,1
296,309,302,283,1
296,306,297,281,1
295,303,294,279,1
296,302,293,280,1
301,302,293,281,1
304,302,292,283,1
309,302,293,286,1
314,302,295,289,1
316,301,299,293,1
315,299,304,298,1
312,298,307,304,1
308,297,308,310,1
304,298,308,314,1
304,300,308,315,1
307,303,309,314,1
310,306,312,311,1
310,307,315,306,1
308,308,317,301,1
304,309,318,295,1
297,309,318,289,1
292,308,318,286,1
294,307,316,283,1
302,306,315,282,1
314,304,314,283,1
325,303,313,286,1
334,303,313,291,1
339,302,312,295,1
341,302,313,297,1
340,302,315,299,1
338,303,317,299,1
336,304,318,300,1
332,306,319,301,1
328,308,318,301,1
325,310,317,302,1
321,312,315,303,1
317,313,314,304,1
313,314,313,306,1
310,314,311,307,1
307,314,310,307,1
304,313,309,307,1
303,312,308,306,1
306,310,307,305,1
309,309,305,301,1
312,307,304,296,1
316,305,303,291,1
322,303,302,288,1
325,302,304,288,1
328,302,304,289,1
327,303,306,290,1
323,304,308,289,1
317,305,310,288,1
310,306,310,285,1
302,306,308,281,1
296,307,306,279,1
293,307,304,277,1
293,307,303,276,1
292,307,303,276,1
287,307,304,278,1
284,306,305,281,1
284,305,307,285,1
288,305,308,289,1
293,306,309,294,1
299,307,309,298,1
304,307,310,301,1
307,308,311,305,1
309,307,311,307,1
311,306,313,308,1
314,305,315,309,1
320,305,318,308,1
326,305,319,306,1
330,305,320,303,1
332,306,319,301,1
330,306,319,299,1
326,308,319,300,1
321,308,318,303,1
317,309,317,311,1
314,310,318,321,1
314,309,318,329,1
314,308,318,333,1
315,307,318,331,1
317,307,318,327,1
318,306,317,319,1
316,304,318,311,1
312,303,317,302,1
308,301,316,293,1
302,299,315,286,1
293,298,313,279,1
283,297,311,274,1
278,297,310,272,1
279,298,310,272,1
287,301,311,274,1
300,303,313,277,1
313,305,315,280,1
321,308,316,282,1
320,309,317,285,1
311,311,318,286,1
304,311,318,288,1
306,311,319,290,1
314,310,318,291,1
319,309,319,292,1
322,308,317,294,1
322,306,316,296,1
321,306,313,299,1
320,306,310,304,1
319,306,309,309,1
317,307,310,314,1
312,308,313,317,1
307,308,315,320,1
306,308,317,321,1
305,308,318,320,1
301,308,318,317,1
297,309,318,313,1
293,309,318,307,1
290,309,317,301,1
288,308,315,296,1
288,307,314,293,1
290,307,312,291,1
297,306,311,290,1
301,307,310,290,1
301,307,310,290,1
298,308,311,289,1
291,307,311,288,1
281,305,310,287,1
274,304,309,289,1
277,303,310,293,1
290,304,311,299,1
306,305,314,306,1
320,306,317,312,1
329,307,319,318,1
334,308,320,322,1
336,309,320,322,1
337,310,320,319,1
337,311,319,315,1
337,312,317,312,1
338,312,315,311,1
337,313,314,309,1
334,313,313,307,1
327,312,313,305,1
321,311,312,305,1
315,310,312,305,1
309,309,311,304,1
301,308,310,303,1
293,306,306,301,1
286,304,301,298,1
286,301,295,296,1
288,298,291,294,1
290,296,288,292,1
295,295,289,291,1
300,295,295,292,1
306,297,303,294,1
312,300,310,297,1
315,303,315,300,1
314,307,318,302,1
312,309,318,304,1
310,311,318,305,1
308,312,317,306,1
306,313,316,306,1
306,313,315,307,1
306,313,313,307,1
305,313,311,307,1
301,313,309,307,1
294,313,308,306,1
287,312,308,305,1
284,311,307,304,1
285,310,306,305,1
291,309,305,306,1
301,308,305,305,1
311,307,305,305,1
319,307,306,304,1
324,307,305,305,1
324,308,304,306,1
319,309,303,306,1
310,309,301,305,1
299,309,300,304,1
288,309,300,302,1
282,309,300,302,1
285,309,299,304,1
292,310,299,310,1
302,310,300,316,1
311,311,303,324,1
318,311,305,328,1
320,311,307,328,1
319,310,308,325,1
317,308,308,323,1
313,306,307,322,1
311,305,307,322,1
310,304,307,323,1
311,304,306,323,1
312,304,306,321,1
313,304,305,316,1
314,305,305,308,1
315,304,305,297,1
313,304,304,287,1
310,304,302,280,1
305,304,301,276,1
303,305,300,273,1
300,306,300,272,1
294,307,301,269,1
287,306,300,268,1
279,305,299,267,1
273,304,296,266,1
273,302,294,266,1
283,301,292,268,1
297,300,292,272,1
309,300,292,279,1
317,300,293,285,1
323,301,295,291,1
327,303,297,296,1
327,304,299,298,1
320,304,301,298,1
307,305,302,296,1
290,305,302,294,1
271,305,300,292,1
254,305,296,290,1
242,305,292,287,1
238,305,289,286,1
247,306,290,285,1
265,307,293,286,1
285,307,298,288,1
300,308,303,290,1
309,308,306,292,1
316,307,308,293,1
320,307,308,294,1
323,306,308,294,1
325,305,308,291,1
326,305,306,289,1
325,304,304,287,1
323,304,303,287,1
321,304,303,287,1
318,305,304,288,1
318,306,304,289,1
319,307,305,289,1
319,309,304,290,1
317,309,303,292,1
315,310,302,294,1
317,311,303,298,1
320,312,303,301,1
320,312,303,304,1
318,311,300,306,1
314,311,296,309,1
312,311,292,310,1
311,311,293,309,1
309,310,297,308,1
306,310,301,307,1
302,309,303,305,1
299,308,303,302,1
300,307,305,300,1
304,306,311,298,1
309,305,316,297,1
314,305,318,295,1
317,304,317,294,1
315,304,315,293,1
308,304,313,292,1
300,304,312,292,1
292,304,311,294,1
285,305,313,297,1
279,306,315,299,1
276,307,317,300,1
280,309,318,301,1
289,310,317,303,1
297,311,316,307,1
300,310,314,311,1
301,308,314,315,1
300,306,314,320,1
296,304,315,327,1
293,303,318,336,1
293,302,320,346,1
298,303,322,354,1
308,305,324,358,1
319,307,326,358,1
328,309,327,352,1
328,310,328,342,1
321,311,326,328,1
310,312,323,312,1
302,312,321,299,1
298,311,320,290,1
302,310,319,286,1
309,309,320,285,1
313,307,321,285,1
313,306,322,285,1
307,305,321,284,1
299,303,319,285,1
290,301,316,288,1
279,299,313,293,1
273,298,311,299,1
279,297,312,303,1
294,298,313,306,1
308,300,314,307,1
317,304,314,304,1
320,306,314,303,1
320,310,315,302,1
321,313,318,304,1
320,316,319,305,1
319,317,319,304,1
318,317,320,301,1
319,315,320,295,1
318,313,320,289,1
314,312,319,284,1
307,310,319,283,1
297,308,319,282,1
290,306,319,283,1
287,305,318,285,1
290,304,319,288,1
295,303,319,291,1
299,303,319,294,1
301,302,318,297,1
301,302,318,299,1
302,303,319,302,1
303,305,320,306,1
305,308,321,310,1
307,311,322,314,1
308,314,324,317,1
308,317,325,319,1
304,318,326,320,1
295,319,325,318,1
280,318,322,315,1
264,317,318,310,1
258,315,312,305,1
263,313,308,302,1
277,311,307,300,1
289,310,307,299,1
296,309,308,298,1
299,308,309,296,1
303,307,310,294,1
310,305,311,291,1
318,304,312,287,1
324,304,312,286,1
328,305,313,286,1
331,306,314,288,1
333,308,315,290,1
333,310,317,294,1
331,312,317,296,1
330,313,318,299,1
328,314,319,303,1
327,315,319,308,1
325,315,318,316,1
323,315,317,326,1
320,315,315,337,1
316,315,312,347,1
314,315,310,353,1
315,316,309,352,1
316,316,308,343,1
313,314,305,328,1
305,311,303,312,1
296,307,302,297,1
288,304,302,285,1
279,303,303,277,1
272,302,304,273,1
272,302,306,271,1
280,303,309,269,1
291,305,311,269,1
307,307,310,271,1
325,309,308,273,1
337,311,306,276,1
341,312,305,280,1
339,313,303,286,1
337,313,302,292,1
335,313,301,297,1
334,312,300,301,1
330,310,299,303,1
323,309,297,302,1
317,307,296,300,1
308,306,297,299,1
295,305,298,298,1
279,304,299,298,1
265,303,300,298,1
258,302,299,298,1
260,302,299,298,1
270,303,300,297,1
287,304,303,296,1
303,307,307,296,1
315,310,310,296,1
319,313,313,298,1
318,316,315,299,1
317,319,316,301,1
319,320,317,304,1
321,321,317,305,1
321,321,316,305,1
320,320,316,304,1
319,318,315,303,1
317,316,312,300,1
316,314,306,296,1
313,311,299,291,1
307,308,294,286,1
299,304,291,284,1
294,301,293,285,1
296,301,296,290,1
303,302,300,295,1
306,304,304,302,1
305,307,307,308,1
302,309,310,315,1
300,313,312,321,1
301,316,313,326,1
306,319,314,331,1
313,322,313,335,1
319,323,312,337,1
323,324,310,337,1
325,324,308,334,1
324,323,305,329,1
324,321,303,323,1
323,318,299,315,1
323,314,296,306,1
324,311,292,295,1
322,307,288,284,1
319,305,288,275,1
316,303,290,271,1
313,302,292,269,1
309,302,295,270,1
305,303,297,272,1
300,305,300,275,1
294,307,301,279,1
287,309,302,282,1
283,312,302,286,1
285,313,302,289,1
289,313,301,293,1
293,313,299,298,1
297,312,297,303,1
304,312,297,307,1
312,311,297,308,1
318,311,297,308,1
324,310,297,307,1
330,310,297,306,1
338,309,296,305,1
346,308,294,305,1
351,305,292,307,1
348,303,290,310,1
339,302,291,313,1
326,303,293,316,1
313,305,296,319,1
302,308,301,321,1
295,311,304,323,1
288,313,307,325,1
281,316,309,327,1
273,318,310,329,1
265,319,310,329,1
264,319,309,328,1
272,319,308,326,1
284,318,306,323,1
296,317,305,319,1
306,317,304,314,1
313,316,302,306,1
313,313,300,296,1
309,311,300,286,1
305,307,301,280,1
302,305,302,276,1
298,302,301,275,1
292,300,299,275,1
285,299,296,277,1
279,300,294,280,1
279,302,294,284,1
287,305,297,290,1
300,308,301,294,1
315,310,306,297,1
323,311,309,298,1
325,312,311,299,1
322,312,312,299,1
317,311,312,300,1
314,310,311,301,1
314,309,309,301,1
316,308,307,301,1
321,307,304,301,1
324,306,303,302,1
325,306,300,304,1
323,306,299,308,1
319,305,299,313,1
317,305,301,317,1
318,306,304,321,1
319,306,306,324,1
320,307,309,325,1
319,309,311,324,1
319,311,312,320,1
319,313,311,315,1
317,316,310,309,1
313,317,308,304,1
307,318,304,299,1
302,318,299,294,1
296,316,295,291,1
292,315,293,291,1
289,313,292,292,1
286,311,291,291,1
284,308,289,291,1
284,305,288,290,1
282,303,288,290,1
278,301,290,289,1
275,300,295,290,1
278,300,299,291,1
283,301,304,294,1
291,303,308,297,1
303,304,311,303,1
316,305,313,309,1
323,305,315,315,1
323,307,315,319,1
320,308,314,320,1
318,309,313,316,1
315,310,312,311,1
314,311,312,306,1
312,313,312,302,1
310,313,313,298,1
308,313,313,294,1
307,312,313,293,1
309,310,312,293,1
311,308,311,294,1
313,307,309,296,1
315,306,307,298,1
316,304,305,303,1
314,303,304,308,1
307,302,304,312,1
302,301,305,314,1
300,301,305,314,1
299,302,303,314,1
300,304,303,317,1
300,307,305,321,1
300,309,309,324,1
299,312,311,325,1
297,313,313,323,1
296,314,314,319,1
297,314,315,314,1
299,314,313,309,1
299,314,310,306,1
299,314,308,305,1
298,314,307,305,1
298,314,306,307,1
298,313,305,307,1
299,311,304,306,1
303,309,305,302,1
306,307,307,298,1
308,304,309,294,1
310,302,311,292,1
313,300,313,293,1
316,300,314,294,1
318,300,314,296,1
312,300,313,296,1
297,300,309,296,1
277,300,307,295,1
257,299,305,293,1
244,299,305,292,1
246,299,305,292,1
261,299,307,292,1
283,298,310,293,1
302,297,311,294,1
311,297,312,294,1
314,298,312,294,1
315,298,311,294,1
316,298,310,295,1
316,299,309,297,1
316,300,309,301,1
315,302,308,305,1
314,303,310,310,1
313,304,312,313,1
313,305,316,315,1
314,305,319,315,1
314,306,321,314,1
313,306,322,310,1
314,307,322,305,1
313,308,323,300,1
311,308,322,296,1
306,308,321,295,1
300,308,320,296,1
293,307,320,299,1
286,305,320,303,1
287,304,320,308,1
295,303,321,311,1
303,302,322,312,1
307,301,322,311,1
308,300,323,312,1
308,299,323,313,1
309,298,323,314,1
310,298,324,315,1
310,299,325,315,1
305,299,326,313,1
301,300,325,311,1
294,300,323,309,1
286,300,320,306,1
281,301,317,304,1
284,303,317,303,1
290,306,319,305,1
297,309,324,307,1
306,311,329,308,1
314,314,333,309,1
322,315,336,310,1
325,315,337,310,1
324,314,337,311,1
321,314,336,313,1
315,313,333,316,1
309,311,331,318,1
305,310,331,324,1
303,309,333,329,1
300,309,334,335,1
297,309,333,338,1
298,310,331,338,1
303,311,330,333,1
307,312,330,323,1
310,312,331,311,1
311,312,332,300,1
311,312,332,288,1
309,312,332,277,1
307,311,331,270,1
305,310,330,267,1
303,309,331,267,1
302,307,331,269,1
300,306,332,272,1
297,306,332,274,1
292,306,331,276,1
288,305,331,278,1
289,304,331,282,1
292,304,332,286,1
299,304,333,292,1
307,306,333,298,1
314,308,334,305,1
318,310,336,311,1
319,313,337,318,1
318,316,338,323,1
315,318,339,327,1
310,319,339,328,1
305,318,339,326,1
301,317,339,323,1
300,317,339,320,1
301,317,338,316,1
303,317,337,310,1
305,315,336,302,1
307,312,335,296,1
309,310,334,293,1
313,307,334,292,1
315,305,334,295,1
314,303,333,299,1
309,301,329,302,1
305,300,325,305,1
302,300,322,307,1
298,302,319,307,1
292,304,316,305,1
285,305,315,305,1
282,308,316,305,1
284,310,320,306,1
289,312,325,306,1
298,313,330,306,1
308,314,332,304,1
314,314,333,303,1
315,313,332,301,1
312,312,331,300,1
307,312,331,300,1
305,312,331,301,1
305,313,331,302,1
304,312,332,304,1
302,310,332,304,1
298,307,332,302,1
298,304,331,299,1
302,302,331,297,1
305,299,331,297,1
303,298,331,298,1
295,298,331,299,1
287,298,331,301,1
283,300,330,303,1
286,301,330,305,1
295,303,330,308,1
306,306,329,310,1
315,309,330,310,1
319,310,331,308,1
319,311,331,306,1
318,312,331,308,1
316,312,330,309,1
314,312,329,309,1
312,311,327,308,1
310,310,326,307,1
307,308,326,305,1
305,306,325,303,1
304,304,325,301,1
304,302,324,301,1
305,302,323,302,1
306,302,323,303,1
307,303,323,304,1
306,305,323,304,1
304,306,323,305,1
301,308,322,305,1
299,309,321,308,1
298,309,322,315,1
298,309,324,324,1
300,308,327,331,1
308,308,329,335,1
317,308,330,336,1
322,307,328,333,1
322,305,326,327,1
317,303,323,319,1
304,302,318,310,1
291,302,314,300,1
283,300,311,292,1
279,299,311,286,1
279,298,311,283,1
283,298,311,284,1
292,299,311,286,1
300,301,311,289,1
306,303,313,291,1
309,305,315,293,1
308,306,316,294,1
305,307,318,296,1
305,308,318,298,1
309,309,317,299,1
313,310,317,301,1
313,311,316,302,1
310,311,317,304,1
307,311,317,305,1
304,310,317,306,1
302,309,317,306,1
304,308,316,306,1
309,306,315,306,1
314,305,314,305,1
318,303,313,304,1
319,303,313,304,1
316,302,313,305,1
311,303,314,307,1
306,304,314,309,1
302,305,314,310,1
302,306,313,312,1
302,306,313,312,1
303,306,313,310,1
304,306,312,307,1
308,306,311,305,1
313,305,310,303,1
318,306,309,300,1
320,306,309,298,1
318,306,310,297,1
313,305,310,297,1
305,305,308,299,1
298,303,306,303,1
295,302,304,308,1
294,300,304,315,1
294,299,306,321,1
292,298,307,325,1
290,299,308,325,1
288,300,309,324,1
291,302,311,320,1
298,305,311,315,1
305,307,311,309,1
312,309,310,304,1
317,309,305,299,1
321,310,299,295,1
323,309,292,291,1
323,309,286,288,1
320,308,283,286,1
318,309,282,286,1
315,309,284,288,1
313,311,288,291,1
312,311,292,294,1
311,311,295,295,1
308,309,296,295,1
306,308,297,297,1
310,307,298,301,1
317,306,301,304,1
323,306,305,306,1
323,306,308,306,1
318,306,308,306,1
308,307,308,306,1
302,307,308,310,1
298,308,307,315,1
298,309,307,320,1
299,310,306,325,1
302,311,305,329,1
304,312,305,331,1
305,313,305,332,1
305,312,305,329,1
305,311,305,324,1
306,310,304,318,1
306,308,303,311,1
305,306,301,306,1
300,304,299,302,1
292,302,296,299,1
284,300,294,298,1
277,300,292,299,1
269,299,291,303,1
263,299,292,310,1
263,300,295,316,1
273,301,297,319,1
288,302,299,318,1
300,304,299,314,1
308,305,299,309,1
314,307,299,303,1
316,308,298,297,1
315,309,297,292,1
312,308,297,289,1
307,308,297,287,1
300,307,297,287,1
295,306,298,288,1
295,305,298,290,1
298,305,298,293,1
304,304,298,295,1
310,303,297,297,1
316,302,297,298,1
320,301,296,300,1
325,301,296,303,1
330,301,297,306,1
334,302,298,309,1
338,304,300,311,1
338,306,300,313,1
335,309,298,315,1
327,311,296,317,1
319,313,294,317,1
314,314,293,315,1
311,313,292,313,1
308,311,292,310,1
304,309,291,308,1
300,307,289,307,1
297,305,287,307,1
296,303,285,306,1
297,301,285,306,1
302,299,285,307,1
310,297,285,307,1
315,295,286,307,1
318,295,287,309,1
318,296,289,311,1
317,299,291,314,1
318,303,291,319,1
320,307,291,324,1
322,310,291,328,1
324,312,292,330,1
324,314,291,328,1
322,314,289,325,1
320,313,288,321,1
317,312,289,318,1
315,312,291,314,1
311,310,294,311,1
307,309,296,308,1
302,308,297,307,1
298,307,297,309,1
296,305,297,312,1
293,304,297,316,1
287,303,298,318,1
280,301,297,317,1
275,299,295,313,1
281,298,293,308,1
295,297,289,303,1
307,298,283,299,1
313,299,277,296,1
312,301,274,293,1
308,303,274,289,1
305,304,279,286,1
302,305,285,286,1
303,306,288,287,1
308,307,288,288,1
314,308,287,288,1
319,307,286,287,1
322,305,284,285,1
323,304,282,285,1
320,302,276,286,1
312,301,270,288,1
304,298,271,291,1
301,296,278,296,1
303,295,288,303,1
307,295,295,309,1
311,297,301,314,1
313,299,305,317,1
315,302,310,318,1
316,304,312,318,1
316,306,313,317,1
318,308,313,316,1
319,308,311,315,1
314,307,307,313,1
302,307,301,311,1
290,305,297,309,1
285,303,294,306,1
285,301,293,303,1
290,300,290,302,1
298,298,287,302,1
304,296,284,303,1
304,295,282,303,1
301,295,282,303,1
297,297,286,304,1
296,298,291,303,1
296,299,296,302,1
298,300,301,302,1
300,300,304,302,1
305,300,307,302,1
309,301,308,303,1
311,302,307,305,1
310,302,308,306,1
308,304,307,308,1
309,304,306,311,1
308,305,305,316,1
305,306,304,322,1
301,308,304,325,1
296,309,304,325,1
290,308,302,321,1
288,306,298,318,1
293,304,292,314,1
305,302,286,311,1
319,299,283,309,1
332,298,285,307,1
341,297,288,306,1
346,298,291,305,1
345,299,296,306,1
339,301,299,308,1
330,303,302,312,1
322,303,304,316,1
316,304,304,321,1
310,304,304,325,1
304,304,303,326,1
299,304,301,325,1
294,304,300,321,1
293,305,300,315,1
296,304,298,307,1
300,304,297,300,1
303,303,296,295,1
305,303,297,292,1
307,303,299,290,1
308,302,300,290,1
308,299,300,290,1
309,297,299,291,1
309,295,298,294,1
309,293,297,296,1
309,292,297,298,1
309,292,298,299,1
311,293,300,299,1
312,295,301,299,1
312,297,302,300,1
308,299,304,301,1
306,301,306,301,1
304,302,307,299,1
303,302,308,298,1
304,301,308,296,1
307,301,308,294,1
310,302,308,291,1
313,303,308,289,1
313,303,308,288,1
312,302,307,289,1
308,300,306,291,1
307,299,305,296,1
306,298,304,299,1
302,298,304,301,1
297,298,305,302,1
294,299,308,301,1
293,300,310,300,1
296,301,312,299,1
303,302,315,298,1
308,303,316,298,1
309,304,316,298,1
309,306,316,300,1
308,308,316,303,1
306,310,316,306,1
304,311,314,308,1
306,311,312,312,1
309,311,313,314,1
309,310,316,317,1
305,308,319,319,1
299,307,321,321,1
294,306,321,320,1
290,305,319,318,1
290,305,318,316,1
295,306,320,316,1
307,307,322,317,1
318,309,325,319,1
325,311,327,318,1
327,312,326,317,1
327,312,324,315,1
326,312,323,312,1
328,312,323,310,1
333,312,325,307,1
342,312,326,304,1
349,312,326,299,1
349,311,326,295,1
341,310,324,291,1
328,308,322,288,1
314,306,322,287,1
301,304,321,289,1
290,303,320,291,1
281,301,319,295,1
274,300,317,298,1
271,300,312,300,1
270,299,305,300,1
279,298,301,299,1
292,298,299,298,1
306,299,300,298,1
316,300,304,300,1
321,302,312,304,1
322,303,319,308,1
319,305,325,312,1
315,306,328,314,1
312,306,331,314,1
310,306,332,313,1
310,306,331,311,1
312,305,329,309,1
313,304,325,308,1
313,303,321,307,1
313,301,318,307,1
312,299,315,307,1
310,297,310,306,1
310,296,307,306,1
313,296,308,307,1
316,297,312,308,1
318,298,316,311,1
316,299,318,317,1
311,300,320,324,1
307,300,322,330,1
302,299,324,331,1
300,297,325,328,1
301,296,325,323,1
305,296,324,316,1
310,297,323,309,1
312,299,322,303,1
311,301,322,296,1
308,303,321,290,1
302,305,322,286,1
293,306,322,282,1
286,307,322,280,1
285,307,321,278,1
290,305,319,278,1
298,303,317,279,1
304,301,313,281,1
308,300,308,284,1
309,299,306,287,1
308,300,307,290,1
307,302,311,295,1
307,304,316,300,1
306,306,321,303,1
304,307,323,305,1
305,308,324,306,1
309,308,323,307,1
315,308,322,308,1
318,307,322,310,1
316,305,321,311,1
310,305,321,313,1
303,305,321,314,1
298,307,322,316,1
296,309,322,318,1
300,311,323,319,1
304,312,323,318,1
308,311,324,317,1
307,311,324,318,1
300,310,325,318,1
294,309,325,319,1
295,308,325,316,1
299,307,325,313,1
303,306,323,311,1
304,305,319,310,1
302,305,315,307,1
299,305,312,304,1
298,305,311,303,1
299,305,313,304,1
303,305,315,305,1
309,305,317,306,1
315,305,318,305,1
319,304,318,302,1
319,302,317,298,1
316,301,315,293,1
310,301,313,289,1
305,300,312,287,1
299,301,312,287,1
294,302,314,289,1
291,303,317,293,1
291,303,319,298,1
293,303,321,302,1
296,303,322,306,1
299,303,322,309,1
302,304,320,313,1
306,306,317,317,1
308,306,313,319,1
309,306,311,319,1
311,306,310,317,1
313,306,310,314,1
316,307,311,311,1
319,308,311,308,1
319,308,313,306,1
316,308,317,306,1
312,308,319,305,1
305,308,318,305,1
295,307,317,306,1
284,305,316,307,1
275,303,315,310,1
270,301,314,312,1
273,301,314,315,1
282,302,315,316,1
292,304,315,316,1
301,307,315,314,1
307,309,314,310,1
311,311,313,306,1
312,312,310,300,1
310,312,307,294,1
307,311,303,289,1
302,311,301,287,1
297,311,301,288,1
290,312,303,294,1
283,314,305,304,1
281,316,307,314,1
285,317,307,320,1
293,317,308,322,1
303,315,308,320,1
311,314,307,316,1
313,312,305,311,1
310,310,300,304,1
309,309,293,298,1
311,308,286,294,1
314,307,281,292,1
316,308,279,291,1
316,308,283,292,1
315,309,290,292,1
312,311,296,293,1
309,312,302,295,1
308,312,305,296,1
310,312,308,300,1
314,312,311,306,1
318,312,313,313,1
321,312,313,319,1
322,312,312,325,1
322,312,312,329,1
320,312,311,331,1
316,310,309,331,1
314,308,306,330,1
314,307,304,327,1
316,306,303,324,1
317,306,301,319,1
317,306,301,315,1
318,306,299,313,1
319,308,297,311,1
322,311,294,310,1
326,312,293,309,1
328,314,293,308,1
325,314,293,308,1
320,314,291,306,1
313,314,288,305,1
307,315,287,305,1
302,314,288,305,1
297,312,290,305,1
293,311,292,306,1
290,310,294,305,1
289,309,296,304,1
289,308,296,302,1
289,307,295,299,1
288,304,294,296,1
286,303,291,292,1
282,303,288,291,1
280,303,286,291,1
279,303,284,292,1
279,304,283,293,1
279,305,283,292,1
280,305,283,291,1
283,306,283,288,1
291,306,285,286,1
300,306,286,286,1
309,306,288,288,1
315,306,290,290,1
317,306,291,293,1
315,306,291,294,1
308,306,290,296,1
299,305,288,298,1
290,305,288,301,1
282,304,286,305,1
273,303,285,309,1
267,301,284,312,1
270,299,283,315,1
284,296,284,316,1
300,294,285,317,1
313,293,286,317,1
321,294,287,318,1
325,298,288,317,1
324,301,288,313,1
318,304,288,308,1
313,306,285,302,1
315,307,284,298,1
319,308,284,294,1
322,308,285,293,1
323,308,285,293,1
321,308,285,292,1
318,307,285,292,1
314,307,284,292,1
311,307,282,292,1
308,307,278,293,1
308,306,276,295,1
308,305,276,297,1
310,304,278,300,1
312,304,279,305,1
314,304,282,312,1
316,305,284,318,1
318,306,286,321,1
318,308,287,321,1
318,309,287,318,1
318,310,288,315,1
317,311,288,311,1
316,311,289,307,1
316,312,290,303,1
314,311,289,300,1
312,310,289,296,1
310,309,288,293,1
308,308,287,291,1
304,307,287,290,1
300,306,287,291,1
299,304,286,294,1
299,304,285,299,1
300,302,283,306,1
300,302,281,313,1
302,301,281,320,1
305,302,283,326,1
308,303,286,330,1
308,305,288,331,1
307,307,289,327,1
305,309,290,319,1
303,310,289,310,1
303,310,289,302,1
305,309,287,297,1
308,308,286,293,1
309,307,285,292,1
308,306,285,294,1
303,305,285,297,1
296,304,286,301,1
287,304,286,305,1
277,304,285,309,1
270,304,282,313,1
266,303,277,320,1
269,304,272,327,1
277,304,267,333,1
285,305,264,336,1
287,306,265,336,1
291,308,272,333,1
304,309,280,328,1
321,310,286,322,1
335,311,289,315,1
344,311,291,307,1
349,309,294,300,1
350,308,297,294,1
346,306,298,289,1
339,305,298,286,1
329,305,297,286,1
317,303,294,287,1
308,303,293,290,1
305,302,293,296,1
306,301,294,301,1
308,301,295,306,1
310,301,296,311,1
313,301,297,316,1
315,301,297,319,1
315,301,297,320,1
316,302,297,319,1
316,304,298,316,1
317,305,298,310,1
318,307,298,305,1
319,309,298,301,1
320,310,296,298,1
317,311,294,296,1
313,311,293,294,1
306,310,291,292,1
301,309,288,291,1
298,307,287,292,1
296,307,287,294,1
294,306,286,298,1
292,305,285,301,1
291,303,284,303,1
289,301,283,304,1
293,300,285,306,1
304,299,286,307,1
318,298,287,307,1
327,298,288,306,1
332,298,288,305,1
332,300,290,304,1
329,302,293,304,1
325,304,296,305,1
320,306,297,305,1
314,309,299,307,1
309,311,299,310,1
304,312,299,314,1
301,313,299,318,1
300,313,299,320,1
301,312,299,322,1
301,311,297,324,1
302,310,294,324,1
302,308,292,324,1
300,307,291,322,1
299,306,292,320,1
298,305,294,318,1
300,305,298,320,1
304,306,302,324,1
309,309,305,328,1
312,311,309,331,1
314,314,311,332,1
315,316,312,330,1
316,317,313,326,1
315,316,313,320,1
311,315,311,312,1
304,312,308,303,1
293,308,304,292,1
278,305,299,284,1
261,303,293,276,1
247,300,290,270,1
248,298,291,270,1
268,297,295,275,1
295,297,300,283,1
320,298,303,290,1
334,299,305,293,1
338,300,306,294,1
338,301,306,294,1
337,301,306,294,1
337,301,307,293,1
337,301,308,292,1
337,302,309,293,1
338,303,309,294,1
336,304,308,295,1
334,306,307,296,1
330,308,307,297,1
324,310,308,297,1
315,311,309,299,1
306,313,309,301,1
300,314,310,304,1
295,314,309,307,1
292,313,308,311,1
291,312,308,314,1
290,311,308,315,1
289,309,308,313,1
287,306,307,310,1
287,304,306,308,1
287,303,306,307,1
286,301,305,307,1
286,300,306,308,1
289,300,308,310,1
293,300,310,313,1
299,301,312,315,1
308,301,312,316,1
312,302,312,318,1
311,302,311,320,1
307,302,311,323,1
303,303,310,327,1
301,305,308,329,1
300,307,306,329,1
300,309,304,327,1
301,310,304,323,1
302,310,303,318,1
303,309,302,313,1
302,308,299,307,1
301,305,295,301,1
300,303,293,297,1
301,301,295,296,1
304,300,299,298,1
308,299,303,302,1
311,300,306,306,1
313,301,309,308,1
315,302,310,310,1
314,303,310,311,1
312,304,309,311,1
309,305,308,311,1
305,305,306,311,1
302,306,307,314,1
301,306,307,317,1
300,306,307,318,1
299,305,306,318,1
295,304,302,315,1
291,304,298,311,1
288,304,295,305,1
289,304,292,299,1
291,303,289,296,1
290,302,286,293,1
286,300,286,294,1
283,299,291,297,1
288,298,298,300,1
295,298,304,300,1
305,299,309,298,1
315,301,310,296,1
321,302,311,295,1
321,304,310,293,1
318,306,308,292,1
314,308,305,291,1
314,311,303,293,1
316,313,302,296,1
318,314,303,301,1
319,314,305,307,1
320,314,306,313,1
319,313,308,319,1
316,313,312,322,1
314,313,317,325,1
313,313,318,325,1
309,311,317,322,1
302,309,317,319,1
291,305,316,313,1
279,301,315,305,1
271,297,314,299,1
268,296,316,294,1
270,296,317,292,1
276,297,316,292,1
287,299,313,293,1
299,299,310,296,1
309,299,306,300,1
313,297,302,301,1
313,297,301,302,1
312,298,301,302,1
310,300,302,302,1
308,303,304,302,1
307,306,309,302,1
307,308,315,301,1
308,310,320,300,1
310,310,322,299,1
311,309,324,297,1
311,306,323,296,1
308,304,323,295,1
305,303,323,298,1
305,303,324,303,1
307,304,325,309,1
309,306,325,315,1
308,308,325,321,1
306,310,324,324,1
303,311,323,325,1
301,312,321,323,1
299,312,318,318,1
299,312,316,312,1
299,311,316,306,1
299,310,316,303,1
300,310,316,301,1
301,309,316,302,1
302,309,316,304,1
303,308,315,306,1
303,307,315,309,1
304,305,314,312,1
304,304,312,315,1
303,302,309,318,1
299,300,306,321,1
296,298,307,326,1
295,299,311,333,1
297,301,316,340,1
301,305,320,344,1
303,309,323,344,1
305,312,324,343,1
310,315,324,340,1
317,317,324,336,1
323,318,323,331,1
328,318,323,327,1
329,318,322,321,1
328,316,320,314,1
324,313,318,305,1
320,309,317,296,1
317,306,315,289,1
315,302,314,285,1
313,299,312,283,1
310,297,312,283,1
308,296,312,285,1
307,295,311,287,1
306,295,309,290,1
305,296,306,294,1
304,298,302,297,1
304,300,298,298,1
303,302,296,299,1
302,304,296,301,1
299,305,296,302,1
297,306,297,303,1
298,305,299,305,1
299,304,302,307,1
299,302,306,308,1
299,300,308,310,1
299,298,310,311,1
301,296,311,311,1
303,293,311,311,1
306,292,311,312,1
310,291,311,315,1
312,293,310,318,1
312,295,310,321,1
313,297,310,323,1
314,300,310,324,1
317,303,311,324,1
321,305,311,323,1
326,307,310,323,1
329,308,306,322,1
330,309,303,321,1
328,309,298,321,1
322,308,296,320,1
314,307,295,319,1
303,307,295,317,1
289,306,293,314,1
274,305,290,312,1
265,304,289,312,1
267,302,289,313,1
279,301,290,313,1
294,300,291,313,1
308,300,291,313,1
318,299,291,314,1
323,299,292,314,1
327,299,294,313,1
328,299,294,311,1
327,301,291,309,1
326,302,286,308,1
326,304,282,308,1
327,307,284,309,1
327,308,288,310,1
323,310,292,310,1
317,312,295,310,1
309,313,297,310,1
300,315,297,309,1
295,316,297,310,1
294,317,296,311,1
296,318,296,315,1
295,318,296,318,1
289,316,297,319,1
286,314,297,317,1
290,312,298,311,1
297,310,299,306,1
304,307,300,303,1
310,305,299,303,1
315,305,301,305,1
318,305,302,307,1
319,306,303,308,1
320,307,302,309,1
319,308,300,307,1
318,308,299,304,1
316,309,299,302,1
313,308,299,300,1
308,308,299,297,1
303,309,299,297,1
297,309,298,297,1
293,309,296,297,1
290,309,293,296,1
292,308,289,293,1
297,307,286,292,1
304,306,286,291,1
309,303,288,293,1
312,301,290,296,1
313,298,292,300,1
312,297,294,305,1
311,296,297,309,1
310,296,300,311,1
310,296,302,312,1
310,299,303,310,1
310,301,302,308,1
309,304,301,305,1
307,307,298,303,1
306,309,295,304,1
306,311,294,307,1
306,311,295,312,1
307,311,295,316,1
306,311,297,320,1
303,309,297,322,1
300,307,295,323,1
299,305,293,323,1
301,304,290,321,1
306,302,287,319,1
312,300,286,315,1
318,299,286,309,1
322,298,289,303,1
323,299,292,299,1
320,300,293,296,1
317,302,295,296,1
314,304,297,297,1
311,307,298,298,1
309,308,298,298,1
306,308,298,298,1
304,307,297,298,1
304,307,296,299,1
304,307,297,301,1
304,306,298,302,1
304,307,300,305,1
305,308,302,307,1
306,308,301,310,1
307,308,297,310,1
307,307,293,308,1
306,306,291,306,1
305,305,288,306,1
302,304,287,309,1
303,304,290,313,1
306,305,297,319,1
312,306,302,323,1
318,309,307,327,1
320,311,311,329,1
320,314,313,330,1
316,315,314,329,1
310,316,313,327,1
306,317,312,323,1
306,316,310,319,1
307,315,309,315,1
310,314,310,312,1
311,312,311,307,1
310,309,311,299,1
307,306,308,288,1
302,303,305,278,1
296,299,301,272,1
291,296,298,271,1
290,294,298,275,1
292,294,299,282,1
294,293,301,291,1
294,294,303,301,1
295,296,305,312,1
296,299,308,321,1
299,304,313,327,1
304,309,319,331,1
308,313,324,331,1
309,314,327,329,1
307,314,328,326,1
306,313,328,320,1
307,311,326,313,1
308,308,325,305,1
307,305,323,299,1
305,302,321,296,1
302,301,318,296,1
302,300,317,296,1
303,300,319,298,1
305,300,322,299,1
306,301,323,301,1
307,302,323,302,1
310,303,325,304,1
314,303,326,305,1
317,304,328,304,1
318,304,328,303,1
317,303,326,301,1
315,303,324,301,1
312,303,323,303,1
309,303,325,305,1
306,303,327,308,1
304,303,326,312,1
303,304,325,316,1
302,304,325,321,1
302,305,328,323,1
303,305,331,324,1
304,306,333,324,1
304,306,333,322,1
305,306,332,321,1
307,305,332,320,1
309,304,332,319,1
310,303,332,316,1
311,303,333,314,1
312,303,334,314,1
312,303,336,315,1
311,303,337,317,1
310,304,336,319,1
310,304,334,316,1
313,304,331,311,1
317,303,329,305,1
321,303,327,300,1
325,302,325,295,1
329,302,323,291,1
331,302,320,289,1
328,303,319,291,1
318,305,319,295,1
306,306,322,300,1
295,308,326,304,1
288,308,330,309,1
285,306,332,313,1
285,304,333,316,1
286,302,334,318,1
289,299,335,319,1
292,298,336,316,1
296,297,336,311,1
301,298,335,306,1
303,299,333,302,1
304,301,331,301,1
305,303,331,302,1
305,304,331,304,1
305,306,331,306,1
303,306,328,308,1
302,307,325,309,1
300,307,323,312,1
299,306,324,317,1
298,306,327,321,1
297,305,331,324,1
295,302,334,326,1
292,298,335,327,1
290,296,334,328,1
288,294,333,328,1
284,293,332,325,1
286,292,332,322,1
290,294,334,319,1
295,297,336,316,1
296,300,338,311,1
297,303,340,307,1
296,303,342,303,1
296,304,343,300,1
297,304,343,298,1
300,304,344,298,1
304,305,344,299,1
307,305,344,299,1
309,305,343,298,1
308,305,343,296,1
305,304,343,295,1
302,304,342,296,1
298,303,341,298,1
293,301,342,302,1
289,300,342,306,1
284,298,343,310,1
280,295,343,312,1
278,294,343,313,1
282,293,344,312,1
290,293,344,310,1
300,294,343,306,1
307,294,340,302,1
311,295,335,300,1
311,296,332,300,1
307,299,329,301,1
303,302,327,304,1
300,305,329,309,1
297,307,335,315,1
295,309,340,321,1
296,309,347,325,1
299,309,353,328,1
304,307,358,328,1
308,305,362,327,1
312,302,365,326,1
312,299,368,324,1
311,297,368,321,1
309,296,367,317,1
306,297,366,314,1
301,299,367,313,1
294,301,368,313,1
290,304,371,313,1
290,307,374,314,1
292,310,375,313,1
294,311,375,312,1
294,312,375,310,1
294,312,374,307,1
295,312,373,306,1
298,311,372,305,1
301,309,371,303,1
302,306,370,302,1
301,302,370,302,1
300,298,372,300,1
301,295,375,299,1
305,293,377,299,1
310,290,379,301,1
313,289,381,304,1
313,290,383,310,1
313,292,385,317,1
312,294,387,325,1
311,297,388,332,1
309,299,390,335,1
305,302,392,334,1
302,305,393,330,1
301,308,394,327,1
300,311,394,324,1
300,314,393,321,1
299,315,392,318,1
298,314,391,317,1
298,314,391,317,1
300,313,392,317,1
300,312,393,316,1
299,311,394,313,1
298,311,394,309,1
298,309,393,305,1
298,308,392,300,1
297,306,388,295,1
296,303,382,292,1
294,301,375,292,1
293,301,371,295,1
294,302,371,299,1
297,304,373,302,1
299,307,376,304,1
301,310,379,305,1
301,313,383,305,1
302,314,387,305,1
304,315,391,304,1
306,316,393,302,1
307,315,393,301,1
304,314,393,299,1
299,313,391,298,1
293,311,390,299,1
292,310,389,298,1
290,308,387,296,1
287,306,385,294,1
288,304,383,292,1
293,301,381,291,1
299,299,380,292,1
303,297,379,293,1
308,296,379,294,1
313,296,378,297,1
318,295,378,299,1
320,297,378,303,1
320,300,378,306,1
316,304,377,307,1
311,307,375,307,1
308,310,372,306,1
305,313,368,307,1
303,314,365,309,1
301,314,362,310,1
300,314,361,311,1
299,312,359,311,1
297,311,357,310,1
296,309,355,308,1
292,307,352,307,1
288,306,350,306,1
283,305,348,304,1
279,303,347,303,1
277,302,346,304,1
279,302,345,307,1
287,303,344,312,1
298,305,343,316,1
307,307,341,318,1
315,309,339,318,1
320,312,336,317,1
322,314,331,316,1
322,316,326,316,1
321,316,322,316,1
319,316,320,316,1
317,315,320,315,1
312,313,319,314,1
308,311,318,313,1
305,309,317,311,1
305,308,313,308,1
306,307,309,306,1
307,306,306,303,1
308,304,305,300,1
308,303,305,300,1
309,303,306,302,1
308,304,308,307,1
307,308,310,313,1
307,312,312,320,1
308,316,312,324,1
308,317,312,326,1
306,316,310,326,1
305,315,308,325,1
304,314,306,324,1
304,312,303,323,1
304,311,301,322,1
305,310,298,320,1
304,309,295,317,1
304,309,293,311,1
303,308,290,305,1
301,309,288,302,1
300,309,286,300,1
301,310,284,301,1
301,309,282,303,1
301,309,278,305,1
301,308,276,307,1
301,308,276,309,1
302,309,278,311,1
304,310,279,311,1
305,312,279,310,1
304,313,279,307,1
302,314,278,304,1
298,314,278,302,1
296,315,278,303,1
296,316,278,305,1
299,316,277,306,1
303,316,276,307,1
307,315,276,306,1
307,313,275,304,1
305,310,275,302,1
299,306,273,298,1
291,303,270,293,1
284,300,265,290,1
279,297,260,290,1
281,294,256,292,1
287,292,255,297,1
298,291,257,303,1
308,291,261,307,1
316,293,265,310,1
318,296,267,313,1
316,300,267,314,1
313,304,266,315,1
311,308,265,316,1
309,313,264,319,1
309,317,265,321,1
309,321,265,320,1
310,323,266,317,1
311,324,265,313,1
311,323,265,308,1
310,322,264,304,1
308,319,262,302,1
305,316,261,300,1
301,313,259,300,1
297,309,257,298,1
293,306,256,297,1
288,303,256,295,1
283,303,256,295,1
284,305,257,296,1
290,311,259,298,1
296,318,261,300,1
299,324,261,301,1
301,327,259,301,1
303,329,256,301,1
303,329,253,301,1
301,327,252,301,1
302,326,252,301,1
303,324,253,303,1
305,323,253,303,1
305,321,253,303,1
306,319,252,303,1
308,317,251,304,1
309,315,251,306,1
310,314,250,308,1
311,314,250,311,1
311,314,253,316,1
312,316,255,320,1
315,318,258,323,1
317,319,259,323,1
318,319,259,320,1
319,319,258,317,1
320,319,256,316,1
319,318,252,316,1
317,319,246,318,1
314,319,241,319,1
311,320,238,318,1
309,320,240,317,1
306,320,244,315,1
305,320,248,317,1
306,321,252,320,1
309,322,254,324,1
309,322,255,327,1
307,322,255,329,1
305,321,254,329,1
304,320,253,326,1
303,318,252,320,1
304,317,250,314,1
304,317,246,308,1
303,318,242,304,1
302,319,239,301,1
301,321,240,300,1
302,322,243,300,1
300,323,245,299,1
295,323,246,299,1
288,323,245,299,1
282,322,244,301,1
281,322,243,304,1
284,322,243,309,1
289,321,243,314,1
295,320,242,320,1
300,319,242,324,1
304,319,242,327,1
308,318,242,328,1
311,317,241,327,1
312,317,241,326,1
313,317,240,322,1
315,317,241,318,1
316,315,241,312,1
318,314,241,306,1
318,311,242,302,1
318,310,242,301,1
316,309,242,301,1
313,308,242,302,1
310,307,242,303,1
308,308,242,304,1
307,308,241,305,1
306,309,240,307,1
305,309,239,310,1
303,309,239,314,1
303,308,239,317,1
303,306,239,318,1
303,304,239,317,1
303,302,240,315,1
304,300,241,313,1
305,298,241,310,1
304,296,241,309,1
303,296,241,309,1
301,296,241,310,1
300,297,241,309,1
297,297,242,307,1
296,297,242,304,1
298,297,241,300,1
300,297,242,298,1
303,296,242,297,1
306,295,242,296,1
310,296,243,295,1
313,298,244,296,1
314,302,245,298,1
313,306,246,301,1
312,309,245,305,1
311,311,244,311,1
310,312,245,317,1
309,311,246,323,1
309,310,248,329,1
310,308,250,334,1
309,305,251,339,1
310,304,252,343,1
313,304,253,346,1
315,305,254,345,1
316,306,254,340,1
315,307,253,332,1
314,306,250,321,1
314,305,246,309,1
312,303,241,298,1
306,300,237,288,1
295,297,235,282,1
283,294,234,279,1
277,293,233,279,1
278,293,235,281,1
284,295,239,286,1
292,297,244,293,1
300,298,247,299,1
307,299,248,305,1
313,298,248,309,1
317,299,247,314,1
320,299,247,319,1
323,300,247,323,1
325,300,250,326,1
323,300,255,330,1
318,301,262,334,1
311,303,268,336,1
306,305,274,335,1
302,305,278,332,1
300,306,280,327,1
299,305,281,323,1
299,304,281,323,1
298,303,281,323,1
298,302,280,322,1
298,301,279,320,1
299,299,279,316,1
300,298,279,312,1
301,296,279,308,1
303,293,279,304,1
306,292,280,302,1
308,291,282,301,1
309,292,284,300,1
309,294,286,298,1
309,295,288,296,1
309,296,290,293,1
307,298,292,291,1
305,299,294,290,1
303,301,296,290,1
302,302,297,292,1
300,302,298,292,1
298,303,299,293,1
296,303,300,293,1
294,302,301,293,1
292,302,302,293,1
291,302,303,292,1
292,301,304,292,1
295,300,305,292,1
298,298,305,292,1
301,297,306,293,1
303,295,307,294,1
304,292,306,296,1
304,290,304,299,1
303,289,302,304,1
303,289,305,310,1
303,290,311,316,1
306,292,317,322,1
309,295,321,326,1
312,297,324,328,1
315,300,327,331,1
316,304,330,335,1
316,308,333,336,1
313,310,334,335,1
310,312,333,331,1
307,311,334,328,1
305,310,334,325,1
303,308,334,322,1
300,305,333,319,1
298,302,332,317,1
299,300,330,315,1
301,298,329,314,1
305,296,329,313,1
310,295,332,315,1
315,295,335,318,1
318,295,338,320,1
318,296,341,320,1
318,297,343,319,1
317,298,344,317,1
316,299,345,313,1
315,299,346,307,1
314,299,345,301,1
313,299,345,296,1
311,299,345,293,1
309,299,345,292,1
308,299,345,291,1
307,298,345,291,1
307,297,344,292,1
307,296,342,292,1
306,295,340,294,1
307,294,340,297,1
310,293,341,302,1
313,293,343,308,1
316,294,346,315,1
318,295,350,320,1
320,296,353,324,1
320,298,355,327,1
319,300,356,329,1
317,302,357,330,1
314,304,357,329,1
311,305,357,329,1
308,305,358,327,1
305,305,358,324,1
303,305,356,317,1
300,304,354,309,1
297,303,351,300,1
294,301,350,293,1
292,300,351,288,1
296,299,351,287,1
300,298,352,288,1
303,297,353,291,1
303,294,353,296,1
304,293,352,301,1
304,293,352,306,1
303,293,352,311,1
302,294,353,315,1
301,295,354,317,1
301,297,356,317,1
302,301,357,316,1
303,303,357,313,1
302,306,357,311,1
302,308,357,310,1
306,310,357,311,1
312,312,355,312,1
315,313,353,314,1
314,314,351,316,1
313,314,350,317,1
312,314,349,317,1
312,313,347,317,1
312,312,346,316,1
312,310,345,315,1
313,309,346,315,1
312,309,348,318,1
310,309,349,320,1
308,308,351,322,1
308,308,352,324,1
310,308,353,325,1
313,309,354,325,1
315,309,353,323,1
316,309,352,321,1
315,309,351,318,1
313,309,349,315,1
310,307,347,311,1
305,306,345,307,1
303,305,342,304,1
303,303,339,300,1
305,302,334,298,1
309,301,330,297,1
314,300,327,298,1
318,298,326,299,1
321,297,326,302,1
324,296,328,307,1
325,297,333,313,1
324,299,339,321,1
320,301,344,329,1
314,304,347,337,1
307,307,349,343,1
303,311,350,345,1
300,314,349,346,1
300,316,347,344,1
302,317,345,338,1
305,318,344,330,1
307,317,344,320,1
308,316,343,311,1
309,314,342,304,1
309,312,341,300,1
310,310,339,298,1
313,308,338,298,1
315,306,335,298,1
317,303,332,297,1
318,301,328,296,1
319,299,324,295,1
320,297,319,295,1
319,297,315,297,1
317,299,315,301,1
313,301,316,306,1
311,303,319,311,1
308,304,321,314,1
305,306,322,316,1
299,307,322,317,1
298,308,322,318,1
300,309,322,319,1
304,310,321,318,1
305,310,319,316,1
305,310,317,313,1
304,310,317,312,1
306,310,317,313,1
311,310,318,316,1
317,310,319,321,1
322,310,319,329,1
327,309,318,338,1
330,309,317,345,1
330,309,315,349,1
327,311,315,350,1
321,312,316,347,1
316,314,319,341,1
310,315,320,334,1
306,316,321,328,1
303,317,321,322,1
304,318,320,316,1
307,318,318,308,1
310,318,315,300,1
313,316,312,292,1
315,315,309,284,1
316,313,306,279,1
316,310,303,276,1
314,306,300,274,1
310,304,300,275,1
308,303,302,279,1
307,302,304,283,1
308,300,305,287,1
311,299,307,291,1
314,297,308,294,1
318,297,309,297,1
323,297,308,299,1
326,298,308,300,1
328,300,308,300,1
328,302,308,299,1
326,304,309,299,1
321,305,308,298,1
315,306,307,298,1
310,306,306,297,1
305,306,305,297,1
302,306,306,297,1
301,305,307,298,1
301,304,309,299,1
301,304,310,301,1
301,304,311,303,1
300,304,310,306,1
297,303,309,310,1
294,303,308,315,1
295,303,307,320,1
301,303,306,325,1
309,304,305,328,1
317,304,305,331,1
321,306,306,331,1
323,308,306,331,1
321,311,307,329,1
319,313,307,327,1
318,315,307,324,1
317,316,307,320,1
318,315,307,316,1
319,315,308,313,1
321,314,307,313,1
322,313,308,314,1
322,311,307,316,1
321,310,307,318,1
321,310,307,321,1
321,309,306,323,1
322,309,306,323,1
322,309,306,323,1
323,309,305,321,1
323,308,304,318,1
322,308,302,314,1
319,307,301,311,1
316,306,299,310,1
313,306,299,308,1
308,306,297,307,1
303,306,294,305,1
298,306,290,303,1
300,306,288,303,1
306,308,286,304,1
312,309,285,304,1
316,310,284,303,1
319,310,283,301,1
320,309,284,299,1
320,308,288,297,1
317,308,293,296,1
315,307,298,295,1
312,306,301,296,1
310,304,303,297,1
310,303,304,300,1
312,302,304,303,1
316,301,304,306,1
322,300,304,310,1
326,301,304,316,1
329,302,304,321,1
328,304,304,323,1
326,306,304,322,1
322,308,304,319,1
318,310,303,317,1
314,312,303,315,1
312,314,304,315,1
312,316,306,319,1
311,318,307,324,1
310,318,305,326,1
308,318,301,326,1
302,316,298,323,1
296,314,294,318,1
292,310,292,312,1
291,307,292,307,1
293,304,294,304,1
297,301,296,304,1
301,300,298,305,1
303,298,299,307,1
300,298,299,310,1
299,299,299,313,1
302,302,301,316,1
308,306,302,317,1
312,309,302,317,1
313,311,302,315,1
313,312,301,312,1
312,313,300,307,1
311,313,299,303,1
310,312,298,300,1
309,312,297,298,1
308,311,297,297,1
306,310,296,297,1
304,309,296,297,1
303,307,296,298,1
302,305,296,297,1
303,304,296,295,1
303,302,296,293,1
304,302,297,291,1
304,302,297,291,1
304,302,298,291,1
303,303,299,293,1
302,304,300,294,1
301,306,301,295,1
301,308,301,297,1
300,309,301,299,1
300,310,300,302,1
303,311,300,306,1
306,312,300,311,1
308,311,300,318,1
309,308,300,324,1
306,305,298,330,1
296,300,294,333,1
280,296,290,332,1
270,293,288,328,1
270,291,287,321,1
279,291,287,313,1
295,294,290,307,1
311,297,294,304,1
322,302,298,302,1
327,305,301,299,1
327,308,303,296,1
324,310,306,293,1
321,311,308,291,1
318,311,308,291,1
315,311,309,292,1
313,311,308,296,1
311,311,308,299,1
309,310,307,303,1
307,310,305,305,1
306,310,303,306,1
305,310,303,305,1
304,309,303,304,1
303,309,304,303,1
303,309,304,303,1
303,308,305,302,1
304,307,306,302,1
304,306,306,301,1
304,305,307,300,1
304,303,307,299,1
305,303,308,298,1
305,303,309,298,1
305,304,309,297,1
304,304,310,297,1
303,306,309,298,1
302,306,310,300,1
302,308,310,302,1
301,308,310,305,1
300,308,310,307,1
299,307,310,308,1
298,306,310,309,1
299,303,310,311,1
302,301,310,315,1
305,299,311,320,1
306,296,311,323,1
304,292,310,326,1
302,290,309,328,1
302,289,307,331,1
306,289,304,334,1
311,291,303,337,1
314,295,301,341,1
312,300,299,344,1
309,305,298,344,1
309,309,298,337,1
303,311,297,324,1
293,312,293,311,1
285,311,292,301,1
283,312,295,294,1
289,312,301,292,1
300,314,307,294,1
310,314,312,299,1
317,314,316,303,1
320,314,317,307,1
319,313,317,308,1
316,311,315,307,1
311,310,313,303,1
306,309,309,299,1
300,308,303,296,1
295,307,298,295,1
290,307,297,295,1
288,308,299,295,1
290,308,304,297,1
296,310,309,298,1
301,312,313,300,1
304,313,315,301,1
304,314,315,302,1
303,315,315,302,1
303,316,314,301,1
302,316,314,301,1
301,316,313,302,1
301,316,314,302,1
300,315,314,302,1
299,315,314,303,1
298,314,313,305,1
298,313,313,307,1
299,312,311,306,1
299,310,310,303,1
301,307,309,300,1
302,305,308,301,1
304,303,308,303,1
304,302,309,305,1
305,302,310,306,1
308,301,311,307,1
314,301,311,307,1
323,300,309,306,1
331,299,308,304,1
332,299,307,302,1
324,299,304,300,1
310,300,302,298,1
294,303,301,298,1
280,305,301,300,1
271,306,301,303,1
271,308,303,306,1
276,310,304,311,1
283,311,305,315,1
289,311,306,317,1
293,311,304,319,1
295,309,303,318,1
295,308,302,314,1
295,306,301,310,1
294,304,299,306,1
293,304,296,304,1
292,305,294,301,1
293,306,293,298,1
295,308,294,295,1
296,310,296,294,1
296,312,299,295,1
296,313,303,297,1
296,314,307,301,1
296,314,311,304,1
296,315,313,308,1
296,315,315,311,1
295,315,316,314,1
295,315,315,319,1
294,314,315,323,1
295,313,313,326,1
295,311,311,327,1
296,310,310,324,1
298,308,309,317,1
300,306,307,310,1
302,305,307,302,1
302,305,307,295,1
302,307,307,291,1
302,308,307,289,1
302,309,307,290,1
302,310,307,291,1
301,310,306,293,1
300,310,304,295,1
300,309,303,297,1
299,308,302,297,1
295,306,301,298,1
288,302,301,298,1
280,298,300,300,1
275,295,299,303,1
269,292,296,305,1
261,290,293,305,1
263,288,291,305,1
281,288,292,304,1
304,290,293,303,1
322,295,295,304,1
332,300,296,304,1
336,304,296,304,1
336,307,294,304,1
332,311,292,304,1
326,313,289,303,1
320,314,289,303,1
314,315,291,304,1
309,315,293,306,1
303,315,296,309,1
300,315,299,312,1
297,315,302,314,1
296,314,304,315,1
296,314,305,315,1
296,314,305,313,1
296,313,303,310,1
296,312,301,307,1
296,310,301,306,1
297,310,303,306,1
298,309,304,308,1
299,309,305,310,1
300,309,307,313,1
301,310,308,316,1
300,312,309,320,1
300,314,309,325,1
299,315,309,330,1
297,316,309,333,1
297,316,309,333,1
296,316,309,332,1
296,316,308,328,1
296,315,306,322,1
295,314,305,314,1
295,312,304,308,1
295,311,303,305,1
294,309,303,305,1
294,307,303,307,1
294,306,303,310,1
292,306,303,313,1
291,305,303,315,1
291,304,304,315,1
293,303,305,315,1
297,302,306,314,1
304,303,306,315,1
312,304,307,315,1
317,305,306,312,1
313,306,304,305,1
302,306,301,298,1
290,306,298,293,1
283,306,296,288,1
281,306,296,285,1
282,306,297,282,1
284,306,300,281,1
286,306,302,282,1
288,306,305,285,1
289,306,306,288,1
288,305,307,291,1
286,305,307,294,1
288,304,307,298,1
292,305,306,305,1
298,305,307,312,1
302,306,309,318,1
305,307,310,321,1
305,309,311,321,1
305,310,312,321,1
304,311,314,320,1
303,311,315,321,1
302,312,316,321,1
301,312,316,322,1
300,312,316,320,1
300,313,316,319,1
299,313,315,317,1
300,314,314,313,1
301,313,312,309,1
304,312,309,307,1
308,310,305,306,1
313,308,302,306,1
316,305,301,305,1
315,301,299,304,1
308,297,299,301,1
301,292,300,300,1
295,289,303,298,1
293,287,305,299,1
297,287,307,302,1
305,289,307,307,1
312,293,306,315,1
314,298,305,324,1
312,303,305,331,1
309,308,306,334,1
307,312,308,335,1
305,315,311,331,1
302,317,313,324,1
300,318,314,316,1
300,319,314,308,1
301,319,313,301,1
301,317,311,294,1
301,315,309,291,1
300,314,307,291,1
299,312,307,294,1
299,311,307,299,1
299,309,307,302,1
300,308,308,301,1
300,306,308,302,1
300,306,308,304,1
300,307,307,309,1
300,309,306,313,1
300,312,306,316,1
299,314,307,317,1
297,315,308,317,1
294,316,309,317,1
294,317,309,317,1
293,316,309,315,1
291,314,308,313,1
290,311,307,311,1
293,307,306,309,1
298,303,304,307,1
302,300,301,304,1
304,298,299,302,1
304,297,300,300,1
302,296,302,299,1
299,296,303,296,1
298,296,303,292,1
301,297,303,289,1
304,298,303,288,1
307,300,303,288,1
309,302,304,290,1
310,304,304,293,1
309,305,303,296,1
308,307,303,298,1
307,309,302,300,1
307,309,301,303,1
308,311,302,304,1
308,311,304,305,1
308,310,304,305,1
307,309,304,304,1
306,307,304,304,1
305,306,303,304,1
305,305,303,304,1
306,303,304,305,1
307,303,305,307,1
308,302,306,308,1
309,303,307,309,1
310,303,308,310,1
311,304,309,311,1
313,305,310,313,1
314,307,311,316,1
313,308,311,321,1
310,310,310,326,1
305,311,308,329,1
298,313,305,330,1
293,313,302,327,1
290,313,300,323,1
289,311,300,319,1
292,310,302,315,1
297,308,305,311,1
303,307,307,308,1
309,305,308,305,1
315,303,308,303,1
318,302,308,302,1
319,300,308,302,1
321,300,309,302,1
324,300,309,302,1
324,301,310,304,1
320,303,311,305,1
316,305,312,306,1
312,307,313,306,1
310,309,314,306,1
307,309,314,306,1
303,309,314,308,1
298,309,314,309,1
291,308,314,311,1
285,307,314,312,1
281,306,315,313,1
286,306,315,314,1
295,306,315,315,1
305,305,314,314,1
311,304,313,313,1
314,304,311,313,1
316,304,311,315,1
317,305,310,319,1
318,306,311,322,1
319,308,312,323,1
319,308,312,320,1
318,309,312,316,1
316,310,311,311,1
314,311,312,306,1
309,312,312,301,1
305,312,312,296,1
301,311,312,291,1
297,309,311,288,1
294,307,310,286,1
291,305,309,286,1
290,304,308,288,1
291,304,309,292,1
293,304,309,295,1
297,304,309,297,1
301,304,309,299,1
306,302,309,300,1
310,300,308,302,1
312,298,307,305,1
312,298,305,307,1
308,298,303,308,1
301,298,301,308,1
293,300,302,308,1
289,303,305,308,1
290,305,308,307,1
294,307,309,305,1
299,308,310,304,1
304,308,310,303,1
309,309,310,303,1
312,309,310,303,1
312,309,309,303,1
310,309,309,304,1
307,309,309,305,1
303,309,308,306,1
300,309,307,306,1
299,309,307,304,1
300,309,307,304,1
304,307,307,305,1
309,306,309,306,1
315,305,309,307,1
319,305,308,309,1
321,305,307,312,1
319,306,304,314,1
315,306,303,317,1
311,306,302,320,1
308,307,303,323,1
309,309,306,327,1
310,310,310,330,1
313,310,313,331,1
315,310,314,330,1
316,309,315,326,1
313,307,315,321,1
309,306,314,317,1
304,306,310,312,1
300,305,306,306,1
298,302,304,299,1
300,299,304,295,1
306,297,306,295,1
314,296,307,298,1
319,295,307,303,1
319,296,307,307,1
317,297,307,309,1
314,298,308,310,1
311,301,309,309,1
304,304,310,306,1
297,307,311,303,1
291,310,313,301,1
289,312,314,301,1
294,313,314,303,1
299,314,313,305,1
300,314,309,306,1
300,313,305,308,1
302,311,302,309,1
305,309,299,307,1
308,306,296,301,1
309,303,294,295,1
308,301,293,293,1
305,300,295,295,1
301,300,297,299,1
299,300,299,304,1
300,301,301,310,1
304,302,303,316,1
310,304,305,320,1
315,306,307,323,1
319,308,308,325,1
320,309,308,325,1
320,310,306,323,1
320,310,304,320,1
318,310,302,316,1
315,308,298,311,1
311,306,295,304,1
308,305,294,300,1
307,305,294,299,1
306,307,293,299,1
304,307,293,300,1
302,307,294,301,1
300,306,296,303,1
299,305,298,304,1
301,304,301,305,1
304,303,303,305,1
305,300,305,304,1
303,299,306,304,1
301,300,308,303,1
298,301,309,302,1
297,304,310,303,1
299,308,311,305,1
302,311,312,308,1
305,312,311,311,1
308,313,311,314,1
311,313,310,316,1
314,313,309,317,1
317,312,309,316,1
322,311,309,315,1
329,310,310,313,1
334,309,309,309,1
338,308,308,303,1
338,306,307,295,1
333,304,306,289,1
325,302,305,287,1
318,301,305,287,1
314,301,305,290,1
310,302,306,295,1
304,303,307,299,1
298,304,308,303,1
292,306,309,306,1
286,307,309,309,1
281,308,310,310,1
278,309,310,311,1
276,309,311,312,1
279,308,311,314,1
286,308,312,315,1
294,307,312,318,1
300,308,311,321,1
304,308,309,325,1
304,308,306,326,1
302,308,303,325,1
303,307,299,321,1
308,306,296,317,1
313,305,295,315,1
317,304,297,313,1
318,303,300,311,1
316,303,304,307,1
313,303,308,305,1
309,303,311,304,1
307,303,313,304,1
305,303,313,305,1
305,304,312,304,1
306,304,310,304,1
310,305,310,304,1
314,306,311,305,1
317,307,312,306,1
317,308,313,307,1
317,310,313,307,1
317,310,312,308,1
317,311,310,310,1
315,310,308,312,1
313,308,306,313,1
310,306,305,315,1
308,304,304,319,1
306,303,303,324,1
304,303,303,328,1
303,304,303,331,1
302,305,302,330,1
300,306,302,325,1
298,308,304,317,1
296,309,306,308,1
295,309,309,303,1
294,309,310,301,1
296,309,309,302,1
300,308,308,305,1
306,308,307,307,1
314,308,306,308,1
319,308,306,309,1
323,309,306,309,1
323,309,306,306,1
320,309,305,302,1
312,308,304,297,1
299,306,302,293,1
287,304,301,291,1
280,302,301,290,1
279,301,302,289,1
285,301,303,290,1
294,303,306,293,1
302,305,308,297,1
305,307,311,301,1
304,310,311,304,1
301,311,310,305,1
300,311,307,304,1
300,311,304,303,1
303,311,301,301,1
305,310,299,300,1
306,310,297,298,1
305,310,297,297,1
304,310,299,296,1
303,310,301,298,1
302,309,302,300,1
300,307,302,303,1
299,306,302,306,1
300,305,303,310,1
304,304,305,314,1
307,304,307,317,1
305,305,308,318,1
302,306,306,317,1
298,307,303,315,1
297,309,299,314,1
299,311,295,313,1
301,312,293,315,1
301,311,293,318,1
301,310,295,321,1
301,308,299,321,1
301,306,302,318,1
300,304,304,314,1
302,303,307,310,1
306,303,308,309,1
309,304,308,308,1
311,306,307,309,1
312,307,306,310,1
313,309,305,311,1
314,310,305,311,1
313,311,305,311,1
312,311,305,312,1
309,311,305,314,1
306,312,304,316,1
304,311,302,319,1
302,311,302,322,1
300,311,302,327,1
297,310,303,329,1
293,310,303,328,1
290,309,303,324,1
290,308,304,318,1
293,307,305,311,1
296,306,305,304,1
299,305,304,297,1
304,305,302,293,1
311,304,299,290,1
315,303,297,288,1
313,302,294,284,1
307,301,291,279,1
300,301,290,276,1
297,301,292,275,1
296,300,295,276,1
295,299,297,277,1
291,299,300,278,1
288,300,302,279,1
285,301,303,282,1
286,303,303,285,1
291,306,303,290,1
299,308,304,296,1
307,311,305,302,1
313,313,306,306,1
317,313,306,309,1
317,314,306,311,1
313,313,305,313,1
308,312,305,312,1
303,311,304,311,1
299,309,303,307,1
297,306,300,304,1
297,304,299,302,1
302,302,299,300,1
308,300,301,299,1
314,300,302,300,1
319,300,302,303,1
322,302,302,307,1
322,304,302,312,1
318,305,302,315,1
311,306,304,319,1
305,307,305,322,1
304,307,307,326,1
306,307,308,328,1
307,306,307,326,1
307,305,306,320,1
308,305,304,315,1
308,303,303,309,1
308,301,302,302,1
308,300,301,296,1
309,297,300,291,1
310,296,300,288,1
311,295,299,286,1
310,295,299,286,1
308,295,299,287,1
304,295,299,288,1
299,295,298,288,1
296,296,298,290,1
296,298,298,292,1
299,301,299,295,1
303,303,298,297,1
305,305,297,300,1
308,306,296,304,1
309,307,295,308,1
310,308,295,311,1
311,309,295,312,1
311,308,295,311,1
311,307,297,308,1
309,305,298,305,1
307,303,298,302,1
304,299,298,301,1
305,295,299,301,1
309,292,301,302,1
314,290,302,304,1
321,288,302,305,1
325,288,304,306,1
326,289,306,306,1
324,291,307,307,1
324,295,308,308,1
323,299,307,308,1
320,303,305,306,1
314,306,303,305,1
306,309,303,305,1
300,310,303,307,1
296,310,304,310,1
292,310,304,314,1
289,310,305,320,1
287,309,304,324,1
286,307,303,326,1
287,305,301,324,1
289,302,300,319,1
290,299,299,314,1
292,297,300,311,1
297,296,301,308,1
302,296,302,307,1
307,297,304,308,1
311,300,305,309,1
311,302,306,310,1
310,305,306,311,1
309,306,305,310,1
307,307,305,306,1
307,307,304,302,1
309,306,304,297,1
312,305,304,293,1
314,306,304,291,1
314,306,304,290,1
314,306,303,289,1
314,305,301,289,1
315,304,300,291,1
316,304,299,294,1
316,304,298,299,1
312,303,297,304,1
310,302,296,308,1
315,302,296,308,1
322,302,295,304,1
326,301,294,300,1
326,302,293,296,1
325,302,294,296,1
323,303,295,298,1
319,304,297,301,1
315,306,298,304,1
310,308,299,306,1
305,309,300,307,1
301,310,300,308,1
298,310,300,308,1
297,311,299,306,1
297,311,300,304,1
298,312,300,302,1
300,312,301,300,1
301,311,301,300,1
301,310,301,302,1
302,308,299,305,1
302,306,297,305,1
304,305,295,305,1
306,305,293,304,1
311,305,293,303,1
314,305,293,303,1
315,305,294,304,1
313,306,296,306,1
309,306,296,308,1
302,307,296,310,1
296,306,295,311,1
294,305,293,310,1
297,304,292,309,1
305,304,292,307,1
312,304,293,304,1
318,304,294,302,1
323,304,295,301,1
326,304,296,301,1
326,305,297,304,1
323,304,296,309,1
316,303,294,314,1
308,302,292,320,1
301,300,292,323,1
298,299,291,324,1
299,298,290,323,1
304,299,290,320,1
309,300,292,316,1
314,302,295,314,1
318,305,300,311,1
318,307,304,306,1
315,307,306,301,1
310,306,306,297,1
305,305,305,293,1
303,305,303,291,1
303,305,301,290,1
304,306,297,292,1
305,307,294,294,1
307,308,294,297,1
308,308,295,304,1
309,307,298,311,1
309,305,300,317,1
308,304,301,321,1
307,302,302,323,1
305,302,301,323,1
306,302,301,323,1
309,304,302,323,1
315,305,303,322,1
323,306,303,320,1
330,307,303,318,1
334,309,302,315,1
334,309,301,311,1
328,309,301,304,1
318,308,299,297,1
307,308,298,292,1
299,308,297,290,1
294,309,297,290,1
293,309,297,291,1
293,309,297,292,1
294,309,296,290,1
294,307,296,289,1
293,305,297,287,1
292,303,297,286,1
293,301,298,285,1
295,299,299,286,1
297,298,299,289,1
304,298,299,294,1
312,298,299,298,1
316,299,297,304,1
315,301,296,310,1
311,303,295,314,1
305,306,294,316,1
298,308,294,317,1
294,309,294,315,1
292,310,295,312,1
295,310,295,307,1
298,309,295,302,1
302,308,294,298,1
305,307,294,296,1
308,306,295,297,1
309,306,295,300,1
308,306,295,305,1
307,305,294,309,1
305,303,294,313,1
305,303,294,316,1
305,302,295,320,1
305,302,295,321,1
304,302,296,322,1
303,302,297,322,1
305,303,297,322,1
309,306,297,321,1
310,308,297,319,1
307,311,297,315,1
302,311,297,311,1
298,311,296,308,1
299,310,294,307,1
301,309,291,308,1
305,309,289,311,1
310,309,289,313,1
313,308,292,314,1
313,307,295,314,1
313,305,297,311,1
311,303,297,308,1
310,302,295,304,1
310,301,293,300,1
310,300,292,297,1
309,301,292,296,1
309,302,293,297,1
311,305,296,298,1
314,307,300,298,1
316,308,303,298,1
314,310,304,298,1
312,311,305,298,1
311,311,306,297,1
312,310,306,296,1
314,309,307,295,1
316,307,306,294,1
318,305,304,294,1
319,303,303,297,1
318,302,303,301,1
316,302,303,307,1
314,302,304,313,1
311,302,304,316,1
309,302,303,316,1
308,302,302,316,1
307,303,302,315,1
305,304,301,314,1
301,306,300,314,1
296,308,301,312,1
293,310,302,308,1
291,311,303,304,1
293,310,302,300,1
295,308,301,296,1
299,307,299,297,1
301,305,296,302,1
299,305,293,308,1
296,304,291,313,1
296,304,290,317,1
298,303,291,318,1
301,302,293,317,1
304,301,295,315,1
309,299,296,313,1
315,297,298,311,1
319,297,299,309,1
322,297,300,307,1
326,297,300,305,1
331,298,300,306,1
334,300,300,307,1
336,302,302,309,1
335,304,303,311,1
333,306,304,310,1
331,307,304,308,1
327,308,304,305,1
319,308,302,303,1
309,307,300,301,1
302,305,299,299,1
298,304,298,298,1
297,303,297,298,1
298,303,297,299,1
298,303,297,300,1
298,302,297,302,1
297,303,297,304,1
295,302,298,307,1
294,302,299,309,1
296,301,300,314,1
300,300,301,320,1
304,300,302,327,1
309,302,303,333,1
315,304,302,339,1
321,306,302,341,1
326,308,303,341,1
330,310,303,339,1
332,310,302,336,1
331,311,301,332,1
329,311,301,328,1
327,310,300,323,1
324,309,297,319,1
319,308,294,314,1
314,307,291,310,1
312,306,290,308,1
313,306,290,305,1
316,306,292,303,1
320,306,294,302,1
324,306,296,302,1
326,307,299,304,1
327,307,303,306,1
327,307,307,305,1
327,306,309,300,1
326,305,309,295,1
323,305,307,290,1
317,304,306,286,1
312,303,304,284,1
306,303,303,284,1
301,303,302,286,1
297,304,301,288,1
296,304,301,291,1
296,305,302,295,1
297,305,302,298,1
297,306,303,302,1
297,306,303,306,1
295,305,302,309,1
292,304,302,311,1
291,303,302,312,1
294,302,304,314,1
298,302,306,317,1
302,303,307,320,1
305,305,309,325,1
305,307,311,329,1
301,308,311,331,1
293,310,310,332,1
284,311,309,330,1
277,310,308,326,1
272,308,306,319,1
271,307,304,310,1
281,305,301,302,1
299,303,301,296,1
317,303,302,294,1
329,304,303,295,1
335,305,305,296,1
336,305,306,299,1
332,304,307,305,1
326,304,306,314,1
320,303,304,322,1
315,302,302,329,1
314,303,303,332,1
314,304,306,332,1
316,305,308,327,1
317,306,310,320,1
316,308,311,313,1
316,309,311,309,1
316,311,310,306,1
316,313,310,305,1
315,314,309,304,1
312,314,309,303,1
310,313,309,302,1
307,313,308,301,1
303,312,308,298,1
299,311,307,294,1
298,310,306,290,1
301,309,306,288,1
306,308,305,288,1
311,307,305,292,1
314,306,306,300,1
315,305,307,310,1
315,304,308,320,1
314,304,310,330,1
314,305,312,337,1
312,306,313,340,1
309,308,313,339,1
306,310,312,333,1
305,311,309,324,1
303,311,306,312,1
302,310,304,302,1
301,310,302,294,1
300,308,302,287,1
299,305,302,280,1
298,303,303,276,1
299,300,303,275,1
300,299,303,277,1
302,299,304,281,1
304,301,306,286,1
307,302,308,290,1
310,303,308,294,1
313,303,307,297,1
316,303,305,301,1
318,304,305,305,1
320,304,306,307,1
321,305,307,307,1
321,306,311,308,1
320,308,315,309,1
315,309,318,311,1
306,309,320,313,1
297,310,321,315,1
290,311,320,318,1
286,311,319,320,1
282,310,318,320,1
281,309,317,320,1
286,309,317,317,1
297,309,318,314,1
307,309,320,312,1
313,307,320,310,1
315,306,319,310,1
316,304,317,311,1
314,303,315,311,1
309,302,314,312,1
304,301,312,312,1
300,301,311,312,1
298,303,311,312,1
297,305,313,310,1
299,307,313,307,1
306,308,313,303,1
316,308,313,299,1
325,308,313,297,1
328,308,312,294,1
326,308,310,292,1
321,307,308,290,1
318,307,308,289,1
319,307,310,290,1
320,307,312,292,1
322,307,314,295,1
324,307,315,295,1
323,305,314,294,1
320,303,313,293,1
317,302,311,291,1
312,301,312,290,1
306,301,313,290,1
301,301,313,292,1
297,301,314,299,1
296,303,315,308,1
297,305,316,316,1
298,307,317,322,1
298,309,317,328,1
298,310,318,331,1
298,311,318,334,1
297,311,319,335,1
298,311,319,336,1
298,311,319,335,1
298,309,318,332,1
298,307,316,326,1
301,305,313,318,1
305,302,310,310,1
311,300,307,303,1
317,299,307,299,1
322,298,309,298,1
323,299,311,299,1
320,302,313,302,1
316,304,315,306,1
312,305,317,310,1
310,305,319,314,1
308,305,320,318,1
306,305,321,321,1
303,305,319,322,1
300,305,316,321,1
298,306,312,320,1
296,307,308,318,1
295,307,307,315,1
295,308,306,313,1
295,308,304,311,1
295,307,301,307,1
293,307,297,302,1
291,306,295,294,1
288,304,293,287,1
286,302,294,283,1
280,299,297,282,1
270,297,302,285,1
259,296,307,290,1
258,297,311,295,1
268,298,314,300,1
285,300,316,303,1
303,302,317,304,1
316,303,317,303,1
322,304,315,301,1
323,304,312,300,1
321,305,311,299,1
317,306,311,298,1
313,307,310,296,1
312,306,310,296,1
315,307,309,297,1
319,305,309,299,1
322,305,310,301,1
322,304,311,303,1
321,303,312,304,1
319,303,313,305,1
316,303,313,306,1
315,303,314,307,1
313,303,315,306,1
313,304,315,305,1
313,304,316,306,1
314,306,316,308,1
312,306,316,310,1
308,306,314,311,1
304,305,313,310,1
303,305,312,309,1
302,303,310,307,1
298,303,308,305,1
292,302,307,305,1
288,301,306,305,1
287,301,305,306,1
291,301,304,307,1
296,300,303,307,1
302,298,303,307,1
309,296,302,307,1
315,294,303,307,1
319,291,303,308,1
319,290,303,309,1
317,290,304,311,1
313,293,306,314,1
309,297,308,318,1
304,302,311,320,1
299,307,313,321,1
293,312,314,320,1
290,316,313,319,1
290,317,313,319,1
293,317,311,320,1
296,315,311,322,1
298,313,310,324,1
297,312,309,326,1
294,311,309,328,1
292,311,309,328,1
292,309,308,327,1
296,308,307,327,1
299,308,307,330,1
298,308,308,336,1
297,308,309,344,1
302,307,311,350,1
309,305,312,352,1
314,305,312,351,1
316,305,311,346,1
317,306,310,338,1
315,306,308,326,1
312,306,306,313,1
308,306,304,301,1
305,306,302,293,1
303,307,299,288,1
302,308,298,286,1
301,309,298,284,1
300,310,298,283,1
299,310,300,281,1
296,310,300,279,1
291,309,297,278,1
288,308,294,278,1
288,306,291,281,1
290,304,289,285,1
291,303,289,290,1
293,302,293,295,1
298,302,299,300,1
303,303,305,303,1
308,304,309,304,1
310,306,311,304,1
311,307,312,303,1
311,308,313,302,1
311,309,313,302,1
312,310,312,302,1
313,310,311,303,1
314,310,309,304,1
317,310,308,304,1
319,310,306,304,1
320,310,304,304,1
320,310,303,303,1
320,309,301,301,1
321,308,298,300,1
320,306,296,298,1
316,304,295,296,1
309,304,296,295,1
301,304,297,296,1
296,306,298,298,1
296,307,300,300,1
298,310,302,302,1
302,312,304,304,1
305,314,306,305,1
307,314,307,306,1
308,313,307,307,1
307,311,307,308,1
307,309,307,310,1
308,307,307,312,1
309,305,307,314,1
310,303,306,315,1
308,302,305,315,1
304,302,305,315,1
299,302,304,314,1
294,304,304,313,1
291,306,302,312,1
290,308,301,311,1
293,311,301,311,1
297,313,302,312,1
300,315,305,313,1
301,317,307,315,1
300,319,309,319,1
298,320,309,324,1
294,321,308,329,1
292,321,308,334,1
294,321,309,340,1
297,320,308,345,1
301,319,307,347,1
309,318,307,345,1
314,318,306,339,1
314,317,304,331,1
309,315,303,320,1
302,313,300,309,1
297,311,297,300,1
295,310,293,295,1
299,308,292,293,1
303,307,294,292,1
306,305,296,291,1
310,305,299,290,1
313,304,301,290,1
316,304,303,292,1
318,305,305,294,1
317,307,308,296,1
314,309,309,296,1
307,310,310,296,1
300,309,309,299,1
294,310,308,306,1
293,310,308,314,1
297,310,308,322,1
302,310,307,326,1
308,310,308,326,1
315,310,308,323,1
322,309,307,318,1
326,308,306,312,1
327,305,304,307,1
327,304,304,303,1
326,303,303,300,1
325,302,303,297,1
323,302,302,296,1
318,303,299,295,1
313,303,296,297,1
309,304,293,299,1
307,305,291,302,1
307,307,292,306,1
310,309,297,310,1
313,310,302,313,1
314,311,305,315,1
315,312,308,316,1
316,312,309,316,1
315,312,310,315,1
313,310,308,311,1
310,309,307,306,1
308,307,306,302,1
307,305,306,298,1
306,303,305,296,1
303,301,304,296,1
296,300,303,296,1
284,298,303,298,1
271,298,305,301,1
263,298,307,305,1
264,300,309,308,1
274,302,311,311,1
285,304,311,313,1
295,307,311,315,1
302,309,311,317,1
307,310,312,319,1
308,310,314,321,1
306,310,315,323,1
303,309,315,326,1
302,308,314,329,1
304,306,313,331,1
308,304,312,331,1
314,302,310,328,1
318,300,308,323,1
320,299,306,318,1
319,299,304,315,1
316,299,304,314,1
311,300,303,313,1
306,300,305,315,1
302,302,307,317,1
300,303,308,320,1
299,305,309,321,1
301,306,310,322,1
307,308,310,321,1
314,309,311,319,1
320,310,311,317,1
324,310,311,315,1
323,311,310,313,1
319,311,308,311,1
310,310,306,311,1
302,310,303,315,1
294,310,300,321,1
289,310,299,324,1
288,310,299,324,1
293,309,300,322,1
301,308,301,318,1
309,307,302,314,1
313,305,304,308,1
314,305,306,303,1
313,305,307,299,1
312,305,308,297,1
311,304,308,296,1
311,305,309,295,1
312,305,309,294,1
311,305,308,292,1
308,303,307,291,1
304,303,306,291,1
301,303,305,293,1
300,304,305,294,1
300,305,305,295,1
301,306,306,296,1
300,307,308,296,1
299,306,309,296,1
299,306,308,298,1
301,305,306,301,1
304,304,303,305,1
308,304,300,308,1
314,304,298,311,1
320,304,297,313,1
327,304,299,316,1
330,304,302,318,1
327,305,304,319,1
320,306,305,320,1
311,307,306,319,1
304,308,308,318,1
298,309,309,317,1
294,309,310,315,1
292,310,310,313,1
294,310,309,312,1
297,309,308,312,1
300,308,308,312,1
300,307,307,313,1
297,308,306,313,1
290,307,306,312,1
284,307,305,309,1
279,305,305,305,1
275,304,304,301,1
273,302,304,299,1
277,300,304,300,1
286,300,304,303,1
298,300,305,305,1
309,302,306,308,1
319,303,306,309,1
324,305,306,310,1
324,306,306,309,1
321,306,306,307,1
316,305,305,306,1
313,304,305,306,1
311,303,305,308,1
310,302,306,310,1
310,301,307,314,1
311,302,307,318,1
313,304,308,322,1
314,305,308,326,1
314,306,307,327,1
312,307,306,326,1
309,307,305,324,1
306,306,305,323,1
302,307,305,326,1
303,308,308,330,1
306,309,311,333,1
311,310,313,334,1
314,312,315,331,1
317,312,315,329,1
320,313,315,326,1
321,313,314,324,1
319,312,314,320,1
315,310,312,316,1
310,309,311,311,1
306,307,310,307,1
301,305,309,304,1
299,304,308,303,1
298,304,306,303,1
300,303,305,304,1
305,301,304,304,1
311,300,304,305,1
316,299,303,308,1
320,299,304,315,1
321,301,305,323,1
321,303,306,329,1
320,304,307,334,1
316,306,307,335,1
311,308,307,333,1
307,309,307,328,1
303,310,306,322,1
301,310,306,315,1
300,311,304,309,1
298,312,302,303,1
296,312,299,299,1
294,311,296,298,1
292,309,293,298,1
289,306,293,299,1
290,303,296,299,1
295,301,301,299,1
302,300,306,300,1
308,299,309,302,1
312,297,311,304,1
313,296,310,304,1
311,295,308,304,1
308,295,306,304,1
304,295,304,304,1
300,296,304,306,1
294,298,306,308,1
287,300,307,310,1
285,302,309,313,1
286,304,309,318,1
289,305,310,323,1
293,307,310,328,1
297,309,309,330,1
298,309,308,327,1
297,309,306,319,1
297,308,304,310,1
297,307,302,302,1
297,305,301,298,1
296,304,299,296,1
294,303,299,297,1
294,302,298,299,1
299,301,298,301,1
307,301,297,303,1
313,301,298,307,1
318,303,299,310,1
320,306,301,312,1
319,309,302,311,1
315,310,301,307,1
310,310,299,304,1
308,310,299,302,1
309,310,300,301,1
311,311,300,301,1
313,311,301,301,1
313,311,300,302,1
309,311,300,304,1
303,310,300,306,1
298,309,300,309,1
293,308,300,311,1
291,307,300,312,1
291,306,300,313,1
296,306,301,315,1
301,306,302,317,1
305,307,303,319,1
308,308,303,323,1
310,309,302,327,1
310,310,302,331,1
310,311,301,332,1
307,310,302,328,1
301,308,302,321,1
295,306,302,314,1
293,305,301,309,1
294,305,299,306,1
300,305,298,306,1
307,305,298,308,1
314,306,298,311,1
318,306,298,314,1
319,306,298,316,1
318,306,298,318,1
316,306,297,320,1
316,306,296,322,1
315,304,295,323,1
314,304,294,324,1
315,304,296,326,1
316,304,299,326,1
315,305,301,325,1
313,306,303,322,1
312,308,304,317,1
314,309,305,311,1
316,309,305,307,1
317,309,305,304,1
316,309,306,302,1
314,309,306,303,1
309,309,305,308,1
305,309,304,313,1
303,309,304,318,1
301,309,303,319,1
297,308,303,319,1
296,309,303,318,1
297,308,303,316,1
297,307,303,315,1
295,306,303,313,1
293,304,303,310,1
295,303,304,310,1
301,303,306,310,1
307,304,306,312,1
310,307,306,312,1
311,308,303,310,1
309,309,300,306,1
307,309,296,302,1
305,308,293,299,1
304,307,292,297,1
304,306,294,295,1
304,306,298,294,1
303,305,301,291,1
302,305,304,289,1
300,304,306,289,1
297,303,307,289,1
295,302,307,291,1
295,301,306,292,1
299,301,306,294,1
305,300,305,296,1
310,302,305,298,1
312,304,305,300,1
313,307,307,302,1
312,310,309,304,1
310,312,311,306,1
309,313,312,309,1
308,313,313,312,1
308,313,313,315,1
306,313,312,317,1
304,313,311,318,1
301,312,310,317,1
299,312,309,315,1
295,311,308,312,1
290,310,307,309,1
285,309,306,308,1
283,309,305,309,1
283,309,305,311,1
286,308,306,314,1
289,307,307,316,1
293,306,308,318,1
298,305,308,318,1
303,304,308,318,1
308,305,310,320,1
312,306,311,321,1
313,306,312,322,1
311,307,312,320,1
309,307,311,316,1
307,308,310,313,1
306,308,308,311,1
305,309,307,309,1
307,309,306,307,1
311,309,305,304,1
313,311,304,301,1
314,311,303,298,1
311,312,301,294,1
307,311,299,291,1
304,311,300,291,1
304,311,302,293,1
307,311,305,298,1
310,310,308,304,1
312,309,310,311,1
312,309,312,317,1
312,309,314,321,1
309,310,315,324,1
306,310,315,325,1
303,311,315,326,1
303,311,315,326,1
306,312,315,325,1
309,313,315,323,1
311,314,314,318,1
311,314,313,311,1
312,313,312,303,1
314,312,311,299,1
316,310,311,296,1
318,309,311,294,1
317,308,310,293,1
315,307,310,293,1
312,306,309,293,1
309,305,309,294,1
308,304,309,296,1
310,304,308,299,1
313,304,308,304,1
313,304,310,311,1
311,305,311,320,1
308,307,312,327,1
304,308,313,331,1
300,310,312,330,1
295,310,311,326,1
292,311,310,320,1
293,311,308,313,1
295,311,306,306,1
297,311,305,299,1
299,311,304,293,1
303,310,305,291,1
306,309,307,293,1
308,308,308,297,1
307,308,310,302,1
306,307,310,304,1
305,306,311,304,1
304,305,311,303,1
303,305,311,303,1
303,305,311,304,1
301,305,310,306,1
299,306,310,308,1
297,306,311,310,1
296,307,312,310,1
294,308,311,310,1
292,308,310,309,1
292,309,310,309,1
296,309,309,309,1
302,309,308,309,1
305,308,307,309,1
305,308,307,310,1
303,307,307,312,1
301,306,307,315,1
301,305,307,318,1
303,304,307,321,1
307,303,307,323,1
311,301,306,322,1
313,300,303,319,1
312,299,298,313,1
306,298,292,306,1
298,297,289,299,1
289,297,290,293,1
282,298,295,290,1
279,300,302,289,1
279,302,308,288,1
283,303,312,288,1
294,305,314,290,1
308,306,315,293,1
319,307,315,295,1
324,307,313,298,1
324,308,313,300,1
321,309,312,303,1
315,309,311,306,1
307,309,311,308,1
299,309,311,307,1
294,307,311,305,1
294,305,311,303,1
296,303,311,302,1
302,301,311,304,1
310,301,311,307,1
317,302,313,310,1
322,304,313,312,1
326,305,314,314,1
328,307,314,313,1
329,307,312,309,1
330,308,309,304,1
333,309,306,299,1
336,310,305,297,1
337,311,306,297,1
332,311,307,299,1
321,311,308,301,1
312,311,308,304,1
304,312,308,308,1
301,312,308,312,1
299,311,308,314,1
297,310,307,314,1
296,308,306,313,1
300,307,305,310,1
306,306,304,306,1
311,305,304,302,1
313,305,304,299,1
314,305,302,298,1
316,306,301,300,1
318,307,299,302,1
320,308,299,304,1
321,309,300,304,1
320,310,302,304,1
315,310,303,302,1
305,310,304,299,1
296,310,306,296,1
288,309,307,295,1
282,308,307,296,1
279,307,308,298,1
278,306,309,301,1
281,306,309,304,1
289,306,310,306,1
298,305,309,309,1
307,305,309,316,1
313,305,308,327,1
316,305,309,339,1
319,306,309,349,1
319,307,311,355,1
319,308,312,357,1
318,310,312,355,1
316,312,311,349,1
312,313,308,338,1
306,312,305,323,1
300,311,301,307,1
295,308,299,292,1
290,304,298,281,1
288,302,298,276,1
290,299,300,274,1
292,297,301,275,1
293,296,301,276,1
293,295,300,278,1
291,296,298,279,1
289,296,297,280,1
287,296,297,280,1
288,297,297,281,1
295,299,300,285,1
305,301,303,290,1
312,303,306,297,1
315,304,307,303,1
316,306,308,310,1
316,308,308,315,1
316,309,308,320,1
315,311,307,321,1
314,311,305,319,1
315,312,305,316,1
318,312,304,313,1
321,312,304,310,1
325,312,303,307,1
326,311,302,302,1
323,309,301,298,1
316,307,300,297,1
308,306,301,297,1
300,305,302,298,1
296,304,304,300,1
294,304,304,303,1
296,304,302,308,1
301,306,300,314,1
307,307,298,319,1
312,309,298,321,1
316,311,299,320,1
317,312,301,318,1
317,313,305,316,1
316,313,308,314,1
313,313,310,313,1
310,311,312,312,1
306,310,312,310,1
304,309,312,309,1
302,308,311,306,1
300,307,309,304,1
299,306,307,302,1
298,305,306,301,1
300,304,305,300,1
304,303,305,301,1
309,302,305,302,1
315,301,304,304,1
318,300,305,306,1
319,300,306,307,1
316,300,307,309,1
312,302,307,310,1
305,304,307,311,1
298,306,307,313,1
290,308,306,314,1
283,309,304,315,1
280,310,303,316,1
286,310,302,316,1
295,310,302,316,1
302,309,303,315,1
307,308,302,315,1
311,307,301,315,1
312,306,301,315,1
311,305,303,313,1
309,304,305,312,1
306,303,307,312,1
303,303,309,313,1
301,303,310,315,1
299,303,312,316,1
298,304,312,317,1
296,304,310,320,1
295,305,308,322,1
296,304,307,324,1
299,304,308,323,1
305,304,309,321,1
309,303,310,317,1
311,303,310,312,1
311,303,310,307,1
310,303,310,304,1
309,304,309,303,1
308,305,309,302,1
308,306,310,304,1
308,306,311,305,1
308,307,311,305,1
307,306,312,304,1
304,305,311,305,1
300,303,310,306,1
297,302,311,309,1
297,301,313,312,1
300,301,315,314,1
304,302,315,316,1
308,302,313,314,1
314,302,310,312,1
320,302,306,310,1
325,302,303,310,1
328,303,300,312,1
328,305,299,314,1
325,307,301,316,1
319,309,305,317,1
310,310,310,317,1
305,312,314,316,1
305,313,317,313,1
308,313,318,309,1
310,312,316,304,1
309,311,313,300,1
308,309,312,297,1
308,307,313,295,1
310,305,314,293,1
314,304,316,292,1
320,304,318,292,1
324,306,319,293,1
325,308,319,294,1
322,311,318,295,1
316,313,316,297,1
309,315,313,298,1
301,316,310,299,1
293,316,309,300,1
288,316,308,302,1
286,316,308,303,1
288,315,308,304,1
294,314,308,305,1
300,313,309,306,1
304,312,310,308,1
304,312,309,310,1
300,311,307,312,1
295,309,305,313,1
293,308,305,315,1
295,307,306,315,1
300,306,309,314,1
310,305,311,312,1
319,305,313,309,1
324,305,313,307,1
323,307,311,306,1
319,308,310,304,1
314,308,310,303,1
310,308,310,302,1
308,308,311,304,1
308,307,310,305,1
309,307,308,305,1
310,306,307,304,1
311,305,307,302,1
309,305,307,301,1
304,304,307,305,1
294,302,307,311,1
280,301,308,317,1
267,299,308,323,1
260,299,309,327,1
265,298,308,329,1
279,297,307,329,1
299,298,307,329,1
318,299,307,327,1
333,301,309,324,1
341,303,310,320,1
342,305,310,314,1
341,308,309,307,1
336,310,309,302,1
332,312,309,300,1
330,314,309,302,1
329,317,309,305,1
328,318,308,307,1
325,317,307,309,1
321,316,305,310,1
317,315,304,310,1
312,313,304,308,1
308,310,303,305,1
305,307,302,300,1
304,304,301,297,1
306,303,297,294,1
311,302,294,293,1
316,302,294,295,1
321,303,296,297,1
325,304,299,300,1
328,306,301,304,1
328,307,304,308,1
325,308,307,311,1
320,309,311,312,1
312,309,313,312,1
304,310,314,312,1
299,311,316,312,1
298,313,316,311,1
299,313,316,310,1
304,313,315,310,1
308,312,313,311,1
308,310,312,312,1
306,308,311,313,1
304,305,312,315,1
303,304,313,317,1
305,303,313,317,1
305,303,314,313,1
305,303,313,309,1
303,304,313,308,1
300,306,312,310,1
298,308,311,313,1
296,309,308,316,1
289,310,306,317,1
281,310,304,313,1
279,309,304,309,1
283,309,304,303,1
291,309,304,298,1
302,309,304,294,1
314,310,305,292,1
323,310,306,291,1
324,309,306,293,1
316,308,308,295,1
306,307,309,298,1
299,307,311,300,1
298,308,311,303,1
301,308,309,304,1
309,307,308,305,1
317,307,307,305,1
323,308,307,307,1
328,310,307,313,1
332,312,307,322,1
334,313,307,330,1
333,314,304,335,1
329,315,301,338,1
321,315,300,339,1
314,316,301,338,1
309,316,302,336,1
306,316,304,332,1
303,316,304,327,1
301,315,304,320,1
298,313,304,311,1
297,311,303,302,1
298,309,304,297,1
300,308,305,294,1
305,308,307,293,1
309,308,309,295,1
312,308,309,298,1
315,309,309,300,1
317,310,307,302,1
319,312,306,303,1
319,312,305,302,1
317,311,303,299,1
311,310,301,296,1
305,308,299,293,1
302,308,296,292,1
302,307,295,292,1
306,307,296,292,1
310,307,298,291,1
312,306,297,292,1
311,306,296,292,1
308,306,293,293,1
304,305,291,295,1
301,305,289,299,1
300,305,288,305,1
303,305,290,311,1
306,305,294,316,1
307,304,299,320,1
306,304,303,325,1
303,305,304,328,1
300,306,302,327,1
298,307,300,324,1
300,308,300,318,1
301,309,304,313,1
301,310,307,312,1
299,311,310,313,1
299,312,312,314,1
300,312,312,315,1
303,311,312,314,1
309,310,312,312,1
316,309,312,309,1
323,307,312,306,1
326,306,311,302,1
324,305,309,298,1
322,304,306,294,1
323,304,304,295,1
327,305,304,297,1
327,307,306,303,1
323,308,309,310,1
316,309,311,316,1
308,310,313,320,1
302,312,314,322,1
296,313,314,321,1
291,314,313,319,1
287,313,312,316,1
287,313,310,311,1
292,312,310,308,1
296,311,310,307,1
299,310,310,308,1
302,309,309,309,1
306,309,307,309,1
309,308,306,309,1
312,308,305,307,1
313,306,304,305,1
314,305,304,303,1
315,304,305,304,1
316,304,306,306,1
315,303,308,310,1
314,304,309,313,1
311,306,310,316,1
308,308,310,316,1
305,309,308,313,1
303,309,305,308,1
303,309,300,305,1
303,308,299,305,1
307,308,302,310,1
312,308,306,317,1
315,308,310,321,1
316,306,313,324,1
313,305,313,324,1
307,305,313,323,1
302,306,312,320,1
298,306,309,315,1
296,307,307,310,1
294,306,305,306,1
293,307,305,303,1
294,307,306,302,1
295,307,308,301,1
296,308,309,301,1
296,309,310,302,1
295,309,310,304,1
293,309,310,306,1
290,309,309,308,1
290,310,309,310,1
294,310,309,311,1
300,310,307,309,1
305,309,304,304,1
310,308,300,300,1
315,306,298,298,1
320,305,295,297,1
323,304,296,298,1
326,304,301,300,1
328,305,307,301,1
327,305,312,302,1
324,306,315,304,1
320,306,317,307,1
319,306,317,310,1
318,306,317,311,1
317,307,317,312,1
316,307,316,314,1
316,308,317,316,1
315,309,318,317,1
312,309,318,316,1
308,308,316,313,1
304,308,315,310,1
301,307,313,308,1
300,307,312,308,1
303,307,311,308,1
307,308,310,307,1
310,308,309,307,1
309,309,308,307,1
308,308,309,306,1
309,308,309,305,1
313,307,309,305,1
318,306,310,304,1
320,305,310,303,1
319,304,310,302,1
316,304,309,301,1
311,304,309,300,1
306,305,309,301,1
303,306,310,305,1
299,307,310,313,1
295,309,310,321,1
293,310,310,328,1
291,311,311,333,1
290,312,310,333,1
291,313,310,330,1
294,313,310,324,1
296,313,310,317,1
299,312,309,311,1
301,311,309,305,1
304,309,308,299,1
307,307,307,294,1
309,304,307,288,1
310,302,307,286,1
310,301,307,285,1
311,300,308,286,1
312,299,309,289,1
313,300,310,294,1
314,301,312,298,1
314,302,312,302,1
313,303,313,304,1
310,304,313,305,1
307,305,313,305,1
302,306,312,305,1
296,307,311,305,1
291,308,310,306,1
288,308,311,310,1
286,308,311,316,1
284,308,311,323,1
282,308,312,328,1
283,308,311,331,1
289,307,310,332,1
298,306,309,333,1
308,305,308,332,1
315,303,307,332,1
320,302,307,332,1
322,302,307,332,1
323,302,308,330,1
322,302,308,325,1
321,302,308,317,1
319,303,308,308,1
317,303,307,301,1
314,303,306,296,1
312,303,306,293,1
311,303,305,292,1
309,303,305,292,1
308,303,305,293,1
307,303,305,293,1
305,302,304,294,1
304,301,304,296,1
303,301,303,298,1
302,300,302,302,1
305,300,302,305,1
310,299,302,308,1
314,299,302,310,1
318,299,303,312,1
320,299,304,312,1
319,300,304,311,1
318,301,303,311,1
314,303,303,314,1
308,305,303,318,1
301,307,303,323,1
298,308,304,328,1
300,310,306,331,1
304,312,307,330,1
306,312,308,324,1
309,311,308,317,1
315,308,305,314,1
323,305,302,313,1
329,302,299,313,1
330,300,299,310,1
330,299,299,306,1
328,299,300,301,1
325,300,301,297,1
323,300,302,293,1
321,301,303,290,1
320,302,304,289,1
318,303,304,289,1
315,304,304,291,1
310,305,304,293,1
306,306,305,295,1
304,307,306,298,1
303,309,306,302,1
304,311,305,305,1
303,313,303,309,1
301,314,302,310,1
301,314,301,311,1
300,313,301,310,1
300,311,300,310,1
301,309,297,310,1
303,306,295,310,1
306,303,292,310,1
308,301,289,311,1
308,298,288,310,1
307,296,289,309,1
304,295,292,309,1
300,297,297,309,1
298,299,301,305,1
297,300,304,298,1
299,302,304,291,1
303,303,304,286,1
308,305,304,284,1
311,306,303,283,1
311,306,303,285,1
310,306,303,287,1
309,305,302,289,1
307,304,299,292,1
305,304,297,296,1
306,303,297,299,1
308,304,297,302,1
310,304,299,304,1
310,304,300,305,1
309,304,301,306,1
306,304,302,307,1
304,305,303,310,1
302,305,303,312,1
302,305,303,314,1
304,306,303,315,1
308,307,303,315,1
312,308,303,315,1
315,310,302,314,1
315,310,301,313,1
314,311,298,314,1
313,312,297,316,1
311,313,297,318,1
309,314,298,320,1
307,315,299,321,1
306,316,298,322,1
304,315,297,323,1
300,314,294,322,1
297,311,291,319,1
294,308,291,313,1
293,304,294,306,1
291,301,299,302,1
289,300,304,301,1
293,300,307,303,1
303,301,310,307,1
315,301,310,311,1
323,301,310,312,1
327,301,309,312,1
325,302,308,310,1
319,303,308,309,1
311,304,308,308,1
303,306,308,307,1
294,307,308,307,1
288,309,308,307,1
286,310,309,306,1
287,311,309,304,1
290,312,309,303,1
295,312,309,301,1
303,312,308,300,1
314,311,307,299,1
324,311,306,298,1
330,310,304,299,1
334,308,303,301,1
334,307,304,303,1
331,306,303,306,1
327,304,303,310,1
322,304,303,314,1
320,304,306,315,1
319,304,308,311,1
317,303,309,305,1
313,302,308,298,1
307,301,307,294,1
300,300,305,291,1
295,298,304,290,1
291,298,302,290,1
288,298,302,292,1
286,300,303,293,1
285,302,303,295,1
287,304,303,295,1
291,304,302,296,1
298,304,301,297,1
305,304,301,299,1
311,304,302,302,1
315,304,302,305,1
316,304,303,309,1
316,305,304,313,1
314,307,305,316,1
312,308,307,318,1
308,310,308,319,1
304,310,309,319,1
302,311,307,316,1
299,311,305,313,1
295,311,303,311,1
289,310,301,308,1
284,309,299,306,1
282,308,298,303,1
287,308,298,303,1
296,307,299,303,1
303,307,302,305,1
308,306,304,307,1
310,305,307,309,1
311,303,308,313,1
313,301,309,317,1
315,301,307,320,1
316,300,306,325,1
317,300,304,331,1
318,301,302,339,1
317,302,299,344,1
316,303,296,346,1
314,305,295,343,1
313,306,295,336,1
313,308,298,327,1
312,309,303,318,1
311,309,307,309,1
310,309,310,301,1
307,309,313,297,1
304,308,313,295,1
299,308,313,294,1
294,306,311,294,1
294,304,309,294,1
300,302,309,297,1
304,301,310,300,1
306,299,310,303,1
306,297,310,302,1
307,296,310,301,1
308,297,310,300,1
308,298,310,300,1
306,300,310,301,1
303,303,309,302,1
300,306,309,304,1
301,308,309,305,1
306,309,309,305,1
310,308,309,301,1
310,307,308,297,1
308,306,306,293,1
307,306,304,291,1
305,306,305,292,1
305,306,307,293,1
306,306,308,296,1
308,305,309,299,1
310,305,309,303,1
311,304,309,306,1
311,304,310,310,1
311,304,310,314,1
313,304,311,316,1
317,303,312,317,1
321,302,314,317,1
320,302,315,315,1
316,302,316,314,1
312,303,316,311,1
309,304,316,307,1
307,304,315,305,1
306,305,313,303,1
306,305,312,302,1
305,305,311,301,1
304,304,310,299,1
302,303,308,298,1
300,300,304,298,1
297,298,300,298,1
293,296,297,299,1
289,295,297,301,1
288,295,302,304,1
288,295,306,308,1
287,298,311,313,1
285,300,314,317,1
283,302,315,322,1
286,305,315,326,1
292,308,315,328,1
298,311,315,329,1
305,313,316,328,1
308,315,317,324,1
310,315,317,319,1
311,315,317,314,1
312,314,315,310,1
313,313,313,306,1
315,313,311,302,1
316,311,309,299,1
317,309,308,296,1
318,307,307,295,1
317,305,307,294,1
314,303,307,293,1
308,302,308,293,1
301,300,310,293,1
295,300,311,292,1
291,299,312,295,1
289,299,313,302,1
291,300,315,313,1
298,302,316,324,1
305,304,317,334,1
308,305,315,340,1
309,307,312,343,1
309,307,309,343,1
307,308,305,339,1
303,308,302,330,1
298,308,300,318,1
296,308,301,305,1
299,308,303,294,1
305,307,307,288,1
314,307,310,286,1
319,305,312,285,1
322,304,313,287,1
323,302,313,289,1
322,301,314,292,1
320,301,315,294,1
317,301,316,296,1
314,302,316,297,1
310,303,315,296,1
307,304,313,296,1
305,305,310,295,1
306,307,309,296,1
310,308,311,297,1
314,307,314,299,1
319,307,318,302,1
324,307,319,305,1
327,307,319,308,1
329,307,319,309,1
329,307,318,309,1
328,307,317,308,1
327,307,316,306,1
324,306,314,305,1
318,305,312,305,1
313,305,311,306,1
309,305,311,307,1
309,305,311,308,1
311,305,311,308,1
313,306,310,307,1
313,306,307,306,1
311,307,306,304,1
308,308,306,303,1
305,309,307,304,1
302,311,307,305,1
298,313,305,305,1
296,314,303,303,1
294,315,303,302,1
295,316,304,301,1
295,316,306,303,1
294,316,307,305,1
294,315,308,308,1
295,314,308,311,1
297,312,309,313,1
299,311,310,316,1
301,310,311,318,1
302,309,313,320,1
304,309,314,321,1
304,309,315,321,1
303,310,316,321,1
301,311,317,320,1
299,312,318,318,1
296,312,319,315,1
293,312,318,310,1
287,313,317,305,1
278,313,316,302,1
266,314,315,300,1
259,314,313,300,1
257,313,312,301,1
261,313,311,303,1
268,313,312,305,1
279,313,312,309,1
294,313,312,312,1
311,311,312,314,1
325,310,312,313,1
332,308,310,310,1
335,307,307,308,1
335,306,306,308,1
330,306,306,310,1
322,307,306,313,1
313,309,306,318,1
309,311,305,320,1
309,313,303,321,1
310,314,301,319,1
311,314,299,315,1
310,314,298,309,1
309,314,298,304,1
309,313,298,299,1
312,312,301,296,1
316,310,305,294,1
318,309,307,292,1
317,308,308,291,1
313,307,309,291,1
305,306,309,292,1
300,304,310,295,1
299,303,311,301,1
300,302,312,311,1
303,301,313,321,1
305,301,313,330,1
306,303,313,337,1
307,305,313,340,1
306,307,313,340,1
305,308,313,337,1
305,309,314,332,1
307,310,313,327,1
310,311,313,322,1
314,312,311,316,1
318,313,311,311,1
322,313,310,307,1
326,312,308,303,1
328,310,305,298,1
325,306,301,294,1
316,304,299,290,1
310,302,299,287,1
307,300,300,286,1
304,299,303,288,1
302,299,306,293,1
300,300,308,300,1
299,303,310,308,1
297,304,311,315,1
296,306,313,321,1
294,309,314,328,1
293,312,316,333,1
293,316,316,335,1
290,318,316,334,1
285,319,315,330,1
279,319,314,327,1
277,319,312,324,1
277,319,312,323,1
280,319,312,320,1
285,318,312,315,1
290,317,311,312,1
294,315,310,308,1
297,313,309,306,1
299,311,307,306,1
300,308,305,307,1
302,306,305,309,1
305,305,305,312,1
308,304,305,313,1
310,304,305,314,1
312,305,305,313,1
313,305,306,312,1
313,306,306,310,1
312,306,306,307,1
308,307,305,301,1
300,307,304,294,1
294,307,303,287,1
292,307,301,283,1
294,308,299,283,1
296,309,298,287,1
300,310,299,292,1
304,311,299,298,1
307,311,297,303,1
305,310,295,304,1
302,308,295,303,1
298,306,297,299,1
297,304,299,295,1
298,303,301,292,1
302,303,303,292,1
307,303,304,293,1
311,304,305,296,1
312,306,306,300,1
312,308,307,304,1
310,308,308,309,1
307,308,308,314,1
304,309,307,318,1
307,309,303,323,1
315,309,301,328,1
322,310,300,331,1
324,309,302,332,1
323,308,302,329,1
319,306,302,323,1
316,304,300,315,1
313,303,299,307,1
312,301,298,300,1
310,299,298,295,1
310,299,300,291,1
309,300,301,290,1
310,301,302,291,1
311,304,303,292,1
312,306,304,292,1
311,309,305,290,1
309,311,304,288,1
305,312,302,286,1
303,313,299,284,1
301,314,297,286,1
300,314,295,289,1
300,314,293,294,1
300,313,291,300,1
299,312,289,306,1
298,312,289,310,1
299,311,290,314,1
302,311,295,316,1
306,312,301,319,1
310,312,305,321,1
312,310,308,320,1
313,308,309,319,1
313,305,308,317,1
312,302,307,316,1
309,301,306,315,1
307,300,305,314,1
303,300,305,314,1
300,300,305,312,1
297,302,305,307,1
296,304,305,301,1
296,305,305,295,1
297,307,304,291,1
297,307,304,289,1
298,306,303,289,1
302,306,302,292,1
306,306,302,294,1
311,306,303,297,1
315,307,305,299,1
319,308,306,301,1
320,307,307,303,1
318,307,307,305,1
314,306,306,307,1
308,307,306,308,1
303,307,306,310,1
299,308,306,311,1
296,309,306,310,1
294,310,307,310,1
293,312,307,309,1
295,313,306,308,1
299,314,306,308,1
302,313,306,309,1
303,313,305,311,1
303,312,305,314,1
304,311,305,319,1
304,310,304,323,1
305,310,304,326,1
306,310,302,326,1
306,309,300,323,1
305,308,298,319,1
306,307,298,314,1
307,305,299,311,1
308,304,301,309,1
310,303,303,307,1
310,303,304,307,1
311,302,305,310,1
311,303,307,313,1
308,303,308,315,1
304,304,308,315,1
302,305,307,313,1
304,307,305,309,1
308,309,304,304,1
309,310,305,301,1
309,311,307,298,1
306,311,309,296,1
303,310,310,296,1
300,309,310,296,1
297,308,310,295,1
297,307,311,294,1
298,306,312,291,1
301,305,312,289,1
305,304,313,288,1
310,304,314,290,1
314,304,314,297,1
318,305,314,306,1
320,306,314,317,1
320,306,314,325,1
319,306,314,329,1
316,306,313,328,1
311,307,312,325,1
306,307,311,321,1
302,308,311,315,1
300,308,311,307,1
297,308,311,300,1
295,308,311,296,1
297,309,311,294,1
300,309,311,295,1
303,309,311,296,1
303,308,312,299,1
302,306,311,303,1
300,305,310,309,1
300,303,308,313,1
301,302,307,316,1
305,301,306,316,1
314,301,306,315,1
322,301,305,312,1
327,301,304,309,1
331,302,303,305,1
332,303,304,301,1
329,304,305,299,1
323,306,309,298,1
318,307,313,298,1
312,307,316,297,1
308,307,318,297,1
304,307,320,298,1
301,307,319,300,1
298,308,320,305,1
295,308,320,313,1
293,308,321,321,1
293,307,321,328,1
294,306,320,331,1
294,306,318,330,1
291,304,316,324,1
292,304,315,317,1
297,304,314,310,1
304,304,315,304,1
310,305,315,299,1
314,305,316,296,1
316,305,317,294,1
316,306,318,293,1
315,306,318,293,1
314,307,318,295,1
312,306,317,300,1
311,307,317,308,1
309,308,318,320,1
306,309,320,333,1
303,309,321,343,1
301,309,321,347,1
300,309,319,346,1
300,307,317,342,1
299,306,316,337,1
300,305,316,333,1
303,304,316,332,1
306,302,316,332,1
309,302,316,332,1
311,302,316,330,1
312,302,316,325,1
313,302,317,319,1
313,303,319,313,1
312,303,320,308,1
311,304,321,303,1
310,304,320,300,1
308,304,318,298,1
308,304,316,298,1
307,305,315,299,1
306,305,314,301,1
304,304,312,302,1
302,304,309,300,1
301,301,308,296,1
300,299,307,292,1
297,297,307,291,1
298,296,309,294,1
301,295,312,300,1
302,295,314,307,1
300,296,316,313,1
296,297,316,317,1
295,299,317,318,1
298,302,317,313,1
305,303,316,304,1
312,305,315,294,1
319,306,314,288,1
323,307,313,287,1
323,307,312,291,1
320,307,311,296,1
314,307,310,300,1
309,306,310,302,1
307,305,310,301,1
307,304,309,300,1
306,303,307,298,1
306,302,306,295,1
304,301,305,293,1
304,300,305,291,1
306,300,306,289,1
308,301,306,286,1
311,302,307,282,1
313,303,308,279,1
314,305,310,277,1
315,306,311,278,1
318,307,312,280,1
319,308,311,283,1
318,309,310,288,1
317,309,310,291,1
314,309,310,293,1
311,309,309,295,1
306,309,307,296,1
301,309,305,297,1
300,309,303,298,1
305,309,300,298,1
313,307,297,297,1
317,306,294,296,1
317,305,294,296,1
314,303,296,297,1
313,301,300,298,1
314,300,304,300,1
315,300,308,303,1
315,300,312,306,1
312,300,315,310,1
307,302,318,316,1
301,303,318,323,1
297,305,318,330,1
294,307,318,334,1
293,308,317,334,1
293,308,316,330,1
293,309,316,324,1
293,310,315,315,1
292,310,314,307,1
293,310,312,301,1
295,309,311,296,1
298,307,310,292,1
301,305,308,289,1
304,303,307,288,1
305,300,307,288,1
305,299,306,287,1
303,297,304,288,1
301,296,300,289,1
298,296,297,290,1
296,298,294,292,1
295,300,294,295,1
298,304,296,299,1
301,307,299,303,1
301,309,304,307,1
298,312,308,310,1
293,313,310,312,1
287,314,310,313,1
281,314,310,313,1
277,314,310,314,1
278,314,311,316,1
288,314,311,316,1
302,312,312,317,1
314,310,312,316,1
322,307,311,315,1
322,304,308,314,1
318,301,306,312,1
313,299,304,311,1
311,298,302,311,1
309,300,302,311,1
309,303,302,311,1
309,305,302,310,1
309,307,301,308,1
310,308,301,306,1
311,309,302,305,1
310,309,302,304,1
306,310,300,302,1
299,310,296,300,1
294,310,292,298,1
296,309,288,299,1
302,309,286,299,1
308,308,286,300,1
312,307,290,299,1
313,305,294,298,1
313,303,297,298,1
312,301,299,299,1
310,300,301,300,1
309,299,302,301,1
309,300,303,302,1
308,301,303,304,1
308,303,302,306,1
309,306,302,307,1
308,308,300,306,1
304,309,298,304,1
299,309,296,303,1
292,309,295,302,1
284,308,296,303,1
278,307,297,306,1
275,307,297,309,1
277,307,297,311,1
283,307,296,312,1
290,308,295,313,1
295,308,294,313,1
296,307,292,310,1
293,305,290,308,1
289,304,288,307,1
286,302,288,308,1
287,302,290,311,1
289,302,291,316,1
292,304,292,320,1
294,306,291,322,1
295,307,290,322,1
297,309,289,321,1
300,311,289,318,1
306,311,289,313,1
311,311,289,307,1
315,310,288,302,1
316,309,287,296,1
315,307,286,291,1
314,305,285,287,1
312,302,284,284,1
309,299,283,281,1
305,295,281,279,1
300,292,280,279,1
297,289,280,280,1
297,288,280,284,1
300,287,278,290,1
305,288,277,296,1
311,291,277,302,1
315,294,280,305,1
317,298,284,305,1
315,301,286,303,1
309,302,285,302,1
300,304,283,302,1
290,304,281,302,1
282,305,281,304,1
275,306,282,305,1
271,306,283,306,1
270,307,284,305,1
271,307,284,304,1
272,306,283,303,1
275,305,281,301,1
285,303,279,298,1
298,301,277,297,1
307,299,276,296,1
311,297,275,297,1
311,296,274,298,1
307,296,275,300,1
304,296,276,302,1
302,297,277,306,1
301,298,278,310,1
299,299,277,314,1
294,300,276,317,1
289,302,276,317,1
288,303,275,315,1
290,305,276,314,1
294,305,276,311,1
297,306,276,306,1
300,307,276,301,1
303,307,275,297,1
304,306,275,293,1
302,306,274,292,1
300,304,273,292,1
297,303,273,293,1
296,301,273,295,1
295,300,272,296,1
299,299,272,298,1
305,299,271,300,1
313,300,270,302,1
320,302,268,305,1
322,304,266,308,1
321,306,265,310,1
318,308,264,312,1
315,308,264,312,1
311,309,266,312,1
304,310,269,310,1
297,310,273,309,1
289,309,276,307,1
284,308,277,304,1
280,307,278,301,1
279,307,278,299,1
282,307,278,299,1
287,308,277,301,1
292,307,276,303,1
295,307,276,303,1
298,306,276,303,1
299,305,276,302,1
297,304,276,301,1
292,303,276,300,1
290,301,277,300,1
288,300,277,300,1
288,300,277,301,1
288,300,274,301,1
290,300,271,300,1
294,300,269,299,1
300,300,270,298,1
305,301,272,299,1
307,302,273,301,1
305,303,275,304,1
302,304,277,309,1
297,304,278,314,1
293,304,278,318,1
292,302,279,321,1
294,301,279,320,1
298,299,279,320,1
300,298,280,318,1
302,296,281,314,1
304,296,282,311,1
307,297,284,308,1
307,298,285,306,1
304,299,285,305,1
298,301,286,304,1
296,303,287,303,1
297,304,288,303,1
300,305,288,303,1
301,306,288,303,1
301,305,287,302,1
300,305,286,301,1
300,305,284,302,1
300,307,283,303,1
301,308,285,303,1
302,309,288,303,1
304,310,292,304,1
306,310,294,304,1
