303,299,287,304,2
303,305,282,307,2
303,306,282,309,2
304,304,284,311,2
304,301,289,313,2
305,301,292,314,2
304,305,293,314,2
304,311,292,313,2
304,317,289,312,2
303,321,289,313,2
303,322,290,314,2
304,319,292,314,2
304,313,293,313,2
305,307,293,311,2
304,301,289,308,2
304,296,286,305,2
305,292,287,304,2
305,289,290,304,2
305,288,294,305,2
305,288,298,306,2
305,289,301,309,2
305,291,300,316,2
305,294,297,325,2
304,299,292,333,2
303,308,287,337,2
303,317,282,336,2
301,322,280,331,2
301,324,279,327,2
301,322,280,323,2
301,320,279,318,2
301,316,279,312,2
302,311,279,306,2
302,305,279,301,2
303,300,280,296,2
303,299,281,292,2
303,303,282,288,2
303,307,281,285,2
302,311,278,282,2
301,314,274,281,2
301,320,272,283,2
302,325,272,287,2
303,328,273,294,2
304,327,274,300,2
304,325,276,305,2
304,319,277,308,2
303,310,276,307,2
302,301,275,305,2
301,294,275,304,2
301,293,276,302,2
301,294,280,301,2
301,296,285,299,2
301,297,292,299,2
301,297,298,297,2
301,296,298,296,2
300,298,294,296,2
300,298,285,295,2
300,298,275,295,2
301,296,269,297,2
302,292,268,299,2
304,289,270,302,2
305,290,274,306,2
305,296,275,311,2
305,307,276,314,2
304,318,277,316,2
303,327,279,316,2
302,333,280,315,2
301,336,279,313,2
300,336,275,311,2
300,332,270,310,2
300,326,266,310,2
301,320,265,311,2
301,318,265,314,2
302,317,265,316,2
302,315,266,318,2
303,311,266,317,2
304,306,270,315,2
305,302,276,312,2
307,299,283,309,2
308,297,289,306,2
310,295,293,306,2
311,296,294,306,2
312,298,291,305,2
311,302,287,302,2
310,303,284,299,2
308,304,280,297,2
306,306,275,297,2
305,311,270,299,2
303,318,264,302,2
303,323,261,307,2
302,329,259,310,2
302,333,258,311,2
302,337,258,310,2
302,341,258,309,2
302,344,259,308,2
302,344,262,308,2
303,339,265,308,2
305,330,268,308,2
308,316,271,307,2
311,300,272,305,2
313,287,273,302,2
314,280,272,299,2
314,281,270,298,2
314,289,267,300,2
312,301,266,304,2
310,310,265,310,2
308,318,265,314,2
306,326,266,316,2
305,331,270,315,2
304,335,276,312,2
303,333,280,308,2
302,327,278,305,2
302,319,275,305,2
302,312,274,306,2
303,306,273,307,2
304,302,273,307,2
304,300,273,305,2
304,299,272,303,2
304,298,270,300,2
304,299,266,296,2
305,301,264,294,2
307,305,266,292,2
309,307,269,291,2
310,305,273,292,2
311,297,276,295,2
311,288,278,298,2
310,279,275,302,2
309,276,273,307,2
308,281,272,312,2
307,291,273,316,2
306,301,273,319,2
304,311,274,320,2
303,317,275,319,2
301,319,278,319,2
301,319,281,316,2
301,318,280,316,2
302,317,277,317,2
302,316,273,319,2
303,315,270,320,2
304,314,268,319,2
305,312,267,316,2
307,308,268,314,2
308,302,268,311,2
309,294,270,308,2
309,286,273,305,2
309,283,277,303,2
309,287,281,302,2
308,295,284,301,2
306,304,285,302,2
303,311,283,302,2
301,317,280,302,2
299,322,277,301,2
298,328,275,300,2
298,334,273,297,2
298,340,272,293,2
298,346,271,290,2
299,349,269,286,2
299,346,268,284,2
300,337,267,283,2
302,326,268,281,2
304,313,271,282,2
306,302,276,284,2
308,297,280,286,2
309,298,283,288,2
309,301,285,292,2
309,305,283,297,2
308,311,279,301,2
306,318,274,307,2
304,324,271,313,2
301,330,269,319,2
300,335,267,323,2
299,340,266,327,2
298,343,265,329,2
298,339,265,327,2
300,328,263,322,2
301,312,262,314,2
303,297,261,302,2
304,284,263,291,2
306,275,267,283,2
308,269,275,280,2
309,268,281,281,2
309,274,284,285,2
309,283,287,290,2
309,292,288,296,2
309,300,291,301,2
308,306,292,304,2
307,308,290,306,2
305,307,286,307,2
303,303,278,307,2
302,298,271,308,2
302,298,266,310,2
301,301,264,311,2
300,305,265,312,2
300,308,267,312,2
300,309,268,313,2
300,309,266,312,2
300,306,266,309,2
301,301,264,304,2
301,294,263,298,2
302,287,262,293,2
303,283,262,290,2
304,283,262,291,2
305,291,264,296,2
305,302,267,302,2
304,310,270,307,2
304,315,273,311,2
304,317,274,314,2
303,316,275,314,2
302,315,275,312,2
302,316,274,309,2
301,320,273,305,2
301,325,273,302,2
300,333,272,302,2
300,342,271,307,2
300,350,270,313,2
301,353,271,317,2
301,349,273,316,2
301,337,274,312,2
303,318,276,307,2
306,299,278,303,2
309,285,280,299,2
311,277,282,296,2
311,273,283,292,2
310,271,284,289,2
309,270,286,286,2
308,272,288,284,2
307,278,291,285,2
305,287,292,286,2
302,296,293,288,2
300,306,298,291,2
299,313,306,294,2
299,316,314,297,2
300,317,320,299,2
301,317,322,301,2
302,318,316,302,2
302,319,300,302,2
301,320,284,302,2
301,323,274,301,2
302,328,268,301,2
302,333,264,302,2
304,337,261,304,2
305,338,261,307,2
306,335,262,311,2
307,329,265,315,2
307,321,268,319,2
307,313,272,320,2
306,304,274,318,2
306,297,277,314,2
306,293,280,311,2
305,292,282,308,2
304,292,283,306,2
303,295,283,304,2
302,297,282,303,2
301,300,282,300,2
300,302,281,299,2
300,302,281,298,2
301,302,280,298,2
301,302,279,297,2
302,300,278,296,2
304,296,278,296,2
307,291,279,295,2
309,284,281,296,2
311,276,284,298,2
313,272,287,302,2
315,276,290,308,2
315,290,292,314,2
314,310,293,317,2
311,329,293,319,2
308,343,293,320,2
306,348,293,321,2
304,345,294,321,2
303,337,295,320,2
303,327,296,320,2
303,318,296,318,2
303,312,296,316,2
305,309,295,313,2
306,308,294,309,2
306,310,292,304,2
305,317,289,300,2
304,328,288,300,2
304,335,287,301,2
305,338,289,304,2
306,335,291,307,2
307,325,294,311,2
309,311,298,315,2
310,297,302,319,2
310,287,308,323,2
310,285,314,326,2
310,287,320,328,2
309,290,324,330,2
309,294,324,332,2
308,299,320,333,2
307,305,314,332,2
307,309,309,329,2
307,312,304,324,2
307,313,302,318,2
308,313,298,311,2
308,307,293,304,2
309,297,290,300,2
310,285,291,297,2
311,273,296,296,2
312,262,304,298,2
313,255,311,301,2
314,256,315,304,2
313,265,318,308,2
312,278,320,311,2
310,293,320,316,2
308,307,318,321,2
307,317,316,324,2
306,322,314,322,2
306,323,309,316,2
305,321,303,307,2
306,319,298,297,2
306,314,295,289,2
306,307,295,284,2
306,301,294,281,2
305,298,294,280,2
304,300,295,282,2
303,305,295,284,2
303,311,295,288,2
303,315,296,291,2
305,314,296,294,2
306,311,297,297,2
309,310,298,300,2
311,311,300,304,2
311,311,301,306,2
311,310,302,308,2
309,308,303,308,2
308,303,303,307,2
307,300,303,306,2
306,298,303,306,2
305,299,303,306,2
305,303,304,308,2
306,310,304,310,2
306,315,304,313,2
307,320,304,314,2
308,323,303,314,2
310,326,302,311,2
311,328,300,307,2
313,326,299,305,2
315,322,299,303,2
315,317,299,303,2
315,311,299,303,2
315,298,301,304,2
314,282,303,305,2
313,269,306,308,2
312,265,310,312,2
311,269,313,317,2
311,277,315,321,2
310,287,316,324,2
308,297,314,326,2
307,306,310,328,2
307,312,305,328,2
307,316,300,327,2
306,317,298,323,2
306,315,298,319,2
306,313,298,312,2
306,311,298,303,2
306,312,297,296,2
308,314,297,290,2
309,315,296,288,2
309,313,297,288,2
309,309,298,290,2
309,302,299,292,2
309,295,299,296,2
308,293,300,299,2
307,298,300,299,2
305,307,299,299,2
304,317,300,298,2
303,325,304,300,2
303,330,310,303,2
304,333,314,305,2
303,333,315,308,2
304,332,313,310,2
304,328,311,314,2
305,320,310,320,2
307,310,310,327,2
308,301,309,334,2
309,297,308,340,2
310,298,307,341,2
311,300,306,338,2
311,299,305,332,2
310,296,304,325,2
310,295,304,318,2
309,293,304,312,2
308,293,305,307,2
307,294,306,303,2
306,295,308,299,2
304,295,309,295,2
303,293,311,292,2
303,289,313,288,2
303,288,316,287,2
303,289,320,287,2
304,291,323,290,2
306,297,322,293,2
307,307,318,296,2
306,319,311,298,2
304,329,302,300,2
302,338,293,304,2
302,344,288,308,2
303,344,286,312,2
304,341,287,318,2
305,336,288,324,2
305,330,291,330,2
306,324,294,333,2
305,321,297,333,2
305,322,298,331,2
304,323,299,327,2
303,319,301,322,2
303,310,304,318,2
304,298,306,315,2
304,288,309,313,2
305,282,311,313,2
305,277,311,313,2
305,272,308,313,2
305,269,304,312,2
306,268,301,310,2
306,268,298,306,2
306,269,295,303,2
307,271,293,300,2
308,273,292,299,2
308,274,291,298,2
309,275,291,299,2
309,276,292,301,2
309,280,295,305,2
309,288,299,309,2
309,302,304,313,2
309,319,308,315,2
309,331,310,314,2
307,338,308,311,2
307,337,305,310,2
307,329,303,309,2
306,318,301,310,2
304,309,299,312,2
303,303,297,316,2
303,298,299,319,2
303,295,303,322,2
305,294,309,324,2
307,295,313,324,2
309,297,317,323,2
311,298,318,319,2
311,299,317,315,2
309,299,314,313,2
307,299,311,313,2
307,299,310,316,2
307,301,310,320,2
307,303,307,323,2
307,311,301,325,2
306,326,297,326,2
305,345,293,326,2
304,364,291,324,2
303,377,290,321,2
301,376,289,316,2
300,358,287,312,2
300,330,286,308,2
300,305,287,305,2
302,287,289,302,2
303,274,290,298,2
305,266,292,295,2
305,263,293,292,2
306,264,293,290,2
306,268,291,290,2
306,273,289,292,2
306,279,288,295,2
306,284,287,300,2
306,289,287,306,2
305,293,287,311,2
304,298,288,318,2
304,300,290,325,2
304,300,291,330,2
304,302,290,333,2
305,304,290,334,2
305,306,292,333,2
305,306,298,329,2
304,308,305,324,2
303,312,311,318,2
302,317,313,311,2
302,320,311,304,2
302,319,306,297,2
302,316,303,291,2
303,309,302,287,2
304,299,306,284,2
305,288,312,283,2
306,282,318,285,2
307,282,322,287,2
305,285,319,290,2
304,292,312,293,2
302,302,305,297,2
300,312,301,299,2
300,322,300,303,2
300,333,301,306,2
301,344,300,309,2
302,349,297,309,2
302,346,293,309,2
302,336,291,308,2
302,321,291,307,2
303,305,292,305,2
303,290,294,303,2
304,282,297,301,2
304,281,303,300,2
306,283,311,301,2
308,284,318,303,2
311,286,324,307,2
313,289,326,311,2
314,293,321,314,2
312,296,312,315,2
310,297,303,314,2
308,299,299,311,2
307,301,296,309,2
306,304,294,308,2
305,307,292,309,2
304,312,292,312,2
303,315,292,315,2
302,314,293,319,2
302,313,294,321,2
302,312,296,323,2
304,310,296,323,2
306,306,296,324,2
308,302,296,326,2
311,298,297,330,2
313,296,299,334,2
314,296,302,338,2
315,298,305,341,2
316,302,308,341,2
317,307,311,338,2
317,314,313,331,2
316,321,312,320,2
314,326,311,307,2
311,328,308,295,2
308,326,306,285,2
306,323,306,281,2
305,321,306,281,2
305,321,307,283,2
305,322,308,286,2
305,319,307,289,2
305,316,305,292,2
305,311,303,295,2
305,305,302,297,2
306,301,303,300,2
308,302,307,303,2
309,307,313,305,2
310,313,318,305,2
309,318,321,304,2
309,321,324,301,2
308,321,326,298,2
307,319,330,295,2
307,317,333,293,2
306,318,334,292,2
304,319,329,291,2
303,317,322,292,2
302,310,317,295,2
302,300,314,298,2
304,291,313,303,2
305,283,314,309,2
308,278,315,313,2
310,275,317,315,2
312,273,321,314,2
314,272,326,311,2
316,273,331,306,2
318,275,336,299,2
319,279,340,293,2
319,282,340,290,2
318,281,338,290,2
316,278,336,292,2
314,275,335,296,2
313,281,334,302,2
311,292,333,308,2
308,305,331,314,2
306,317,327,319,2
303,326,324,321,2
302,333,322,318,2
302,335,321,314,2
302,334,321,310,2
302,330,321,308,2
303,328,323,307,2
304,327,326,306,2
304,330,329,306,2
304,335,332,306,2
305,339,333,308,2
307,343,332,309,2
308,344,329,311,2
308,339,323,312,2
308,332,318,314,2
309,321,316,314,2
310,313,316,313,2
311,309,318,310,2
311,309,320,306,2
311,309,320,302,2
311,307,320,299,2
311,300,322,301,2
311,291,326,307,2
310,287,332,317,2
310,291,337,329,2
308,298,340,339,2
306,305,340,345,2
305,308,338,347,2
304,306,334,344,2
304,302,329,338,2
304,296,326,330,2
305,290,323,319,2
305,288,321,308,2
304,286,320,296,2
304,286,320,286,2
303,288,319,279,2
302,290,319,276,2
302,294,319,277,2
302,298,320,279,2
302,302,321,281,2
302,306,323,283,2
303,310,326,285,2
304,311,328,287,2
304,312,329,289,2
305,312,326,293,2
305,314,321,296,2
305,317,316,298,2
306,321,314,300,2
308,322,312,300,2
309,320,311,300,2
310,314,311,297,2
311,301,313,295,2
312,291,317,295,2
313,285,322,297,2
314,286,326,303,2
314,291,331,309,2
313,300,335,316,2
313,309,337,321,2
312,315,336,325,2
312,316,334,327,2
311,316,328,326,2
310,316,322,323,2
309,316,318,318,2
308,316,315,313,2
307,317,311,308,2
306,316,305,305,2
305,315,302,304,2
304,313,299,303,2
304,312,298,302,2
304,312,298,302,2
304,313,301,300,2
305,317,304,299,2
306,322,304,298,2
308,330,304,298,2
309,338,304,298,2
309,345,305,298,2
308,350,306,300,2
308,352,308,302,2
308,346,312,306,2
307,332,317,311,2
307,315,324,316,2
306,299,329,322,2
305,291,330,331,2
305,290,328,341,2
304,293,325,350,2
303,298,321,356,2
303,301,317,358,2
302,303,313,356,2
302,303,310,350,2
303,302,306,342,2
303,301,303,333,2
304,305,301,323,2
305,314,300,314,2
306,325,299,307,2
307,333,299,303,2
307,334,299,301,2
307,326,301,301,2
307,313,304,303,2
308,298,309,303,2
307,288,313,300,2
306,282,318,295,2
305,280,321,290,2
303,282,325,288,2
302,286,325,287,2
301,289,323,289,2
300,291,319,292,2
299,293,314,296,2
299,294,308,300,2
300,295,300,302,2
301,295,292,303,2
303,292,287,302,2
304,287,285,302,2
306,281,285,302,2
308,277,287,303,2
310,276,289,304,2
310,279,291,306,2
310,287,293,309,2
309,297,296,313,2
308,308,298,317,2
307,317,300,320,2
306,321,301,321,2
304,322,300,322,2
303,324,300,322,2
302,325,299,320,2
302,326,297,317,2
302,327,296,312,2
302,329,296,307,2
303,331,295,303,2
303,331,294,299,2
304,329,294,296,2
305,326,294,294,2
306,321,295,292,2
307,317,296,290,2
309,313,298,289,2
310,312,301,290,2
311,315,303,292,2
311,319,304,296,2
310,319,304,300,2
309,312,303,303,2
308,302,303,305,2
306,292,304,308,2
304,282,305,312,2
303,277,305,316,2
303,276,304,321,2
303,282,303,325,2
303,290,303,329,2
303,300,306,329,2
302,306,309,328,2
302,308,312,326,2
302,305,312,324,2
303,298,308,323,2
303,290,303,322,2
304,284,301,321,2
305,284,300,320,2
305,290,300,319,2
306,297,301,319,2
306,303,304,320,2
305,308,306,320,2
305,310,308,320,2
305,310,310,318,2
304,309,312,314,2
304,307,314,310,2
303,305,313,307,2
302,304,308,306,2
302,305,303,308,2
302,306,301,312,2
303,307,300,315,2
303,306,299,315,2
304,302,298,314,2
304,296,297,311,2
306,290,296,307,2
307,287,296,303,2
307,292,296,300,2
308,306,297,301,2
308,323,298,302,2
307,336,302,303,2
306,342,309,304,2
305,340,317,305,2
306,330,322,305,2
308,315,324,305,2
310,299,324,306,2
310,286,320,308,2
309,277,313,309,2
306,271,308,311,2
302,270,306,313,2
300,275,305,315,2
299,282,304,315,2
298,289,300,313,2
299,294,298,308,2
300,297,297,303,2
300,299,298,297,2
301,302,300,292,2
303,305,301,288,2
304,310,303,287,2
306,315,304,289,2
306,318,302,292,2
305,319,299,297,2
304,316,298,301,2
304,311,298,304,2
303,304,299,306,2
303,297,300,308,2
304,295,301,310,2
304,297,301,310,2
305,303,301,307,2
306,311,303,304,2
307,319,307,301,2
308,325,313,299,2
310,330,318,299,2
311,331,317,300,2
311,327,311,301,2
311,317,303,304,2
311,306,298,309,2
312,298,296,314,2
311,294,297,317,2
310,296,298,317,2
308,300,299,315,2
307,302,302,314,2
307,303,305,315,2
307,305,308,317,2
306,306,311,318,2
305,306,315,317,2
305,307,320,316,2
304,310,324,315,2
305,316,327,315,2
306,321,326,315,2
307,326,319,312,2
308,329,307,307,2
309,333,298,301,2
310,332,292,295,2
308,327,291,288,2
308,322,291,284,2
307,319,294,283,2
307,317,298,286,2
307,315,301,290,2
307,313,301,295,2
307,314,300,298,2
308,316,300,301,2
309,318,302,304,2
311,318,303,306,2
311,313,305,309,2
311,308,307,310,2
310,306,308,309,2
308,305,310,307,2
308,305,310,305,2
308,306,309,305,2
307,307,309,305,2
308,309,308,306,2
308,310,308,305,2
309,307,307,304,2
310,299,307,301,2
312,288,305,297,2
312,277,303,293,2
313,264,302,292,2
315,253,301,294,2
316,249,302,302,2
316,255,302,312,2
315,269,303,321,2
314,285,305,327,2
313,299,307,331,2
312,311,309,332,2
312,320,311,331,2
311,325,313,328,2
311,328,313,326,2
311,332,312,323,2
311,335,311,319,2
310,337,309,315,2
309,337,306,311,2
309,334,302,306,2
309,328,300,301,2
309,319,298,297,2
308,310,298,295,2
308,302,297,294,2
309,297,297,297,2
310,296,297,300,2
311,297,298,303,2
312,302,300,304,2
313,308,302,303,2
313,313,302,301,2
311,316,302,298,2
310,317,301,296,2
309,314,300,295,2
308,308,300,294,2
308,303,300,295,2
308,301,301,297,2
307,304,301,299,2
306,307,301,300,2
305,313,300,302,2
304,317,298,303,2
301,317,295,302,2
300,311,294,301,2
300,300,296,302,2
302,290,300,308,2
305,285,305,315,2
308,285,305,323,2
312,288,302,330,2
314,293,300,334,2
315,298,301,337,2
314,302,303,337,2
313,306,304,334,2
311,308,304,328,2
310,311,305,321,2
309,315,305,313,2
307,323,304,305,2
306,331,301,299,2
304,334,296,295,2
303,329,292,292,2
302,316,290,289,2
301,297,290,286,2
301,275,291,284,2
301,259,292,283,2
301,255,294,286,2
302,263,295,291,2
302,276,295,296,2
302,290,296,298,2
302,300,298,300,2
302,308,302,302,2
302,314,307,304,2
302,321,312,306,2
303,327,315,308,2
302,329,316,309,2
301,331,312,311,2
300,333,307,314,2
301,335,304,317,2
301,333,303,319,2
301,323,304,319,2
302,309,305,317,2
302,299,307,315,2
302,293,308,315,2
303,289,309,314,2
303,287,307,313,2
303,286,305,313,2
305,288,304,315,2
305,294,305,316,2
306,300,307,317,2
306,305,310,319,2
305,311,311,322,2
305,314,312,327,2
304,314,313,330,2
304,313,313,330,2
305,314,310,328,2
305,315,306,326,2
304,316,304,324,2
302,313,302,320,2
302,309,302,314,2
302,303,301,306,2
303,300,301,301,2
304,301,300,297,2
306,303,301,297,2
307,303,304,298,2
308,299,306,300,2
308,296,308,302,2
307,294,309,303,2
306,291,310,302,2
305,288,309,300,2
305,287,308,298,2
304,289,310,297,2
305,291,313,296,2
306,295,317,294,2
305,299,321,293,2
305,303,325,291,2
304,305,328,290,2
304,307,329,289,2
304,309,328,288,2
304,312,326,287,2
304,315,320,287,2
304,318,315,288,2
304,323,312,290,2
304,333,311,293,2
303,346,311,298,2
303,357,312,304,2
303,358,315,310,2
304,350,319,315,2
305,336,322,319,2
307,323,327,321,2
310,311,331,321,2
312,301,336,320,2
314,291,339,319,2
314,283,338,318,2
314,279,335,317,2
312,280,329,315,2
309,284,322,315,2
307,288,317,317,2
305,292,315,320,2
305,297,314,323,2
305,301,313,321,2
305,306,313,317,2
304,309,311,311,2
304,314,308,307,2
304,318,305,303,2
304,323,302,298,2
304,326,300,294,2
305,328,300,290,2
305,326,302,286,2
305,320,305,283,2
305,310,308,282,2
306,298,312,282,2
306,287,316,282,2
305,281,320,283,2
305,284,321,286,2
304,289,319,289,2
303,293,316,292,2
301,294,313,295,2
300,291,310,298,2
299,287,309,300,2
298,287,308,302,2
297,289,310,304,2
297,290,313,305,2
298,290,317,306,2
298,290,319,306,2
299,292,318,305,2
300,296,315,306,2
300,300,313,307,2
301,307,311,310,2
301,312,310,313,2
302,311,310,317,2
302,307,311,322,2
304,309,313,328,2
305,315,316,334,2
306,319,318,339,2
307,314,319,341,2
306,302,320,339,2
306,288,320,334,2
306,283,320,328,2
306,285,320,320,2
305,289,320,311,2
304,294,319,303,2
302,298,318,296,2
300,302,317,291,2
299,304,316,286,2
300,305,313,284,2
301,305,310,287,2
302,303,310,296,2
303,298,313,307,2
304,296,321,317,2
305,298,331,326,2
307,299,341,332,2
309,300,349,336,2
310,301,351,336,2
310,304,345,333,2
308,309,331,328,2
306,312,318,322,2
304,313,308,317,2
303,312,302,311,2
301,311,299,303,2
300,308,298,295,2
300,304,298,288,2
300,300,298,283,2
300,295,297,281,2
301,291,297,280,2
302,288,299,278,2
304,286,302,278,2
307,286,304,279,2
309,287,308,284,2
310,290,311,290,2
310,296,312,297,2
309,301,313,302,2
309,305,315,306,2
309,310,315,310,2
310,315,314,315,2
310,317,313,319,2
309,318,313,322,2
308,317,313,325,2
306,315,314,326,2
306,313,314,327,2
306,313,314,328,2
307,314,314,327,2
307,315,314,326,2
307,313,313,322,2
306,309,312,318,2
306,303,310,312,2
306,297,310,307,2
307,293,309,304,2
307,292,309,302,2
307,294,311,301,2
307,299,313,302,2
307,308,316,304,2
308,320,320,307,2
307,331,325,310,2
308,337,329,311,2
309,338,332,312,2
309,338,332,313,2
310,336,328,312,2
309,329,321,310,2
308,318,314,308,2
307,307,309,306,2
307,299,306,306,2
307,296,305,306,2
307,296,306,306,2
307,295,309,305,2
307,288,312,304,2
308,277,315,303,2
309,271,316,304,2
312,273,316,305,2
315,282,314,308,2
317,296,310,311,2
318,311,307,314,2
317,326,305,317,2
313,336,307,318,2
310,339,309,319,2
307,332,311,318,2
305,321,313,317,2
304,314,314,316,2
304,314,315,315,2
303,319,315,313,2
302,324,315,311,2
302,329,315,310,2
302,329,316,312,2
303,320,317,314,2
304,304,318,316,2
305,289,316,317,2
306,283,313,315,2
307,282,311,312,2
308,284,311,306,2
309,284,316,299,2
308,282,323,292,2
307,277,330,286,2
305,272,334,283,2
304,268,335,282,2
303,270,334,283,2
301,280,329,283,2
301,294,321,285,2
301,307,314,287,2
300,318,309,289,2
301,327,307,291,2
301,333,308,292,2
302,338,311,293,2
303,340,315,293,2
304,342,319,293,2
306,343,323,291,2
308,341,325,289,2
309,336,323,286,2
308,328,319,284,2
309,319,313,284,2
309,310,308,284,2
310,300,304,285,2
310,290,302,287,2
310,283,301,291,2
310,279,301,296,2
308,280,303,302,2
307,283,307,307,2
306,288,314,311,2
304,296,322,313,2
305,303,327,313,2
306,310,329,313,2
307,315,328,313,2
307,319,324,315,2
307,320,321,319,2
308,319,318,323,2
309,316,316,329,2
311,313,315,335,2
312,313,314,340,2
313,315,312,343,2
314,316,312,343,2
315,316,313,339,2
316,313,315,332,2
315,307,317,325,2
314,298,318,318,2
313,289,318,313,2
311,284,318,308,2
308,282,318,301,2
306,281,316,294,2
304,281,315,289,2
303,279,313,286,2
303,277,310,285,2
303,276,311,285,2
304,280,315,285,2
304,284,322,286,2
304,291,331,288,2
305,298,337,291,2
305,306,338,295,2
305,314,332,298,2
305,322,322,302,2
306,330,314,306,2
307,336,309,311,2
308,340,307,315,2
309,339,308,318,2
309,333,310,321,2
309,326,313,323,2
309,320,315,325,2
309,317,317,325,2
308,318,318,323,2
309,322,318,321,2
309,327,317,319,2
309,330,316,316,2
309,332,313,313,2
309,332,310,308,2
309,326,308,303,2
308,313,307,297,2
307,294,307,293,2
306,276,308,290,2
306,263,308,290,2
306,255,309,290,2
307,251,308,291,2
308,253,305,293,2
308,258,302,295,2
309,266,301,297,2
309,276,302,300,2
309,286,305,302,2
309,295,309,305,2
308,301,312,307,2
308,305,314,309,2
308,308,314,309,2
308,310,314,310,2
307,313,314,311,2
307,316,313,314,2
307,319,313,319,2
306,321,312,325,2
305,322,311,329,2
304,318,311,331,2
304,311,311,330,2
304,305,314,325,2
305,298,317,320,2
307,295,320,314,2
309,296,322,309,2
311,298,322,306,2
311,302,319,307,2
310,309,314,311,2
309,313,310,314,2
309,316,307,315,2
308,318,305,314,2
307,321,304,313,2
306,326,304,311,2
304,332,303,308,2
303,337,303,305,2
302,340,303,303,2
301,340,303,300,2
300,334,304,297,2
299,326,307,295,2
299,321,312,294,2
301,320,317,293,2
304,322,320,293,2
307,326,323,295,2
309,328,323,299,2
311,323,322,304,2
312,313,321,309,2
312,302,321,312,2
312,296,316,311,2
311,294,308,309,2
309,298,302,305,2
308,305,299,304,2
306,311,298,304,2
305,315,299,304,2
303,316,299,303,2
301,313,299,300,2
300,306,299,296,2
299,299,299,294,2
299,292,299,294,2
299,287,299,295,2
300,285,301,298,2
300,284,301,301,2
300,286,302,304,2
300,287,304,308,2
301,289,307,310,2
301,289,308,312,2
302,290,307,310,2
303,289,307,307,2
304,289,308,305,2
304,293,308,304,2
303,301,309,303,2
302,314,309,304,2
301,328,310,306,2
300,338,310,307,2
300,344,310,309,2
300,347,310,308,2
299,346,309,306,2
299,340,308,302,2
299,334,308,298,2
300,330,308,294,2
302,322,310,291,2
302,309,312,291,2
303,295,317,294,2
304,286,320,300,2
304,282,322,306,2
304,282,323,310,2
304,288,321,314,2
304,295,316,317,2
304,305,312,320,2
305,317,310,323,2
305,330,309,326,2
304,342,308,326,2
303,352,308,324,2
301,356,307,320,2
300,354,308,315,2
299,342,309,311,2
299,329,312,307,2
299,316,315,303,2
299,306,317,301,2
299,298,316,299,2
299,291,314,301,2
300,287,312,306,2
301,283,309,311,2
301,281,307,316,2
301,281,305,319,2
302,285,305,319,2
302,291,305,317,2
303,297,306,313,2
304,304,308,306,2
305,309,311,300,2
306,309,315,294,2
307,304,319,289,2
307,296,319,286,2
307,285,315,285,2
307,272,310,285,2
305,260,306,288,2
303,257,304,293,2
300,267,303,299,2
297,282,303,305,2
294,299,304,309,2
293,312,306,312,2
293,318,305,314,2
295,319,304,316,2
296,319,302,317,2
298,319,301,318,2
299,318,302,318,2
301,315,304,315,2
302,313,309,311,2
303,313,313,308,2
304,314,314,304,2
304,318,314,301,2
304,324,314,298,2
303,329,314,294,2
302,332,316,292,2
302,335,318,291,2
302,339,321,293,2
303,347,323,297,2
303,356,322,301,2
304,359,320,304,2
305,352,318,307,2
307,335,315,309,2
308,316,315,312,2
309,297,314,314,2
309,281,314,312,2
309,269,314,309,2
307,264,313,306,2
305,262,313,303,2
304,265,313,301,2
304,271,314,299,2
304,280,315,298,2
304,292,316,297,2
304,304,317,296,2
304,314,317,298,2
303,321,317,300,2
302,323,318,303,2
301,321,319,308,2
301,316,321,313,2
301,312,323,319,2
302,309,326,322,2
302,306,327,324,2
302,304,325,324,2
302,301,320,321,2
303,298,314,317,2
304,295,308,314,2
306,293,306,311,2
309,288,306,308,2
311,283,308,305,2
313,276,310,303,2
313,271,309,300,2
311,266,308,297,2
308,263,309,294,2
305,268,311,292,2
302,281,312,292,2
300,296,310,293,2
300,309,309,295,2
299,319,307,296,2
299,325,306,296,2
299,328,304,297,2
299,330,304,298,2
300,332,303,301,2
301,334,302,302,2
302,335,302,303,2
304,334,302,304,2
305,333,304,304,2
308,331,306,305,2
310,327,308,308,2
311,322,308,309,2
311,319,308,309,2
311,321,308,307,2
309,322,308,305,2
307,322,306,304,2
306,323,303,303,2
304,329,301,303,2
303,333,300,303,2
302,332,299,302,2
302,328,300,303,2
302,325,302,305,2
303,323,304,310,2
304,318,306,315,2
305,314,308,320,2
307,312,310,323,2
308,309,311,322,2
308,304,313,319,2
308,298,313,314,2
309,291,312,310,2
310,285,312,306,2
311,282,313,306,2
312,283,314,307,2
314,287,315,311,2
315,292,315,314,2
317,299,315,316,2
317,305,316,314,2
315,309,318,310,2
312,312,321,305,2
309,312,323,299,2
307,309,323,296,2
306,307,320,296,2
304,306,315,298,2
303,305,309,300,2
303,304,305,302,2
303,303,303,304,2
303,300,302,304,2
304,293,303,304,2
304,286,305,304,2
306,281,307,303,2
307,279,307,302,2
308,283,305,303,2
309,295,303,304,2
310,310,301,306,2
311,324,303,310,2
311,336,304,315,2
311,346,304,318,2
311,351,303,319,2
309,350,302,317,2
307,341,302,314,2
304,328,303,311,2
303,315,306,310,2
303,305,312,308,2
304,297,319,307,2
305,294,322,305,2
306,295,321,303,2
306,297,316,300,2
305,297,312,297,2
305,297,310,294,2
305,296,309,294,2
306,297,308,294,2
307,301,309,296,2
308,307,309,297,2
308,314,310,300,2
308,321,312,304,2
308,326,313,308,2
307,326,313,311,2
307,323,313,313,2
306,315,313,312,2
305,307,313,311,2
306,302,313,308,2
306,300,315,306,2
307,299,316,305,2
308,293,316,304,2
309,287,316,304,2
309,283,315,302,2
308,282,312,301,2
306,283,308,299,2
305,286,306,297,2
305,290,307,295,2
305,293,307,295,2
305,297,308,294,2
305,300,309,293,2
306,304,308,293,2
305,308,307,292,2
305,312,307,292,2
304,315,307,292,2
303,316,308,294,2
303,316,309,296,2
303,315,310,299,2
304,314,312,303,2
305,315,314,307,2
306,319,318,310,2
306,324,321,312,2
306,331,323,313,2
306,336,323,313,2
307,338,320,311,2
307,336,314,308,2
306,331,307,306,2
306,327,303,305,2
305,320,302,305,2
305,307,304,306,2
306,297,307,308,2
308,293,310,310,2
310,295,313,314,2
310,298,311,319,2
309,300,309,323,2
308,299,308,324,2
307,297,310,323,2
305,297,312,322,2
304,301,311,322,2
303,308,311,322,2
304,314,311,323,2
304,316,311,323,2
305,315,309,324,2
306,313,304,324,2
306,304,299,324,2
306,293,298,323,2
308,287,303,322,2
309,289,311,321,2
310,293,318,319,2
311,298,323,318,2
312,301,326,316,2
311,303,325,315,2
311,304,323,313,2
310,305,320,312,2
308,307,315,311,2
306,307,309,310,2
304,308,305,309,2
303,310,302,308,2
302,314,302,307,2
303,319,302,306,2
303,325,302,305,2
304,332,303,304,2
305,337,303,304,2
306,341,302,305,2
306,341,299,305,2
306,337,297,304,2
306,328,295,302,2
307,311,293,298,2
307,294,292,295,2
308,280,293,292,2
309,271,293,290,2
309,269,294,289,2
309,273,296,288,2
308,282,299,287,2
307,290,304,289,2
307,299,309,292,2
307,310,312,299,2
306,319,315,306,2
305,324,317,313,2
303,322,317,320,2
301,317,314,323,2
300,312,311,324,2
300,312,307,325,2
300,312,302,325,2
300,315,296,323,2
301,316,291,322,2
302,317,289,320,2
303,316,289,317,2
304,316,290,313,2
305,314,291,309,2
305,311,292,304,2
306,303,292,301,2
305,293,293,298,2
305,284,294,296,2
304,277,295,294,2
303,272,296,292,2
303,273,297,289,2
302,278,298,288,2
302,290,301,287,2
303,306,304,287,2
304,318,308,288,2
306,324,310,289,2
308,324,308,294,2
309,323,305,300,2
311,320,303,306,2
313,313,300,310,2
313,307,299,314,2
313,306,300,318,2
313,309,301,323,2
313,314,304,327,2
311,319,306,330,2
307,320,306,331,2
303,319,306,330,2
301,315,306,327,2
300,310,305,322,2
300,303,304,315,2
301,292,304,308,2
302,282,303,302,2
305,279,303,298,2
308,282,301,296,2
311,290,298,296,2
313,302,295,297,2
316,312,294,302,2
320,314,293,308,2
320,307,294,313,2
316,300,295,319,2
312,298,297,323,2
307,299,300,327,2
305,301,305,330,2
304,302,310,331,2
304,304,313,333,2
304,310,316,335,2
304,317,321,335,2
303,325,328,335,2
303,330,335,333,2
304,334,339,332,2
304,334,342,329,2
305,334,341,325,2
304,336,336,320,2
304,337,329,315,2
303,334,321,311,2
303,328,315,306,2
303,319,312,302,2
303,311,311,296,2
302,305,310,289,2
301,297,309,284,2
300,287,305,280,2
299,281,298,278,2
299,278,293,278,2
303,280,293,280,2
309,287,294,283,2
314,297,295,288,2
314,306,296,292,2
313,314,297,294,2
310,320,299,293,2
305,327,301,293,2
299,335,302,293,2
293,340,304,297,2
292,344,306,304,2
294,346,307,311,2
297,344,309,316,2
300,337,309,322,2
301,327,310,329,2
302,315,311,336,2
302,301,311,339,2
303,288,310,337,2
304,277,309,331,2
306,268,308,322,2
308,258,308,314,2
308,249,308,308,2
308,244,308,306,2
308,247,309,304,2
307,255,309,303,2
306,267,309,300,2
304,280,309,296,2
302,291,307,292,2
301,297,306,289,2
300,298,304,288,2
300,297,303,287,2
300,295,302,289,2
299,296,301,291,2
299,298,301,294,2
299,302,300,297,2
299,304,299,299,2
299,306,298,300,2
300,311,296,299,2
301,321,295,298,2
303,330,293,298,2
304,331,293,301,2
306,329,294,304,2
307,325,297,308,2
308,322,300,312,2
309,317,304,315,2
309,312,308,317,2
309,310,311,317,2
309,311,311,317,2
309,315,310,317,2
309,320,309,318,2
309,324,308,319,2
309,327,306,318,2
309,328,304,316,2
308,328,302,314,2
308,329,300,311,2
309,332,298,308,2
310,337,297,305,2
310,342,295,303,2
311,340,294,303,2
311,324,294,302,2
311,300,295,302,2
311,279,298,303,2
310,266,301,305,2
311,264,306,308,2
312,269,314,311,2
313,278,321,314,2
313,288,328,316,2
312,295,331,315,2
311,297,330,312,2
310,296,324,307,2
308,294,312,302,2
307,293,301,298,2
305,293,294,297,2
303,295,290,297,2
302,298,290,301,2
301,299,291,307,2
300,298,293,313,2
301,294,293,319,2
302,285,295,323,2
304,275,296,326,2
305,266,297,330,2
307,262,300,335,2
308,268,302,342,2
310,285,304,346,2
310,304,306,347,2
310,319,307,342,2
309,330,306,334,2
308,337,305,324,2
307,339,304,314,2
306,337,303,303,2
305,331,303,294,2
304,322,304,285,2
304,313,307,279,2
304,305,311,276,2
303,302,314,276,2
302,304,315,279,2
302,309,313,283,2
302,315,310,286,2
303,320,306,288,2
304,323,302,289,2
305,322,299,291,2
306,319,298,295,2
307,313,299,299,2
309,308,299,304,2
310,306,301,310,2
311,308,303,314,2
311,312,306,318,2
310,320,308,319,2
309,328,309,317,2
307,332,308,313,2
306,329,306,307,2
307,318,307,300,2
307,307,310,296,2
307,304,314,293,2
308,312,318,293,2
308,326,321,294,2
307,337,318,293,2
304,339,311,290,2
303,331,302,288,2
302,309,296,287,2
302,277,293,287,2
303,252,294,288,2
305,242,297,290,2
308,248,304,295,2
310,259,312,301,2
312,271,320,305,2
313,282,321,307,2
313,294,317,307,2
312,304,309,305,2
312,309,302,303,2
310,313,299,302,2
307,314,299,301,2
304,315,299,301,2
302,317,298,302,2
302,320,297,303,2
302,324,296,304,2
303,326,296,304,2
304,326,296,303,2
304,321,296,302,2
305,315,297,303,2
306,306,298,305,2
307,298,300,308,2
309,292,302,311,2
311,291,304,313,2
312,294,305,315,2
312,303,305,315,2
311,315,304,314,2
310,326,304,312,2
308,333,304,309,2
307,335,306,307,2
307,332,309,306,2
306,328,311,306,2
307,322,311,306,2
306,314,310,308,2
305,309,310,310,2
305,306,310,313,2
304,306,310,317,2
304,306,310,322,2
305,307,310,326,2
306,308,310,329,2
307,310,312,330,2
309,310,314,329,2
310,310,317,326,2
311,308,320,321,2
310,306,320,315,2
309,308,318,307,2
307,316,315,297,2
305,324,309,289,2
304,328,303,282,2
302,326,299,276,2
301,316,296,274,2
300,305,295,275,2
301,300,296,278,2
301,302,297,283,2
302,308,298,290,2
303,316,299,298,2
304,317,299,307,2
304,308,299,315,2
305,292,299,321,2
306,275,300,323,2
307,259,301,323,2
308,248,302,320,2
310,242,303,315,2
311,245,305,310,2
310,257,307,307,2
309,272,309,304,2
307,286,310,302,2
305,296,313,300,2
304,303,318,299,2
303,307,324,298,2
304,311,328,297,2
304,315,329,298,2
306,320,328,299,2
306,324,320,299,2
306,325,312,300,2
305,323,306,301,2
304,316,301,301,2
303,304,297,301,2
302,289,295,303,2
303,276,294,307,2
305,272,296,313,2
309,278,298,319,2
312,289,298,322,2
314,295,300,322,2
313,293,300,320,2
309,288,301,316,2
304,288,302,311,2
301,295,305,307,2
299,306,309,304,2
298,317,312,302,2
298,328,313,302,2
298,336,311,303,2
299,341,307,304,2
299,343,303,304,2
300,342,301,304,2
301,336,299,303,2
300,325,297,302,2
300,313,296,301,2
300,305,295,300,2
300,303,296,300,2
300,304,297,300,2
299,309,297,301,2
299,314,298,303,2
300,318,299,305,2
300,323,300,307,2
301,326,303,308,2
301,322,305,309,2
302,310,307,309,2
302,291,309,310,2
303,274,309,312,2
303,264,309,315,2
303,258,308,317,2
303,255,308,320,2
303,258,308,323,2
304,265,308,324,2
304,275,308,323,2
304,285,307,319,2
305,290,306,314,2
305,294,305,309,2
306,297,304,308,2
308,299,304,309,2
309,297,305,310,2
310,292,306,313,2
312,287,309,317,2
312,286,314,321,2
311,286,318,325,2
309,286,319,328,2
308,290,317,331,2
307,301,314,331,2
306,315,312,330,2
306,330,310,328,2
305,345,310,325,2
305,354,309,322,2
305,356,309,319,2
305,352,309,315,2
306,343,311,311,2
307,332,316,304,2
308,319,322,296,2
309,307,327,289,2
310,299,332,285,2
311,295,332,283,2
311,293,325,283,2
310,292,314,285,2
310,291,306,290,2
309,293,303,296,2
309,301,302,303,2
308,314,302,307,2
308,328,302,310,2
307,339,302,311,2
306,342,300,312,2
304,342,299,312,2
303,339,297,313,2
302,329,295,313,2
302,315,292,313,2
303,300,291,311,2
304,290,291,307,2
305,281,291,302,2
306,274,290,297,2
308,273,291,297,2
311,275,291,301,2
313,281,293,310,2
315,286,295,317,2
315,287,297,322,2
315,285,298,325,2
314,280,300,323,2
313,275,302,318,2
311,274,304,311,2
311,277,305,305,2
311,283,306,301,2
313,293,305,300,2
312,303,305,300,2
310,312,305,300,2
309,318,304,300,2
308,321,303,300,2
305,318,303,300,2
302,310,302,297,2
301,299,302,293,2
300,286,302,291,2
300,276,303,292,2
301,278,304,296,2
302,288,307,300,2
303,299,310,304,2
303,305,313,309,2
304,309,316,314,2
305,312,318,317,2
305,314,319,318,2
304,314,317,317,2
303,314,313,315,2
302,313,308,313,2
302,310,304,310,2
303,312,302,308,2
304,316,301,307,2
305,319,303,307,2
304,319,306,308,2
305,319,308,308,2
303,320,308,310,2
302,321,306,313,2
300,319,304,317,2
300,316,303,319,2
300,310,302,319,2
301,300,303,318,2
303,288,305,316,2
305,277,308,315,2
307,268,311,314,2
307,261,312,312,2
307,257,312,311,2
305,254,310,310,2
303,257,307,308,2
303,268,304,306,2
302,286,303,303,2
302,306,302,300,2
302,329,301,298,2
303,349,301,297,2
304,361,302,296,2
306,364,303,296,2
308,360,305,296,2
310,350,310,295,2
311,335,317,295,2
312,320,325,296,2
312,308,331,297,2
313,304,334,299,2
312,304,329,304,2
311,307,319,312,2
311,312,310,320,2
311,317,305,327,2
311,319,304,329,2
310,316,306,329,2
309,310,307,327,2
307,306,308,323,2
306,305,308,317,2
304,305,307,310,2
302,302,306,302,2
301,295,304,295,2
299,289,304,290,2
299,288,304,289,2
299,291,305,290,2
299,294,306,293,2
299,297,307,297,2
300,298,308,302,2
302,297,310,308,2
304,295,314,316,2
305,294,317,324,2
305,292,317,332,2
304,290,314,340,2
302,293,309,344,2
302,301,305,344,2
302,312,304,339,2
304,323,304,330,2
306,332,304,321,2
308,338,303,312,2
309,339,303,303,2
307,332,302,295,2
305,323,302,290,2
304,310,302,287,2
304,293,302,286,2
302,278,304,285,2
299,268,308,286,2
296,265,313,289,2
295,269,318,292,2
299,276,321,295,2
303,286,322,300,2
305,297,322,305,2
304,309,322,310,2
302,319,321,314,2
301,327,321,316,2
302,334,320,317,2
302,340,319,316,2
302,344,318,313,2
302,344,316,310,2
302,338,314,306,2
302,325,313,301,2
302,310,311,295,2
303,294,309,290,2
305,280,307,287,2
309,277,306,286,2
313,286,305,287,2
316,297,303,288,2
317,305,301,289,2
313,310,301,292,2
307,310,303,293,2
304,306,306,295,2
303,300,310,295,2
302,296,313,295,2
302,296,315,295,2
302,300,316,297,2
303,309,315,299,2
303,322,314,302,2
303,337,314,304,2
303,349,312,303,2
301,356,311,302,2
300,357,312,301,2
301,346,313,302,2
302,325,317,303,2
303,303,319,306,2
304,288,322,311,2
306,282,324,319,2
307,284,323,325,2
307,294,320,330,2
307,307,318,331,2
308,317,316,330,2
309,325,313,328,2
311,330,311,323,2
314,329,310,317,2
316,325,311,312,2
315,320,313,308,2
313,317,318,306,2
311,315,326,306,2
309,309,333,305,2
308,301,337,304,2
305,292,336,302,2
303,283,327,299,2
301,276,314,295,2
300,273,302,290,2
299,274,296,285,2
299,280,294,281,2
300,288,296,278,2
302,295,298,276,2
304,298,300,278,2
305,300,302,284,2
306,302,302,292,2
307,303,302,299,2
307,303,302,306,2
309,302,303,312,2
309,300,305,316,2
310,300,308,318,2
310,303,311,320,2
310,314,313,323,2
310,327,315,324,2
310,334,317,322,2
310,330,316,317,2
310,320,315,311,2
310,307,314,305,2
309,296,314,300,2
309,287,313,296,2
308,281,313,292,2
308,279,311,288,2
307,288,307,285,2
304,306,303,282,2
304,323,301,282,2
307,332,301,282,2
311,333,304,283,2
313,330,308,284,2
313,325,311,285,2
311,323,312,287,2
309,323,313,290,2
307,328,314,296,2
306,334,314,303,2
304,336,314,310,2
303,329,314,316,2
303,321,314,321,2
304,315,314,323,2
305,309,315,321,2
305,305,315,317,2
306,302,315,313,2
307,298,314,309,2
308,297,313,307,2
308,300,310,304,2
307,304,307,301,2
306,305,303,297,2
306,303,300,294,2
306,303,299,290,2
306,304,299,289,2
307,303,301,289,2
309,301,304,291,2
310,297,309,294,2
311,294,315,296,2
310,291,320,298,2
310,291,322,299,2
308,292,318,298,2
306,295,308,297,2
304,297,299,296,2
304,300,293,294,2
305,307,290,292,2
305,315,289,289,2
305,318,290,288,2
303,318,290,289,2
301,318,291,290,2
299,321,292,293,2
298,322,294,295,2
298,320,296,299,2
299,319,298,304,2
300,317,300,311,2
302,317,303,319,2
303,318,306,328,2
304,319,309,335,2
305,322,312,341,2
305,325,314,344,2
305,327,315,344,2
305,327,316,342,2
304,324,316,338,2
303,319,314,331,2
302,312,309,322,2
301,304,305,312,2
300,297,301,302,2
299,291,298,294,2
299,286,296,288,2
299,284,296,284,2
300,284,297,282,2
301,287,297,283,2
303,289,298,287,2
306,290,300,292,2
308,292,302,297,2
310,293,305,301,2
311,292,307,305,2
312,291,310,308,2
313,292,312,312,2
313,296,315,316,2
312,302,318,318,2
311,308,319,318,2
310,316,316,317,2
309,321,313,316,2
309,325,310,316,2
309,328,308,320,2
308,330,307,325,2
305,332,307,328,2
301,333,306,328,2
297,334,304,325,2
296,332,302,321,2
296,329,301,315,2
297,325,300,311,2
297,322,300,307,2
299,320,300,304,2
300,320,301,303,2
302,324,301,301,2
303,328,302,299,2
303,333,303,298,2
302,336,304,297,2
302,338,304,295,2
301,336,303,293,2
300,326,301,291,2
300,310,301,289,2
301,297,302,290,2
304,290,305,293,2
306,287,308,296,2
306,287,310,299,2
306,288,312,301,2
306,292,313,302,2
304,295,310,301,2
303,294,304,299,2
302,289,300,296,2
302,284,297,294,2
303,280,296,293,2
305,279,296,292,2
305,281,297,292,2
306,283,300,292,2
305,286,304,292,2
305,289,310,293,2
304,293,315,294,2
304,297,319,297,2
305,302,321,301,2
305,312,320,307,2
304,325,315,313,2
303,337,307,318,2
303,345,301,322,2
303,347,297,324,2
304,342,295,322,2
305,331,293,317,2
306,319,291,312,2
308,308,289,308,2
310,299,290,305,2
311,288,294,304,2
312,278,298,304,2
312,272,302,305,2
312,272,305,308,2
313,277,306,312,2
313,286,306,318,2
313,293,304,322,2
311,296,302,324,2
306,296,301,322,2
301,292,301,319,2
297,293,301,314,2
295,298,298,310,2
294,306,296,304,2
293,315,296,299,2
293,322,298,293,2
293,327,302,289,2
296,330,304,288,2
297,331,304,288,2
300,329,304,289,2
302,326,304,290,2
304,325,305,292,2
305,324,306,297,2
307,323,306,302,2
308,318,306,307,2
308,310,306,310,2
309,303,308,313,2
308,299,311,314,2
308,296,312,313,2
308,297,312,312,2
309,300,310,312,2
308,306,307,314,2
308,314,305,318,2
308,321,303,321,2
308,327,301,324,2
307,331,300,326,2
306,332,300,326,2
305,326,300,323,2
304,317,300,319,2
305,310,301,313,2
307,305,302,308,2
309,305,303,306,2
311,309,305,307,2
313,313,306,308,2
315,312,308,310,2
315,310,309,311,2
315,306,309,312,2
316,301,309,313,2
316,297,310,313,2
316,299,310,313,2
316,306,311,311,2
314,312,311,308,2
309,315,310,305,2
302,313,310,301,2
297,309,308,297,2
295,304,306,294,2
296,299,304,294,2
297,295,302,295,2
300,293,301,298,2
302,293,302,299,2
305,296,305,300,2
307,299,309,299,2
310,301,313,300,2
311,298,315,301,2
311,294,315,302,2
310,293,313,302,2
307,302,310,303,2
304,315,305,303,2
301,326,301,302,2
300,335,298,299,2
299,342,296,297,2
299,345,296,294,2
299,343,298,293,2
300,335,302,293,2
302,327,307,294,2
303,321,311,297,2
306,311,314,299,2
308,300,314,301,2
310,288,310,304,2
310,279,304,308,2
310,275,299,313,2
310,277,298,319,2
311,280,300,325,2
312,285,304,330,2
313,290,307,334,2
313,296,308,335,2
313,302,305,335,2
312,307,302,332,2
311,315,299,327,2
309,325,298,320,2
308,332,298,313,2
306,329,299,306,2
304,316,299,300,2
304,304,299,297,2
303,302,299,295,2
303,306,299,295,2
303,308,298,296,2
302,304,297,294,2
303,297,297,292,2
304,292,296,290,2
306,289,297,289,2
310,288,297,290,2
313,288,300,292,2
315,289,302,296,2
315,291,305,299,2
312,294,306,301,2
310,299,307,304,2
308,308,309,304,2
306,318,310,304,2
304,330,309,305,2
304,341,308,309,2
304,350,308,314,2
304,351,306,317,2
303,341,303,318,2
303,324,301,317,2
304,309,300,317,2
305,303,300,319,2
307,302,300,323,2
306,300,300,327,2
306,298,300,330,2
306,296,301,330,2
307,295,303,327,2
307,293,307,323,2
308,292,311,319,2
308,292,314,318,2
308,296,314,317,2
307,300,312,317,2
305,305,308,317,2
304,309,304,316,2
304,310,302,314,2
305,304,301,309,2
305,293,301,303,2
307,286,303,297,2
309,285,305,293,2
311,286,306,290,2
312,286,307,288,2
311,286,308,287,2
308,287,309,289,2
302,291,312,294,2
299,298,315,301,2
298,307,317,309,2
299,318,317,317,2
302,329,314,324,2
304,335,308,328,2
307,336,304,332,2
309,334,304,333,2
309,330,307,334,2
307,327,311,332,2
305,318,312,329,2
302,303,312,325,2
300,290,311,320,2
299,285,311,316,2
299,287,311,311,2
300,291,312,307,2
301,298,311,304,2
302,306,311,304,2
302,314,311,305,2
301,322,311,304,2
300,329,310,304,2
299,332,309,303,2
298,326,308,304,2
298,310,307,307,2
300,287,308,311,2
301,265,311,313,2
303,256,313,314,2
304,260,315,314,2
304,269,316,312,2
304,277,316,308,2
303,285,317,305,2
302,296,317,303,2
301,306,318,304,2
302,314,319,307,2
304,319,321,310,2
305,319,322,313,2
306,316,321,314,2
307,312,318,314,2
307,307,314,312,2
307,303,310,308,2
307,301,307,305,2
308,300,305,301,2
309,298,304,300,2
310,295,304,298,2
311,293,305,297,2
311,291,307,296,2
312,287,308,294,2
312,282,310,293,2
312,276,312,294,2
312,272,313,296,2
309,271,314,299,2
306,276,315,303,2
303,288,315,307,2
300,299,313,310,2
299,308,311,312,2
300,317,310,314,2
303,325,309,316,2
306,335,310,320,2
308,345,310,326,2
306,353,311,332,2
303,357,312,337,2
302,353,314,340,2
301,341,316,340,2
303,325,320,338,2
305,306,324,334,2
307,290,326,329,2
308,281,323,324,2
308,279,320,321,2
308,282,317,319,2
307,287,314,319,2
305,294,313,319,2
303,299,311,317,2
301,300,312,314,2
299,296,314,308,2
299,290,317,302,2
299,284,320,297,2
300,281,322,295,2
301,282,321,296,2
302,287,317,298,2
303,290,312,303,2
304,295,309,311,2
304,301,306,321,2
303,305,306,330,2
303,307,306,336,2
303,310,308,338,2
303,314,312,335,2
302,316,315,330,2
301,317,317,323,2
300,317,317,317,2
299,317,318,312,2
298,319,319,308,2
297,323,322,305,2
297,328,323,304,2
297,333,323,304,2
297,337,322,303,2
297,337,318,302,2
297,331,312,301,2
298,321,306,301,2
300,309,303,301,2
302,298,302,300,2
303,289,301,299,2
303,287,302,299,2
304,291,302,300,2
305,301,303,303,2
306,313,303,305,2
307,319,303,307,2
308,315,304,308,2
309,303,305,307,2
309,287,306,306,2
310,275,307,304,2
310,269,309,303,2
311,272,311,304,2
312,279,311,304,2
311,283,311,305,2
308,286,309,306,2
305,286,308,307,2
301,284,306,307,2
300,282,305,306,2
300,290,305,307,2
302,304,305,307,2
304,321,305,307,2
304,334,304,306,2
305,340,302,306,2
306,342,302,306,2
309,340,302,306,2
312,338,304,308,2
315,337,307,309,2
318,335,310,309,2
316,331,311,308,2
312,324,311,309,2
309,316,311,310,2
306,307,312,312,2
305,297,312,314,2
304,290,312,316,2
303,288,311,318,2
303,289,311,320,2
302,289,310,320,2
301,289,309,320,2
300,288,307,319,2
300,285,306,315,2
301,284,305,311,2
302,287,305,306,2
303,291,305,302,2
304,292,304,297,2
305,291,304,293,2
306,286,305,289,2
307,280,307,287,2
306,276,309,288,2
305,275,310,291,2
304,277,311,295,2
303,280,314,297,2
302,285,317,299,2
300,289,319,299,2
299,294,318,300,2
298,300,313,302,2
298,309,308,304,2
299,321,304,308,2
301,333,302,312,2
303,339,301,316,2
306,338,301,318,2
309,333,301,318,2
311,325,300,316,2
313,315,300,313,2
314,305,301,310,2
315,294,303,309,2
317,283,305,309,2
318,276,310,309,2
319,273,314,309,2
318,278,319,309,2
317,288,322,309,2
314,296,320,311,2
311,299,315,314,2
309,299,310,318,2
307,299,309,322,2
306,303,310,323,2
306,308,312,321,2
306,312,313,317,2
306,313,312,311,2
306,311,308,304,2
307,307,303,296,2
308,304,298,290,2
310,300,295,286,2
312,297,294,285,2
313,295,296,286,2
314,297,299,288,2
314,302,303,292,2
313,310,307,295,2
312,318,309,298,2
310,323,309,298,2
308,321,307,298,2
307,313,306,297,2
306,303,305,298,2
307,296,305,301,2
310,291,305,305,2
313,288,307,312,2
318,288,309,319,2
320,289,309,323,2
318,291,309,325,2
313,292,308,327,2
309,289,308,328,2
306,286,308,329,2
306,286,308,330,2
306,288,308,329,2
308,292,308,326,2
309,299,309,322,2
310,307,311,318,2
310,316,312,314,2
310,328,313,311,2
310,342,316,309,2
309,356,319,307,2
308,363,317,303,2
307,362,314,298,2
305,356,310,293,2
304,347,306,289,2
304,338,302,287,2
305,329,299,286,2
306,320,298,287,2
308,308,299,287,2
309,294,301,287,2
311,277,303,286,2
312,261,304,286,2
312,249,304,287,2
312,243,303,289,2
311,244,304,291,2
310,253,306,294,2
310,265,311,298,2
311,276,318,302,2
310,283,324,305,2
309,287,329,308,2
307,290,334,311,2
306,294,336,315,2
306,297,338,317,2
306,299,337,319,2
306,304,330,320,2
305,311,320,322,2
304,319,311,326,2
304,326,306,330,2
305,328,303,333,2
305,326,302,333,2
305,321,302,330,2
306,315,302,325,2
306,311,302,319,2
306,309,302,312,2
306,307,302,306,2
306,306,303,301,2
306,305,304,298,2
306,303,304,297,2
307,301,305,296,2
308,298,305,294,2
308,294,304,292,2
308,290,303,290,2
307,290,302,287,2
306,292,301,285,2
306,296,301,286,2
305,300,302,291,2
303,305,302,299,2
302,312,302,309,2
302,321,303,317,2
302,329,303,321,2
303,333,304,322,2
304,330,304,320,2
305,324,304,316,2
306,319,303,311,2
306,316,303,306,2
306,313,305,301,2
308,307,308,299,2
309,304,311,298,2
312,304,314,299,2
313,308,318,303,2
314,310,320,305,2
313,309,320,308,2
310,307,320,311,2
306,306,319,313,2
305,305,319,314,2
305,304,317,313,2
305,305,314,309,2
305,308,311,305,2
306,306,309,303,2
307,297,307,303,2
310,292,307,306,2
313,299,307,309,2
311,309,307,312,2
307,316,307,314,2
304,317,306,316,2
302,315,305,319,2
302,313,306,320,2
303,308,308,320,2
305,301,308,318,2
305,292,309,313,2
305,281,309,308,2
304,268,309,303,2
304,257,309,299,2
305,255,309,298,2
306,262,308,297,2
306,272,306,296,2
305,283,304,293,2
303,292,303,291,2
302,298,303,289,2
300,301,306,288,2
300,301,308,289,2
300,300,308,290,2
302,295,307,293,2
304,290,307,297,2
305,282,309,301,2
307,276,312,305,2
308,271,314,310,2
310,271,315,315,2
312,278,315,319,2
314,295,315,322,2
315,319,314,324,2
314,345,311,322,2
312,366,308,319,2
310,378,304,314,2
308,380,302,310,2
306,366,300,307,2
304,341,301,305,2
304,316,306,303,2
304,295,311,302,2
304,278,315,301,2
304,262,317,301,2
304,249,316,301,2
305,241,313,301,2
306,239,309,301,2
306,244,308,302,2
307,254,311,302,2
307,265,313,300,2
309,273,317,300,2
309,279,319,300,2
309,283,316,302,2
307,287,308,303,2
306,289,300,304,2
304,290,295,303,2
304,292,293,303,2
303,298,293,303,2
303,305,294,304,2
302,311,295,305,2
303,313,296,307,2
304,314,297,308,2
305,319,298,310,2
306,328,299,311,2
308,337,299,313,2
309,344,299,315,2
312,346,299,319,2
315,344,300,322,2
319,335,299,328,2
323,320,299,334,2
325,306,300,339,2
326,298,302,344,2
324,300,304,346,2
320,306,305,344,2
317,310,304,338,2
313,311,302,328,2
312,308,300,317,2
307,303,299,307,2
300,300,299,299,2
295,300,299,293,2
294,303,299,289,2
294,307,298,287,2
294,308,298,286,2
294,305,298,285,2
295,299,298,286,2
295,290,299,288,2
296,280,300,291,2
299,272,301,295,2
302,264,302,298,2
305,264,302,300,2
307,278,302,302,2
309,299,302,302,2
309,317,302,302,2
308,323,302,302,2
307,318,303,303,2
306,309,304,305,2
306,303,306,310,2
306,304,309,315,2
306,310,309,320,2
306,316,307,324,2
305,318,305,325,2
305,317,306,325,2
304,315,309,324,2
303,311,312,322,2
303,308,315,319,2
304,305,315,314,2
304,305,310,308,2
306,309,303,304,2
307,316,297,303,2
308,327,293,304,2
309,336,291,306,2
309,340,292,307,2
310,339,293,307,2
309,330,295,307,2
309,316,297,308,2
308,303,300,309,2
309,294,303,310,2
309,289,307,312,2
309,285,313,313,2
308,281,318,311,2
307,283,320,308,2
306,286,317,303,2
305,289,310,297,2
304,294,303,292,2
304,299,297,288,2
304,302,295,287,2
304,305,295,289,2
305,307,296,293,2
306,306,297,297,2
306,300,299,304,2
306,292,302,311,2
307,284,304,319,2
308,283,305,326,2
307,289,307,331,2
307,299,308,335,2
306,309,309,336,2
307,317,308,335,2
311,318,307,331,2
317,313,306,324,2
321,305,305,315,2
320,298,305,306,2
315,293,307,297,2
307,290,309,290,2
301,287,310,286,2
297,288,308,284,2
295,291,305,283,2
295,293,301,282,2
296,297,298,284,2
297,302,297,290,2
298,308,297,299,2
298,317,298,310,2
299,324,300,319,2
301,327,301,323,2
302,326,302,322,2
303,319,302,317,2
304,308,302,311,2
304,296,302,303,2
304,285,303,296,2
304,280,303,290,2
304,283,304,287,2
305,291,305,286,2
305,305,306,286,2
305,321,305,289,2
303,331,305,291,2
303,335,304,295,2
305,330,306,299,2
308,319,309,306,2
311,305,313,312,2
314,292,317,316,2
316,281,318,318,2
316,273,316,318,2
313,270,313,318,2
311,270,311,319,2
308,272,310,318,2
306,275,311,316,2
308,280,310,314,2
311,288,307,310,2
314,297,304,305,2
316,306,301,299,2
315,312,298,293,2
308,315,297,288,2
301,314,298,287,2
297,310,299,288,2
296,304,301,291,2
297,303,302,295,2
298,305,303,300,2
300,310,304,305,2
301,314,303,309,2
302,319,303,312,2
303,326,302,314,2
303,335,302,315,2
303,341,302,314,2
304,341,303,313,2
305,337,304,314,2
306,330,305,316,2
307,318,306,319,2
308,306,308,323,2
309,293,309,327,2
309,279,309,329,2
309,260,309,329,2
310,244,310,327,2
311,235,310,322,2
312,235,310,315,2
311,240,309,306,2
309,250,307,299,2
307,265,305,294,2
305,283,304,293,2
305,299,304,293,2
306,311,305,295,2
309,318,305,297,2
312,319,306,299,2
315,319,307,304,2
318,317,308,310,2
316,315,308,315,2
312,309,309,315,2
307,300,309,312,2
304,291,309,307,2
302,282,310,302,2
302,280,310,298,2
302,284,310,296,2
301,293,310,293,2
299,301,310,291,2
300,310,311,291,2
304,317,315,292,2
308,323,318,294,2
310,326,321,295,2
308,328,324,298,2
305,330,324,301,2
303,332,320,304,2
302,336,316,306,2
303,340,313,306,2
305,344,312,304,2
306,343,313,300,2
307,335,315,296,2
307,324,316,292,2
306,312,315,289,2
306,303,311,288,2
306,297,306,287,2
305,294,302,286,2
305,292,300,286,2
305,288,298,286,2
305,283,298,287,2
306,280,299,288,2
307,279,299,290,2
307,279,298,291,2
308,277,297,291,2
308,273,296,292,2
309,269,298,296,2
310,267,302,302,2
311,265,307,308,2
311,265,311,315,2
311,271,312,321,2
310,282,312,325,2
310,294,312,328,2
308,303,313,330,2
307,308,312,331,2
305,307,312,333,2
305,306,312,336,2
304,305,312,340,2
303,303,312,341,2
302,302,311,340,2
302,304,310,335,2
302,308,309,329,2
301,311,308,321,2
300,309,306,314,2
299,305,305,308,2
300,305,305,305,2
302,308,304,302,2
304,310,304,300,2
305,311,304,300,2
306,313,305,300,2
306,315,306,300,2
307,316,307,299,2
307,316,308,298,2
306,316,308,298,2
306,320,308,297,2
305,326,307,297,2
305,335,306,295,2
305,347,305,294,2
305,359,305,294,2
304,365,306,294,2
304,362,309,296,2
304,346,314,299,2
306,322,319,303,2
309,299,321,305,2
311,283,320,308,2
314,276,316,310,2
312,278,311,314,2
310,285,307,317,2
308,294,305,319,2
307,299,304,321,2
307,305,305,323,2
307,311,307,324,2
307,314,309,324,2
308,311,311,323,2
307,304,312,320,2
308,300,313,317,2
309,299,313,314,2
311,300,312,310,2
312,301,312,308,2
311,302,311,309,2
309,303,312,313,2
305,307,311,316,2
303,309,309,317,2
301,308,305,316,2
302,305,302,313,2
303,302,301,309,2
304,302,303,304,2
304,301,307,299,2
304,297,312,296,2
304,293,316,294,2
304,294,315,295,2
305,298,312,297,2
304,304,309,298,2
304,308,307,298,2
304,312,305,299,2
304,315,302,302,2
304,318,301,306,2
306,319,304,310,2
309,319,309,311,2
311,319,312,310,2
310,318,311,308,2
310,317,309,308,2
309,316,308,311,2
309,316,306,314,2
309,315,304,318,2
309,315,303,321,2
310,316,301,323,2
311,320,300,324,2
313,324,301,325,2
314,326,302,326,2
315,324,304,327,2
316,320,306,328,2
315,317,308,329,2
314,312,308,329,2
312,306,309,329,2
310,301,309,327,2
309,298,309,324,2
307,298,308,319,2
307,302,306,313,2
306,309,305,308,2
306,316,303,303,2
305,316,301,298,2
304,311,300,292,2
304,302,298,286,2
305,295,297,280,2
306,290,297,275,2
307,290,297,273,2
308,297,297,273,2
307,305,298,275,2
307,311,299,277,2
308,313,301,278,2
313,309,303,281,2
321,302,305,284,2
330,294,307,288,2
333,287,309,291,2
325,282,311,295,2
311,279,312,298,2
298,281,310,300,2
290,288,306,302,2
287,300,303,305,2
287,314,302,310,2
290,327,302,316,2
294,336,303,322,2
297,338,304,326,2
299,337,303,330,2
301,337,302,330,2
302,337,301,329,2
304,337,300,326,2
305,335,299,321,2
306,333,298,316,2
306,326,299,311,2
306,316,300,308,2
307,307,303,308,2
307,299,305,312,2
307,294,306,318,2
306,291,307,323,2
306,290,307,324,2
305,289,306,323,2
305,286,306,319,2
305,282,305,314,2
304,283,305,310,2
304,289,306,309,2
302,298,306,308,2
302,305,305,305,2
301,309,306,301,2
301,310,307,301,2
302,310,308,303,2
303,309,310,306,2
304,307,312,308,2
305,307,312,311,2
305,309,313,314,2
305,313,314,315,2
305,320,315,316,2
305,329,317,317,2
306,338,320,317,2
306,346,323,317,2
305,352,324,316,2
305,357,320,316,2
304,358,315,316,2
304,356,310,316,2
305,350,307,316,2
305,340,305,314,2
306,328,303,312,2
307,315,302,309,2
308,304,300,307,2
309,297,300,305,2
309,295,299,304,2
309,298,300,303,2
309,304,302,304,2
308,310,305,305,2
307,314,310,306,2
307,315,313,307,2
307,311,313,306,2
306,302,312,304,2
306,290,311,301,2
306,275,312,300,2
306,262,314,300,2
307,255,317,302,2
308,260,319,304,2
308,276,319,307,2
307,296,316,309,2
307,313,311,308,2
306,325,307,305,2
307,330,301,300,2
306,329,298,295,2
307,321,296,290,2
307,312,297,286,2
307,302,299,285,2
308,293,301,283,2
310,287,301,282,2
313,292,301,284,2
317,309,302,288,2
318,334,303,294,2
315,355,305,299,2
312,365,307,303,2
310,361,309,307,2
309,349,311,310,2
309,334,314,312,2
310,319,317,314,2
312,306,319,318,2
312,298,322,321,2
310,294,324,324,2
309,294,324,325,2
307,293,322,324,2
306,292,318,321,2
305,290,313,317,2
306,288,309,313,2
306,288,306,310,2
307,289,305,308,2
307,289,305,307,2
308,293,307,306,2
309,297,308,306,2
310,301,310,306,2
310,304,311,306,2
310,307,312,307,2
310,310,312,309,2
309,316,312,311,2
309,321,312,312,2
308,324,312,311,2
308,324,311,310,2
308,320,311,308,2
309,311,310,307,2
309,303,310,309,2
309,296,310,313,2
309,292,309,320,2
307,295,309,330,2
304,302,309,340,2
303,308,309,346,2
304,310,309,348,2
307,308,309,346,2
310,305,309,340,2
312,307,309,333,2
312,313,309,324,2
312,320,308,315,2
311,326,308,306,2
309,331,308,300,2
307,333,307,294,2
305,332,307,291,2
305,328,306,289,2
305,321,304,289,2
305,314,304,289,2
305,308,305,289,2
306,300,306,290,2
307,293,307,290,2
307,288,306,290,2
307,287,306,290,2
307,293,307,292,2
308,303,305,295,2
308,314,302,297,2
308,321,300,300,2
307,327,299,303,2
308,332,299,306,2
310,338,300,309,2
310,343,301,310,2
310,343,302,311,2
309,338,304,312,2
308,329,306,311,2
307,315,309,311,2
307,298,311,311,2
307,282,311,312,2
307,274,308,311,2
307,274,305,310,2
307,276,305,308,2
309,277,306,307,2
313,276,304,308,2
314,274,300,310,2
311,273,298,312,2
307,274,297,313,2
303,277,297,312,2
301,285,297,309,2
302,298,298,308,2
302,311,300,308,2
303,321,301,309,2
303,328,303,309,2
303,332,303,309,2
302,333,303,309,2
302,330,303,310,2
301,325,304,310,2
301,321,305,311,2
302,320,306,311,2
301,320,307,310,2
301,321,307,308,2
300,323,305,305,2
300,323,304,303,2
300,320,302,301,2
302,315,301,299,2
304,307,300,300,2
307,301,300,302,2
310,298,301,307,2
313,299,302,313,2
315,303,304,321,2
317,308,306,327,2
318,311,307,331,2
317,314,308,334,2
316,316,310,336,2
314,316,312,339,2
311,316,313,340,2
308,315,313,340,2
307,317,313,339,2
307,318,312,336,2
307,320,311,331,2
307,322,309,325,2
307,323,306,316,2
307,324,303,307,2
307,324,301,300,2
307,323,300,294,2
307,318,299,290,2
307,310,298,289,2
307,299,299,293,2
308,285,299,298,2
309,270,299,303,2
310,258,300,306,2
310,255,302,307,2
311,262,303,306,2
310,275,304,305,2
310,292,304,304,2
310,312,306,304,2
309,329,308,303,2
306,340,309,301,2
303,342,310,299,2
301,335,312,299,2
300,326,313,299,2
300,316,313,300,2
301,308,312,300,2
302,301,309,299,2
302,296,304,299,2
303,291,301,299,2
304,289,300,301,2
306,288,301,304,2
308,288,302,305,2
310,290,303,308,2
312,295,306,311,2
314,301,308,313,2
313,308,310,316,2
312,315,311,319,2
310,322,310,322,2
309,327,308,324,2
308,327,305,325,2
307,323,302,323,2
307,316,300,321,2
306,308,300,319,2
307,302,300,317,2
307,299,300,313,2
306,299,300,308,2
305,298,300,303,2
306,296,298,299,2
307,291,297,296,2
308,285,296,295,2
311,282,296,297,2
313,283,298,301,2
311,289,300,306,2
307,297,302,311,2
304,304,303,314,2
301,307,304,315,2
298,307,305,315,2
296,306,305,315,2
295,307,305,317,2
296,310,305,320,2
298,316,306,324,2
300,322,305,329,2
302,329,304,331,2
302,334,301,332,2
303,336,299,331,2
302,331,298,329,2
303,323,300,326,2
305,317,304,324,2
307,310,309,324,2
308,301,313,325,2
310,291,314,327,2
310,286,314,328,2
309,287,313,327,2
308,295,312,324,2
306,304,310,321,2
304,310,310,319,2
303,314,308,317,2
302,315,307,313,2
302,315,305,307,2
302,314,304,302,2
303,315,304,297,2
304,321,304,293,2
305,326,304,289,2
306,329,305,286,2
306,329,305,284,2
306,329,303,281,2
306,326,299,280,2
307,323,296,280,2
308,319,294,282,2
309,315,294,284,2
310,311,294,287,2
312,305,295,289,2
313,295,298,290,2
314,281,301,290,2
315,267,303,290,2
315,257,305,291,2
314,255,307,294,2
312,260,308,299,2
310,274,308,305,2
308,291,308,311,2
306,308,306,315,2
304,318,304,318,2
303,324,301,319,2
303,325,299,319,2
304,326,297,318,2
304,326,296,317,2
305,325,295,314,2
305,323,294,311,2
306,318,295,307,2
307,307,296,304,2
308,295,297,301,2
309,281,297,300,2
309,271,297,301,2
309,263,297,304,2
309,261,298,307,2
308,267,297,311,2
306,279,297,313,2
304,294,297,316,2
303,311,298,318,2
304,330,300,320,2
304,349,301,322,2
304,362,301,323,2
305,366,300,323,2
307,362,299,321,2
309,356,298,318,2
312,356,296,315,2
314,360,294,311,2
316,361,294,307,2
318,352,295,301,2
319,336,296,295,2
318,320,298,291,2
315,303,300,291,2
311,288,302,293,2
308,277,304,298,2
307,270,306,304,2
307,268,307,310,2
307,270,308,315,2
304,275,308,318,2
301,282,308,320,2
298,292,307,320,2
298,302,306,318,2
298,311,304,315,2
298,318,304,312,2
298,321,303,310,2
298,320,304,307,2
299,312,303,303,2
299,299,301,298,2
300,285,297,297,2
301,275,294,301,2
303,272,293,306,2
305,274,294,310,2
306,281,296,313,2
306,289,297,312,2
305,296,300,309,2
305,301,301,302,2
304,302,301,295,2
303,301,301,289,2
303,300,300,286,2
303,301,300,284,2
303,303,300,285,2
302,309,299,287,2
302,316,298,291,2
301,321,299,294,2
301,323,302,297,2
301,323,305,299,2
301,323,309,301,2
302,322,312,303,2
303,322,313,306,2
304,322,311,307,2
305,322,306,308,2
306,319,303,309,2
308,317,302,313,2
311,315,303,318,2
312,314,305,322,2
313,310,306,324,2
313,309,307,327,2
312,314,307,329,2
310,324,307,328,2
307,331,308,326,2
305,334,308,321,2
305,336,307,316,2
307,336,305,309,2
307,332,304,303,2
308,325,304,297,2
308,312,303,292,2
308,297,303,289,2
307,281,302,287,2
307,269,301,288,2
307,266,301,290,2
307,269,301,294,2
308,275,298,297,2
309,281,296,300,2
310,287,295,300,2
310,293,296,300,2
310,298,298,298,2
309,303,299,297,2
309,306,299,296,2
307,309,299,296,2
306,312,299,298,2
306,315,299,300,2
306,318,299,302,2
306,322,300,304,2
306,328,300,307,2
306,332,301,310,2
307,333,302,311,2
307,327,303,313,2
307,314,304,314,2
308,295,305,315,2
309,277,307,316,2
310,268,307,319,2
311,269,307,321,2
311,274,307,321,2
311,279,308,317,2
311,283,310,312,2
311,285,312,308,2
309,285,313,303,2
308,284,312,300,2
306,283,308,298,2
305,283,304,297,2
304,287,301,297,2
304,295,298,297,2
304,305,297,295,2
303,311,296,292,2
303,310,296,289,2
303,302,297,288,2
304,293,298,290,2
305,286,298,296,2
305,286,299,303,2
306,292,300,310,2
306,301,301,316,2
306,309,301,319,2
307,312,302,320,2
308,310,302,319,2
309,307,301,315,2
310,306,300,310,2
310,307,300,304,2
309,307,301,299,2
308,304,304,296,2
308,301,308,295,2
308,301,309,297,2
309,303,309,300,2
310,309,307,305,2
312,319,305,310,2
311,331,303,314,2
308,339,300,313,2
305,337,298,309,2
303,325,298,305,2
303,308,300,303,2
304,291,302,303,2
306,280,304,304,2
307,277,306,305,2
308,280,306,305,2
308,284,307,304,2
308,287,308,302,2
307,289,309,302,2
307,293,309,303,2
307,300,310,306,2
308,310,310,310,2
309,320,310,316,2
311,330,309,322,2
311,336,308,328,2
310,333,308,332,2
308,324,309,332,2
306,313,310,329,2
305,302,311,323,2
304,294,311,316,2
305,291,309,308,2
306,290,307,302,2
308,287,305,299,2
309,283,303,298,2
309,280,300,298,2
308,281,298,297,2
308,284,298,297,2
308,289,298,297,2
308,295,298,299,2
307,299,300,299,2
306,302,301,298,2
304,303,301,295,2
302,302,300,292,2
301,299,299,289,2
301,295,299,285,2
300,287,300,282,2
300,278,302,281,2
300,273,304,282,2
301,271,305,285,2
301,271,307,289,2
303,275,308,294,2
304,285,308,301,2
306,297,305,309,2
308,308,304,315,2
309,314,303,320,2
310,317,304,323,2
310,318,306,325,2
310,318,309,326,2
310,319,310,325,2
310,319,311,322,2
310,317,310,318,2
310,319,308,314,2
309,324,307,312,2
309,332,306,310,2
309,341,306,308,2
308,348,305,305,2
307,349,304,303,2
307,344,304,302,2
307,333,304,302,2
308,320,304,303,2
309,309,305,303,2
310,303,306,305,2
312,303,306,307,2
312,305,307,308,2
313,306,307,310,2
313,306,307,315,2
313,303,308,322,2
313,297,311,329,2
312,291,314,336,2
312,286,318,341,2
312,286,320,343,2
313,291,320,344,2
312,294,314,342,2
310,296,307,338,2
309,299,302,331,2
309,303,303,322,2
310,307,307,311,2
311,310,310,300,2
311,312,308,290,2
309,317,302,283,2
305,319,297,279,2
302,315,293,277,2
301,309,293,279,2
302,302,295,283,2
304,296,299,287,2
306,292,302,290,2
307,290,305,293,2
306,289,306,294,2
304,290,303,294,2
304,293,299,296,2
305,298,297,297,2
305,302,296,298,2
305,305,297,299,2
304,307,297,299,2
303,308,298,300,2
303,308,298,301,2
304,306,298,302,2
305,304,298,303,2
306,303,297,304,2
308,305,297,305,2
309,310,297,307,2
311,318,297,311,2
312,327,297,313,2
313,332,298,314,2
313,330,300,315,2
312,320,301,317,2
311,307,304,319,2
310,295,306,321,2
309,289,307,322,2
308,288,308,324,2
308,290,308,327,2
308,292,307,329,2
308,296,307,330,2
310,300,307,329,2
312,303,308,325,2
314,305,308,320,2
313,307,307,316,2
311,306,307,312,2
307,305,307,308,2
305,302,306,304,2
304,300,306,301,2
304,299,305,300,2
305,300,305,301,2
307,303,305,302,2
308,307,306,305,2
309,311,307,308,2
310,316,308,311,2
310,320,308,312,2
310,322,307,311,2
309,321,305,308,2
308,319,304,305,2
307,314,302,302,2
305,308,302,300,2
304,300,301,298,2
303,293,302,297,2
303,285,302,296,2
304,276,303,294,2
305,269,304,293,2
306,265,305,294,2
306,262,306,296,2
306,262,307,299,2
306,266,309,303,2
306,276,309,309,2
306,290,309,315,2
306,304,309,322,2
306,313,309,328,2
306,318,309,334,2
306,323,309,338,2
305,329,312,339,2
305,334,315,338,2
305,337,319,333,2
304,337,319,325,2
304,333,317,316,2
304,325,313,306,2
304,317,310,298,2
305,309,309,293,2
306,302,307,288,2
306,298,305,285,2
306,296,301,284,2
305,297,298,285,2
304,297,297,286,2
303,295,296,289,2
302,292,297,293,2
303,291,299,300,2
303,294,302,310,2
305,298,306,322,2
307,302,310,335,2
310,307,314,346,2
313,314,316,354,2
316,322,316,356,2
314,326,316,355,2
310,322,315,349,2
306,314,313,340,2
303,307,312,328,2
302,303,311,313,2
301,298,310,301,2
301,293,308,293,2
302,288,307,289,2
303,283,305,286,2
304,279,303,283,2
304,274,301,281,2
305,272,301,280,2
307,269,301,281,2
308,268,302,283,2
309,269,302,286,2
310,276,303,287,2
311,288,304,289,2
312,298,306,290,2
313,303,307,290,2
313,305,308,290,2
311,306,308,291,2
308,307,308,293,2
306,309,307,294,2
304,317,306,295,2
304,330,304,295,2
304,342,304,296,2
303,347,304,297,2
303,346,304,301,2
304,339,305,306,2
305,330,306,312,2
306,322,306,318,2
307,313,307,326,2
308,303,307,333,2
309,295,308,339,2
311,288,309,342,2
312,285,311,341,2
312,285,311,337,2
312,287,311,332,2
310,291,310,328,2
309,298,310,323,2
307,307,309,317,2
306,317,309,310,2
305,327,310,303,2
303,333,312,298,2
302,334,313,294,2
301,330,314,292,2
300,321,314,291,2
299,312,313,291,2
298,303,308,290,2
298,297,303,289,2
298,291,299,288,2
298,286,298,288,2
299,281,298,289,2
299,280,298,291,2
299,282,298,294,2
301,287,300,298,2
303,291,302,303,2
306,298,303,307,2
307,306,304,312,2
307,313,304,317,2
307,316,304,320,2
306,314,303,322,2
305,307,302,322,2
303,296,301,320,2
302,284,302,317,2
301,278,302,313,2
300,276,302,308,2
300,279,300,303,2
300,285,298,299,2
300,291,296,295,2
300,297,294,292,2
299,303,294,292,2
300,306,295,294,2
301,306,299,299,2
304,305,305,305,2
307,304,312,311,2
310,305,318,315,2
313,308,321,319,2
314,312,319,322,2
310,315,313,323,2
304,317,306,323,2
299,318,302,322,2
296,318,298,320,2
294,318,296,319,2
294,318,294,322,2
294,319,294,328,2
294,322,295,334,2
295,326,298,337,2
296,330,300,338,2
297,332,300,336,2
298,333,298,333,2
300,334,296,330,2
302,336,295,327,2
303,338,295,324,2
304,339,295,319,2
304,337,296,313,2
304,329,297,309,2
303,315,299,306,2
303,299,300,305,2
302,288,301,305,2
302,282,301,305,2
302,282,301,306,2
301,285,299,305,2
301,290,298,304,2
300,294,296,302,2
298,297,296,302,2
298,297,298,302,2
298,294,299,304,2
298,288,299,308,2
300,281,297,315,2
302,276,294,323,2
304,275,292,330,2
308,281,291,336,2
311,290,291,339,2
312,298,291,339,2
310,304,292,336,2
308,308,293,333,2
307,310,294,331,2
306,310,295,328,2
304,309,295,325,2
303,308,296,321,2
302,307,296,317,2
302,306,297,312,2
302,307,297,307,2
302,311,297,304,2
302,316,298,303,2
303,319,300,304,2
304,324,300,306,2
304,327,299,309,2
303,329,297,310,2
301,327,296,311,2
300,324,295,313,2
301,320,293,313,2
302,316,292,314,2
302,312,292,314,2
303,308,291,314,2
303,306,292,314,2
303,306,294,313,2
304,308,295,310,2
304,309,297,307,2
304,309,298,304,2
304,309,298,301,2
303,310,298,298,2
301,312,297,295,2
300,313,296,293,2
299,314,295,291,2
298,313,293,290,2
298,311,293,290,2
298,304,292,292,2
299,296,292,294,2
300,287,292,298,2
302,283,293,302,2
303,282,295,309,2
305,283,298,317,2
306,284,301,323,2
307,285,302,327,2
307,286,303,331,2
306,292,303,334,2
305,302,302,335,2
305,311,302,335,2
305,315,301,334,2
305,315,301,332,2
306,312,300,330,2
308,304,301,328,2
308,294,302,327,2
305,286,304,328,2
302,281,304,328,2
300,283,304,325,2
299,289,303,317,2
298,297,301,309,2
298,306,297,302,2
299,315,296,297,2
300,322,295,293,2
300,327,297,292,2
301,328,299,292,2
303,326,301,292,2
303,323,304,293,2
303,320,307,294,2
303,318,307,295,2
303,315,304,297,2
303,314,300,298,2
303,315,298,298,2
303,315,297,297,2
303,315,298,295,2
303,314,300,294,2
303,311,301,293,2
302,307,300,293,2
301,300,299,294,2
301,292,298,297,2
301,288,298,300,2
302,287,298,304,2
303,289,298,309,2
304,291,299,312,2
305,292,300,314,2
307,291,302,316,2
309,290,304,318,2
311,293,305,320,2
311,300,307,322,2
311,311,307,323,2
310,325,307,323,2
309,338,307,322,2
308,347,307,322,2
307,351,308,322,2
307,344,307,323,2
307,328,307,323,2
307,307,306,324,2
308,288,304,325,2
308,277,303,324,2
308,274,302,322,2
307,276,301,320,2
306,280,300,317,2
306,285,299,313,2
306,290,299,308,2
306,296,299,304,2
306,302,300,301,2
306,306,301,300,2
307,307,302,302,2
308,305,304,304,2
308,301,306,308,2
310,298,307,311,2
310,297,308,311,2
310,298,307,309,2
310,301,307,307,2
310,308,305,306,2
309,313,303,305,2
308,317,302,303,2
307,317,301,300,2
307,314,301,297,2
307,307,302,294,2
308,297,303,292,2
308,286,305,291,2
308,281,305,290,2
309,282,303,290,2
309,286,300,291,2
310,289,299,292,2
311,288,300,295,2
312,287,302,301,2
315,289,306,310,2
316,293,311,321,2
315,301,315,334,2
313,312,316,344,2
310,325,314,350,2
308,338,312,351,2
306,350,310,348,2
306,355,310,342,2
306,352,310,333,2
306,340,312,323,2
308,323,312,313,2
307,308,310,304,2
304,298,306,298,2
300,293,302,294,2
297,290,301,292,2
296,287,300,291,2
297,286,301,291,2
298,285,302,291,2
298,285,304,290,2
299,286,305,289,2
300,287,305,288,2
300,290,306,286,2
301,293,306,283,2
301,295,305,281,2
301,297,305,279,2
301,299,306,279,2
302,301,306,280,2
303,305,306,283,2
304,309,307,286,2
305,314,308,289,2
306,319,307,293,2
307,323,306,295,2
308,324,305,297,2
308,320,303,298,2
307,314,303,300,2
305,308,304,303,2
304,304,308,306,2
305,302,312,307,2
305,300,313,307,2
305,298,313,307,2
304,297,313,308,2
302,296,313,310,2
301,297,312,312,2
299,297,312,315,2
301,299,312,317,2
303,301,311,318,2
305,303,311,320,2
306,304,310,320,2
305,306,309,320,2
305,307,309,320,2
305,307,309,319,2
306,306,309,317,2
306,303,307,313,2
308,300,305,309,2
310,298,304,304,2
311,298,302,301,2
312,301,302,298,2
313,306,303,297,2
313,310,307,297,2
313,312,310,299,2
311,313,313,303,2
309,313,316,307,2
307,314,316,310,2
304,315,314,312,2
303,316,311,313,2
302,315,308,313,2
303,313,306,312,2
303,311,304,311,2
304,308,303,309,2
304,306,302,306,2
304,304,301,304,2
304,302,299,302,2
304,303,298,300,2
305,304,298,300,2
306,306,299,301,2
308,307,299,303,2
310,308,299,307,2
312,309,300,313,2
312,315,301,318,2
311,325,301,321,2
309,338,302,322,2
307,351,302,320,2
305,357,301,316,2
304,355,300,310,2
304,342,299,304,2
303,321,298,302,2
304,299,299,302,2
306,285,301,305,2
307,277,303,308,2
308,275,306,309,2
310,279,308,310,2
309,284,309,309,2
306,288,308,309,2
303,292,306,308,2
302,294,304,308,2
302,295,302,308,2
303,294,301,308,2
304,294,301,307,2
306,294,301,306,2
307,296,302,306,2
308,297,302,307,2
308,300,304,310,2
309,305,304,316,2
308,312,304,323,2
306,320,303,330,2
305,326,303,335,2
305,331,303,337,2
305,335,303,338,2
306,335,304,335,2
306,332,304,330,2
306,324,304,324,2
306,315,303,319,2
306,306,302,315,2
306,299,302,311,2
306,295,302,308,2
306,293,301,306,2
306,294,301,305,2
306,297,301,305,2
306,301,300,304,2
305,306,299,302,2
305,312,299,299,2
305,317,299,295,2
305,319,300,291,2
306,315,301,288,2
307,308,302,288,2
308,297,304,290,2
308,290,306,294,2
309,293,307,296,2
309,301,308,298,2
310,309,309,298,2
310,314,309,297,2
309,312,308,297,2
309,308,308,300,2
309,303,306,304,2
309,301,303,311,2
308,301,301,316,2
307,302,299,320,2
307,302,299,323,2
307,304,300,325,2
308,306,301,328,2
309,309,302,331,2
309,311,304,333,2
308,313,304,333,2
306,314,304,330,2
304,316,303,325,2
304,315,302,319,2
304,314,301,313,2
304,313,299,307,2
304,315,298,300,2
304,318,297,295,2
304,322,295,290,2
304,327,294,286,2
304,329,293,282,2
305,326,293,281,2
307,320,293,282,2
308,315,293,286,2
310,309,295,290,2
311,305,297,295,2
312,301,299,299,2
313,301,299,304,2
314,303,300,309,2
315,303,301,313,2
315,298,304,315,2
312,290,309,315,2
307,281,314,315,2
303,274,316,314,2
301,271,315,313,2
299,271,313,311,2
298,273,310,310,2
297,279,309,309,2
298,290,309,309,2
299,304,309,310,2
301,320,308,310,2
304,333,307,310,2
305,345,306,311,2
305,352,304,312,2
302,350,304,313,2
302,341,303,314,2
303,329,304,314,2
304,314,305,313,2
304,299,306,309,2
304,286,307,305,2
304,279,308,303,2
304,280,310,303,2
305,288,313,306,2
305,298,316,310,2
306,303,319,314,2
306,306,322,315,2
306,307,323,315,2
307,309,320,313,2
307,311,314,311,2
307,311,307,309,2
306,311,302,311,2
305,311,298,315,2
306,310,297,318,2
306,309,296,320,2
307,309,297,320,2
307,307,298,318,2
308,307,299,316,2
309,308,300,313,2
309,311,301,310,2
311,315,302,305,2
312,319,303,301,2
312,321,304,298,2
311,322,304,296,2
309,320,305,297,2
307,317,306,299,2
306,315,308,303,2
304,317,309,307,2
302,323,308,311,2
301,332,307,314,2
300,341,305,316,2
300,347,304,319,2
301,348,303,320,2
303,342,302,322,2
305,332,301,320,2
307,322,300,318,2
309,314,300,314,2
310,305,301,311,2
311,295,301,309,2
311,283,302,306,2
311,272,303,302,2
310,262,304,297,2
307,256,305,291,2
305,255,304,287,2
304,263,303,287,2
303,278,302,289,2
302,296,302,293,2
301,309,302,297,2
299,319,302,301,2
299,324,302,304,2
300,324,302,308,2
300,320,303,310,2
302,314,303,313,2
303,309,304,315,2
306,304,304,317,2
309,302,305,318,2
312,300,305,319,2
313,301,304,319,2
310,303,305,320,2
307,307,306,321,2
305,312,305,322,2
304,318,305,321,2
304,324,303,319,2
303,327,302,317,2
303,326,302,314,2
302,321,302,311,2
302,313,302,310,2
302,304,301,310,2
302,295,300,312,2
302,291,298,314,2
301,293,296,316,2
300,295,296,314,2
301,298,299,311,2
303,300,301,306,2
305,303,300,303,2
308,308,296,302,2
311,314,293,304,2
311,319,293,307,2
309,319,294,311,2
307,316,296,315,2
306,313,298,318,2
304,312,300,318,2
303,313,301,317,2
301,317,300,317,2
300,321,300,318,2
300,327,298,321,2
299,332,297,327,2
300,338,297,332,2
300,342,298,337,2
300,343,298,339,2
301,340,299,339,2
301,333,299,338,2
302,325,298,337,2
304,318,298,334,2
306,310,298,330,2
309,304,298,324,2
311,298,299,318,2
313,296,301,313,2
313,300,303,308,2
313,306,305,304,2
313,311,305,302,2
311,312,305,299,2
308,308,304,295,2
305,302,303,291,2
303,296,302,289,2
301,290,300,287,2
299,286,298,287,2
299,285,297,288,2
299,285,297,290,2
301,287,298,293,2
301,290,299,296,2
302,293,299,300,2
303,295,298,302,2
304,296,297,303,2
305,295,296,303,2
306,295,297,304,2
308,297,298,306,2
310,299,300,308,2
311,303,301,309,2
312,307,302,311,2
312,309,304,312,2
312,312,304,312,2
311,315,303,312,2
310,317,302,310,2
310,318,301,309,2
310,318,300,307,2
310,319,299,304,2
309,323,297,301,2
307,327,295,298,2
305,329,294,295,2
303,327,294,294,2
303,324,294,293,2
303,320,294,295,2
304,314,295,298,2
306,307,298,302,2
308,301,302,307,2
311,299,307,313,2
314,298,312,320,2
316,298,316,325,2
316,297,319,329,2
316,297,322,331,2
315,297,320,331,2
313,299,316,329,2
312,301,311,325,2
310,304,306,319,2
309,305,303,312,2
308,307,301,305,2
307,308,300,299,2
307,309,300,297,2
308,310,300,297,2
308,311,301,299,2
308,310,300,302,2
308,309,300,305,2
308,308,300,308,2
308,307,299,309,2
309,306,300,311,2
310,306,301,314,2
311,308,302,316,2
312,312,303,317,2
313,314,303,317,2
313,317,304,315,2
313,319,303,312,2
313,318,304,309,2
312,315,303,304,2
311,311,304,300,2
310,307,304,297,2
310,303,304,294,2
309,301,304,292,2
308,301,304,289,2
307,302,303,287,2
306,304,302,285,2
304,305,301,285,2
304,306,301,289,2
305,307,303,295,2
306,311,305,302,2
307,314,308,310,2
309,317,310,315,2
311,316,311,318,2
312,312,311,318,2
313,306,311,317,2
314,302,311,319,2
314,302,311,324,2
313,307,311,330,2
311,311,310,335,2
309,313,309,336,2
309,314,307,335,2
310,315,306,330,2
312,315,306,324,2
311,312,305,317,2
308,309,305,310,2
304,306,304,303,2
301,305,303,297,2
301,304,301,293,2
302,302,299,289,2
305,301,299,288,2
308,302,298,288,2
312,305,299,290,2
315,311,299,294,2
315,320,300,299,2
313,328,301,304,2
310,332,301,308,2
307,332,301,310,2
304,329,300,312,2
303,320,299,314,2
303,308,299,316,2
303,300,301,319,2
305,299,303,322,2
306,302,308,324,2
307,306,310,323,2
308,311,311,320,2
308,315,311,318,2
308,319,311,317,2
308,322,309,317,2
307,321,304,317,2
307,317,299,317,2
307,308,295,317,2
307,298,293,316,2
308,291,293,315,2
309,290,294,314,2
309,295,296,314,2
309,307,297,314,2
309,321,297,312,2
307,330,297,309,2
306,333,296,306,2
305,326,295,303,2
305,313,295,300,2
305,295,295,298,2
306,279,296,296,2
307,269,296,296,2
307,267,297,298,2
307,271,296,298,2
306,279,295,298,2
304,285,294,298,2
303,291,292,298,2
302,300,291,300,2
303,309,291,302,2
304,312,291,304,2
304,308,293,309,2
306,304,296,316,2
307,301,299,325,2
308,301,301,334,2
309,303,302,341,2
309,306,303,345,2
308,312,302,345,2
307,316,301,342,2
306,319,300,335,2
306,321,298,326,2
306,321,296,318,2
305,320,295,310,2
305,316,295,305,2
304,315,295,302,2
303,315,296,301,2
303,314,296,300,2
304,310,297,301,2
305,304,298,303,2
307,298,299,306,2
309,295,301,311,2
311,295,302,317,2
312,298,303,322,2
312,302,302,326,2
312,308,302,327,2
310,314,302,326,2
308,319,300,322,2
306,322,298,316,2
305,322,295,308,2
303,320,293,298,2
303,315,294,289,2
303,307,297,282,2
304,298,301,279,2
303,294,303,278,2
304,293,304,279,2
304,292,305,280,2
305,290,306,281,2
305,288,306,282,2
305,287,305,284,2
305,287,301,286,2
306,288,298,288,2
306,290,296,291,2
307,294,296,296,2
307,299,297,300,2
307,303,299,304,2
307,307,301,306,2
307,311,301,310,2
306,315,301,314,2
305,319,299,316,2
303,322,297,315,2
301,324,294,314,2
298,326,292,315,2
297,326,292,318,2
297,325,294,319,2
299,321,296,318,2
300,317,297,315,2
302,313,297,311,2
303,311,297,306,2
304,311,297,301,2
306,311,297,299,2
307,312,298,299,2
309,316,300,300,2
310,320,301,303,2
311,323,303,306,2
312,324,305,310,2
312,325,306,313,2
312,324,307,316,2
311,321,307,318,2
309,311,308,319,2
308,304,308,322,2
307,308,308,328,2
307,318,309,335,2
307,328,309,342,2
307,332,309,348,2
308,332,309,352,2
309,328,309,353,2
310,322,308,350,2
312,314,307,344,2
311,307,307,337,2
309,301,307,328,2
306,299,307,320,2
304,299,309,311,2
304,297,310,303,2
304,293,311,295,2
304,286,312,289,2
304,277,313,284,2
304,269,311,279,2
304,261,310,275,2
304,256,308,274,2
303,256,307,274,2
303,262,306,274,2
302,270,304,274,2
302,280,304,274,2
302,291,305,275,2
302,304,305,277,2
303,315,306,280,2
302,324,305,283,2
303,330,305,286,2
303,332,305,289,2
304,329,306,293,2
305,326,306,297,2
306,325,307,301,2
307,326,309,304,2
308,328,311,307,2
309,332,314,311,2
309,336,316,314,2
309,338,316,314,2
308,334,314,313,2
308,326,312,309,2
308,316,310,307,2
308,308,308,304,2
308,303,306,302,2
308,302,305,301,2
309,303,304,300,2
309,302,303,301,2
309,299,303,302,2
308,297,303,303,2
307,297,303,304,2
306,299,303,306,2
307,302,303,308,2
308,303,303,309,2
309,304,304,311,2
310,305,307,314,2
311,306,313,317,2
311,308,318,319,2
310,309,321,320,2
309,311,320,317,2
308,313,317,314,2
307,315,315,311,2
307,319,314,311,2
307,324,313,311,2
306,331,311,313,2
305,338,310,314,2
304,343,309,315,2
304,345,308,315,2
304,342,309,316,2
304,335,310,317,2
306,325,311,319,2
308,315,313,322,2
309,307,313,324,2
311,302,313,325,2
311,300,313,325,2
313,298,312,322,2
312,297,311,316,2
311,294,309,310,2
310,291,307,302,2
308,287,304,296,2
308,283,303,292,2
308,278,301,291,2
308,279,301,292,2
308,287,301,295,2
308,298,301,299,2
308,312,301,303,2
308,329,302,307,2
308,341,303,309,2
308,343,305,310,2
307,337,307,311,2
308,328,309,313,2
309,319,311,318,2
311,313,313,326,2
311,310,314,336,2
312,308,314,345,2
311,309,313,349,2
310,311,312,348,2
309,314,311,342,2
307,319,308,331,2
305,325,304,320,2
303,329,300,308,2
301,327,298,299,2
299,319,296,292,2
299,311,296,287,2
299,304,297,285,2
300,301,298,284,2
300,299,299,284,2
301,298,299,284,2
302,298,299,285,2
303,299,299,285,2
304,302,299,287,2
306,307,299,289,2
307,311,298,291,2
307,316,298,291,2
307,319,298,293,2
307,323,298,295,2
307,327,298,298,2
307,332,299,301,2
307,336,300,303,2
306,336,300,304,2
305,332,301,305,2
303,324,301,305,2
302,315,301,303,2
301,307,300,301,2
301,302,300,299,2
300,300,300,298,2
300,296,300,297,2
301,293,300,298,2
302,288,300,300,2
305,282,300,302,2
307,277,301,305,2
308,274,301,307,2
310,272,302,308,2
311,271,303,308,2
311,270,304,307,2
312,270,306,307,2
312,272,307,309,2
311,275,307,311,2
311,278,308,314,2
310,281,309,315,2
308,285,308,315,2
307,291,308,315,2
306,299,307,315,2
305,307,307,316,2
305,314,308,315,2
304,319,309,315,2
304,321,309,314,2
304,323,310,311,2
304,324,310,309,2
305,326,308,308,2
306,327,306,307,2
307,327,304,306,2
307,323,302,306,2
307,319,302,305,2
308,314,303,305,2
309,310,306,306,2
312,306,309,306,2
315,302,311,304,2
318,300,311,301,2
318,301,309,297,2
314,300,306,293,2
308,299,303,289,2
304,299,303,287,2
301,301,304,287,2
300,305,305,290,2
299,309,307,295,2
300,308,308,301,2
300,303,310,309,2
300,292,309,317,2
299,280,308,322,2
300,270,306,324,2
301,267,305,323,2
304,272,304,320,2
307,281,303,319,2
309,289,302,318,2
309,296,301,316,2
306,302,302,315,2
303,305,303,312,2
300,308,304,308,2
298,310,305,302,2
296,312,305,298,2
295,314,306,295,2
294,314,306,296,2
294,314,306,297,2
296,314,306,301,2
297,315,306,304,2
299,316,307,307,2
301,316,307,310,2
302,317,308,311,2
303,318,309,309,2
304,319,309,306,2
305,319,310,303,2
305,319,310,300,2
305,318,310,299,2
306,316,309,298,2
307,313,309,300,2
308,309,309,303,2
308,309,309,305,2
308,312,308,305,2
307,313,307,302,2
306,313,305,299,2
305,311,304,294,2
305,308,303,289,2
304,306,303,286,2
304,304,303,283,2
303,302,302,283,2
303,300,301,283,2
302,299,301,284,2
303,301,301,287,2
303,302,302,289,2
303,298,303,291,2
303,292,304,292,2
303,288,306,294,2
304,286,307,295,2
305,287,308,297,2
306,290,308,300,2
306,294,308,306,2
305,299,308,313,2
304,305,309,320,2
304,309,310,325,2
303,312,311,326,2
303,312,312,326,2
303,314,312,325,2
303,316,313,323,2
304,318,314,321,2
304,321,316,320,2
305,323,317,317,2
305,325,317,313,2
306,325,317,308,2
306,324,318,305,2
306,321,318,304,2
307,316,319,304,2
308,311,320,305,2
309,306,320,304,2
311,305,319,302,2
311,306,316,298,2
311,310,311,294,2
311,315,307,289,2
310,319,305,284,2
310,320,303,277,2
310,317,301,273,2
310,313,298,271,2
312,314,295,271,2
314,317,294,276,2
316,322,296,281,2
314,327,300,287,2
310,329,305,292,2
305,325,310,296,2
301,313,312,297,2
299,294,311,298,2
298,272,310,300,2
299,254,309,302,2
300,243,310,306,2
301,243,312,313,2
303,250,314,319,2
305,260,316,328,2
306,271,317,337,2
306,284,318,345,2
306,297,318,350,2
304,309,318,351,2
304,317,317,349,2
303,321,316,344,2
303,323,314,337,2
302,323,313,329,2
301,322,311,321,2
300,320,309,313,2
299,318,307,305,2
298,316,305,297,2
299,315,303,290,2
300,313,301,284,2
301,311,299,280,2
302,308,298,278,2
304,306,297,278,2
307,307,297,280,2
309,310,298,284,2
311,316,299,289,2
311,326,301,294,2
311,337,304,298,2
311,346,305,300,2
310,347,305,300,2
309,339,303,299,2
308,326,301,297,2
308,312,300,297,2
307,297,299,298,2
307,286,300,300,2
307,281,301,301,2
307,284,302,301,2
307,290,303,300,2
306,297,303,299,2
305,300,304,297,2
305,300,305,296,2
306,300,305,298,2
308,298,306,301,2
309,297,307,306,2
310,296,308,311,2
311,296,308,315,2
312,296,309,318,2
311,299,311,322,2
309,303,310,325,2
307,306,309,326,2
306,309,307,325,2
305,308,305,323,2
305,306,304,319,2
305,304,302,315,2
306,301,301,312,2
306,299,299,312,2
307,299,299,313,2
307,303,299,315,2
307,309,299,317,2
306,314,299,319,2
306,318,298,319,2
306,319,297,317,2
306,319,295,314,2
306,318,294,310,2
307,316,294,308,2
307,315,294,308,2
308,315,294,308,2
308,316,294,307,2
308,316,293,305,2
307,317,293,303,2
306,317,293,299,2
305,318,294,296,2
304,318,295,295,2
303,318,297,296,2
304,318,297,298,2
304,317,298,302,2
306,315,299,305,2
306,312,300,306,2
307,309,300,308,2
306,306,301,312,2
307,303,301,319,2
307,301,301,327,2
307,301,302,336,2
308,303,303,341,2
309,306,303,343,2
310,309,303,341,2
310,310,303,335,2
308,310,304,327,2
307,310,304,320,2
305,310,304,315,2
304,312,304,312,2
303,315,303,310,2
302,320,303,309,2
302,324,304,309,2
302,325,304,307,2
302,321,305,305,2
302,317,305,303,2
303,313,305,300,2
303,313,305,296,2
304,318,304,291,2
304,327,302,285,2
305,335,301,282,2
307,338,300,281,2
309,337,301,282,2
311,330,302,285,2
312,319,302,289,2
311,308,303,293,2
310,296,304,296,2
309,281,306,297,2
308,268,309,298,2
307,265,311,298,2
306,269,314,298,2
305,275,316,298,2
304,280,317,296,2
305,284,314,295,2
305,288,309,295,2
307,291,304,295,2
309,293,301,298,2
309,296,300,301,2
306,298,300,308,2
304,302,301,316,2
304,306,302,327,2
304,311,304,337,2
305,315,306,344,2
305,318,308,348,2
306,319,309,350,2
307,317,310,349,2
307,315,309,346,2
307,313,307,340,2
307,309,305,332,2
307,304,303,322,2
306,297,303,312,2
306,290,306,305,2
307,286,310,299,2
307,286,313,295,2
306,293,312,292,2
305,306,309,289,2
305,323,305,286,2
305,337,302,282,2
304,347,299,280,2
304,351,298,280,2
304,347,299,282,2
306,335,301,286,2
309,317,303,291,2
311,302,305,297,2
311,292,307,303,2
309,287,309,307,2
306,287,311,311,2
304,290,312,313,2
302,293,313,313,2
300,296,313,311,2
299,297,313,310,2
299,297,313,310,2
299,298,313,312,2
299,301,313,316,2
299,305,312,320,2
299,313,311,325,2
299,322,310,329,2
299,330,309,331,2
299,330,307,334,2
299,325,305,339,2
300,320,304,344,2
302,316,304,346,2
303,310,305,343,2
304,306,308,336,2
304,303,312,326,2
304,303,316,314,2
304,302,319,304,2
305,300,320,296,2
306,295,318,290,2
306,289,314,285,2
306,284,309,282,2
306,281,306,279,2
306,280,304,278,2
306,280,303,278,2
305,280,303,280,2
304,280,302,282,2
304,280,301,284,2
304,284,300,286,2
305,290,299,288,2
306,298,299,292,2
308,306,299,296,2
309,314,300,301,2
309,318,301,305,2
309,317,302,309,2
310,315,302,314,2
311,313,303,321,2
312,309,305,328,2
313,305,308,335,2
313,301,313,339,2
313,298,318,339,2
312,297,321,336,2
311,299,321,332,2
309,301,318,328,2
307,304,313,323,2
304,306,309,316,2
303,307,306,309,2
300,307,304,302,2
299,308,302,296,2
297,310,300,292,2
297,311,298,290,2
298,313,297,289,2
299,315,296,288,2
300,315,295,287,2
302,313,295,286,2
303,308,295,286,2
305,306,295,288,2
306,305,295,290,2
306,306,296,291,2
307,305,297,292,2
307,303,297,292,2
308,300,298,293,2
310,298,299,295,2
311,298,301,297,2
307,299,302,298,2
303,299,303,299,2
299,301,303,300,2
298,306,303,301,2
298,312,303,302,2
298,317,303,303,2
299,320,303,305,2
300,319,304,307,2
301,312,305,309,2
301,302,307,312,2
303,294,309,315,2
305,288,312,318,2
306,287,314,321,2
307,289,315,323,2
307,294,313,324,2
306,301,310,323,2
304,308,307,322,2
304,314,304,320,2
303,318,303,316,2
302,316,302,312,2
302,310,302,309,2
302,303,303,306,2
302,298,303,305,2
302,296,304,305,2
302,295,304,307,2
302,293,304,309,2
303,294,304,311,2
305,298,306,311,2
307,303,309,311,2
309,307,311,310,2
311,308,313,307,2
310,305,312,305,2
308,302,309,304,2
305,299,307,304,2
304,296,306,304,2
303,294,307,304,2
303,293,308,305,2
302,295,309,307,2
302,299,309,310,2
303,305,310,312,2
303,313,310,315,2
303,320,309,316,2
304,327,309,315,2
303,332,307,314,2
303,336,305,311,2
302,334,303,307,2
302,328,302,302,2
302,323,301,298,2
302,321,302,296,2
303,323,303,296,2
303,326,304,299,2
304,327,305,303,2
304,324,306,307,2
305,318,307,311,2
304,311,307,317,2
303,306,305,322,2
303,303,305,325,2
303,302,305,326,2
303,304,307,325,2
303,307,309,323,2
303,309,312,321,2
302,308,313,322,2
303,304,312,324,2
304,299,311,326,2
305,294,309,327,2
305,289,308,327,2
307,286,307,323,2
309,284,306,317,2
312,282,305,308,2
313,280,305,300,2
315,281,305,294,2
316,283,308,291,2
318,287,312,292,2
319,295,316,293,2
319,302,320,294,2
314,307,321,293,2
308,305,318,292,2
302,297,313,290,2
298,285,308,289,2
295,278,305,290,2
295,281,304,292,2
296,292,304,295,2
298,303,303,297,2
300,312,304,299,2
302,317,304,301,2
303,319,303,302,2
305,319,304,304,2
306,318,304,307,2
308,318,305,311,2
309,317,307,316,2
310,317,308,320,2
311,318,309,322,2
312,318,311,323,2
312,317,312,323,2
311,312,312,322,2
310,307,312,319,2
308,303,311,316,2
307,302,310,313,2
307,303,310,311,2
306,306,310,308,2
306,312,308,303,2
304,317,307,299,2
304,322,306,295,2
303,323,306,291,2
302,321,307,287,2
302,316,308,286,2
303,310,308,288,2
305,302,308,294,2
307,295,309,304,2
309,290,310,315,2
310,287,311,324,2
310,286,311,330,2
309,286,312,332,2
309,285,312,332,2
309,283,314,329,2
309,281,315,323,2
308,283,315,316,2
308,287,316,307,2
307,293,316,299,2
307,301,316,294,2
307,308,315,290,2
307,313,314,290,2
307,315,313,291,2
308,315,313,293,2
308,314,312,295,2
307,315,310,297,2
307,319,309,299,2
307,324,307,301,2
308,329,308,303,2
309,332,311,304,2
310,334,315,307,2
310,335,321,311,2
311,335,325,317,2
310,332,328,323,2
310,328,327,328,2
308,325,322,331,2
306,324,313,333,2
305,323,304,333,2
305,323,299,330,2
305,324,297,324,2
305,325,298,317,2
306,326,302,312,2
306,325,306,310,2
306,325,308,309,2
306,327,307,309,2
305,328,305,309,2
305,323,303,310,2
304,316,303,309,2
305,306,303,308,2
305,295,303,304,2
307,280,303,299,2
308,263,303,294,2
309,248,304,291,2
310,237,304,289,2
311,232,305,290,2
311,236,306,293,2
309,250,306,297,2
308,270,305,300,2
307,293,304,301,2
307,315,302,301,2
307,333,299,300,2
307,345,296,299,2
308,348,294,298,2
308,343,293,298,2
308,334,294,299,2
308,326,297,299,2
309,320,300,298,2
308,316,301,297,2
308,311,301,295,2
309,305,301,294,2
309,297,302,295,2
310,288,303,296,2
311,281,304,298,2
311,278,306,300,2
310,280,307,300,2
309,287,307,301,2
308,295,307,303,2
306,304,307,306,2
306,311,308,312,2
306,318,309,318,2
306,322,311,327,2
307,324,312,337,2
307,326,313,346,2
307,328,313,351,2
308,328,313,350,2
308,323,312,345,2
308,314,312,338,2
307,305,311,331,2
308,295,310,321,2
309,284,309,311,2
311,276,308,301,2
313,275,308,293,2
312,281,308,288,2
311,288,307,285,2
309,295,307,284,2
308,301,306,284,2
306,304,305,285,2
305,302,304,286,2
303,296,304,286,2
302,290,303,285,2
302,285,303,286,2
302,280,302,287,2
302,277,302,289,2
302,281,303,294,2
301,287,303,300,2
301,295,303,305,2
301,300,303,307,2
301,303,304,305,2
301,304,306,303,2
302,304,309,300,2
304,305,312,298,2
306,306,316,296,2
307,308,318,294,2
308,311,319,293,2
307,315,318,293,2
307,320,317,292,2
306,324,314,292,2
305,327,310,291,2
304,329,305,291,2
304,328,303,290,2
304,324,302,291,2
304,316,303,292,2
305,306,304,294,2
304,299,304,296,2
304,296,305,296,2
303,292,304,295,2
304,287,304,293,2
304,281,304,290,2
306,277,305,289,2
308,277,306,290,2
309,284,307,293,2
310,296,308,297,2
311,309,308,301,2
310,320,308,304,2
311,325,308,307,2
312,323,308,308,2
314,319,307,308,2
312,318,306,308,2
308,321,305,307,2
303,324,304,305,2
301,324,304,303,2
301,322,304,302,2
302,318,304,300,2
303,312,304,299,2
304,306,304,297,2
305,299,303,296,2
305,294,303,295,2
307,288,302,296,2
309,284,303,300,2
310,281,304,306,2
312,280,307,313,2
313,283,310,319,2
313,293,313,325,2
312,306,315,333,2
311,321,316,340,2
309,334,317,345,2
307,346,317,347,2
305,350,317,345,2
304,344,317,340,2
303,334,316,332,2
302,325,316,321,2
303,319,315,310,2
303,314,312,300,2
303,309,309,292,2
303,303,306,287,2
303,298,303,286,2
304,297,300,286,2
305,297,299,287,2
307,299,300,289,2
308,302,303,290,2
309,305,309,292,2
309,307,316,293,2
309,305,323,292,2
309,302,326,293,2
309,301,325,294,2
310,301,323,296,2
309,301,320,299,2
308,301,317,301,2
307,298,314,304,2
306,294,311,307,2
306,290,309,311,2
306,287,308,314,2
307,286,308,317,2
307,288,308,318,2
307,294,308,317,2
307,305,308,315,2
306,316,308,312,2
305,324,307,311,2
305,329,307,310,2
304,331,307,308,2
304,328,307,305,2
304,320,308,303,2
305,308,310,303,2
305,297,313,305,2
306,291,314,306,2
306,291,315,308,2
305,293,316,308,2
305,296,317,306,2
304,298,317,303,2
303,298,317,301,2
302,298,317,299,2
302,299,316,297,2
302,303,315,297,2
302,311,313,297,2
303,319,312,299,2
304,324,311,300,2
306,327,311,302,2
308,327,311,305,2
310,322,309,309,2
311,314,308,313,2
312,306,307,316,2
313,303,307,318,2
314,304,307,318,2
314,306,308,316,2
313,309,308,312,2
311,310,308,309,2
310,308,306,305,2
308,302,305,302,2
306,295,305,299,2
304,290,305,296,2
302,289,304,293,2
302,291,304,293,2
302,297,304,294,2
302,308,304,294,2
303,322,304,295,2
303,335,303,296,2
305,344,303,298,2
306,349,302,301,2
308,347,302,304,2
310,333,303,309,2
312,311,306,313,2
315,289,309,317,2
317,272,311,318,2
319,266,313,317,2
320,268,313,315,2
320,273,315,315,2
315,280,318,315,2
310,289,320,317,2
305,299,318,318,2
301,306,312,316,2
299,312,307,313,2
299,313,303,308,2
298,311,301,303,2
298,308,300,298,2
299,305,299,295,2
301,302,299,293,2
304,300,298,292,2
307,300,297,293,2
311,303,297,295,2
314,308,297,298,2
314,314,298,302,2
312,321,299,305,2
310,328,300,307,2
307,334,302,308,2
304,338,303,308,2
303,336,304,308,2
303,330,305,306,2
304,321,305,307,2
305,312,306,309,2
306,302,307,313,2
307,293,309,319,2
307,289,309,325,2
307,292,309,329,2
306,296,308,330,2
306,297,307,330,2
305,294,306,327,2
306,289,305,323,2
306,283,304,318,2
306,282,303,312,2
307,284,302,306,2
308,288,302,302,2
308,291,303,300,2
308,292,306,300,2
308,293,311,300,2
307,294,316,299,2
306,295,319,300,2
305,299,319,300,2
305,304,316,301,2
305,311,312,303,2
304,318,307,306,2
303,324,304,309,2
303,330,302,313,2
303,335,302,317,2
302,340,303,322,2
302,342,303,326,2
302,339,303,330,2
303,332,304,332,2
304,324,304,334,2
306,317,305,335,2
307,313,306,335,2
309,312,306,332,2
310,310,306,327,2
309,309,306,321,2
309,308,306,316,2
307,309,307,310,2
305,309,308,306,2
302,307,310,303,2
300,307,312,301,2
299,310,315,301,2
298,314,314,300,2
296,315,310,300,2
296,313,305,298,2
296,304,300,295,2
297,295,296,291,2
299,287,295,289,2
300,282,296,288,2
302,280,297,289,2
303,279,299,291,2
305,278,301,295,2
306,279,302,302,2
308,282,304,309,2
309,286,306,316,2
309,292,307,321,2
309,298,307,324,2
309,303,306,323,2
309,305,305,320,2
308,306,304,315,2
308,307,303,312,2
307,309,302,311,2
306,311,303,309,2
304,311,303,306,2
303,311,305,303,2
303,312,306,300,2
303,313,306,298,2
303,312,306,297,2
303,312,306,298,2
304,313,307,298,2
304,313,306,298,2
305,312,306,298,2
305,310,305,298,2
306,310,305,298,2
307,312,305,297,2
307,317,306,297,2
308,323,306,296,2
309,334,307,297,2
308,345,308,298,2
308,355,308,302,2
307,361,310,309,2
307,361,312,317,2
306,353,313,324,2
304,335,315,327,2
303,311,316,328,2
303,288,315,328,2
303,274,313,327,2
305,267,311,325,2
306,264,310,322,2
307,261,310,319,2
309,261,312,316,2
311,262,314,311,2
313,266,314,306,2
316,270,313,301,2
315,275,311,295,2
311,279,309,290,2
307,283,308,287,2
304,287,308,285,2
302,291,308,285,2
300,295,309,284,2
300,298,311,284,2
300,300,314,284,2
301,302,316,283,2
302,303,317,282,2
302,304,317,280,2
304,305,316,279,2
306,305,314,279,2
307,304,313,281,2
307,302,312,285,2
307,300,312,290,2
306,297,309,297,2
306,293,306,304,2
307,289,303,311,2
309,286,302,317,2
310,285,303,323,2
310,288,304,329,2
310,293,306,334,2
309,299,307,337,2
307,305,307,338,2
306,308,307,336,2
305,310,307,330,2
304,312,308,321,2
304,313,308,311,2
304,315,307,302,2
304,316,307,296,2
305,318,307,291,2
305,320,307,287,2
305,320,306,285,2
305,319,304,283,2
305,314,303,283,2
305,308,302,284,2
306,302,303,287,2
307,298,304,290,2
308,296,306,294,2
310,294,309,298,2
311,294,312,304,2
312,295,313,313,2
312,299,314,322,2
311,304,314,329,2
310,305,313,330,2
309,307,312,328,2
308,309,311,324,2
307,308,311,318,2
306,306,312,314,2
305,301,313,310,2
304,297,315,308,2
303,295,316,307,2
301,296,315,307,2
300,299,311,308,2
301,303,308,310,2
302,308,306,313,2
303,312,306,316,2
305,314,308,319,2
308,314,312,323,2
311,313,317,327,2
313,311,320,329,2
314,307,321,329,2
313,302,321,326,2
311,299,320,319,2
309,300,318,308,2
307,301,314,296,2
304,302,309,286,2
302,301,305,278,2
301,298,303,273,2
301,295,302,272,2
302,294,302,273,2
302,295,301,276,2
301,299,300,279,2
301,303,298,282,2
301,309,296,286,2
301,315,294,290,2
302,321,294,293,2
303,327,295,297,2
304,329,297,299,2
306,326,297,299,2
308,319,298,299,2
310,309,300,298,2
310,300,301,297,2
309,292,303,297,2
307,286,304,297,2
306,284,304,297,2
304,283,305,299,2
304,284,305,299,2
303,285,304,299,2
303,288,303,300,2
304,293,302,301,2
305,301,302,304,2
306,313,301,306,2
306,325,302,309,2
306,334,303,310,2
307,335,303,313,2
307,326,305,315,2
307,307,308,319,2
308,285,310,322,2
310,261,313,326,2
314,243,315,330,2
317,242,318,332,2
319,258,320,332,2
316,281,319,328,2
310,300,317,322,2
304,310,314,316,2
301,314,310,309,2
299,313,307,303,2
298,312,305,298,2
298,311,303,294,2
299,312,301,290,2
299,313,300,287,2
300,314,300,287,2
301,316,300,288,2
301,319,300,292,2
302,321,300,296,2
303,322,300,299,2
305,324,300,302,2
307,326,301,305,2
308,326,302,309,2
309,325,304,314,2
310,320,306,322,2
309,310,309,332,2
308,297,310,340,2
305,285,310,345,2
304,281,310,349,2
302,282,310,350,2
302,284,309,348,2
301,287,309,342,2
300,291,309,333,2
299,295,308,322,2
299,299,307,311,2
299,301,307,302,2
299,302,307,295,2
299,303,308,291,2
300,304,309,290,2
301,305,310,290,2
302,306,309,291,2
304,307,308,293,2
305,308,308,296,2
305,309,308,298,2
306,308,308,298,2
306,310,309,298,2
305,313,308,296,2
304,319,307,295,2
302,326,305,293,2
300,329,303,291,2
298,328,302,289,2
298,320,301,287,2
298,308,301,286,2
299,295,301,286,2
300,284,301,288,2
300,280,302,291,2
300,279,303,294,2
300,280,305,297,2
301,279,306,299,2
301,278,308,302,2
302,276,309,305,2
303,275,310,306,2
304,276,311,307,2
305,280,310,308,2
305,286,309,309,2
305,292,308,310,2
305,297,308,309,2
304,301,308,309,2
303,306,309,309,2
302,310,309,308,2
301,313,309,305,2
300,317,310,301,2
299,322,311,298,2
299,326,312,296,2
298,328,312,295,2
298,327,310,295,2
296,322,307,297,2
295,315,304,299,2
294,308,303,303,2
295,304,303,309,2
296,304,304,315,2
298,305,306,320,2
299,306,308,325,2
300,308,311,329,2
302,310,312,333,2
303,312,313,335,2
303,311,313,335,2
304,309,313,333,2
304,304,313,330,2
303,298,312,327,2
302,296,312,324,2
302,298,311,321,2
303,302,311,318,2
304,304,310,315,2
306,303,309,312,2
307,300,307,307,2
305,296,305,302,2
303,290,304,297,2
300,284,305,298,2
300,280,307,306,2
302,279,312,319,2
305,281,315,331,2
309,285,315,338,2
311,288,313,341,2
310,292,310,337,2
306,297,308,330,2
303,304,307,320,2
301,313,307,311,2
300,319,307,303,2
299,323,307,297,2
298,322,308,291,2
298,315,309,286,2
298,305,309,283,2
298,293,310,282,2
299,283,310,284,2
300,278,309,286,2
302,278,309,290,2
304,283,309,292,2
306,290,309,294,2
307,297,310,295,2
308,302,310,295,2
309,305,309,294,2
310,307,309,292,2
310,307,309,291,2
310,307,310,290,2
309,307,311,288,2
309,307,312,286,2
308,306,313,284,2
307,306,316,282,2
306,304,319,283,2
305,304,321,286,2
304,307,319,292,2
302,311,314,297,2
301,316,307,303,2
301,321,303,307,2
301,322,301,311,2
301,319,300,315,2
302,316,299,318,2
303,316,299,320,2
305,319,299,322,2
306,321,300,326,2
307,321,301,330,2
307,321,303,333,2
307,324,304,335,2
306,329,304,334,2
305,335,304,330,2
303,340,304,323,2
301,340,303,313,2
300,336,302,303,2
300,326,302,295,2
300,310,302,291,2
300,291,303,291,2
301,278,305,294,2
301,271,306,297,2
302,271,307,299,2
301,275,306,299,2
301,280,305,297,2
301,283,303,296,2
301,286,302,295,2
302,287,302,296,2
303,289,302,298,2
304,291,303,300,2
305,295,304,302,2
306,299,305,305,2
307,302,306,307,2
307,305,307,309,2
307,307,308,309,2
307,309,308,311,2
306,310,307,315,2
306,313,307,320,2
305,319,306,327,2
305,325,305,331,2
306,328,304,332,2
306,328,304,331,2
306,325,303,326,2
306,323,302,319,2
307,321,301,311,2
306,319,299,303,2
306,316,297,297,2
305,312,296,295,2
306,309,296,295,2
308,306,297,297,2
310,303,299,300,2
314,303,301,304,2
317,303,303,309,2
316,304,306,314,2
312,304,310,319,2
307,302,311,322,2
303,300,311,322,2
300,297,309,319,2
298,295,308,314,2
298,298,307,309,2
297,306,307,303,2
298,321,306,299,2
299,341,306,295,2
300,359,305,292,2
300,371,303,291,2
300,372,302,291,2
299,363,303,291,2
299,345,308,294,2
300,326,315,298,2
302,309,320,302,2
303,295,321,307,2
305,285,318,310,2
306,277,314,313,2
307,272,309,314,2
305,269,306,314,2
304,269,304,313,2
303,271,303,313,2
302,274,303,313,2
300,280,303,316,2
299,287,304,320,2
299,295,305,324,2
299,302,306,328,2
300,307,307,331,2
301,309,307,331,2
301,309,306,329,2
301,307,305,327,2
301,306,304,325,2
303,306,304,324,2
304,307,304,323,2
306,310,305,322,2
307,314,305,320,2
308,318,305,318,2
309,320,305,316,2
309,320,305,314,2
308,318,306,311,2
307,315,306,308,2
306,312,306,306,2
305,311,306,305,2
303,311,305,304,2
302,312,304,304,2
302,313,303,303,2
303,312,303,302,2
305,309,302,300,2
307,303,302,298,2
308,298,302,297,2
309,294,303,297,2
310,292,303,300,2
311,294,303,305,2
311,301,304,311,2
310,309,304,317,2
310,315,305,322,2
309,318,306,325,2
309,319,307,327,2
309,317,308,327,2
307,315,311,325,2
306,314,314,323,2
304,315,316,320,2
303,318,318,316,2
302,321,319,313,2
304,325,319,311,2
308,327,317,312,2
311,328,314,316,2
313,328,310,319,2
311,328,305,322,2
309,328,301,321,2
306,326,298,318,2
303,322,295,314,2
301,315,294,308,2
299,306,294,301,2
298,297,298,296,2
299,291,304,293,2
300,286,309,293,2
301,282,312,294,2
302,279,312,295,2
302,280,310,296,2
302,282,309,299,2
302,287,309,303,2
303,292,309,308,2
303,299,308,313,2
303,305,308,316,2
303,312,306,316,2
302,318,305,314,2
301,323,304,310,2
300,325,304,305,2
300,326,303,300,2
300,325,302,295,2
300,325,304,292,2
302,324,307,291,2
304,319,313,292,2
306,311,318,295,2
307,303,320,299,2
308,296,320,303,2
307,290,317,308,2
307,287,314,311,2
306,286,311,312,2
305,287,308,310,2
305,291,307,306,2
304,296,305,301,2
303,300,303,297,2
303,306,302,295,2
304,312,303,294,2
305,316,304,294,2
305,319,305,294,2
305,321,305,295,2
305,319,304,296,2
306,307,303,297,2
307,289,303,297,2
307,270,303,301,2
308,261,305,306,2
309,263,306,313,2
308,271,308,318,2
307,283,309,322,2
307,295,310,326,2
307,308,311,329,2
307,317,311,330,2
307,323,311,330,2
308,327,312,328,2
308,329,314,324,2
308,329,315,320,2
308,327,317,317,2
308,324,318,314,2
308,319,318,311,2
309,313,315,307,2
309,306,310,303,2
310,298,306,298,2
310,292,304,293,2
310,288,302,287,2
311,287,299,283,2
312,290,298,283,2
312,294,298,286,2
313,299,299,291,2
312,304,301,297,2
312,310,303,305,2
312,317,304,311,2
312,325,305,315,2
311,334,306,317,2
310,342,306,318,2
308,350,305,317,2
306,351,303,313,2
304,346,302,309,2
303,339,301,305,2
303,333,301,303,2
303,328,301,301,2
304,325,301,299,2
305,325,300,295,2
306,326,299,292,2
306,325,299,291,2
307,322,298,295,2
308,320,299,302,2
308,319,300,310,2
309,316,301,318,2
310,310,304,323,2
309,305,306,325,2
309,303,310,323,2
307,302,313,319,2
306,298,314,315,2
305,294,313,312,2
303,290,312,310,2
302,285,311,310,2
302,279,311,311,2
302,274,311,311,2
303,274,311,309,2
303,277,310,307,2
304,282,309,303,2
305,287,308,300,2
305,291,308,297,2
305,297,310,295,2
305,302,312,296,2
305,306,314,297,2
305,307,313,299,2
305,308,311,301,2
305,309,308,302,2
305,312,305,304,2
305,317,304,305,2
305,322,303,305,2
305,325,302,303,2
306,326,301,301,2
307,324,300,298,2
309,315,300,296,2
310,303,301,294,2
308,295,303,294,2
305,291,307,295,2
304,289,311,297,2
303,290,314,298,2
303,291,313,300,2
303,293,309,303,2
303,298,305,305,2
304,306,300,307,2
305,313,297,307,2
306,319,295,305,2
308,324,294,304,2
308,324,294,303,2
309,318,295,303,2
309,306,297,303,2
309,293,300,306,2
309,289,304,310,2
308,294,311,314,2
307,301,316,318,2
307,308,319,319,2
308,312,319,320,2
309,314,315,320,2
308,315,311,321,2
307,315,307,322,2
304,316,304,323,2
303,317,303,323,2
303,320,302,323,2
304,322,301,323,2
305,326,301,322,2
306,329,302,320,2
307,330,303,318,2
308,328,304,314,2
309,322,305,309,2
311,310,305,304,2
312,296,306,302,2
313,281,306,301,2
313,270,307,301,2
312,265,308,302,2
311,267,308,305,2
310,274,308,310,2
309,282,308,314,2
307,292,306,317,2
306,303,305,321,2
305,312,304,324,2
305,318,304,326,2
306,323,304,327,2
307,328,305,327,2
308,333,306,327,2
310,339,307,330,2
312,345,309,333,2
312,349,310,339,2
313,349,311,347,2
313,345,313,352,2
313,339,315,353,2
312,336,316,348,2
311,334,315,337,2
309,334,314,323,2
307,329,312,308,2
306,318,310,296,2
306,302,309,288,2
305,290,308,286,2
306,284,307,287,2
307,286,307,291,2
308,293,307,295,2
310,302,307,299,2
311,311,306,302,2
312,316,306,304,2
313,314,305,307,2
314,305,305,310,2
316,291,305,313,2
317,279,306,314,2
318,274,306,313,2
317,274,307,309,2
316,278,307,304,2
314,284,308,298,2
313,290,310,293,2
312,295,314,290,2
312,298,317,290,2
312,301,316,292,2
315,304,313,296,2
318,305,308,299,2
319,307,304,301,2
317,308,302,303,2
311,310,301,304,2
305,311,301,306,2
302,312,301,309,2
301,312,300,311,2
300,312,299,312,2
301,313,298,310,2
303,315,298,307,2
304,320,298,306,2
307,327,299,308,2
308,338,304,313,2
309,348,308,318,2
310,356,313,322,2
309,361,316,322,2
307,358,319,319,2
306,341,321,313,2
305,314,322,305,2
304,289,324,299,2
304,273,325,295,2
304,265,325,292,2
304,261,325,289,2
304,261,323,286,2
303,264,321,286,2
303,268,318,286,2
303,273,315,288,2
304,279,312,290,2
304,285,309,294,2
305,291,308,299,2
307,296,309,304,2
310,301,309,309,2
311,306,309,314,2
312,310,310,318,2
311,313,310,319,2
310,315,311,319,2
308,317,311,319,2
307,317,312,318,2
306,317,312,318,2
306,317,312,316,2
307,317,312,314,2
309,317,314,314,2
311,316,319,314,2
311,313,323,315,2
310,311,323,316,2
310,311,321,316,2
310,311,321,316,2
310,310,323,314,2
311,309,322,313,2
311,307,320,313,2
312,305,318,313,2
313,302,316,313,2
314,298,315,317,2
314,293,314,323,2
314,290,312,328,2
314,292,312,330,2
313,295,311,331,2
310,298,308,329,2
308,299,304,324,2
306,298,301,317,2
304,295,300,310,2
303,293,298,302,2
303,295,295,295,2
302,301,291,289,2
303,313,288,286,2
304,326,286,285,2
304,337,285,286,2
304,342,286,288,2
305,339,288,290,2
306,329,289,291,2
307,316,292,293,2
309,304,294,295,2
310,296,296,297,2
311,293,297,299,2
312,296,299,302,2
311,301,301,305,2
311,305,304,307,2
310,306,310,311,2
310,306,317,315,2
310,309,322,320,2
310,315,322,326,2
310,322,317,332,2
310,328,310,337,2
309,334,305,341,2
308,340,301,342,2
307,345,299,342,2
307,346,297,338,2
306,343,294,333,2
306,337,292,325,2
306,327,292,317,2
305,315,292,307,2
305,304,293,299,2
305,296,294,293,2
305,291,295,290,2
306,290,297,287,2
306,290,298,286,2
306,290,299,285,2
305,290,300,286,2
304,292,300,286,2
304,294,300,288,2
303,296,300,290,2
302,298,299,292,2
302,298,299,294,2
303,295,299,295,2
303,294,299,296,2
303,292,299,298,2
302,290,298,300,2
303,290,298,302,2
303,294,298,304,2
304,300,298,305,2
305,308,299,307,2
306,319,300,311,2
307,333,302,316,2
307,347,305,321,2
306,356,306,326,2
305,359,305,331,2
304,356,304,335,2
303,348,303,338,2
303,338,303,336,2
304,324,303,332,2
305,308,302,328,2
306,291,301,323,2
307,278,299,317,2
308,272,298,310,2
308,275,299,304,2
307,282,301,299,2
306,289,304,294,2
305,296,305,291,2
305,301,304,290,2
305,306,304,291,2
305,309,305,293,2
306,310,309,298,2
306,307,312,304,2
307,298,316,310,2
307,288,318,317,2
307,282,317,324,2
307,282,313,331,2
308,285,308,335,2
309,291,305,336,2
308,299,302,333,2
305,304,301,328,2
302,309,302,321,2
301,311,303,314,2
300,311,304,308,2
300,311,305,303,2
300,309,305,299,2
300,306,305,295,2
301,302,303,291,2
302,300,302,288,2
304,299,302,285,2
305,298,303,284,2
306,296,304,286,2
308,293,306,288,2
308,291,307,291,2
308,288,308,295,2
309,287,309,299,2
308,289,310,304,2
307,300,311,311,2
307,312,312,319,2
307,318,313,326,2
307,318,314,332,2
307,318,316,335,2
307,318,318,336,2
307,319,317,334,2
306,320,316,328,2
306,320,314,321,2
305,318,312,312,2
304,317,310,303,2
304,317,308,295,2
304,318,306,291,2
306,319,304,290,2
308,319,304,291,2
310,316,307,291,2
310,311,309,293,2
310,309,312,295,2
309,309,314,296,2
308,311,315,295,2
307,311,316,293,2
307,312,315,292,2
307,314,313,292,2
308,317,310,292,2
309,320,307,292,2
309,321,307,292,2
309,321,310,293,2
309,319,315,296,2
308,315,320,299,2
308,310,323,303,2
308,306,323,307,2
308,305,323,312,2
309,303,324,316,2
310,300,325,319,2
310,295,323,321,2
311,289,318,325,2
312,287,313,330,2
312,288,311,334,2
311,292,310,337,2
312,297,312,336,2
312,303,313,334,2
312,309,314,331,2
311,314,315,329,2
310,318,315,327,2
309,318,316,326,2
308,316,315,325,2
307,313,315,325,2
306,311,313,323,2
306,308,311,319,2
306,305,309,313,2
307,300,306,307,2
309,294,304,301,2
310,289,303,299,2
312,289,302,304,2
314,295,303,314,2
315,306,305,326,2
315,320,308,336,2
314,332,311,342,2
312,338,314,343,2
310,337,316,338,2
309,332,318,330,2
310,323,318,321,2
312,314,316,313,2
312,306,313,305,2
309,300,310,296,2
305,296,308,289,2
303,294,306,284,2
301,294,305,282,2
300,295,304,282,2
300,293,304,286,2
300,292,306,290,2
301,291,309,295,2
302,292,312,299,2
303,292,315,301,2
305,293,316,303,2
307,295,315,304,2
307,297,312,303,2
307,299,307,303,2
307,301,303,301,2
306,302,301,300,2
307,301,302,300,2
307,300,305,300,2
308,300,308,301,2
308,299,311,304,2
308,298,313,307,2
307,299,313,310,2
306,300,310,311,2
305,301,306,312,2
305,298,303,312,2
305,294,302,310,2
305,290,301,306,2
305,290,301,304,2
304,292,301,303,2
305,295,301,304,2
305,298,301,308,2
306,302,303,312,2
307,304,305,316,2
307,306,306,318,2
307,307,306,319,2
306,309,305,318,2
305,311,304,315,2
304,314,305,311,2
303,319,307,308,2
304,327,310,307,2
305,337,313,306,2
306,346,315,306,2
307,352,317,303,2
307,352,319,300,2
309,345,321,298,2
311,330,322,295,2
312,310,319,293,2
312,294,314,294,2
312,285,307,297,2
312,283,301,301,2
312,285,298,305,2
312,286,297,308,2
311,283,298,310,2
309,279,299,312,2
308,277,301,313,2
306,278,302,314,2
306,281,302,316,2
305,287,303,319,2
304,296,304,323,2
304,304,306,327,2
303,310,308,328,2
303,313,310,327,2
303,315,310,324,2
304,319,310,319,2
305,324,308,313,2
306,332,306,306,2
307,342,303,300,2
310,349,302,297,2
312,349,301,295,2
314,335,302,293,2
315,311,305,292,2
316,285,308,294,2
318,266,313,301,2
319,259,319,313,2
318,262,321,325,2
317,271,323,334,2
315,282,323,339,2
313,292,319,340,2
313,298,313,338,2
312,303,308,333,2
308,306,305,328,2
304,307,304,321,2
301,307,303,316,2
300,307,303,312,2
300,305,303,309,2
300,303,303,306,2
301,300,302,303,2
303,298,301,301,2
304,298,302,299,2
305,298,303,297,2
307,302,303,295,2
307,307,304,294,2
307,315,304,296,2
308,325,304,298,2
307,333,305,302,2
306,339,306,308,2
305,340,307,313,2
305,337,307,317,2
304,331,308,319,2
304,324,310,319,2
304,315,314,318,2
304,306,319,316,2
306,301,326,314,2
307,302,332,311,2
308,305,332,307,2
307,304,327,301,2
306,300,320,296,2
305,295,314,292,2
306,290,310,289,2
307,285,306,288,2
307,282,301,289,2
308,280,297,291,2
308,280,296,293,2
308,282,297,295,2
308,284,300,297,2
307,287,302,299,2
307,290,304,301,2
305,294,304,302,2
304,299,302,303,2
302,303,300,303,2
302,306,298,302,2
301,309,297,301,2
301,310,298,300,2
302,311,298,299,2
302,312,298,301,2
303,314,299,306,2
305,318,300,312,2
308,324,301,318,2
311,330,303,323,2
313,333,303,327,2
315,330,305,330,2
316,321,307,330,2
316,308,310,328,2
315,294,315,325,2
314,282,319,322,2
314,279,322,321,2
314,286,325,320,2
313,298,325,318,2
312,309,321,317,2
308,317,317,317,2
304,320,312,318,2
301,321,309,319,2
300,321,306,321,2
301,320,304,322,2
304,318,302,319,2
306,314,300,313,2
306,309,299,305,2
304,306,299,299,2
302,304,299,295,2
300,304,300,294,2
300,306,304,295,2
300,310,309,298,2
301,315,312,299,2
301,319,313,299,2
302,322,312,298,2
302,321,309,298,2
302,318,306,299,2
302,314,304,301,2
303,310,304,304,2
303,304,303,307,2
303,298,303,311,2
303,295,303,315,2
302,295,302,319,2
302,299,302,323,2
302,304,303,323,2
303,306,305,320,2
304,305,308,315,2
306,301,311,309,2
308,294,314,304,2
309,288,318,301,2
309,284,319,299,2
308,287,317,299,2
307,294,315,300,2
306,299,313,300,2
304,302,312,299,2
302,303,309,295,2
300,302,304,291,2
299,303,299,290,2
299,306,295,290,2
299,308,294,292,2
299,310,293,292,2
300,309,294,291,2
302,308,296,288,2
303,307,297,286,2
303,307,297,287,2
304,307,298,291,2
305,306,300,296,2
306,306,304,302,2
307,305,311,308,2
309,306,318,315,2
311,307,323,321,2
313,312,326,326,2
313,318,326,328,2
313,326,320,327,2
312,333,311,324,2
311,337,304,321,2
310,336,302,317,2
309,329,304,314,2
308,319,309,311,2
306,312,312,309,2
304,309,313,308,2
303,307,312,308,2
303,305,311,308,2
303,301,311,309,2
303,295,311,307,2
304,289,311,305,2
306,283,308,303,2
307,280,303,301,2
308,278,296,300,2
309,280,291,300,2
310,283,289,301,2
311,286,292,302,2
312,288,298,302,2
312,291,303,302,2
311,295,307,301,2
311,300,310,300,2
310,305,310,298,2
308,309,306,295,2
306,313,300,293,2
305,316,296,291,2
304,320,295,289,2
304,323,298,288,2
305,323,303,288,2
307,321,307,287,2
308,315,311,286,2
308,306,312,287,2
309,298,310,289,2
310,291,305,292,2
310,286,303,296,2
310,282,301,301,2
310,280,301,306,2
309,281,304,311,2
308,286,307,315,2
306,296,310,318,2
304,306,315,319,2
303,313,318,319,2
301,316,316,319,2
300,318,311,319,2
300,319,305,318,2
299,319,300,315,2
299,320,297,312,2
299,319,296,309,2
299,318,295,307,2
298,315,295,305,2
299,312,294,303,2
300,309,293,302,2
301,307,292,301,2
303,307,292,301,2
304,308,293,302,2
306,311,295,305,2
308,315,298,308,2
311,320,301,312,2
313,324,304,317,2
314,329,306,321,2
314,333,310,324,2
314,334,314,327,2
314,333,317,329,2
313,328,319,330,2
313,316,319,328,2
312,303,314,323,2
311,292,308,316,2
311,283,302,309,2
310,277,299,303,2
310,272,297,297,2
310,267,296,295,2
311,267,298,298,2
311,274,302,306,2
311,285,307,316,2
310,295,312,325,2
309,301,316,330,2
309,304,316,330,2
309,307,314,325,2
308,311,311,319,2
308,314,312,313,2
309,315,314,309,2
309,316,316,309,2
311,317,318,312,2
310,318,318,317,2
306,319,316,321,2
302,320,312,324,2
299,321,309,324,2
299,323,308,323,2
300,324,308,319,2
301,327,307,313,2
302,329,305,306,2
303,331,301,299,2
303,333,296,294,2
304,335,292,288,2
305,338,290,283,2
307,340,292,280,2
308,340,298,277,2
310,335,307,277,2
312,329,317,278,2
312,323,325,279,2
311,317,329,278,2
309,308,327,279,2
306,298,322,279,2
304,289,317,281,2
303,283,315,283,2
303,281,311,285,2
301,281,307,286,2
301,281,304,287,2
300,282,303,289,2
300,284,303,292,2
300,287,303,295,2
301,290,304,298,2
302,292,306,301,2
302,296,307,305,2
304,300,309,309,2
305,306,310,313,2
306,312,311,316,2
307,320,312,318,2
308,326,312,318,2
309,328,311,317,2
309,325,312,316,2
309,318,312,315,2
309,308,313,313,2
309,296,313,311,2
309,286,313,310,2
308,280,313,311,2
308,280,312,312,2
308,280,310,312,2
308,280,309,311,2
309,280,308,308,2
309,284,308,305,2
307,291,309,304,2
304,301,311,303,2
302,310,313,303,2
300,316,316,304,2
300,319,319,305,2
300,317,318,309,2
300,314,316,311,2
300,311,316,313,2
300,311,319,312,2
302,313,323,311,2
303,319,328,311,2
303,325,329,312,2
303,330,327,314,2
302,334,324,316,2
302,339,321,320,2
302,343,318,324,2
302,343,315,326,2
302,337,311,327,2
303,326,309,325,2
303,316,308,321,2
304,308,309,320,2
304,304,310,322,2
305,303,309,324,2
304,302,305,324,2
304,301,300,322,2
304,298,297,319,2
305,296,300,316,2
305,295,306,313,2
305,296,314,309,2
305,300,317,307,2
304,307,317,307,2
303,315,314,307,2
302,324,311,306,2
301,332,310,304,2
300,338,309,301,2
300,340,309,298,2
301,338,308,294,2
302,330,306,290,2
303,319,305,287,2
305,309,303,285,2
307,301,303,285,2
309,297,305,285,2
312,297,309,288,2
315,295,312,289,2
317,291,314,290,2
317,284,313,290,2
314,276,311,290,2
310,270,309,289,2
308,268,309,290,2
307,273,310,292,2
305,285,311,295,2
304,297,311,299,2
302,308,311,302,2
300,316,311,303,2
300,320,311,303,2
301,321,310,301,2
301,321,309,297,2
302,320,308,292,2
302,316,306,288,2
302,311,305,285,2
302,306,304,286,2
303,303,304,287,2
303,300,304,290,2
304,299,305,296,2
305,301,307,303,2
306,307,310,310,2
306,318,313,316,2
307,330,318,319,2
308,341,323,322,2
307,351,325,324,2
306,358,322,325,2
305,360,318,325,2
305,357,314,326,2
304,347,313,327,2
304,335,311,327,2
304,322,308,327,2
304,307,302,327,2
304,294,297,325,2
304,284,295,322,2
303,280,295,318,2
303,279,298,313,2
303,280,302,307,2
303,281,306,302,2
303,283,306,297,2
304,285,305,293,2
304,287,305,291,2
305,289,306,291,2
306,292,308,291,2
306,295,309,293,2
306,299,309,294,2
305,302,308,296,2
305,305,306,297,2
304,307,304,299,2
304,309,304,302,2
304,312,304,306,2
304,313,305,312,2
305,314,306,321,2
305,313,308,332,2
305,313,309,340,2
305,312,311,345,2
305,310,312,344,2
306,305,314,340,2
307,299,314,331,2
308,293,314,322,2
308,290,310,312,2
308,289,305,304,2
308,294,300,298,2
308,306,298,295,2
310,323,301,294,2
311,342,307,293,2
312,360,312,290,2
313,374,320,289,2
313,383,327,289,2
311,382,329,289,2
309,374,327,288,2
307,357,322,289,2
307,335,318,291,2
309,315,313,294,2
311,298,310,297,2
312,287,309,300,2
310,277,310,300,2
306,268,308,299,2
304,260,303,299,2
303,257,299,302,2
303,259,296,307,2
304,268,296,314,2
304,279,298,319,2
304,290,301,324,2
305,297,303,327,2
305,301,305,328,2
305,303,306,327,2
306,304,306,324,2
306,305,305,318,2
306,305,305,312,2
305,306,304,305,2
304,307,303,300,2
303,307,303,297,2
304,308,303,296,2
304,309,303,296,2
305,309,302,296,2
305,309,302,298,2
306,309,302,301,2
307,309,303,305,2
308,309,304,309,2
309,309,307,315,2
312,309,310,320,2
313,309,313,325,2
316,309,316,328,2
317,309,318,326,2
316,307,318,319,2
314,303,316,312,2
311,299,312,306,2
308,296,309,301,2
306,295,305,296,2
303,297,302,292,2
302,301,300,290,2
302,311,300,290,2
304,327,302,292,2
306,344,304,293,2
307,361,306,295,2
308,376,306,297,2
308,387,307,298,2
309,385,309,299,2
310,368,311,300,2
311,340,310,302,2
312,313,310,306,2
313,292,312,311,2
314,280,316,316,2
314,273,323,320,2
313,271,332,322,2
311,272,338,322,2
310,275,340,322,2
308,279,336,319,2
306,284,325,317,2
305,289,311,314,2
304,294,300,311,2
304,299,292,309,2
304,301,289,309,2
304,303,289,309,2
304,305,289,310,2
305,306,291,312,2
305,308,292,314,2
305,308,294,316,2
306,309,296,319,2
307,310,298,323,2
307,311,301,327,2
308,311,304,331,2
309,312,307,334,2
309,312,310,336,2
310,314,312,337,2
310,315,313,335,2
309,316,313,332,2
308,317,312,328,2
307,317,311,325,2
306,317,309,324,2
306,317,307,324,2
306,317,306,321,2
307,318,304,317,2
307,320,303,312,2
308,323,304,306,2
308,326,305,302,2
310,329,307,298,2
311,330,309,296,2
313,331,310,296,2
315,327,310,298,2
315,319,311,301,2
315,315,311,307,2
315,314,312,315,2
317,312,313,321,2
318,304,313,324,2
319,296,311,322,2
317,293,310,318,2
313,297,309,312,2
307,306,308,307,2
302,318,307,303,2
298,326,306,302,2
296,327,305,304,2
296,323,305,309,2
296,315,307,313,2
297,307,310,316,2
299,300,311,317,2
301,295,309,316,2
303,292,307,315,2
306,290,306,313,2
307,290,307,311,2
308,292,308,308,2
308,294,309,306,2
307,297,312,306,2
306,301,316,307,2
306,305,322,309,2
306,308,330,310,2
307,311,335,310,2
307,313,339,308,2
308,314,338,304,2
307,312,329,299,2
306,311,314,293,2
305,307,302,288,2
305,304,294,285,2
304,305,291,283,2
303,310,290,282,2
303,317,290,280,2
302,322,291,278,2
302,321,294,276,2
304,314,299,276,2
306,300,306,277,2
308,282,314,280,2
310,268,322,285,2
312,266,329,293,2
313,275,335,303,2
314,290,339,311,2
312,306,337,316,2
308,317,333,317,2
305,322,326,315,2
303,324,318,313,2
302,323,310,310,2
301,322,302,307,2
301,321,297,305,2
301,319,295,304,2
301,318,295,302,2
302,316,296,301,2
302,314,297,301,2
303,312,299,301,2
304,311,301,302,2
306,310,303,303,2
307,309,307,304,2
309,309,311,305,2
309,310,313,304,2
309,313,312,305,2
309,318,310,306,2
309,325,309,307,2
308,333,310,307,2
307,341,313,308,2
306,348,316,309,2
305,353,319,310,2
305,355,322,313,2
305,355,321,315,2
305,353,317,317,2
306,350,311,317,2
306,345,306,318,2
306,336,303,319,2
306,321,302,321,2
307,302,303,324,2
308,281,307,327,2
309,266,312,328,2
310,263,317,328,2
310,268,319,326,2
310,276,320,323,2
310,284,317,321,2
311,291,314,320,2
312,298,311,319,2
313,304,311,317,2
313,306,313,314,2
311,306,316,311,2
308,302,320,309,2
306,298,323,308,2
304,296,324,307,2
304,298,326,307,2
305,304,328,307,2
306,311,328,307,2
308,315,326,307,2
309,312,323,306,2
307,304,315,305,2
305,294,307,302,2
303,286,302,299,2
303,283,300,297,2
305,286,301,295,2
306,295,302,296,2
307,308,302,297,2
307,323,298,299,2
304,335,295,300,2
301,340,294,301,2
299,338,294,301,2
297,331,295,300,2
295,324,295,300,2
295,322,296,300,2
296,323,296,303,2
297,327,296,307,2
297,329,297,311,2
298,327,297,314,2
298,323,297,314,2
298,317,298,312,2
299,313,300,310,2
301,309,301,310,2
303,306,303,312,2
305,301,304,315,2
306,294,306,319,2
307,288,307,323,2
307,285,308,326,2
307,285,310,326,2
306,287,310,322,2
304,288,308,317,2
302,289,306,311,2
302,288,304,306,2
303,286,305,302,2
304,286,308,300,2
304,288,313,299,2
304,294,319,300,2
305,301,323,301,2
306,306,325,302,2
307,307,322,302,2
307,305,318,302,2
307,305,316,302,2
308,306,316,303,2
308,310,317,304,2
309,313,319,305,2
308,313,319,304,2
307,310,319,305,2
306,305,319,306,2
307,298,320,310,2
306,293,322,313,2
306,288,323,315,2
305,286,321,317,2
305,290,319,318,2
304,298,314,317,2
303,305,307,314,2
302,309,300,310,2
300,309,295,305,2
300,309,293,300,2
299,310,293,296,2
300,313,294,293,2
300,315,294,291,2
300,317,294,290,2
301,318,297,290,2
302,319,301,292,2
304,320,307,297,2
307,319,315,301,2
307,313,320,306,2
308,307,321,311,2
307,302,318,314,2
307,301,315,316,2
306,303,315,315,2
305,305,315,312,2
304,308,313,309,2
304,311,310,306,2
304,316,307,304,2
305,320,304,304,2
307,321,299,305,2
308,319,296,306,2
307,316,295,308,2
304,314,296,308,2
300,314,300,307,2
299,315,305,307,2
298,317,309,306,2
299,318,312,307,2
301,319,313,308,2
303,317,312,310,2
304,311,310,312,2
305,302,308,315,2
307,293,308,318,2
307,287,308,320,2
307,285,309,324,2
306,289,310,329,2
304,297,313,334,2
302,307,315,336,2
299,316,317,334,2
298,323,320,329,2
298,326,325,320,2
298,324,328,310,2
300,318,329,300,2
301,310,327,294,2
302,304,321,292,2
304,300,314,292,2
306,297,306,296,2
308,295,299,301,2
310,296,293,307,2
310,298,291,312,2
307,303,291,315,2
304,304,292,318,2
302,304,296,319,2
301,304,299,316,2
300,305,300,312,2
300,308,300,305,2
300,309,299,298,2
300,309,299,293,2
300,307,299,290,2
301,302,299,288,2
301,294,299,288,2
301,288,300,288,2
301,283,302,288,2
301,282,303,288,2
302,286,303,288,2
303,294,304,288,2
303,305,305,287,2
304,314,305,287,2
305,316,303,288,2
305,315,302,290,2
305,313,302,292,2
