306,330,303,294,2
309,308,303,293,2
310,289,304,291,2
311,279,305,291,2
311,277,306,292,2
310,280,306,292,2
308,285,304,291,2
304,288,302,290,2
300,290,301,290,2
297,292,301,295,2
295,293,301,304,2
295,291,302,316,2
296,288,305,327,2
297,285,307,336,2
297,284,308,344,2
298,288,309,350,2
299,294,310,353,2
300,300,311,353,2
301,304,312,348,2
301,303,312,337,2
301,298,312,324,2
302,290,312,311,2
304,282,312,300,2
306,277,312,293,2
308,279,310,289,2
307,285,306,287,2
306,297,302,286,2
305,316,298,285,2
302,334,295,285,2
301,346,293,285,2
300,350,293,287,2
299,348,294,289,2
299,345,296,291,2
299,344,296,294,2
300,348,297,296,2
301,355,298,297,2
301,365,300,297,2
302,371,304,295,2
303,373,308,291,2
303,363,312,286,2
304,338,315,284,2
304,305,317,286,2
306,278,318,292,2
308,268,318,299,2
308,269,314,306,2
308,276,308,310,2
307,285,302,312,2
308,293,297,311,2
310,299,296,309,2
311,302,296,307,2
313,301,298,305,2
313,301,301,305,2
311,300,305,306,2
307,299,306,308,2
304,295,306,309,2
303,290,306,310,2
302,285,306,308,2
301,284,307,305,2
301,286,308,303,2
300,289,309,303,2
300,292,309,304,2
300,299,308,304,2
300,310,306,305,2
301,321,303,304,2
302,328,301,302,2
302,330,300,300,2
303,327,300,298,2
303,319,302,294,2
305,310,302,293,2
306,304,303,294,2
308,301,304,299,2
309,304,307,305,2
309,311,308,310,2
307,318,310,314,2
306,320,310,315,2
305,317,311,317,2
304,312,311,317,2
303,308,311,317,2
302,307,311,316,2
302,310,311,315,2
302,320,313,312,2
303,333,315,307,2
304,345,316,302,2
305,352,315,297,2
308,353,311,294,2
308,344,307,292,2
307,325,304,291,2
305,303,301,290,2
303,284,298,290,2
302,271,295,291,2
304,262,294,293,2
306,258,296,295,2
309,257,298,298,2
312,262,301,302,2
314,270,306,305,2
316,277,311,309,2
318,285,316,311,2
318,296,320,312,2
318,312,324,311,2
316,331,324,310,2
314,346,322,309,2
312,353,318,307,2
311,351,314,307,2
310,341,309,305,2
310,324,304,303,2
309,309,300,303,2
309,300,297,304,2
309,294,296,308,2
309,291,294,313,2
309,290,294,319,2
310,290,295,323,2
309,290,298,325,2
308,290,301,328,2
307,293,303,331,2
308,299,306,331,2
307,304,308,328,2
307,307,309,321,2
307,309,309,310,2
305,313,307,299,2
303,314,305,290,2
301,315,303,284,2
300,313,302,280,2
299,312,302,278,2
299,311,302,279,2
299,312,302,280,2
301,312,302,283,2
303,311,303,287,2
305,311,305,291,2
306,316,308,296,2
306,322,312,300,2
308,325,317,306,2
312,326,323,312,2
317,323,327,316,2
318,321,329,320,2
316,321,328,322,2
313,323,324,323,2
309,325,317,322,2
304,326,310,319,2
301,322,304,316,2
300,315,302,313,2
299,307,302,310,2
300,300,302,308,2
300,296,304,306,2
301,292,305,306,2
303,289,308,308,2
305,287,310,310,2
307,285,313,310,2
308,285,315,306,2
308,286,316,299,2
310,286,318,291,2
311,283,318,285,2
312,279,317,282,2
313,277,313,284,2
314,282,307,288,2
315,292,300,294,2
314,301,295,299,2
311,313,292,304,2
309,324,291,307,2
307,331,291,310,2
305,332,292,312,2
303,327,294,312,2
302,322,295,310,2
305,318,296,307,2
310,312,298,303,2
314,305,300,299,2
315,299,302,296,2
312,295,302,294,2
310,293,303,293,2
309,294,304,293,2
309,298,306,296,2
310,304,308,300,2
311,310,310,304,2
312,313,311,308,2
311,313,310,311,2
309,310,309,313,2
306,308,308,314,2
305,307,307,315,2
305,308,305,314,2
304,309,303,312,2
302,309,302,311,2
301,312,301,313,2
301,316,301,316,2
302,316,301,321,2
303,314,300,326,2
304,309,301,332,2
305,304,303,336,2
308,301,305,339,2
310,298,309,340,2
312,296,313,336,2
313,293,314,328,2
311,293,313,316,2
309,294,311,304,2
309,294,308,293,2
309,295,304,285,2
309,294,301,280,2
310,292,298,280,2
309,294,296,281,2
308,301,296,283,2
307,310,297,287,2
304,320,300,292,2
302,328,303,296,2
300,334,305,298,2
299,338,308,299,2
299,340,311,300,2
299,339,313,299,2
299,336,314,297,2
299,331,316,295,2
300,323,318,293,2
301,314,321,291,2
303,309,324,293,2
307,308,328,297,2
309,306,330,299,2
310,304,326,300,2
309,302,319,300,2
308,300,311,300,2
307,299,305,299,2
308,296,304,300,2
308,295,304,300,2
307,296,304,301,2
306,297,304,300,2
304,298,304,300,2
303,298,304,300,2
302,297,304,300,2
303,296,305,301,2
304,295,306,304,2
305,296,304,307,2
306,296,302,310,2
305,298,298,312,2
303,300,296,314,2
300,305,294,315,2
298,312,294,316,2
298,318,294,315,2
300,326,295,314,2
302,335,296,311,2
303,340,297,305,2
305,339,298,297,2
307,329,299,288,2
309,313,302,280,2
310,295,306,276,2
312,278,314,278,2
315,262,321,284,2
316,250,327,293,2
316,246,327,302,2
313,247,321,307,2
310,254,314,309,2
307,269,307,310,2
303,287,302,308,2
301,303,300,306,2
300,316,300,303,2
300,326,302,303,2
300,330,304,304,2
301,329,309,306,2
302,324,313,309,2
304,318,318,313,2
306,311,321,317,2
309,305,325,321,2
311,301,326,326,2
311,300,323,330,2
307,301,318,331,2
303,305,312,330,2
301,312,308,327,2
302,320,304,323,2
303,327,302,319,2
303,330,301,315,2
303,327,302,312,2
304,321,304,311,2
305,314,306,312,2
307,309,308,313,2
309,305,308,316,2
310,303,305,318,2
311,303,302,320,2
311,302,299,319,2
311,302,298,316,2
310,303,298,312,2
307,303,298,305,2
306,301,298,297,2
305,299,299,290,2
306,299,301,285,2
306,304,303,281,2
307,312,304,280,2
308,320,305,282,2
308,328,305,284,2
308,335,306,286,2
307,336,307,287,2
306,332,307,288,2
306,327,308,290,2
307,322,310,292,2
308,313,311,293,2
308,301,311,293,2
306,288,311,292,2
305,278,308,293,2
305,274,304,296,2
307,271,301,300,2
312,270,300,304,2
316,270,301,307,2
317,272,303,310,2
316,276,307,312,2
314,281,312,315,2
311,285,316,317,2
308,288,318,319,2
305,289,320,320,2
304,291,320,320,2
303,293,319,321,2
302,296,316,320,2
302,301,313,320,2
303,307,310,318,2
303,312,307,317,2
304,315,306,315,2
304,314,304,313,2
305,310,304,311,2
307,302,304,311,2
308,292,306,313,2
307,285,307,314,2
307,282,308,315,2
307,281,310,316,2
309,281,315,317,2
310,285,321,315,2
310,292,327,309,2
309,300,333,303,2
307,306,337,297,2
305,311,338,295,2
305,318,333,295,2
306,324,325,298,2
307,327,318,301,2
308,327,313,303,2
307,324,309,305,2
308,322,304,309,2
308,318,301,313,2
309,314,298,316,2
308,308,297,319,2
307,303,297,320,2
306,299,299,320,2
306,298,301,320,2
306,296,304,319,2
306,297,307,318,2
305,301,309,318,2
303,307,311,317,2
301,309,312,317,2
301,308,312,315,2
301,304,312,313,2
303,302,312,310,2
303,300,312,307,2
304,301,312,307,2
305,303,312,307,2
306,308,312,308,2
307,313,312,310,2
307,316,312,312,2
308,318,310,315,2
309,322,310,319,2
310,323,309,322,2
312,318,309,322,2
314,312,308,320,2
315,306,307,316,2
315,301,306,311,2
314,295,307,307,2
313,290,308,303,2
313,292,308,300,2
312,298,308,296,2
310,300,310,291,2
308,298,314,287,2
306,293,319,284,2
306,288,324,284,2
307,282,327,287,2
309,278,326,292,2
310,280,323,297,2
310,290,319,302,2
310,305,316,306,2
311,317,315,307,2
311,321,314,306,2
312,319,314,306,2
311,314,315,305,2
310,308,316,305,2
307,304,315,307,2
306,302,313,309,2
307,302,311,311,2
308,304,309,315,2
310,307,308,321,2
311,310,308,325,2
311,310,308,327,2
310,309,308,327,2
308,310,307,325,2
306,313,305,321,2
304,316,303,314,2
303,319,302,307,2
303,321,301,300,2
304,322,300,294,2
305,322,300,290,2
307,322,302,288,2
308,319,303,287,2
308,315,304,287,2
309,311,306,288,2
311,304,306,289,2
314,290,304,293,2
316,270,304,297,2
315,256,304,303,2
313,255,307,308,2
312,262,311,311,2
312,270,315,312,2
314,275,319,312,2
316,279,321,312,2
312,284,321,313,2
304,290,321,313,2
298,297,321,313,2
294,306,321,312,2
292,319,321,311,2
291,331,319,309,2
292,338,316,308,2
293,340,313,306,2
295,338,309,305,2
297,332,306,305,2
299,326,304,306,2
301,322,303,308,2
303,319,301,308,2
305,320,302,308,2
307,323,304,307,2
309,328,309,307,2
310,333,315,307,2
311,336,320,307,2
311,336,325,309,2
311,334,325,312,2
310,329,321,316,2
309,322,316,320,2
308,316,311,323,2
308,310,308,324,2
307,304,305,324,2
306,298,304,323,2
307,292,304,322,2
308,287,305,321,2
310,283,308,320,2
311,282,312,319,2
312,289,315,316,2
311,303,317,312,2
310,320,318,308,2
310,338,317,305,2
310,351,314,302,2
308,356,310,299,2
306,352,307,295,2
305,342,304,293,2
305,330,302,292,2
305,317,299,292,2
307,305,298,293,2
309,294,299,295,2
312,283,300,296,2
312,273,303,299,2
312,264,305,304,2
310,258,308,311,2
308,254,310,317,2
307,255,313,323,2
306,260,314,329,2
306,270,314,335,2
306,282,313,340,2
307,291,312,344,2
307,299,310,347,2
309,304,310,348,2
311,306,310,346,2
313,305,310,341,2
313,303,309,331,2
310,300,307,315,2
308,296,304,298,2
305,290,302,283,2
304,286,301,271,2
303,285,301,264,2
303,288,301,261,2
303,297,303,263,2
302,310,304,268,2
301,324,305,276,2
300,333,306,283,2
300,333,305,288,2
300,330,304,291,2
301,330,304,295,2
302,331,304,297,2
303,329,303,298,2
304,326,303,298,2
306,321,303,298,2
306,314,304,299,2
306,304,305,303,2
306,294,307,307,2
305,288,309,309,2
303,286,310,309,2
300,289,310,308,2
299,295,308,308,2
299,301,304,307,2
300,306,302,306,2
301,309,302,306,2
303,309,305,305,2
304,307,310,306,2
306,304,313,307,2
306,301,313,306,2
307,301,313,306,2
309,303,311,305,2
311,305,308,304,2
310,304,305,303,2
307,305,305,302,2
304,309,307,303,2
301,315,310,303,2
300,320,313,303,2
298,321,317,302,2
297,317,319,300,2
298,312,319,298,2
301,311,316,297,2
305,313,313,296,2
308,317,309,295,2
309,318,306,295,2
310,318,302,298,2
310,311,298,301,2
310,295,296,304,2
312,278,296,306,2
314,268,299,310,2
314,268,301,314,2
311,273,302,318,2
307,280,300,320,2
304,286,299,321,2
302,291,301,323,2
302,295,303,325,2
302,299,307,328,2
303,303,311,332,2
302,307,314,335,2
301,310,316,334,2
301,313,317,331,2
302,315,317,328,2
303,316,317,327,2
303,317,316,326,2
304,317,316,324,2
304,317,315,320,2
305,315,315,315,2
305,315,315,310,2
304,314,313,303,2
303,312,311,297,2
303,309,307,291,2
304,309,304,288,2
305,311,302,287,2
306,316,302,288,2
306,323,303,290,2
307,333,305,294,2
308,344,306,300,2
309,355,307,307,2
310,362,308,313,2
310,363,309,316,2
309,355,310,319,2
309,343,311,320,2
309,328,311,320,2
309,313,310,319,2
308,298,309,316,2
308,285,311,311,2
306,276,313,305,2
304,273,316,300,2
303,274,319,295,2
304,277,321,292,2
308,283,323,289,2
311,286,323,288,2
314,288,321,290,2
315,291,317,294,2
316,293,314,300,2
315,292,310,305,2
314,291,308,309,2
313,290,307,313,2
311,292,308,314,2
310,295,308,313,2
309,298,308,309,2
310,301,307,304,2
310,303,307,299,2
310,303,306,294,2
310,300,306,288,2
309,294,306,285,2
309,281,308,283,2
309,268,311,284,2
307,263,314,288,2
305,271,316,295,2
303,283,318,303,2
303,293,315,311,2
304,300,311,316,2
305,305,307,318,2
305,308,307,318,2
303,312,309,315,2
303,317,310,312,2
304,320,309,308,2
304,321,306,304,2
304,321,304,301,2
306,318,303,299,2
307,315,303,300,2
307,315,304,303,2
307,318,305,307,2
308,324,307,313,2
309,330,308,319,2
310,335,309,324,2
312,338,309,327,2
313,335,308,327,2
314,326,308,325,2
315,312,309,323,2
316,294,311,319,2
319,281,313,313,2
321,276,313,307,2
324,283,310,303,2
324,297,308,302,2
322,313,305,300,2
318,326,304,298,2
313,330,303,296,2
309,326,303,293,2
306,318,304,291,2
303,314,307,291,2
301,316,311,293,2
298,322,314,295,2
295,323,315,298,2
292,317,314,299,2
292,307,311,300,2
292,297,306,301,2
295,287,302,302,2
298,279,299,303,2
301,271,299,304,2
302,264,300,304,2
303,260,302,306,2
304,265,304,307,2
306,277,305,308,2
308,292,305,310,2
310,304,305,311,2
312,310,306,309,2
313,310,308,306,2
311,307,311,301,2
309,303,313,297,2
310,301,315,295,2
313,298,315,295,2
317,297,315,295,2
316,297,312,298,2
309,297,307,300,2
300,298,303,303,2
293,299,301,305,2
290,300,301,307,2
290,302,301,310,2
290,303,302,312,2
291,302,302,315,2
291,302,303,317,2
293,303,304,319,2
295,305,304,318,2
297,308,305,316,2
299,311,306,314,2
301,313,307,312,2
303,318,309,311,2
304,325,310,312,2
306,336,313,313,2
307,350,315,313,2
308,364,316,312,2
309,375,316,311,2
311,381,315,309,2
312,375,312,306,2
312,355,308,302,2
312,332,307,299,2
313,311,308,298,2
311,293,313,298,2
308,280,317,300,2
305,270,316,303,2
304,265,309,306,2
304,264,303,309,2
305,266,298,312,2
306,270,297,313,2
306,275,297,313,2
304,281,299,312,2
303,288,302,309,2
302,293,305,305,2
302,294,307,300,2
301,294,309,297,2
301,296,311,295,2
301,298,313,294,2
303,300,314,295,2
305,301,315,295,2
306,299,316,296,2
307,293,316,296,2
308,283,315,298,2
308,269,315,299,2
308,253,314,301,2
308,246,312,306,2
308,254,310,313,2
308,271,308,320,2
308,287,305,326,2
307,301,304,328,2
307,316,304,326,2
308,331,304,321,2
308,338,303,315,2
307,339,302,308,2
304,333,301,304,2
301,322,300,301,2
298,307,301,301,2
296,294,301,302,2
295,287,302,304,2
296,289,304,308,2
298,296,306,311,2
300,301,308,312,2
301,307,310,313,2
302,312,311,313,2
303,314,312,311,2
305,315,312,306,2
307,315,313,303,2
310,314,314,302,2
312,311,315,302,2
313,306,315,303,2
313,302,314,304,2
310,302,313,306,2
308,304,313,308,2
305,307,315,308,2
304,308,315,307,2
304,307,313,307,2
305,307,310,307,2
307,310,306,305,2
306,311,302,303,2
302,309,300,301,2
298,305,299,299,2
296,299,299,299,2
296,294,302,299,2
297,288,305,300,2
298,283,308,303,2
299,282,310,308,2
300,288,311,314,2
301,294,311,317,2
302,297,312,320,2
303,295,313,324,2
304,294,315,330,2
307,300,317,338,2
310,309,319,345,2
312,316,321,349,2
314,320,321,349,2
315,320,321,343,2
314,316,321,334,2
311,312,323,323,2
306,310,324,313,2
302,313,323,304,2
299,321,319,298,2
298,330,312,293,2
297,338,305,290,2
297,344,300,287,2
296,348,297,286,2
297,349,296,286,2
299,346,296,289,2
301,334,297,291,2
303,315,299,293,2
305,291,302,296,2
308,271,304,301,2
309,259,307,305,2
309,259,307,309,2
308,266,308,312,2
307,275,308,314,2
305,283,310,317,2
305,285,313,321,2
305,285,316,324,2
304,285,320,325,2
304,288,321,324,2
305,296,319,323,2
308,308,315,319,2
309,318,311,313,2
309,321,308,306,2
309,320,307,299,2
309,315,307,294,2
309,310,306,291,2
309,305,304,290,2
310,300,304,290,2
311,298,304,290,2
310,299,304,289,2
307,299,304,288,2
304,297,302,288,2
302,294,301,289,2
301,292,300,291,2
301,289,301,293,2
302,286,303,296,2
302,283,306,300,2
303,285,310,303,2
304,288,313,306,2
306,292,317,309,2
308,296,318,313,2
309,308,315,315,2
309,326,310,318,2
308,346,305,319,2
307,361,303,319,2
307,370,302,318,2
309,373,302,316,2
310,368,304,315,2
311,354,306,314,2
311,333,309,313,2
311,310,313,313,2
310,291,316,313,2
309,276,319,313,2
308,266,320,312,2
308,262,321,311,2
308,261,320,309,2
308,263,319,305,2
306,269,316,300,2
304,279,311,297,2
304,295,307,298,2
307,312,306,301,2
313,324,306,306,2
318,328,307,309,2
321,324,306,312,2
321,316,304,315,2
316,308,301,317,2
308,301,296,318,2
302,297,293,319,2
299,295,293,319,2
296,297,294,317,2
294,301,296,314,2
294,306,298,308,2
295,311,300,303,2
296,315,302,299,2
297,320,302,296,2
299,322,300,295,2
302,323,297,294,2
304,324,293,292,2
306,324,292,291,2
307,319,292,290,2
307,308,294,290,2
306,294,297,292,2
306,280,300,298,2
305,269,301,306,2
306,263,302,315,2
309,265,304,322,2
312,274,307,326,2
313,287,309,327,2
312,298,310,326,2
310,303,312,323,2
309,302,313,319,2
307,303,313,315,2
305,308,312,311,2
301,314,311,308,2
298,320,310,305,2
297,325,309,305,2
295,330,309,305,2
294,334,308,306,2
295,334,307,307,2
297,330,306,307,2
298,324,306,307,2
300,317,306,306,2
301,310,307,305,2
302,304,305,303,2
304,302,304,301,2
304,300,304,301,2
305,299,305,301,2
305,298,309,301,2
306,299,314,300,2
308,299,318,299,2
309,301,319,300,2
310,303,317,300,2
310,304,315,299,2
310,303,313,298,2
309,301,310,296,2
309,304,308,296,2
307,308,307,296,2
307,311,306,297,2
307,313,305,297,2
307,313,302,298,2
307,311,300,298,2
307,306,297,299,2
308,299,295,300,2
307,292,294,301,2
307,286,293,303,2
306,282,293,307,2
306,283,294,311,2
307,290,295,315,2
308,301,296,320,2
308,315,297,323,2
309,329,299,325,2
308,340,301,326,2
307,348,304,326,2
307,354,308,322,2
307,355,310,316,2
307,351,312,307,2
308,342,315,299,2
309,328,317,293,2
309,308,315,289,2
308,285,309,286,2
307,263,303,286,2
306,249,300,288,2
305,243,299,290,2
305,242,300,293,2
305,242,303,297,2
306,245,306,302,2
307,251,309,307,2
309,261,310,311,2
312,275,312,314,2
314,291,314,314,2
315,305,315,314,2
315,316,316,313,2
313,323,317,313,2
312,330,318,311,2
310,336,318,309,2
309,343,317,306,2
309,346,314,304,2
309,345,311,302,2
311,340,308,300,2
313,334,306,297,2
313,324,305,295,2
313,315,305,294,2
312,310,306,293,2
311,307,307,294,2
310,304,307,296,2
309,300,309,300,2
309,296,313,304,2
310,293,318,308,2
313,294,324,311,2
318,300,328,312,2
323,307,330,312,2
324,313,330,311,2
318,316,329,311,2
310,316,328,311,2
303,312,324,310,2
299,306,317,308,2
298,295,309,306,2
299,284,304,303,2
301,278,300,300,2
302,283,298,299,2
302,292,298,299,2
301,301,299,299,2
301,306,300,298,2
300,308,300,298,2
301,309,300,300,2
302,312,300,302,2
304,318,299,305,2
306,325,300,308,2
308,331,301,309,2
308,333,304,310,2
307,334,309,311,2
306,335,315,312,2
304,336,318,313,2
304,338,317,314,2
301,340,312,314,2
299,342,308,313,2
300,338,304,312,2
302,333,303,310,2
305,322,303,309,2
307,305,303,308,2
308,287,304,307,2
309,272,305,308,2
310,262,304,307,2
312,254,301,307,2
312,250,298,310,2
313,249,297,314,2
314,249,296,320,2
315,250,297,324,2
317,255,300,326,2
318,265,305,327,2
318,276,311,327,2
315,287,316,326,2
312,295,320,325,2
310,305,322,323,2
307,312,324,320,2
306,314,325,317,2
305,314,327,313,2
304,314,328,308,2
304,318,327,303,2
306,320,324,298,2
307,320,321,292,2
307,316,317,287,2
306,308,312,282,2
304,302,307,279,2
304,297,303,278,2
303,291,299,280,2
302,287,298,283,2
303,284,299,289,2
304,286,303,295,2
306,290,308,302,2
308,296,314,309,2
309,300,319,316,2
311,306,322,322,2
311,312,322,326,2
309,318,320,327,2
307,323,316,328,2
305,329,311,328,2
305,332,306,328,2
306,333,304,328,2
307,330,302,325,2
308,322,300,320,2
309,313,297,314,2
308,305,294,308,2
306,301,293,302,2
305,301,294,298,2
304,303,296,295,2
304,308,298,293,2
303,314,299,294,2
303,321,300,299,2
303,331,301,306,2
303,345,303,313,2
303,358,306,316,2
301,369,310,315,2
301,374,314,311,2
301,370,318,306,2
302,358,322,303,2
302,338,323,300,2
302,315,319,299,2
301,291,312,298,2
300,271,306,298,2
299,256,303,297,2
298,248,301,296,2
297,246,301,295,2
295,247,301,295,2
296,252,302,296,2
300,260,303,298,2
304,270,304,300,2
309,281,304,303,2
314,291,304,306,2
319,301,305,311,2
324,310,307,315,2
325,317,310,318,2
320,322,313,320,2
314,324,315,321,2
308,321,316,323,2
306,313,316,323,2
305,302,317,323,2
306,293,318,322,2
307,287,319,321,2
309,282,319,318,2
309,279,318,313,2
310,284,317,308,2
309,291,315,304,2
308,292,311,301,2
307,292,308,299,2
308,294,309,299,2
309,300,311,299,2
310,305,314,301,2
311,309,317,304,2
311,313,318,308,2
310,318,317,311,2
309,325,316,312,2
306,331,314,311,2
303,336,312,310,2
301,339,309,309,2
301,336,304,310,2
303,328,300,310,2
304,316,297,310,2
305,302,294,310,2
304,292,293,309,2
305,288,293,310,2
305,291,294,311,2
305,299,294,313,2
306,308,295,313,2
306,317,296,314,2
307,326,297,314,2
308,334,298,314,2
309,336,300,314,2
309,337,303,315,2
308,334,305,317,2
307,326,307,319,2
306,314,307,318,2
305,303,307,315,2
304,298,307,311,2
303,298,307,306,2
304,303,305,302,2
305,304,303,300,2
306,299,301,299,2
307,297,299,300,2
308,302,298,303,2
310,308,299,307,2
313,310,301,311,2
314,309,303,314,2
313,305,304,317,2
312,301,302,318,2
311,296,302,319,2
312,293,304,319,2
314,292,307,316,2
316,291,309,313,2
318,292,309,309,2
321,292,307,305,2
322,292,304,302,2
315,294,304,300,2
307,296,304,299,2
301,297,307,299,2
297,298,309,301,2
295,299,310,302,2
296,300,310,304,2
300,301,311,307,2
303,303,312,307,2
304,307,313,307,2
304,312,314,307,2
301,316,313,307,2
299,319,311,307,2
299,316,310,304,2
300,307,308,301,2
301,296,308,298,2
304,287,308,297,2
306,282,311,297,2
308,280,312,297,2
309,281,314,298,2
310,286,316,300,2
311,294,318,301,2
310,303,321,303,2
309,309,323,304,2
308,311,324,303,2
305,309,323,305,2
303,305,320,309,2
303,301,316,314,2
304,296,311,318,2
307,293,307,320,2
309,298,304,320,2
310,310,300,318,2
309,326,297,315,2
309,341,295,311,2
308,351,295,308,2
309,353,294,306,2
311,346,293,305,2
314,333,292,303,2
316,322,291,299,2
317,313,290,295,2
314,303,292,292,2
308,294,296,289,2
301,289,300,288,2
296,289,303,289,2
293,292,304,292,2
293,295,305,294,2
295,295,307,297,2
297,292,311,300,2
298,290,315,303,2
299,288,318,305,2
300,286,320,307,2
301,287,319,308,2
300,287,317,310,2
300,287,314,313,2
301,287,312,315,2
303,287,310,316,2
304,287,309,314,2
306,287,309,311,2
309,288,310,307,2
311,293,311,304,2
313,300,313,299,2
313,306,315,293,2
313,309,315,290,2
312,309,315,289,2
310,311,314,290,2
309,317,311,292,2
308,323,307,292,2
306,330,303,292,2
306,336,299,293,2
304,344,298,295,2
302,351,298,297,2
301,352,300,299,2
300,344,303,302,2
301,330,308,307,2
302,313,314,314,2
302,297,321,319,2
302,284,326,323,2
303,278,328,325,2
305,282,325,324,2
308,293,318,322,2
310,306,312,319,2
311,319,308,316,2
310,330,305,312,2
309,335,300,309,2
308,330,297,306,2
307,316,295,304,2
306,298,295,303,2
306,280,295,304,2
306,262,296,305,2
306,248,298,306,2
305,240,299,305,2
306,243,301,305,2
306,256,304,306,2
307,273,306,307,2
309,289,307,309,2
310,301,306,311,2
310,310,304,314,2
312,313,303,316,2
313,314,302,316,2
314,313,303,315,2
313,311,304,312,2
311,308,306,307,2
310,305,308,301,2
310,301,309,296,2
310,301,309,295,2
309,304,306,296,2
308,303,302,299,2
308,300,300,303,2
310,296,299,306,2
315,293,301,309,2
319,294,304,312,2
321,299,306,315,2
321,303,310,318,2
319,308,311,320,2
315,313,311,321,2
312,316,311,320,2
309,318,312,318,2
307,319,314,315,2
306,319,315,312,2
305,320,316,309,2
304,323,316,306,2
304,330,315,305,2
304,342,314,305,2
305,355,312,306,2
306,369,311,308,2
306,381,310,307,2
305,383,309,307,2
303,375,308,306,2
302,363,308,305,2
300,351,309,304,2
301,339,311,302,2
303,328,311,300,2
306,316,310,299,2
309,302,309,299,2
313,284,309,299,2
314,265,309,298,2
312,248,311,299,2
310,236,313,301,2
309,230,315,304,2
310,229,318,307,2
312,234,320,311,2
313,244,321,314,2
315,260,321,316,2
315,278,321,318,2
313,292,319,319,2
311,302,314,318,2
310,308,308,314,2
310,311,301,309,2
308,313,296,304,2
306,317,291,300,2
303,321,288,298,2
301,322,286,297,2
299,318,286,298,2
300,309,289,298,2
301,297,291,299,2
302,286,294,300,2
304,279,296,302,2
305,276,299,307,2
306,276,305,313,2
307,277,311,319,2
307,278,315,320,2
307,280,318,316,2
307,288,316,310,2
305,299,313,306,2
301,307,310,302,2
298,314,308,301,2
296,321,306,301,2
297,326,304,302,2
298,330,303,303,2
299,333,303,305,2
300,335,303,307,2
300,335,304,308,2
299,335,304,311,2
298,337,304,314,2
298,341,304,317,2
300,344,304,321,2
301,343,305,324,2
302,340,306,327,2
303,335,307,330,2
304,327,308,331,2
306,319,308,330,2
306,314,309,325,2
307,314,309,317,2
307,317,309,308,2
307,320,308,298,2
307,318,308,288,2
307,310,308,283,2
306,296,310,281,2
306,277,313,285,2
304,260,318,291,2
303,248,322,299,2
303,243,324,306,2
305,249,325,312,2
307,262,327,316,2
308,278,329,319,2
310,292,329,321,2
311,303,329,323,2
311,310,327,325,2
309,314,327,327,2
308,317,327,327,2
307,321,325,325,2
307,323,324,323,2
306,322,322,320,2
305,319,317,316,2
306,317,310,313,2
308,316,303,308,2
309,316,297,304,2
309,315,293,299,2
309,313,290,295,2
308,310,289,293,2
308,309,291,294,2
308,306,294,298,2
308,299,299,301,2
309,291,302,303,2
312,288,304,304,2
314,291,306,304,2
313,297,308,302,2
312,302,311,299,2
309,305,314,295,2
305,305,315,293,2
303,303,315,292,2
302,303,313,293,2
302,305,310,295,2
303,308,306,297,2
303,307,303,300,2
303,303,300,304,2
303,299,298,308,2
304,296,295,311,2
305,296,293,312,2
307,298,291,314,2
307,302,291,315,2
307,309,292,316,2
306,319,294,319,2
305,328,297,319,2
304,332,300,317,2
303,332,304,313,2
303,328,308,307,2
305,322,312,302,2
309,314,315,300,2
311,307,318,300,2
312,304,320,300,2
311,303,324,297,2
310,301,330,294,2
308,299,335,290,2
306,299,338,288,2
304,303,336,285,2
302,307,329,284,2
302,310,319,284,2
302,312,311,285,2
303,314,305,288,2
303,313,301,293,2
303,309,299,299,2
304,304,298,304,2
304,302,297,308,2
305,298,295,310,2
305,294,293,311,2
307,290,292,311,2
309,289,293,312,2
310,288,297,312,2
309,286,300,311,2
307,286,303,312,2
306,288,304,312,2
305,290,305,312,2
304,291,304,311,2
302,295,304,312,2
301,303,304,314,2
302,315,305,316,2
302,328,306,316,2
303,335,307,313,2
302,334,308,308,2
302,328,307,301,2
301,320,305,293,2
301,309,303,285,2
302,298,302,281,2
303,292,302,282,2
305,292,303,287,2
307,293,303,293,2
309,292,305,299,2
311,292,309,306,2
314,294,316,312,2
317,297,323,316,2
314,300,329,317,2
310,301,332,315,2
306,300,332,313,2
304,298,327,312,2
304,296,319,311,2
304,294,312,311,2
303,295,306,313,2
302,298,303,315,2
302,301,303,316,2
303,304,304,315,2
305,305,307,312,2
307,306,312,309,2
308,308,315,307,2
309,312,316,306,2
309,318,314,306,2
309,329,312,306,2
310,340,308,307,2
311,347,304,308,2
310,346,300,307,2
307,335,297,305,2
305,319,296,302,2
303,300,295,299,2
302,280,295,297,2
302,264,296,298,2
302,261,295,298,2
303,268,294,296,2
301,276,294,294,2
299,279,295,292,2
297,282,297,294,2
295,291,298,297,2
294,303,299,302,2
293,313,301,304,2
293,320,302,305,2
293,321,304,307,2
294,318,304,308,2
296,314,305,310,2
299,311,306,312,2
302,309,306,314,2
305,310,307,316,2
306,313,307,319,2
307,318,306,324,2
306,324,304,331,2
306,329,304,336,2
305,334,304,338,2
305,337,306,335,2
305,338,310,327,2
304,337,314,317,2
304,333,315,305,2
305,328,312,297,2
307,320,308,291,2
309,307,304,287,2
308,293,302,286,2
305,282,300,286,2
302,274,300,287,2
300,272,301,288,2
299,275,303,291,2
300,284,305,296,2
302,295,307,300,2
303,304,308,303,2
303,313,306,307,2
302,317,303,309,2
302,317,300,310,2
301,312,298,310,2
301,306,298,310,2
302,302,301,311,2
302,301,305,312,2
303,301,309,311,2
302,300,312,308,2
302,299,314,304,2
301,298,316,302,2
301,298,318,302,2
302,299,321,304,2
303,301,325,305,2
303,306,329,307,2
304,313,331,310,2
305,318,333,311,2
306,320,331,311,2
307,322,325,309,2
309,328,319,307,2
312,335,313,304,2
314,343,309,301,2
316,349,305,300,2
315,348,303,298,2
312,338,301,297,2
307,320,300,295,2
303,298,299,294,2
299,282,299,294,2
295,278,301,296,2
292,286,302,299,2
292,297,303,301,2
295,304,304,303,2
297,301,305,304,2
298,293,307,306,2
299,282,308,308,2
299,274,309,309,2
300,270,309,309,2
302,271,308,308,2
305,277,307,307,2
307,283,306,306,2
308,285,306,306,2
308,285,306,306,2
306,285,306,307,2
304,288,306,311,2
302,293,306,315,2
301,299,308,320,2
302,305,310,324,2
304,312,314,327,2
307,319,317,331,2
311,325,320,334,2
312,329,321,336,2
311,330,317,336,2
309,327,311,335,2
307,321,306,335,2
304,313,304,334,2
301,307,304,335,2
300,306,305,335,2
301,309,307,334,2
304,314,309,333,2
306,321,310,331,2
308,325,310,326,2
309,324,310,317,2
310,320,309,308,2
311,318,307,298,2
309,320,304,289,2
307,326,301,284,2
306,333,299,281,2
305,335,297,279,2
302,325,296,276,2
300,304,296,273,2
297,279,298,273,2
297,257,302,275,2
297,246,306,279,2
297,245,307,283,2
298,253,305,287,2
299,264,302,292,2
301,275,300,297,2
303,283,300,301,2
305,288,301,305,2
305,291,302,309,2
305,295,305,313,2
304,299,308,316,2
303,302,310,318,2
303,306,310,319,2
303,310,309,319,2
304,312,310,321,2
306,315,310,322,2
306,319,311,320,2
307,322,310,316,2
307,323,307,310,2
306,320,304,303,2
306,314,301,297,2
305,307,299,292,2
307,300,299,290,2
309,293,300,289,2
309,288,301,289,2
307,286,301,291,2
306,286,301,294,2
306,288,302,297,2
306,291,306,299,2
305,295,311,300,2
304,301,317,301,2
303,309,321,302,2
303,316,321,303,2
302,322,317,304,2
301,326,313,305,2
301,327,309,306,2
300,325,306,307,2
301,321,304,307,2
302,314,304,308,2
303,306,304,309,2
304,298,304,311,2
304,290,303,312,2
303,285,303,313,2
303,282,302,312,2
303,287,302,310,2
303,296,302,310,2
303,308,302,310,2
303,318,302,309,2
304,328,300,308,2
304,335,296,308,2
307,341,293,309,2
310,343,292,311,2
312,339,295,312,2
313,329,300,313,2
311,318,307,314,2
309,307,313,314,2
307,299,318,314,2
309,295,322,315,2
312,292,325,315,2
312,287,326,313,2
310,281,325,307,2
308,278,322,302,2
306,280,319,298,2
307,282,314,297,2
309,283,309,298,2
311,285,305,301,2
312,286,303,304,2
309,288,301,306,2
306,289,301,309,2
304,292,303,312,2
303,297,305,315,2
303,301,306,319,2
304,304,306,322,2
306,307,307,326,2
309,309,309,331,2
310,311,309,336,2
309,312,307,340,2
307,313,304,343,2
306,315,300,342,2
306,316,297,339,2
306,315,295,331,2
304,313,294,321,2
303,309,293,311,2
302,306,293,303,2
303,305,294,297,2
304,307,295,292,2
305,312,297,288,2
306,317,298,286,2
307,323,299,285,2
309,330,300,285,2
310,336,300,286,2
311,342,300,287,2
311,346,299,288,2
312,345,298,290,2
312,339,300,292,2
311,327,304,295,2
310,310,308,299,2
308,296,311,305,2
306,286,312,309,2
306,276,312,311,2
305,268,311,312,2
304,264,308,314,2
305,267,305,317,2
307,275,303,320,2
308,285,300,320,2
308,295,298,319,2
307,302,299,318,2
307,305,300,316,2
307,305,303,314,2
307,304,305,310,2
305,304,306,307,2
304,302,307,304,2
303,298,309,303,2
303,295,310,303,2
304,294,311,303,2
305,293,311,304,2
307,292,312,305,2
310,289,313,306,2
311,286,313,307,2
311,286,311,306,2
310,289,308,304,2
308,293,306,304,2
306,297,304,306,2
306,299,303,311,2
305,300,303,317,2
305,301,303,323,2
307,304,305,328,2
308,307,307,331,2
309,310,309,332,2
308,315,311,332,2
307,323,311,330,2
307,332,308,326,2
307,342,305,322,2
307,352,302,316,2
308,360,301,309,2
309,362,301,300,2
308,356,302,291,2
307,344,305,284,2
306,327,309,282,2
306,305,310,284,2
304,286,308,286,2
303,274,305,289,2
300,266,304,293,2
298,259,303,297,2
297,255,303,301,2
297,256,304,303,2
300,259,306,306,2
303,266,307,310,2
305,274,309,316,2
306,283,311,320,2
306,292,311,323,2
305,300,310,324,2
304,305,308,325,2
304,310,306,324,2
304,314,304,324,2
303,314,303,323,2
302,314,303,321,2
301,312,304,319,2
301,311,304,318,2
300,308,304,316,2
300,305,304,312,2
299,302,304,307,2
299,300,303,304,2
298,299,303,303,2
299,300,304,305,2
302,302,306,308,2
305,304,306,311,2
307,306,306,313,2
308,308,305,315,2
309,311,305,319,2
309,314,306,324,2
309,316,309,329,2
308,318,310,332,2
306,319,311,334,2
305,320,310,336,2
306,324,309,338,2
308,330,307,338,2
311,337,306,332,2
314,342,305,320,2
317,349,304,305,2
317,358,304,292,2
315,370,306,282,2
311,373,309,275,2
307,359,311,271,2
305,332,310,268,2
305,300,307,269,2
305,272,304,272,2
304,257,303,277,2
302,255,305,282,2
299,261,309,287,2
297,270,312,292,2
295,278,314,297,2
294,285,315,303,2
294,290,314,307,2
294,293,313,311,2
294,295,311,313,2
296,297,308,314,2
296,298,306,314,2
297,299,304,314,2
299,300,303,311,2
300,299,301,309,2
301,299,301,306,2
303,297,301,304,2
304,296,301,302,2
305,296,301,303,2
305,296,302,306,2
305,299,304,313,2
305,302,305,318,2
305,305,307,322,2
304,309,308,323,2
303,313,309,322,2
303,316,309,319,2
303,320,308,316,2
304,323,305,315,2
307,327,303,316,2
310,330,303,319,2
312,333,304,320,2
314,334,305,320,2
314,335,306,319,2
314,333,309,315,2
314,325,310,313,2
314,315,309,310,2
314,305,309,306,2
314,298,309,301,2
313,294,310,296,2
313,295,311,292,2
313,302,310,290,2
312,314,307,290,2
310,322,305,291,2
307,325,303,293,2
305,324,301,294,2
303,315,300,295,2
301,298,299,296,2
299,278,300,298,2
298,262,301,300,2
297,257,302,303,2
296,264,303,305,2
296,277,303,308,2
296,290,303,309,2
297,300,303,309,2
297,304,304,308,2
298,305,304,306,2
299,303,303,304,2
300,300,303,303,2
301,296,304,303,2
302,294,305,304,2
303,293,306,306,2
304,293,308,310,2
305,295,310,315,2
305,299,312,321,2
305,302,313,326,2
306,305,313,329,2
307,308,315,329,2
307,310,316,327,2
308,312,316,323,2
307,314,315,320,2
307,316,314,314,2
307,317,313,308,2
308,319,312,302,2
308,320,312,297,2
309,323,311,292,2
309,325,310,289,2
310,325,309,288,2
312,323,307,290,2
314,320,306,293,2
314,321,305,297,2
314,325,305,301,2
314,326,306,305,2
314,324,307,308,2
313,315,308,311,2
314,303,311,314,2
314,289,314,318,2
313,278,317,321,2
312,271,318,322,2
310,267,316,321,2
307,267,314,320,2
305,270,311,318,2
302,277,308,315,2
300,283,303,311,2
300,289,299,307,2
301,294,296,303,2
302,297,294,300,2
304,299,294,299,2
306,299,295,300,2
307,298,297,302,2
308,298,300,305,2
308,298,302,309,2
309,301,303,314,2
310,304,303,319,2
310,307,304,320,2
310,310,304,319,2
309,313,304,316,2
307,315,304,313,2
305,315,304,312,2
303,316,302,312,2
302,320,301,311,2
304,322,301,309,2
307,319,301,308,2
310,312,301,305,2
313,305,300,304,2
315,299,299,303,2
316,296,299,302,2
313,296,301,301,2
308,299,303,299,2
302,305,306,298,2
299,309,308,296,2
298,308,310,294,2
298,302,312,291,2
299,299,314,289,2
300,299,314,287,2
301,298,314,286,2
301,296,314,286,2
300,294,313,287,2
300,294,313,289,2
301,295,313,292,2
301,297,313,295,2
303,297,313,299,2
304,297,314,304,2
306,299,314,311,2
308,304,316,317,2
310,310,316,323,2
311,318,314,326,2
310,325,311,326,2
308,333,308,322,2
306,339,305,317,2
305,340,304,313,2
305,333,305,310,2
305,320,306,307,2
306,306,308,304,2
308,292,309,302,2
309,280,310,300,2
310,274,311,298,2
311,272,313,297,2
311,269,314,296,2
312,266,314,297,2
313,266,314,297,2
313,271,314,298,2
313,279,313,299,2
312,289,311,302,2
310,298,308,304,2
308,306,304,305,2
308,312,302,306,2
310,316,302,308,2
313,318,302,310,2
315,319,306,312,2
314,318,311,316,2
310,317,317,320,2
308,315,321,324,2
306,316,324,329,2
304,320,325,332,2
303,324,324,332,2
301,325,318,329,2
299,323,309,325,2
298,320,301,321,2
299,316,296,318,2
300,315,294,316,2
301,316,294,314,2
303,316,295,312,2
304,313,297,310,2
305,307,298,308,2
305,301,300,308,2
305,297,300,309,2
306,294,301,311,2
307,292,302,312,2
309,292,303,313,2
310,294,302,312,2
312,297,301,311,2
313,302,300,308,2
313,306,300,306,2
311,311,301,303,2
309,313,303,301,2
306,313,304,299,2
304,312,306,297,2
302,309,306,296,2
301,307,306,296,2
299,306,306,297,2
300,305,307,298,2
301,305,307,300,2
303,304,307,300,2
304,303,308,301,2
305,302,307,302,2
305,301,308,304,2
304,300,308,305,2
304,300,308,308,2
303,300,309,310,2
302,302,310,313,2
302,306,311,316,2
302,310,312,318,2
302,312,312,321,2
303,314,313,323,2
302,314,312,323,2
302,314,311,323,2
302,313,309,322,2
302,311,305,321,2
302,308,302,319,2
302,307,299,317,2
303,310,298,316,2
304,314,299,315,2
305,318,301,313,2
307,320,303,310,2
308,317,305,307,2
308,309,305,303,2
308,299,306,301,2
307,292,308,299,2
306,289,310,300,2
305,290,311,302,2
304,293,312,303,2
303,295,313,303,2
302,298,314,303,2
301,302,315,304,2
301,304,315,305,2
301,306,315,307,2
301,308,315,311,2
301,310,314,316,2
301,312,313,320,2
302,314,312,324,2
304,314,313,326,2
305,311,316,327,2
305,305,320,327,2
305,297,323,326,2
305,290,323,322,2
306,283,321,316,2
307,276,319,311,2
310,271,315,305,2
312,270,310,301,2
312,273,305,300,2
310,282,302,301,2
306,292,301,304,2
302,301,302,307,2
300,309,302,309,2
299,315,302,309,2
299,321,303,308,2
300,324,305,307,2
301,326,306,307,2
302,326,307,307,2
304,324,307,308,2
304,321,305,308,2
305,318,301,306,2
306,315,297,304,2
306,313,295,302,2
305,313,294,299,2
303,311,295,296,2
303,309,297,293,2
302,306,298,291,2
303,305,300,290,2
304,306,303,289,2
304,311,305,291,2
304,318,306,294,2
304,325,306,297,2
302,327,305,299,2
301,324,304,299,2
300,315,303,298,2
300,303,302,298,2
300,292,302,299,2
301,287,302,301,2
302,288,303,303,2
303,292,304,305,2
304,298,304,308,2
305,303,304,309,2
306,304,304,309,2
306,302,304,309,2
306,296,304,307,2
306,290,306,305,2
307,285,308,305,2
309,283,310,306,2
310,283,312,307,2
311,285,313,308,2
312,289,314,311,2
312,297,314,314,2
312,305,314,317,2
312,312,314,320,2
311,317,314,322,2
309,319,315,324,2
307,318,314,325,2
304,316,310,325,2
301,310,304,326,2
301,302,296,324,2
304,297,289,319,2
310,297,287,311,2
316,301,290,304,2
317,305,296,297,2
314,306,303,291,2
309,307,308,286,2
306,310,311,283,2
305,316,313,283,2
304,323,314,285,2
303,330,315,288,2
302,332,315,291,2
301,330,314,296,2
299,323,315,303,2
298,315,316,311,2
298,309,317,319,2
299,305,319,324,2
300,303,320,326,2
301,303,321,326,2
301,304,321,323,2
302,304,320,320,2
303,303,320,316,2
303,300,318,311,2
303,299,315,305,2
304,304,314,298,2
305,314,314,293,2
306,326,314,290,2
307,334,315,289,2
308,336,316,288,2
308,329,316,288,2
307,314,315,288,2
307,297,314,288,2
307,283,311,287,2
306,273,307,287,2
305,272,303,286,2
304,275,303,286,2
304,282,305,287,2
304,290,307,289,2
304,298,309,292,2
304,304,308,294,2
304,308,306,296,2
303,309,303,297,2
303,309,299,298,2
303,307,296,298,2
303,304,291,298,2
304,302,289,299,2
304,299,288,300,2
305,296,290,302,2
305,295,293,303,2
306,293,298,305,2
306,291,302,307,2
306,290,305,308,2
306,289,307,309,2
306,289,308,308,2
307,291,307,308,2
308,293,307,307,2
308,298,307,308,2
307,304,307,309,2
306,311,306,309,2
305,315,304,310,2
305,316,303,309,2
304,315,300,308,2
304,313,298,307,2
304,313,298,304,2
305,314,298,303,2
306,316,298,303,2
305,318,298,304,2
302,319,299,307,2
300,319,300,311,2
299,317,300,315,2
301,313,300,319,2
303,308,300,321,2
305,304,299,321,2
306,303,299,320,2
306,302,300,318,2
305,301,302,316,2
304,297,305,316,2
302,290,306,316,2
301,285,307,316,2
300,285,307,314,2
300,288,306,311,2
300,291,306,307,2
300,294,305,305,2
300,298,305,304,2
300,303,304,303,2
300,310,303,302,2
300,319,299,300,2
301,330,295,299,2
302,340,291,299,2
303,347,288,300,2
303,348,286,301,2
303,340,288,304,2
303,322,293,308,2
303,300,298,312,2
303,281,305,315,2
302,269,310,318,2
302,264,316,323,2
302,265,320,329,2
302,272,322,333,2
300,284,323,335,2
298,297,322,334,2
296,307,320,332,2
294,311,316,328,2
294,311,313,322,2
294,307,309,314,2
295,302,307,307,2
296,296,307,303,2
296,292,307,304,2
296,290,308,308,2
297,289,308,311,2
298,290,307,312,2
300,291,307,311,2
302,294,305,307,2
301,298,303,300,2
300,302,304,293,2
300,307,305,285,2
301,312,307,279,2
302,317,307,275,2
302,318,306,274,2
303,315,304,275,2
303,309,302,279,2
303,300,300,284,2
303,288,298,289,2
302,277,295,293,2
300,270,292,297,2
298,269,291,298,2
296,276,291,298,2
295,285,293,298,2
295,292,295,297,2
297,298,297,297,2
299,302,298,297,2
302,305,298,298,2
303,308,298,298,2
301,309,299,298,2
296,310,300,298,2
292,311,301,299,2
291,312,303,299,2
290,312,304,300,2
291,313,306,300,2
293,313,308,301,2
293,313,308,301,2
294,312,308,303,2
294,311,308,306,2
295,311,308,310,2
295,310,306,311,2
296,309,304,313,2
297,310,301,315,2
298,312,300,318,2
298,318,301,319,2
298,327,304,321,2
299,336,307,321,2
300,342,310,321,2
302,345,310,320,2
302,343,309,317,2
301,334,307,313,2
299,322,304,310,2
297,310,302,308,2
295,303,301,308,2
294,303,301,308,2
293,303,301,309,2
292,303,302,311,2
292,299,303,313,2
292,293,303,313,2
293,288,303,310,2
293,284,303,308,2
292,281,302,306,2
292,280,301,305,2
293,281,301,306,2
295,284,300,308,2
296,289,301,311,2
297,293,302,317,2
299,296,303,323,2
300,299,304,328,2
300,304,303,332,2
301,309,299,332,2
301,313,295,331,2
301,318,293,328,2
301,321,294,322,2
301,323,296,312,2
301,322,299,300,2
302,319,304,289,2
303,316,309,281,2
304,311,312,276,2
305,303,313,274,2
305,296,311,274,2
305,292,309,277,2
305,292,308,282,2
303,295,307,287,2
301,300,306,293,2
299,307,305,299,2
297,314,304,305,2
296,318,305,309,2
296,318,308,312,2
295,315,309,313,2
294,309,307,312,2
294,304,304,310,2
293,300,301,307,2
294,299,298,303,2
295,298,296,300,2
296,299,295,297,2
297,299,295,295,2
297,298,296,293,2
296,295,297,292,2
295,291,297,291,2
294,287,297,289,2
295,286,297,288,2
298,290,296,290,2
302,298,296,294,2
304,308,296,299,2
305,317,295,303,2
305,324,295,305,2
305,330,296,305,2
304,331,297,304,2
304,327,299,301,2
304,317,301,299,2
304,305,303,299,2
304,294,305,300,2
304,286,306,302,2
305,281,307,305,2
305,278,307,309,2
305,282,306,312,2
303,292,304,314,2
302,303,302,315,2
301,311,302,313,2
299,317,302,309,2
298,322,301,305,2
298,325,300,301,2
299,327,299,299,2
299,331,299,297,2
300,337,299,297,2
300,345,301,297,2
300,351,303,297,2
301,347,305,299,2
302,334,308,299,2
304,316,309,300,2
306,303,309,302,2
307,297,308,304,2
305,299,307,305,2
303,303,306,305,2
301,308,304,304,2
300,311,302,302,2
300,312,300,301,2
299,307,298,300,2
297,299,298,299,2
296,288,298,298,2
294,279,298,298,2
294,272,299,300,2
295,269,301,304,2
296,269,303,310,2
298,272,304,316,2
299,276,306,323,2
301,279,308,328,2
302,282,311,331,2
302,287,314,331,2
302,292,318,329,2
303,297,322,327,2
302,302,323,325,2
300,306,321,322,2
298,310,318,318,2
297,313,314,314,2
297,313,309,310,2
297,313,304,304,2
297,311,300,299,2
298,310,297,294,2
298,310,296,290,2
300,310,294,288,2
301,308,293,289,2
302,305,293,291,2
303,302,293,294,2
303,301,295,297,2
304,303,299,300,2
305,309,304,302,2
306,316,307,303,2
307,322,310,304,2
308,328,312,303,2
309,333,314,301,2
309,341,314,299,2
310,349,311,297,2
309,351,308,296,2
310,348,304,296,2
309,342,302,297,2
309,333,300,298,2
307,318,301,300,2
306,299,301,305,2
304,285,302,314,2
302,280,302,322,2
301,280,303,328,2
301,283,303,331,2
302,285,304,331,2
303,288,304,329,2
303,292,305,326,2
304,297,306,321,2
304,302,306,315,2
304,307,306,307,2
303,312,304,300,2
302,317,302,295,2
301,322,300,290,2
300,327,298,287,2
300,332,298,285,2
301,334,300,285,2
303,333,304,287,2
305,328,307,290,2
305,319,309,292,2
305,310,309,294,2
303,302,309,297,2
304,296,306,299,2
305,294,304,300,2
307,294,301,300,2
308,295,300,298,2
309,298,299,298,2
308,298,300,298,2
307,297,301,300,2
305,295,302,302,2
302,294,303,303,2
300,295,305,302,2
301,296,307,301,2
301,298,309,301,2
302,299,311,302,2
301,300,312,305,2
301,300,313,308,2
302,298,313,312,2
303,296,313,315,2
305,293,312,316,2
306,292,310,315,2
307,293,308,314,2
309,295,306,312,2
312,301,305,311,2
314,309,305,309,2
313,313,306,307,2
310,313,308,307,2
307,306,310,309,2
305,299,312,312,2
306,299,314,316,2
308,306,316,320,2
308,317,319,322,2
307,327,319,324,2
307,333,316,325,2
306,336,311,324,2
306,337,306,322,2
305,336,301,320,2
304,335,298,318,2
304,332,296,315,2
303,329,296,312,2
302,324,299,308,2
302,318,302,304,2
303,314,306,302,2
304,312,309,300,2
305,314,310,300,2
306,315,310,299,2
307,314,309,298,2
308,313,308,299,2
309,311,307,301,2
311,309,307,306,2
312,308,307,310,2
313,306,307,312,2
314,305,308,312,2
314,302,309,311,2
311,297,310,309,2
309,293,312,307,2
307,293,315,306,2
306,295,316,304,2
306,298,317,304,2
306,300,316,302,2
305,301,314,301,2
304,300,310,299,2
304,297,307,298,2
305,294,305,298,2
307,292,304,298,2
307,290,304,300,2
306,289,305,306,2
306,293,307,313,2
306,298,308,319,2
306,303,308,323,2
306,307,308,323,2
305,309,308,320,2
304,312,309,317,2
304,314,309,314,2
304,315,309,312,2
305,316,308,311,2
306,316,306,311,2
306,315,304,312,2
305,314,300,315,2
304,313,298,316,2
303,312,296,315,2
303,313,296,311,2
303,314,299,305,2
304,313,302,301,2
304,311,303,299,2
306,310,305,298,2
308,310,305,297,2
310,309,305,296,2
312,305,305,296,2
312,298,304,298,2
312,295,304,300,2
311,297,303,302,2
310,302,302,303,2
309,305,301,302,2
309,307,302,301,2
309,309,303,301,2
309,311,305,302,2
309,315,306,303,2
309,319,308,305,2
310,323,309,307,2
310,327,309,309,2
310,329,310,311,2
310,329,309,314,2
309,321,308,317,2
308,310,307,318,2
308,299,307,317,2
309,292,305,315,2
309,289,304,313,2
309,290,303,312,2
309,292,304,312,2
309,295,306,313,2
310,297,308,314,2
310,297,308,314,2
310,297,307,312,2
309,297,306,312,2
307,300,305,311,2
306,304,303,312,2
304,309,301,313,2
304,313,299,313,2
304,316,298,313,2
305,318,295,312,2
307,321,291,310,2
309,326,288,308,2
310,332,287,305,2
311,338,287,302,2
311,341,289,298,2
311,340,292,294,2
310,337,295,292,2
310,332,297,292,2
310,326,299,293,2
310,321,301,294,2
308,316,302,294,2
306,313,302,295,2
304,309,303,296,2
302,304,303,297,2
302,300,304,297,2
303,298,305,298,2
304,300,306,300,2
307,305,306,303,2
309,310,306,305,2
307,316,306,306,2
304,318,305,306,2
301,315,305,305,2
299,303,305,304,2
299,283,306,302,2
301,263,308,302,2
302,248,310,304,2
304,241,313,308,2
305,242,316,313,2
305,250,317,317,2
304,262,317,320,2
302,275,316,321,2
301,286,314,320,2
301,298,313,319,2
301,308,311,317,2
300,314,310,314,2
301,315,309,312,2
303,313,308,313,2
306,310,308,315,2
310,307,309,318,2
314,306,309,320,2
313,307,308,319,2
311,312,307,316,2
306,317,305,310,2
302,320,304,305,2
300,320,303,301,2
300,318,302,299,2
301,312,303,298,2
302,304,304,299,2
303,299,306,301,2
304,298,305,303,2
305,299,303,304,2
305,301,301,304,2
305,304,302,305,2
304,306,304,305,2
303,310,306,305,2
302,316,308,306,2
300,322,307,307,2
299,326,306,309,2
299,328,304,310,2
301,329,304,310,2
303,327,304,308,2
305,324,303,306,2
307,321,303,304,2
309,319,303,304,2
310,320,303,302,2
310,321,304,299,2
308,322,306,296,2
306,323,308,292,2
304,322,311,288,2
303,320,312,286,2
304,319,313,285,2
306,318,310,287,2
307,319,306,290,2
307,325,300,295,2
307,332,295,302,2
307,340,293,308,2
307,344,293,313,2
306,345,295,317,2
305,341,299,318,2
304,332,305,316,2
304,321,310,313,2
303,308,314,309,2
304,294,316,305,2
306,283,316,303,2
308,277,316,301,2
310,272,314,299,2
310,270,312,298,2
310,270,308,296,2
310,271,305,293,2
310,272,303,292,2
310,273,304,293,2
310,275,305,295,2
308,279,306,299,2
307,284,307,302,2
306,289,307,305,2
305,294,307,307,2
305,296,307,309,2
305,297,307,311,2
304,296,307,313,2
304,296,305,314,2
304,297,304,313,2
305,299,302,310,2
306,301,302,307,2
308,304,301,304,2
310,309,303,301,2
311,314,305,300,2
312,316,308,301,2
313,314,311,302,2
313,308,313,302,2
314,301,315,303,2
314,297,317,304,2
316,296,316,304,2
317,296,313,305,2
318,298,310,306,2
317,302,308,307,2
313,307,306,307,2
309,310,307,308,2
306,310,307,309,2
306,307,309,310,2
305,299,310,314,2
304,287,310,319,2
302,273,311,325,2
302,262,311,329,2
302,259,312,332,2
303,263,314,333,2
305,270,317,333,2
307,277,320,330,2
310,284,322,327,2
312,291,324,322,2
313,298,325,315,2
313,304,325,307,2
313,308,323,299,2
312,312,319,294,2
309,317,315,290,2
308,322,312,291,2
307,327,309,293,2
306,329,306,296,2
305,327,303,298,2
304,324,301,301,2
304,320,301,305,2
304,317,302,308,2
304,313,302,311,2
304,310,303,311,2
304,306,303,309,2
304,302,302,305,2
303,300,302,301,2
302,298,301,297,2
301,296,301,293,2
301,295,303,290,2
303,294,305,288,2
304,293,306,288,2
305,294,307,288,2
306,294,307,289,2
307,295,306,289,2
307,296,305,290,2
308,298,304,290,2
309,300,304,291,2
309,301,305,291,2
309,301,306,291,2
309,301,307,291,2
309,300,307,293,2
309,299,307,298,2
310,300,309,304,2
311,302,311,313,2
312,306,310,322,2
313,311,308,329,2
313,316,307,332,2
312,320,305,334,2
312,323,304,334,2
312,325,304,334,2
311,329,305,332,2
310,331,306,328,2
308,334,306,323,2
308,334,303,318,2
307,332,301,312,2
305,326,299,305,2
304,319,298,300,2
303,312,298,296,2
304,304,300,294,2
304,295,303,292,2
306,288,305,290,2
307,284,307,290,2
307,283,308,291,2
308,282,309,294,2
308,284,309,298,2
308,286,309,303,2
308,289,309,308,2
309,290,310,312,2
309,290,311,314,2
309,289,312,314,2
309,290,313,313,2
309,290,313,312,2
308,290,313,309,2
308,290,312,307,2
308,294,312,306,2
308,298,311,304,2
307,300,310,303,2
306,298,308,304,2
306,298,307,305,2
306,301,306,307,2
306,303,305,307,2
306,303,304,306,2
307,298,303,305,2
308,291,303,304,2
309,285,303,302,2
311,281,304,300,2
312,280,305,300,2
313,284,307,301,2
313,292,307,303,2
312,301,307,305,2
311,311,307,307,2
310,318,306,308,2
309,323,306,308,2
309,325,305,308,2
308,326,304,309,2
309,324,304,310,2
309,321,304,310,2
309,317,304,307,2
310,313,306,305,2
311,310,307,303,2
312,308,309,303,2
312,309,311,305,2
313,310,312,309,2
315,312,312,313,2
317,314,312,316,2
318,317,312,317,2
320,318,312,315,2
320,318,312,311,2
319,314,311,306,2
319,308,309,301,2
318,304,305,297,2
317,300,301,293,2
315,300,299,291,2
313,301,299,290,2
309,306,300,289,2
304,311,302,289,2
301,316,305,290,2
300,319,307,293,2
299,319,309,295,2
300,315,310,297,2
300,306,311,298,2
302,295,311,301,2
305,288,311,303,2
308,286,309,304,2
312,287,307,302,2
314,289,303,302,2
313,291,300,303,2
310,293,299,306,2
306,296,298,308,2
301,301,297,310,2
298,307,295,312,2
297,311,294,315,2
299,312,294,319,2
303,313,294,323,2
305,314,296,327,2
306,317,300,329,2
307,319,303,329,2
308,321,305,326,2
308,324,305,324,2
307,327,305,321,2
307,328,304,318,2
307,326,302,314,2
307,321,301,309,2
307,314,300,305,2
306,307,301,302,2
306,301,303,300,2
305,297,304,299,2
306,295,306,299,2
305,295,308,299,2
305,296,308,299,2
304,299,307,299,2
303,303,307,299,2
303,307,306,299,2
302,312,306,300,2
302,315,306,302,2
302,314,306,304,2
301,310,306,308,2
299,307,305,314,2
299,307,304,320,2
299,310,304,324,2
300,316,304,325,2
301,320,304,326,2
302,321,305,326,2
303,317,306,327,2
303,311,307,330,2
303,304,307,333,2
303,300,308,335,2
303,297,308,338,2
304,296,309,340,2
305,297,309,339,2
307,298,309,335,2
309,299,310,327,2
310,301,310,317,2
311,302,309,308,2
310,305,308,301,2
309,307,307,298,2
309,309,304,297,2
308,310,302,297,2
307,310,299,298,2
305,309,296,298,2
303,306,295,297,2
303,304,294,295,2
303,301,295,294,2
304,298,296,294,2
304,294,298,295,2
305,292,300,298,2
306,292,302,301,2
307,295,305,307,2
307,299,307,313,2
306,305,309,318,2
305,311,311,320,2
303,314,310,320,2
301,313,308,318,2
300,308,307,314,2
299,304,308,308,2
299,300,309,304,2
298,297,310,302,2
297,297,310,303,2
296,300,310,304,2
297,305,308,306,2
297,308,303,308,2
298,311,298,309,2
299,315,292,310,2
299,317,287,309,2
300,318,285,307,2
299,317,288,306,2
299,314,295,306,2
299,310,303,308,2
301,305,310,312,2
303,300,315,318,2
304,297,318,323,2
304,295,318,328,2
304,296,316,332,2
303,299,312,334,2
302,304,308,334,2
300,310,305,332,2
299,316,303,328,2
298,322,302,323,2
299,324,301,317,2
300,321,302,310,2
302,312,302,304,2
303,302,301,298,2
303,292,300,294,2
302,285,300,292,2
303,280,301,293,2
302,277,303,294,2
303,276,306,297,2
303,278,309,304,2
304,283,311,314,2
304,289,313,325,2
304,295,313,336,2
304,302,313,344,2
304,310,313,348,2
304,317,312,348,2
304,322,310,344,2
305,324,308,336,2
307,324,306,326,2
308,321,304,317,2
309,316,303,311,2
307,310,301,305,2
304,306,300,300,2
300,305,299,297,2
297,305,298,296,2
297,306,299,295,2
297,309,300,296,2
298,312,301,296,2
299,312,303,296,2
301,311,304,296,2
302,307,304,295,2
303,301,304,292,2
303,297,305,290,2
303,296,305,288,2
303,298,306,289,2
304,299,306,291,2
303,301,306,293,2
304,301,305,296,2
304,302,305,298,2
304,304,305,300,2
304,309,305,302,2
305,314,305,304,2
306,315,305,305,2
306,312,305,308,2
307,306,305,310,2
308,298,306,311,2
309,291,307,311,2
310,287,307,311,2
311,285,308,312,2
312,285,309,314,2
313,287,312,316,2
313,289,314,316,2
312,293,317,316,2
311,297,318,315,2
311,302,319,313,2
311,307,318,313,2
311,313,318,312,2
313,316,317,312,2
312,316,315,313,2
307,313,311,314,2
303,309,305,315,2
299,306,300,316,2
296,304,297,317,2
295,303,297,319,2
296,300,298,321,2
297,296,299,323,2
300,293,299,325,2
303,293,298,324,2
306,295,297,323,2
308,298,296,322,2
308,302,297,321,2
307,305,297,320,2
306,308,299,320,2
305,309,301,321,2
305,308,304,323,2
305,308,307,324,2
305,308,309,324,2
305,309,312,324,2
306,311,314,323,2
307,312,314,321,2
307,313,314,318,2
308,315,314,315,2
308,318,314,313,2
308,321,313,311,2
310,324,313,311,2
313,325,313,313,2
316,325,315,315,2
318,321,318,317,2
319,314,321,319,2
317,304,323,321,2
315,297,323,322,2
312,292,322,321,2
309,289,320,317,2
306,287,318,310,2
304,286,314,303,2
303,285,312,297,2
302,285,310,295,2
302,288,308,293,2
302,294,304,292,2
302,297,299,289,2
302,296,295,287,2
302,290,295,284,2
301,284,296,281,2
300,281,297,280,2
299,283,298,279,2
299,288,298,281,2
301,294,298,283,2
304,301,299,286,2
306,310,299,290,2
307,317,299,296,2
306,322,300,300,2
306,323,301,303,2
305,321,303,306,2
305,317,304,310,2
306,312,305,313,2
308,305,306,315,2
308,298,307,315,2
309,292,307,312,2
308,289,307,309,2
308,288,305,305,2
308,288,304,302,2
307,289,303,298,2
306,290,302,295,2
306,290,301,293,2
306,291,301,292,2
307,291,302,293,2
309,290,304,294,2
311,291,306,297,2
312,293,308,300,2
313,294,310,304,2
313,296,312,307,2
312,297,313,308,2
312,298,313,309,2
312,299,314,311,2
313,300,314,314,2
312,302,312,318,2
311,303,309,320,2
308,306,307,320,2
306,308,305,320,2
304,311,304,317,2
303,315,304,316,2
304,319,304,313,2
306,319,306,310,2
307,316,308,307,2
308,308,310,304,2
308,299,313,303,2
308,292,315,305,2
310,291,316,309,2
312,294,314,314,2
313,299,310,319,2
315,303,305,321,2
315,305,301,321,2
315,304,296,322,2
313,301,291,322,2
311,298,289,321,2
309,296,291,317,2
308,296,294,311,2
307,298,299,305,2
307,299,303,302,2
305,301,306,299,2
304,301,308,296,2
304,301,309,295,2
304,299,309,295,2
303,298,309,296,2
304,295,309,301,2
305,292,310,308,2
307,292,311,316,2
310,296,312,323,2
311,302,313,327,2
312,311,314,328,2
312,318,315,326,2
311,323,316,319,2
310,324,314,308,2
308,320,311,297,2
307,312,308,287,2
306,300,305,280,2
306,289,303,275,2
306,281,302,273,2
307,277,301,273,2
309,277,300,275,2
309,278,298,276,2
307,279,297,276,2
305,281,297,277,2
304,284,297,279,2
305,286,298,282,2
306,286,299,288,2
307,286,300,295,2
309,290,300,302,2
309,297,300,311,2
310,306,301,320,2
311,313,302,327,2
311,319,303,329,2
310,323,304,326,2
309,328,305,320,2
308,331,306,314,2
307,332,306,307,2
306,331,307,301,2
305,325,309,296,2
304,317,311,292,2
304,308,314,293,2
305,300,317,294,2
306,293,319,295,2
307,288,319,297,2
308,287,319,300,2
309,288,318,303,2
310,291,315,307,2
310,296,311,309,2
309,301,308,311,2
308,304,306,313,2
309,304,305,314,2
309,305,305,312,2
309,304,304,310,2
309,305,303,308,2
310,306,301,305,2
311,307,300,303,2
313,307,299,300,2
313,307,299,298,2
312,306,299,296,2
309,304,300,295,2
307,303,301,294,2
305,301,301,292,2
304,299,301,290,2
302,298,301,287,2
302,300,300,287,2
302,306,300,288,2
304,314,300,292,2
305,322,300,297,2
306,328,301,303,2
307,328,303,309,2
308,325,304,314,2
308,316,305,320,2
308,305,306,323,2
308,293,308,324,2
308,282,309,322,2
308,273,309,318,2
308,271,308,314,2
310,275,308,309,2
312,283,308,305,2
311,292,308,301,2
309,298,309,300,2
305,301,310,300,2
304,303,310,301,2
304,304,308,304,2
306,305,305,306,2
308,305,301,309,2
310,304,298,311,2
310,302,297,313,2
311,301,298,316,2
310,301,298,320,2
311,301,299,324,2
311,302,300,329,2
310,303,302,332,2
310,303,305,330,2
308,303,307,325,2
307,303,308,318,2
305,303,308,310,2
303,305,307,303,2
302,307,305,297,2
302,310,304,294,2
302,314,304,293,2
303,317,304,293,2
303,317,304,294,2
303,313,304,296,2
304,307,303,300,2
304,299,302,304,2
305,290,302,308,2
307,281,302,311,2
309,274,304,315,2
311,273,306,318,2
312,279,308,319,2
312,291,311,319,2
312,303,313,319,2
311,312,314,319,2
310,315,313,317,2
309,313,311,314,2
310,308,308,310,2
310,302,304,303,2
309,297,302,298,2
308,294,300,294,2
307,294,301,293,2
306,298,301,295,2
305,304,302,297,2
303,312,304,299,2
303,317,304,302,2
303,321,304,304,2
304,325,303,307,2
305,325,302,308,2
307,322,304,306,2
308,317,306,304,2
311,313,309,303,2
312,309,313,303,2
313,308,317,303,2
313,307,318,303,2
313,306,318,303,2
312,306,316,303,2
311,304,313,302,2
310,302,310,301,2
310,300,306,300,2
309,299,303,301,2
308,298,300,302,2
307,299,299,304,2
306,301,299,305,2
305,301,299,305,2
305,302,300,307,2
306,304,301,310,2
308,307,304,313,2
309,313,306,316,2
310,319,308,320,2
310,326,309,323,2
310,329,309,323,2
310,329,308,321,2
310,325,308,317,2
309,318,308,313,2
308,310,308,310,2
307,303,308,309,2
307,298,309,310,2
308,296,309,312,2
308,296,308,316,2
308,299,306,318,2
308,302,305,319,2
308,304,304,318,2
308,303,303,315,2
309,301,302,310,2
309,297,302,305,2
309,295,302,301,2
309,294,302,299,2
308,295,301,301,2
308,298,301,307,2
309,302,301,315,2
310,308,301,323,2
309,314,302,329,2
308,319,302,331,2
307,322,302,330,2
307,324,301,327,2
306,322,298,321,2
307,316,296,314,2
307,309,294,308,2
308,305,294,302,2
309,305,296,299,2
310,309,298,297,2
311,312,300,298,2
312,314,302,298,2
312,313,303,297,2
311,310,304,297,2
310,303,306,296,2
310,296,309,297,2
310,290,312,297,2
311,290,314,299,2
311,295,316,302,2
311,302,317,305,2
311,310,318,308,2
310,316,318,312,2
309,319,319,316,2
308,320,319,322,2
308,318,319,328,2
306,317,316,335,2
305,316,311,342,2
304,316,307,348,2
304,318,303,350,2
304,318,301,349,2
305,316,300,343,2
305,313,299,332,2
305,307,298,319,2
305,298,297,305,2
306,287,296,293,2
306,277,295,286,2
305,273,295,282,2
305,274,296,282,2
304,280,298,284,2
304,289,299,285,2
304,298,300,287,2
304,303,302,289,2
304,303,304,290,2
305,301,306,291,2
305,299,308,293,2
306,300,311,295,2
307,306,313,298,2
309,319,315,304,2
311,332,317,308,2
311,341,315,311,2
309,347,311,312,2
307,349,306,311,2
304,348,301,309,2
301,345,298,308,2
301,340,296,310,2
303,336,296,312,2
305,331,297,313,2
308,324,298,314,2
310,312,300,314,2
311,297,303,314,2
310,284,305,313,2
308,275,307,311,2
306,270,308,310,2
305,267,307,308,2
304,266,306,307,2
303,268,304,305,2
303,273,303,304,2
303,279,301,303,2
303,283,300,301,2
303,284,300,301,2
304,288,302,303,2
306,300,305,306,2
308,313,308,309,2
309,321,311,313,2
309,325,312,317,2
308,326,313,322,2
308,324,314,326,2
308,321,315,329,2
308,319,315,331,2
308,318,315,331,2
309,319,314,330,2
309,320,314,326,2
309,322,313,319,2
310,324,312,312,2
311,325,311,305,2
311,326,309,300,2
310,324,307,295,2
309,320,305,292,2
307,316,303,291,2
305,313,302,292,2
304,312,301,293,2
304,311,301,296,2
304,310,302,301,2
305,311,302,305,2
305,310,303,309,2
305,309,304,312,2
304,307,305,314,2
304,304,306,315,2
305,303,307,316,2
305,303,308,317,2
306,305,310,317,2
308,310,311,317,2
310,314,311,315,2
311,316,308,311,2
310,317,304,307,2
310,316,301,301,2
309,315,297,295,2
307,312,295,290,2
306,310,293,287,2
305,311,293,285,2
303,313,293,283,2
301,312,295,283,2
299,308,297,283,2
298,304,300,284,2
298,303,302,286,2
300,303,304,288,2
303,304,306,291,2
307,307,307,295,2
309,313,308,299,2
308,318,308,304,2
306,321,310,309,2
304,322,312,312,2
303,319,315,314,2
303,313,316,314,2
304,306,318,315,2
304,302,321,316,2
305,303,322,315,2
306,304,320,312,2
307,305,315,310,2
307,304,312,308,2
306,304,308,306,2
305,302,307,306,2
304,298,306,307,2
304,294,305,310,2
304,289,304,313,2
305,284,303,316,2
306,280,303,317,2
306,276,303,318,2
306,277,303,318,2
306,286,304,318,2
306,296,304,318,2
305,305,304,316,2
305,311,304,313,2
304,314,304,308,2
304,316,305,304,2
305,316,306,302,2
307,316,308,302,2
309,314,311,304,2
309,313,314,307,2
310,313,317,312,2
311,313,316,315,2
313,313,315,317,2
315,314,313,318,2
316,316,309,316,2
316,319,306,313,2
314,323,302,310,2
312,325,300,308,2
309,323,300,307,2
306,319,300,308,2
304,315,302,309,2
303,310,303,310,2
302,304,303,309,2
303,298,302,307,2
303,292,302,302,2
304,288,302,297,2
307,284,302,291,2
310,282,303,287,2
312,282,304,286,2
314,285,304,287,2
314,293,304,290,2
312,303,304,294,2
308,315,304,297,2
304,323,303,300,2
301,326,303,303,2
300,323,304,308,2
300,316,306,314,2
302,309,309,320,2
304,303,312,324,2
306,302,314,327,2
308,305,316,329,2
309,311,318,329,2
310,319,318,327,2
309,325,316,323,2
308,329,312,320,2
307,330,307,315,2
306,328,303,312,2
305,323,301,308,2
303,317,302,305,2
301,313,304,304,2
301,311,306,303,2
301,311,308,304,2
302,311,309,303,2
303,310,310,303,2
304,306,310,302,2
305,299,311,301,2
306,291,312,300,2
308,285,314,299,2
309,280,315,297,2
310,281,315,297,2
310,288,314,297,2
310,296,312,299,2
307,302,310,301,2
304,307,308,303,2
301,309,305,305,2
300,310,301,306,2
299,312,297,306,2
299,316,294,303,2
300,320,294,300,2
301,323,295,297,2
302,323,298,297,2
303,321,302,296,2
304,319,306,294,2
305,315,308,292,2
307,310,310,291,2
308,302,311,290,2
309,293,313,290,2
310,290,314,291,2
309,294,314,294,2
308,304,314,298,2
309,315,314,304,2
309,321,315,311,2
310,324,317,318,2
310,324,318,324,2
310,323,320,328,2
310,321,322,332,2
310,318,323,335,2
309,314,324,337,2
309,309,325,338,2
309,305,325,337,2
309,299,325,332,2
309,293,325,325,2
309,290,324,315,2
307,288,321,306,2
306,288,317,298,2
305,290,313,293,2
305,296,311,291,2
305,302,308,289,2
305,308,305,287,2
307,313,302,286,2
309,314,299,285,2
311,312,296,286,2
310,311,294,288,2
309,312,294,291,2
308,315,294,295,2
306,318,296,299,2
305,319,299,302,2
304,319,302,304,2
302,318,305,307,2
302,314,307,312,2
301,311,308,318,2
301,307,308,322,2
302,302,307,323,2
303,297,306,320,2
304,291,305,315,2
306,283,304,308,2
308,274,303,302,2
311,268,304,298,2
313,265,305,295,2
315,266,306,294,2
313,272,308,293,2
311,280,311,294,2
309,289,312,295,2
308,296,313,296,2
307,302,312,296,2
306,305,309,295,2
305,305,306,294,2
304,304,304,293,2
302,302,303,292,2
301,303,303,293,2
301,305,305,295,2
301,310,307,299,2
302,316,309,304,2
303,321,310,306,2
304,325,311,308,2
305,327,311,310,2
306,326,310,312,2
307,321,309,312,2
308,316,309,312,2
308,313,309,311,2
307,312,309,309,2
306,309,308,305,2
304,303,307,300,2
303,300,306,296,2
302,305,305,293,2
302,312,305,293,2
302,320,305,295,2
303,326,307,296,2
303,328,310,297,2
303,325,313,298,2
304,320,313,299,2
306,315,312,300,2
309,310,310,300,2
310,305,308,300,2
309,301,307,300,2
307,297,304,301,2
305,295,303,302,2
304,292,302,304,2
304,290,302,305,2
303,288,301,307,2
302,287,300,309,2
302,287,297,310,2
302,288,294,311,2
302,293,291,312,2
302,301,291,315,2
302,310,292,319,2
302,318,295,323,2
302,325,299,326,2
303,329,304,328,2
304,330,308,327,2
306,329,311,325,2
307,326,314,321,2
307,322,314,316,2
306,318,313,312,2
305,318,311,312,2
303,319,307,314,2
302,320,305,317,2
302,321,304,320,2
302,319,304,321,2
303,315,305,322,2
304,308,306,322,2
306,299,309,322,2
307,290,313,322,2
308,284,316,323,2
309,281,320,325,2
309,281,321,328,2
308,284,320,330,2
307,290,316,330,2
305,296,309,328,2
303,300,304,324,2
302,302,299,318,2
301,303,297,312,2
299,304,295,304,2
299,305,294,297,2
299,306,294,292,2
301,308,295,289,2
303,309,297,289,2
305,309,300,289,2
306,308,303,290,2
306,308,306,294,2
305,309,309,300,2
303,311,311,307,2
301,315,313,314,2
300,321,315,318,2
297,326,316,322,2
296,329,316,326,2
295,329,315,329,2
295,326,315,332,2
296,321,313,333,2
297,316,310,331,2
296,311,305,327,2
295,308,302,321,2
293,305,299,314,2
293,303,297,306,2
293,299,296,300,2
295,296,296,295,2
297,295,296,292,2
298,298,297,288,2
299,300,298,287,2
300,303,298,286,2
301,304,299,287,2
303,305,299,288,2
308,306,299,289,2
311,307,299,290,2
309,307,299,291,2
305,306,301,293,2
303,304,304,295,2
302,303,309,297,2
300,303,312,299,2
299,304,314,302,2
301,306,313,305,2
303,310,312,307,2
306,313,310,308,2
307,313,306,309,2
307,310,301,308,2
306,306,296,308,2
305,299,293,306,2
304,290,292,305,2
303,282,293,305,2
302,282,294,307,2
302,291,296,310,2
303,303,297,312,2
303,311,299,313,2
304,315,301,314,2
304,315,303,314,2
304,313,304,312,2
304,310,306,310,2
303,309,306,310,2
301,309,305,310,2
300,308,302,313,2
299,308,299,317,2
301,309,297,321,2
302,313,296,325,2
303,318,295,327,2
304,321,296,327,2
305,320,298,327,2
308,316,301,326,2
309,310,304,324,2
308,305,306,321,2
306,302,307,317,2
304,300,307,314,2
303,300,308,313,2
302,304,309,312,2
302,308,309,311,2
301,310,308,312,2
301,311,305,314,2
300,309,303,316,2
299,306,301,315,2
299,301,302,313,2
300,298,303,310,2
301,295,304,308,2
302,295,306,306,2
302,296,308,304,2
303,297,308,301,2
303,299,307,296,2
304,300,306,292,2
304,301,304,288,2
306,299,303,286,2
306,296,303,285,2
306,293,302,287,2
306,288,301,289,2
306,283,300,291,2
306,278,300,292,2
304,274,301,293,2
303,275,303,295,2
302,278,306,299,2
303,287,310,305,2
305,301,313,312,2
307,314,316,318,2
309,323,318,322,2
309,328,319,322,2
310,328,318,318,2
310,323,314,311,2
308,316,307,303,2
307,312,300,296,2
307,310,296,292,2
307,310,293,291,2
307,312,292,291,2
306,317,291,293,2
305,323,291,296,2
304,329,292,300,2
303,334,294,303,2
303,337,297,307,2
303,335,301,310,2
303,328,304,314,2
304,319,307,316,2
304,311,308,317,2
305,303,308,317,2
305,297,307,319,2
304,297,306,320,2
303,300,305,320,2
302,307,305,318,2
303,314,304,314,2
303,321,303,308,2
302,325,303,302,2
301,323,303,298,2
303,313,303,295,2
305,299,304,295,2
309,287,304,295,2
310,277,305,296,2
308,269,306,297,2
304,268,306,297,2
301,276,306,297,2
299,287,305,297,2
299,298,304,298,2
298,305,303,298,2
299,308,301,299,2
299,308,299,301,2
300,305,297,302,2
301,302,296,304,2
303,300,297,304,2
304,300,299,304,2
304,301,301,303,2
304,303,302,302,2
304,306,302,300,2
304,306,302,298,2
304,304,302,296,2
305,298,303,295,2
307,288,303,295,2
308,279,304,298,2
308,279,306,302,2
307,287,308,307,2
306,301,309,312,2
305,314,309,318,2
305,325,308,324,2
306,334,308,330,2
308,340,307,336,2
310,344,307,339,2
313,347,308,341,2
314,345,308,340,2
315,338,308,339,2
314,326,308,335,2
311,313,308,329,2
307,304,308,321,2
304,300,308,312,2
302,299,307,303,2
302,298,306,296,2
303,298,306,291,2
306,296,305,289,2
308,293,305,287,2
310,289,304,286,2
311,286,304,286,2
311,284,304,286,2
310,284,305,286,2
309,288,306,288,2
307,296,308,292,2
306,305,309,296,2
306,312,308,300,2
306,317,307,304,2
306,319,304,307,2
306,323,299,309,2
309,326,295,313,2
312,329,294,315,2
313,333,293,316,2
313,335,291,315,2
312,333,288,313,2
309,323,286,309,2
307,307,286,306,2
305,293,290,304,2
305,283,295,304,2
305,280,299,304,2
306,280,303,304,2
306,285,306,305,2
305,290,307,307,2
306,295,308,308,2
308,296,309,308,2
309,294,310,308,2
310,290,310,306,2
310,285,310,305,2
311,281,309,306,2
311,281,307,309,2
311,285,305,315,2
310,294,303,321,2
309,304,302,326,2
309,313,301,329,2
309,320,301,329,2
309,324,301,326,2
310,327,300,323,2
311,327,300,320,2
312,324,300,318,2
312,321,301,318,2
312,318,301,318,2
310,317,301,316,2
309,318,299,312,2
308,319,298,308,2
308,321,297,304,2
309,324,296,301,2
309,328,296,300,2
310,331,296,299,2
310,334,297,297,2
311,336,297,295,2
313,335,298,294,2
315,328,300,293,2
318,313,301,293,2
318,292,302,296,2
315,276,304,300,2
312,269,306,305,2
309,267,308,310,2
307,270,309,314,2
306,275,310,318,2
306,282,310,321,2
308,289,310,323,2
309,295,311,321,2
308,299,311,318,2
307,302,310,316,2
305,302,308,315,2
302,302,305,314,2
300,301,304,313,2
300,301,304,311,2
303,301,304,309,2
305,301,305,305,2
307,301,305,299,2
308,300,305,293,2
306,298,305,289,2
303,299,305,287,2
300,304,303,287,2
300,308,301,288,2
304,308,300,290,2
310,303,301,293,2
315,301,302,297,2
318,301,305,301,2
318,301,306,304,2
315,303,308,306,2
313,305,308,306,2
310,310,308,306,2
308,313,308,307,2
306,317,308,308,2
306,319,307,311,2
305,318,306,313,2
305,315,304,315,2
305,311,302,315,2
305,307,301,314,2
306,302,300,311,2
306,299,299,308,2
308,301,299,305,2
308,308,300,302,2
310,315,302,300,2
311,318,304,300,2
312,316,305,301,2
312,315,307,304,2
312,314,309,308,2
312,313,311,313,2
311,313,311,318,2
309,313,310,322,2
307,315,307,326,2
305,320,305,327,2
305,325,304,324,2
305,330,303,319,2
304,333,302,312,2
304,334,302,306,2
304,333,303,300,2
304,328,305,296,2
304,323,306,294,2
303,320,305,292,2
302,319,304,291,2
303,320,300,291,2
305,320,297,292,2
307,320,297,293,2
308,319,298,295,2
308,316,301,298,2
308,313,304,302,2
308,310,305,307,2
307,305,306,310,2
307,297,306,311,2
307,286,306,312,2
309,277,306,315,2
311,272,308,316,2
312,271,308,318,2
309,275,310,318,2
305,282,310,317,2
302,293,309,317,2
301,306,308,316,2
301,319,307,315,2
301,329,307,313,2
301,334,306,310,2
300,333,305,307,2
302,327,304,305,2
305,318,305,304,2
307,304,306,305,2
308,288,308,307,2
307,274,310,310,2
307,262,313,313,2
306,253,315,313,2
305,250,316,313,2
305,253,317,313,2
305,262,317,314,2
305,277,316,315,2
304,293,312,317,2
304,305,309,318,2
305,314,306,320,2
306,321,305,320,2
308,326,305,320,2
309,330,305,319,2
310,333,305,318,2
309,335,304,318,2
309,338,303,319,2
309,341,303,319,2
311,344,303,317,2
312,344,302,313,2
313,345,301,307,2
314,342,299,300,2
312,332,300,293,2
310,314,303,287,2
306,296,306,283,2
303,281,310,283,2
302,272,312,285,2
304,267,313,288,2
306,266,312,291,2
307,269,310,296,2
310,274,308,300,2
312,280,306,303,2
314,285,303,305,2
316,289,301,305,2
316,290,300,306,2
314,291,301,306,2
312,292,303,308,2
309,294,306,310,2
306,297,310,312,2
305,300,314,313,2
306,302,314,313,2
307,305,313,313,2
308,307,310,313,2
309,309,309,312,2
310,311,307,311,2
310,315,306,310,2
310,321,305,309,2
310,327,304,309,2
310,333,304,306,2
310,336,304,304,2
310,333,303,301,2
310,320,303,300,2
308,303,305,299,2
307,288,306,300,2
307,278,307,303,2
307,274,308,306,2
308,278,309,311,2
309,288,311,315,2
310,302,311,318,2
308,313,311,320,2
307,321,310,320,2
307,325,309,321,2
307,324,309,322,2
306,320,309,322,2
305,315,309,322,2
304,310,309,322,2
303,308,308,323,2
303,308,307,323,2
305,310,308,323,2
309,311,310,322,2
313,311,313,319,2
314,310,316,314,2
314,309,319,309,2
312,307,320,304,2
311,304,319,300,2
310,303,316,299,2
309,304,313,299,2
308,306,312,300,2
307,306,311,301,2
307,307,311,303,2
307,311,310,305,2
306,317,309,307,2
306,326,307,310,2
305,337,306,310,2
304,348,303,310,2
303,356,300,309,2
304,359,297,307,2
306,356,296,305,2
309,350,296,305,2
311,338,296,306,2
312,322,295,309,2
310,305,293,313,2
309,293,292,317,2
309,289,293,319,2
308,290,295,320,2
307,292,299,321,2
307,297,306,322,2
308,301,311,323,2
309,304,315,324,2
309,303,317,327,2
310,302,317,328,2
311,302,316,328,2
311,300,314,327,2
309,298,313,324,2
307,297,313,321,2
304,296,313,318,2
302,295,314,317,2
301,294,317,318,2
302,295,319,320,2
303,295,321,322,2
303,294,319,323,2
302,294,317,322,2
301,294,312,321,2
300,295,309,320,2
300,299,305,317,2
300,304,303,313,2
300,310,301,308,2
301,315,300,303,2
302,320,299,298,2
302,321,299,292,2
302,319,299,288,2
303,315,299,285,2
303,310,300,286,2
305,308,302,289,2
304,309,303,293,2
304,311,305,298,2
301,314,306,304,2
299,316,307,308,2
297,316,308,310,2
297,312,309,311,2
299,308,309,310,2
301,304,309,309,2
303,302,309,308,2
303,301,309,307,2
303,299,309,306,2
303,299,309,307,2
304,300,309,308,2
305,301,311,310,2
305,303,312,313,2
305,304,312,316,2
304,308,311,320,2
305,314,310,324,2
307,319,309,326,2
308,320,309,324,2
307,317,309,320,2
307,311,310,314,2
307,302,311,309,2
308,291,313,304,2
309,278,314,300,2
311,270,315,297,2
313,275,316,297,2
314,288,315,298,2
315,302,312,300,2
317,314,307,302,2
319,321,303,303,2
319,326,300,304,2
314,329,299,305,2
306,327,299,305,2
301,321,299,305,2
299,314,301,304,2
300,309,302,304,2
301,305,303,303,2
303,304,304,304,2
304,305,305,305,2
306,304,307,308,2
307,302,308,311,2
307,300,308,313,2
307,301,307,315,2
306,305,304,316,2
305,308,303,316,2
304,310,304,314,2
304,308,306,311,2
304,303,307,306,2
304,295,308,300,2
304,285,306,293,2
305,276,304,288,2
306,268,303,285,2
307,267,303,284,2
308,271,304,286,2
308,282,304,289,2
307,297,305,294,2
305,315,305,298,2
306,333,304,301,2
307,347,302,302,2
307,356,301,301,2
307,360,300,301,2
306,357,299,304,2
305,350,299,310,2
305,341,300,316,2
305,333,301,320,2
305,328,301,323,2
305,325,302,323,2
306,321,302,321,2
305,317,303,320,2
305,313,304,319,2
305,310,304,317,2
305,310,305,316,2
306,315,306,315,2
308,324,307,314,2
310,335,308,313,2
311,343,308,310,2
312,343,308,306,2
311,335,307,303,2
310,322,306,299,2
310,306,306,297,2
311,291,307,297,2
314,283,308,299,2
315,283,309,300,2
315,288,311,301,2
317,291,312,300,2
318,290,312,298,2
319,284,312,297,2
316,275,310,297,2
312,268,307,298,2
308,264,305,302,2
306,265,306,307,2
308,272,308,312,2
309,282,311,314,2
310,292,312,314,2
311,302,312,313,2
311,309,313,312,2
311,314,314,310,2
310,320,315,309,2
308,326,313,308,2
305,332,308,307,2
303,337,303,306,2
302,342,299,304,2
302,344,296,304,2
304,342,296,304,2
305,337,296,305,2
306,329,298,305,2
306,321,299,304,2
307,317,301,304,2
306,317,300,303,2
306,320,300,303,2
306,324,298,303,2
307,323,297,302,2
309,319,297,300,2
311,310,298,298,2
311,297,300,297,2
309,283,302,298,2
307,274,305,300,2
305,270,307,302,2
304,274,307,305,2
304,282,309,308,2
304,293,309,311,2
304,304,310,312,2
304,315,310,313,2
304,324,310,311,2
304,332,310,310,2
303,336,308,308,2
302,338,306,308,2
302,340,305,308,2
302,340,303,308,2
303,331,302,307,2
305,319,302,307,2
307,308,302,307,2
309,299,302,308,2
310,293,304,309,2
311,290,306,310,2
310,287,309,311,2
310,285,311,311,2
311,289,313,311,2
312,296,313,311,2
313,302,313,311,2
313,307,314,314,2
312,309,313,318,2
309,309,312,321,2
304,307,310,320,2
300,304,307,317,2
297,297,306,312,2
296,290,305,308,2
297,284,305,306,2
297,282,304,308,2
296,284,304,312,2
295,291,304,319,2
296,302,304,325,2
297,311,303,330,2
300,316,302,331,2
303,320,301,329,2
306,327,302,326,2
308,335,304,320,2
311,344,307,315,2
311,353,311,310,2
311,358,313,305,2
310,355,314,301,2
308,345,315,298,2
306,329,316,295,2
305,310,317,291,2
306,294,316,287,2
309,284,316,284,2
312,279,315,282,2
314,273,313,281,2
314,266,313,281,2
312,262,312,281,2
311,262,311,283,2
310,265,310,286,2
310,272,309,289,2
311,283,307,294,2
313,296,305,298,2
314,306,304,302,2
316,314,304,305,2
317,318,304,306,2
315,318,303,305,2
312,315,302,304,2
309,312,301,302,2
306,311,302,302,2
304,312,303,303,2
301,313,306,304,2
301,314,309,305,2
303,314,312,307,2
305,314,313,308,2
308,311,314,308,2
310,305,312,305,2
313,297,311,301,2
316,290,311,297,2
319,286,311,295,2
321,282,311,295,2
321,279,312,295,2
321,279,311,297,2
319,282,308,299,2
314,285,306,301,2
310,291,304,303,2
306,300,303,305,2
304,311,302,308,2
302,320,302,311,2
301,326,302,315,2
301,329,302,319,2
301,329,303,323,2
300,326,302,326,2
299,322,301,326,2
299,317,301,323,2
299,311,301,319,2
300,304,300,313,2
301,297,300,309,2
302,290,300,308,2
304,289,301,310,2
306,289,302,314,2
308,287,303,317,2
309,284,305,321,2
310,285,308,324,2
309,293,310,326,2
309,305,312,326,2
309,313,313,325,2
310,315,314,322,2
311,314,315,319,2
312,310,314,315,2
313,303,312,310,2
313,298,309,306,2
314,299,307,305,2
318,303,304,304,2
319,305,302,305,2
315,306,302,306,2
311,308,302,306,2
310,310,304,305,2
309,313,305,302,2
309,314,304,298,2
309,314,303,295,2
308,312,302,294,2
306,307,302,294,2
303,303,303,295,2
301,302,304,297,2
299,307,305,300,2
298,319,306,303,2
299,336,308,306,2
300,354,310,309,2
300,365,311,311,2
300,366,311,311,2
299,351,313,310,2
299,327,316,309,2
299,300,317,308,2
300,275,317,309,2
302,258,318,311,2
303,249,318,315,2
304,247,315,318,2
306,250,310,321,2
308,259,305,324,2
311,272,302,326,2
312,285,301,327,2
311,295,303,328,2
310,301,306,327,2
308,305,310,326,2
306,308,313,324,2
306,313,315,322,2
306,320,316,319,2
305,328,315,317,2
304,335,312,314,2
303,339,309,311,2
302,340,306,307,2
303,336,305,304,2
304,329,305,303,2
306,320,304,304,2
308,308,303,309,2
309,296,301,313,2
309,288,300,316,2
308,286,300,318,2
307,287,302,318,2
307,289,306,315,2
307,291,308,311,2
310,293,310,306,2
313,298,310,301,2
315,309,309,298,2
315,326,308,297,2
312,342,307,298,2
306,354,306,300,2
300,356,305,303,2
297,348,305,305,2
296,330,306,305,2
297,312,307,303,2
299,302,310,303,2
299,301,310,306,2
299,303,311,310,2
298,304,311,313,2
299,300,312,314,2
301,295,313,315,2
303,288,316,314,2
304,280,320,314,2
305,272,324,315,2
306,267,327,316,2
306,266,329,317,2
307,271,329,319,2
306,279,325,319,2
306,287,321,318,2
305,291,317,314,2
304,292,311,308,2
303,290,305,301,2
301,288,300,293,2
300,286,297,287,2
300,285,296,283,2
299,286,295,282,2
299,288,294,283,2
298,291,294,285,2
298,294,295,288,2
297,294,295,291,2
297,296,296,295,2
297,304,298,299,2
299,317,300,304,2
303,333,303,307,2
306,343,305,310,2
310,348,309,313,2
314,351,313,315,2
318,350,320,315,2
320,343,325,313,2
321,333,326,309,2
320,325,324,304,2
319,316,320,301,2
317,307,314,300,2
314,301,306,300,2
312,302,299,303,2
311,309,293,306,2
310,316,289,308,2
309,317,287,310,2
309,313,287,312,2
309,309,287,314,2
309,311,289,316,2
308,318,291,317,2
306,329,295,317,2
305,340,300,318,2
305,341,305,319,2
308,329,309,320,2
313,310,310,320,2
316,289,310,318,2
316,274,309,315,2
315,265,307,313,2
313,261,306,315,2
312,263,306,321,2
311,266,304,326,2
309,270,303,329,2
309,273,302,331,2
310,276,303,329,2
312,281,304,325,2
317,288,305,319,2
324,297,305,311,2
326,307,304,302,2
323,320,303,295,2
319,331,300,290,2
316,338,296,288,2
314,337,293,288,2
308,330,291,289,2
300,318,291,290,2
296,304,293,293,2
295,293,296,297,2
295,286,299,301,2
296,284,302,304,2
297,285,303,304,2
297,288,305,303,2
298,290,306,301,2
299,290,306,298,2
300,287,305,296,2
302,283,305,293,2
303,277,304,291,2
303,269,304,287,2
303,262,305,285,2
302,259,306,286,2
303,262,308,288,2
303,270,310,293,2
305,283,312,299,2
306,299,313,306,2
308,321,313,312,2
308,349,310,317,2
308,376,306,319,2
307,393,303,319,2
308,400,301,318,2
308,394,299,316,2
308,379,299,312,2
308,359,299,308,2
307,339,300,303,2
307,320,303,299,2
306,304,305,298,2
306,291,307,299,2
305,280,307,300,2
306,273,307,300,2
307,270,307,300,2
309,272,306,300,2
311,277,303,300,2
313,281,299,301,2
313,283,296,302,2
313,284,294,304,2
312,283,294,307,2
312,286,297,311,2
311,292,299,315,2
309,299,301,318,2
307,305,302,321,2
305,307,301,322,2
306,306,301,321,2
307,301,302,317,2
308,294,303,311,2
307,291,306,307,2
306,299,310,306,2
305,313,312,307,2
304,323,313,308,2
304,325,313,308,2
305,321,312,307,2
307,311,310,305,2
308,299,307,302,2
309,287,304,300,2
310,277,302,299,2
310,269,301,300,2
309,264,299,303,2
309,262,298,306,2
311,263,299,308,2
313,267,300,311,2
315,274,303,316,2
316,285,306,320,2
315,297,308,324,2
311,309,310,326,2
308,319,313,325,2
305,325,317,323,2
305,329,321,320,2
306,332,325,318,2
307,336,325,315,2
308,345,321,312,2
308,355,314,308,2
308,360,306,304,2
308,357,299,301,2
306,350,294,297,2
303,340,293,296,2
300,330,294,295,2
300,322,296,297,2
300,316,298,298,2
301,312,298,298,2
300,307,299,297,2
301,302,298,296,2
301,301,299,296,2
301,302,300,296,2
301,306,301,297,2
303,311,302,296,2
304,315,302,296,2
305,318,302,296,2
305,319,302,296,2
305,318,302,297,2
304,314,303,298,2
303,304,305,299,2
302,294,306,300,2
302,284,307,302,2
301,275,309,303,2
300,273,310,306,2
300,280,310,310,2
302,289,310,315,2
306,295,311,320,2
309,298,312,325,2
311,299,312,329,2
312,299,312,332,2
311,298,313,333,2
310,298,313,334,2
307,300,316,337,2
306,304,318,341,2
306,310,320,343,2
307,317,320,341,2
309,325,320,334,2
311,329,317,323,2
314,327,313,310,2
313,321,308,298,2
311,314,304,289,2
309,308,301,283,2
307,305,300,281,2
305,304,301,282,2
304,305,303,285,2
304,311,305,289,2
304,317,307,292,2
304,323,306,295,2
305,331,305,298,2
304,338,304,299,2
304,345,305,300,2
303,347,307,299,2
303,345,308,298,2
303,341,306,297,2
303,336,304,296,2
304,330,302,295,2
306,322,302,296,2
307,318,304,297,2
307,317,306,299,2
307,318,308,301,2
308,320,309,304,2
307,322,310,305,2
307,323,309,305,2
307,321,309,305,2
308,317,308,304,2
309,311,307,302,2
310,304,306,300,2
309,295,306,299,2
308,286,307,299,2
309,277,307,300,2
311,272,308,302,2
313,271,307,305,2
312,276,307,308,2
305,283,307,310,2
297,288,307,310,2
291,290,307,310,2
289,290,308,308,2
290,292,310,307,2
292,298,311,306,2
295,309,312,308,2
298,324,314,311,2
299,338,315,314,2
300,345,314,316,2
302,345,312,318,2
304,336,310,319,2
307,324,308,321,2
309,312,307,324,2
311,302,306,326,2
313,297,304,325,2
312,299,303,322,2
310,304,305,318,2
307,311,308,316,2
305,316,312,315,2
303,317,313,313,2
301,316,313,311,2
300,315,312,308,2
301,314,310,305,2
301,313,309,303,2
302,313,307,302,2
304,315,305,302,2
304,319,303,302,2
305,320,299,301,2
305,320,295,299,2
306,318,292,298,2
306,313,292,299,2
306,307,294,302,2
306,302,297,307,2
306,299,301,313,2
308,298,305,318,2
310,302,308,322,2
313,309,310,324,2
314,316,310,325,2
313,323,308,327,2
312,328,306,327,2
310,332,305,326,2
309,334,306,321,2
308,332,307,314,2
306,326,309,308,2
305,317,309,304,2
306,308,307,301,2
308,303,303,298,2
310,304,298,296,2
311,305,293,294,2
311,304,289,291,2
312,299,288,290,2
311,292,287,290,2
310,287,288,293,2
307,286,289,298,2
304,296,292,307,2
304,314,295,315,2
306,335,297,319,2
307,350,301,318,2
307,357,305,313,2
306,356,307,304,2
305,343,308,295,2
304,322,310,287,2
305,301,312,283,2
306,286,313,282,2
308,277,312,282,2
309,273,309,285,2
312,274,306,288,2
314,277,303,293,2
316,283,301,299,2
316,290,301,304,2
314,295,302,310,2
311,297,304,314,2
309,299,306,317,2
307,302,307,319,2
307,306,307,319,2
308,312,308,317,2
311,318,309,313,2
315,321,310,309,2
320,324,310,308,2
325,328,309,309,2
323,333,308,312,2
316,337,307,313,2
307,336,306,314,2
300,327,306,315,2
295,316,307,315,2
292,305,307,315,2
291,290,304,314,2
292,275,301,312,2
295,264,298,312,2
298,262,297,312,2
300,269,298,312,2
303,277,299,308,2
305,291,300,304,2
306,308,300,303,2
306,321,300,305,2
307,325,300,309,2
306,324,299,310,2
306,323,299,308,2
305,322,300,306,2
304,322,300,302,2
303,323,301,298,2
303,326,302,296,2
303,329,303,295,2
304,327,303,294,2
305,323,304,295,2
305,321,305,296,2
305,320,306,296,2
306,317,307,297,2
307,313,308,298,2
308,311,309,301,2
307,308,309,304,2
306,302,308,308,2
305,294,306,311,2
306,288,302,315,2
308,289,300,318,2
310,296,299,319,2
312,304,299,319,2
313,313,298,316,2
314,315,299,313,2
315,309,301,309,2
316,299,304,307,2
314,290,305,304,2
310,284,306,302,2
308,288,307,300,2
309,298,306,299,2
312,309,307,299,2
313,317,309,300,2
316,321,311,302,2
318,323,312,305,2
315,321,312,307,2
309,315,312,307,2
304,309,314,308,2
303,306,317,310,2
305,306,320,312,2
307,306,323,315,2
310,304,323,318,2
312,300,322,319,2
313,297,319,319,2
313,295,315,319,2
313,294,311,318,2
311,294,308,317,2
310,294,307,316,2
309,296,307,315,2
308,298,307,314,2
307,299,307,312,2
306,300,308,312,2
305,301,309,313,2
305,302,309,314,2
305,302,308,314,2
305,301,305,315,2
306,303,302,316,2
308,305,301,318,2
311,308,302,319,2
312,311,303,321,2
313,314,305,322,2
314,318,307,322,2
314,321,309,321,2
312,325,311,318,2
308,328,311,313,2
305,327,311,309,2
304,321,310,306,2
304,316,310,305,2
304,317,309,307,2
304,319,308,312,2
304,314,307,315,2
304,303,305,318,2
303,294,304,318,2
301,288,303,317,2
300,284,303,316,2
299,282,304,316,2
298,279,304,318,2
299,271,306,321,2
300,261,308,325,2
301,253,310,327,2
303,251,312,328,2
305,256,314,327,2
308,268,316,325,2
309,287,316,320,2
309,311,314,315,2
307,329,313,310,2
305,336,311,306,2
303,334,309,302,2
301,328,307,300,2
301,321,305,299,2
301,315,304,301,2
303,310,303,305,2
304,308,301,308,2
304,308,298,313,2
304,309,295,318,2
305,311,292,322,2
307,314,292,325,2
309,318,294,325,2
311,324,299,323,2
313,328,305,318,2
315,330,312,311,2
314,325,316,303,2
313,312,319,297,2
310,298,319,293,2
306,288,316,293,2
303,287,313,294,2
299,292,311,296,2
297,302,311,297,2
296,313,314,298,2
298,322,316,300,2
299,327,314,301,2
300,328,311,300,2
301,325,305,298,2
301,320,299,296,2
301,313,294,295,2
300,304,292,293,2
300,294,291,293,2
300,290,292,293,2
302,294,294,293,2
303,303,296,294,2
304,311,299,295,2
305,316,301,296,2
305,319,303,298,2
305,321,304,301,2
304,323,305,305,2
304,326,306,311,2
304,331,306,316,2
304,334,307,322,2
305,334,307,327,2
307,333,307,330,2
309,330,308,332,2
312,325,308,332,2
312,320,308,329,2
311,315,308,324,2
309,309,309,318,2
309,299,309,310,2
307,280,309,301,2
305,257,309,296,2
303,241,309,294,2
301,235,311,296,2
302,244,314,301,2
302,260,317,305,2
303,276,318,307,2
304,289,317,309,2
305,299,316,309,2
306,305,313,310,2
306,310,308,310,2
304,313,305,310,2
301,316,303,310,2
299,320,301,310,2
297,323,300,311,2
296,324,298,311,2
296,324,298,312,2
297,321,298,315,2
299,317,301,318,2
302,314,305,320,2
303,312,309,320,2
305,315,313,321,2
307,320,314,321,2
308,326,315,323,2
309,332,314,322,2
309,335,311,319,2
309,338,306,312,2
308,340,301,304,2
307,339,295,295,2
305,333,293,287,2
303,321,293,281,2
302,302,294,277,2
301,282,295,277,2
302,271,295,281,2
303,271,296,284,2
305,274,296,287,2
307,275,298,288,2
311,276,301,288,2
314,278,306,288,2
313,284,310,290,2
307,295,313,293,2
302,307,313,298,2
299,321,312,302,2
298,332,310,307,2
297,340,308,312,2
298,342,307,315,2
298,341,306,317,2
298,337,306,317,2
299,329,305,314,2
300,320,305,311,2
301,312,305,309,2
303,303,305,306,2
303,296,305,305,2
302,292,304,306,2
301,292,305,309,2
301,294,306,314,2
300,295,305,316,2
301,294,304,317,2
301,291,303,314,2
302,289,302,311,2
302,291,303,309,2
302,293,303,308,2
302,297,304,308,2
304,301,304,309,2
307,306,305,312,2
310,311,307,316,2
312,317,310,320,2
313,322,312,323,2
313,325,313,324,2
313,327,314,325,2
313,327,313,325,2
312,327,312,324,2
313,324,310,322,2
313,319,310,319,2
313,312,310,313,2
313,303,311,306,2
314,296,312,299,2
314,289,313,294,2
313,283,312,291,2
313,277,312,292,2
312,274,311,295,2
311,278,309,298,2
310,291,307,299,2
309,309,305,299,2
310,325,304,298,2
310,338,305,298,2
309,347,305,300,2
307,351,305,303,2
305,351,304,308,2
305,347,304,313,2
306,339,306,315,2
309,327,308,314,2
313,310,310,313,2
316,297,311,312,2
317,292,313,311,2
316,297,313,310,2
315,304,312,307,2
314,309,309,304,2
315,312,306,301,2
316,312,307,299,2
315,309,309,298,2
313,304,311,298,2
310,300,311,298,2
308,298,309,299,2
306,299,306,300,2
304,303,302,301,2
304,306,299,303,2
304,306,297,304,2
306,302,298,305,2
309,300,302,305,2
310,300,308,305,2
310,301,313,305,2
310,303,316,306,2
309,307,316,307,2
307,312,315,311,2
305,322,314,314,2
305,333,312,317,2
305,343,309,317,2
305,349,307,316,2
305,346,306,316,2
305,339,306,315,2
306,330,306,316,2
307,320,307,316,2
310,310,308,317,2
311,302,311,316,2
312,297,313,316,2
314,296,315,314,2
316,297,316,311,2
318,299,315,307,2
320,298,314,304,2
320,292,313,301,2
314,285,312,301,2
308,281,312,302,2
304,280,311,303,2
301,281,311,304,2
299,285,311,304,2
298,291,310,305,2
298,298,308,305,2
298,304,306,306,2
298,309,304,308,2
298,311,303,310,2
299,312,304,312,2
299,316,306,315,2
300,324,308,322,2
300,334,309,330,2
301,342,310,337,2
301,345,312,340,2
302,340,313,337,2
302,326,315,331,2
301,305,316,324,2
300,286,317,317,2
300,278,318,313,2
301,284,318,310,2
302,295,316,307,2
303,303,312,305,2
303,306,308,305,2
303,307,306,306,2
304,309,304,307,2
304,307,304,308,2
305,303,305,310,2
307,299,309,313,2
309,296,313,317,2
312,294,318,320,2
315,293,322,320,2
317,291,324,320,2
317,290,321,319,2
315,292,315,316,2
314,296,309,314,2
315,304,304,312,2
315,316,300,310,2
314,328,298,308,2
311,338,297,307,2
306,342,298,306,2
300,340,301,306,2
294,334,303,306,2
291,331,305,307,2
290,332,305,308,2
292,338,303,308,2
296,346,300,310,2
299,351,297,312,2
301,351,295,314,2
301,339,295,317,2
302,319,296,318,2
302,297,298,317,2
303,283,301,315,2
303,276,305,314,2
304,275,309,312,2
306,277,314,311,2
306,278,319,309,2
306,278,322,307,2
305,274,323,305,2
305,270,324,303,2
304,270,323,300,2
303,271,321,299,2
302,275,319,300,2
302,282,318,302,2
303,291,319,303,2
305,298,320,303,2
307,302,322,302,2
309,303,322,302,2
310,302,320,302,2
310,300,318,303,2
310,299,314,303,2
310,297,311,303,2
308,293,307,304,2
306,288,304,305,2
304,283,301,306,2
302,280,300,308,2
302,281,300,311,2
301,285,301,314,2
301,291,302,317,2
301,301,302,319,2
302,316,303,320,2
303,332,304,320,2
304,343,305,320,2
305,352,306,320,2
304,357,305,318,2
304,352,304,317,2
304,338,304,318,2
305,324,305,318,2
306,316,307,318,2
309,315,310,316,2
311,319,314,313,2
313,325,318,308,2
314,332,321,303,2
314,338,321,300,2
315,340,318,297,2
315,334,313,294,2
315,321,308,294,2
314,305,305,294,2
314,290,302,296,2
312,280,300,297,2
310,273,301,298,2
307,273,302,299,2
304,278,303,303,2
302,285,304,307,2
301,290,305,309,2
302,294,305,308,2
304,296,304,305,2
307,295,305,302,2
310,293,306,298,2
311,291,305,295,2
313,290,304,295,2
313,291,303,297,2
313,295,304,302,2
311,301,305,304,2
309,309,305,306,2
308,317,305,305,2
307,322,303,302,2
307,322,300,299,2
308,319,298,297,2
308,314,297,296,2
307,310,297,297,2
304,310,298,299,2
302,313,300,303,2
302,318,303,308,2
303,322,307,312,2
304,327,309,314,2
304,330,312,314,2
304,333,313,313,2
305,332,314,311,2
305,329,315,310,2
306,325,316,309,2
308,319,317,307,2
310,312,317,303,2
314,307,318,298,2
315,306,318,294,2
317,306,315,291,2
317,306,311,291,2
317,306,307,291,2
317,303,305,291,2
317,300,304,292,2
315,298,304,295,2
311,300,304,297,2
307,302,303,301,2
305,305,301,304,2
303,308,299,306,2
302,313,298,309,2
301,317,299,313,2
301,318,302,317,2
301,314,305,320,2
302,306,308,323,2
302,298,310,324,2
302,291,312,323,2
302,287,314,321,2
301,293,315,320,2
301,303,318,320,2
299,312,319,319,2
297,317,318,319,2
296,319,315,319,2
299,321,311,319,2
304,325,310,319,2
310,330,311,317,2
314,336,312,316,2
315,341,313,315,2
311,345,312,316,2
306,344,310,317,2
303,339,307,318,2
301,327,304,316,2
301,310,304,313,2
302,294,303,307,2
303,283,302,301,2
304,276,300,297,2
306,274,301,295,2
306,274,302,294,2
306,278,303,294,2
304,284,303,292,2
300,289,302,291,2
298,293,300,289,2
296,297,301,289,2
297,302,304,291,2
301,306,308,293,2
304,308,312,296,2
307,308,316,299,2
309,308,320,304,2
310,303,320,309,2
311,295,319,313,2
313,284,316,317,2
314,278,311,320,2
313,279,306,322,2
311,282,303,323,2
308,287,301,323,2
305,296,299,321,2
300,315,299,320,2
297,340,299,320,2
296,358,300,319,2
295,367,301,316,2
295,367,302,312,2
297,361,303,308,2
298,350,302,303,2
301,336,299,298,2
304,318,295,293,2
309,301,292,290,2
313,291,292,290,2
315,287,293,290,2
313,287,297,289,2
310,288,302,288,2
306,289,308,289,2
306,289,313,292,2
307,287,315,295,2
307,284,316,299,2
304,282,315,303,2
302,281,316,306,2
301,282,318,308,2
301,287,320,310,2
302,294,321,312,2
302,301,320,313,2
301,307,318,313,2
302,310,315,312,2
302,312,312,310,2
301,314,308,307,2
299,315,304,305,2
300,314,302,303,2
301,311,300,302,2
304,306,301,301,2
306,300,301,300,2
308,297,302,300,2
309,297,303,301,2
310,301,303,303,2
311,309,304,305,2
312,316,306,307,2
312,320,308,308,2
311,321,310,308,2
309,316,312,307,2
308,310,314,307,2
307,306,317,308,2
306,308,318,308,2
305,313,317,308,2
305,317,314,308,2
305,320,310,309,2
305,322,306,309,2
305,324,303,310,2
304,323,300,310,2
302,318,299,310,2
302,314,300,310,2
302,308,301,310,2
304,303,302,309,2
306,297,304,309,2
307,292,305,309,2
309,289,308,312,2
311,286,311,315,2
311,280,313,317,2
311,274,313,318,2
310,270,313,318,2
310,269,311,318,2
310,270,310,318,2
310,276,309,319,2
310,286,311,320,2
309,297,312,320,2
308,307,313,319,2
307,316,313,316,2
305,318,311,313,2
303,315,308,309,2
303,308,306,306,2
304,304,305,304,2
306,305,302,306,2
305,311,299,310,2
303,318,297,314,2
302,330,295,317,2
302,343,294,317,2
302,356,295,316,2
302,368,295,314,2
301,375,296,311,2
301,374,297,307,2
302,369,299,304,2
306,362,301,302,2
311,349,304,301,2
317,329,306,300,2
317,310,308,301,2
312,295,310,303,2
307,283,313,307,2
305,275,315,311,2
303,270,314,315,2
302,270,309,317,2
301,275,303,317,2
302,285,299,314,2
305,294,298,309,2
309,305,301,305,2
313,314,304,304,2
311,318,305,303,2
306,311,306,304,2
301,296,306,304,2
299,279,307,302,2
297,263,309,301,2
295,253,310,300,2
295,255,311,301,2
296,269,311,302,2
297,286,310,303,2
296,297,308,303,2
295,304,308,305,2
294,308,309,308,2
294,309,309,311,2
296,309,308,312,2
298,311,308,311,2
300,313,306,308,2
301,314,305,305,2
302,313,303,302,2
302,311,302,301,2
302,311,301,301,2
303,313,301,304,2
304,313,301,306,2
304,307,303,309,2
304,300,305,310,2
304,298,308,312,2
306,302,311,314,2
306,308,312,315,2
304,312,311,316,2
303,313,311,315,2
301,312,311,315,2
300,311,309,313,2
299,310,307,310,2
299,308,305,308,2
299,308,306,306,2
300,310,307,305,2
301,314,310,305,2
303,317,311,306,2
304,319,311,307,2
304,323,309,309,2
304,328,307,312,2
303,332,304,314,2
302,329,303,315,2
302,319,302,314,2
304,303,304,314,2
307,285,306,313,2
311,270,307,311,2
313,263,308,309,2
313,268,309,307,2
311,284,310,305,2
309,306,310,306,2
307,327,309,308,2
306,342,308,311,2
307,349,310,313,2
308,349,311,315,2
307,342,311,316,2
305,330,308,317,2
304,317,304,319,2
304,305,301,320,2
305,295,300,321,2
306,289,301,319,2
307,287,301,316,2
308,289,302,313,2
308,290,301,308,2
310,292,302,304,2
310,297,304,299,2
309,306,305,294,2
308,315,305,290,2
306,320,303,288,2
305,319,302,286,2
303,312,300,285,2
302,301,299,286,2
303,290,299,288,2
304,284,301,291,2
308,288,302,295,2
313,300,304,298,2
315,309,306,300,2
316,311,309,301,2
315,307,312,300,2
310,300,314,298,2
305,295,317,298,2
301,295,316,300,2
300,301,312,304,2
301,307,308,307,2
303,311,303,309,2
304,312,299,311,2
304,313,298,313,2
304,316,300,315,2
304,318,303,318,2
304,320,304,320,2
304,321,304,322,2
304,321,304,323,2
303,320,303,322,2
303,318,303,319,2
303,317,304,315,2
303,318,305,309,2
302,323,305,303,2
302,328,306,297,2
302,330,308,293,2
302,329,310,291,2
304,324,313,291,2
306,315,315,295,2
309,307,316,299,2
310,302,316,303,2
311,298,313,308,2
311,295,307,312,2
310,290,302,315,2
308,283,298,316,2
307,276,296,314,2
306,272,296,311,2
306,271,297,308,2
306,273,298,306,2
306,277,298,305,2
305,282,299,303,2
304,284,298,300,2
303,286,298,298,2
304,284,300,296,2
305,279,304,294,2
306,273,312,294,2
307,267,321,295,2
308,264,328,298,2
307,264,328,302,2
306,269,323,306,2
305,277,315,311,2
305,287,307,316,2
305,301,301,321,2
304,317,298,323,2
303,330,298,324,2
301,339,299,324,2
299,344,299,323,2
298,346,300,322,2
300,346,299,320,2
302,343,297,316,2
304,337,295,312,2
306,332,294,310,2
308,327,295,310,2
308,324,296,310,2
308,322,298,309,2
307,317,299,309,2
308,309,301,307,2
309,301,303,307,2
310,294,304,305,2
311,289,306,303,2
313,286,306,299,2
315,285,306,297,2
317,286,304,295,2
316,288,301,293,2
314,292,298,294,2
311,301,297,296,2
310,317,296,297,2
309,334,296,298,2
309,349,297,297,2
308,357,298,296,2
307,355,299,296,2
305,344,299,297,2
303,325,299,297,2
302,301,299,297,2
300,271,300,297,2
300,249,303,298,2
301,241,310,300,2
305,243,317,301,2
309,251,322,303,2
313,261,323,305,2
318,273,321,310,2
323,284,318,314,2
325,294,312,317,2
323,306,305,320,2
316,317,301,322,2
309,326,298,323,2
304,333,298,323,2
302,339,299,323,2
301,344,301,322,2
302,349,303,321,2
303,351,305,321,2
304,350,306,322,2
305,344,307,322,2
305,333,307,320,2
305,321,307,314,2
305,308,306,308,2
306,298,307,303,2
306,290,307,299,2
307,283,308,298,2
308,277,308,297,2
308,275,307,297,2
310,278,308,298,2
312,282,309,299,2
314,287,310,300,2
317,289,312,301,2
318,291,314,303,2
318,291,314,304,2
319,290,314,305,2
320,291,314,306,2
321,295,314,308,2
319,302,316,311,2
313,313,317,314,2
308,326,319,316,2
305,336,320,318,2
303,340,319,317,2
301,339,315,315,2
299,336,310,313,2
298,333,304,312,2
300,330,301,311,2
303,322,300,309,2
305,311,301,307,2
307,293,303,304,2
308,269,305,300,2
309,249,308,299,2
311,244,311,299,2
311,250,314,302,2
311,261,315,305,2
309,277,314,309,2
306,296,313,314,2
304,314,312,318,2
302,326,311,322,2
302,334,310,324,2
303,339,308,324,2
303,343,306,322,2
304,347,303,318,2
305,351,301,313,2
307,354,301,308,2
309,353,302,303,2
310,348,305,300,2
311,339,307,300,2
312,329,308,300,2
312,317,308,301,2
312,307,306,302,2
311,301,303,305,2
309,299,302,307,2
307,299,302,308,2
305,300,304,308,2
302,299,306,308,2
300,299,307,307,2
298,300,308,306,2
299,303,308,305,2
301,308,309,304,2
303,314,311,304,2
304,318,314,304,2
305,320,315,303,2
304,319,314,299,2
303,318,310,295,2
301,314,304,292,2
300,304,299,290,2
300,288,297,289,2
302,272,297,289,2
304,259,300,292,2
305,254,302,296,2
305,256,305,301,2
304,265,306,307,2
302,280,306,311,2
300,295,305,314,2
298,308,303,315,2
297,318,301,317,2
296,326,301,319,2
296,339,301,320,2
296,357,300,321,2
297,375,298,321,2
298,386,296,321,2
299,387,295,320,2
299,376,294,317,2
301,358,294,316,2
303,337,295,315,2
305,320,297,314,2
306,310,299,315,2
306,309,301,318,2
307,311,304,323,2
306,313,305,328,2
305,314,307,332,2
305,314,309,335,2
305,307,311,336,2
305,296,313,335,2
305,286,314,331,2
305,281,315,326,2
306,278,316,321,2
307,281,317,317,2
306,288,317,314,2
304,297,316,311,2
301,302,314,308,2
297,305,312,305,2
295,303,310,303,2
294,298,308,301,2
296,291,306,299,2
300,284,306,296,2
303,279,306,293,2
305,273,306,291,2
305,265,307,289,2
305,263,306,290,2
305,266,306,290,2
305,274,306,290,2
304,284,305,289,2
305,295,304,288,2
305,308,302,287,2
305,321,300,287,2
305,328,300,288,2
305,330,301,288,2
305,329,303,290,2
307,329,306,291,2
309,331,307,293,2
309,332,308,293,2
306,330,308,293,2
303,326,307,294,2
302,321,305,296,2
302,314,303,301,2
303,309,304,308,2
307,308,307,315,2
311,309,310,321,2
311,309,311,325,2
308,311,310,326,2
306,314,308,325,2
306,314,306,323,2
307,310,303,321,2
308,301,302,319,2
310,294,301,317,2
309,289,302,314,2
307,289,302,312,2
304,290,301,310,2
302,291,297,309,2
300,293,293,307,2
299,294,290,306,2
300,295,290,304,2
300,295,291,302,2
301,294,294,299,2
302,294,297,296,2
305,294,301,295,2
308,294,304,295,2
310,293,306,294,2
311,288,308,294,2
310,283,310,293,2
309,281,310,293,2
308,283,308,294,2
308,288,305,294,2
308,294,303,294,2
308,299,302,296,2
307,302,302,297,2
305,305,303,299,2
302,309,305,302,2
300,317,306,304,2
299,327,308,305,2
301,336,309,305,2
304,337,309,304,2
307,332,308,303,2
310,321,304,303,2
311,307,297,302,2
311,296,292,303,2
312,293,289,306,2
311,298,289,311,2
310,310,292,318,2
308,327,298,326,2
307,340,305,331,2
305,347,310,333,2
303,345,313,333,2
301,338,314,331,2
300,331,313,327,2
303,326,312,321,2
306,323,311,316,2
308,320,310,312,2
308,317,308,311,2
309,315,306,312,2
310,316,305,316,2
310,319,305,321,2
309,322,306,325,2
306,323,305,327,2
304,319,303,327,2
305,312,302,326,2
308,304,304,321,2
311,295,306,313,2
313,289,309,304,2
314,286,312,298,2
314,287,312,295,2
314,293,312,295,2
313,303,310,296,2
312,313,308,296,2
312,319,304,295,2
311,320,302,293,2
311,318,300,291,2
312,314,300,289,2
314,301,303,288,2
316,286,307,287,2
314,277,311,290,2
311,274,314,295,2
308,276,316,300,2
307,283,316,304,2
307,291,314,307,2
307,299,309,308,2
308,308,305,306,2
309,317,302,304,2
311,323,301,302,2
311,326,303,301,2
311,323,305,300,2
311,317,307,299,2
310,310,309,298,2
309,303,311,298,2
308,298,313,299,2
309,295,315,301,2
311,296,316,304,2
314,301,316,305,2
316,306,315,305,2
317,310,315,303,2
318,311,314,300,2
318,308,311,296,2
319,303,306,293,2
320,298,302,291,2
322,295,299,290,2
323,293,298,290,2
325,292,299,292,2
326,292,301,294,2
325,294,304,296,2
318,297,307,299,2
310,302,311,302,2
304,306,314,305,2
300,313,316,309,2
298,322,317,312,2
297,332,317,315,2
297,343,315,318,2
296,350,313,319,2
294,351,312,319,2
294,345,310,318,2
296,331,308,316,2
298,309,307,315,2
301,290,305,315,2
303,285,304,316,2
307,288,304,318,2
309,297,304,320,2
310,306,305,320,2
310,311,305,317,2
309,311,306,313,2
309,312,307,311,2
308,316,309,311,2
309,320,310,312,2
308,323,311,313,2
308,324,312,316,2
308,327,311,319,2
308,330,307,322,2
307,326,301,323,2
306,315,296,323,2
306,300,294,321,2
307,287,294,318,2
310,278,296,314,2
313,275,299,309,2
311,276,303,305,2
307,279,307,302,2
303,284,310,300,2
301,290,313,299,2
300,298,316,300,2
302,306,319,302,2
303,311,321,305,2
304,313,321,308,2
304,311,320,310,2
305,304,318,310,2
305,294,315,308,2
306,286,313,308,2
307,287,313,310,2
308,295,314,313,2
310,306,317,315,2
309,316,319,315,2
307,320,320,313,2
303,318,320,312,2
300,307,321,310,2
297,293,321,309,2
295,282,318,308,2
294,274,312,308,2
294,272,307,309,2
295,276,304,311,2
297,285,305,314,2
300,295,308,319,2
303,303,312,323,2
305,311,316,325,2
306,317,317,325,2
305,322,317,324,2
305,325,313,320,2
305,326,307,313,2
306,325,302,305,2
307,322,298,298,2
308,317,296,292,2
309,313,294,288,2
309,310,294,285,2
309,308,294,284,2
309,304,296,285,2
307,298,299,286,2
305,292,303,289,2
304,289,307,291,2
303,290,310,294,2
303,293,311,297,2
303,300,311,299,2
303,309,311,300,2
302,317,311,302,2
302,323,309,304,2
303,325,308,308,2
305,319,306,311,2
308,306,303,313,2
309,293,301,313,2
309,286,298,312,2
307,282,297,311,2
306,278,298,311,2
305,273,301,312,2
305,270,304,316,2
305,271,308,318,2
304,276,311,320,2
304,285,312,320,2
303,294,312,318,2
303,301,311,315,2
303,307,308,311,2
303,314,306,308,2
303,322,305,305,2
303,330,304,302,2
303,333,303,299,2
303,331,303,297,2
304,324,303,296,2
305,312,306,295,2
306,300,308,293,2
306,293,312,292,2
307,291,317,291,2
308,294,320,290,2
308,301,318,290,2
309,311,312,291,2
311,324,306,293,2
312,337,301,296,2
310,348,297,300,2
307,355,292,306,2
304,353,288,312,2
303,340,285,317,2
303,319,285,321,2
305,296,287,325,2
307,274,292,328,2
308,255,299,329,2
309,244,306,328,2
312,248,313,328,2
316,261,320,327,2
318,276,325,325,2
318,288,328,322,2
316,296,329,317,2
314,303,329,312,2
310,308,328,306,2
307,312,324,300,2
304,313,317,294,2
303,313,308,289,2
302,312,300,285,2
301,312,296,281,2
301,312,295,279,2
301,314,296,278,2
302,315,296,279,2
302,313,298,282,2
304,307,300,286,2
306,298,302,290,2
308,290,303,296,2
309,291,303,302,2
311,297,302,307,2
313,303,300,310,2
314,304,300,313,2
314,305,300,314,2
315,307,301,316,2
316,312,302,316,2
316,318,303,314,2
315,321,302,312,2
316,321,301,308,2
318,315,300,305,2
322,301,301,303,2
326,287,303,303,2
322,280,306,303,2
313,281,309,304,2
307,287,311,305,2
304,292,312,307,2
305,296,313,307,2
307,301,312,309,2
308,306,307,310,2
310,306,302,310,2
310,303,298,309,2
311,300,299,308,2
312,298,300,308,2
311,298,303,309,2
310,299,304,309,2
308,301,306,309,2
307,303,307,309,2
305,307,307,308,2
304,312,307,308,2
305,318,307,309,2
305,323,306,310,2
305,328,305,309,2
305,330,305,307,2
304,327,304,304,2
304,316,303,299,2
304,301,303,293,2
305,286,302,288,2
306,274,302,285,2
305,264,302,286,2
306,258,302,290,2
308,261,303,298,2
310,275,304,308,2
310,295,306,315,2
307,314,307,321,2
305,325,309,324,2
303,329,310,326,2
303,326,311,325,2
303,320,312,322,2
303,316,312,318,2
303,315,312,312,2
303,315,311,308,2
303,318,310,304,2
305,322,310,301,2
307,328,311,300,2
308,333,313,299,2
309,338,314,299,2
310,339,316,300,2
312,332,317,301,2
315,318,319,301,2
317,301,320,301,2
318,287,321,302,2
316,278,320,302,2
312,274,319,303,2
308,272,318,304,2
306,274,316,306,2
305,280,317,308,2
305,290,317,310,2
305,303,317,313,2
304,319,315,314,2
304,334,312,314,2
305,343,309,314,2
305,347,307,312,2
305,345,305,309,2
305,338,303,305,2
306,328,302,302,2
307,314,302,298,2
307,298,303,295,2
308,282,304,293,2
309,271,307,294,2
311,266,310,297,2
313,267,314,299,2
313,272,317,302,2
312,279,316,305,2
311,288,315,308,2
312,297,314,311,2
312,307,312,313,2
310,318,309,315,2
307,326,307,317,2
306,332,306,319,2
308,336,305,320,2
310,335,307,321,2
310,328,309,323,2
309,317,310,324,2
307,309,311,326,2
308,307,309,329,2
310,311,308,331,2
313,315,307,330,2
313,314,308,328,2
311,314,310,323,2
309,315,314,319,2
307,317,318,318,2
307,321,320,319,2
306,324,318,320,2
307,324,314,320,2
306,320,310,318,2
307,313,307,314,2
309,305,307,311,2
309,297,306,308,2
309,295,306,307,2
308,296,306,306,2
306,300,304,305,2
304,304,302,304,2
303,305,300,303,2
302,307,298,300,2
303,312,296,296,2
305,320,295,291,2
307,328,295,287,2
307,336,295,285,2
306,339,295,285,2
305,333,296,285,2
306,323,297,287,2
309,311,298,290,2
309,300,300,293,2
310,291,303,295,2
311,285,306,297,2
312,280,309,298,2
312,274,312,297,2
313,268,314,296,2
315,263,315,294,2
317,261,313,293,2
319,261,311,292,2
320,265,309,292,2
319,276,306,293,2
313,293,304,295,2
304,306,303,297,2
297,312,303,299,2
293,311,304,303,2
292,304,306,306,2
295,295,309,309,2
299,286,313,311,2
304,279,316,313,2
307,276,318,314,2
310,277,316,314,2
309,283,312,315,2
305,293,307,316,2
300,303,303,317,2
297,312,301,318,2
294,318,299,316,2
294,324,297,311,2
296,331,296,304,2
298,341,294,297,2
300,351,294,292,2
302,356,294,289,2
302,352,296,288,2
301,338,297,290,2
301,316,297,294,2
300,296,299,299,2
301,281,301,305,2
302,274,304,311,2
302,271,307,316,2
302,269,310,318,2
302,267,312,320,2
302,266,313,320,2
301,269,313,320,2
299,277,311,319,2
297,290,309,318,2
297,304,307,317,2
296,318,303,317,2
297,326,301,317,2
297,329,300,318,2
298,327,300,318,2
298,321,301,317,2
300,314,301,315,2
302,303,301,313,2
304,290,301,310,2
306,274,303,307,2
307,262,307,307,2
308,256,313,309,2
309,251,319,312,2
310,248,323,318,2
311,255,325,326,2
315,271,324,334,2
320,288,321,339,2
323,302,318,339,2
323,313,313,336,2
322,322,308,334,2
320,330,304,331,2
317,334,301,330,2
314,335,299,328,2
309,333,298,326,2
304,331,298,323,2
300,329,298,317,2
298,327,299,311,2
299,327,300,304,2
301,325,302,298,2
302,324,304,292,2
302,325,307,289,2
302,330,310,289,2
302,340,313,292,2
303,350,315,296,2
305,359,317,301,2
305,362,317,307,2
305,358,315,311,2
306,347,313,314,2
306,330,311,314,2
306,311,310,311,2
308,295,310,307,2
310,283,309,303,2
312,274,309,298,2
312,268,307,294,2
310,269,307,293,2
305,278,307,295,2
303,284,308,297,2
305,283,309,300,2
312,282,309,303,2
316,284,311,306,2
313,287,312,308,2
306,285,313,309,2
302,279,314,311,2
301,274,314,314,2
303,271,314,316,2
306,270,315,316,2
307,267,315,315,2
308,265,314,312,2
308,267,313,307,2
308,273,312,303,2
308,281,312,300,2
308,291,311,299,2
308,302,311,300,2
308,314,310,301,2
308,324,310,303,2
308,330,312,304,2
309,331,314,305,2
310,328,314,306,2
309,323,313,306,2
309,319,310,307,2
311,317,306,308,2
314,316,303,305,2
315,317,301,301,2
314,316,302,297,2
312,313,306,295,2
309,304,314,296,2
306,289,326,298,2
304,275,337,300,2
306,268,344,302,2
309,273,346,306,2
311,288,343,311,2
309,304,339,315,2
305,316,332,317,2
303,325,323,318,2
302,329,316,317,2
301,329,308,316,2
300,322,303,314,2
300,311,299,311,2
301,297,297,307,2
303,287,298,305,2
306,283,302,306,2
308,286,305,307,2
309,293,308,309,2
309,299,309,311,2
308,306,309,313,2
309,309,307,315,2
310,308,304,314,2
309,300,299,309,2
306,288,295,302,2
305,276,292,296,2
307,269,292,291,2
308,264,293,288,2
307,267,293,287,2
305,280,294,287,2
303,301,294,289,2
302,322,293,291,2
301,339,292,293,2
302,353,292,296,2
303,361,291,298,2
305,359,292,299,2
306,349,299,300,2
307,334,313,300,2
310,320,332,301,2
314,308,353,304,2
317,298,371,309,2
315,290,377,314,2
310,288,367,319,2
304,294,344,322,2
297,301,318,325,2
291,304,296,327,2
287,302,281,328,2
287,298,272,327,2
289,295,269,323,2
291,292,269,315,2
293,290,270,307,2
294,289,272,299,2
294,287,275,295,2
295,285,278,295,2
297,283,282,297,2
299,284,286,302,2
301,285,289,307,2
302,281,292,310,2
303,275,294,311,2
305,271,297,312,2
307,270,299,312,2
307,273,302,311,2
307,278,303,309,2
306,292,304,309,2
305,311,305,310,2
305,326,305,311,2
304,332,306,311,2
303,331,307,311,2
305,325,307,309,2
307,318,306,306,2
307,311,305,302,2
306,306,304,298,2
304,303,304,296,2
303,303,304,294,2
304,305,302,293,2
305,308,301,292,2
307,315,299,294,2
308,325,300,296,2
310,336,303,298,2
311,345,306,301,2
311,347,310,303,2
311,344,312,305,2
310,337,314,305,2
310,325,314,304,2
309,309,313,303,2
308,292,315,304,2
306,278,319,304,2
303,266,325,303,2
302,258,330,304,2
304,257,332,306,2
310,259,331,310,2
316,263,329,312,2
320,269,325,313,2
324,277,319,314,2
325,286,311,314,2
324,294,304,313,2
319,300,299,312,2
311,304,295,310,2
304,307,291,307,2
298,309,288,306,2
294,311,285,304,2
292,315,283,302,2
292,322,282,298,2
292,328,281,293,2
292,332,281,286,2
293,332,280,280,2
295,331,281,277,2
297,335,281,278,2
298,344,282,280,2
299,361,283,283,2
299,381,285,286,2
299,395,288,287,2
298,392,297,288,2
296,369,309,289,2
296,335,320,294,2
300,302,327,302,2
308,278,335,312,2
310,268,343,320,2
310,264,347,323,2
310,265,342,323,2
308,271,332,323,2
306,278,323,323,2
305,282,315,321,2
304,283,310,319,2
304,283,306,316,2
306,280,305,313,2
306,276,305,311,2
306,273,306,311,2
304,272,305,310,2
303,273,303,307,2
303,279,298,303,2
302,285,292,298,2
302,289,287,293,2
301,290,281,288,2
300,289,275,283,2
300,284,272,280,2
302,277,272,280,2
305,272,275,283,2
306,276,281,288,2
305,286,288,295,2
304,298,296,300,2
304,307,301,304,2
305,314,304,306,2
306,318,305,306,2
306,324,305,305,2
305,334,305,305,2
305,347,306,305,2
304,360,308,304,2
305,369,312,304,2
306,378,319,307,2
310,388,325,310,2
312,396,330,312,2
315,394,332,312,2
318,373,331,312,2
320,334,327,312,2
322,293,321,312,2
323,266,314,311,2
323,254,307,309,2
321,253,301,307,2
318,258,296,307,2
313,269,294,307,2
310,280,294,308,2
306,290,294,308,2
304,293,295,308,2
302,290,296,307,2
302,278,297,307,2
303,263,300,305,2
304,252,304,302,2
306,255,309,301,2
306,269,315,301,2
307,286,316,303,2
308,299,315,304,2
309,303,315,304,2
310,295,319,302,2
312,284,324,301,2
314,277,328,301,2
312,277,329,302,2
309,284,329,306,2
308,294,325,311,2
309,308,320,313,2
308,319,316,313,2
307,325,315,312,2
308,326,314,313,2
310,326,313,315,2
310,325,313,318,2
309,324,313,321,2
307,319,309,321,2
305,313,300,320,2
302,311,294,319,2
302,312,291,320,2
303,319,291,321,2
305,329,293,321,2
308,341,295,320,2
309,352,297,317,2
309,361,297,312,2
307,364,297,307,2
305,358,295,304,2
304,340,293,304,2
305,319,293,307,2
307,299,294,313,2
310,276,297,320,2
312,255,299,329,2
315,241,302,338,2
316,235,303,344,2
316,234,304,346,2
316,235,304,342,2
317,235,305,332,2
317,231,306,317,2
317,224,307,299,2
314,218,308,281,2
313,218,310,268,2
311,226,313,261,2
311,243,320,260,2
313,263,325,264,2
312,287,325,271,2
307,310,320,281,2
303,327,316,290,2
304,337,315,299,2
307,339,316,304,2
308,336,317,308,2
307,332,320,311,2
305,329,323,314,2
304,329,325,316,2
305,329,325,316,2
305,329,320,314,2
305,328,311,312,2
305,324,301,310,2
304,318,293,309,2
304,309,290,309,2
303,302,290,308,2
304,300,292,308,2
306,306,294,309,2
310,322,294,308,2
312,344,294,307,2
311,364,294,303,2
308,376,294,299,2
304,375,293,295,2
303,360,296,293,2
304,333,304,296,2
308,303,316,301,2
311,279,327,306,2
309,265,335,311,2
304,263,338,315,2
301,267,337,317,2
299,273,328,317,2
300,277,313,316,2
305,281,301,314,2
308,291,296,312,2
311,304,296,309,2
310,318,298,306,2
306,331,300,304,2
301,339,299,301,2
298,342,297,297,2
296,338,294,293,2
294,329,293,289,2
295,316,292,287,2
297,303,293,286,2
300,292,297,285,2
304,287,302,282,2
307,284,308,280,2
311,279,313,278,2
313,269,317,278,2
314,255,319,281,2
313,244,321,287,2
311,242,323,297,2
309,248,327,308,2
305,260,331,319,2
301,280,334,327,2
298,302,333,332,2
296,320,330,335,2
294,330,321,335,2
295,330,312,335,2
297,326,305,334,2
298,320,300,332,2
299,315,297,331,2
299,313,293,329,2
299,314,289,327,2
300,318,285,325,2
301,317,284,322,2
302,311,283,318,2
303,305,285,315,2
306,308,287,311,2
308,315,292,307,2
310,322,298,302,2
310,323,306,298,2
310,318,314,297,2
310,307,322,298,2
309,297,328,303,2
308,293,333,308,2
306,295,333,312,2
304,298,328,315,2
301,304,319,316,2
299,312,310,316,2
299,319,303,318,2
300,321,300,319,2
301,317,298,319,2
303,311,297,318,2
305,304,295,318,2
307,301,293,320,2
309,301,294,323,2
311,307,294,327,2
313,317,293,329,2
313,328,292,327,2
312,337,289,319,2
308,341,286,307,2
304,338,285,293,2
301,330,286,281,2
300,317,291,272,2
299,303,297,269,2
300,289,302,269,2
299,279,306,273,2
298,279,310,281,2
297,291,313,289,2
296,306,315,296,2
296,314,314,302,2
297,315,311,306,2
298,311,309,310,2
299,306,309,314,2
301,298,311,317,2
304,292,313,321,2
307,286,317,324,2
308,283,319,327,2
309,283,320,330,2
311,281,321,331,2
313,280,321,331,2
314,285,317,329,2
312,297,312,326,2
310,310,307,320,2
310,319,301,315,2
315,323,296,308,2
324,324,290,300,2
330,322,287,293,2
325,314,286,287,2
312,300,288,283,2
300,288,291,282,2
293,285,296,284,2
289,289,300,288,2
288,300,303,292,2
289,313,304,296,2
289,326,303,298,2
291,337,304,301,2
293,342,305,302,2
294,339,307,301,2
294,330,309,301,2
293,321,308,303,2
295,317,305,306,2
298,322,303,309,2
302,332,301,312,2
305,344,300,312,2
307,353,301,311,2
307,355,301,309,2
308,346,302,306,2
308,329,302,302,2
309,306,303,298,2
312,282,304,295,2
314,261,304,293,2
316,244,304,293,2
317,232,302,293,2
315,224,300,294,2
312,225,299,296,2
309,235,300,300,2
306,254,304,304,2
306,276,308,307,2
306,298,311,309,2
306,313,313,309,2
307,319,315,308,2
308,316,315,306,2
308,310,315,304,2
306,307,313,304,2
304,308,312,305,2
302,313,313,308,2
303,322,315,311,2
304,330,313,314,2
306,334,310,315,2
307,335,308,315,2
308,335,306,316,2
309,335,303,316,2
308,334,301,315,2
308,332,299,314,2
308,329,298,313,2
309,329,298,313,2
311,336,299,316,2
314,345,301,318,2
314,351,303,319,2
313,351,306,320,2
310,347,309,320,2
307,341,310,320,2
306,332,310,318,2
306,317,309,315,2
307,297,308,309,2
309,280,307,302,2
311,266,308,295,2
312,253,310,288,2
312,245,314,285,2
311,245,317,285,2
312,257,321,289,2
314,279,327,292,2
317,304,332,295,2
315,326,332,296,2
312,343,325,297,2
308,351,316,299,2
303,350,310,301,2
299,339,307,302,2
299,326,307,304,2
303,316,310,305,2
307,310,315,305,2
310,306,320,304,2
311,300,324,301,2
311,293,325,297,2
312,287,322,294,2
313,283,315,292,2
313,280,306,290,2
312,282,296,289,2
308,291,290,290,2
307,303,289,295,2
308,310,291,300,2
310,313,294,305,2
307,317,298,307,2
302,321,301,307,2
300,325,303,307,2
301,330,305,307,2
304,332,305,307,2
303,328,305,306,2
301,320,305,303,2
300,313,305,299,2
301,311,304,293,2
302,309,302,287,2
304,306,299,284,2
307,307,299,284,2
308,313,304,288,2
307,322,312,295,2
305,330,323,303,2
305,333,333,311,2
306,332,341,314,2
306,329,346,316,2
307,326,346,315,2
306,325,339,313,2
305,326,330,312,2
306,326,315,310,2
307,321,299,307,2
309,311,289,303,2
311,302,288,300,2
312,295,295,299,2
313,291,305,300,2
313,290,314,302,2
314,291,320,302,2
313,296,319,302,2
310,301,313,300,2
308,304,306,298,2
307,306,300,296,2
305,307,296,293,2
302,307,294,290,2
300,308,293,288,2
297,307,294,287,2
293,303,297,287,2
288,296,304,290,2
287,287,313,294,2
292,276,324,302,2
303,272,332,311,2
315,280,336,319,2
319,296,336,325,2
319,315,329,328,2
314,332,317,327,2
303,347,304,325,2
293,358,294,321,2
289,364,288,317,2
288,365,286,314,2
290,360,288,311,2
292,351,290,309,2
295,334,292,308,2
297,310,291,308,2
298,292,290,310,2
300,286,290,313,2
302,289,290,315,2
303,299,291,318,2
302,312,291,319,2
302,323,292,319,2
301,329,294,317,2
301,335,296,314,2
301,336,297,311,2
300,331,299,306,2
299,318,300,302,2
299,299,303,298,2
300,281,306,294,2
301,272,308,294,2
301,278,310,296,2
300,296,310,299,2
298,314,309,304,2
297,329,308,308,2
296,340,306,313,2
296,347,304,318,2
297,352,301,320,2
297,352,298,321,2
298,348,294,322,2
300,341,292,324,2
303,334,291,327,2
304,327,291,330,2
305,319,293,331,2
306,307,296,329,2
306,295,300,327,2
306,286,305,323,2
306,280,310,318,2
304,279,314,312,2
302,282,319,307,2
300,288,325,303,2
299,292,328,300,2
299,292,328,296,2
299,290,328,293,2
301,287,330,290,2
303,286,333,286,2
303,290,337,283,2
304,303,343,284,2
306,325,343,287,2
308,347,336,287,2
305,358,325,286,2
300,351,315,286,2
300,329,311,289,2
306,301,311,295,2
314,282,309,301,2
317,274,304,306,2
314,275,296,309,2
306,281,287,312,2
299,293,278,315,2
298,308,271,318,2
303,323,270,318,2
309,336,274,314,2
309,342,280,308,2
305,344,286,301,2
300,339,290,296,2
295,328,292,292,2
291,315,294,289,2
289,300,295,285,2
289,283,297,281,2
290,265,298,276,2
292,250,299,271,2
296,239,301,271,2
300,231,303,273,2
304,224,304,277,2
306,224,305,282,2
307,233,305,288,2
307,248,304,296,2
306,268,304,304,2
305,291,308,312,2
304,315,318,319,2
303,336,328,325,2
305,350,338,330,2
311,357,345,333,2
317,356,346,334,2
315,350,340,333,2
308,344,328,328,2
301,340,317,320,2
298,336,312,313,2
298,327,312,306,2
299,314,314,302,2
302,304,315,300,2
304,299,313,300,2
307,296,310,302,2
308,298,308,306,2
310,301,308,311,2
312,303,312,317,2
314,309,318,323,2
316,320,323,329,2
316,338,325,334,2
313,355,322,335,2
309,367,316,333,2
304,373,310,329,2
301,369,305,323,2
298,354,302,317,2
296,330,300,312,2
296,305,299,307,2
299,278,298,304,2
303,256,299,304,2
307,244,300,305,2
310,241,300,308,2
312,240,300,312,2
314,245,300,315,2
314,253,305,315,2
315,265,314,314,2
316,275,325,312,2
319,283,336,312,2
323,294,340,314,2
327,311,336,318,2
326,333,327,323,2
321,356,316,326,2
314,370,307,325,2
309,371,303,322,2
307,360,304,318,2
309,345,307,314,2
311,329,308,311,2
314,316,306,310,2
316,308,301,309,2
316,305,295,309,2
314,307,290,307,2
310,313,287,305,2
307,319,287,303,2
305,327,288,302,2
305,334,288,303,2
306,334,289,305,2
306,331,291,309,2
306,333,293,314,2
306,340,296,318,2
305,341,300,321,2
305,332,304,320,2
306,315,307,318,2
309,303,310,314,2
311,294,312,311,2
311,287,312,306,2
310,277,312,302,2
309,266,314,298,2
309,255,316,295,2
309,252,321,294,2
311,257,325,294,2
313,269,327,295,2
316,283,325,298,2
321,295,322,302,2
325,297,317,304,2
325,286,312,303,2
322,268,306,301,2
319,256,302,299,2
316,257,299,298,2
313,269,296,298,2
311,279,295,300,2
310,285,295,303,2
307,292,297,310,2
303,299,299,315,2
300,305,302,319,2
298,307,304,320,2
297,306,305,320,2
298,304,306,321,2
300,304,307,324,2
302,312,307,330,2
303,324,305,336,2
304,335,303,337,2
304,343,301,333,2
304,350,300,328,2
304,356,298,322,2
305,361,298,316,2
307,365,297,308,2
309,367,298,301,2
312,366,299,293,2
314,362,303,288,2
314,358,308,287,2
315,358,314,290,2
316,358,321,294,2
317,354,326,298,2
322,344,332,302,2
328,328,333,307,2
330,308,328,312,2
324,288,319,315,2
314,271,309,318,2
305,259,303,320,2
299,250,301,321,2
295,245,301,319,2
292,244,302,316,2
292,246,304,314,2
293,252,307,312,2
295,260,311,311,2
298,267,313,311,2
301,274,311,312,2
303,280,308,314,2
304,281,307,316,2
305,282,309,318,2
306,285,315,319,2
305,290,321,318,2
305,296,325,318,2
306,305,323,318,2
307,315,318,318,2
307,324,314,317,2
306,333,312,316,2
306,338,312,314,2
307,339,312,312,2
308,336,309,311,2
309,331,306,310,2
308,325,303,311,2
307,321,300,311,2
305,320,297,312,2
303,325,295,313,2
302,334,294,314,2
302,341,295,314,2
304,346,295,313,2
305,346,294,313,2
306,336,293,315,2
307,317,293,318,2
308,299,296,321,2
310,289,301,323,2
312,287,305,323,2
313,286,307,321,2
313,284,308,318,2
311,282,307,314,2
309,282,305,311,2
307,288,306,310,2
306,296,307,309,2
305,302,306,307,2
304,306,302,302,2
303,304,299,298,2
302,298,297,297,2
302,294,298,298,2
302,296,300,302,2
301,303,304,306,2
301,313,307,313,2
301,324,310,321,2
301,338,313,328,2
301,352,314,333,2
302,366,315,335,2
303,376,317,334,2
302,378,317,330,2
299,371,315,323,2
296,353,313,313,2
296,331,309,303,2
299,309,308,293,2
302,287,309,287,2
304,264,311,283,2
306,246,315,284,2
307,238,317,289,2
310,239,315,295,2
311,246,308,301,2
309,255,300,307,2
305,268,295,312,2
301,281,293,315,2
299,292,293,319,2
298,301,296,324,2
297,309,298,329,2
297,317,300,333,2
298,327,302,335,2
300,338,302,334,2
302,342,302,330,2
304,337,301,323,2
305,328,301,315,2
307,318,301,307,2
308,311,303,301,2
308,306,306,296,2
308,306,307,293,2
308,315,306,292,2
310,326,304,292,2
312,332,303,293,2
313,330,305,295,2
315,322,307,297,2
318,311,307,299,2
323,302,305,301,2
329,294,303,303,2
332,292,300,305,2
327,295,296,306,2
317,298,294,308,2
308,300,294,309,2
300,305,296,311,2
295,312,299,315,2
290,320,303,319,2
288,325,307,323,2
288,329,310,325,2
290,331,310,325,2
292,330,309,325,2
295,328,306,324,2
296,324,303,323,2
297,318,301,319,2
298,312,300,314,2
298,307,301,309,2
298,304,303,306,2
300,302,306,305,2
301,304,308,304,2
303,311,310,303,2
302,321,310,303,2
301,335,307,306,2
299,353,302,312,2
297,368,297,318,2
295,377,292,321,2
294,375,288,321,2
295,364,287,320,2
299,345,289,317,2
305,326,294,314,2
312,308,299,310,2
319,293,304,305,2
322,285,307,301,2
323,286,310,297,2
322,295,312,295,2
319,308,311,294,2
315,319,307,293,2
313,327,304,296,2
310,327,301,299,2
308,320,300,303,2
307,309,302,307,2
306,295,306,310,2
307,284,311,312,2
308,278,317,312,2
312,275,321,311,2
317,275,319,309,2
319,278,314,308,2
317,286,311,308,2
314,296,309,308,2
310,306,308,309,2
307,311,308,309,2
304,310,307,309,2
302,305,306,309,2
300,299,306,309,2
299,295,308,308,2
300,295,311,308,2
301,302,312,308,2
303,312,310,308,2
305,321,306,308,2
307,326,301,310,2
308,325,298,311,2
307,317,298,312,2
305,307,298,314,2
303,299,299,317,2
301,295,299,320,2
301,292,300,323,2
302,290,301,323,2
302,292,302,322,2
303,294,303,317,2
303,296,303,312,2
304,295,304,305,2
304,294,307,299,2
305,297,311,294,2
305,302,314,291,2
304,309,313,290,2
301,319,309,295,2
299,329,305,301,2
300,341,303,308,2
305,351,303,314,2
309,351,304,318,2
310,342,304,321,2
310,338,305,324,2
309,344,306,325,2
308,350,305,324,2
305,346,304,321,2
303,335,303,318,2
302,322,303,316,2
302,311,306,314,2
302,304,310,312,2
304,302,315,309,2
305,305,320,306,2
307,307,321,301,2
308,306,321,294,2
307,304,318,290,2
307,303,312,288,2
306,301,305,288,2
306,295,299,286,2
307,288,295,285,2
308,282,294,285,2
310,277,294,287,2
311,278,296,292,2
311,285,298,297,2
310,296,300,302,2
308,307,302,306,2
306,317,304,306,2
304,323,305,305,2
303,327,307,303,2
302,329,308,303,2
302,328,311,303,2
304,326,315,302,2
306,325,319,302,2
308,327,319,301,2
310,329,314,301,2
310,330,304,300,2
310,332,291,297,2
308,334,283,293,2
307,331,280,291,2
308,320,282,291,2
312,305,288,295,2
317,291,296,300,2
324,285,302,306,2
328,286,306,312,2
326,290,309,317,2
316,297,311,319,2
304,302,313,318,2
293,304,316,314,2
287,304,317,310,2
286,306,319,307,2
287,309,320,306,2
289,314,320,308,2
291,321,316,309,2
293,328,311,310,2
294,333,306,310,2
295,333,304,310,2
297,329,305,311,2
299,322,307,311,2
301,315,309,311,2
304,311,310,311,2
306,310,310,309,2
307,312,309,305,2
307,312,305,300,2
305,310,300,295,2
303,306,296,292,2
301,306,295,291,2
301,309,299,293,2
302,316,307,298,2
304,325,314,303,2
306,330,315,308,2
305,331,311,310,2
302,321,306,311,2
296,308,303,312,2
291,297,302,314,2
288,292,301,316,2
289,297,300,317,2
291,308,297,317,2
294,318,295,315,2
298,326,294,312,2
300,330,294,309,2
301,328,294,307,2
302,321,295,307,2
304,313,296,308,2
306,310,299,310,2
308,313,302,312,2
309,315,306,312,2
309,315,311,311,2
309,317,316,311,2
310,318,321,312,2
310,317,322,312,2
309,315,319,312,2
308,313,312,313,2
307,315,303,314,2
308,315,293,314,2
307,312,287,314,2
304,306,286,314,2
300,298,288,313,2
298,292,292,312,2
297,288,297,311,2
297,286,300,310,2
298,285,300,309,2
302,282,298,308,2
309,278,295,307,2
314,274,292,307,2
314,273,290,308,2
311,274,288,309,2
308,280,288,311,2
304,289,289,313,2
301,299,293,315,2
300,308,296,317,2
300,315,298,316,2
300,318,298,313,2
301,318,298,310,2
303,317,300,308,2
306,317,303,307,2
309,317,306,305,2
