301,310,183,324,0
304,304,182,318,0
307,298,181,311,0
308,295,178,303,0
306,301,175,297,0
305,312,173,293,0
303,321,172,292,0
302,322,171,292,0
300,327,169,294,0
299,349,168,297,0
299,368,167,299,0
298,363,165,301,0
297,347,164,303,0
298,334,165,305,0
301,329,165,306,0
304,333,164,305,0
305,337,161,302,0
304,332,159,296,0
302,317,157,291,0
302,301,155,290,0
305,291,154,293,0
308,293,153,299,0
311,305,154,304,0
312,323,154,307,0
313,341,152,310,0
310,354,151,312,0
300,357,152,315,0
291,350,153,316,0
288,333,155,317,0
292,312,155,317,0
298,287,155,318,0
302,261,155,319,0
304,246,155,320,0
306,251,155,321,0
310,268,155,320,0
315,285,155,318,0
318,297,155,318,0
319,304,155,318,0
320,314,156,320,0
319,326,157,322,0
317,339,158,321,0
314,350,158,319,0
308,354,157,314,0
302,351,155,308,0
297,339,154,304,0
297,324,154,302,0
300,315,154,303,0
305,312,154,305,0
312,309,154,307,0
315,310,152,307,0
313,317,150,306,0
308,329,148,305,0
302,338,145,303,0
297,342,143,300,0
296,342,142,299,0
298,342,143,303,0
305,341,143,309,0
311,336,143,315,0
314,326,143,319,0
314,311,143,322,0
312,300,145,324,0
310,298,145,326,0
306,304,144,326,0
301,309,143,324,0
296,309,142,321,0
294,306,143,319,0
298,310,146,319,0
306,318,149,318,0
311,329,150,316,0
314,340,152,314,0
315,347,154,313,0
313,346,155,313,0
310,338,154,313,0
305,329,152,313,0
301,320,150,311,0
301,309,147,310,0
304,291,145,308,0
307,266,144,307,0
307,238,145,306,0
305,216,147,303,0
297,215,148,302,0
289,238,150,303,0
286,269,154,304,0
290,298,158,307,0
298,326,162,310,0
307,353,163,311,0
313,369,163,309,0
316,375,161,306,0
317,374,158,304,0
316,367,156,302,0
315,360,152,301,0
315,352,149,298,0
315,344,146,294,0
317,334,144,290,0
321,325,144,287,0
325,317,143,286,0
324,310,143,285,0
318,307,144,286,0
312,310,145,288,0
307,316,147,288,0
303,322,149,289,0
299,326,152,289,0
298,327,156,293,0
298,329,160,299,0
300,337,161,307,0
302,347,163,316,0
301,356,164,323,0
296,356,164,328,0
289,348,164,331,0
283,335,163,330,0
277,323,162,328,0
276,316,160,324,0
281,308,160,317,0
290,298,160,309,0
301,293,159,301,0
312,293,160,295,0
322,292,163,295,0
326,289,168,301,0
322,288,172,312,0
311,293,175,324,0
300,302,179,335,0
296,315,182,343,0
296,327,184,345,0
299,335,185,344,0
303,338,184,338,0
304,337,182,332,0
303,340,181,325,0
303,350,179,318,0
304,361,178,309,0
303,365,177,300,0
303,362,176,293,0
301,354,176,286,0
300,343,176,281,0
300,332,175,278,0
300,325,175,278,0
302,325,177,280,0
304,328,179,285,0
309,327,182,291,0
315,322,184,298,0
319,318,185,304,0
322,317,186,310,0
325,316,186,316,0
328,315,190,320,0
330,309,195,322,0
330,302,197,320,0
324,301,197,317,0
310,306,196,312,0
296,320,196,309,0
287,339,196,307,0
285,351,196,306,0
286,352,196,306,0
288,348,197,306,0
290,344,198,305,0
293,340,199,304,0
296,336,201,303,0
300,332,202,305,0
307,330,204,308,0
315,332,206,313,0
321,337,208,315,0
323,343,209,315,0
317,347,210,312,0
307,347,210,307,0
299,344,209,303,0
294,338,208,300,0
291,326,206,297,0
286,307,205,295,0
282,279,203,293,0
278,253,202,292,0
278,238,203,294,0
282,241,205,297,0
289,258,208,299,0
296,281,210,301,0
300,306,213,303,0
300,326,215,304,0
298,335,217,305,0
298,334,219,306,0
301,334,220,308,0
303,340,221,309,0
302,344,221,307,0
298,341,221,305,0
296,332,223,304,0
295,318,225,303,0
294,313,227,301,0
296,320,230,302,0
300,332,232,304,0
305,346,234,308,0
308,360,236,314,0
309,372,238,320,0
308,376,239,324,0
308,373,240,328,0
306,365,240,328,0
304,357,239,327,0
304,350,239,325,0
306,345,239,324,0
308,343,239,323,0
309,342,238,322,0
308,343,237,321,0
308,345,239,319,0
310,346,242,317,0
311,347,244,318,0
310,347,246,322,0
307,346,246,324,0
304,339,245,324,0
302,325,244,320,0
300,310,244,314,0
297,297,244,306,0
294,287,243,298,0
292,283,244,291,0
291,286,246,286,0
292,292,247,284,0
295,297,249,286,0
301,296,249,290,0
305,292,249,295,0
305,285,249,300,0
302,278,250,306,0
299,273,252,311,0
299,272,255,316,0
302,278,258,320,0
308,289,261,322,0
313,301,264,322,0
312,314,267,322,0
308,332,269,322,0
305,349,270,321,0
306,360,270,319,0
308,361,268,317,0
311,355,265,315,0
310,344,262,313,0
306,337,260,312,0
300,333,259,310,0
293,330,256,308,0
287,325,254,307,0
284,318,253,307,0
284,315,253,308,0
288,315,256,310,0
296,316,260,312,0
303,316,263,312,0
308,315,265,309,0
309,316,266,305,0
310,319,265,301,0
311,325,264,299,0
310,338,263,298,0
302,352,263,298,0
290,359,264,296,0
279,358,265,295,0
273,354,267,294,0
275,346,270,296,0
280,335,272,299,0
288,328,274,302,0
294,329,275,304,0
299,334,275,305,0
302,339,274,306,0
303,344,273,308,0
305,348,272,310,0
305,348,271,311,0
303,340,270,311,0
300,323,271,310,0
296,302,273,310,0
292,284,277,312,0
292,277,282,316,0
294,281,286,319,0
299,298,289,320,0
306,322,290,321,0
314,344,290,319,0
317,363,288,316,0
316,372,286,313,0
307,368,285,310,0
297,354,285,308,0
288,336,284,307,0
281,319,285,308,0
277,302,287,311,0
278,289,288,314,0
282,279,290,317,0
287,269,292,320,0
290,258,294,320,0
292,250,294,319,0
293,246,294,316,0
293,254,294,314,0
295,270,292,314,0
300,287,290,316,0
307,304,288,321,0
311,319,287,325,0
307,332,287,327,0
302,341,287,327,0
299,347,287,326,0
298,349,288,326,0
298,349,289,326,0
299,349,290,325,0
300,346,291,322,0
300,338,293,319,0
300,330,293,314,0
297,331,292,308,0
294,341,291,302,0
294,355,290,295,0
294,366,290,290,0
294,371,290,288,0
294,365,292,290,0
292,353,294,293,0
291,341,297,299,0
292,333,299,304,0
299,326,300,310,0
307,322,302,315,0
313,328,303,318,0
316,339,304,320,0
316,348,304,320,0
315,352,304,319,0
313,350,303,318,0
311,347,302,316,0
307,342,302,313,0
301,337,301,309,0
294,329,301,305,0
287,320,300,303,0
283,316,298,304,0
283,316,298,307,0
288,314,299,310,0
296,305,300,311,0
305,297,301,313,0
309,296,304,316,0
309,301,308,318,0
307,307,310,318,0
305,315,310,315,0
302,324,308,311,0
299,333,307,307,0
297,339,307,302,0
297,339,308,299,0
297,339,308,295,0
296,344,308,293,0
293,353,307,293,0
289,361,305,293,0
286,365,304,294,0
283,363,303,295,0
284,354,303,297,0
289,339,305,302,0
295,314,306,307,0
299,285,308,310,0
300,261,309,310,0
300,247,309,308,0
301,244,309,305,0
301,247,308,301,0
301,247,308,298,0
304,252,308,299,0
310,265,308,303,0
315,284,308,309,0
313,304,306,315,0
307,324,306,322,0
303,339,306,327,0
299,347,307,331,0
296,347,309,334,0
293,345,312,337,0
293,344,314,338,0
294,341,313,336,0
296,338,312,332,0
298,336,309,325,0
300,333,306,318,0
301,324,303,311,0
301,313,300,305,0
301,300,298,300,0
302,290,297,300,0
304,289,298,306,0
307,295,301,314,0
310,303,305,321,0
309,313,308,323,0
306,327,308,321,0
302,338,308,316,0
298,344,308,311,0
297,346,310,305,0
298,343,312,301,0
298,335,313,296,0
297,323,314,294,0
293,312,315,294,0
290,306,315,295,0
285,303,314,296,0
280,302,312,297,0
278,308,311,299,0
286,324,311,303,0
299,343,312,308,0
310,356,312,312,0
319,361,312,315,0
322,361,312,319,0
321,356,314,324,0
320,348,316,330,0
318,339,318,335,0
317,330,320,336,0
314,325,321,334,0
309,322,320,328,0
302,323,319,322,0
297,325,317,315,0
293,325,315,308,0
292,321,313,303,0
293,315,311,297,0
293,314,309,291,0
294,319,307,286,0
294,324,306,282,0
295,328,304,281,0
298,330,303,281,0
300,330,304,283,0
303,328,304,287,0
305,323,304,290,0
307,314,304,294,0
307,307,304,297,0
307,306,306,302,0
308,307,309,306,0
309,309,313,309,0
309,314,316,310,0
305,322,317,311,0
302,330,318,312,0
299,331,317,311,0
297,323,317,310,0
296,311,316,308,0
296,301,315,308,0
298,298,315,308,0
302,301,313,308,0
305,311,313,309,0
305,318,313,309,0
306,320,313,310,0
308,318,312,311,0
310,316,313,313,0
311,318,312,316,0
313,324,313,319,0
314,332,313,322,0
314,339,314,325,0
315,344,315,327,0
316,347,317,328,0
316,348,317,328,0
312,347,318,326,0
304,346,318,323,0
297,348,318,318,0
292,351,317,312,0
290,352,316,307,0
291,342,315,304,0
292,318,316,305,0
295,286,318,309,0
298,261,320,316,0
299,255,320,324,0
296,270,320,332,0
292,291,320,339,0
287,306,319,343,0
284,318,319,344,0
286,327,319,342,0
292,335,321,339,0
299,339,323,332,0
302,340,325,323,0
304,340,323,313,0
305,341,321,303,0
305,341,319,296,0
309,338,318,291,0
315,334,317,289,0
319,330,315,289,0
320,325,313,289,0
318,317,310,287,0
314,309,310,287,0
312,303,310,288,0
311,295,312,289,0
311,286,313,292,0
310,276,314,294,0
310,269,315,297,0
310,267,316,301,0
312,279,316,305,0
317,305,316,309,0
326,330,318,313,0
335,342,320,317,0
342,344,321,317,0
340,340,321,315,0
328,337,320,311,0
313,336,320,308,0
302,336,320,308,0
296,335,321,308,0
295,335,322,308,0
297,335,323,308,0
299,334,323,307,0
302,333,323,307,0
305,328,322,307,0
305,315,320,305,0
303,306,317,303,0
300,309,315,301,0
301,321,313,300,0
305,332,313,298,0
309,338,313,296,0
313,338,314,295,0
313,330,316,295,0
307,313,318,297,0
301,295,321,300,0
301,281,326,303,0
303,270,328,308,0
302,266,327,312,0
298,267,325,315,0
295,270,322,315,0
293,273,319,315,0
295,276,316,314,0
298,280,313,313,0
300,288,312,315,0
299,301,313,319,0
294,313,314,322,0
288,320,315,325,0
284,323,315,326,0
283,319,314,325,0
285,310,314,322,0
290,302,315,320,0
295,299,317,317,0
299,304,319,314,0
302,314,321,312,0
305,326,321,309,0
307,338,321,306,0
309,351,321,302,0
311,357,321,299,0
312,353,322,298,0
314,341,323,296,0
312,327,322,293,0
307,318,321,289,0
303,312,320,287,0
302,307,319,287,0
304,301,319,287,0
306,292,318,287,0
308,285,316,288,0
309,286,314,290,0
311,292,314,298,0
314,301,315,310,0
317,308,317,323,0
318,314,320,332,0
317,326,323,338,0
315,337,325,339,0
313,341,325,338,0
312,339,323,335,0
313,332,321,330,0
315,323,319,325,0
316,315,318,319,0
318,312,319,310,0
316,317,319,302,0
309,325,321,298,0
300,331,323,296,0
298,330,325,295,0
301,320,324,295,0
305,307,323,293,0
309,295,321,293,0
312,283,320,292,0
311,273,320,292,0
310,273,322,295,0
313,282,324,298,0
317,290,325,301,0
319,297,325,305,0
318,305,326,308,0
315,312,325,312,0
312,317,324,313,0
309,321,321,311,0
306,326,319,307,0
304,330,319,301,0
303,334,319,297,0
304,336,320,294,0
304,335,320,293,0
303,331,320,293,0
301,323,320,295,0
297,314,320,296,0
291,305,319,296,0
284,297,317,293,0
279,292,317,291,0
280,296,317,292,0
288,310,319,296,0
300,323,321,302,0
311,327,322,309,0
319,325,324,317,0
323,326,326,325,0
323,332,327,333,0
321,337,328,339,0
316,335,328,341,0
312,326,326,340,0
310,311,322,335,0
310,294,319,327,0
313,277,317,319,0
317,269,314,312,0
320,278,311,307,0
318,298,310,304,0
309,315,310,304,0
301,324,309,303,0
297,324,308,301,0
296,318,306,298,0
299,311,307,296,0
303,305,309,297,0
306,301,311,299,0
309,298,313,301,0
309,299,315,300,0
308,305,317,298,0
305,312,319,296,0
302,317,320,296,0
300,320,320,296,0
299,320,321,297,0
298,319,321,298,0
297,317,320,300,0
297,314,320,302,0
297,312,318,303,0
297,309,316,302,0
298,301,316,303,0
300,291,317,305,0
302,287,318,309,0
300,291,319,313,0
295,296,319,318,0
289,302,318,326,0
286,310,319,335,0
288,318,320,343,0
292,323,321,348,0
299,322,322,350,0
307,319,323,348,0
311,318,323,342,0
313,322,323,333,0
314,328,322,323,0
313,335,322,313,0
312,340,321,305,0
312,341,321,299,0
311,338,321,294,0
310,332,321,289,0
310,323,322,285,0
310,314,322,284,0
314,303,324,284,0
318,294,323,285,0
319,287,319,287,0
315,283,315,292,0
308,282,313,298,0
302,284,313,305,0
301,285,313,312,0
301,285,314,318,0
301,285,315,324,0
300,288,316,328,0
298,295,317,333,0
296,299,319,336,0
293,294,320,338,0
292,286,321,338,0
292,281,321,338,0
295,288,320,334,0
298,307,319,326,0
302,327,317,316,0
304,334,316,305,0
304,330,315,294,0
305,325,314,285,0
307,320,312,278,0
312,317,311,275,0
320,314,310,277,0
328,310,311,280,0
335,307,312,285,0
332,302,313,289,0
320,294,313,292,0
306,285,314,294,0
297,280,315,297,0
295,281,318,301,0
297,287,320,305,0
299,295,322,310,0
298,302,323,314,0
296,311,324,319,0
296,319,325,324,0
295,329,325,327,0
295,338,324,325,0
296,347,322,319,0
298,353,319,309,0
299,354,315,299,0
299,351,313,291,0
299,344,312,286,0
301,333,311,285,0
303,323,311,286,0
304,313,312,287,0
303,301,312,288,0
300,285,313,288,0
297,272,314,287,0
296,270,315,286,0
297,275,316,288,0
300,280,317,290,0
302,283,317,293,0
303,285,317,296,0
301,285,318,301,0
298,289,319,308,0
294,297,320,317,0
289,309,321,326,0
288,323,323,333,0
292,333,325,339,0
299,337,327,345,0
306,333,326,349,0
310,324,324,349,0
311,314,322,346,0
310,305,320,341,0
312,300,320,336,0
315,303,320,331,0
317,311,321,324,0
315,323,320,317,0
310,329,318,311,0
304,330,316,307,0
300,325,314,304,0
297,312,313,303,0
297,297,312,304,0
298,292,313,305,0
300,295,313,305,0
301,300,313,304,0
302,297,314,303,0
303,292,315,302,0
305,290,317,301,0
308,291,318,301,0
311,292,318,299,0
314,294,318,296,0
316,296,318,292,0
316,297,319,290,0
311,302,320,290,0
304,306,320,291,0
298,307,320,294,0
295,304,319,296,0
294,299,318,298,0
295,298,318,301,0
296,302,319,303,0
297,307,320,305,0
298,316,321,308,0
300,327,322,311,0
301,336,323,316,0
302,341,324,320,0
303,339,324,323,0
302,330,324,324,0
299,317,324,325,0
298,303,324,327,0
297,296,325,327,0
296,296,326,326,0
297,296,326,325,0
302,298,327,324,0
308,299,326,323,0
311,297,325,324,0
311,291,324,325,0
310,281,323,327,0
308,268,323,328,0
305,257,324,328,0
303,254,325,326,0
301,265,325,323,0
300,286,325,319,0
298,306,325,314,0
297,320,324,309,0
299,327,322,304,0
300,328,321,300,0
300,326,319,297,0
298,322,318,294,0
297,318,317,292,0
296,311,316,290,0
299,304,316,291,0
302,300,316,294,0
305,301,317,298,0
306,302,318,302,0
305,301,318,307,0
302,301,319,313,0
301,302,319,319,0
300,306,320,323,0
301,311,322,325,0
301,316,323,323,0
301,316,324,318,0
302,317,323,312,0
302,319,322,307,0
304,320,321,304,0
304,318,321,302,0
304,314,321,299,0
304,310,322,298,0
304,306,322,299,0
306,308,322,303,0
308,312,323,310,0
309,310,323,319,0
309,307,322,328,0
309,305,320,336,0
310,306,319,344,0
311,308,319,352,0
313,309,320,357,0
315,309,321,358,0
316,306,322,353,0
314,296,323,342,0
309,286,322,331,0
302,281,322,319,0
296,284,321,308,0
291,293,319,295,0
291,306,318,285,0
294,320,317,279,0
298,326,317,277,0
304,324,317,279,0
305,322,318,282,0
301,320,319,286,0
298,319,319,289,0
297,316,317,291,0
298,310,315,292,0
300,296,313,293,0
300,280,311,296,0
298,269,310,299,0
297,266,311,301,0
295,268,314,302,0
295,279,317,302,0
295,294,320,304,0
294,305,323,307,0
293,315,326,310,0
294,327,327,312,0
302,336,329,315,0
314,339,330,317,0
327,339,330,317,0
334,335,330,315,0
329,328,329,313,0
316,319,328,312,0
303,308,327,310,0
294,301,326,309,0
289,297,326,309,0
289,298,325,309,0
292,299,323,309,0
294,294,321,309,0
295,288,320,306,0
295,282,319,303,0
298,282,320,303,0
302,288,321,305,0
307,297,323,310,0
311,308,325,315,0
313,318,326,318,0
314,325,328,320,0
312,326,329,320,0
309,325,330,320,0
306,322,330,319,0
302,315,330,319,0
299,304,329,318,0
296,290,328,317,0
295,277,327,317,0
297,270,326,318,0
303,273,326,321,0
312,289,326,323,0
320,308,326,325,0
325,317,325,325,0
326,315,325,322,0
326,306,324,320,0
324,294,323,317,0
324,290,322,313,0
323,295,321,307,0
320,303,321,300,0
313,313,321,293,0
307,322,323,288,0
302,329,323,283,0
298,330,323,281,0
293,327,321,279,0
290,320,321,280,0
288,314,320,284,0
287,306,320,289,0
287,297,319,293,0
288,295,318,295,0
293,300,318,296,0
298,301,318,297,0
301,294,318,295,0
302,286,318,294,0
300,285,319,293,0
298,290,321,292,0
298,295,323,291,0
301,296,325,293,0
305,298,327,295,0
311,304,328,297,0
316,313,328,298,0
319,319,327,299,0
321,323,326,299,0
320,325,324,297,0
312,326,323,297,0
301,325,322,296,0
293,325,320,295,0
289,324,318,295,0
290,323,317,294,0
297,318,316,294,0
305,311,317,293,0
311,304,319,293,0
312,293,321,294,0
310,283,324,297,0
309,282,327,300,0
310,288,329,304,0
312,290,331,308,0
313,286,333,310,0
312,278,334,310,0
310,272,334,310,0
306,270,335,311,0
303,272,334,310,0
299,276,332,307,0
295,282,328,303,0
292,295,326,300,0
294,319,324,300,0
300,340,324,301,0
306,351,324,303,0
311,352,324,304,0
313,346,324,305,0
309,335,323,304,0
303,324,323,305,0
296,316,323,309,0
293,308,325,316,0
293,301,328,324,0
300,297,330,333,0
311,296,332,339,0
318,298,333,342,0
320,304,332,340,0
318,316,330,336,0
315,330,329,331,0
312,341,330,325,0
309,346,330,318,0
307,345,329,311,0
307,342,329,304,0
307,337,328,298,0
307,331,326,291,0
307,322,324,286,0
307,311,322,282,0
306,301,320,279,0
305,293,321,278,0
304,286,322,278,0
305,281,323,277,0
305,278,322,275,0
303,279,321,275,0
300,282,320,276,0
296,287,320,278,0
294,291,321,280,0
295,299,323,282,0
298,308,324,285,0
301,313,325,287,0
303,310,324,288,0
304,303,324,290,0
304,294,324,293,0
302,279,325,295,0
300,265,326,298,0
297,260,328,303,0
296,267,329,311,0
298,279,329,320,0
304,292,328,329,0
310,299,327,336,0
314,302,326,337,0
317,302,324,334,0
320,304,322,326,0
322,308,321,317,0
323,312,322,307,0
320,313,323,298,0
312,313,324,293,0
306,311,325,289,0
302,304,326,287,0
299,294,327,286,0
298,289,328,286,0
300,294,329,288,0
302,303,328,290,0
302,313,329,293,0
302,321,328,295,0
301,326,328,298,0
302,328,328,301,0
304,324,328,303,0
306,317,327,303,0
306,309,325,301,0
305,306,324,300,0
304,317,323,302,0
304,335,324,307,0
305,347,325,311,0
306,348,327,312,0
308,336,328,312,0
309,314,329,311,0
310,290,330,311,0
311,272,332,311,0
313,264,332,310,0
317,262,331,312,0
321,269,331,315,0
327,282,332,320,0
330,295,333,322,0
328,304,334,323,0
319,310,333,320,0
307,313,331,315,0
296,314,329,309,0
290,311,325,304,0
287,304,323,301,0
286,295,321,298,0
286,290,322,298,0
289,285,323,301,0
291,275,325,306,0
293,264,327,312,0
296,256,330,317,0
298,255,332,321,0
302,262,334,323,0
307,275,335,322,0
311,289,334,317,0
311,300,332,312,0
310,307,331,308,0
310,310,331,305,0
309,314,330,302,0
306,319,329,298,0
300,323,328,294,0
290,324,326,291,0
281,319,325,290,0
280,308,325,292,0
287,298,326,293,0
298,291,325,295,0
310,289,324,297,0
320,289,323,299,0
324,290,322,302,0
324,293,321,303,0
321,300,321,302,0
318,307,320,301,0
316,313,320,300,0
314,321,321,298,0
314,329,321,297,0
315,334,321,297,0
314,336,321,296,0
313,333,321,296,0
312,327,320,298,0
312,319,320,305,0
311,310,321,315,0
313,302,323,323,0
316,297,325,329,0
319,294,327,332,0
320,291,328,332,0
317,286,329,329,0
308,283,331,325,0
302,285,332,321,0
300,292,333,318,0
301,301,333,314,0
302,305,333,309,0
302,303,332,305,0
302,298,331,302,0
301,291,330,300,0
301,285,329,299,0
301,284,329,299,0
301,289,329,299,0
301,301,328,298,0
302,316,327,297,0
303,328,327,297,0
304,329,326,299,0
304,320,326,303,0
305,310,327,307,0
306,306,329,313,0
309,305,329,317,0
310,306,328,318,0
311,307,327,318,0
310,307,325,317,0
309,304,324,312,0
308,296,324,304,0
307,284,323,297,0
304,270,324,291,0
302,257,324,288,0
299,247,325,286,0
296,237,325,284,0
294,233,323,281,0
293,239,322,280,0
294,255,322,281,0
297,277,323,284,0
301,300,323,288,0
304,323,323,291,0
306,342,324,294,0
307,355,324,296,0
306,361,325,297,0
306,363,328,299,0
307,360,331,303,0
307,354,333,307,0
307,345,334,311,0
305,335,335,314,0
304,325,335,318,0
303,319,336,321,0
303,315,337,322,0
304,312,337,324,0
302,308,337,325,0
299,304,337,327,0
296,299,337,331,0
293,297,337,336,0
289,296,336,341,0
290,299,336,344,0
296,301,334,343,0
301,301,332,339,0
305,300,330,332,0
308,299,329,326,0
310,299,328,318,0
309,301,327,311,0
308,301,326,303,0
306,302,325,297,0
306,302,327,292,0
307,302,329,288,0
307,300,331,285,0
306,295,331,284,0
306,288,331,285,0
305,276,331,287,0
303,263,332,290,0
301,249,332,294,0
298,238,332,299,0
294,230,333,303,0
291,230,332,305,0
290,247,332,307,0
293,274,332,309,0
298,301,331,312,0
304,321,331,315,0
310,334,331,320,0
314,340,330,324,0
317,339,330,327,0
318,333,331,328,0
316,330,332,325,0
314,327,332,319,0
313,319,332,311,0
311,309,332,306,0
305,302,332,306,0
302,303,333,310,0
301,307,334,316,0
301,312,334,319,0
300,314,335,319,0
300,314,335,317,0
299,313,335,311,0
298,311,334,304,0
296,311,332,296,0
293,313,330,288,0
291,317,328,282,0
290,323,328,280,0
290,329,328,281,0
292,332,326,283,0
296,332,325,286,0
300,326,325,287,0
305,320,325,287,0
309,320,326,286,0
312,320,327,286,0
315,315,328,286,0
317,305,330,286,0
318,292,331,286,0
318,282,333,286,0
316,277,334,286,0
315,279,334,287,0
312,286,335,289,0
309,296,334,291,0
305,303,334,294,0
301,308,333,296,0
299,308,333,298,0
301,306,334,300,0
304,300,334,301,0
308,293,334,301,0
309,284,333,301,0
306,274,332,302,0
301,266,332,304,0
297,264,331,307,0
297,270,331,311,0
300,282,331,316,0
305,300,333,319,0
311,323,334,322,0
316,341,334,323,0
318,347,335,324,0
315,338,335,325,0
310,322,334,326,0
306,310,334,328,0
303,304,336,330,0
303,299,337,332,0
306,296,338,331,0
308,297,337,328,0
308,306,336,326,0
307,321,336,323,0
307,334,336,320,0
308,338,334,316,0
309,332,331,310,0
309,316,327,305,0
308,297,324,301,0
308,286,322,297,0
308,284,322,295,0
309,290,322,295,0
311,300,324,294,0
312,306,326,294,0
311,305,328,294,0
310,296,329,295,0
308,283,331,296,0
306,272,333,298,0
305,268,334,301,0
304,273,335,306,0
305,285,334,311,0
306,299,332,315,0
307,307,330,317,0
307,308,329,319,0
307,306,329,320,0
308,303,329,323,0
308,298,329,324,0
309,295,328,324,0
310,297,327,324,0
311,301,327,321,0
312,305,327,317,0
312,308,327,311,0
312,310,328,306,0
312,314,328,300,0
312,315,329,294,0
312,311,328,288,0
311,302,327,283,0
310,291,325,278,0
306,282,323,274,0
297,272,322,272,0
287,267,321,272,0
278,270,322,274,0
275,276,322,278,0
278,285,323,285,0
285,295,325,291,0
293,303,326,296,0
298,307,327,297,0
303,307,327,297,0
306,302,326,295,0
308,294,326,292,0
309,287,326,290,0
311,287,327,289,0
314,293,328,290,0
321,306,330,293,0
323,324,331,296,0
318,343,331,300,0
308,357,330,301,0
299,363,329,302,0
295,362,330,303,0
294,351,331,305,0
295,338,334,307,0
297,326,336,310,0
298,318,337,313,0
298,316,339,315,0
298,319,339,316,0
297,322,338,316,0
297,324,337,316,0
298,325,335,315,0
300,324,334,315,0
302,322,334,316,0
305,321,335,318,0
308,323,336,320,0
310,324,337,323,0
311,320,338,324,0
310,311,339,326,0
308,300,339,328,0
305,294,339,330,0
301,289,339,331,0
295,283,338,327,0
288,281,338,321,0
283,285,339,314,0
284,293,339,307,0
291,301,340,302,0
299,306,341,299,0
305,310,340,296,0
308,312,336,292,0
309,315,333,288,0
308,313,331,285,0
307,305,329,282,0
305,291,329,280,0
304,274,328,280,0
303,260,329,282,0
303,246,330,285,0
303,237,331,290,0
304,241,333,296,0
306,255,335,303,0
307,274,336,307,0
306,292,335,310,0
305,305,334,311,0
304,315,332,310,0
305,321,330,308,0
307,327,328,308,0
310,331,327,308,0
314,334,327,308,0
314,333,327,310,0
310,326,328,314,0
303,317,328,317,0
296,308,328,318,0
292,301,327,316,0
292,298,327,313,0
297,299,328,311,0
303,305,329,309,0
309,314,331,306,0
316,321,332,304,0
317,329,333,301,0
311,336,334,298,0
304,339,333,295,0
300,338,332,292,0
300,333,332,289,0
301,328,331,289,0
301,326,331,291,0
300,326,331,294,0
299,322,331,298,0
299,318,331,301,0
299,317,333,304,0
301,319,334,308,0
303,323,335,311,0
303,323,335,314,0
303,318,335,317,0
304,308,335,321,0
305,296,335,325,0
307,286,335,328,0
308,284,335,330,0
309,288,335,329,0
307,292,334,326,0
305,292,333,320,0
303,286,333,314,0
300,275,332,307,0
298,270,331,300,0
298,273,330,295,0
300,278,331,293,0
303,281,333,293,0
306,285,334,294,0
308,290,335,295,0
305,298,334,296,0
299,308,332,297,0
290,318,331,298,0
282,328,330,298,0
280,337,331,298,0
287,342,333,300,0
297,345,336,302,0
306,340,337,305,0
314,330,338,308,0
318,317,338,307,0
318,305,337,304,0
313,294,335,301,0
308,290,333,300,0
306,294,331,302,0
306,303,330,304,0
308,309,330,307,0
309,308,330,309,0
309,301,329,310,0
309,293,329,312,0
309,286,328,312,0
305,279,327,312,0
300,275,327,312,0
298,276,328,314,0
299,280,330,318,0
302,287,333,321,0
303,295,335,323,0
304,302,336,325,0
304,308,337,325,0
304,313,337,323,0
307,316,338,320,0
310,319,338,317,0
312,322,337,313,0
311,323,336,307,0
308,321,334,301,0
304,317,332,294,0
301,313,331,290,0
298,311,331,287,0
298,310,331,286,0
297,311,331,285,0
294,314,331,286,0
291,317,333,286,0
293,316,334,287,0
298,312,335,289,0
305,306,334,292,0
311,303,333,296,0
318,306,333,303,0
325,315,334,314,0
332,326,335,324,0
330,330,336,332,0
323,326,338,335,0
314,308,340,335,0
308,291,340,331,0
304,284,340,325,0
303,288,340,318,0
302,296,339,312,0
301,308,338,306,0
302,324,337,302,0
302,343,336,300,0
304,356,336,301,0
305,354,337,304,0
305,341,337,308,0
304,324,338,312,0
302,310,338,313,0
300,302,338,314,0
300,298,338,316,0
302,298,337,319,0
305,301,338,321,0
307,303,338,322,0
307,300,338,322,0
306,294,339,321,0
306,289,341,319,0
306,291,343,315,0
306,300,343,312,0
306,312,342,310,0
306,323,341,309,0
306,329,340,310,0
307,329,340,313,0
308,327,340,315,0
309,325,340,316,0
309,322,339,312,0
308,316,338,307,0
306,309,337,303,0
304,297,336,300,0
303,281,334,297,0
300,265,333,294,0
297,255,333,292,0
296,253,334,290,0
296,257,335,291,0
298,266,335,293,0
297,277,335,295,0
295,285,335,297,0
293,289,335,299,0
290,294,337,301,0
293,307,339,304,0
300,325,341,307,0
308,336,342,309,0
315,338,341,312,0
319,334,340,313,0
319,331,339,314,0
316,328,337,314,0
313,324,336,313,0
311,317,334,311,0
311,310,332,308,0
312,301,331,305,0
311,294,329,301,0
309,295,328,299,0
307,303,328,299,0
306,315,328,299,0
306,327,328,298,0
307,333,329,298,0
311,334,332,300,0
315,331,334,302,0
317,327,334,302,0
316,322,333,301,0
313,315,332,299,0
309,310,331,298,0
306,303,331,297,0
303,297,331,296,0
299,293,332,297,0
297,296,334,300,0
298,303,336,304,0
301,308,338,308,0
303,307,338,311,0
304,300,337,314,0
305,294,335,319,0
307,290,335,325,0
313,286,335,331,0
320,283,337,336,0
325,284,339,336,0
324,289,340,333,0
320,297,338,327,0
315,305,338,323,0
314,312,338,319,0
314,315,339,317,0
311,316,340,316,0
306,316,340,317,0
300,317,339,316,0
295,316,338,314,0
291,314,335,312,0
289,312,333,309,0
286,308,333,307,0
283,300,332,304,0
280,287,331,298,0
278,272,331,292,0
280,257,332,288,0
288,251,333,287,0
296,256,335,288,0
303,266,335,292,0
307,277,336,298,0
310,288,337,304,0
312,297,338,310,0
313,304,339,313,0
314,311,340,315,0
314,322,339,315,0
313,333,338,314,0
310,344,336,311,0
307,351,334,308,0
304,354,331,306,0
303,353,330,305,0
304,346,329,305,0
305,335,330,305,0
306,323,330,304,0
307,313,330,302,0
307,307,329,300,0
305,304,329,300,0
303,298,329,300,0
302,294,331,301,0
306,294,333,304,0
312,294,335,306,0
316,295,335,310,0
318,297,336,313,0
317,300,336,316,0
314,304,335,318,0
310,308,334,318,0
304,311,334,318,0
299,313,333,318,0
297,315,332,319,0
297,317,332,319,0
301,318,332,319,0
306,317,332,319,0
311,318,332,317,0
313,319,332,316,0
314,323,331,316,0
314,325,331,317,0
314,324,331,317,0
313,321,332,318,0
313,319,333,318,0
313,318,334,317,0
314,318,335,315,0
315,317,335,313,0
315,315,335,310,0
314,307,335,307,0
311,293,335,303,0
306,277,335,299,0
302,262,335,296,0
300,255,336,293,0
299,256,335,288,0
298,261,334,285,0
298,272,333,284,0
301,286,332,284,0
303,300,331,286,0
306,311,330,289,0
308,316,329,294,0
307,313,329,298,0
304,309,329,304,0
303,304,329,313,0
302,301,328,323,0
302,300,327,330,0
303,302,326,331,0
306,307,325,329,0
309,315,326,324,0
312,323,327,319,0
313,327,327,313,0
311,329,328,308,0
302,328,329,304,0
294,328,332,301,0
291,328,334,299,0
291,323,335,298,0
293,312,335,299,0
296,301,335,300,0
299,295,336,301,0
302,294,335,301,0
303,296,334,302,0
304,299,333,302,0
305,305,332,303,0
306,307,331,304,0
307,303,331,306,0
309,295,332,310,0
310,290,333,314,0
312,290,335,318,0
313,296,336,322,0
315,303,338,325,0
314,308,339,326,0
313,308,338,325,0
310,306,338,323,0
307,302,337,321,0
305,299,337,319,0
303,297,337,319,0
303,301,337,317,0
302,309,335,313,0
301,317,334,309,0
302,320,332,305,0
302,320,330,300,0
301,312,328,295,0
299,294,326,289,0
298,275,324,285,0
298,267,324,284,0
303,270,326,287,0
309,280,329,293,0
315,291,331,300,0
321,302,334,308,0
324,311,336,316,0
324,316,336,321,0
321,319,336,324,0
318,320,335,325,0
316,319,335,323,0
312,317,335,321,0
307,315,335,318,0
303,311,335,315,0
299,307,336,311,0
296,302,336,307,0
295,299,335,303,0
294,297,333,299,0
295,297,332,295,0
297,300,331,292,0
299,304,329,290,0
301,310,329,288,0
305,313,328,287,0
309,313,328,288,0
311,310,327,290,0
311,306,327,293,0
309,298,326,296,0
305,288,327,299,0
301,276,327,300,0
299,272,329,302,0
302,277,331,302,0
306,287,331,301,0
308,298,331,299,0
308,306,330,297,0
307,309,329,296,0
305,308,329,297,0
303,307,329,297,0
302,307,329,301,0
303,309,329,308,0
303,314,328,316,0
303,320,327,323,0
302,323,327,328,0
303,323,328,333,0
306,320,331,337,0
312,318,333,339,0
316,318,335,338,0
320,320,335,334,0
322,323,334,328,0
323,327,332,320,0
322,331,331,312,0
320,331,330,303,0
314,325,329,296,0
308,316,329,291,0
304,306,329,287,0
302,299,329,286,0
303,297,328,288,0
304,297,328,292,0
305,301,328,296,0
304,306,328,299,0
303,309,327,300,0
305,310,325,302,0
309,311,325,305,0
313,313,325,308,0
315,314,327,313,0
314,311,329,319,0
312,305,331,326,0
309,299,331,331,0
307,293,331,332,0
307,287,330,330,0
308,280,329,326,0
310,274,329,322,0
312,269,328,319,0
314,268,327,315,0
313,281,326,313,0
311,304,325,312,0
308,327,323,310,0
306,339,322,305,0
305,341,321,301,0
305,338,320,297,0
306,334,320,294,0
308,325,321,293,0
310,313,324,296,0
312,306,326,299,0
314,305,327,301,0
316,305,328,303,0
317,305,328,302,0
317,304,329,301,0
316,302,328,298,0
316,297,329,296,0
315,292,329,294,0
313,287,329,293,0
309,282,329,292,0
304,280,329,292,0
300,280,329,293,0
298,281,329,295,0
296,285,328,297,0
296,294,326,299,0
296,299,325,301,0
296,300,325,304,0
297,299,326,307,0
300,300,328,310,0
303,307,329,313,0
305,317,330,314,0
306,324,331,314,0
310,329,332,315,0
316,332,333,315,0
318,333,333,316,0
317,329,334,316,0
315,327,335,318,0
312,325,335,318,0
308,321,336,320,0
305,318,336,322,0
303,315,334,325,0
301,310,333,327,0
299,306,330,327,0
297,302,329,323,0
294,297,327,317,0
291,290,326,309,0
290,282,326,302,0
292,279,327,297,0
298,280,328,295,0
307,283,329,295,0
315,288,328,298,0
321,293,327,303,0
322,302,327,308,0
321,316,327,311,0
318,328,326,312,0
315,335,326,311,0
313,338,326,309,0
312,336,326,307,0
311,329,326,305,0
311,320,326,305,0
311,310,326,306,0
313,299,326,307,0
314,289,325,309,0
316,282,325,311,0
313,278,325,313,0
309,278,325,314,0
304,283,325,314,0
302,287,326,315,0
302,291,326,316,0
302,293,326,317,0
303,295,325,317,0
304,297,325,316,0
304,302,324,316,0
304,307,324,316,0
304,311,325,317,0
304,314,326,318,0
304,318,326,318,0
304,324,326,316,0
303,331,325,314,0
302,336,324,311,0
302,336,323,309,0
303,330,323,308,0
304,321,323,307,0
307,314,324,306,0
310,309,325,306,0
314,301,326,305,0
316,290,325,304,0
316,282,324,303,0
317,279,322,301,0
318,283,321,299,0
317,291,320,297,0
315,298,321,293,0
311,305,322,289,0
308,312,324,287,0
305,318,326,287,0
303,321,327,287,0
301,321,328,288,0
301,321,328,289,0
300,319,328,290,0
300,317,327,293,0
300,313,327,296,0
300,311,327,298,0
299,309,327,302,0
299,311,327,305,0
299,314,327,309,0
298,317,327,311,0
298,318,326,312,0
297,315,326,311,0
297,307,325,309,0
298,295,324,307,0
301,288,324,305,0
303,289,325,303,0
305,296,325,302,0
306,301,326,303,0
307,301,326,305,0
306,296,327,309,0
302,283,329,313,0
300,266,331,317,0
301,257,333,319,0
301,265,334,321,0
299,284,334,325,0
297,304,333,327,0
297,319,331,327,0
301,330,329,325,0
307,336,327,321,0
310,336,325,316,0
312,330,323,311,0
313,322,323,307,0
314,314,323,304,0
315,309,324,303,0
316,309,324,302,0
318,312,325,302,0
318,317,326,302,0
318,320,328,303,0
316,322,329,305,0
314,323,329,308,0
312,323,329,310,0
310,321,328,310,0
308,318,327,309,0
308,316,326,307,0
308,314,325,304,0
309,313,324,300,0
308,313,323,296,0
307,312,322,291,0
304,309,320,286,0
300,307,318,280,0
298,310,316,277,0
299,319,315,276,0
303,325,315,276,0
309,328,317,277,0
316,328,318,280,0
324,327,321,285,0
330,323,325,292,0
335,318,330,298,0
337,312,332,302,0
333,300,332,304,0
323,286,332,306,0
312,277,331,307,0
302,272,331,310,0
294,272,331,316,0
288,275,332,324,0
285,282,331,331,0
284,291,330,336,0
284,300,330,337,0
287,310,328,333,0
294,314,327,325,0
302,314,326,314,0
310,314,325,304,0
316,312,324,295,0
316,309,323,290,0
315,306,323,287,0
313,304,324,288,0
312,304,325,290,0
311,306,326,293,0
311,309,327,295,0
309,311,328,299,0
308,311,328,302,0
307,307,329,306,0
305,302,330,308,0
305,298,330,310,0
304,294,330,311,0
303,296,330,310,0
301,305,330,308,0
299,318,329,305,0
297,328,328,301,0
296,337,327,298,0
295,348,325,293,0
295,359,324,289,0
298,361,324,287,0
304,353,324,287,0
308,335,325,290,0
312,313,327,296,0
313,295,328,301,0
313,282,329,308,0
315,275,330,315,0
319,273,331,321,0
320,275,332,324,0
319,278,331,325,0
316,281,330,323,0
312,282,329,320,0
308,287,327,318,0
306,296,326,316,0
306,306,325,313,0
307,314,324,308,0
308,317,323,301,0
310,318,322,295,0
313,317,321,289,0
315,314,321,286,0
316,309,322,284,0
316,304,323,284,0
315,300,326,287,0
314,298,328,290,0
313,301,330,293,0
314,309,331,296,0
314,317,332,296,0
314,324,332,295,0
312,328,332,295,0
311,330,331,296,0
309,329,330,298,0
307,327,329,302,0
306,324,329,305,0
305,321,328,306,0
304,316,328,305,0
304,307,327,305,0
303,299,327,304,0
302,293,327,301,0
301,291,326,299,0
304,295,327,299,0
312,303,328,300,0
323,309,329,303,0
327,307,329,306,0
322,301,329,310,0
311,293,331,314,0
301,286,334,317,0
296,282,335,315,0
294,284,334,312,0
293,289,332,309,0
293,294,330,307,0
293,301,329,308,0
296,312,328,309,0
300,322,328,311,0
304,330,328,313,0
307,331,328,315,0
309,326,329,316,0
310,317,329,316,0
310,306,328,314,0
308,295,327,309,0
307,285,326,304,0
306,279,325,299,0
309,283,324,297,0
312,291,324,295,0
314,302,324,294,0
314,313,324,293,0
312,320,323,291,0
311,322,323,290,0
309,321,323,289,0
309,318,323,290,0
310,316,321,292,0
310,314,320,296,0
309,307,319,300,0
308,295,320,304,0
309,279,322,307,0
309,265,324,309,0
309,259,325,311,0
305,268,326,311,0
302,286,326,311,0
299,303,326,309,0
297,309,325,307,0
296,306,324,306,0
298,298,325,307,0
300,294,325,307,0
303,292,326,306,0
306,292,326,306,0
307,293,327,305,0
308,297,328,305,0
306,300,328,305,0
305,301,328,307,0
303,299,329,312,0
302,296,329,318,0
301,296,329,322,0
299,299,329,324,0
298,302,328,323,0
299,304,327,319,0
301,304,326,313,0
303,300,326,305,0
304,296,325,299,0
301,297,325,295,0
298,307,325,294,0
295,321,326,297,0
294,333,326,300,0
293,342,325,302,0
294,350,323,305,0
296,357,321,309,0
299,360,320,310,0
302,353,319,310,0
305,336,318,309,0
309,319,319,308,0
309,304,319,308,0
306,290,320,310,0
303,282,322,313,0
303,279,322,315,0
306,280,322,316,0
310,280,321,316,0
311,281,320,314,0
309,282,318,310,0
306,285,317,305,0
302,291,316,302,0
299,299,315,298,0
297,308,314,296,0
297,319,315,295,0
298,327,315,294,0
299,329,315,294,0
300,328,316,296,0
300,322,317,299,0
299,310,319,303,0
297,293,320,307,0
295,281,322,311,0
294,273,325,316,0
296,274,328,321,0
300,279,329,324,0
301,285,327,324,0
300,287,324,324,0
297,282,321,323,0
294,271,319,321,0
292,256,318,316,0
291,242,318,310,0
295,243,317,304,0
302,269,317,299,0
308,300,317,296,0
311,320,317,295,0
313,328,317,295,0
314,334,317,297,0
315,338,317,300,0
315,340,318,303,0
316,337,318,305,0
317,335,320,307,0
316,333,322,307,0
314,331,323,307,0
311,328,323,306,0
306,324,323,304,0
302,320,323,303,0
300,317,323,304,0
301,316,324,305,0
303,318,324,307,0
306,319,324,308,0
307,316,323,308,0
307,308,322,307,0
309,295,320,306,0
312,282,319,309,0
315,272,320,314,0
314,264,321,322,0
311,260,322,328,0
307,263,323,332,0
303,269,324,333,0
301,279,325,332,0
300,296,326,328,0
300,312,326,322,0
300,323,326,317,0
300,331,325,312,0
299,337,325,307,0
299,340,324,304,0
299,341,323,301,0
298,339,322,299,0
297,335,320,299,0
296,326,319,299,0
297,314,319,299,0
298,298,318,299,0
298,281,318,299,0
296,268,317,298,0
295,265,316,297,0
295,272,316,298,0
301,287,318,300,0
307,301,321,303,0
309,305,322,304,0
306,306,323,304,0
300,313,323,304,0
297,320,323,303,0
297,324,322,301,0
298,325,321,300,0
299,325,321,299,0
300,325,320,299,0
302,326,320,299,0
304,325,319,299,0
304,323,320,301,0
304,319,321,303,0
304,311,322,307,0
303,303,322,311,0
304,298,323,316,0
305,297,324,321,0
307,298,326,326,0
308,296,327,330,0
309,291,328,332,0
309,284,329,331,0
310,281,330,329,0
310,288,330,325,0
310,299,330,319,0
308,308,329,311,0
306,315,327,304,0
304,320,324,298,0
303,324,322,293,0
302,323,320,290,0
303,318,318,288,0
304,310,316,290,0
306,300,316,294,0
309,289,317,298,0
310,281,318,303,0
309,275,318,309,0
306,273,318,314,0
303,276,318,318,0
302,281,319,321,0
303,287,320,322,0
306,298,320,321,0
309,309,321,319,0
313,319,323,315,0
317,328,323,311,0
319,330,323,307,0
317,320,323,304,0
314,307,323,302,0
310,298,322,300,0
307,294,321,298,0
304,293,320,296,0
302,292,320,293,0
298,297,319,292,0
295,306,319,291,0
293,317,320,291,0
290,328,321,292,0
292,334,323,294,0
299,335,325,298,0
308,331,326,302,0
315,322,327,307,0
319,312,327,313,0
321,304,327,318,0
318,299,327,323,0
312,294,327,329,0
303,291,327,336,0
296,293,326,343,0
293,300,325,347,0
294,307,324,345,0
295,315,322,337,0
296,323,320,322,0
299,331,318,307,0
301,335,317,295,0
302,334,317,285,0
303,326,317,277,0
304,313,318,271,0
306,300,320,269,0
312,288,321,272,0
316,279,322,277,0
320,277,321,282,0
322,284,321,288,0
324,296,320,294,0
326,306,320,298,0
328,312,321,302,0
326,311,323,304,0
318,305,324,305,0
307,299,325,305,0
299,296,325,303,0
294,291,325,301,0
291,286,324,299,0
291,282,322,299,0
292,279,321,301,0
293,280,321,303,0
293,291,321,306,0
294,314,321,308,0
296,339,321,308,0
297,355,321,307,0
298,360,320,306,0
299,358,320,308,0
302,351,321,312,0
305,341,322,318,0
305,329,324,323,0
304,317,327,326,0
304,307,328,327,0
303,301,330,326,0
303,300,330,322,0
303,303,330,316,0
303,309,329,309,0
303,316,327,301,0
302,321,326,292,0
301,318,325,285,0
301,309,324,278,0
302,301,324,273,0
303,296,323,270,0
303,293,322,271,0
302,295,322,273,0
300,302,321,279,0
299,311,320,285,0
301,315,320,291,0
305,319,320,295,0
308,325,320,297,0
308,329,320,299,0
305,329,321,302,0
301,326,322,309,0
298,322,324,316,0
297,318,326,324,0
297,315,328,330,0
296,312,328,333,0
296,308,328,333,0
294,301,329,330,0
291,294,329,325,0
289,288,329,319,0
287,286,330,313,0
287,288,331,308,0
289,292,331,304,0
293,297,329,300,0
296,299,326,295,0
298,299,323,292,0
300,295,320,292,0
301,291,319,295,0
300,288,319,299,0
299,288,320,303,0
298,295,322,306,0
300,312,325,309,0
305,332,327,312,0
309,346,330,314,0
310,351,330,313,0
309,349,328,309,0
307,342,326,303,0
305,330,324,298,0
304,317,323,294,0
304,308,322,291,0
305,304,322,288,0
311,301,321,286,0
313,299,321,286,0
310,296,320,286,0
304,293,318,285,0
301,289,316,286,0
300,284,314,286,0
302,283,313,287,0
304,286,313,288,0
304,291,314,291,0
301,298,315,293,0
297,304,317,296,0
295,310,319,299,0
295,313,320,301,0
296,309,320,302,0
298,302,321,302,0
299,294,322,301,0
300,290,322,301,0
300,293,323,303,0
300,299,323,306,0
300,304,322,309,0
300,308,322,313,0
301,308,321,315,0
302,304,321,316,0
302,299,320,315,0
303,294,320,313,0
305,291,320,312,0
309,286,320,311,0
312,280,320,310,0
311,277,321,310,0
309,286,322,310,0
306,300,322,309,0
302,312,322,306,0
301,320,321,302,0
302,326,318,299,0
304,332,316,296,0
306,334,313,295,0
307,335,311,296,0
308,336,311,297,0
306,336,313,298,0
304,335,316,300,0
304,333,319,300,0
305,331,321,300,0
306,330,321,300,0
306,331,321,301,0
305,333,320,302,0
304,334,319,306,0
303,328,318,311,0
303,317,319,317,0
303,305,320,323,0
304,298,321,327,0
306,295,323,330,0
309,296,325,331,0
311,294,326,331,0
313,291,326,328,0
314,292,326,323,0
316,299,326,318,0
318,307,326,312,0
320,313,325,305,0
320,315,323,299,0
319,314,320,296,0
316,311,319,298,0
314,307,319,303,0
312,303,318,308,0
312,299,317,313,0
313,296,318,316,0
315,293,318,317,0
315,289,318,315,0
313,284,317,311,0
308,279,316,309,0
306,278,316,309,0
306,283,317,312,0
309,291,317,313,0
312,298,318,314,0
314,302,318,310,0
316,307,318,305,0
314,311,318,297,0
306,307,318,289,0
299,295,318,282,0
295,281,319,277,0
294,276,320,274,0
295,278,321,274,0
297,286,321,276,0
298,294,321,279,0
299,303,320,281,0
299,308,318,284,0
299,308,317,287,0
300,308,316,292,0
302,311,318,298,0
306,315,320,303,0
308,319,322,306,0
308,320,323,308,0
306,318,323,309,0
302,315,323,309,0
297,311,322,309,0
295,309,323,309,0
294,309,323,310,0
294,315,324,312,0
295,327,324,314,0
299,346,322,315,0
303,364,319,314,0
303,372,316,311,0
300,370,314,309,0
298,360,314,308,0
298,342,315,307,0
301,322,316,305,0
306,304,317,304,0
313,291,316,303,0
317,284,316,303,0
318,281,315,304,0
317,280,317,308,0
316,279,319,311,0
314,278,321,315,0
312,277,323,318,0
312,279,325,321,0
313,283,326,323,0
313,284,326,324,0
311,282,325,325,0
309,279,323,325,0
306,276,320,324,0
303,279,318,323,0
302,288,316,321,0
302,301,314,318,0
304,315,313,314,0
307,325,312,309,0
309,330,312,305,0
310,326,311,303,0
310,318,313,301,0
309,305,313,300,0
309,293,314,298,0
308,290,314,297,0
308,294,314,296,0
308,299,314,295,0
309,301,314,294,0
310,302,315,294,0
312,301,315,294,0
312,300,314,296,0
311,300,313,298,0
309,299,314,300,0
307,299,314,302,0
303,301,314,303,0
299,304,314,304,0
297,304,313,304,0
297,300,313,302,0
297,294,312,302,0
299,287,312,302,0
302,281,312,304,0
305,278,312,306,0
307,281,313,309,0
309,292,314,312,0
311,307,315,318,0
314,319,316,324,0
318,328,317,330,0
322,336,319,333,0
324,339,319,334,0
320,334,319,331,0
311,327,320,327,0
304,323,321,320,0
298,322,320,313,0
295,319,319,307,0
294,315,319,302,0
296,313,319,301,0
298,314,319,303,0
300,315,318,305,0
301,314,316,307,0
302,313,314,308,0
303,310,312,309,0
305,309,309,308,0
307,309,308,307,0
308,307,308,308,0
309,304,308,310,0
308,298,309,311,0
307,291,311,312,0
305,286,313,312,0
305,284,315,312,0
305,288,316,311,0
304,295,316,309,0
304,306,316,307,0
304,320,315,305,0
304,331,314,304,0
305,333,312,304,0
307,327,311,302,0
308,313,310,300,0
309,298,309,299,0
310,292,307,298,0
310,292,306,298,0
310,293,306,299,0
311,291,308,300,0
315,286,311,303,0
318,281,314,306,0
319,285,317,309,0
318,292,319,313,0
316,298,322,315,0
314,301,323,315,0
312,303,323,313,0
311,305,322,308,0
309,306,319,302,0
308,304,316,296,0
309,298,313,290,0
310,294,311,287,0
311,288,309,288,0
308,280,308,290,0
304,276,308,294,0
301,279,307,297,0
298,286,306,299,0
297,294,307,301,0
297,301,308,304,0
296,304,310,307,0
296,305,311,309,0
296,305,312,311,0
298,303,313,313,0
299,301,314,315,0
301,299,315,315,0
301,301,316,312,0
302,307,316,309,0
303,317,317,307,0
304,326,317,307,0
305,329,316,310,0
307,327,316,314,0
308,328,316,319,0
310,335,316,322,0
311,341,315,322,0
311,344,315,320,0
307,343,314,316,0
300,339,314,312,0
296,334,313,307,0
292,328,311,301,0
291,319,310,297,0
293,305,309,295,0
298,293,309,298,0
303,288,310,304,0
307,293,311,309,0
308,304,312,313,0
304,315,313,313,0
301,321,314,312,0
303,322,315,309,0
306,320,315,305,0
309,313,313,301,0
310,300,310,296,0
311,286,309,291,0
312,274,309,287,0
313,268,309,284,0
315,268,311,283,0
316,271,312,285,0
315,277,314,289,0
313,280,315,293,0
308,281,317,299,0
305,281,317,305,0
301,281,317,311,0
301,285,318,317,0
303,292,319,323,0
306,300,319,326,0
308,304,320,325,0
311,304,320,320,0
316,300,319,312,0
319,296,318,300,0
319,289,317,291,0
314,283,316,285,0
304,280,316,284,0
296,282,316,287,0
295,287,316,292,0
297,294,315,296,0
300,304,313,298,0
301,315,311,298,0
303,325,310,296,0
305,331,308,293,0
308,332,304,289,0
312,330,301,287,0
318,330,300,288,0
326,332,302,291,0
336,333,305,294,0
345,328,308,297,0
347,316,310,299,0
341,308,312,301,0
326,309,314,305,0
310,317,315,308,0
299,327,316,311,0
293,336,317,312,0
292,340,317,312,0
293,339,317,312,0
295,334,317,313,0
298,324,317,316,0
300,313,317,319,0
300,303,316,319,0
299,297,315,319,0
296,292,314,318,0
294,288,313,315,0
294,282,313,311,0
295,271,312,305,0
295,259,311,301,0
298,250,312,299,0
302,249,313,301,0
306,257,315,307,0
309,274,316,313,0
314,293,316,316,0
318,305,315,317,0
319,308,314,316,0
315,304,313,313,0
311,302,313,312,0
308,306,313,311,0
305,309,312,309,0
303,311,310,305,0
300,314,308,302,0
299,319,307,301,0
297,321,307,299,0
297,321,306,297,0
299,318,306,294,0
304,313,306,293,0
311,306,307,291,0
317,300,307,289,0
322,300,308,289,0
322,307,309,292,0
317,318,309,295,0
309,329,310,296,0
303,334,309,296,0
298,334,308,295,0
295,326,308,293,0
294,316,308,291,0
294,303,309,291,0
295,292,309,291,0
296,282,308,291,0
297,275,308,291,0
298,273,308,292,0
299,276,308,293,0
300,283,308,296,0
300,291,307,300,0
300,297,307,302,0
301,304,307,304,0
302,318,306,307,0
305,330,306,309,0
306,334,305,311,0
307,327,306,313,0
308,313,308,312,0
310,298,311,308,0
308,285,313,303,0
305,279,314,299,0
301,282,315,299,0
298,283,315,300,0
295,281,314,302,0
292,278,313,304,0
292,281,312,306,0
296,293,312,308,0
301,312,312,309,0
307,332,311,309,0
312,346,311,308,0
315,349,310,307,0
318,341,309,306,0
319,327,309,305,0
319,315,309,304,0
317,306,310,305,0
314,304,310,309,0
311,304,310,313,0
309,308,311,318,0
308,313,313,322,0
308,319,313,323,0
307,324,314,324,0
306,329,314,324,0
304,329,314,322,0
302,326,313,319,0
301,322,312,315,0
303,318,312,311,0
309,319,311,308,0
316,325,310,305,0
319,330,310,303,0
319,327,310,300,0
317,314,309,296,0
316,296,308,292,0
316,280,307,289,0
318,264,308,288,0
321,246,309,288,0
324,231,312,292,0
322,225,315,298,0
316,227,317,304,0
311,235,316,310,0
306,246,315,314,0
302,259,312,318,0
300,280,311,323,0
302,307,309,325,0
306,332,309,326,0
311,348,308,324,0
314,358,307,319,0
316,363,305,312,0
317,365,303,302,0
318,364,301,292,0
314,359,301,282,0
308,348,301,276,0
304,335,302,275,0
304,331,304,279,0
308,338,306,287,0
313,349,307,296,0
318,356,308,303,0
319,355,307,309,0
313,344,308,314,0
305,333,311,317,0
298,322,315,317,0
292,308,317,315,0
288,293,317,312,0
285,283,316,308,0
284,277,317,302,0
285,270,318,298,0
288,264,319,295,0
292,260,320,295,0
295,260,320,295,0
296,265,319,295,0
297,278,318,295,0
296,295,317,296,0
298,310,316,297,0
300,316,317,298,0
300,314,318,301,0
302,309,319,303,0
314,306,321,306,0
328,307,321,308,0
338,310,320,308,0
340,310,318,307,0
337,308,315,305,0
333,302,312,303,0
327,298,310,300,0
317,298,308,297,0
305,300,306,294,0
294,303,304,292,0
288,305,302,291,0
287,307,302,291,0
290,308,302,292,0
294,309,302,293,0
299,309,302,294,0
300,309,302,296,0
297,306,302,297,0
294,302,303,299,0
295,298,304,302,0
297,297,305,304,0
298,294,306,305,0
297,287,308,306,0
296,279,310,307,0
294,278,313,309,0
292,283,315,313,0
292,294,316,317,0
294,304,317,321,0
296,316,317,324,0
297,328,315,327,0
298,338,314,328,0
298,345,313,329,0
299,346,312,328,0
300,341,311,327,0
301,335,310,324,0
300,330,309,320,0
300,328,307,315,0
299,327,306,311,0
298,327,304,307,0
300,328,303,304,0
303,329,303,302,0
304,324,303,301,0
306,311,305,300,0
308,294,306,300,0
308,279,306,298,0
308,273,306,296,0
308,277,305,294,0
308,289,305,293,0
308,302,305,291,0
308,310,306,290,0
308,311,308,288,0
308,304,309,287,0
307,293,310,286,0
306,284,310,286,0
306,280,311,287,0
305,279,311,292,0
307,277,310,300,0
309,275,309,308,0
311,276,307,316,0
314,279,307,320,0
318,290,309,322,0
320,304,310,322,0
319,316,311,316,0
317,323,313,307,0
315,327,315,300,0
315,327,316,297,0
317,324,315,296,0
316,321,314,298,0
313,323,312,300,0
309,330,311,300,0
307,335,311,300,0
306,339,310,298,0
306,335,309,295,0
306,319,307,292,0
308,293,306,289,0
312,265,306,288,0
315,241,305,288,0
314,231,304,288,0
312,234,303,291,0
313,243,303,295,0
316,256,305,301,0
320,268,308,307,0
324,280,310,313,0
327,292,311,318,0
326,303,313,322,0
319,311,315,325,0
312,315,316,328,0
308,315,317,329,0
306,315,317,328,0
306,315,315,326,0
305,311,313,323,0
304,306,312,320,0
303,304,309,316,0
301,307,307,311,0
300,312,305,307,0
301,318,304,303,0
302,319,302,300,0
304,312,300,299,0
306,300,300,299,0
309,289,300,302,0
310,280,302,304,0
310,279,303,307,0
311,287,305,311,0
313,301,307,316,0
316,316,309,319,0
318,330,310,321,0
318,339,310,320,0
317,341,310,318,0
315,336,309,317,0
314,328,308,315,0
312,322,306,313,0
311,321,304,313,0
311,322,302,313,0
310,323,301,314,0
310,319,302,314,0
307,311,302,313,0
302,304,303,311,0
297,300,305,309,0
296,300,306,310,0
303,309,308,312,0
314,324,310,318,0
320,340,311,325,0
320,353,311,333,0
318,358,312,341,0
315,351,314,347,0
312,337,314,350,0
309,319,314,347,0
306,302,313,341,0
303,288,312,330,0
300,278,309,316,0
297,276,305,302,0
296,283,302,291,0
298,295,300,283,0
300,304,299,279,0
303,305,300,278,0
304,299,300,277,0
305,294,300,278,0
306,287,299,279,0
306,278,299,279,0
308,274,300,278,0
310,275,302,278,0
312,280,304,278,0
314,285,307,280,0
314,289,309,283,0
312,294,310,287,0
308,299,310,292,0
304,301,309,299,0
301,303,309,308,0
299,309,310,316,0
300,316,311,321,0
304,321,312,327,0
311,324,312,331,0
318,326,312,333,0
324,326,312,333,0
325,325,312,331,0
323,322,311,327,0
316,319,310,320,0
306,314,309,313,0
297,309,309,306,0
293,308,308,299,0
292,311,307,294,0
293,319,305,290,0
294,330,304,288,0
294,336,302,287,0
295,336,302,288,0
296,334,303,291,0
297,333,304,296,0
299,330,305,299,0
302,324,307,302,0
303,315,308,304,0
303,307,309,307,0
303,301,310,308,0
301,296,311,307,0
297,292,311,306,0
294,291,311,306,0
293,295,311,307,0
295,300,310,308,0
297,302,310,310,0
299,302,309,312,0
301,300,309,314,0
303,300,309,315,0
304,301,310,318,0
305,299,311,321,0
304,298,312,323,0
303,300,314,325,0
307,307,314,327,0
313,318,315,330,0
317,328,315,333,0
318,334,316,334,0
316,337,315,333,0
310,337,313,331,0
304,333,312,329,0
299,324,309,325,0
297,318,307,319,0
298,318,306,312,0
300,316,304,304,0
302,311,303,297,0
303,304,303,290,0
304,301,303,286,0
305,304,304,286,0
308,305,305,287,0
310,304,306,289,0
311,302,308,291,0
312,301,309,293,0
312,299,310,295,0
311,299,310,296,0
308,306,309,297,0
305,322,308,297,0
303,339,307,296,0
301,347,306,294,0
301,342,306,292,0
301,329,305,291,0
299,314,305,291,0
297,301,305,291,0
293,289,306,291,0
292,277,305,291,0
293,269,305,293,0
297,265,306,296,0
301,262,306,298,0
304,260,307,300,0
305,259,307,301,0
307,266,307,304,0
308,282,308,310,0
308,299,309,318,0
304,312,310,324,0
300,322,310,328,0
299,329,309,330,0
303,335,308,329,0
310,338,306,326,0
316,338,305,320,0
322,336,304,314,0
327,330,304,308,0
330,320,303,303,0
326,313,302,296,0
318,310,302,290,0
312,311,301,286,0
307,315,300,283,0
304,315,301,283,0
302,312,301,284,0
302,308,302,287,0
304,304,303,291,0
305,303,304,294,0
305,303,306,298,0
306,305,309,301,0
307,310,311,304,0
308,312,312,306,0
308,309,313,308,0
307,300,313,310,0
306,287,312,314,0
304,273,312,320,0
302,267,312,324,0
300,270,312,328,0
297,275,312,330,0
293,279,312,330,0
290,279,312,330,0
290,282,311,331,0
292,290,310,333,0
296,301,310,335,0
300,312,310,339,0
304,318,311,343,0
309,321,312,347,0
316,323,312,348,0
321,324,312,343,0
325,324,310,334,0
326,324,309,323,0
326,326,307,314,0
324,328,306,307,0
321,331,306,303,0
318,330,307,299,0
315,328,307,295,0
313,324,306,291,0
311,320,305,287,0
310,310,304,284,0
311,296,302,281,0
313,283,300,279,0
314,279,299,278,0
316,280,300,277,0
316,282,300,278,0
315,283,300,280,0
313,286,300,284,0
311,290,301,289,0
310,292,301,292,0
309,289,302,295,0
308,286,303,297,0
307,285,304,298,0
307,290,306,300,0
309,306,308,303,0
311,328,310,307,0
313,345,309,309,0
313,352,308,310,0
314,350,306,309,0
315,344,305,309,0
317,335,304,308,0
320,325,304,308,0
323,313,304,308,0
322,302,304,310,0
318,293,304,311,0
313,288,304,315,0
303,289,307,319,0
291,295,310,325,0
284,301,312,329,0
284,309,314,331,0
289,318,314,332,0
296,328,313,330,0
303,337,311,326,0
307,341,309,319,0
308,340,306,311,0
308,333,304,301,0
307,316,303,293,0
306,295,302,287,0
304,277,303,285,0
303,265,304,286,0
303,259,305,289,0
302,263,306,293,0
301,274,307,296,0
300,282,307,298,0
299,282,308,300,0
298,282,308,301,0
300,288,308,304,0
306,296,308,306,0
313,304,308,308,0
317,311,308,311,0
319,315,307,317,0
318,317,306,327,0
316,318,306,336,0
314,318,306,344,0
311,316,307,349,0
308,311,307,349,0
306,305,306,345,0
304,303,306,338,0
304,301,305,330,0
305,294,305,321,0
307,285,305,312,0
307,273,304,304,0
307,262,302,295,0
304,256,301,288,0
303,266,300,284,0
303,287,299,284,0
305,308,299,286,0
308,324,301,291,0
311,334,302,298,0
315,339,303,304,0
317,343,304,310,0
319,347,305,312,0
319,352,305,313,0
319,356,304,313,0
317,355,302,310,0
314,348,301,307,0
312,339,302,304,0
313,327,303,303,0
316,314,303,301,0
317,302,303,299,0
314,293,302,297,0
308,287,302,296,0
304,285,300,295,0
301,286,298,294,0
300,287,295,294,0
299,288,293,295,0
298,290,293,297,0
297,289,293,299,0
297,288,293,301,0
296,285,294,303,0
296,285,295,305,0
295,285,296,306,0
296,290,297,308,0
298,298,298,310,0
301,306,299,311,0
304,315,300,312,0
308,324,301,311,0
311,328,301,311,0
313,324,300,310,0
313,316,299,310,0
314,303,299,310,0
315,292,298,311,0
308,288,298,312,0
296,286,296,313,0
285,288,295,315,0
281,294,296,317,0
285,302,297,319,0
293,306,299,320,0
301,303,300,320,0
308,293,301,319,0
311,280,302,318,0
313,268,304,318,0
314,268,304,318,0
314,279,305,319,0
313,295,304,319,0
310,308,303,316,0
304,316,302,314,0
299,320,300,311,0
298,324,300,308,0
298,331,300,307,0
302,340,299,307,0
306,349,297,308,0
309,355,294,309,0
309,360,291,310,0
308,361,289,313,0
307,357,289,319,0
307,344,292,329,0
310,324,296,337,0
314,301,302,344,0
318,283,306,349,0
323,273,309,348,0
325,270,309,344,0
324,271,309,337,0
322,274,307,328,0
321,278,305,319,0
317,282,303,307,0
311,287,300,295,0
306,292,298,284,0
303,300,295,276,0
303,306,293,272,0
303,312,292,271,0
304,316,292,272,0
306,317,293,277,0
308,317,294,282,0
310,316,294,289,0
311,312,295,297,0
311,305,296,303,0
310,299,297,309,0
311,295,298,313,0
312,294,299,315,0
313,298,299,315,0
314,308,300,312,0
315,320,301,307,0
314,324,300,301,0
314,320,300,296,0
314,310,300,293,0
316,294,299,291,0
318,275,299,291,0
317,258,300,292,0
313,246,301,291,0
306,240,301,289,0
299,240,299,288,0
294,254,298,288,0
292,276,298,291,0
295,293,299,296,0
304,300,299,302,0
312,299,299,308,0
313,292,299,315,0
311,284,299,322,0
309,278,300,327,0
308,279,301,331,0
308,289,303,333,0
307,306,304,332,0
308,322,304,330,0
309,331,303,326,0
311,336,302,322,0
312,344,302,320,0
313,352,301,320,0
313,356,300,320,0
312,356,300,319,0
311,348,299,316,0
311,335,299,311,0
309,324,299,305,0
308,319,300,302,0
308,318,300,302,0
308,314,301,304,0
309,305,302,307,0
310,292,302,309,0
311,277,302,308,0
312,264,301,304,0
314,255,300,301,0
317,254,299,299,0
320,262,299,297,0
323,276,299,296,0
323,289,300,297,0
320,301,301,301,0
316,316,302,306,0
311,329,304,311,0
305,337,305,314,0
301,338,306,314,0
299,336,307,313,0
298,333,309,311,0
298,329,310,309,0
298,328,309,305,0
298,331,308,300,0
299,330,305,294,0
300,319,303,289,0
301,296,302,286,0
302,272,301,285,0
302,261,301,285,0
301,264,302,288,0
299,275,304,292,0
293,288,305,297,0
288,298,306,301,0
288,306,308,305,0
296,313,310,308,0
307,317,310,311,0
317,315,311,313,0
322,312,310,314,0
323,310,309,313,0
322,310,308,311,0
319,310,307,307,0
316,309,307,304,0
313,305,305,300,0
310,298,304,296,0
309,291,302,296,0
308,288,302,297,0
308,287,302,300,0
308,286,303,302,0
308,284,304,304,0
309,281,305,307,0
309,280,305,310,0
308,283,306,311,0
305,290,306,310,0
302,297,306,309,0
301,307,305,308,0
304,318,304,308,0
309,328,303,309,0
315,331,303,310,0
318,329,303,312,0
318,325,303,314,0
313,318,303,312,0
307,307,303,308,0
301,301,303,303,0
297,301,302,301,0
294,303,302,301,0
292,303,302,303,0
294,305,304,306,0
300,310,306,309,0
305,313,308,311,0
310,310,309,311,0
313,300,309,310,0
314,286,308,307,0
313,273,308,303,0
312,268,308,298,0
312,273,307,295,0
313,285,307,293,0
314,298,306,292,0
316,307,304,293,0
316,312,302,294,0
313,314,301,298,0
306,312,300,303,0
296,306,301,308,0
289,297,301,313,0
288,295,301,315,0
292,298,300,315,0
297,302,299,312,0
301,302,298,308,0
307,304,299,306,0
313,311,301,305,0
316,316,303,307,0
316,317,304,310,0
314,315,305,316,0
310,315,305,323,0
306,316,304,328,0
303,321,303,329,0
301,328,302,327,0
300,335,301,322,0
300,339,300,316,0
299,338,300,309,0
300,332,299,302,0
304,324,298,298,0
308,318,298,295,0
311,313,297,293,0
312,311,296,293,0
313,308,295,294,0
312,307,295,295,0
311,305,295,297,0
309,304,296,300,0
307,302,296,303,0
304,299,297,305,0
302,293,298,305,0
303,290,300,304,0
307,289,302,305,0
312,283,303,306,0
314,276,304,308,0
315,270,304,312,0
314,268,304,315,0
311,273,303,317,0
308,285,302,319,0
305,297,302,320,0
300,307,301,320,0
294,315,300,319,0
289,323,298,317,0
285,330,297,313,0
287,338,296,308,0
296,341,296,301,0
306,338,297,293,0
315,329,298,285,0
323,317,298,281,0
326,307,298,279,0
324,303,298,280,0
322,303,298,282,0
321,303,298,286,0
318,303,298,291,0
312,301,298,296,0
308,299,300,301,0
305,297,302,305,0
302,298,303,307,0
300,304,302,308,0
298,315,302,308,0
298,327,301,309,0
300,331,301,310,0
303,326,302,310,0
305,314,301,309,0
306,300,301,308,0
305,289,300,306,0
306,285,300,305,0
307,287,301,307,0
309,292,302,311,0
309,297,303,313,0
309,303,304,316,0
308,312,305,316,0
308,319,306,315,0
308,326,308,313,0
309,329,308,311,0
310,326,308,311,0
309,316,307,311,0
309,304,305,309,0
307,294,303,308,0
305,286,300,306,0
304,287,299,305,0
304,303,298,305,0
305,328,297,304,0
306,343,296,304,0
308,345,295,305,0
309,336,294,308,0
309,327,294,310,0
308,318,295,311,0
307,311,295,311,0
306,302,296,309,0
305,292,297,306,0
304,283,299,302,0
304,280,300,298,0
305,284,300,295,0
307,295,299,294,0
309,309,298,294,0
309,320,298,294,0
309,329,297,295,0
307,334,297,295,0
305,335,298,297,0
304,335,300,300,0
307,332,302,302,0
310,327,302,303,0
311,316,302,304,0
308,304,301,304,0
304,290,300,303,0
300,277,298,303,0
299,266,298,303,0
301,261,298,306,0
307,266,299,310,0
315,276,300,314,0
320,288,300,318,0
318,299,302,323,0
312,307,304,328,0
306,311,305,331,0
300,311,303,330,0
297,310,301,328,0
296,314,299,325,0
299,322,297,323,0
302,329,297,320,0
304,334,297,319,0
305,337,297,319,0
304,339,297,321,0
304,337,297,323,0
306,329,296,325,0
307,316,295,323,0
308,301,294,319,0
310,286,293,314,0
312,278,294,308,0
314,278,295,303,0
316,283,297,300,0
318,287,300,300,0
318,290,302,302,0
316,292,302,304,0
314,291,301,304,0
311,292,298,303,0
309,292,296,301,0
307,296,293,298,0
305,304,290,294,0
302,314,288,292,0
300,322,288,293,0
301,326,289,294,0
303,327,291,295,0
305,325,292,295,0
304,322,293,294,0
301,320,295,294,0
297,320,297,294,0
295,318,298,296,0
296,313,299,300,0
301,304,300,304,0
308,295,301,307,0
313,285,301,308,0
315,276,301,307,0
313,272,301,308,0
312,276,300,311,0
312,284,301,314,0
312,293,302,318,0
311,301,302,320,0
310,304,301,322,0
308,299,299,324,0
306,290,297,325,0
305,283,295,324,0
307,282,293,320,0
309,282,292,315,0
309,283,292,309,0
309,286,293,304,0
308,294,293,299,0
308,303,294,296,0
308,311,295,294,0
309,317,297,295,0
311,321,299,297,0
314,321,301,300,0
315,319,302,303,0
315,314,303,307,0
314,307,303,310,0
314,299,303,313,0
313,292,302,316,0
311,288,301,317,0
308,288,300,315,0
306,290,299,310,0
306,295,297,304,0
305,304,296,299,0
305,309,295,297,0
306,313,294,295,0
307,316,294,295,0
308,318,294,295,0
309,318,294,295,0
310,319,293,295,0
311,321,293,295,0
311,321,293,297,0
310,320,294,300,0
310,313,296,304,0
308,303,298,308,0
308,300,300,313,0
309,309,302,317,0
311,321,303,320,0
315,330,304,323,0
318,332,304,323,0
315,328,304,322,0
310,320,303,320,0
305,313,301,318,0
303,311,300,316,0
303,312,300,315,0
303,311,299,314,0
302,303,299,316,0
301,290,299,319,0
303,275,299,321,0
306,264,300,323,0
312,259,301,324,0
318,263,302,325,0
322,274,303,325,0
321,289,301,324,0
318,301,300,322,0
313,311,299,318,0
309,322,299,313,0
304,330,299,307,0
301,332,300,302,0
299,330,301,297,0
302,326,301,292,0
305,321,301,287,0
306,317,300,284,0
305,315,298,283,0
303,315,297,282,0
303,316,296,283,0
304,319,294,284,0
306,320,294,286,0
308,321,294,290,0
310,320,295,294,0
312,319,297,298,0
315,316,299,302,0
318,310,301,305,0
319,301,302,307,0
319,288,303,309,0
315,280,302,309,0
308,284,302,312,0
302,297,303,316,0
298,310,304,320,0
298,318,304,323,0
299,320,303,324,0
300,318,302,323,0
300,315,301,320,0
300,314,300,318,0
300,316,300,316,0
301,322,301,314,0
302,327,301,313,0
304,325,300,311,0
305,318,300,311,0
307,311,299,311,0
310,305,300,312,0
313,300,301,315,0
315,296,303,322,0
318,293,305,329,0
319,293,305,334,0
321,296,305,337,0
321,304,304,336,0
321,316,303,333,0
320,326,302,329,0
317,327,301,324,0
314,321,300,320,0
310,312,299,316,0
307,301,298,310,0
304,288,297,303,0
302,272,296,298,0
301,258,296,295,0
303,256,295,295,0
308,263,295,297,0
315,272,296,301,0
321,283,298,305,0
322,297,300,310,0
315,306,301,312,0
308,308,301,312,0
301,304,300,310,0
297,301,298,306,0
297,305,298,303,0
297,318,299,301,0
296,328,303,301,0
295,331,307,300,0
299,331,309,298,0
304,329,307,295,0
306,324,305,292,0
305,317,303,290,0
302,306,302,289,0
298,297,301,290,0
296,294,300,292,0
297,299,299,295,0
298,312,300,299,0
300,324,301,303,0
301,335,302,308,0
301,346,303,315,0
300,354,304,322,0
299,355,305,330,0
297,344,306,337,0
297,327,307,343,0
296,312,308,346,0
294,302,309,347,0
293,296,310,347,0
294,294,310,345,0
299,298,310,342,0
305,308,309,337,0
310,321,308,330,0
311,327,306,319,0
309,324,303,308,0
305,312,301,298,0
300,295,298,292,0
297,280,299,291,0
297,270,300,292,0
299,269,301,295,0
303,275,303,299,0
308,285,304,302,0
313,295,306,306,0
319,303,307,310,0
322,311,309,313,0
323,320,310,317,0
322,331,309,319,0
319,337,308,323,0
316,338,308,326,0
313,334,308,329,0
311,328,307,330,0
309,322,306,330,0
307,319,306,329,0
306,316,304,328,0
305,312,303,326,0
304,309,300,321,0
303,307,298,316,0
303,308,297,313,0
306,309,297,310,0
309,305,297,305,0
312,300,298,300,0
314,297,299,297,0
314,298,300,299,0
312,299,301,302,0
310,302,303,307,0
309,306,305,309,0
307,307,306,308,0
305,302,306,304,0
303,296,306,298,0
302,287,305,293,0
303,274,306,291,0
306,266,307,292,0
304,268,307,296,0
300,281,307,300,0
298,295,306,304,0
301,309,305,308,0
307,321,304,311,0
314,333,303,312,0
318,344,301,312,0
321,355,300,310,0
322,365,300,308,0
319,367,300,304,0
315,360,301,301,0
311,345,304,299,0
310,326,307,301,0
310,305,309,304,0
308,282,310,306,0
303,262,309,307,0
296,252,308,306,0
291,254,308,303,0
288,265,307,301,0
288,279,307,299,0
288,294,306,297,0
289,309,304,296,0
290,323,302,296,0
294,332,301,297,0
300,337,300,298,0
305,340,298,299,0
308,343,297,300,0
309,343,296,302,0
310,347,297,304,0
312,356,298,308,0
313,361,301,312,0
314,356,302,315,0
314,342,305,320,0
314,324,307,325,0
314,306,309,330,0
313,292,309,333,0
312,283,309,336,0
310,283,308,337,0
308,290,307,336,0
306,297,306,334,0
304,298,303,330,0
303,295,301,326,0
302,294,300,321,0
304,297,298,316,0
306,303,298,311,0
309,311,300,308,0
312,319,302,304,0
315,323,304,301,0
317,325,305,299,0
318,325,305,298,0
318,320,306,298,0
318,312,307,299,0
316,302,307,301,0
313,297,306,304,0
306,296,306,307,0
299,301,305,310,0
293,307,305,313,0
289,313,304,316,0
284,315,303,317,0
281,312,303,319,0
279,309,304,322,0
281,306,305,324,0
286,301,305,325,0
291,292,306,323,0
297,284,306,318,0
303,283,305,310,0
307,286,304,301,0
309,290,303,294,0
310,292,302,293,0
310,296,304,295,0
311,304,305,299,0
311,316,306,303,0
313,327,307,307,0
316,331,307,311,0
318,327,308,313,0
315,320,308,315,0
307,312,308,315,0
300,312,308,313,0
295,320,306,308,0
291,331,304,301,0
289,337,300,292,0
290,341,298,284,0
293,336,297,280,0
299,321,298,278,0
305,308,302,279,0
308,306,305,281,0
306,311,307,283,0
302,316,310,287,0
301,317,313,295,0
302,311,316,306,0
304,300,317,316,0
306,288,318,323,0
308,282,319,329,0
310,282,319,333,0
311,288,319,335,0
311,297,319,335,0
311,306,320,333,0
310,311,319,329,0
308,313,318,324,0
307,314,317,317,0
305,318,316,311,0
305,322,315,305,0
304,322,314,301,0
304,321,313,296,0
305,315,311,291,0
305,304,309,286,0
304,290,308,283,0
304,276,308,281,0
305,264,308,279,0
306,259,309,277,0
308,261,310,275,0
310,266,312,275,0
311,272,313,278,0
312,278,315,281,0
312,283,317,285,0
314,284,317,290,0
313,285,315,294,0
312,289,313,296,0
309,299,310,298,0
303,313,308,299,0
298,328,308,301,0
297,342,309,304,0
299,352,310,306,0
300,354,311,308,0
302,352,311,309,0
302,346,310,310,0
302,337,310,309,0
301,327,308,310,0
300,320,307,311,0
300,317,307,313,0
299,315,307,315,0
300,314,308,316,0
301,313,310,315,0
303,315,311,313,0
304,320,313,312,0
306,330,313,311,0
306,341,313,310,0
306,348,311,309,0
305,349,310,310,0
305,342,308,313,0
304,331,309,316,0
304,322,310,321,0
305,318,310,325,0
307,318,310,328,0
309,318,309,328,0
311,317,308,325,0
312,313,306,320,0
311,306,305,313,0
311,297,304,307,0
311,296,304,303,0
314,304,305,302,0
320,316,306,302,0
326,320,307,301,0
325,317,307,298,0
318,307,307,293,0
308,296,306,287,0
302,289,306,283,0
298,289,306,280,0
296,293,305,280,0
295,298,304,280,0
295,304,302,282,0
296,309,302,284,0
298,312,302,288,0
301,314,302,291,0
306,313,303,297,0
310,308,303,304,0
313,301,302,312,0
314,291,303,320,0
316,281,306,327,0
319,273,309,332,0
321,269,310,336,0
320,270,311,339,0
316,277,311,340,0
310,285,312,341,0
303,294,312,339,0
300,301,311,334,0
299,303,310,327,0
299,301,309,318,0
300,298,307,311,0
301,301,306,304,0
302,310,305,298,0
304,323,304,293,0
306,332,303,288,0
308,335,301,284,0
309,333,298,283,0
308,321,297,283,0
307,304,295,283,0
307,295,295,287,0
308,300,296,293,0
310,310,299,302,0
312,318,302,310,0
312,324,305,317,0
311,328,308,321,0
310,331,310,323,0
310,333,310,321,0
310,334,310,316,0
310,336,310,309,0
308,338,309,304,0
306,341,309,301,0
306,339,309,302,0
307,333,309,303,0
308,324,309,305,0
310,316,309,307,0
310,311,310,310,0
310,310,309,312,0
309,310,308,315,0
309,309,308,319,0
307,305,308,322,0
306,300,308,323,0
304,294,308,321,0
304,290,307,318,0
304,288,308,313,0
303,290,308,307,0
302,300,308,301,0
302,313,308,297,0
304,319,309,294,0
308,317,309,291,0
311,311,308,289,0
312,306,306,288,0
313,306,304,287,0
315,312,304,287,0
319,319,303,287,0
324,324,302,289,0
326,324,303,291,0
319,321,303,294,0
309,316,304,296,0
301,309,304,298,0
298,299,304,300,0
297,286,305,303,0
297,272,306,305,0
296,261,308,307,0
296,253,309,310,0
296,245,310,312,0
297,246,312,314,0
300,263,315,316,0
305,290,315,316,0
306,317,314,314,0
308,336,313,312,0
311,345,312,311,0
315,346,310,311,0
318,342,308,313,0
317,333,308,316,0
315,322,308,319,0
312,314,309,322,0
309,313,309,324,0
306,315,310,325,0
303,318,309,325,0
302,318,309,326,0
301,315,309,325,0
302,309,309,324,0
302,303,309,323,0
303,300,309,324,0
304,300,310,326,0
304,301,310,325,0
304,307,311,322,0
302,315,311,314,0
298,320,311,306,0
295,327,311,298,0
295,336,312,293,0
297,344,312,291,0
299,345,313,291,0
301,346,314,295,0
302,346,316,301,0
302,342,316,308,0
301,329,316,314,0
300,311,314,316,0
299,293,313,315,0
299,278,312,313,0
300,269,312,311,0
303,269,312,309,0
305,276,313,307,0
306,284,313,305,0
307,292,314,304,0
308,301,315,303,0
308,307,316,304,0
307,311,316,308,0
306,311,317,315,0
303,311,318,324,0
302,312,318,333,0
302,313,319,338,0
304,314,319,340,0
307,316,317,338,0
308,316,315,334,0
306,314,313,327,0
306,313,310,319,0
305,315,309,312,0
304,316,308,306,0
304,318,308,302,0
306,324,308,300,0
311,332,309,300,0
314,339,312,300,0
313,341,314,300,0
311,340,315,298,0
310,339,315,295,0
310,337,313,291,0
310,335,310,286,0
310,332,307,280,0
310,326,305,276,0
311,318,303,274,0
310,313,302,273,0
306,309,302,275,0
299,308,303,278,0
296,307,304,283,0
297,304,307,289,0
299,297,309,294,0
299,288,309,298,0
299,280,309,302,0
299,273,309,304,0
300,265,308,306,0
299,259,307,308,0
300,258,307,311,0
300,264,308,312,0
299,267,308,314,0
298,266,307,315,0
297,262,307,318,0
296,262,306,321,0
297,267,306,325,0
299,280,308,329,0
303,300,311,333,0
309,324,314,337,0
315,345,317,339,0
318,358,317,338,0
318,363,316,332,0
317,362,314,323,0
316,357,312,314,0
315,347,309,308,0
313,336,308,305,0
312,329,307,305,0
310,326,307,307,0
308,327,308,309,0
304,328,308,310,0
300,328,309,309,0
297,327,310,307,0
297,326,311,306,0
301,324,312,302,0
305,322,313,298,0
307,319,313,292,0
307,312,312,287,0
308,301,312,285,0
309,290,312,286,0
310,283,312,288,0
311,279,313,290,0
311,277,313,293,0
310,277,312,295,0
309,283,311,297,0
308,292,311,301,0
309,304,310,306,0
311,315,310,312,0
314,317,311,317,0
314,311,312,321,0
309,300,313,324,0
303,292,314,327,0
303,290,316,330,0
306,298,317,333,0
310,315,317,333,0
311,330,316,329,0
308,335,314,321,0
304,328,312,310,0
301,314,311,299,0
300,297,311,291,0
300,284,311,285,0
303,277,311,283,0
310,278,312,283,0
316,283,311,285,0
322,286,311,288,0
324,286,310,292,0
321,284,310,295,0
314,281,310,299,0
308,281,310,301,0
304,282,311,303,0
301,291,312,305,0
302,304,313,309,0
304,315,315,312,0
306,319,316,315,0
307,321,316,315,0
306,324,316,315,0
304,327,314,314,0
303,328,313,312,0
302,330,312,312,0
302,336,312,312,0
303,343,312,312,0
304,345,312,310,0
305,344,311,308,0
306,343,310,304,0
306,344,308,300,0
306,347,306,297,0
307,349,305,295,0
307,348,305,295,0
308,338,304,295,0
308,324,305,297,0
308,306,305,298,0
307,292,306,300,0
306,284,308,303,0
304,287,310,306,0
305,298,310,309,0
309,308,311,312,0
312,310,311,313,0
314,308,312,314,0
317,306,312,313,0
318,303,312,311,0
318,297,311,307,0
316,288,310,302,0
314,279,308,300,0
313,274,305,298,0
311,274,301,297,0
310,279,299,296,0
310,284,298,297,0
311,286,299,299,0
312,281,301,304,0
311,274,303,312,0
311,265,306,320,0
310,263,308,325,0
309,273,311,328,0
308,290,314,329,0
307,311,316,328,0
306,331,317,323,0
304,346,317,318,0
303,351,316,312,0
302,347,314,307,0
302,337,313,307,0
302,324,312,308,0
303,311,311,311,0
303,301,310,315,0
304,297,310,318,0
306,305,309,322,0
309,318,309,328,0
313,327,308,333,0
314,330,308,336,0
313,329,308,338,0
311,331,308,336,0
309,336,308,330,0
307,341,310,322,0
303,343,311,314,0
299,340,311,305,0
295,334,310,297,0
294,323,308,290,0
295,311,305,285,0
297,302,303,281,0
299,300,302,282,0
302,304,301,285,0
307,313,301,289,0
311,318,301,293,0
315,320,302,298,0
318,318,302,302,0
319,314,302,303,0
320,310,302,302,0
321,307,301,301,0
321,303,301,302,0
322,297,302,303,0
323,288,302,307,0
323,276,303,311,0
324,264,303,314,0
318,253,302,315,0
308,249,301,313,0
299,253,299,308,0
294,260,298,300,0
294,272,297,294,0
298,288,297,290,0
303,300,297,289,0
305,301,297,288,0
305,298,296,287,0
303,299,295,287,0
302,304,295,288,0
301,311,295,289,0
302,317,295,292,0
303,322,295,294,0
303,324,296,296,0
304,325,297,298,0
306,328,298,301,0
309,331,299,306,0
312,336,301,311,0
313,342,304,316,0
314,345,306,320,0
313,344,308,323,0
312,337,309,322,0
311,327,310,319,0
309,319,309,315,0
307,311,308,311,0
306,307,306,309,0
306,305,305,310,0
306,303,305,311,0
307,298,305,314,0
308,292,304,315,0
309,288,304,314,0
312,290,303,312,0
316,296,303,310,0
318,307,303,309,0
317,320,304,310,0
315,338,306,315,0
312,355,309,321,0
309,363,310,325,0
306,359,311,327,0
304,347,311,328,0
302,330,311,324,0
300,310,310,318,0
297,293,308,311,0
295,283,307,305,0
297,284,308,303,0
302,288,309,303,0
305,289,310,307,0
306,285,310,312,0
305,280,310,317,0
304,276,309,319,0
302,275,308,319,0
300,278,306,316,0
300,284,305,313,0
301,289,305,313,0
304,292,305,312,0
306,296,305,313,0
309,305,306,314,0
311,316,309,316,0
311,326,311,320,0
311,331,312,324,0
310,331,313,327,0
307,328,313,328,0
305,322,311,327,0
302,317,309,322,0
297,310,307,314,0
291,306,304,304,0
285,305,302,297,0
280,306,301,290,0
279,305,301,287,0
284,305,302,287,0
291,307,302,289,0
299,309,303,294,0
306,308,305,301,0
310,307,306,308,0
313,308,306,314,0
314,308,307,317,0
317,304,307,318,0
320,298,308,318,0
322,293,309,318,0
320,289,309,317,0
310,285,309,316,0
297,287,309,316,0
290,293,308,314,0
290,298,307,311,0
295,309,306,307,0
303,324,304,303,0
309,331,304,298,0
313,326,303,295,0
312,312,303,292,0
309,299,303,290,0
306,293,302,290,0
304,290,302,289,0
303,290,301,288,0
303,295,301,288,0
304,303,300,288,0
305,314,301,290,0
308,325,301,293,0
310,333,303,296,0
311,337,304,299,0
309,335,305,301,0
304,329,306,303,0
298,321,306,303,0
293,317,307,302,0
290,319,308,302,0
289,323,309,303,0
289,325,310,304,0
290,325,311,305,0
292,318,311,305,0
294,306,310,304,0
297,292,308,304,0
300,280,308,304,0
304,273,307,305,0
308,276,307,307,0
312,288,308,309,0
315,301,310,311,0
316,310,312,314,0
315,312,314,319,0
314,308,315,327,0
311,301,317,335,0
309,295,319,342,0
308,294,320,346,0
310,298,320,346,0
312,305,320,343,0
311,310,318,337,0
310,311,316,333,0
308,307,315,330,0
306,302,312,328,0
303,298,309,326,0
299,297,304,323,0
295,296,302,318,0
293,293,301,312,0
295,291,302,306,0
297,292,302,302,0
298,297,303,300,0
300,305,303,298,0
304,314,304,298,0
310,325,305,298,0
316,334,306,298,0
322,338,307,295,0
327,336,307,291,0
330,327,307,287,0
332,315,307,284,0
327,303,307,283,0
315,294,307,282,0
304,286,307,284,0
296,281,306,286,0
291,276,306,288,0
290,269,305,288,0
291,264,305,287,0
294,268,304,286,0
298,275,305,287,0
304,284,308,290,0
310,291,309,294,0
314,295,310,299,0
316,297,311,305,0
318,302,311,310,0
320,311,311,315,0
322,323,311,318,0
322,331,312,321,0
320,335,314,322,0
317,333,315,323,0
314,324,316,324,0
311,314,316,325,0
309,308,315,326,0
308,309,313,325,0
308,312,312,325,0
309,313,310,324,0
310,310,309,321,0
308,305,308,317,0
306,304,308,312,0
305,309,308,308,0
304,316,307,304,0
304,322,306,299,0
303,323,304,294,0
304,322,301,290,0
305,316,301,288,0
307,304,300,287,0
307,288,301,287,0
303,273,301,288,0
297,264,301,290,0
291,259,302,293,0
290,262,302,296,0
299,275,304,299,0
313,290,305,301,0
320,301,305,302,0
320,307,304,300,0
316,310,303,297,0
311,312,303,295,0
307,312,302,293,0
306,313,302,293,0
306,317,302,293,0
307,322,302,293,0
309,325,302,294,0
309,325,301,296,0
309,322,302,300,0
309,317,302,303,0
309,310,303,306,0
309,306,303,310,0
310,312,304,312,0
311,322,306,313,0
311,330,307,314,0
310,332,308,315,0
306,330,309,316,0
303,325,310,318,0
300,317,310,320,0
300,307,309,321,0
302,296,308,322,0
302,288,308,323,0
304,285,306,322,0
306,289,305,319,0
309,303,304,315,0
312,321,302,309,0
316,333,302,304,0
320,337,302,301,0
325,335,302,301,0
326,329,302,304,0
322,324,302,308,0
315,318,303,312,0
309,311,305,314,0
304,304,306,314,0
302,300,306,312,0
299,300,306,308,0
298,301,305,306,0
297,300,304,304,0
295,296,303,301,0
295,289,302,299,0
294,280,301,298,0
295,279,300,298,0
296,286,299,298,0
298,295,299,299,0
301,305,300,302,0
304,316,301,305,0
307,323,302,308,0
308,325,303,310,0
309,325,304,312,0
308,323,305,316,0
308,320,306,321,0
309,316,307,328,0
309,315,308,334,0
311,317,310,337,0
312,323,310,336,0
313,327,310,332,0
311,328,309,326,0
309,324,307,320,0
306,315,306,315,0
304,306,305,312,0
304,299,304,312,0
304,295,303,314,0
305,293,303,315,0
305,285,304,315,0
302,274,305,313,0
297,264,305,311,0
295,259,305,308,0
297,265,306,304,0
301,280,305,301,0
305,296,304,298,0
308,309,303,297,0
309,318,303,296,0
309,322,303,297,0
307,323,304,297,0
305,322,304,297,0
305,323,305,297,0
305,323,305,296,0
305,321,304,295,0
306,319,304,294,0
307,319,304,294,0
308,313,304,295,0
308,301,303,296,0
309,289,303,298,0
312,281,303,301,0
315,283,302,302,0
318,296,300,302,0
320,313,298,302,0
317,327,298,303,0
311,333,298,304,0
306,330,299,305,0
303,324,300,307,0
303,322,302,309,0
303,323,303,312,0
303,327,304,313,0
303,330,304,315,0
303,331,305,317,0
303,331,305,318,0
302,328,304,319,0
299,321,303,319,0
296,310,303,319,0
292,298,302,318,0
290,289,301,317,0
293,287,301,315,0
298,295,301,313,0
303,316,301,311,0
305,339,299,308,0
305,356,298,305,0
304,361,297,302,0
303,358,296,301,0
304,352,297,301,0
307,343,300,303,0
310,329,302,307,0
314,314,305,312,0
317,298,307,318,0
319,284,309,323,0
319,275,310,326,0
318,274,310,329,0
317,280,311,332,0
314,291,312,337,0
313,302,312,341,0
313,309,312,344,0
313,311,312,344,0
313,309,310,343,0
311,309,309,340,0
311,310,306,337,0
309,309,304,334,0
305,305,302,329,0
302,299,302,324,0
301,291,303,320,0
301,281,303,316,0
302,271,303,313,0
301,263,303,310,0
300,263,303,309,0
299,266,302,310,0
299,267,302,309,0
298,266,301,305,0
299,269,300,299,0
300,280,299,291,0
302,296,298,283,0
303,309,297,276,0
304,317,296,271,0
305,322,297,270,0
308,326,298,272,0
311,333,300,276,0
313,340,301,279,0
314,343,300,282,0
316,342,299,285,0
319,336,298,287,0
323,329,296,290,0
323,321,295,292,0
318,313,295,295,0
312,307,296,298,0
310,303,300,302,0
308,300,302,305,0
307,297,304,308,0
304,295,304,311,0
300,296,304,313,0
297,301,303,315,0
294,306,303,317,0
293,311,303,318,0
295,317,303,320,0
298,321,302,320,0
300,321,302,319,0
302,316,302,317,0
303,307,301,316,0
304,299,301,314,0
304,295,301,312,0
305,292,300,310,0
306,292,300,309,0
308,296,301,308,0
311,300,302,308,0
313,304,303,310,0
315,305,303,313,0
316,304,303,317,0
316,299,303,320,0
315,292,303,320,0
311,281,302,318,0
305,267,301,313,0
299,256,300,310,0
293,250,300,307,0
287,255,301,305,0
284,269,301,303,0
285,288,301,301,0
293,305,301,299,0
305,317,300,297,0
313,323,298,295,0
314,325,296,293,0
312,325,295,293,0
308,327,294,293,0
305,337,294,294,0
305,350,295,297,0
307,351,297,301,0
309,341,297,307,0
310,330,298,315,0
311,325,299,322,0
312,325,301,327,0
311,323,301,328,0
310,316,300,327,0
308,306,300,325,0
306,294,299,322,0
304,285,298,320,0
300,281,299,320,0
296,283,300,322,0
294,289,302,324,0
294,297,304,323,0
297,307,304,320,0
303,318,303,316,0
311,326,302,313,0
319,328,300,311,0
325,324,299,311,0
330,319,298,311,0
332,313,298,311,0
329,311,299,308,0
320,310,300,304,0
311,311,301,299,0
305,311,301,295,0
302,311,301,291,0
302,310,301,290,0
302,313,301,289,0
304,317,301,290,0
304,324,301,291,0
304,334,301,293,0
304,342,301,295,0
303,340,301,297,0
301,327,300,298,0
301,312,299,298,0
303,300,298,298,0
307,290,298,299,0
308,283,299,300,0
307,278,301,303,0
304,273,303,306,0
303,270,305,311,0
306,272,308,318,0
310,282,309,325,0
312,294,311,331,0
312,304,312,336,0
311,312,312,338,0
310,318,312,339,0
310,324,311,338,0
310,326,310,334,0
309,325,310,329,0
309,321,308,323,0
309,315,308,317,0
310,304,306,312,0
313,291,305,307,0
316,279,303,302,0
318,271,301,299,0
316,268,299,297,0
311,274,298,297,0
306,288,297,298,0
302,300,297,297,0
300,304,296,296,0
300,301,296,297,0
302,296,297,297,0
305,294,297,298,0
308,295,298,301,0
309,299,300,307,0
308,301,302,313,0
307,302,303,317,0
306,303,303,319,0
304,304,304,318,0
303,307,303,315,0
300,310,302,312,0
299,314,302,309,0
298,318,303,308,0
300,323,304,310,0
304,330,305,312,0
312,336,306,314,0
319,338,307,315,0
324,332,306,315,0
326,319,306,314,0
328,307,306,311,0
329,305,307,308,0
324,309,307,305,0
315,317,307,302,0
308,324,306,299,0
304,326,306,297,0
303,322,306,296,0
302,312,305,295,0
303,300,303,295,0
304,292,301,295,0
306,292,299,298,0
308,303,298,302,0
312,311,298,306,0
313,305,299,308,0
311,294,299,308,0
308,289,299,306,0
304,287,299,303,0
301,285,300,300,0
301,287,300,298,0
300,295,301,297,0
300,305,301,298,0
300,316,302,299,0
300,322,302,300,0
300,320,302,300,0
300,310,302,300,0
300,299,302,302,0
300,296,304,305,0
299,301,306,309,0
298,311,307,316,0
299,320,308,322,0
300,325,309,327,0
301,328,309,330,0
303,327,309,332,0
305,322,309,332,0
307,316,309,331,0
307,309,308,329,0
308,302,308,326,0
308,294,308,321,0
308,288,308,315,0
308,286,308,310,0
308,287,308,308,0
307,290,310,307,0
307,297,311,308,0
308,304,313,310,0
310,309,314,311,0
312,311,314,314,0
310,309,313,317,0
305,305,312,319,0
298,298,311,320,0
293,289,311,318,0
291,283,311,315,0
293,280,310,311,0
299,280,310,306,0
306,280,310,303,0
311,282,309,300,0
312,285,308,299,0
313,289,307,301,0
314,295,307,307,0
316,299,308,315,0
315,301,308,321,0
314,302,308,323,0
312,301,309,324,0
310,304,310,323,0
310,310,311,321,0
310,318,312,318,0
309,322,312,313,0
309,320,313,308,0
310,310,313,302,0
306,293,312,295,0
298,278,311,288,0
293,272,310,283,0
290,274,309,282,0
291,277,309,282,0
293,283,310,283,0
295,289,309,284,0
297,295,309,285,0
300,301,308,286,0
303,308,308,289,0
305,315,308,292,0
306,320,310,296,0
305,325,314,301,0
304,331,318,307,0
302,334,320,313,0
302,335,321,318,0
303,333,322,323,0
304,329,321,325,0
303,320,320,326,0
302,312,318,325,0
301,308,316,322,0
302,308,315,319,0
304,313,314,315,0
305,323,313,311,0
306,334,313,308,0
306,344,312,306,0
304,347,312,306,0
301,342,312,307,0
296,329,312,309,0
291,314,312,312,0
287,298,314,314,0
290,283,317,317,0
296,271,319,319,0
304,266,322,321,0
309,269,324,324,0
311,275,326,328,0
311,287,326,330,0
308,301,324,331,0
305,312,321,329,0
304,316,318,327,0
304,311,316,324,0
304,303,314,320,0
303,295,313,315,0
301,292,311,308,0
299,299,310,304,0
298,311,309,301,0
299,323,308,300,0
300,329,307,301,0
302,326,307,303,0
303,316,307,305,0
304,302,307,310,0
304,284,308,317,0
303,265,309,326,0
303,254,309,333,0
305,253,310,338,0
309,259,310,340,0
312,269,310,338,0
313,279,310,335,0
313,291,311,331,0
313,304,311,326,0
309,314,309,319,0
301,321,308,312,0
293,327,306,305,0
289,332,305,301,0
288,339,304,299,0
291,345,304,299,0
295,348,303,300,0
299,347,303,301,0
301,346,303,301,0
302,345,303,300,0
303,344,304,300,0
304,339,305,301,0
305,330,307,303,0
306,317,310,307,0
308,304,312,312,0
309,297,314,316,0
310,297,314,319,0
311,301,313,320,0
311,306,311,320,0
311,311,310,319,0
309,312,309,317,0
306,304,308,315,0
302,290,307,312,0
299,271,305,308,0
294,251,302,304,0
287,238,298,300,0
279,236,296,297,0
274,247,295,294,0
273,263,296,293,0
279,280,299,295,0
288,298,301,297,0
295,313,302,301,0
298,321,302,304,0
300,321,302,309,0
302,319,303,313,0
305,317,303,317,0
306,317,304,318,0
306,315,303,318,0
303,311,303,317,0
300,303,303,316,0
296,295,302,316,0
295,290,301,317,0
298,290,301,322,0
306,291,300,327,0
315,294,299,329,0
323,299,297,329,0
326,307,296,328,0
323,319,294,324,0
317,330,292,321,0
311,336,293,320,0
306,334,293,317,0
302,318,294,313,0
300,295,294,310,0
301,281,296,309,0
303,278,298,309,0
305,281,300,310,0
307,286,301,310,0
309,292,302,311,0
311,298,302,311,0
313,301,302,312,0
316,302,301,314,0
316,300,301,314,0
309,298,301,314,0
299,296,301,313,0
292,298,302,314,0
290,306,303,315,0
290,313,304,316,0
291,318,304,316,0
294,320,304,315,0
298,323,304,316,0
302,324,305,316,0
305,322,306,318,0
307,316,307,320,0
308,308,308,322,0
309,303,308,325,0
310,301,308,326,0
310,300,307,322,0
309,299,305,314,0
306,299,302,304,0
301,301,300,296,0
295,305,298,290,0
291,310,298,286,0
290,316,299,284,0
293,318,301,282,0
298,315,302,281,0
301,307,303,280,0
302,295,303,279,0
302,281,303,279,0
302,271,303,280,0
305,265,304,283,0
310,264,304,287,0
315,270,304,290,0
316,281,305,294,0
315,294,306,299,0
312,300,307,306,0
310,303,308,313,0
308,308,310,320,0
307,317,312,326,0
306,327,313,329,0
305,335,313,330,0
303,336,311,329,0
302,330,310,325,0
304,319,309,323,0
305,305,307,323,0
306,293,306,322,0
305,283,305,320,0
304,278,304,316,0
302,276,303,310,0
300,279,302,303,0
298,284,302,296,0
298,288,302,292,0
300,291,302,290,0
306,293,303,290,0
310,295,304,291,0
313,294,305,292,0
313,290,305,294,0
312,290,305,294,0
310,293,305,296,0
308,294,304,296,0
306,293,304,299,0
304,294,302,301,0
302,300,301,303,0
302,310,300,305,0
306,321,299,309,0
311,333,300,313,0
310,345,301,316,0
305,346,302,318,0
299,336,301,318,0
295,324,299,318,0
295,318,299,319,0
298,315,300,322,0
302,312,302,325,0
305,307,304,327,0
305,302,306,326,0
304,298,308,323,0
302,297,309,319,0
301,297,310,312,0
301,297,309,305,0
302,298,309,299,0
303,298,308,295,0
303,293,307,290,0
302,286,306,285,0
301,283,305,282,0
300,284,304,281,0
300,288,304,280,0
299,292,304,281,0
299,297,304,283,0
300,303,304,286,0
299,306,304,291,0
297,308,304,296,0
298,312,304,301,0
303,317,305,304,0
308,322,306,307,0
311,326,307,310,0
313,331,308,315,0
313,332,310,319,0
313,331,311,322,0
312,324,311,322,0
312,314,311,320,0
312,303,311,317,0
311,294,311,315,0
307,288,310,315,0
302,287,308,315,0
297,288,307,315,0
295,293,306,314,0
295,299,305,314,0
298,304,304,315,0
301,306,304,315,0
303,308,304,314,0
304,309,304,312,0
305,307,303,307,0
305,301,303,302,0
305,293,303,298,0
305,287,304,296,0
305,287,305,296,0
304,293,306,297,0
301,304,307,298,0
297,317,306,299,0
293,326,305,300,0
292,331,305,300,0
292,330,305,300,0
294,327,306,300,0
297,323,308,301,0
300,319,309,302,0
301,313,309,302,0
301,305,309,301,0
300,293,308,301,0
299,278,308,301,0
300,265,309,303,0
303,259,310,306,0
309,261,312,309,0
314,270,313,312,0
319,281,313,315,0
323,297,314,317,0
322,322,315,321,0
315,348,315,326,0
307,363,316,331,0
301,365,316,334,0
297,363,316,337,0
297,357,316,340,0
301,351,316,343,0
306,345,316,346,0
307,340,316,345,0
302,335,314,343,0
296,330,314,338,0
290,325,313,333,0
289,317,313,326,0
290,307,313,320,0
291,297,313,316,0
294,287,313,312,0
299,278,315,311,0
304,273,317,313,0
308,270,320,316,0
310,267,322,320,0
310,267,324,322,0
308,269,325,319,0
307,268,325,313,0
306,269,323,304,0
305,282,321,296,0
303,301,318,289,0
301,317,316,286,0
301,325,315,286,0
303,326,315,289,0
307,321,315,293,0
311,312,315,296,0
313,308,314,294,0
313,309,312,290,0
311,312,309,286,0
309,315,308,285,0
308,315,309,287,0
308,308,310,290,0
308,298,312,293,0
308,292,314,297,0
309,293,315,299,0
310,302,316,300,0
311,320,317,301,0
311,340,317,301,0
311,358,317,304,0
310,366,317,306,0
309,362,317,309,0
307,343,316,311,0
304,310,315,312,0
301,277,316,312,0
299,255,316,312,0
298,246,318,313,0
300,247,319,317,0
302,259,319,321,0
306,278,318,323,0
312,297,318,326,0
319,305,319,329,0
320,306,320,331,0
319,309,322,332,0
319,314,322,331,0
319,321,321,329,0
317,324,319,326,0
313,321,318,325,0
309,313,318,322,0
307,305,319,316,0
306,298,318,310,0
302,294,318,305,0
298,296,318,303,0
295,304,319,305,0
295,313,321,310,0
297,321,322,316,0
299,325,322,322,0
299,326,321,328,0
299,329,319,333,0
299,335,317,338,0
303,340,315,340,0
309,340,314,338,0
314,338,314,332,0
318,337,312,324,0
320,336,312,315,0
320,336,311,307,0
319,336,311,301,0
318,335,311,297,0
315,334,311,293,0
312,333,310,289,0
307,327,310,285,0
301,316,309,282,0
297,306,308,279,0
295,303,309,278,0
297,301,308,278,0
305,294,308,278,0
314,286,308,280,0
321,284,308,284,0
322,290,308,290,0
321,298,308,295,0
317,307,306,299,0
313,315,306,305,0
310,320,306,311,0
309,323,306,317,0
310,323,307,322,0
311,320,308,325,0
311,314,308,325,0
311,308,309,324,0
310,303,309,321,0
308,303,308,316,0
306,306,307,312,0
305,316,307,309,0
305,329,307,307,0
305,338,306,305,0
305,339,306,303,0
305,333,305,302,0
305,326,303,300,0
305,320,302,298,0
305,316,302,298,0
308,316,301,299,0
312,323,300,301,0
314,331,300,303,0
316,339,299,305,0
314,341,299,306,0
310,338,299,306,0
309,334,300,304,0
310,334,302,305,0
310,340,304,307,0
309,346,307,310,0
307,351,309,312,0
305,354,311,315,0
304,351,312,319,0
304,343,313,325,0
304,332,313,330,0
304,324,313,333,0
304,319,312,333,0
304,315,311,331,0
305,311,310,327,0
306,306,310,321,0
309,300,309,318,0
312,296,307,316,0
315,291,307,314,0
317,286,306,312,0
317,280,307,309,0
317,275,307,305,0
317,270,307,301,0
315,264,307,297,0
312,263,308,293,0
309,272,308,291,0
308,290,308,290,0
310,306,307,289,0
313,315,305,286,0
311,315,303,283,0
307,314,301,283,0
303,324,302,287,0
301,340,302,293,0
302,351,303,297,0
304,356,304,300,0
310,359,303,302,0
314,357,302,302,0
314,352,301,302,0
313,345,300,303,0
312,338,301,304,0
311,331,301,305,0
310,324,302,306,0
310,318,303,307,0
309,314,305,309,0
309,319,306,310,0
309,332,307,311,0
309,346,308,313,0
309,355,309,315,0
310,356,309,321,0
310,353,309,326,0
309,343,309,329,0
306,333,308,329,0
304,327,308,324,0
302,322,307,316,0
301,316,307,306,0
301,312,307,295,0
302,307,306,287,0
303,299,306,284,0
305,291,306,284,0
305,281,306,286,0
306,271,307,291,0
307,267,309,298,0
310,269,311,307,0
314,275,313,313,0
314,285,313,317,0
309,292,312,319,0
296,297,310,320,0
284,299,308,319,0
276,300,306,316,0
274,301,305,314,0
276,303,305,312,0
280,307,305,311,0
287,317,306,311,0
298,334,307,313,0
307,352,309,314,0
314,363,310,315,0
317,366,310,314,0
319,360,310,313,0
321,349,310,312,0
321,339,311,313,0
320,331,311,314,0
320,326,312,314,0
318,320,313,314,0
316,315,314,313,0
314,306,314,311,0
312,297,314,308,0
307,288,313,302,0
303,292,312,295,0
301,312,311,291,0
303,337,310,290,0
310,352,310,290,0
313,352,308,289,0
310,342,307,289,0
305,331,306,289,0
300,315,306,290,0
297,303,306,292,0
298,303,307,297,0
301,308,309,304,0
306,308,310,310,0
310,308,312,315,0
313,313,313,319,0
314,322,314,321,0
314,331,315,321,0
312,340,316,320,0
311,345,316,319,0
309,347,317,318,0
308,346,318,317,0
307,339,318,315,0
306,323,317,313,0
304,303,317,311,0
303,289,315,309,0
302,286,314,308,0
301,289,313,305,0
300,291,312,303,0
300,293,311,301,0
301,293,311,298,0
303,292,311,296,0
308,295,312,300,0
313,300,312,310,0
317,307,313,325,0
318,315,314,338,0
316,323,314,347,0
314,328,315,351,0
313,328,316,348,0
316,323,316,342,0
318,317,315,332,0
319,315,314,320,0
319,317,313,309,0
315,320,311,300,0
306,319,309,290,0
298,314,307,279,0
290,306,305,270,0
284,297,304,262,0
280,289,302,259,0
281,289,301,259,0
286,300,301,263,0
293,310,301,268,0
300,313,303,274,0
305,309,303,280,0
308,304,305,285,0
312,306,307,290,0
314,316,308,296,0
314,328,310,302,0
314,339,311,306,0
314,350,312,309,0
316,356,312,310,0
315,356,312,312,0
311,351,312,313,0
306,343,311,313,0
301,333,310,312,0
298,322,309,309,0
298,309,309,305,0
301,295,308,302,0
306,278,307,299,0
308,262,306,295,0
309,260,306,293,0
309,268,306,290,0
307,277,304,288,0
303,285,304,288,0
298,295,303,290,0
296,302,302,296,0
296,293,302,303,0
296,276,303,309,0
296,259,304,313,0
297,255,305,317,0
300,268,308,321,0
303,299,310,324,0
304,330,311,324,0
302,345,311,321,0
300,341,312,318,0
299,333,312,317,0
301,331,315,319,0
306,335,318,324,0
311,335,319,326,0
314,329,317,326,0
314,322,313,322,0
314,311,310,317,0
313,293,306,311,0
310,283,302,304,0
307,281,298,297,0
303,284,295,290,0
300,290,293,286,0
300,302,294,287,0
305,318,297,294,0
310,328,300,303,0
313,333,303,310,0
317,334,304,315,0
322,336,305,317,0
327,341,305,315,0
328,345,305,312,0
322,345,305,309,0
312,341,304,309,0
303,333,305,311,0
298,324,306,312,0
297,319,308,312,0
301,314,308,310,0
306,305,307,305,0
306,292,304,298,0
304,275,301,293,0
302,261,300,289,0
303,259,300,288,0
307,276,301,288,0
312,300,303,288,0
316,325,305,288,0
318,346,306,287,0
318,362,306,287,0
317,372,305,287,0
315,378,304,289,0
313,379,303,292,0
312,374,302,295,0
312,366,302,296,0
311,354,302,298,0
310,341,302,299,0
309,328,302,299,0
308,314,301,294,0
307,298,301,288,0
305,278,299,283,0
303,258,298,278,0
301,239,298,277,0
300,227,297,278,0
299,229,297,281,0
300,247,297,285,0
303,269,298,290,0
306,280,300,294,0
308,279,302,298,0
310,282,303,301,0
312,296,304,304,0
314,314,305,306,0
314,330,305,307,0
312,343,305,307,0
308,353,304,307,0
304,358,304,306,0
302,357,304,305,0
304,347,305,304,0
306,333,307,305,0
309,320,308,306,0
309,312,308,308,0
307,309,308,314,0
306,309,309,323,0
307,311,309,332,0
312,316,309,340,0
320,327,309,344,0
330,339,309,345,0
337,351,308,343,0
336,361,308,338,0
328,364,307,330,0
319,355,306,319,0
311,337,303,306,0
305,318,301,294,0
301,300,299,282,0
299,287,298,273,0
298,279,297,268,0
297,277,296,269,0
296,280,295,275,0
294,288,294,281,0
292,299,293,287,0
290,306,292,292,0
290,307,292,295,0
292,305,293,299,0
297,306,294,303,0
303,305,296,306,0
307,303,298,309,0
311,302,299,311,0
314,305,299,311,0
313,308,300,308,0
309,305,300,302,0
303,300,300,295,0
296,289,298,288,0
291,276,296,282,0
291,269,295,280,0
295,279,295,280,0
301,301,294,282,0
307,319,293,285,0
311,326,292,288,0
313,330,291,289,0
315,333,292,289,0
316,333,292,289,0
317,331,292,290,0
317,331,293,292,0
316,332,294,294,0
316,333,296,297,0
316,333,297,300,0
318,331,299,304,0
319,329,301,308,0
320,327,302,314,0
320,322,304,321,0
319,316,305,327,0
318,311,306,332,0
317,315,306,336,0
316,329,305,339,0
312,346,304,338,0
305,355,302,334,0
297,352,300,328,0
292,338,297,320,0
291,320,296,314,0
295,302,295,306,0
301,285,294,298,0
305,274,294,290,0
307,278,294,285,0
310,289,294,281,0
312,296,294,280,0
313,294,295,279,0
314,282,295,280,0
314,269,296,280,0
313,265,296,280,0
311,271,297,281,0
308,281,298,282,0
304,295,299,283,0
300,307,299,284,0
300,316,300,286,0
304,317,300,289,0
308,315,301,294,0
314,320,301,299,0
319,329,301,303,0
318,339,302,305,0
314,349,303,305,0
310,351,304,304,0
309,339,303,302,0
309,324,303,301,0
309,311,304,302,0
309,303,304,305,0
308,302,305,306,0
308,311,306,307,0
308,324,307,309,0
307,333,309,311,0
305,339,310,311,0
301,337,310,310,0
295,327,310,310,0
289,319,311,312,0
288,320,312,318,0
291,324,314,323,0
294,327,315,327,0
296,326,314,328,0
297,321,312,326,0
296,316,311,322,0
295,308,309,315,0
296,298,307,307,0
298,284,305,300,0
298,266,304,295,0
298,249,304,294,0
299,237,307,296,0
304,230,311,299,0
312,235,314,303,0
316,260,316,306,0
317,294,317,311,0
316,322,316,315,0
314,338,315,318,0
312,352,314,322,0
311,362,313,323,0
311,364,311,322,0
310,358,311,320,0
307,351,310,316,0
304,344,310,313,0
301,334,310,310,0
298,319,310,308,0
296,305,310,306,0
294,294,310,305,0
291,286,309,304,0
290,284,309,302,0
290,301,309,301,0
293,324,311,300,0
296,344,311,299,0
298,361,311,299,0
300,369,311,300,0
301,366,311,301,0
301,353,311,302,0
300,339,311,302,0
298,328,311,300,0
298,318,311,298,0
299,308,310,297,0
300,300,309,296,0
300,294,309,294,0
301,288,308,292,0
301,283,308,291,0
300,282,307,290,0
300,286,306,290,0
299,295,306,292,0
300,309,305,295,0
301,317,305,300,0
304,316,305,304,0
306,303,305,307,0
306,289,305,312,0
302,281,307,320,0
298,283,309,329,0
298,296,311,334,0
299,309,312,336,0
300,315,313,334,0
299,313,315,331,0
296,310,316,326,0
293,306,318,323,0
293,305,318,320,0
295,306,317,316,0
297,312,315,310,0
299,321,313,306,0
304,332,313,305,0
308,342,314,307,0
310,348,313,310,0
310,348,312,312,0
309,343,309,313,0
307,332,307,312,0
305,325,306,311,0
301,322,307,312,0
298,321,308,313,0
296,322,309,313,0
295,322,309,312,0
295,320,309,311,0
296,311,309,311,0
296,305,308,310,0
296,307,308,307,0
295,308,307,303,0
294,306,306,298,0
293,304,305,295,0
293,306,305,295,0
293,310,305,296,0
295,312,305,300,0
297,311,305,305,0
299,310,305,310,0
301,307,304,314,0
301,298,304,317,0
299,283,304,318,0
296,264,305,318,0
293,244,305,319,0
292,232,307,319,0
294,236,309,319,0
296,247,310,317,0
296,260,311,313,0
292,273,311,307,0
290,287,310,303,0
290,308,311,303,0
295,327,310,303,0
298,342,310,304,0
300,354,310,304,0
300,361,309,304,0
302,363,308,305,0
306,361,307,306,0
309,358,305,306,0
311,353,304,306,0
312,346,303,306,0
311,336,301,305,0
309,325,300,302,0
306,313,299,299,0
305,302,299,297,0
306,292,300,296,0
307,289,301,297,0
308,291,302,300,0
310,295,302,304,0
309,296,303,308,0
303,297,304,311,0
298,301,306,314,0
297,306,308,315,0
298,308,309,314,0
298,305,308,311,0
297,299,305,309,0
295,292,303,308,0
294,290,303,308,0
297,298,303,308,0
302,312,303,307,0
306,324,303,305,0
307,333,304,304,0
307,340,305,304,0
306,338,305,308,0
306,320,307,315,0
306,289,309,322,0
307,254,311,328,0
309,224,312,332,0
310,212,312,334,0
310,224,310,336,0
309,255,308,339,0
307,291,307,340,0
305,320,308,339,0
304,336,307,337,0
302,344,307,331,0
299,348,306,324,0
297,350,304,316,0
295,351,303,308,0
294,354,302,300,0
294,355,301,295,0
294,352,299,291,0
295,345,299,289,0
297,337,299,287,0
300,333,300,287,0
304,328,303,289,0
308,321,306,293,0
311,310,309,299,0
312,297,311,304,0
312,286,312,307,0
310,278,312,308,0
306,272,313,309,0
303,273,313,309,0
300,283,313,310,0
302,295,313,310,0
304,303,313,310,0
306,308,312,309,0
308,310,311,308,0
309,307,310,306,0
309,301,308,305,0
307,295,306,304,0
305,290,304,304,0
302,281,303,304,0
300,270,302,306,0
299,272,302,309,0
301,288,303,312,0
303,306,304,314,0
305,317,304,314,0
307,321,304,313,0
308,327,305,312,0
309,333,305,311,0
310,335,304,310,0
310,330,304,306,0
310,322,303,301,0
311,315,303,297,0
314,312,301,292,0
316,311,300,288,0
316,309,299,285,0
310,303,299,286,0
301,298,300,288,0
295,302,302,292,0
293,310,303,297,0
293,317,304,301,0
295,320,305,305,0
295,318,307,308,0
294,312,309,309,0
293,302,311,311,0
290,296,313,311,0
287,296,314,311,0
288,302,314,312,0
294,308,313,312,0
301,311,311,314,0
307,311,310,318,0
311,308,308,321,0
314,300,307,323,0
315,291,306,322,0
313,285,307,321,0
310,286,308,318,0
308,295,307,316,0
308,305,306,314,0
306,314,304,311,0
305,313,302,311,0
304,298,301,310,0
303,276,300,307,0
301,257,301,301,0
299,249,302,296,0
294,249,302,292,0
291,253,304,290,0
291,264,305,290,0
292,282,306,290,0
294,294,306,291,0
295,300,306,291,0
296,308,306,293,0
298,317,307,297,0
300,317,308,301,0
301,311,308,304,0
301,299,307,305,0
303,288,308,306,0
307,281,308,306,0
312,278,309,306,0
316,283,310,307,0
320,289,310,308,0
323,293,311,309,0
324,295,311,312,0
323,301,310,315,0
320,308,309,320,0
317,312,309,325,0
315,312,309,327,0
311,312,309,327,0
306,313,308,326,0
302,313,307,324,0
298,310,305,320,0
297,312,304,316,0
301,318,304,313,0
306,316,304,311,0
310,308,304,311,0
314,299,303,312,0
314,297,303,315,0
309,300,303,316,0
305,303,303,315,0
304,308,303,313,0
305,313,303,312,0
306,317,304,311,0
309,316,306,310,0
311,310,308,312,0
313,301,309,313,0
315,293,312,314,0
316,287,314,314,0
316,285,315,313,0
316,286,315,310,0
315,286,314,306,0
312,287,313,303,0
309,290,312,301,0
307,296,311,300,0
305,304,308,300,0
303,309,305,300,0
303,309,304,302,0
304,308,303,304,0
306,309,303,306,0
306,310,304,306,0
305,312,304,307,0
303,313,304,306,0
299,314,304,307,0
297,311,304,308,0
300,306,305,308,0
305,297,306,309,0
309,286,307,310,0
309,274,309,311,0
308,269,310,311,0
305,270,311,313,0
303,275,312,317,0
301,279,312,319,0
300,282,312,320,0
298,286,311,317,0
296,294,309,310,0
293,304,307,300,0
292,315,306,293,0
294,322,307,289,0
298,323,309,289,0
303,316,310,291,0
306,301,310,294,0
308,285,309,298,0
308,272,308,302,0
307,269,307,306,0
306,273,306,311,0
307,283,307,316,0
308,291,308,318,0
309,295,309,317,0
309,292,309,314,0
308,290,309,310,0
305,295,308,306,0
299,302,307,304,0
293,304,305,302,0
286,299,304,303,0
283,298,304,305,0
285,300,305,308,0
289,301,306,312,0
297,300,307,315,0
308,297,307,319,0
316,298,307,325,0
318,305,307,333,0
317,312,307,340,0
316,318,307,345,0
316,320,307,347,0
317,319,307,347,0
319,318,307,344,0
319,316,308,338,0
320,315,308,330,0
320,316,307,320,0
319,319,307,309,0
318,322,306,300,0
316,326,305,291,0
313,330,303,285,0
306,324,302,280,0
300,305,301,278,0
295,280,301,277,0
292,262,300,279,0
291,246,300,281,0
290,231,300,283,0
290,226,299,285,0
292,232,297,288,0
295,242,296,292,0
298,257,297,297,0
303,275,298,302,0
306,290,301,305,0
309,298,303,306,0
309,301,305,305,0
310,295,307,304,0
309,283,309,305,0
309,277,310,307,0
310,283,310,307,0
312,295,309,307,0
313,306,308,306,0
313,314,308,305,0
310,318,308,304,0
304,320,309,304,0
297,320,309,306,0
290,319,309,307,0
286,315,309,309,0
285,311,308,311,0
288,310,307,313,0
292,314,306,316,0
297,320,305,318,0
300,321,305,318,0
303,319,305,316,0
305,316,305,312,0
305,315,306,307,0
305,314,308,303,0
305,311,310,300,0
304,304,311,299,0
302,297,311,297,0
299,287,311,297,0
296,279,311,298,0
295,276,311,301,0
295,277,312,305,0
296,278,312,310,0
297,280,312,316,0
297,287,313,321,0
295,298,312,326,0
290,307,309,329,0
286,311,307,329,0
285,309,305,329,0
289,302,304,326,0
298,287,304,321,0
312,272,305,315,0
321,269,306,310,0
321,280,307,306,0
316,290,308,304,0
312,296,309,302,0
310,302,310,302,0
309,307,310,301,0
308,312,310,302,0
307,315,309,303,0
305,316,308,305,0
303,316,308,309,0
301,315,308,313,0
300,315,307,319,0
301,316,307,324,0
301,318,307,326,0
302,319,306,324,0
303,317,305,319,0
303,314,304,312,0
303,311,304,305,0
302,307,304,301,0
302,306,304,298,0
301,306,305,297,0
302,304,306,297,0
303,297,307,298,0
304,290,308,298,0
304,283,308,299,0
304,279,308,299,0
303,277,308,302,0
302,278,308,306,0
301,278,308,311,0
299,282,307,316,0
297,289,305,320,0
294,290,305,320,0
294,286,304,317,0
297,281,305,313,0
300,278,305,309,0
302,280,305,305,0
301,286,304,303,0
300,292,303,302,0
302,296,302,301,0
303,295,301,300,0
302,291,300,300,0
299,290,300,302,0
295,287,300,305,0
293,284,301,308,0
292,280,302,311,0
293,274,302,313,0
292,260,301,313,0
291,254,302,314,0
292,270,303,316,0
294,296,304,318,0
295,314,305,320,0
295,324,305,320,0
296,330,305,320,0
299,335,306,318,0
302,338,306,315,0
306,335,305,311,0
309,328,303,308,0
312,323,302,306,0
312,322,301,307,0
309,322,301,306,0
307,321,302,305,0
305,319,303,304,0
304,317,304,302,0
302,314,305,301,0
301,313,305,302,0
299,311,305,304,0
299,305,305,307,0
300,297,304,311,0
302,289,305,316,0
306,286,306,321,0
312,287,306,324,0
313,292,306,325,0
309,297,305,324,0
304,300,305,322,0
302,301,304,319,0
300,300,304,319,0
298,297,304,319,0
297,292,303,319,0
296,287,302,317,0
297,285,302,314,0
297,284,302,310,0
297,287,302,307,0
295,291,304,304,0
293,294,306,301,0
291,296,308,298,0
289,296,308,296,0
289,297,308,293,0
292,296,306,291,0
294,292,305,291,0
295,293,303,290,0
297,300,302,289,0
301,312,302,289,0
304,323,302,290,0
307,328,302,291,0
308,325,302,293,0
309,318,302,295,0
309,308,302,299,0
309,300,303,303,0
310,297,305,308,0
310,297,306,313,0
311,297,308,317,0
311,293,309,319,0
310,287,309,320,0
310,279,310,321,0
309,273,309,322,0
307,268,309,322,0
306,267,309,322,0
304,276,308,321,0
303,292,307,320,0
300,309,307,320,0
297,324,306,321,0
294,332,305,323,0
291,332,304,323,0
290,322,302,319,0
292,301,300,311,0
297,277,297,300,0
303,262,293,289,0
309,256,291,279,0
315,259,288,273,0
317,273,287,270,0
314,295,288,270,0
311,318,290,272,0
310,336,293,277,0
311,341,297,283,0
313,336,301,288,0
315,329,303,292,0
318,323,304,296,0
320,317,305,299,0
315,312,305,301,0
308,306,306,303,0
301,298,306,304,0
297,288,305,306,0
295,278,305,308,0
294,267,305,311,0
294,259,305,319,0
296,257,304,328,0
297,263,304,336,0
300,269,304,341,0
302,273,304,342,0
305,277,305,340,0
308,282,305,336,0
310,288,305,332,0
311,291,305,327,0
310,292,305,323,0
309,294,304,316,0
307,298,303,309,0
304,294,302,301,0
301,279,300,292,0
298,259,299,286,0
298,251,298,282,0
299,260,297,281,0
301,277,297,282,0
303,297,296,284,0
304,316,296,285,0
305,330,295,286,0
304,335,295,289,0
304,331,295,293,0
304,325,296,299,0
305,316,296,304,0
305,308,297,307,0
305,305,297,310,0
306,308,298,312,0
311,314,300,315,0
314,321,302,316,0
314,328,302,315,0
312,330,301,311,0
308,330,300,306,0
307,334,300,303,0
308,341,300,301,0
310,345,300,302,0
310,340,300,304,0
307,328,300,306,0
304,312,299,305,0
301,295,298,302,0
298,281,297,299,0
296,272,296,297,0
294,263,295,295,0
292,252,295,295,0
290,238,296,298,0
291,225,297,302,0
295,218,298,305,0
301,222,298,308,0
305,238,299,309,0
308,266,300,308,0
310,295,301,308,0
310,318,301,307,0
311,334,300,306,0
311,344,299,303,0
311,350,298,301,0
312,350,298,299,0
314,344,298,298,0
315,331,298,297,0
315,318,298,297,0
313,305,300,298,0
310,293,300,298,0
307,282,300,298,0
305,276,298,299,0
300,274,297,299,0
296,269,296,299,0
295,262,295,299,0
296,261,295,299,0
297,269,295,301,0
299,279,297,305,0
300,290,299,308,0
300,303,300,311,0
298,314,301,310,0
296,326,301,308,0
295,338,301,306,0
294,344,300,303,0
295,338,300,302,0
298,324,300,303,0
300,305,300,306,0
303,289,301,311,0
304,281,301,316,0
305,279,300,320,0
303,282,299,322,0
301,286,298,323,0
299,288,297,324,0
300,289,297,323,0
305,294,299,320,0
313,302,302,316,0
321,309,305,311,0
324,311,308,305,0
320,313,310,301,0
314,316,311,297,0
307,318,311,296,0
301,316,311,296,0
299,315,310,297,0
298,312,309,298,0
298,308,308,299,0
298,303,308,299,0
298,299,307,298,0
298,292,306,298,0
298,281,306,300,0
299,271,306,303,0
300,272,305,304,0
301,281,305,305,0
302,286,304,305,0
302,282,303,307,0
302,271,302,310,0
303,265,303,314,0
306,272,304,318,0
310,285,306,319,0
315,295,308,319,0
318,304,310,315,0
318,314,309,308,0
316,325,307,299,0
315,335,306,293,0
315,343,303,289,0
313,349,301,286,0
311,349,300,285,0
309,339,299,284,0
308,323,299,284,0
306,306,299,285,0
306,291,300,288,0
306,279,300,291,0
306,270,299,294,0
308,267,299,297,0
310,272,299,300,0
312,284,300,302,0
313,295,300,304,0
313,301,301,306,0
314,300,303,310,0
314,297,305,314,0
316,291,307,318,0
317,284,307,319,0
317,277,306,317,0
318,277,305,313,0
315,281,304,309,0
308,281,303,305,0
299,281,303,301,0
294,287,303,298,0
293,298,303,298,0
295,305,304,300,0
297,306,305,302,0
297,306,306,303,0
298,305,306,304,0
298,301,306,303,0
301,293,305,301,0
301,280,304,298,0
299,267,303,295,0
296,259,303,293,0
294,259,302,292,0
294,271,302,292,0
295,293,303,294,0
301,319,304,298,0
308,337,305,303,0
315,343,305,306,0
320,340,304,307,0
320,335,303,307,0
317,328,303,305,0
311,322,302,304,0
305,316,301,303,0
301,309,301,301,0
299,301,302,300,0
299,289,302,298,0
298,272,301,297,0
297,255,301,298,0
297,247,302,299,0
300,255,304,302,0
305,271,306,305,0
310,286,307,308,0
311,299,308,310,0
311,313,308,312,0
311,330,309,313,0
311,345,309,313,0
311,348,309,313,0
311,336,309,312,0
310,318,309,311,0
308,300,307,308,0
308,291,306,306,0
309,292,305,304,0
314,298,305,303,0
318,305,305,303,0
320,311,304,305,0
316,315,303,310,0
309,319,303,317,0
299,320,302,323,0
292,316,303,327,0
289,307,304,330,0
290,300,306,332,0
294,298,307,332,0
298,300,309,329,0
302,307,310,325,0
305,316,310,320,0
306,323,309,316,0
306,323,309,314,0
305,317,309,311,0
304,304,309,309,0
301,285,309,306,0
298,267,308,303,0
294,250,307,298,0
290,237,305,291,0
285,224,303,283,0
282,210,300,278,0
283,203,298,278,0
287,213,299,283,0
293,233,300,290,0
298,257,302,295,0
303,281,303,300,0
309,303,304,304,0
319,322,306,308,0
327,330,306,311,0
330,327,307,315,0
329,321,307,318,0
323,321,307,320,0
316,328,307,321,0
309,331,307,321,0
303,330,307,320,0
301,331,308,320,0
300,334,308,321,0
299,332,308,324,0
298,325,307,327,0
297,315,305,330,0
296,302,303,334,0
295,289,301,336,0
293,281,300,337,0
294,279,299,335,0
297,279,300,332,0
300,282,301,330,0
304,287,304,329,0
308,288,306,332,0
313,294,308,338,0
316,308,310,343,0
318,321,310,345,0
318,329,309,344,0
316,333,308,341,0
313,334,309,338,0
309,320,310,335,0
302,297,309,329,0
295,278,306,320,0
291,268,302,309,0
290,261,298,299,0
293,260,295,290,0
300,274,293,286,0
309,294,293,285,0
318,305,292,284,0
323,309,291,283,0
320,309,290,280,0
310,317,290,279,0
302,337,292,281,0
303,353,295,287,0
308,351,297,292,0
313,339,298,295,0
317,321,299,298,0
319,305,299,301,0
318,293,299,303,0
315,285,298,303,0
310,280,297,302,0
305,281,296,301,0
303,288,296,301,0
303,299,296,302,0
304,310,296,304,0
305,316,296,306,0
305,312,294,306,0
303,296,292,306,0
301,272,290,308,0
299,254,290,314,0
300,244,291,323,0
302,247,293,331,0
303,264,295,339,0
305,291,297,344,0
306,312,298,348,0
307,324,299,350,0
307,328,299,347,0
305,327,299,340,0
302,324,297,331,0
298,321,296,323,0
295,323,294,317,0
294,324,293,314,0
297,321,293,310,0
302,316,293,308,0
309,314,294,306,0
313,312,295,304,0
315,310,295,301,0
314,307,293,297,0
312,307,290,295,0
311,311,288,296,0
313,319,288,301,0
317,327,289,309,0
322,330,290,318,0
325,327,290,326,0
324,318,291,333,0
321,308,291,338,0
316,300,291,342,0
312,301,291,343,0
312,318,291,344,0
313,339,292,344,0
310,349,294,343,0
303,348,295,340,0
300,340,296,334,0
300,330,296,329,0
301,326,297,325,0
302,327,296,322,0
302,330,294,320,0
301,330,293,317,0
300,326,292,313,0
300,318,290,309,0
299,307,289,307,0
299,296,289,307,0
300,282,290,308,0
302,268,292,309,0
304,257,294,311,0
306,261,296,313,0
308,275,296,315,0
307,288,295,314,0
304,297,293,311,0
301,302,291,308,0
297,301,290,306,0
292,288,288,305,0
288,270,288,306,0
286,260,288,310,0
287,263,288,315,0
291,274,289,319,0
295,289,289,321,0
299,303,290,320,0
306,312,290,317,0
312,318,289,312,0
315,320,289,308,0
317,318,289,303,0
315,309,288,300,0
312,299,289,298,0
307,290,289,298,0
302,286,290,297,0
296,281,290,294,0
291,273,289,290,0
289,275,287,287,0
291,287,286,285,0
294,301,286,283,0
299,305,285,282,0
303,301,285,281,0
307,301,285,283,0
311,312,286,287,0
316,326,287,290,0
318,336,287,294,0
317,340,289,296,0
315,339,290,299,0
315,336,292,304,0
320,333,293,310,0
324,329,295,316,0
326,324,296,322,0
328,318,297,328,0
327,313,298,334,0
322,307,298,338,0
316,300,299,339,0
310,291,299,336,0
304,278,299,328,0
300,261,297,318,0
295,244,295,307,0
290,226,294,298,0
287,215,292,293,0
286,217,291,290,0
289,229,290,287,0
299,253,291,285,0
311,285,292,284,0
319,320,292,282,0
319,346,291,284,0
314,357,291,288,0
310,357,293,295,0
308,352,294,301,0
309,350,296,305,0
310,347,298,308,0
312,340,300,308,0
313,335,301,307,0
312,335,301,305,0
310,338,301,301,0
307,344,300,299,0
304,348,300,300,0
301,348,299,302,0
299,343,299,306,0
298,332,299,310,0
299,318,299,314,0
303,306,299,317,0
306,295,300,319,0
309,289,300,319,0
312,290,300,319,0
314,291,300,318,0
315,288,300,318,0
316,290,300,318,0
318,297,301,318,0
319,303,302,317,0
320,307,303,318,0
318,309,305,319,0
315,312,306,319,0
309,314,307,316,0
304,318,307,313,0
302,321,306,309,0
301,321,304,304,0
304,315,301,297,0
309,305,299,291,0
313,296,298,286,0
310,290,298,284,0
306,287,299,284,0
301,289,300,286,0
300,296,302,288,0
303,301,303,291,0
307,302,302,294,0
306,300,301,296,0
302,299,300,297,0
299,301,299,297,0
298,303,299,294,0
298,302,299,292,0
298,301,299,290,0
299,303,300,291,0
301,306,302,295,0
303,306,304,301,0
306,305,305,307,0
307,302,305,311,0
305,299,305,312,0
304,303,304,313,0
304,315,305,313,0
304,329,305,312,0
303,333,304,310,0
301,328,303,308,0
300,321,301,308,0
299,314,300,307,0
299,304,298,308,0
301,293,298,310,0
304,280,299,313,0
306,268,300,318,0
307,261,302,323,0
307,268,304,329,0
306,288,305,334,0
306,312,305,336,0
306,331,305,335,0
308,339,306,332,0
313,335,306,325,0
316,328,306,316,0
319,321,305,304,0
318,314,303,292,0
317,310,302,281,0
314,305,300,273,0
312,299,299,270,0
310,295,298,271,0
307,292,297,274,0
302,294,296,279,0
298,302,295,285,0
296,309,295,292,0
296,312,297,300,0
300,312,299,306,0
308,311,301,312,0
315,311,302,316,0
320,311,303,320,0
321,311,303,322,0
320,309,303,323,0
317,304,303,324,0
315,295,302,325,0
312,286,301,324,0
310,279,300,322,0
309,278,299,317,0
309,289,297,311,0
311,308,295,305,0
314,326,294,299,0
318,333,293,295,0
321,327,292,292,0
318,312,291,290,0
312,294,290,290,0
304,275,290,291,0
297,257,290,293,0
296,244,292,297,0
301,247,293,300,0
307,268,295,302,0
312,297,296,304,0
315,321,298,306,0
317,336,299,307,0
317,345,300,308,0
318,348,300,309,0
319,347,301,310,0
320,342,300,312,0
322,335,300,312,0
321,326,299,312,0
314,318,297,312,0
306,311,295,312,0
301,305,293,313,0
298,301,291,312,0
298,298,290,310,0
299,293,290,308,0
301,292,290,306,0
304,297,291,306,0
307,306,292,307,0
311,315,293,306,0
313,320,294,304,0
314,321,295,300,0
314,321,295,297,0
312,319,295,293,0
309,313,294,289,0
305,306,293,285,0
302,305,293,282,0
301,309,292,282,0
302,317,292,283,0
303,321,292,287,0
305,322,293,292,0
306,320,293,299,0
306,312,295,307,0
305,303,294,315,0
304,301,293,321,0
303,301,292,326,0
303,298,292,331,0
306,287,294,335,0
312,272,295,336,0
318,257,297,336,0
323,244,297,334,0
326,240,299,331,0
326,251,301,328,0
324,278,302,323,0
323,306,304,319,0
321,328,306,313,0
320,345,306,305,0
320,352,304,297,0
318,349,301,290,0
314,337,298,284,0
306,320,296,279,0
296,307,293,277,0
287,301,291,275,0
283,298,290,274,0
282,296,290,275,0
282,294,290,275,0
283,291,289,277,0
285,286,288,278,0
290,282,288,281,0
300,283,289,286,0
311,292,290,291,0
318,302,291,297,0
319,307,292,302,0
317,305,292,307,0
315,302,292,311,0
313,303,293,315,0
310,308,293,318,0
307,313,293,320,0
304,315,293,321,0
301,314,293,321,0
297,309,291,320,0
295,294,291,317,0
294,273,290,313,0
296,261,289,309,0
299,263,289,304,0
304,280,288,299,0
309,295,288,296,0
315,307,289,293,0
319,313,290,291,0
320,312,291,290,0
320,311,293,292,0
319,312,295,296,0
318,317,298,300,0
316,325,299,303,0
314,331,300,305,0
310,332,300,305,0
307,331,298,305,0
305,330,296,304,0
303,328,294,303,0
301,326,292,303,0
300,325,290,305,0
299,324,289,309,0
299,320,289,312,0
298,311,290,316,0
297,298,290,319,0
298,285,290,321,0
302,276,290,321,0
307,276,290,320,0
311,287,290,318,0
314,304,292,317,0
317,319,294,318,0
321,324,297,320,0
323,320,299,321,0
321,315,301,321,0
317,311,300,320,0
313,307,300,318,0
311,298,299,314,0
309,286,297,310,0
307,277,294,308,0
302,276,291,309,0
299,281,291,311,0
297,286,290,311,0
297,287,289,308,0
296,279,287,301,0
297,267,285,293,0
298,259,283,285,0
300,254,282,280,0
302,260,282,278,0
304,275,284,278,0
305,291,286,281,0
305,297,287,285,0
303,297,288,289,0
300,298,290,293,0
298,299,293,299,0
297,305,296,305,0
300,319,297,312,0
305,335,296,317,0
309,345,294,319,0
311,349,290,319,0
312,351,286,315,0
314,351,283,311,0
316,351,281,305,0
314,355,279,300,0
307,359,279,298,0
301,358,279,298,0
298,355,280,300,0
296,350,281,303,0
297,342,281,305,0
298,330,282,307,0
300,314,284,309,0
301,299,286,311,0
300,288,288,314,0
299,284,289,315,0
297,285,290,315,0
295,289,290,315,0
293,296,289,315,0
292,304,289,313,0
293,310,289,311,0
294,312,289,306,0
297,309,289,301,0
301,299,290,294,0
304,280,289,286,0
307,253,289,280,0
305,227,288,277,0
302,210,287,275,0
297,207,286,275,0
290,216,284,275,0
284,238,282,277,0
278,267,282,280,0
278,298,283,284,0
284,323,285,290,0
294,337,287,297,0
304,344,289,302,0
311,347,290,305,0
315,349,290,306,0
318,349,291,307,0
318,348,291,307,0
316,340,292,307,0
314,327,292,305,0
312,314,292,302,0
309,302,291,299,0
307,294,289,297,0
306,290,288,295,0
305,292,287,295,0
306,298,286,298,0
308,298,287,304,0
310,291,289,310,0
313,281,290,315,0
315,275,291,317,0
318,277,293,319,0
320,283,294,320,0
321,294,297,322,0
322,308,298,323,0
320,321,299,323,0
315,330,300,321,0
308,329,301,320,0
301,321,303,318,0
297,306,303,314,0
296,289,301,307,0
298,277,298,301,0
300,271,294,297,0
302,269,290,295,0
306,270,287,294,0
306,278,285,295,0
301,288,283,296,0
296,296,283,300,0
294,303,284,304,0
296,305,286,309,0
300,306,289,315,0
305,306,292,321,0
308,311,296,326,0
311,321,300,331,0
313,329,302,336,0
314,328,303,338,0
316,322,303,337,0
316,311,300,333,0
313,300,298,324,0
309,293,296,311,0
303,293,294,299,0
299,296,293,289,0
296,300,291,282,0
295,305,290,278,0
296,306,290,276,0
297,300,291,276,0
299,287,292,280,0
301,276,293,284,0
304,266,294,288,0
306,265,294,292,0
307,271,295,295,0
307,285,294,297,0
307,302,294,299,0
307,319,295,300,0
307,328,296,299,0
306,327,296,296,0
304,320,295,292,0
302,310,294,289,0
302,297,294,289,0
302,291,295,293,0
303,293,296,301,0
304,300,297,309,0
305,310,298,317,0
305,314,299,323,0
304,312,300,327,0
303,307,302,330,0
300,300,303,332,0
297,292,303,333,0
295,286,304,332,0
293,287,304,331,0
292,294,303,328,0
291,304,302,325,0
290,316,301,321,0
293,332,300,316,0
298,351,299,311,0
305,362,299,306,0
309,360,300,301,0
310,350,300,297,0
310,336,299,295,0
308,321,300,295,0
306,307,300,296,0
304,295,300,297,0
301,285,300,298,0
301,273,300,301,0
304,261,302,305,0
312,252,303,311,0
320,249,303,315,0
326,252,302,317,0
327,262,301,318,0
322,273,300,317,0
317,283,300,315,0
313,289,300,313,0
309,292,301,313,0
306,290,301,314,0
304,286,301,315,0
302,287,301,315,0
300,296,302,315,0
301,304,303,316,0
304,306,304,316,0
307,306,304,316,0
310,308,305,317,0
312,314,306,318,0
310,321,306,318,0
305,323,306,318,0
301,321,305,315,0
298,315,305,311,0
297,302,304,304,0
297,282,302,297,0
296,258,301,293,0
294,235,300,293,0
291,218,300,297,0
290,216,301,303,0
291,234,303,313,0
294,264,305,321,0
297,294,307,326,0
298,315,308,326,0
298,326,308,322,0
297,332,307,316,0
298,332,306,311,0
300,330,305,308,0
302,329,304,305,0
304,332,303,303,0
306,338,301,301,0
307,340,299,299,0
308,339,297,297,0
310,335,296,295,0
311,330,296,292,0
311,323,294,291,0
310,316,294,290,0
310,308,294,291,0
311,297,294,293,0
311,281,294,295,0
310,268,295,297,0
312,268,296,302,0
313,281,299,307,0
315,296,301,311,0
315,311,301,315,0
314,322,301,318,0
313,323,301,322,0
311,316,301,327,0
308,304,301,331,0
307,289,302,335,0
310,277,302,337,0
314,273,301,338,0
314,268,301,335,0
311,258,300,330,0
305,247,299,326,0
299,240,299,322,0
295,242,299,320,0
294,253,299,318,0
298,272,301,317,0
303,291,302,317,0
307,306,303,316,0
308,314,302,314,0
308,317,301,312,0
306,318,301,310,0
305,319,301,309,0
303,322,302,308,0
300,329,303,307,0
298,336,304,306,0
298,343,305,304,0
300,344,305,303,0
303,338,305,302,0
304,330,304,301,0
304,324,302,301,0
303,324,301,304,0
303,323,302,310,0
305,319,304,318,0
312,315,305,327,0
319,308,306,334,0
321,298,304,337,0
320,288,302,336,0
318,283,301,333,0
317,283,299,327,0
316,285,298,318,0
314,289,296,309,0
312,293,296,303,0
311,296,295,299,0
309,299,294,301,0
306,302,294,305,0
303,303,294,310,0
300,299,294,315,0
298,292,293,319,0
298,284,292,320,0
300,276,292,320,0
303,271,292,316,0
307,273,291,312,0
310,282,292,307,0
311,291,291,302,0
311,298,291,297,0
311,300,291,294,0
310,297,292,291,0
309,292,293,291,0
310,299,296,293,0
311,315,298,296,0
311,324,299,299,0
311,326,300,301,0
311,324,300,301,0
310,322,300,301,0
310,321,299,301,0
311,319,298,300,0
313,316,297,299,0
314,312,297,300,0
314,306,297,301,0
313,299,297,303,0
309,292,296,305,0
303,284,297,310,0
297,276,297,315,0
293,265,298,319,0
291,251,297,322,0
292,242,297,321,0
296,247,296,321,0
302,265,297,322,0
309,282,299,324,0
314,293,301,323,0
312,299,302,321,0
305,306,303,319,0
299,312,304,316,0
297,320,303,315,0
297,330,302,313,0
297,337,301,311,0
301,339,300,309,0
304,336,299,307,0
305,333,298,305,0
305,328,297,305,0
304,319,296,304,0
303,309,294,303,0
302,298,292,304,0
304,288,292,306,0
305,284,292,308,0
306,290,293,311,0
308,299,294,315,0
311,305,296,320,0
313,310,299,323,0
315,317,302,325,0
317,324,304,324,0
318,327,304,322,0
317,326,300,320,0
315,321,296,318,0
312,317,293,318,0
310,315,290,318,0
308,313,290,320,0
308,313,290,321,0
308,315,291,320,0
306,318,292,319,0
305,317,293,316,0
305,313,293,313,0
304,308,293,311,0
304,298,294,309,0
303,286,294,307,0
304,275,295,305,0
306,267,296,303,0
307,263,297,302,0
308,262,298,299,0
309,265,299,296,0
308,267,299,293,0
308,265,300,290,0
306,263,299,288,0
305,269,297,286,0
304,281,296,286,0
303,292,294,287,0
304,303,293,289,0
305,314,292,289,0
307,322,291,286,0
309,324,290,282,0
310,324,289,278,0
309,318,289,277,0
308,305,289,277,0
307,290,289,280,0
305,283,290,283,0
304,286,291,287,0
304,294,292,292,0
304,303,293,297,0
303,314,295,301,0
301,322,297,305,0
299,327,299,308,0
299,332,300,310,0
303,335,301,312,0
310,336,300,313,0
315,335,298,313,0
317,333,296,314,0
315,333,293,315,0
306,334,292,318,0
296,333,292,321,0
286,329,291,322,0
281,316,292,322,0
280,292,292,322,0
283,271,294,321,0
291,260,296,321,0
300,257,297,321,0
306,262,297,322,0
311,272,297,324,0
315,285,297,328,0
318,299,297,333,0
321,309,298,338,0
323,316,299,342,0
322,319,300,344,0
320,320,301,343,0
317,321,301,340,0
314,322,300,336,0
312,321,299,332,0
310,318,298,328,0
309,318,297,326,0
309,319,297,326,0
308,317,296,325,0
307,308,296,320,0
306,295,295,313,0
305,286,293,303,0
305,284,291,293,0
306,284,290,285,0
308,284,290,279,0
309,286,290,275,0
309,291,290,272,0
309,295,289,269,0
309,300,290,268,0
310,306,291,269,0
310,313,293,271,0
311,313,294,275,0
310,307,295,278,0
308,299,295,281,0
306,297,295,283,0
305,302,294,285,0
305,310,294,289,0
307,319,294,295,0
309,326,294,303,0
311,328,294,309,0
313,323,294,313,0
314,313,294,314,0
311,298,294,312,0
307,284,295,307,0
305,275,295,303,0
306,272,296,299,0
309,274,298,298,0
313,284,300,299,0
315,296,301,299,0
313,305,301,299,0
308,313,300,299,0
303,319,299,298,0
299,323,298,299,0
297,324,298,300,0
296,324,298,301,0
297,326,298,301,0
299,330,298,302,0
302,332,298,304,0
305,332,298,307,0
309,329,299,310,0
311,323,298,312,0
312,315,297,313,0
308,308,297,313,0
298,304,297,314,0
290,303,297,315,0
288,305,299,317,0
292,306,301,321,0
298,308,304,325,0
304,304,306,327,0
307,296,308,328,0
308,287,308,326,0
306,285,308,323,0
304,292,307,322,0
303,301,307,322,0
301,306,306,322,0
299,303,304,323,0
297,294,303,323,0
297,285,302,323,0
298,284,301,323,0
301,287,300,321,0
303,289,299,314,0
304,291,298,304,0
304,299,296,294,0
307,315,296,286,0
311,334,295,282,0
313,348,295,282,0
313,351,296,286,0
313,344,296,294,0
314,334,297,303,0
315,324,297,310,0
315,313,298,316,0
313,306,300,319,0
308,307,301,321,0
302,315,302,320,0
296,321,302,317,0
290,320,301,312,0
287,314,300,306,0
285,303,298,298,0
285,296,297,291,0
286,299,295,285,0
288,311,294,282,0
291,323,292,281,0
294,324,292,283,0
300,312,292,287,0
307,293,294,291,0
314,277,296,295,0
316,265,298,297,0
315,262,301,299,0
312,265,303,300,0
308,272,305,301,0
304,281,305,303,0
301,296,303,308,0
299,312,302,313,0
299,325,302,318,0
301,333,303,322,0
303,337,304,323,0
304,337,305,322,0
303,333,304,318,0
302,327,304,312,0
301,323,303,305,0
300,318,301,299,0
300,314,299,295,0
300,312,299,294,0
304,314,300,295,0
309,317,301,299,0
315,316,303,304,0
314,312,305,307,0
309,308,306,308,0
305,303,306,310,0
302,301,306,312,0
301,303,306,313,0
301,304,305,315,0
301,301,305,316,0
301,297,305,315,0
301,294,304,313,0
301,294,304,312,0
300,297,304,310,0
298,300,302,308,0
296,305,301,306,0
294,310,300,303,0
292,313,299,298,0
290,308,298,292,0
289,298,297,286,0
288,287,297,280,0
288,279,296,274,0
289,274,294,272,0
293,283,295,274,0
299,302,297,281,0
304,318,300,290,0
309,329,302,299,0
310,332,304,308,0
311,330,304,315,0
313,325,305,321,0
315,319,305,326,0
316,315,305,329,0
315,312,304,330,0
315,310,303,328,0
316,309,303,325,0
317,309,301,321,0
318,307,300,317,0
317,304,299,315,0
314,301,299,315,0
310,298,300,316,0
307,294,301,317,0
305,290,301,319,0
306,286,302,320,0
309,282,302,319,0
313,279,302,318,0
314,278,302,315,0
309,277,301,310,0
300,274,299,304,0
291,273,298,300,0
