291,237,319,319,0
288,221,318,313,0
288,209,316,305,0
289,209,315,297,0
293,224,316,291,0
299,247,318,288,0
305,264,321,288,0
306,274,323,289,0
307,281,324,291,0
307,283,325,293,0
307,280,325,294,0
305,274,324,294,0
303,264,323,294,0
300,255,321,293,0
298,251,320,293,0
297,258,320,294,0
298,276,321,296,0
299,298,322,297,0
302,318,323,298,0
306,333,324,299,0
311,340,325,300,0
315,341,325,303,0
315,342,326,306,0
311,345,326,308,0
306,347,328,310,0
305,341,330,312,0
305,323,332,314,0
304,305,333,316,0
300,294,334,317,0
295,288,333,317,0
291,286,331,319,0
291,291,329,321,0
295,299,328,323,0
301,309,327,322,0
305,320,326,320,0
307,326,325,316,0
306,325,324,310,0
305,319,324,304,0
305,310,324,298,0
305,298,324,294,0
306,285,325,290,0
307,271,325,286,0
307,253,325,284,0
309,239,327,284,0
311,232,329,285,0
312,233,333,287,0
313,239,335,290,0
311,248,335,291,0
308,260,335,293,0
306,275,334,297,0
305,287,333,300,0
303,291,332,304,0
301,290,331,306,0
297,287,332,309,0
292,282,333,312,0
289,274,334,316,0
290,267,335,318,0
295,263,335,321,0
299,266,335,325,0
303,273,335,330,0
306,285,335,335,0
308,301,336,339,0
309,318,338,343,0
311,329,340,347,0
313,333,342,350,0
314,334,344,351,0
314,335,344,348,0
313,335,343,343,0
313,335,341,336,0
313,335,340,329,0
313,336,338,320,0
312,332,337,314,0
309,320,336,310,0
305,305,335,306,0
302,290,334,303,0
298,281,332,298,0
295,276,330,293,0
293,273,328,286,0
290,266,326,280,0
287,254,324,274,0
286,235,323,269,0
287,219,323,268,0
289,218,324,269,0
293,229,326,273,0
297,248,327,278,0
302,271,328,285,0
305,292,329,290,0
304,303,328,292,0
303,305,328,293,0
302,303,328,294,0
301,301,330,295,0
299,299,332,295,0
298,298,335,293,0
300,298,337,291,0
304,301,338,291,0
304,303,338,294,0
303,303,338,299,0
301,301,337,303,0
299,299,335,307,0
299,298,333,310,0
300,295,331,313,0
302,290,332,315,0
303,284,334,317,0
302,281,335,318,0
299,284,337,319,0
296,290,338,319,0
293,295,338,318,0
291,302,338,317,0
289,309,338,317,0
289,309,339,315,0
288,300,338,311,0
286,295,336,307,0
287,296,335,303,0
289,296,335,301,0
293,294,335,300,0
296,291,334,300,0
299,290,334,301,0
301,289,334,302,0
303,288,333,303,0
303,287,333,305,0
304,284,332,310,0
306,280,331,316,0
308,277,331,322,0
309,277,330,327,0
309,281,331,329,0
309,284,331,327,0
307,288,331,322,0
303,289,331,313,0
297,287,330,304,0
293,285,329,296,0
293,287,330,293,0
296,292,332,293,0
301,298,334,295,0
305,306,335,297,0
309,313,336,301,0
309,317,336,307,0
305,317,337,313,0
301,306,337,319,0
297,285,336,322,0
296,263,335,325,0
296,251,334,328,0
297,257,334,332,0
301,281,335,336,0
305,306,336,339,0
308,322,338,342,0
310,331,339,342,0
310,335,340,339,0
309,335,340,333,0
307,331,339,324,0
305,324,337,314,0
303,316,335,305,0
301,309,333,298,0
299,304,332,295,0
296,301,330,293,0
294,299,330,292,0
293,298,330,292,0
293,296,331,293,0
294,292,331,296,0
295,286,332,300,0
297,278,332,302,0
298,275,332,303,0
300,279,332,304,0
302,285,332,306,0
305,291,332,308,0
311,297,331,308,0
316,302,329,307,0
316,304,327,306,0
310,302,326,304,0
302,296,325,302,0
294,289,324,299,0
287,283,324,295,0
285,285,325,294,0
286,295,326,295,0
288,307,328,298,0
291,313,330,302,0
294,310,332,306,0
295,302,333,308,0
295,295,333,310,0
294,290,333,310,0
294,285,332,310,0
294,281,332,310,0
295,276,332,310,0
295,276,333,311,0
295,277,335,314,0
297,277,336,316,0
298,278,336,316,0
300,284,335,314,0
300,296,334,309,0
300,313,333,303,0
301,328,332,298,0
302,341,332,294,0
302,350,331,293,0
303,350,331,294,0
303,342,330,296,0
304,331,330,302,0
304,321,330,309,0
305,309,330,315,0
304,296,330,318,0
303,282,329,320,0
302,271,328,324,0
302,263,327,328,0
300,255,326,329,0
298,251,326,329,0
297,252,328,328,0
298,258,331,325,0
298,266,334,320,0
296,273,336,312,0
293,277,336,303,0
290,282,334,295,0
291,294,333,291,0
294,307,333,291,0
298,313,333,294,0
302,314,332,297,0
304,315,331,299,0
304,312,329,299,0
303,306,327,298,0
302,303,326,299,0
303,305,327,300,0
304,308,327,299,0
305,309,328,296,0
306,310,328,293,0
307,312,328,292,0
309,313,328,292,0
310,312,330,293,0
310,311,331,294,0
310,312,332,295,0
310,313,333,298,0
309,312,334,301,0
308,309,335,306,0
307,304,335,313,0
306,299,336,320,0
306,292,335,324,0
304,285,334,326,0
303,278,332,325,0
302,269,330,322,0
302,262,327,317,0
302,261,325,311,0
302,264,322,304,0
302,266,321,299,0
302,269,320,294,0
303,275,319,292,0
306,282,320,292,0
309,287,321,294,0
312,292,322,298,0
313,298,324,302,0
314,303,325,305,0
313,306,326,306,0
312,307,328,306,0
312,309,329,305,0
312,309,329,303,0
310,311,328,301,0
308,314,327,299,0
306,319,326,297,0
304,321,324,297,0
303,319,323,296,0
302,314,322,296,0
301,308,322,296,0
301,302,322,297,0
301,296,322,298,0
302,292,323,302,0
302,289,323,307,0
301,286,324,312,0
299,288,325,317,0
298,294,327,321,0
298,296,329,324,0
297,289,331,325,0
297,279,333,327,0
299,273,334,327,0
303,273,334,326,0
307,276,332,321,0
310,281,328,313,0
312,286,324,304,0
314,289,321,296,0
314,293,319,292,0
311,297,318,290,0
307,300,318,290,0
305,305,318,290,0
303,309,318,290,0
304,310,319,290,0
305,311,319,290,0
309,311,319,292,0
310,307,320,293,0
307,301,321,295,0
303,290,322,295,0
300,281,324,297,0
298,276,327,301,0
298,273,330,307,0
297,272,332,314,0
297,275,334,321,0
300,283,336,327,0
303,288,337,330,0
306,289,338,331,0
310,285,339,331,0
308,274,338,329,0
300,264,336,326,0
294,266,333,321,0
290,279,329,316,0
290,297,326,308,0
293,312,323,299,0
296,323,321,290,0
299,332,321,282,0
302,340,320,276,0
303,349,320,273,0
302,359,320,271,0
301,371,321,274,0
301,375,324,280,0
301,367,327,288,0
300,354,328,296,0
300,341,329,301,0
299,328,330,306,0
299,318,331,308,0
299,311,331,310,0
300,307,332,310,0
301,302,333,310,0
302,295,333,309,0
302,283,333,309,0
301,266,334,310,0
300,251,335,312,0
298,245,336,313,0
297,244,336,314,0
297,243,336,316,0
298,241,335,317,0
299,243,335,318,0
301,249,335,319,0
303,258,337,320,0
306,269,339,319,0
308,280,340,318,0
311,293,340,314,0
314,304,338,309,0
317,311,336,305,0
319,314,334,301,0
316,315,332,299,0
309,313,332,297,0
302,309,332,297,0
296,307,333,297,0
293,304,333,297,0
292,300,333,298,0
291,298,332,299,0
290,296,331,298,0
289,295,330,298,0
289,298,329,299,0
290,302,329,300,0
293,303,329,302,0
295,298,330,305,0
296,289,332,308,0
296,280,334,310,0
295,272,336,312,0
292,265,338,315,0
291,265,339,319,0
291,277,342,324,0
292,292,344,329,0
292,302,345,332,0
290,312,345,335,0
290,322,345,335,0
295,328,344,333,0
303,333,340,330,0
306,335,336,328,0
303,335,332,325,0
299,334,329,321,0
297,333,326,316,0
297,330,325,313,0
298,325,325,313,0
300,317,325,316,0
303,311,327,320,0
304,309,328,322,0
305,309,330,322,0
305,309,331,318,0
303,306,332,313,0
302,299,332,308,0
302,291,332,304,0
303,284,331,302,0
303,278,330,300,0
302,273,328,298,0
301,268,325,296,0
300,263,323,294,0
298,257,322,291,0
296,253,321,289,0
295,253,320,286,0
295,255,319,285,0
293,260,318,286,0
292,267,318,291,0
292,279,318,301,0
295,294,320,313,0
299,307,322,324,0
302,317,325,331,0
304,324,326,335,0
305,330,327,336,0
304,334,327,332,0
302,335,326,326,0
299,333,325,318,0
297,328,323,311,0
296,321,321,306,0
296,316,319,302,0
297,312,317,300,0
297,306,315,298,0
294,299,314,296,0
291,295,312,293,0
291,297,311,291,0
292,302,311,289,0
293,304,311,289,0
295,307,311,292,0
298,307,311,296,0
302,304,312,300,0
306,302,314,303,0
308,303,315,305,0
307,305,316,305,0
303,308,317,304,0
297,311,317,304,0
293,313,318,303,0
290,314,319,305,0
290,309,321,309,0
290,297,322,312,0
291,283,323,314,0
290,270,324,314,0
289,260,323,312,0
288,251,322,309,0
288,247,321,306,0
288,250,320,302,0
289,258,319,300,0
290,266,317,299,0
292,270,317,298,0
296,270,318,297,0
304,267,319,298,0
312,266,321,299,0
315,272,323,303,0
314,282,325,308,0
309,293,326,312,0
302,299,325,314,0
296,299,324,314,0
290,290,321,313,0
286,279,319,312,0
284,270,319,311,0
284,268,318,312,0
287,278,319,312,0
291,297,319,313,0
294,316,318,312,0
297,329,318,311,0
298,335,318,310,0
298,335,318,309,0
297,332,318,309,0
297,330,319,309,0
297,329,320,309,0
298,333,322,309,0
299,333,324,310,0
301,331,327,312,0
304,329,329,313,0
306,324,332,314,0
307,317,334,313,0
307,307,335,309,0
306,301,335,305,0
303,303,335,303,0
303,307,336,303,0
302,308,337,305,0
303,304,337,310,0
304,296,338,315,0
304,288,338,320,0
304,283,339,322,0
303,281,338,322,0
304,285,337,320,0
306,294,336,315,0
311,309,335,310,0
312,322,335,305,0
308,327,335,301,0
303,323,335,296,0
300,309,335,292,0
301,292,334,290,0
303,277,335,291,0
306,268,336,293,0
309,261,336,294,0
306,250,337,295,0
297,242,338,296,0
287,242,340,297,0
281,249,341,299,0
279,261,344,300,0
282,278,345,301,0
287,298,346,300,0
292,314,345,296,0
296,322,344,292,0
299,322,343,289,0
302,315,341,290,0
305,306,342,296,0
307,298,343,303,0
307,293,345,310,0
306,288,346,316,0
304,283,347,320,0
302,278,348,321,0
299,274,349,321,0
297,269,349,319,0
294,268,350,318,0
296,282,351,317,0
300,304,352,318,0
304,320,353,317,0
308,330,353,313,0
311,334,354,308,0
312,332,354,303,0
312,325,354,300,0
311,317,354,299,0
309,313,354,299,0
308,310,355,299,0
308,305,355,297,0
310,296,355,295,0
313,286,355,295,0
314,275,355,294,0
313,263,355,294,0
310,251,356,294,0
306,242,356,295,0
302,236,356,296,0
300,238,358,299,0
303,250,359,303,0
306,265,360,307,0
308,277,360,307,0
308,288,359,305,0
309,298,358,302,0
309,304,358,297,0
309,309,358,292,0
310,311,358,287,0
310,311,359,282,0
310,309,359,279,0
311,308,359,278,0
312,308,360,280,0
312,312,360,284,0
313,317,360,288,0
313,322,360,291,0
312,325,360,294,0
311,323,361,296,0
309,317,362,296,0
308,310,362,295,0
306,304,362,293,0
306,299,362,292,0
306,298,363,291,0
307,298,363,291,0
307,298,364,291,0
307,300,364,294,0
308,305,364,297,0
309,310,364,303,0
309,311,365,308,0
310,306,365,313,0
310,298,366,319,0
311,288,366,322,0
309,283,366,323,0
309,286,365,321,0
309,291,365,318,0
310,296,365,315,0
313,298,366,314,0
316,299,367,313,0
318,296,368,311,0
319,293,369,310,0
319,289,369,309,0
319,284,368,307,0
320,281,366,305,0
322,278,365,303,0
323,276,364,302,0
322,280,364,303,0
317,289,366,304,0
311,298,366,303,0
307,305,365,301,0
305,308,364,300,0
303,306,364,299,0
303,300,362,298,0
302,290,360,297,0
302,281,358,295,0
303,279,357,294,0
305,285,358,294,0
308,295,359,295,0
311,303,361,296,0
312,308,362,296,0
313,309,362,295,0
311,306,361,293,0
308,301,360,291,0
306,297,359,289,0
305,296,358,288,0
307,298,358,288,0
308,305,357,288,0
310,316,356,287,0
310,325,355,287,0
310,324,354,287,0
310,310,353,286,0
308,291,352,285,0
305,274,350,283,0
304,265,348,284,0
305,270,348,287,0
308,279,348,293,0
309,290,348,300,0
311,300,348,306,0
311,308,349,312,0
311,314,349,319,0
312,319,350,325,0
314,322,350,329,0
316,323,349,330,0
318,322,348,326,0
321,320,347,320,0
318,317,346,312,0
311,311,346,305,0
305,307,347,297,0
302,306,347,290,0
300,302,347,285,0
299,297,346,282,0
298,294,346,280,0
297,291,345,281,0
297,292,344,283,0
299,299,343,286,0
302,312,343,289,0
305,323,343,291,0
306,326,342,292,0
305,320,343,292,0
305,301,344,293,0
306,276,346,293,0
305,251,347,294,0
305,236,348,299,0
306,236,349,306,0
308,251,350,312,0
308,272,350,316,0
309,290,349,316,0
310,301,347,314,0
308,308,346,310,0
305,313,344,306,0
302,315,343,303,0
299,316,340,300,0
298,319,338,300,0
300,322,337,302,0
302,322,336,304,0
304,317,336,307,0
306,305,336,310,0
308,294,336,313,0
310,291,337,315,0
312,296,338,316,0
312,305,340,316,0
311,320,339,315,0
310,338,338,313,0
308,355,338,311,0
305,367,337,309,0
302,367,337,308,0
300,354,337,307,0
298,330,337,307,0
297,303,337,306,0
299,286,337,308,0
303,277,338,308,0
307,273,339,307,0
309,273,338,304,0
310,278,337,301,0
310,287,335,298,0
310,296,333,296,0
311,303,332,297,0
311,308,332,297,0
310,311,333,297,0
309,311,334,297,0
308,308,334,296,0
306,303,335,294,0
304,296,334,291,0
302,288,334,289,0
300,280,333,288,0
299,274,333,288,0
299,273,332,289,0
300,274,332,291,0
302,281,331,292,0
303,297,332,296,0
305,314,332,301,0
309,321,333,309,0
311,320,333,317,0
312,314,333,324,0
311,309,332,328,0
310,305,331,330,0
308,304,331,331,0
308,307,331,331,0
308,310,332,329,0
308,313,332,325,0
308,316,332,320,0
307,316,332,314,0
305,314,331,307,0
303,310,331,300,0
299,306,331,294,0
295,300,329,287,0
289,301,326,281,0
286,319,324,279,0
288,348,323,281,0
294,365,324,285,0
302,360,325,288,0
308,342,325,290,0
311,318,323,290,0
312,297,322,289,0
312,286,322,291,0
313,284,323,294,0
317,286,324,299,0
321,291,327,306,0
323,294,329,316,0
329,297,330,326,0
332,299,329,333,0
328,299,328,337,0
319,297,327,336,0
308,295,325,330,0
301,297,323,321,0
297,306,321,310,0
297,318,321,299,0
297,328,321,292,0
297,334,321,287,0
297,333,322,286,0
297,327,322,286,0
296,320,322,287,0
296,316,320,287,0
297,313,318,288,0
297,309,316,290,0
297,307,314,292,0
298,311,314,295,0
299,318,314,297,0
299,321,315,296,0
299,320,315,295,0
299,318,316,295,0
300,317,317,296,0
301,317,318,298,0
303,315,319,300,0
305,309,320,302,0
307,300,321,303,0
308,289,321,303,0
309,280,320,303,0
308,275,319,303,0
307,278,318,304,0
306,288,317,306,0
306,300,316,307,0
305,307,313,308,0
303,309,311,308,0
301,305,309,308,0
300,296,308,308,0
299,284,309,308,0
300,275,309,308,0
301,273,311,309,0
305,277,311,311,0
308,285,312,311,0
310,297,312,309,0
310,308,311,306,0
308,316,310,302,0
306,317,309,298,0
304,312,308,294,0
302,301,306,292,0
300,292,305,289,0
299,291,305,289,0
300,298,306,291,0
304,308,308,294,0
309,317,310,297,0
313,321,310,298,0
315,325,311,300,0
317,327,311,303,0
318,327,310,308,0
318,328,311,314,0
317,330,311,321,0
317,328,311,328,0
315,320,310,331,0
313,311,309,332,0
312,305,309,330,0
310,303,309,326,0
307,301,310,320,0
304,302,311,316,0
304,308,312,315,0
304,313,312,316,0
303,316,311,318,0
300,316,311,319,0
299,313,311,319,0
299,309,311,317,0
300,304,311,312,0
303,300,311,305,0
305,299,311,297,0
307,300,309,289,0
308,303,308,284,0
308,309,307,281,0
309,318,307,280,0
308,330,308,280,0
308,341,308,281,0
307,346,309,283,0
308,343,311,285,0
313,329,311,286,0
318,305,310,287,0
317,279,308,287,0
310,256,307,287,0
303,242,306,286,0
299,245,306,287,0
298,260,306,292,0
300,278,307,298,0
302,293,308,304,0
303,302,308,308,0
303,305,309,313,0
302,301,309,316,0
302,296,310,319,0
302,294,310,321,0
302,295,310,321,0
303,299,309,318,0
304,302,308,314,0
305,303,306,310,0
305,300,304,307,0
304,289,302,307,0
304,279,302,309,0
306,275,302,312,0
308,278,304,315,0
309,282,305,317,0
309,285,306,316,0
308,290,307,314,0
307,296,308,312,0
306,305,309,311,0
306,312,309,311,0
307,315,309,308,0
307,316,308,303,0
306,318,306,298,0
305,320,304,294,0
304,320,303,293,0
305,322,302,294,0
308,326,302,296,0
310,332,303,299,0
309,337,304,301,0
305,341,306,304,0
303,345,307,307,0
301,344,308,309,0
301,340,309,311,0
302,334,310,312,0
302,327,310,311,0
302,321,310,309,0
301,316,310,308,0
301,311,309,308,0
301,307,308,309,0
301,304,306,310,0
302,301,305,311,0
303,300,304,313,0
305,302,305,315,0
306,306,306,319,0
305,313,307,324,0
304,317,308,330,0
302,316,310,333,0
300,303,310,335,0
299,286,310,334,0
299,269,310,330,0
299,258,310,321,0
298,257,309,310,0
298,262,308,301,0
298,271,308,294,0
298,281,309,290,0
301,289,308,288,0
304,293,307,288,0
307,294,305,286,0
307,293,304,285,0
306,293,303,282,0
304,292,302,280,0
303,291,300,279,0
301,290,299,278,0
301,294,299,278,0
302,302,300,279,0
303,314,302,282,0
305,324,304,286,0
306,328,306,290,0
307,324,308,294,0
308,314,310,299,0
308,303,312,304,0
307,290,313,308,0
305,282,313,311,0
304,283,313,313,0
301,289,312,313,0
298,295,312,311,0
294,295,312,307,0
292,290,312,303,0
295,285,312,299,0
301,287,313,298,0
306,291,314,297,0
310,298,315,297,0
313,308,316,297,0
313,320,317,298,0
314,330,317,300,0
313,338,317,303,0
313,344,316,305,0
312,348,316,308,0
312,350,317,310,0
311,349,318,311,0
311,345,317,311,0
309,339,314,310,0
308,335,312,308,0
308,333,310,306,0
308,333,308,305,0
307,331,307,307,0
307,327,306,310,0
306,319,304,314,0
306,306,303,316,0
305,290,303,314,0
306,269,302,311,0
309,250,303,309,0
316,246,304,309,0
324,257,305,310,0
324,274,307,311,0
320,288,309,311,0
313,296,310,311,0
309,294,310,312,0
305,289,311,312,0
303,284,311,311,0
302,283,310,309,0
301,285,308,305,0
299,289,306,300,0
296,291,304,294,0
295,294,303,292,0
296,299,304,293,0
299,302,306,295,0
303,304,307,297,0
306,309,307,299,0
307,317,307,301,0
310,323,307,304,0
311,323,306,308,0
313,317,304,312,0
314,310,303,313,0
313,305,302,311,0
309,303,302,310,0
306,306,303,313,0
306,311,305,317,0
307,315,309,321,0
306,317,313,324,0
307,318,316,323,0
307,316,318,319,0
307,314,318,314,0
307,310,316,309,0
306,307,314,306,0
306,305,312,303,0
305,306,311,301,0
303,311,308,299,0
302,319,307,297,0
303,326,306,297,0
305,331,306,298,0
306,330,306,300,0
308,322,304,303,0
309,312,304,306,0
312,302,303,308,0
313,299,304,307,0
314,300,305,305,0
313,303,307,302,0
312,302,309,299,0
308,295,311,296,0
305,285,313,295,0
304,280,316,295,0
306,280,318,297,0
310,284,317,298,0
312,290,313,298,0
312,293,309,297,0
310,295,306,297,0
309,298,304,296,0
307,303,303,295,0
304,307,303,295,0
303,305,303,294,0
301,298,302,294,0
300,297,302,295,0
301,306,301,297,0
303,320,302,298,0
306,328,303,301,0
309,330,304,305,0
311,330,306,308,0
313,329,308,310,0
313,325,309,311,0
314,317,311,311,0
314,309,312,310,0
315,304,312,311,0
318,303,313,312,0
322,306,313,313,0
327,309,314,314,0
329,308,312,314,0
320,303,310,312,0
305,297,309,312,0
293,293,307,311,0
285,291,306,310,0
284,291,305,309,0
286,293,305,308,0
291,294,306,311,0
297,297,307,317,0
301,302,308,324,0
305,305,309,327,0
307,305,309,328,0
307,306,309,325,0
307,309,309,322,0
306,316,309,316,0
305,326,308,308,0
304,331,305,300,0
304,330,303,291,0
304,324,301,285,0
304,317,299,281,0
305,311,298,280,0
305,306,298,281,0
305,301,298,286,0
303,297,298,294,0
302,293,298,302,0
301,291,298,309,0
301,287,297,315,0
301,281,297,320,0
300,273,297,324,0
299,265,298,326,0
298,261,299,329,0
298,263,301,330,0
301,279,303,331,0
305,303,305,328,0
308,324,304,322,0
308,335,302,313,0
307,338,299,302,0
306,337,295,293,0
303,335,292,288,0
301,331,289,284,0
299,324,287,283,0
299,321,288,285,0
300,317,290,288,0
302,312,293,292,0
304,308,296,295,0
307,309,298,298,0
308,313,299,299,0
310,318,300,298,0
314,321,300,296,0
316,321,300,294,0
316,316,298,293,0
314,309,297,291,0
310,300,296,289,0
306,292,297,288,0
303,284,297,288,0
301,284,298,289,0
299,292,300,293,0
299,305,302,297,0
301,317,304,302,0
304,325,305,305,0
309,335,306,306,0
311,340,305,306,0
312,338,304,306,0
313,331,304,306,0
314,320,303,306,0
315,308,301,308,0
315,293,299,310,0
315,280,297,312,0
314,273,296,313,0
315,271,297,315,0
317,271,299,316,0
320,276,302,316,0
321,283,305,316,0
316,287,306,314,0
309,287,306,310,0
303,284,304,306,0
300,286,302,302,0
302,293,301,300,0
306,300,301,299,0
312,301,300,299,0
312,298,300,299,0
306,292,300,300,0
300,283,300,299,0
297,275,299,297,0
295,273,298,293,0
294,273,297,292,0
293,272,296,294,0
291,271,297,299,0
291,276,300,305,0
293,285,303,310,0
295,294,306,313,0
299,300,310,313,0
302,303,311,312,0
304,308,311,308,0
305,313,310,304,0
304,318,308,302,0
302,324,305,302,0
301,333,302,304,0
301,340,300,307,0
300,340,299,310,0
297,335,299,311,0
294,333,299,312,0
292,331,299,312,0
292,328,300,311,0
297,325,300,310,0
305,319,301,309,0
312,312,302,307,0
315,312,301,305,0
315,315,301,303,0
314,320,302,302,0
313,324,303,301,0
311,324,304,302,0
309,323,306,303,0
307,322,307,306,0
306,320,307,309,0
305,317,307,313,0
305,313,306,316,0
306,310,306,320,0
307,310,305,321,0
308,309,304,321,0
309,310,303,319,0
310,310,302,316,0
310,310,302,310,0
310,309,303,304,0
308,310,303,299,0
307,314,304,298,0
306,315,306,299,0
303,309,307,302,0
303,301,309,305,0
306,288,311,306,0
309,270,311,306,0
310,253,312,305,0
311,244,312,304,0
311,242,312,302,0
310,246,313,299,0
308,256,312,297,0
305,269,310,294,0
303,285,307,292,0
302,300,305,292,0
303,311,305,294,0
303,314,304,297,0
302,316,304,301,0
301,320,303,305,0
302,324,302,308,0
302,329,301,309,0
303,335,299,308,0
304,340,298,307,0
306,341,298,304,0
309,336,298,301,0
311,324,299,298,0
314,310,299,296,0
316,300,300,296,0
319,296,303,298,0
323,300,305,302,0
325,310,307,304,0
327,321,307,308,0
328,329,309,311,0
323,334,310,315,0
315,334,312,319,0
308,330,314,322,0
303,325,315,324,0
301,321,313,326,0
300,319,310,327,0
301,317,306,325,0
302,317,303,320,0
304,318,299,314,0
306,319,297,308,0
309,319,295,306,0
310,315,295,306,0
310,313,294,308,0
307,312,295,309,0
305,313,295,308,0
302,314,296,306,0
301,314,297,304,0
300,311,299,302,0
299,307,300,302,0
298,302,300,303,0
297,296,300,305,0
295,293,298,308,0
294,301,296,309,0
296,314,296,308,0
300,319,296,306,0
305,315,296,302,0
309,303,296,297,0
311,288,295,291,0
310,275,295,286,0
309,271,294,283,0
307,275,295,283,0
307,283,296,288,0
307,290,298,295,0
307,295,299,302,0
307,299,300,308,0
307,305,301,314,0
307,315,300,319,0
306,325,298,322,0
306,334,297,325,0
305,342,297,327,0
304,346,295,326,0
304,347,294,324,0
304,345,293,320,0
306,338,292,316,0
307,326,291,312,0
308,309,291,308,0
308,295,290,306,0
307,289,290,304,0
306,294,289,303,0
305,302,287,302,0
304,309,287,301,0
304,313,287,300,0
302,311,287,300,0
301,307,287,302,0
300,305,288,305,0
300,301,289,308,0
304,296,291,310,0
308,296,292,310,0
311,300,292,308,0
311,301,291,304,0
308,302,290,300,0
304,308,289,296,0
301,319,289,295,0
300,330,290,296,0
301,334,291,298,0
303,328,293,300,0
305,318,294,301,0
306,306,294,301,0
308,295,291,301,0
307,284,288,301,0
306,275,286,301,0
304,271,286,302,0
304,272,289,304,0
305,275,294,306,0
309,279,298,309,0
314,289,300,312,0
319,302,299,314,0
323,314,294,314,0
327,325,289,311,0
328,335,285,306,0
322,340,283,301,0
312,338,283,297,0
301,331,283,294,0
293,325,283,294,0
289,320,284,296,0
289,319,286,301,0
291,319,288,308,0
293,318,289,314,0
295,318,288,317,0
295,318,287,317,0
295,316,285,316,0
295,314,285,313,0
296,314,286,312,0
298,315,288,309,0
300,315,289,306,0
301,312,291,302,0
303,307,292,300,0
304,299,293,300,0
304,290,294,303,0
303,283,295,308,0
302,279,295,312,0
302,289,295,314,0
306,306,295,314,0
311,320,295,311,0
315,329,294,306,0
315,329,294,301,0
312,322,295,296,0
306,312,296,291,0
304,304,296,288,0
304,301,297,287,0
307,297,299,288,0
311,294,301,290,0
313,291,302,293,0
313,292,304,297,0
312,292,304,300,0
310,292,305,302,0
307,291,305,304,0
305,292,306,306,0
304,294,307,310,0
303,294,307,315,0
302,291,306,320,0
301,289,306,324,0
300,286,306,328,0
299,284,307,331,0
301,286,308,334,0
304,298,309,333,0
306,313,309,328,0
307,326,308,319,0
307,333,306,309,0
309,333,306,299,0
311,327,306,292,0
314,319,307,287,0
315,313,308,285,0
314,311,309,286,0
312,312,311,287,0
310,316,312,290,0
310,323,312,293,0
310,329,311,295,0
309,332,310,296,0
309,329,308,297,0
310,327,307,297,0
309,325,306,297,0
308,324,303,297,0
305,322,300,296,0
304,318,298,295,0
302,315,296,294,0
301,314,296,294,0
302,313,296,295,0
303,310,297,296,0
304,303,297,298,0
306,294,298,301,0
309,283,299,305,0
312,275,301,310,0
317,269,302,314,0
323,270,302,318,0
330,276,303,322,0
333,283,302,325,0
330,288,302,327,0
319,295,303,330,0
308,303,303,333,0
302,315,304,334,0
298,327,304,332,0
298,335,302,327,0
299,337,301,320,0
300,334,301,314,0
302,329,303,309,0
304,327,304,303,0
307,327,303,298,0
308,326,301,292,0
307,323,298,288,0
307,317,298,284,0
307,312,297,283,0
306,308,297,283,0
306,301,297,285,0
308,291,297,288,0
310,282,298,292,0
311,274,300,294,0
311,268,301,296,0
310,264,302,296,0
308,263,302,296,0
307,264,303,295,0
305,270,303,294,0
303,280,303,293,0
302,296,303,294,0
302,314,304,296,0
302,329,304,297,0
303,336,306,299,0
304,335,308,301,0
306,326,308,305,0
308,317,307,312,0
309,305,307,320,0
309,294,305,326,0
309,281,304,329,0
308,269,303,328,0
308,264,303,326,0
308,269,302,323,0
307,285,303,322,0
306,305,304,321,0
306,321,305,319,0
307,333,305,317,0
312,335,306,314,0
316,327,306,309,0
319,314,307,304,0
319,300,308,300,0
315,292,308,296,0
312,297,309,295,0
310,305,310,296,0
308,305,310,299,0
307,300,307,302,0
306,297,302,307,0
307,302,297,312,0
308,308,294,317,0
311,313,293,320,0
315,313,293,321,0
318,311,294,318,0
321,307,295,313,0
320,304,296,308,0
316,301,297,305,0
311,300,298,301,0
307,299,298,299,0
303,299,298,299,0
300,300,298,301,0
298,300,298,303,0
295,298,297,304,0
294,298,297,306,0
295,302,297,307,0
300,304,298,308,0
305,303,298,308,0
312,300,298,306,0
319,294,297,303,0
325,285,296,301,0
325,278,295,298,0
320,273,296,297,0
314,271,297,298,0
310,272,299,299,0
309,275,301,301,0
308,280,302,302,0
307,290,302,303,0
306,310,302,303,0
304,333,302,303,0
304,354,301,304,0
304,368,300,306,0
305,370,300,307,0
306,361,299,310,0
305,347,299,312,0
303,333,298,311,0
301,322,297,309,0
298,312,295,305,0
297,304,293,301,0
299,301,292,297,0
303,300,292,296,0
307,297,292,295,0
310,292,292,295,0
312,286,293,295,0
311,282,295,297,0
310,280,297,300,0
308,279,299,303,0
307,281,301,307,0
306,288,303,311,0
306,298,304,314,0
308,307,305,316,0
310,313,304,317,0
312,314,302,315,0
312,311,301,312,0
310,305,299,308,0
308,300,299,306,0
306,298,299,306,0
305,299,299,305,0
304,304,299,304,0
301,308,298,303,0
298,312,298,302,0
294,314,298,301,0
293,319,299,300,0
294,318,300,301,0
299,310,301,302,0
304,299,303,304,0
307,290,303,306,0
308,285,303,308,0
306,284,301,313,0
301,288,300,318,0
299,296,299,321,0
300,303,300,323,0
304,309,301,321,0
306,311,302,319,0
307,310,303,316,0
307,306,305,314,0
306,297,306,311,0
304,286,306,309,0
302,275,305,305,0
301,269,302,302,0
303,272,299,299,0
306,281,296,298,0
311,288,295,298,0
313,292,295,299,0
314,296,296,300,0
315,303,297,305,0
314,312,297,309,0
313,322,297,314,0
312,330,297,318,0
310,332,297,321,0
308,329,298,323,0
306,322,298,323,0
304,316,298,320,0
302,312,298,314,0
301,314,298,309,0
302,324,298,304,0
306,333,300,299,0
311,335,300,295,0
316,330,300,292,0
318,321,300,290,0
318,312,301,290,0
318,305,301,290,0
318,300,301,290,0
315,294,302,292,0
309,291,303,294,0
304,291,305,298,0
300,294,306,302,0
297,298,307,306,0
296,301,306,308,0
295,302,305,309,0
295,302,304,310,0
295,305,304,311,0
295,307,304,312,0
296,307,304,313,0
295,306,303,312,0
295,302,303,310,0
293,299,303,308,0
292,297,302,307,0
292,297,302,305,0
294,300,301,304,0
297,302,301,303,0
300,303,301,304,0
303,301,303,306,0
306,298,305,307,0
307,293,307,309,0
308,286,309,310,0
308,282,312,313,0
309,283,314,316,0
308,288,316,320,0
307,297,316,324,0
306,307,316,329,0
305,312,315,332,0
305,312,314,330,0
304,310,311,322,0
301,309,307,312,0
298,312,304,304,0
297,316,302,297,0
297,320,303,293,0
303,325,305,291,0
309,330,306,291,0
314,331,307,291,0
316,328,306,293,0
317,324,306,294,0
317,318,305,296,0
317,315,304,295,0
316,312,303,294,0
315,310,303,292,0
314,308,302,290,0
313,306,302,289,0
313,302,300,287,0
311,297,300,287,0
310,293,299,286,0
308,292,298,285,0
307,297,297,284,0
305,303,297,283,0
302,308,297,285,0
299,308,298,289,0
297,304,300,295,0
298,303,302,301,0
302,302,304,307,0
308,297,306,313,0
313,294,307,316,0
317,292,305,318,0
318,289,302,319,0
317,287,301,320,0
317,287,301,322,0
316,291,302,325,0
314,299,304,327,0
312,308,305,328,0
308,315,305,327,0
306,318,304,324,0
306,318,303,320,0
307,313,301,314,0
307,304,299,308,0
306,297,297,303,0
303,298,296,297,0
301,303,296,293,0
300,311,295,290,0
301,320,295,290,0
303,322,295,292,0
306,321,295,296,0
309,319,295,300,0
311,320,296,304,0
313,324,297,307,0
314,325,299,308,0
316,321,300,310,0
318,313,301,311,0
320,303,302,310,0
321,294,302,308,0
322,288,301,304,0
321,285,300,301,0
319,284,300,297,0
314,283,300,294,0
307,286,302,291,0
302,293,303,292,0
301,302,304,295,0
301,310,306,301,0
301,314,307,308,0
302,313,307,312,0
303,308,305,312,0
302,298,301,311,0
301,291,298,310,0
302,288,297,309,0
304,289,297,308,0
306,292,298,308,0
309,295,298,309,0
309,300,299,311,0
308,307,299,312,0
308,311,299,313,0
309,312,300,312,0
312,311,299,310,0
313,311,299,308,0
313,313,299,306,0
312,314,298,303,0
311,313,297,301,0
310,310,297,297,0
309,306,297,292,0
309,303,297,288,0
309,302,297,285,0
309,305,297,284,0
311,315,297,286,0
313,325,298,288,0
316,330,298,292,0
318,328,299,296,0
320,321,300,299,0
319,312,301,302,0
317,301,303,305,0
314,292,305,306,0
311,288,306,307,0
309,292,306,308,0
309,301,306,309,0
311,313,305,311,0
313,322,303,313,0
314,324,300,313,0
312,321,298,312,0
307,317,297,311,0
303,315,296,310,0
300,319,295,307,0
300,327,295,306,0
300,336,294,306,0
301,341,294,308,0
303,341,294,312,0
306,338,295,314,0
308,334,295,317,0
310,328,296,321,0
312,321,298,324,0
314,319,300,327,0
314,321,301,325,0
313,324,301,320,0
311,324,300,313,0
308,322,299,305,0
306,317,297,298,0
304,310,296,294,0
303,301,295,293,0
302,292,294,293,0
300,287,294,293,0
299,285,294,293,0
299,287,295,293,0
300,294,296,294,0
303,300,298,296,0
307,303,300,299,0
311,306,303,305,0
313,309,306,310,0
315,314,309,316,0
317,319,311,320,0
318,321,311,320,0
318,321,309,317,0
315,319,305,310,0
309,314,301,299,0
303,309,297,287,0
298,303,294,276,0
296,296,292,269,0
298,289,292,267,0
302,288,293,271,0
304,297,296,281,0
305,302,299,290,0
305,304,301,297,0
304,304,300,302,0
304,304,299,305,0
302,302,298,307,0
301,302,298,309,0
301,306,298,311,0
302,308,298,312,0
302,307,298,312,0
300,302,299,310,0
297,294,299,306,0
295,290,299,303,0
295,293,299,301,0
296,301,300,300,0
298,311,300,299,0
300,322,300,298,0
303,330,300,298,0
304,333,300,298,0
305,331,300,299,0
306,325,300,301,0
305,317,301,303,0
304,304,302,306,0
303,290,303,308,0
303,279,304,310,0
304,271,303,312,0
306,271,303,314,0
308,280,302,316,0
309,294,303,317,0
308,307,304,316,0
307,317,305,314,0
306,326,309,311,0
306,331,311,308,0
309,333,314,306,0
313,337,315,305,0
315,338,315,303,0
313,331,312,301,0
309,320,309,301,0
306,312,305,300,0
303,308,302,300,0
302,309,300,301,0
300,310,299,304,0
300,308,299,306,0
300,304,299,307,0
303,297,300,308,0
307,289,301,308,0
310,284,302,309,0
312,282,303,310,0
313,284,304,313,0
313,290,305,316,0
312,299,306,319,0
311,307,307,321,0
310,312,308,321,0
307,314,308,319,0
303,311,308,316,0
299,304,307,310,0
297,294,308,306,0
296,287,309,303,0
296,283,311,305,0
297,283,312,311,0
297,285,313,319,0
298,291,313,328,0
299,301,314,335,0
304,312,314,341,0
309,320,312,343,0
313,323,309,342,0
313,321,305,338,0
311,315,303,331,0
310,306,302,324,0
307,296,301,315,0
305,289,301,306,0
303,286,302,299,0
301,290,301,294,0
300,304,301,290,0
299,320,299,287,0
298,331,298,285,0
298,337,298,285,0
299,338,298,285,0
299,336,299,286,0
300,336,300,287,0
300,337,301,288,0
299,336,301,290,0
299,329,300,292,0
299,319,300,293,0
302,308,299,293,0
305,300,299,294,0
311,303,299,295,0
317,314,299,297,0
315,325,300,298,0
310,330,302,299,0
304,326,303,300,0
300,317,305,304,0
297,307,308,307,0
295,297,309,310,0
296,293,310,313,0
300,294,310,314,0
304,294,309,313,0
303,290,307,313,0
300,289,304,311,0
297,292,303,311,0
297,296,302,310,0
300,299,303,310,0
304,302,304,308,0
306,305,306,307,0
306,306,309,308,0
305,304,312,310,0
304,301,314,313,0
305,300,316,318,0
305,304,317,322,0
305,306,315,327,0
307,301,314,332,0
309,298,314,338,0
311,301,315,340,0
313,308,315,339,0
313,314,314,335,0
311,317,313,329,0
308,315,311,322,0
305,310,310,315,0
303,303,310,308,0
301,297,310,300,0
300,293,308,292,0
299,295,306,283,0
298,301,305,276,0
300,309,304,271,0
303,313,302,267,0
305,313,300,266,0
306,308,298,266,0
304,300,297,268,0
302,291,297,272,0
301,282,298,278,0
303,276,300,285,0
307,281,302,294,0
310,294,303,303,0
311,306,305,310,0
311,314,305,315,0
311,318,305,318,0
310,320,304,319,0
308,319,304,318,0
305,316,303,315,0
300,318,302,312,0
294,328,302,308,0
289,338,301,306,0
285,341,300,305,0
282,338,300,306,0
282,330,299,310,0
284,320,298,316,0
287,311,297,321,0
291,309,297,325,0
298,308,297,325,0
307,306,297,322,0
316,301,298,317,0
324,295,299,313,0
330,292,301,309,0
334,292,302,306,0
335,295,302,301,0
332,303,302,296,0
328,315,299,292,0
324,320,296,290,0
322,321,294,291,0
320,320,293,294,0
316,314,293,298,0
313,306,293,303,0
312,302,294,307,0
312,304,295,311,0
309,309,295,313,0
303,314,296,313,0
298,316,297,312,0
295,311,298,309,0
292,299,300,307,0
291,281,302,306,0
290,265,304,306,0
291,254,304,307,0
294,249,303,307,0
295,254,301,306,0
296,275,299,308,0
297,307,299,312,0
299,335,298,314,0
302,351,297,316,0
304,352,298,315,0
307,343,300,312,0
311,324,303,309,0
313,298,306,306,0
312,273,308,304,0
309,262,308,304,0
307,267,306,305,0
304,279,303,304,0
302,289,299,303,0
302,299,296,301,0
303,310,294,301,0
306,320,294,300,0
308,326,295,301,0
308,330,297,301,0
306,334,298,302,0
305,334,299,301,0
306,329,300,299,0
307,323,302,299,0
308,319,304,300,0
309,314,305,300,0
311,308,306,302,0
312,303,306,303,0
313,300,306,304,0
312,298,306,305,0
311,296,304,304,0
307,292,304,304,0
303,292,303,304,0
300,295,302,305,0
299,298,302,307,0
301,296,303,309,0
305,295,304,313,0
309,299,306,319,0
313,305,308,326,0
315,308,310,329,0
315,306,310,329,0
316,303,310,326,0
316,298,308,320,0
317,293,306,312,0
317,289,303,303,0
317,286,301,296,0
316,284,299,291,0
314,281,298,289,0
313,274,298,290,0
312,267,299,292,0
312,268,299,298,0
308,275,299,308,0
304,287,298,318,0
301,301,299,328,0
301,312,299,334,0
302,316,299,336,0
305,315,298,334,0
305,311,298,333,0
299,304,300,332,0
293,299,302,331,0
290,297,303,330,0
289,300,304,327,0
289,302,304,322,0
290,303,303,315,0
290,309,303,309,0
292,320,303,303,0
294,331,304,298,0
296,340,305,293,0
296,345,307,288,0
295,345,308,285,0
295,341,310,283,0
297,335,312,282,0
300,329,313,283,0
303,321,311,284,0
305,310,308,286,0
306,299,306,291,0
304,293,304,296,0
301,289,301,300,0
298,288,298,301,0
297,289,296,300,0
297,292,295,299,0
299,298,295,298,0
302,302,296,298,0
305,303,298,299,0
307,304,301,302,0
307,306,304,305,0
307,310,307,309,0
310,313,309,311,0
311,316,309,311,0
312,321,308,309,0
312,326,307,307,0
312,327,305,306,0
312,322,303,306,0
312,311,302,307,0
313,296,300,308,0
316,280,299,309,0
321,267,298,310,0
327,258,298,310,0
331,258,298,311,0
329,268,300,310,0
323,281,303,308,0
317,289,306,305,0
312,292,306,301,0
307,290,307,298,0
303,288,308,298,0
300,293,308,301,0
298,305,308,304,0
298,318,308,307,0
298,327,306,309,0
297,329,306,310,0
297,329,305,309,0
297,328,304,307,0
296,327,302,304,0
295,328,301,301,0
294,329,300,299,0
294,330,300,300,0
296,327,300,302,0
299,320,302,306,0
301,310,303,312,0
304,306,305,318,0
306,306,307,323,0
307,309,308,328,0
308,312,309,329,0
309,312,309,328,0
309,309,308,326,0
309,303,306,322,0
311,294,306,319,0
312,282,304,314,0
315,268,303,308,0
317,260,301,303,0
314,261,299,299,0
306,265,298,296,0
297,269,297,294,0
294,279,297,296,0
298,298,298,300,0
303,318,299,305,0
308,335,301,312,0
310,345,302,322,0
311,349,304,330,0
311,347,305,336,0
310,342,306,339,0
309,338,307,338,0
309,334,308,336,0
309,330,310,331,0
310,326,312,326,0
312,325,314,320,0
313,324,316,316,0
314,324,318,313,0
314,322,318,310,0
313,312,317,307,0
309,297,314,304,0
303,285,309,301,0
297,283,302,301,0
292,289,296,301,0
290,297,293,301,0
291,303,293,300,0
295,308,293,300,0
300,311,294,300,0
306,310,295,300,0
311,306,295,299,0
315,299,296,299,0
317,294,298,300,0
317,294,299,300,0
314,296,300,302,0
313,301,300,304,0
313,305,301,306,0
314,307,301,309,0
315,306,301,312,0
314,303,301,314,0
311,298,301,313,0
306,291,302,309,0
303,283,302,306,0
300,280,303,303,0
299,281,302,300,0
299,287,300,298,0
299,291,298,294,0
299,291,297,290,0
301,292,297,287,0
303,297,298,287,0
306,307,299,290,0
308,316,301,294,0
309,323,303,299,0
309,328,304,304,0
309,331,304,307,0
312,329,304,309,0
316,325,304,309,0
320,322,304,308,0
323,322,303,308,0
319,320,302,308,0
311,319,302,308,0
305,319,303,307,0
303,319,303,305,0
302,320,302,302,0
301,320,300,297,0
302,320,299,293,0
305,318,299,291,0
309,311,300,293,0
312,302,301,296,0
313,293,302,300,0
313,287,304,303,0
312,284,306,306,0
310,282,308,307,0
308,282,310,306,0
305,286,312,302,0
301,299,313,297,0
298,317,315,294,0
296,329,316,293,0
297,338,318,297,0
302,339,319,301,0
308,330,316,305,0
313,312,311,310,0
316,289,304,314,0
313,271,298,319,0
308,263,295,324,0
304,260,294,329,0
304,262,294,332,0
304,265,295,334,0
305,271,296,334,0
306,278,297,332,0
307,286,299,331,0
307,293,301,329,0
307,300,303,327,0
306,304,304,324,0
304,309,305,320,0
303,314,305,315,0
301,317,304,309,0
300,320,304,302,0
300,324,304,296,0
302,326,305,292,0
306,320,306,292,0
309,307,306,297,0
310,295,305,304,0
309,288,304,311,0
310,290,302,316,0
310,295,301,319,0
309,300,302,319,0
305,302,304,318,0
303,302,307,317,0
302,297,310,319,0
299,291,313,321,0
297,287,315,324,0
296,289,316,326,0
297,295,315,325,0
299,301,313,321,0
302,307,310,314,0
303,311,308,306,0
303,310,306,297,0
302,306,305,290,0
302,301,304,285,0
302,297,304,284,0
306,293,305,284,0
309,289,304,284,0
311,291,303,285,0
311,298,303,288,0
309,307,302,291,0
308,314,302,295,0
310,311,303,298,0
312,302,305,301,0
314,295,308,304,0
316,292,311,307,0
318,293,316,311,0
320,296,320,314,0
319,298,325,318,0
315,299,327,321,0
309,299,329,322,0
303,297,329,321,0
298,296,328,318,0
291,296,322,312,0
286,298,314,306,0
281,307,308,302,0
281,327,303,301,0
286,349,301,303,0
296,358,301,305,0
307,349,301,306,0
316,328,302,304,0
322,303,305,301,0
326,276,310,298,0
327,256,317,297,0
325,248,325,299,0
324,253,332,304,0
322,265,335,309,0
321,282,334,314,0
318,298,327,318,0
313,309,317,320,0
310,317,306,321,0
310,320,300,321,0
310,319,296,319,0
311,316,295,316,0
311,312,296,312,0
312,309,297,308,0
312,308,297,303,0
312,311,297,298,0
312,319,295,293,0
312,333,294,290,0
313,345,292,288,0
317,349,291,288,0
321,344,293,291,0
320,338,295,296,0
315,334,297,300,0
310,336,299,304,0
307,339,300,308,0
304,338,302,311,0
303,325,305,313,0
302,305,310,314,0
303,281,317,314,0
304,257,321,312,0
306,236,321,308,0
308,225,317,304,0
310,225,312,299,0
312,229,307,295,0
313,237,304,291,0
313,244,302,286,0
312,254,300,284,0
311,269,297,285,0
312,289,296,289,0
313,302,296,294,0
314,306,296,298,0
312,302,297,301,0
306,292,298,302,0
297,277,298,302,0
287,267,298,301,0
282,271,298,302,0
285,280,300,305,0
294,293,302,311,0
301,310,302,318,0
304,325,301,325,0
306,333,300,331,0
307,331,299,334,0
307,326,298,333,0
307,323,298,330,0
309,322,298,326,0
314,320,299,321,0
317,315,299,317,0
318,310,298,312,0
319,307,298,308,0
320,304,299,306,0
320,305,299,305,0
321,308,299,304,0
320,313,299,305,0
319,318,298,308,0
317,319,296,312,0
315,318,296,315,0
314,319,296,316,0
314,319,296,316,0
314,319,296,314,0
316,319,297,312,0
319,318,298,307,0
320,316,297,301,0
320,309,297,295,0
320,291,296,290,0
319,270,295,288,0
319,253,296,288,0
322,245,297,290,0
327,248,298,294,0
331,260,299,299,0
330,280,299,305,0
321,298,298,311,0
310,309,299,317,0
302,314,301,322,0
299,316,304,328,0
298,318,305,332,0
297,319,306,334,0
296,322,305,332,0
294,325,302,329,0
294,322,300,324,0
296,314,298,321,0
301,306,297,320,0
306,299,297,319,0
311,298,297,318,0
315,298,296,317,0
317,295,296,317,0
316,291,297,319,0
313,285,299,323,0
309,278,300,326,0
304,271,298,328,0
302,266,297,330,0
301,267,295,331,0
302,277,295,332,0
305,293,294,333,0
310,308,294,332,0
316,316,294,331,0
318,315,294,327,0
316,312,294,323,0
313,310,292,318,0
310,313,290,312,0
307,317,288,304,0
304,316,285,296,0
302,306,283,285,0
299,289,281,275,0
297,280,280,268,0
298,283,282,266,0
301,293,283,269,0
306,309,285,272,0
309,320,286,276,0
312,319,287,280,0
313,308,288,285,0
314,296,290,289,0
314,287,291,295,0
315,282,293,300,0
315,279,294,304,0
315,278,295,308,0
314,277,296,310,0
313,278,297,311,0
312,280,297,310,0
310,283,296,307,0
309,288,293,302,0
308,297,290,297,0
307,306,288,292,0
306,318,287,288,0
306,334,288,288,0
305,351,291,292,0
305,359,293,300,0
305,355,293,310,0
305,342,293,319,0
305,323,292,327,0
306,303,290,332,0
308,288,288,335,0
309,280,287,334,0
309,280,286,332,0
308,284,286,327,0
306,291,286,322,0
304,297,285,317,0
300,299,285,311,0
296,297,284,306,0
295,293,283,303,0
297,292,284,303,0
303,295,285,304,0
310,302,286,305,0
314,304,288,307,0
311,303,289,311,0
301,300,292,315,0
294,297,294,319,0
294,295,295,321,0
298,291,295,320,0
301,288,296,319,0
303,286,297,319,0
303,286,297,319,0
301,288,297,319,0
298,291,297,318,0
297,295,298,316,0
298,298,299,312,0
300,300,298,308,0
302,301,297,303,0
301,298,294,297,0
300,293,292,291,0
299,287,290,287,0
302,289,291,284,0
305,297,294,284,0
309,306,296,287,0
313,312,298,290,0
315,318,299,295,0
315,323,299,301,0
313,329,299,307,0
311,332,298,315,0
309,335,297,323,0
309,340,297,331,0
310,343,297,339,0
311,343,297,345,0
311,342,297,348,0
311,339,298,349,0
311,333,300,349,0
312,320,301,346,0
312,305,303,342,0
313,290,304,336,0
312,280,305,330,0
310,276,307,324,0
308,279,308,319,0
308,285,308,314,0
308,290,306,309,0
308,296,305,303,0
307,301,302,297,0
304,301,300,290,0
299,293,298,283,0
294,280,296,277,0
290,268,295,271,0
288,261,296,269,0
289,262,297,271,0
294,272,299,276,0
302,287,302,283,0
308,299,304,289,0
313,308,307,294,0
315,310,309,299,0
315,307,312,302,0
314,306,313,303,0
313,310,313,303,0
312,319,314,304,0
311,330,315,306,0
310,337,315,310,0
308,341,316,317,0
306,343,317,325,0
305,341,316,333,0
306,336,314,338,0
308,331,310,340,0
310,327,307,337,0
312,321,305,331,0
314,310,302,323,0
316,294,300,313,0
314,274,299,304,0
312,256,300,299,0
309,252,302,297,0
307,266,303,296,0
306,285,304,295,0
304,297,304,292,0
302,301,304,288,0
301,301,303,285,0
300,302,302,283,0
301,306,302,282,0
302,311,303,283,0
304,315,303,283,0
304,314,303,283,0
306,307,303,283,0
309,293,302,283,0
314,278,302,283,0
317,272,301,284,0
314,278,300,287,0
307,290,301,291,0
303,303,302,296,0
300,309,303,301,0
298,309,305,305,0
299,307,309,310,0
302,308,313,314,0
306,312,316,319,0
309,320,318,322,0
311,330,318,326,0
313,338,316,329,0
313,342,313,330,0
313,345,309,329,0
312,345,305,326,0
312,344,302,321,0
313,341,300,317,0
314,334,300,313,0
315,324,302,312,0
315,313,303,312,0
313,300,303,312,0
311,289,304,312,0
309,283,304,311,0
308,279,304,309,0
306,277,304,308,0
304,279,304,307,0
300,280,304,309,0
298,280,305,311,0
295,283,306,314,0
296,292,308,319,0
300,301,311,325,0
306,310,313,328,0
311,320,313,329,0
315,331,313,327,0
316,341,311,323,0
316,349,310,318,0
315,348,308,312,0
314,338,306,307,0
314,327,305,303,0
315,321,303,301,0
315,318,303,300,0
315,315,302,303,0
314,312,302,306,0
313,311,302,309,0
312,312,302,310,0
311,313,302,310,0
310,312,302,309,0
310,307,302,307,0
313,299,303,304,0
317,288,303,299,0
320,276,302,293,0
320,271,301,287,0
315,279,300,284,0
307,297,300,282,0
300,316,300,282,0
296,330,298,285,0
295,337,296,289,0
295,337,295,296,0
297,334,295,305,0
300,328,296,313,0
302,320,297,316,0
304,313,299,316,0
305,309,300,313,0
307,309,301,310,0
309,309,303,307,0
311,309,305,303,0
312,306,306,298,0
311,301,306,293,0
309,294,305,291,0
307,291,303,290,0
304,293,301,290,0
301,295,299,290,0
298,299,297,291,0
296,309,296,292,0
294,322,296,294,0
294,330,295,297,0
294,331,295,299,0
297,327,294,302,0
302,321,294,304,0
305,311,293,306,0
301,302,293,307,0
297,299,294,309,0
298,299,296,308,0
301,298,297,305,0
303,297,298,301,0
304,296,298,298,0
306,296,298,297,0
307,296,298,298,0
308,300,300,300,0
308,308,302,303,0
308,314,303,304,0
308,319,304,305,0
307,325,303,305,0
306,331,302,305,0
304,333,301,307,0
302,330,300,307,0
299,321,299,308,0
296,308,300,308,0
295,298,300,307,0
295,295,301,307,0
298,301,303,309,0
303,308,306,315,0
308,314,309,324,0
312,320,311,333,0
313,326,312,339,0
314,326,314,344,0
313,320,315,346,0
311,310,316,345,0
309,302,316,342,0
306,298,316,335,0
303,297,315,326,0
301,301,312,316,0
298,308,309,304,0
296,317,306,291,0
294,327,303,280,0
294,338,301,273,0
296,346,300,270,0
299,344,299,271,0
304,330,300,274,0
308,311,301,278,0
312,292,303,282,0
313,278,304,285,0
311,267,305,288,0
309,261,306,292,0
307,261,307,296,0
307,267,308,301,0
306,278,309,305,0
303,291,310,309,0
299,302,310,312,0
296,312,311,315,0
294,323,311,316,0
295,331,310,316,0
297,335,309,314,0
299,337,306,310,0
300,339,304,305,0
301,339,303,301,0
301,338,302,298,0
301,335,302,297,0
301,332,303,297,0
301,327,304,298,0
301,319,304,300,0
301,312,304,302,0
300,309,304,308,0
301,308,306,317,0
302,300,308,326,0
302,285,310,332,0
302,270,313,336,0
301,263,315,337,0
300,259,317,334,0
301,256,318,326,0
304,253,318,314,0
305,251,316,301,0
303,257,314,292,0
300,271,313,287,0
297,288,313,285,0
296,306,313,286,0
296,322,313,288,0
298,335,312,290,0
299,344,310,292,0
301,349,307,296,0
303,348,305,299,0
306,341,305,302,0
308,334,306,305,0
309,328,308,308,0
310,324,311,310,0
311,321,312,312,0
312,320,313,314,0
313,322,313,314,0
314,327,313,314,0
314,332,311,313,0
313,335,310,310,0
313,338,308,307,0
313,342,308,305,0
313,345,307,304,0
314,345,307,305,0
315,343,306,307,0
315,339,305,311,0
315,331,304,316,0
310,317,303,322,0
301,304,303,328,0
292,296,304,335,0
290,295,306,341,0
296,297,309,343,0
303,297,311,342,0
309,297,312,336,0
310,296,312,330,0
308,297,313,322,0
306,299,315,315,0
305,304,315,310,0
305,310,314,307,0
306,318,314,305,0
304,324,312,305,0
302,323,311,304,0
299,319,310,302,0
297,314,308,300,0
297,310,307,298,0
296,305,306,295,0
295,300,306,291,0
294,296,306,290,0
296,293,306,290,0
299,290,306,291,0
301,288,306,293,0
302,286,306,293,0
304,283,307,294,0
307,278,307,295,0
310,274,308,298,0
313,277,309,301,0
314,287,311,303,0
311,297,311,303,0
305,303,311,301,0
297,306,311,298,0
290,309,310,296,0
289,314,311,295,0
294,319,312,295,0
303,324,314,295,0
310,329,315,297,0
314,333,315,299,0
314,329,315,301,0
313,317,314,304,0
312,303,312,306,0
313,288,310,309,0
313,278,309,312,0
314,277,307,312,0
315,284,307,310,0
315,296,308,309,0
315,309,309,311,0
315,318,310,316,0
314,323,310,321,0
314,326,311,324,0
314,327,311,325,0
313,325,310,324,0
313,321,309,322,0
315,319,309,321,0
321,322,310,319,0
328,326,310,315,0
336,328,308,308,0
336,324,306,302,0
327,318,305,296,0
316,312,305,291,0
307,308,304,287,0
299,305,304,285,0
290,305,303,286,0
285,306,302,290,0
286,305,304,298,0
299,302,307,307,0
319,299,309,315,0
339,300,309,320,0
352,304,307,322,0
353,312,305,322,0
340,322,306,321,0
318,329,307,319,0
299,330,306,317,0
286,324,306,315,0
281,314,305,314,0
282,306,306,313,0
286,301,306,311,0
289,297,307,307,0
290,294,305,303,0
289,295,304,299,0
291,299,301,297,0
296,304,299,294,0
304,310,297,293,0
312,320,296,293,0
319,334,296,292,0
322,341,296,291,0
319,337,298,290,0
314,324,301,290,0
310,310,304,292,0
307,300,306,295,0
305,291,308,297,0
305,282,308,299,0
304,275,307,300,0
304,270,306,299,0
304,270,304,298,0
303,277,305,298,0
303,289,305,298,0
302,296,305,297,0
301,293,305,296,0
301,285,305,295,0
302,279,305,295,0
303,276,304,295,0
305,274,303,295,0
306,279,302,298,0
307,291,300,303,0
308,305,300,309,0
310,320,299,314,0
311,333,299,318,0
314,344,300,322,0
317,350,302,323,0
321,349,302,321,0
321,344,302,315,0
315,336,301,308,0
307,328,300,302,0
302,320,300,298,0
298,312,300,296,0
296,306,299,294,0
295,304,299,293,0
295,305,299,294,0
295,307,299,296,0
298,313,299,297,0
301,317,300,298,0
305,312,300,299,0
308,302,300,300,0
310,292,300,301,0
310,285,300,304,0
310,282,301,309,0
310,283,302,315,0
309,287,304,320,0
307,294,306,324,0
304,303,308,327,0
303,314,309,328,0
304,324,309,329,0
305,329,308,328,0
306,332,306,327,0
307,331,305,325,0
307,325,304,323,0
307,317,303,318,0
308,310,302,311,0
308,307,302,304,0
309,307,302,298,0
308,309,302,292,0
308,311,301,289,0
308,309,302,287,0
309,307,302,287,0
308,304,304,288,0
308,300,305,291,0
308,296,307,294,0
309,294,309,298,0
311,294,311,301,0
312,295,313,304,0
312,298,315,306,0
311,304,315,308,0
308,314,316,312,0
306,322,316,317,0
305,326,319,324,0
307,324,321,329,0
312,318,323,333,0
314,310,324,334,0
314,304,324,333,0
313,299,322,329,0
311,293,319,325,0
310,287,314,319,0
309,283,311,314,0
307,280,308,308,0
307,279,307,303,0
309,284,306,302,0
314,298,306,304,0
321,316,308,307,0
328,334,310,309,0
332,345,311,309,0
332,352,310,305,0
327,354,310,300,0
318,355,309,295,0
309,356,308,291,0
300,356,307,288,0
293,356,306,285,0
290,355,304,284,0
290,351,305,283,0
293,344,305,283,0
297,334,305,284,0
299,326,304,286,0
302,322,304,290,0
305,320,304,295,0
307,318,304,299,0
309,317,303,303,0
310,317,304,306,0
312,313,305,309,0
314,307,306,311,0
314,300,309,312,0
313,295,311,311,0
312,292,313,309,0
311,287,315,306,0
310,283,316,304,0
308,282,316,301,0
307,286,316,300,0
306,292,315,301,0
305,298,313,303,0
306,304,312,306,0
306,309,310,309,0
306,316,308,313,0
305,323,306,316,0
304,329,305,320,0
304,333,304,322,0
303,338,304,323,0
304,344,304,323,0
304,349,304,323,0
304,349,304,322,0
304,345,304,323,0
305,340,305,323,0
306,334,306,323,0
306,328,307,322,0
305,323,306,319,0
304,318,305,318,0
304,311,304,317,0
305,297,303,316,0
308,283,302,316,0
312,268,302,316,0
316,255,302,318,0
315,246,302,319,0
310,250,303,322,0
304,266,304,323,0
297,287,305,324,0
290,308,306,324,0
287,323,309,323,0
293,331,312,321,0
303,334,312,319,0
310,333,310,318,0
309,334,308,317,0
305,336,306,318,0
301,337,305,319,0
299,337,304,320,0
299,336,303,319,0
299,336,302,317,0
298,337,301,316,0
298,341,301,315,0
299,340,300,314,0
298,336,299,311,0
295,335,298,308,0
294,338,299,304,0
294,339,299,301,0
293,335,299,298,0
292,329,298,295,0
290,324,298,295,0
290,319,298,296,0
293,311,299,300,0
297,300,300,304,0
300,289,302,307,0
302,278,305,310,0
302,268,307,312,0
302,264,308,312,0
301,267,308,312,0
300,277,308,311,0
299,288,309,310,0
297,297,308,310,0
293,303,308,309,0
289,307,308,311,0
288,312,309,313,0
289,315,311,316,0
295,317,311,318,0
301,318,312,319,0
308,317,312,320,0
313,315,311,321,0
316,315,309,321,0
317,317,305,319,0
318,321,302,317,0
317,325,299,313,0
316,328,298,310,0
313,329,298,306,0
311,328,298,302,0
307,325,297,298,0
305,325,296,296,0
303,330,294,294,0
302,330,293,293,0
301,321,292,294,0
300,306,292,297,0
300,294,293,299,0
300,289,295,302,0
300,289,296,304,0
298,296,297,305,0
297,311,299,305,0
299,327,300,305,0
302,338,302,306,0
305,341,303,307,0
307,337,304,310,0
308,333,306,311,0
309,332,307,312,0
308,331,308,311,0
307,328,308,311,0
306,323,307,313,0
304,319,305,317,0
302,314,302,320,0
299,309,300,322,0
297,305,299,323,0
294,302,298,323,0
291,304,297,322,0
291,313,298,321,0
295,324,299,321,0
300,333,299,319,0
305,339,299,317,0
308,335,298,313,0
309,321,297,308,0
308,303,296,303,0
308,286,294,299,0
306,275,292,295,0
309,277,292,294,0
317,289,293,293,0
322,301,294,294,0
317,309,296,294,0
308,313,298,293,0
299,313,300,293,0
295,313,301,292,0
293,314,301,292,0
293,317,302,294,0
294,322,302,298,0
295,326,303,302,0
295,327,303,305,0
296,324,303,307,0
296,317,303,308,0
297,310,303,308,0
299,304,302,307,0
301,298,302,305,0
303,296,301,303,0
304,298,300,301,0
306,304,300,299,0
307,309,300,298,0
309,309,302,297,0
312,303,304,297,0
312,295,306,300,0
312,290,308,303,0
310,289,309,307,0
308,289,309,310,0
304,292,308,310,0
302,299,307,309,0
301,314,307,309,0
301,331,306,308,0
302,340,306,308,0
303,341,307,308,0
305,333,306,308,0
306,321,306,307,0
307,310,305,306,0
306,304,304,305,0
305,304,303,305,0
303,308,302,306,0
302,312,301,308,0
300,315,300,310,0
297,318,300,310,0
294,322,300,310,0
291,328,302,310,0
292,338,305,312,0
295,348,307,313,0
298,354,309,314,0
302,358,309,314,0
305,358,310,315,0
306,351,312,317,0
308,336,314,320,0
310,322,317,323,0
311,311,318,326,0
311,300,319,329,0
312,291,319,332,0
313,285,319,333,0
316,279,317,332,0
318,277,313,329,0
320,279,307,326,0
319,283,301,323,0
317,289,296,322,0
314,297,294,324,0
313,304,294,326,0
313,310,296,327,0
314,315,298,324,0
316,316,300,321,0
315,315,301,316,0
310,311,302,312,0
304,306,302,308,0
299,302,302,307,0
296,298,303,307,0
295,294,304,308,0
295,292,304,309,0
295,290,304,310,0
294,286,304,310,0
292,284,304,309,0
292,288,303,309,0
293,299,303,309,0
297,309,302,309,0
303,317,302,309,0
309,318,303,309,0
315,314,303,308,0
317,306,303,305,0
317,297,303,301,0
315,288,303,296,0
314,281,303,294,0
313,281,303,294,0
314,288,303,298,0
317,299,302,301,0
318,313,299,302,0
318,325,295,301,0
315,331,292,298,0
306,329,291,295,0
297,323,291,293,0
291,316,293,292,0
289,312,294,292,0
290,309,295,295,0
291,307,295,298,0
292,307,296,303,0
294,311,298,307,0
297,320,300,311,0
302,329,302,314,0
306,337,303,315,0
310,341,305,314,0
312,343,306,313,0
313,345,307,310,0
313,344,307,307,0
312,340,306,305,0
311,334,305,303,0
311,329,303,301,0
311,327,301,299,0
310,329,299,296,0
311,331,297,294,0
312,332,296,293,0
312,329,297,293,0
311,316,299,295,0
310,298,299,298,0
307,282,300,301,0
305,271,301,305,0
304,264,302,309,0
304,258,305,314,0
307,253,307,319,0
310,247,309,323,0
312,241,309,323,0
310,239,308,321,0
308,246,307,317,0
308,262,306,311,0
310,284,305,306,0
314,305,305,303,0
318,322,305,301,0
319,336,305,301,0
315,344,306,300,0
311,347,305,300,0
307,347,304,300,0
304,345,303,299,0
302,343,302,298,0
302,339,301,297,0
301,335,300,296,0
302,330,300,297,0
303,323,300,298,0
304,314,301,301,0
305,307,302,304,0
305,303,303,307,0
304,301,304,309,0
303,299,304,312,0
302,299,305,315,0
303,303,306,320,0
303,310,306,324,0
302,314,306,327,0
301,315,307,330,0
301,314,307,332,0
300,311,307,333,0
301,306,307,334,0
301,303,307,336,0
302,303,306,338,0
303,304,306,338,0
305,308,306,334,0
305,310,306,327,0
304,310,306,318,0
302,306,307,309,0
300,301,308,300,0
299,299,309,293,0
302,300,311,288,0
306,306,313,288,0
311,316,314,290,0
315,327,314,294,0
316,338,312,297,0
314,345,310,298,0
313,347,308,299,0
310,342,307,299,0
307,337,306,301,0
305,336,307,302,0
303,339,307,303,0
302,343,306,305,0
301,344,306,307,0
301,339,307,310,0
302,329,307,313,0
304,318,308,315,0
306,309,308,315,0
311,302,308,313,0
315,298,308,311,0
320,298,309,309,0
319,299,311,308,0
312,301,312,306,0
305,302,314,306,0
299,306,314,307,0
295,313,313,307,0
293,320,312,306,0
295,329,309,304,0
298,337,306,301,0
303,339,305,298,0
306,331,305,297,0
307,317,306,298,0
306,306,307,302,0
304,303,306,307,0
302,306,305,310,0
301,311,304,312,0
301,313,303,311,0
300,309,303,308,0
299,300,303,305,0
298,289,303,302,0
297,280,304,301,0
297,276,306,300,0
297,274,307,302,0
299,277,309,304,0
301,282,311,307,0
302,287,312,309,0
302,291,313,309,0
301,296,314,309,0
300,301,314,310,0
298,305,315,313,0
297,308,316,316,0
297,310,316,321,0
297,312,316,324,0
297,314,315,326,0
297,318,313,324,0
297,324,311,321,0
297,326,309,317,0
297,324,307,313,0
297,318,306,309,0
298,312,306,306,0
299,312,308,305,0
301,313,311,304,0
304,309,313,302,0
305,302,314,298,0
307,297,315,296,0
307,297,316,295,0
307,294,317,298,0
305,292,317,304,0
302,294,316,313,0
298,303,315,322,0
296,311,314,327,0
293,316,314,328,0
291,318,313,326,0
290,318,313,321,0
289,319,312,315,0
290,321,312,310,0
291,322,311,307,0
293,321,311,306,0
299,320,312,309,0
306,321,313,314,0
310,320,315,317,0
311,319,317,319,0
311,319,319,319,0
312,319,320,319,0
312,317,321,318,0
312,313,321,316,0
311,310,321,314,0
309,307,320,311,0
308,306,319,307,0
306,309,318,302,0
305,320,317,298,0
303,335,316,295,0
302,347,315,295,0
302,353,315,296,0
301,350,313,299,0
300,340,310,302,0
300,327,307,305,0
302,313,305,307,0
305,300,304,307,0
307,290,304,305,0
307,285,305,301,0
305,288,308,299,0
302,296,311,298,0
303,305,313,299,0
304,310,314,301,0
304,305,315,304,0
302,294,316,308,0
300,283,316,311,0
299,276,316,313,0
298,279,316,315,0
298,289,316,317,0
298,300,315,318,0
297,307,313,319,0
297,307,311,318,0
298,305,309,318,0
300,304,306,318,0
302,304,304,318,0
298,306,304,320,0
294,309,306,321,0
293,308,308,322,0
295,302,309,321,0
298,294,310,319,0
299,286,311,317,0
298,279,311,314,0
294,280,311,311,0
292,286,311,308,0
294,294,311,306,0
297,301,312,305,0
297,306,311,306,0
296,308,309,307,0
294,309,307,308,0
292,312,306,309,0
294,313,306,309,0
298,313,305,308,0
302,307,305,306,0
303,300,305,304,0
304,294,305,303,0
306,289,305,303,0
308,286,307,305,0
311,285,309,307,0
315,283,310,309,0
319,282,310,309,0
318,280,309,311,0
313,275,309,311,0
306,271,309,311,0
305,275,308,312,0
308,289,305,314,0
314,310,303,315,0
318,330,301,315,0
319,342,299,315,0
316,348,299,318,0
311,347,299,322,0
306,340,300,323,0
301,329,300,321,0
297,322,301,318,0
296,322,301,315,0
299,326,301,312,0
302,329,301,310,0
304,332,300,309,0
312,335,299,311,0
322,336,299,313,0
330,330,299,317,0
332,323,300,321,0
326,317,302,325,0
316,315,302,327,0
309,314,301,324,0
304,315,301,320,0
303,316,300,313,0
303,316,299,306,0
303,313,298,299,0
301,305,297,292,0
299,294,295,286,0
295,278,295,283,0
293,262,295,284,0
293,252,296,287,0
294,250,298,293,0
296,252,300,300,0
301,256,303,305,0
307,260,305,308,0
312,263,305,310,0
313,265,304,310,0
314,266,304,309,0
316,270,303,309,0
321,279,302,310,0
324,291,303,311,0
319,300,303,313,0
310,305,303,316,0
301,306,302,317,0
295,303,300,317,0
291,299,299,316,0
288,296,298,313,0
287,298,297,311,0
287,305,297,311,0
288,317,297,312,0
291,332,298,314,0
295,344,300,317,0
300,346,301,320,0
304,342,302,323,0
308,338,302,323,0
312,335,303,322,0
313,332,303,319,0
313,328,304,317,0
310,320,304,317,0
307,309,305,316,0
305,302,306,316,0
307,302,306,316,0
310,305,306,316,0
311,310,305,315,0
311,311,304,312,0
308,307,302,309,0
306,297,301,306,0
304,287,300,305,0
304,279,299,303,0
304,274,299,301,0
304,275,298,299,0
305,277,297,297,0
308,283,297,297,0
311,288,297,295,0
310,288,298,295,0
305,288,300,296,0
301,297,302,301,0
301,311,304,310,0
302,318,306,318,0
303,314,307,324,0
303,304,306,326,0
302,292,305,324,0
302,282,303,320,0
302,279,303,317,0
306,282,303,315,0
310,292,303,316,0
312,306,302,318,0
311,324,301,321,0
308,339,301,323,0
304,348,300,323,0
303,349,299,320,0
304,345,298,314,0
304,336,297,306,0
303,321,296,299,0
302,302,295,295,0
302,287,296,292,0
304,277,297,293,0
305,270,300,295,0
306,261,302,298,0
304,256,305,301,0
303,260,306,303,0
303,275,307,303,0
304,294,308,303,0
304,312,308,301,0
304,329,308,299,0
302,345,308,298,0
303,357,308,298,0
305,360,308,298,0
307,358,306,298,0
308,354,304,298,0
308,346,303,299,0
308,331,301,301,0
308,314,299,303,0
310,301,299,305,0
314,292,300,308,0
318,288,301,310,0
321,288,303,313,0
319,290,304,315,0
314,294,306,317,0
308,299,308,317,0
304,299,310,318,0
302,297,311,317,0
301,299,311,315,0
301,304,311,313,0
300,309,310,311,0
299,310,309,309,0
296,309,308,308,0
294,308,308,308,0
293,310,308,309,0
295,314,309,312,0
298,317,309,314,0
300,317,308,315,0
302,313,307,316,0
302,307,306,316,0
303,299,305,315,0
303,293,305,313,0
303,290,305,309,0
303,292,304,305,0
302,301,304,301,0
302,313,305,300,0
303,322,307,300,0
304,326,308,301,0
306,323,309,303,0
306,317,309,305,0
307,308,308,308,0
306,300,305,309,0
306,295,303,311,0
306,292,303,312,0
305,289,303,313,0
305,287,304,313,0
304,287,305,313,0
304,288,305,315,0
304,293,305,317,0
305,302,306,318,0
306,314,307,319,0
308,324,308,318,0
309,331,309,318,0
311,335,310,318,0
313,334,312,317,0
313,329,312,316,0
312,323,311,313,0
309,316,309,310,0
305,308,308,307,0
303,302,308,306,0
305,304,309,306,0
308,310,310,307,0
309,316,311,308,0
308,320,312,308,0
307,323,312,308,0
305,325,312,310,0
304,327,312,315,0
302,328,312,322,0
302,327,311,330,0
303,323,311,335,0
303,320,310,336,0
303,317,310,333,0
303,314,310,328,0
301,306,310,322,0
299,301,310,316,0
299,300,311,313,0
300,301,313,311,0
301,302,314,308,0
303,302,315,305,0
307,303,314,301,0
309,307,313,299,0
308,311,311,296,0
307,311,309,294,0
306,306,308,295,0
308,300,307,297,0
312,298,306,300,0
318,300,306,303,0
320,305,306,307,0
316,309,306,311,0
313,310,307,314,0
313,308,309,317,0
313,305,311,320,0
311,305,312,318,0
307,312,311,315,0
303,321,312,311,0
299,330,311,306,0
296,335,311,302,0
294,336,311,299,0
292,334,311,297,0
290,329,312,297,0
290,322,312,297,0
290,316,312,295,0
290,310,312,294,0
289,304,312,292,0
289,299,312,292,0
289,296,312,292,0
287,293,311,294,0
284,293,310,297,0
284,297,310,302,0
288,303,311,309,0
295,305,312,315,0
301,303,313,321,0
307,301,313,325,0
312,304,312,328,0
316,313,311,329,0
318,322,310,328,0
320,326,310,326,0
319,324,311,322,0
314,318,310,317,0
309,312,309,313,0
303,310,309,310,0
300,312,308,310,0
298,314,308,313,0
298,317,308,315,0
298,321,307,318,0
297,327,307,321,0
298,330,307,324,0
297,329,309,326,0
296,326,310,329,0
298,321,312,330,0
302,318,313,329,0
307,313,313,328,0
312,304,313,325,0
315,296,313,320,0
316,295,313,315,0
314,302,313,310,0
310,312,313,305,0
305,319,313,300,0
302,325,314,297,0
302,328,314,296,0
302,329,314,296,0
303,327,314,300,0
306,326,313,307,0
309,325,310,316,0
309,326,307,324,0
310,330,305,330,0
312,333,304,332,0
313,334,301,330,0
313,331,298,327,0
312,326,296,325,0
309,318,294,323,0
306,310,294,321,0
302,302,294,319,0
299,298,295,315,0
299,297,297,310,0
301,302,299,305,0
303,310,300,299,0
305,318,300,294,0
308,322,301,289,0
309,326,300,286,0
310,329,300,283,0
309,330,299,281,0
308,327,299,282,0
305,321,299,282,0
303,311,299,282,0
302,302,299,281,0
303,295,299,281,0
305,295,300,281,0
308,298,300,284,0
313,306,299,288,0
318,317,299,293,0
322,324,299,296,0
325,328,298,298,0
321,331,297,300,0
315,335,298,303,0
311,337,300,305,0
310,335,303,307,0
312,330,305,308,0
311,324,306,309,0
308,320,305,308,0
303,321,305,308,0
298,324,305,309,0
296,326,305,309,0
294,327,304,306,0
293,325,303,303,0
293,322,302,298,0
293,319,301,293,0
294,315,300,288,0
297,314,298,287,0
301,313,298,286,0
305,307,299,288,0
309,297,302,293,0
311,287,304,298,0
312,284,307,305,0
312,287,311,312,0
310,297,312,318,0
308,308,313,324,0
307,316,313,330,0
307,319,312,335,0
308,318,312,340,0
308,316,312,343,0
308,317,311,341,0
306,320,309,336,0
303,324,307,329,0
300,325,306,319,0
298,327,304,309,0
297,333,303,301,0
296,340,303,296,0
297,340,302,293,0
299,333,302,292,0
301,323,303,292,0
302,313,304,293,0
303,304,305,296,0
305,300,308,300,0
308,301,309,305,0
312,308,312,311,0
314,319,313,318,0
314,329,314,324,0
314,334,313,328,0
314,332,312,331,0
316,326,312,331,0
317,318,311,328,0
314,312,310,322,0
308,305,308,316,0
301,299,307,309,0
298,294,308,302,0
299,291,308,297,0
303,289,309,293,0
305,287,308,290,0
305,281,308,288,0
303,274,307,287,0
303,268,307,289,0
304,268,308,294,0
308,276,310,302,0
313,291,312,311,0
317,310,313,317,0
318,325,314,321,0
317,334,314,323,0
315,338,313,322,0
313,340,312,319,0
312,341,311,315,0
310,339,310,310,0
306,336,309,306,0
298,329,308,301,0
290,318,307,296,0
284,307,306,294,0
286,300,306,293,0
294,298,306,293,0
302,299,305,291,0
308,300,303,289,0
314,303,302,289,0
319,308,301,291,0
325,313,301,294,0
328,319,301,297,0
322,323,304,301,0
312,323,308,303,0
304,317,311,304,0
300,310,314,305,0
299,309,315,308,0
299,312,316,310,0
300,315,318,313,0
300,313,317,314,0
299,307,313,314,0
294,303,312,314,0
291,305,311,314,0
293,310,310,312,0
296,316,309,310,0
297,319,308,307,0
297,320,306,305,0
295,320,304,304,0
295,319,304,305,0
297,311,305,309,0
301,300,307,314,0
305,290,311,320,0
308,284,313,324,0
309,279,313,325,0
308,279,312,322,0
305,282,310,318,0
302,289,308,313,0
301,298,308,311,0
304,310,309,313,0
306,323,311,317,0
307,335,313,322,0
308,340,315,327,0
309,332,316,329,0
309,314,316,328,0
309,294,316,324,0
307,278,315,320,0
304,268,312,317,0
301,264,309,314,0
297,262,307,309,0
293,262,306,304,0
291,264,305,297,0
291,268,305,294,0
297,273,307,295,0
304,278,309,298,0
309,283,310,300,0
312,288,309,302,0
313,293,309,302,0
312,295,308,299,0
311,297,306,296,0
308,299,304,291,0
305,302,303,288,0
303,309,302,288,0
304,321,302,290,0
306,330,303,297,0
309,333,303,305,0
310,332,303,314,0
309,330,302,321,0
308,327,300,325,0
308,324,300,327,0
307,319,300,327,0
308,315,301,327,0
309,314,303,324,0
309,314,305,321,0
310,316,308,318,0
310,319,311,316,0
311,320,313,315,0
312,315,315,315,0
313,308,315,314,0
313,302,315,311,0
314,299,314,307,0
314,297,312,302,0
312,297,310,296,0
311,298,308,291,0
310,298,305,288,0
309,297,302,285,0
308,298,300,284,0
307,300,299,284,0
306,301,299,286,0
309,303,299,289,0
315,305,300,293,0
322,307,300,297,0
329,310,300,300,0
330,311,299,303,0
321,311,299,306,0
310,306,301,308,0
302,301,302,309,0
300,296,302,306,0
299,292,302,301,0
300,288,301,296,0
299,288,300,293,0
298,288,299,292,0
297,287,298,292,0
296,282,298,292,0
297,275,298,292,0
298,265,298,292,0
300,256,298,294,0
304,250,299,299,0
309,248,302,308,0
313,255,304,316,0
316,268,305,323,0
319,286,308,327,0
320,305,308,329,0
321,321,306,330,0
322,334,305,330,0
321,339,304,327,0
317,339,303,324,0
310,336,302,320,0
304,333,301,316,0
300,330,300,311,0
299,328,299,307,0
300,327,299,304,0
302,326,298,300,0
302,324,296,297,0
301,322,294,295,0
298,323,294,295,0
297,324,293,296,0
296,323,293,296,0
297,320,293,298,0
299,314,293,301,0
301,312,294,305,0
304,316,297,310,0
308,324,299,313,0
312,333,300,313,0
315,340,302,309,0
315,342,303,305,0
315,340,304,302,0
316,335,305,300,0
316,326,306,300,0
316,314,305,301,0
315,301,304,301,0
314,291,303,301,0
312,285,302,301,0
311,283,300,301,0
310,285,299,300,0
309,285,298,298,0
307,284,298,297,0
306,278,299,297,0
302,270,300,297,0
298,259,300,298,0
296,251,302,301,0
298,257,305,310,0
306,277,310,321,0
313,299,312,330,0
317,314,313,336,0
320,320,311,339,0
324,320,310,340,0
326,317,309,338,0
323,311,307,335,0
318,305,306,331,0
313,301,305,327,0
309,297,305,323,0
305,292,306,319,0
303,288,307,313,0
302,287,308,308,0
303,291,309,302,0
305,294,308,297,0
307,293,307,293,0
309,289,305,293,0
310,282,304,294,0
311,277,303,297,0
311,277,303,300,0
311,282,304,302,0
312,292,305,303,0
313,299,307,302,0
312,302,309,299,0
311,302,310,295,0
308,302,311,291,0
307,304,309,289,0
305,306,307,288,0
304,307,305,290,0
304,309,304,293,0
304,314,304,296,0
305,320,304,298,0
307,328,304,300,0
308,336,304,301,0
309,340,304,301,0
308,336,303,300,0
308,329,303,300,0
310,323,304,299,0
313,318,305,298,0
317,316,305,298,0
321,314,306,298,0
320,314,306,299,0
314,317,307,300,0
307,322,308,301,0
303,326,309,301,0
300,326,309,301,0
299,323,310,302,0
300,318,310,302,0
302,311,309,303,0
304,303,309,303,0
306,298,310,303,0
308,298,310,301,0
308,299,309,299,0
307,303,308,297,0
306,308,307,297,0
305,311,305,298,0
305,311,304,300,0
306,308,304,302,0
307,304,304,305,0
307,300,306,307,0
308,299,307,309,0
309,301,309,311,0
310,306,310,312,0
310,311,311,312,0
309,314,313,311,0
307,314,314,309,0
304,313,315,307,0
302,313,315,305,0
302,315,315,305,0
304,318,314,304,0
304,321,313,302,0
303,323,311,300,0
302,321,309,298,0
301,309,307,295,0
300,291,306,294,0
301,276,306,296,0
304,269,308,301,0
307,269,309,308,0
310,274,311,315,0
312,285,312,320,0
313,301,314,323,0
313,315,315,325,0
312,324,316,328,0
311,326,316,332,0
309,324,316,336,0
310,322,316,340,0
313,320,316,342,0
316,315,317,340,0
319,311,317,335,0
320,311,317,328,0
318,314,316,319,0
314,314,316,310,0
312,310,317,304,0
310,305,316,300,0
307,301,312,297,0
304,302,308,295,0
302,307,306,294,0
300,311,305,294,0
299,311,305,296,0
298,308,308,298,0
296,304,311,301,0
295,300,315,303,0
296,295,317,304,0
297,290,319,304,0
300,287,320,301,0
302,285,319,297,0
304,284,318,293,0
305,284,316,292,0
306,284,314,292,0
305,289,312,294,0
303,302,310,296,0
300,317,308,296,0
298,327,308,295,0
298,330,308,293,0
299,327,307,291,0
299,320,306,290,0
299,312,305,291,0
299,305,307,293,0
301,301,310,295,0
307,301,312,297,0
314,304,315,298,0
319,312,316,298,0
321,318,318,299,0
321,321,319,300,0
320,318,321,302,0
319,312,321,303,0
316,304,320,304,0
313,296,319,304,0
311,291,318,304,0
311,288,317,306,0
313,286,317,309,0
318,289,317,312,0
323,295,317,317,0
324,302,316,321,0
315,306,316,324,0
304,310,316,325,0
297,314,316,326,0
295,318,316,327,0
300,319,318,329,0
307,317,320,329,0
311,311,321,328,0
310,305,321,325,0
306,298,321,320,0
300,293,321,313,0
294,290,320,306,0
289,290,318,300,0
287,291,318,295,0
291,294,318,291,0
297,298,319,289,0
303,302,318,289,0
305,305,317,290,0
307,306,315,291,0
307,310,313,292,0
306,313,313,293,0
306,317,312,294,0
305,320,311,294,0
306,324,309,297,0
307,327,310,301,0
309,329,311,306,0
310,326,311,312,0
309,316,312,316,0
305,298,311,319,0
300,276,311,319,0
294,254,311,317,0
288,239,312,314,0
286,239,315,310,0
290,255,319,308,0
296,277,322,306,0
304,297,323,305,0
311,311,323,307,0
315,318,323,309,0
316,322,321,311,0
315,325,320,312,0
314,323,318,313,0
314,316,316,313,0
313,308,315,313,0
312,305,314,312,0
311,304,313,312,0
311,303,313,313,0
311,303,313,313,0
315,305,314,310,0
318,308,314,307,0
320,312,314,304,0
320,314,314,302,0
319,313,315,303,0
315,310,314,307,0
313,306,314,311,0
312,305,315,315,0
306,304,317,319,0
298,305,320,320,0
294,308,323,319,0
296,316,325,315,0
300,324,325,310,0
302,331,322,304,0
300,333,317,297,0
297,333,310,291,0
295,336,303,288,0
295,335,298,287,0
298,324,296,288,0
302,313,295,289,0
305,307,295,291,0
308,302,297,294,0
310,296,299,298,0
311,291,300,301,0
312,292,300,303,0
312,299,300,304,0
312,304,298,303,0
311,306,297,300,0
309,307,295,297,0
308,309,294,294,0
306,313,294,292,0
305,315,293,292,0
304,316,292,292,0
303,316,291,293,0
303,311,291,293,0
302,301,291,293,0
303,292,291,294,0
305,288,292,297,0
309,289,293,303,0
312,294,296,309,0
314,302,297,317,0
315,310,298,323,0
314,318,298,327,0
313,324,298,328,0
311,322,298,328,0
308,314,297,326,0
305,306,297,325,0
304,301,296,323,0
305,301,294,321,0
307,307,292,317,0
307,313,290,312,0
307,314,288,305,0
307,308,286,300,0
306,300,285,298,0
303,291,283,300,0
300,287,282,304,0
299,288,282,310,0
299,288,283,316,0
300,287,285,320,0
300,288,287,321,0
301,293,289,320,0
302,300,291,316,0
303,304,292,312,0
304,304,293,309,0
305,301,293,305,0
306,299,293,300,0
306,298,291,295,0
306,299,290,291,0
306,302,288,289,0
306,308,287,287,0
305,316,287,286,0
303,324,287,286,0
301,331,288,287,0
299,336,289,288,0
298,336,289,290,0
303,331,288,292,0
309,325,286,294,0
313,321,285,296,0
312,318,284,297,0
309,312,283,297,0
306,305,284,298,0
304,304,284,300,0
304,306,284,305,0
305,306,285,311,0
308,304,286,316,0
310,302,286,318,0
311,302,286,318,0
312,304,285,314,0
312,305,285,310,0
313,304,286,306,0
312,300,287,302,0
307,293,287,298,0
301,285,287,295,0
297,278,287,292,0
298,274,287,290,0
301,276,287,288,0
305,281,287,288,0
307,284,287,289,0
308,284,287,291,0
309,285,288,295,0
310,290,289,299,0
311,298,291,304,0
312,305,292,308,0
311,311,294,310,0
308,317,294,311,0
304,321,295,310,0
300,320,295,307,0
297,316,295,304,0
295,314,295,303,0
296,317,295,304,0
298,322,294,307,0
300,327,294,313,0
300,332,293,321,0
299,337,294,328,0
298,340,293,334,0
298,336,294,339,0
301,331,295,342,0
305,327,297,344,0
310,325,298,345,0
314,322,300,344,0
317,318,302,341,0
318,309,303,336,0
318,301,303,329,0
317,294,303,319,0
315,289,302,308,0
315,289,298,297,0
314,295,294,288,0
315,305,291,282,0
314,314,287,278,0
309,320,285,276,0
301,325,284,276,0
295,327,285,277,0
293,328,286,279,0
293,327,287,281,0
295,323,288,283,0
298,320,289,285,0
301,320,290,287,0
303,321,292,290,0
305,323,293,293,0
306,323,293,295,0
308,323,293,298,0
310,323,294,302,0
312,326,296,306,0
314,327,298,309,0
313,323,299,309,0
311,313,301,309,0
311,305,302,307,0
309,304,302,306,0
307,308,302,305,0
305,311,301,305,0
303,309,301,305,0
303,304,300,306,0
304,299,300,306,0
306,295,299,307,0
308,292,299,308,0
310,289,299,308,0
306,284,298,309,0
301,275,298,308,0
295,263,298,307,0
289,252,298,305,0
285,248,299,303,0
283,255,300,299,0
285,268,301,294,0
290,282,301,289,0
297,291,300,285,0
304,293,300,285,0
309,298,299,288,0
310,304,299,293,0
308,309,300,299,0
304,309,300,304,0
300,305,302,308,0
299,301,304,311,0
303,299,306,313,0
308,300,307,312,0
311,302,306,312,0
312,304,306,314,0
314,306,307,318,0
315,305,308,322,0
317,303,308,323,0
317,301,309,322,0
317,304,310,320,0
317,312,311,317,0
318,321,310,314,0
318,329,309,310,0
318,335,307,308,0
316,338,306,306,0
313,338,306,306,0
309,337,305,307,0
306,335,306,309,0
305,335,305,313,0
307,337,304,315,0
309,341,303,317,0
309,343,302,317,0
309,343,301,316,0
309,339,300,315,0
308,327,300,317,0
310,313,300,322,0
314,304,301,327,0
318,302,302,330,0
321,303,303,327,0
323,304,304,321,0
324,306,304,313,0
323,308,304,305,0
322,309,304,296,0
321,308,303,288,0
318,302,302,281,0
316,290,301,276,0
313,273,301,273,0
309,258,300,273,0
306,251,300,275,0
304,255,300,280,0
304,267,300,285,0
304,280,302,290,0
305,293,304,295,0
307,304,306,299,0
309,312,307,303,0
311,317,307,305,0
311,317,307,308,0
310,315,307,309,0
308,309,308,310,0
306,304,308,310,0
304,301,309,309,0
303,303,309,308,0
303,308,309,308,0
303,314,309,307,0
303,316,308,306,0
303,313,309,305,0
304,306,308,303,0
304,299,307,302,0
304,295,307,301,0
304,294,307,301,0
306,293,307,303,0
308,291,308,306,0
310,289,309,309,0
310,287,308,310,0
310,286,306,312,0
308,287,305,312,0
304,297,305,313,0
302,313,305,314,0
303,330,306,314,0
307,345,307,313,0
312,355,307,310,0
314,361,306,306,0
310,363,306,303,0
303,364,307,300,0
297,362,306,297,0
293,355,306,296,0
292,345,305,294,0
294,332,305,292,0
295,318,306,290,0
297,302,306,289,0
298,286,306,289,0
299,268,306,291,0
300,253,306,294,0
298,244,306,297,0
297,242,306,302,0
295,248,305,308,0
293,258,305,314,0
289,271,305,318,0
286,283,306,320,0
286,293,306,321,0
288,299,306,321,0
291,303,306,321,0
295,304,307,321,0
298,304,309,321,0
301,304,309,320,0
302,303,309,320,0
302,304,309,323,0
304,306,310,328,0
305,306,310,332,0
306,306,311,335,0
307,307,311,334,0
306,311,311,332,0
306,316,311,328,0
306,320,311,324,0
306,322,312,321,0
305,319,312,318,0
304,311,313,317,0
303,299,313,316,0
300,285,313,315,0
296,274,312,313,0
292,270,312,311,0
290,274,313,312,0
290,281,314,314,0
295,291,316,316,0
303,304,318,316,0
310,317,318,314,0
314,325,317,308,0
317,325,315,299,0
319,322,312,290,0
319,317,309,282,0
317,309,307,275,0
315,302,305,271,0
313,297,305,271,0
309,293,304,273,0
303,291,304,277,0
298,293,304,281,0
295,296,304,286,0
293,300,305,289,0
294,304,307,292,0
294,309,309,294,0
296,314,311,297,0
296,316,313,298,0
297,315,315,300,0
297,313,317,301,0
296,309,317,300,0
295,304,318,301,0
296,305,319,303,0
298,309,320,307,0
301,313,323,312,0
302,314,323,317,0
302,314,322,319,0
301,315,319,322,0
301,318,317,324,0
301,321,316,325,0
302,323,315,328,0
303,324,314,330,0
305,323,314,332,0
306,322,315,332,0
307,316,315,330,0
308,307,314,327,0
309,298,314,323,0
309,292,313,320,0
307,293,314,317,0
305,300,314,314,0
302,310,314,312,0
300,318,315,309,0
298,320,315,308,0
298,318,314,306,0
299,314,313,303,0
301,308,311,301,0
306,304,307,299,0
311,301,305,297,0
313,297,302,296,0
308,291,301,295,0
300,286,299,296,0
293,281,299,297,0
290,281,300,301,0
290,287,302,306,0
294,297,303,310,0
298,306,305,313,0
303,310,306,314,0
306,310,307,315,0
310,309,308,316,0
311,307,308,318,0
310,307,308,321,0
309,308,308,324,0
308,309,307,326,0
308,310,306,330,0
307,311,305,335,0
304,310,304,339,0
300,307,303,340,0
294,303,302,339,0
290,299,302,333,0
288,299,300,324,0
289,306,299,315,0
293,315,298,304,0
297,321,297,296,0
300,320,296,290,0
302,312,296,288,0
304,303,297,287,0
305,297,298,288,0
306,296,300,291,0
307,295,301,295,0
308,296,302,298,0
308,300,304,302,0
310,306,304,305,0
312,311,304,307,0
311,315,304,308,0
307,315,302,308,0
303,313,301,306,0
300,305,300,303,0
297,290,298,300,0
296,274,297,297,0
296,262,297,296,0
297,260,297,296,0
298,263,297,295,0
300,270,298,294,0
302,279,298,293,0
307,291,297,293,0
313,300,297,295,0
315,307,297,297,0
315,312,299,299,0
314,318,303,302,0
316,324,305,303,0
317,326,305,304,0
316,324,303,305,0
314,318,301,306,0
310,313,301,307,0
308,310,300,309,0
307,311,299,310,0
306,313,297,310,0
306,315,296,309,0
305,315,294,308,0
304,313,293,307,0
304,313,293,308,0
305,312,293,310,0
306,306,295,314,0
306,300,296,319,0
306,298,297,321,0
305,296,298,322,0
305,294,298,319,0
305,294,299,317,0
306,294,300,314,0
306,293,300,312,0
306,293,300,310,0
306,294,300,309,0
306,296,301,308,0
306,299,301,307,0
306,302,301,304,0
306,302,301,301,0
307,298,302,299,0
306,291,302,297,0
306,287,301,297,0
306,286,298,298,0
306,288,295,300,0
306,291,293,300,0
306,298,292,301,0
307,310,293,302,0
310,322,295,304,0
314,330,297,306,0
318,333,299,306,0
319,332,300,306,0
318,327,299,306,0
314,319,297,307,0
307,312,294,307,0
299,306,292,307,0
294,303,290,306,0
293,302,291,305,0
295,302,292,303,0
299,299,293,303,0
303,293,293,303,0
307,290,293,305,0
309,291,293,308,0
309,295,293,313,0
308,303,293,320,0
307,313,292,325,0
306,322,292,328,0
307,328,293,329,0
310,328,293,328,0
314,323,294,324,0
319,317,295,320,0
320,312,296,315,0
316,307,297,311,0
309,303,297,307,0
304,299,297,302,0
303,297,297,299,0
305,298,297,296,0
305,302,297,295,0
304,304,297,295,0
301,303,298,294,0
298,297,298,295,0
297,291,298,297,0
297,284,298,298,0
296,279,299,299,0
297,279,299,300,0
298,282,299,302,0
301,289,298,304,0
302,295,298,307,0
303,298,298,310,0
304,299,297,312,0
303,298,298,312,0
303,298,298,312,0
303,300,298,312,0
302,301,298,309,0
300,301,297,306,0
299,301,296,302,0
298,303,295,299,0
297,307,293,296,0
297,312,292,294,0
299,318,292,294,0
301,323,294,295,0
303,327,295,297,0
305,332,297,298,0
305,335,298,300,0
306,334,299,302,0
308,327,299,304,0
312,318,300,307,0
313,309,300,310,0
312,301,301,314,0
311,299,301,319,0
309,305,302,325,0
307,313,304,332,0
306,321,306,338,0
303,326,306,341,0
302,329,306,341,0
302,328,305,339,0
304,321,303,332,0
305,310,300,323,0
307,301,297,313,0
308,295,296,304,0
309,293,295,297,0
309,296,295,293,0
308,299,295,290,0
305,303,294,289,0
302,306,294,289,0
301,306,294,291,0
302,302,295,293,0
304,292,295,297,0
306,283,297,301,0
306,279,298,306,0
306,285,300,310,0
306,295,302,312,0
305,304,303,314,0
303,311,304,315,0
300,315,305,316,0
299,316,306,315,0
300,318,307,315,0
302,320,307,313,0
303,321,306,310,0
303,320,305,307,0
302,317,304,305,0
301,314,304,304,0
299,310,304,304,0
298,305,303,305,0
298,300,303,304,0
299,292,303,301,0
300,284,302,299,0
302,285,303,298,0
305,295,304,300,0
306,307,307,303,0
307,317,310,307,0
308,321,311,310,0
307,322,312,312,0
306,317,312,313,0
304,310,311,312,0
304,307,308,311,0
305,309,306,310,0
308,312,305,313,0
309,316,306,317,0
309,315,308,321,0
310,307,310,323,0
311,292,311,321,0
311,281,311,317,0
313,277,310,313,0
313,278,309,308,0
315,283,307,304,0
314,290,305,302,0
311,297,304,301,0
307,302,303,302,0
304,304,302,303,0
301,307,303,305,0
300,310,305,306,0
299,312,305,306,0
298,315,305,306,0
299,317,306,307,0
299,316,306,307,0
299,313,306,308,0
299,310,306,309,0
299,311,306,311,0
300,316,306,313,0
302,322,306,314,0
303,326,306,314,0
302,328,305,312,0
301,328,303,310,0
300,325,302,309,0
300,321,301,310,0
300,319,301,312,0
302,318,301,314,0
304,316,302,315,0
305,312,301,315,0
307,308,302,316,0
309,309,303,317,0
311,311,304,317,0
312,307,305,317,0
311,299,306,317,0
311,293,306,317,0
311,290,306,317,0
312,292,307,316,0
311,298,307,316,0
311,303,307,314,0
311,307,307,312,0
311,311,306,309,0
310,313,305,305,0
308,313,304,302,0
306,311,302,301,0
304,306,301,299,0
303,301,300,298,0
302,295,299,297,0
302,292,300,298,0
303,291,301,299,0
305,292,303,301,0
306,295,305,303,0
309,299,307,307,0
310,304,309,311,0
310,308,309,313,0
310,311,309,315,0
309,312,308,314,0
308,311,308,313,0
307,309,308,312,0
306,307,308,310,0
304,304,308,308,0
302,301,308,306,0
298,303,308,304,0
296,309,307,304,0
297,318,306,303,0
300,325,304,303,0
304,329,302,302,0
306,330,300,302,0
308,331,299,302,0
311,329,299,305,0
316,327,300,308,0
319,323,303,311,0
319,316,305,313,0
316,305,308,316,0
313,293,311,317,0
311,284,312,318,0
309,279,313,320,0
308,279,314,323,0
307,281,314,325,0
307,283,314,327,0
307,284,314,329,0
307,284,315,331,0
308,283,316,334,0
307,284,316,335,0
304,292,317,333,0
301,304,318,328,0
298,317,316,320,0
296,327,314,310,0
295,331,311,301,0
295,331,308,294,0
298,326,305,290,0
300,322,302,288,0
302,320,300,288,0
304,321,299,289,0
305,321,298,291,0
306,319,299,295,0
307,314,300,301,0
308,310,301,308,0
310,308,301,314,0
311,307,302,318,0
313,307,302,321,0
313,306,303,322,0
313,304,302,321,0
311,300,302,317,0
311,295,302,312,0
311,291,301,305,0
311,287,300,298,0
311,286,300,292,0
312,288,300,290,0
312,292,301,290,0
314,297,303,292,0
316,305,305,297,0
318,313,306,302,0
318,320,308,306,0
316,328,308,309,0
313,337,308,311,0
311,343,307,312,0
309,341,306,312,0
309,330,306,310,0
309,315,306,309,0
309,299,306,308,0
307,284,306,307,0
306,275,305,305,0
306,271,303,303,0
308,269,301,298,0
312,266,299,294,0
315,264,298,289,0
313,263,298,286,0
307,263,299,285,0
302,264,300,285,0
300,271,302,286,0
300,288,305,290,0
301,306,308,294,0
302,319,309,297,0
303,326,309,300,0
303,329,308,301,0
304,331,308,302,0
304,332,307,302,0
305,334,307,303,0
306,336,306,302,0
305,338,306,302,0
305,339,306,302,0
305,337,307,303,0
305,331,307,304,0
304,323,308,305,0
304,314,309,309,0
304,305,310,312,0
303,297,311,316,0
303,292,312,317,0
305,291,313,317,0
307,297,314,318,0
311,310,315,321,0
317,326,317,326,0
324,343,319,331,0
326,355,319,334,0
323,361,318,334,0
317,360,317,331,0
311,353,315,328,0
307,342,313,326,0
304,328,312,330,0
303,311,311,336,0
302,295,312,343,0
301,280,312,347,0
299,266,311,345,0
297,257,309,337,0
295,255,307,325,0
295,259,305,310,0
297,267,304,296,0
300,275,304,287,0
303,277,306,281,0
303,269,308,277,0
302,259,310,276,0
300,254,311,276,0
297,255,312,278,0
297,261,313,281,0
298,273,313,284,0
301,288,313,287,0
303,303,312,289,0
304,316,310,291,0
303,325,310,292,0
300,328,310,293,0
297,328,309,292,0
294,325,307,291,0
291,320,306,290,0
292,318,305,290,0
297,316,305,290,0
302,314,305,292,0
305,312,305,294,0
306,309,305,298,0
307,308,306,301,0
308,309,307,305,0
309,310,309,308,0
309,314,311,310,0
309,322,313,311,0
309,330,315,312,0
309,336,316,311,0
308,338,316,310,0
307,336,316,308,0
307,331,316,306,0
306,325,316,306,0
306,322,315,307,0
306,322,313,308,0
306,322,312,308,0
306,316,311,309,0
307,306,311,310,0
308,294,311,310,0
308,284,312,310,0
309,278,313,310,0
310,280,313,310,0
311,287,314,310,0
311,295,314,309,0
312,303,312,308,0
313,310,311,306,0
316,315,309,304,0
318,319,309,304,0
320,321,308,304,0
321,320,309,305,0
321,315,309,307,0
322,312,310,309,0
325,309,311,310,0
324,305,312,309,0
318,300,312,308,0
310,293,312,305,0
304,284,310,301,0
300,277,309,296,0
298,277,307,293,0
297,280,306,292,0
296,281,304,295,0
295,283,304,300,0
297,284,305,306,0
298,287,306,310,0
301,294,307,314,0
303,305,308,315,0
304,313,309,316,0
305,319,309,316,0
306,322,310,316,0
307,324,310,317,0
306,322,310,319,0
306,318,309,322,0
305,311,309,326,0
304,307,308,331,0
303,304,307,336,0
302,303,306,339,0
301,301,306,341,0
301,301,306,340,0
302,305,306,336,0
305,312,306,331,0
308,318,306,325,0
311,322,306,321,0
313,322,306,318,0
313,320,307,316,0
313,318,309,315,0
312,319,311,314,0
313,323,312,314,0
313,328,313,315,0
312,333,313,313,0
309,334,312,309,0
305,331,311,303,0
301,325,310,297,0
297,316,309,293,0
296,305,310,290,0
298,295,311,288,0
299,293,311,287,0
301,299,310,285,0
303,306,308,284,0
304,312,307,285,0
306,316,307,288,0
310,318,307,292,0
313,317,308,294,0
316,317,308,297,0
317,315,309,298,0
317,308,309,300,0
316,297,310,302,0
315,287,310,303,0
315,280,310,302,0
315,275,310,301,0
313,271,309,299,0
308,269,309,296,0
303,271,308,292,0
298,275,308,289,0
296,280,309,289,0
297,286,311,291,0
305,292,313,293,0
313,298,314,297,0
317,301,314,299,0
316,303,313,301,0
313,306,309,302,0
309,309,306,305,0
306,310,304,306,0
308,311,302,307,0
310,313,301,307,0
310,316,301,306,0
309,318,302,306,0
306,317,304,305,0
304,316,305,303,0
303,315,305,303,0
302,315,304,304,0
302,316,304,305,0
303,320,304,308,0
304,320,304,311,0
302,315,304,312,0
299,307,304,311,0
297,303,303,311,0
299,304,303,312,0
306,308,304,312,0
313,309,304,312,0
312,304,303,312,0
305,292,302,310,0
297,276,301,306,0
293,266,301,303,0
294,266,303,302,0
299,274,305,303,0
304,283,307,305,0
307,291,308,306,0
308,297,308,308,0
308,304,309,311,0
309,316,308,314,0
312,331,308,318,0
316,346,308,320,0
318,355,307,320,0
317,359,307,318,0
313,357,307,314,0
310,352,307,313,0
307,342,308,312,0
304,328,307,310,0
302,312,307,308,0
301,298,306,305,0
301,287,306,302,0
303,282,307,300,0
306,284,308,299,0
309,292,310,300,0
312,298,311,302,0
313,298,312,304,0
313,292,311,306,0
310,282,311,308,0
306,271,310,308,0
302,264,308,307,0
301,262,308,306,0
302,268,308,305,0
304,276,309,305,0
307,286,309,306,0
308,293,309,309,0
308,298,308,314,0
308,300,307,319,0
308,301,306,322,0
308,301,305,321,0
309,304,305,319,0
312,308,305,317,0
313,312,306,314,0
315,316,308,311,0
316,323,310,310,0
316,329,312,309,0
314,333,315,310,0
313,333,317,311,0
310,332,318,310,0
307,329,318,309,0
304,325,317,306,0
304,322,316,304,0
304,319,313,302,0
303,314,311,299,0
302,311,308,297,0
302,312,306,296,0
302,317,305,296,0
302,322,304,295,0
303,326,302,294,0
303,331,302,295,0
303,335,303,296,0
305,333,303,298,0
306,325,304,299,0
307,314,306,301,0
308,304,308,302,0
307,295,310,304,0
306,288,313,307,0
303,287,315,311,0
300,288,317,316,0
300,289,318,322,0
304,289,319,327,0
308,289,319,330,0
310,291,319,332,0
311,295,320,331,0
311,300,320,328,0
311,309,320,324,0
310,317,320,319,0
309,323,317,313,0
309,327,313,308,0
312,331,309,304,0
316,332,305,299,0
323,329,303,297,0
322,321,302,296,0
314,307,302,297,0
304,292,303,299,0
296,280,305,303,0
292,272,308,310,0
293,269,311,319,0
295,272,313,325,0
296,278,313,327,0
297,288,311,325,0
297,299,308,321,0
298,309,307,315,0
300,317,305,310,0
300,320,304,305,0
300,323,304,304,0
301,325,303,302,0
302,326,302,300,0
303,324,300,298,0
303,318,299,298,0
304,311,298,300,0
304,304,299,304,0
304,297,301,307,0
306,296,304,311,0
308,299,307,315,0
310,305,311,318,0
312,311,313,320,0
312,316,315,320,0
310,320,314,319,0
309,324,314,318,0
308,328,312,316,0
307,330,311,313,0
306,327,309,308,0
305,319,307,304,0
304,309,305,300,0
304,300,304,296,0
305,294,302,294,0
308,298,302,292,0
313,308,301,294,0
316,318,301,300,0
316,321,300,307,0
313,319,300,313,0
310,316,300,319,0
309,316,302,324,0
309,319,305,328,0
311,321,307,330,0
311,321,309,330,0
309,318,311,328,0
305,314,311,326,0
302,310,310,324,0
301,307,309,321,0
302,304,307,318,0
305,302,304,314,0
308,302,302,310,0
309,304,300,305,0
309,309,298,302,0
309,315,298,302,0
310,322,299,303,0
310,329,299,306,0
310,336,299,309,0
309,340,299,312,0
308,338,298,314,0
307,329,298,315,0
304,314,298,313,0
302,296,297,311,0
302,285,299,309,0
307,281,301,308,0
313,281,303,307,0
316,284,304,305,0
317,289,303,302,0
316,295,303,299,0
315,300,302,297,0
314,305,302,296,0
313,310,302,297,0
312,316,302,298,0
311,319,302,300,0
311,320,302,302,0
310,321,303,305,0
311,319,302,307,0
310,316,302,310,0
310,313,302,313,0
309,312,302,315,0
308,309,302,317,0
306,303,301,315,0
306,299,301,313,0
308,302,302,312,0
312,314,304,312,0
317,325,305,314,0
319,333,307,316,0
318,339,309,318,0
315,344,311,319,0
312,344,311,319,0
311,342,311,317,0
310,337,310,315,0
310,329,309,313,0
309,322,309,311,0
309,316,308,310,0
309,312,306,309,0
310,310,305,307,0
311,308,303,303,0
312,306,300,298,0
313,304,298,295,0
314,303,298,293,0
315,303,299,293,0
315,303,300,294,0
314,304,301,295,0
313,304,303,295,0
312,304,304,296,0
309,307,306,297,0
308,311,308,300,0
308,315,310,302,0
309,316,311,304,0
310,312,312,306,0
311,304,311,308,0
310,293,308,309,0
309,284,304,309,0
308,281,302,309,0
309,286,299,307,0
311,296,298,303,0
313,305,296,299,0
315,312,294,296,0
314,318,293,296,0
310,321,294,298,0
307,318,296,302,0
306,307,299,306,0
308,295,302,311,0
307,285,305,315,0
304,281,307,316,0
301,289,308,315,0
301,307,308,315,0
302,325,308,317,0
305,337,307,321,0
307,343,307,329,0
309,342,306,335,0
311,337,306,338,0
311,331,306,338,0
312,324,305,336,0
311,317,305,331,0
310,310,304,326,0
310,304,303,321,0
309,299,303,316,0
309,297,302,311,0
307,297,302,306,0
306,297,302,300,0
304,297,301,296,0
302,296,300,292,0
299,296,300,291,0
295,300,300,291,0
292,309,301,292,0
290,318,301,293,0
290,325,301,293,0
294,330,301,292,0
301,330,300,290,0
307,321,301,287,0
311,310,301,284,0
312,303,300,283,0
311,303,300,284,0
309,306,300,286,0
307,310,300,288,0
307,313,300,290,0
310,311,302,293,0
312,307,304,298,0
312,303,305,302,0
310,303,305,305,0
307,306,306,307,0
305,309,306,309,0
303,312,307,312,0
302,316,307,314,0
301,321,307,316,0
301,325,308,317,0
302,327,308,318,0
302,327,308,318,0
301,322,308,317,0
299,314,308,314,0
298,306,307,310,0
298,300,307,305,0
298,299,307,303,0
299,301,308,301,0
300,305,308,300,0
301,308,308,299,0
302,305,308,301,0
303,300,309,303,0
306,293,309,306,0
307,287,309,311,0
310,289,310,317,0
313,298,311,323,0
316,308,312,327,0
315,318,312,329,0
314,326,313,328,0
313,332,313,328,0
312,338,313,326,0
310,345,311,325,0
304,351,310,323,0
296,350,309,320,0
289,341,308,318,0
286,330,308,317,0
289,318,309,316,0
294,308,310,314,0
300,302,310,311,0
306,299,310,308,0
311,297,309,306,0
313,296,308,304,0
313,293,307,303,0
313,287,306,302,0
313,282,307,301,0
312,281,309,300,0
311,286,311,299,0
310,295,313,298,0
308,303,314,298,0
307,309,316,297,0
308,312,317,297,0
310,314,315,296,0
312,314,311,295,0
313,313,307,296,0
315,315,305,297,0
316,316,304,298,0
317,314,304,299,0
317,306,304,300,0
316,294,304,304,0
313,281,304,310,0
312,272,304,319,0
313,268,305,327,0
314,265,305,331,0
310,265,305,331,0
301,269,304,327,0
293,273,304,320,0
289,279,306,312,0
289,290,308,305,0
293,305,309,300,0
298,319,309,298,0
302,329,309,298,0
306,334,309,300,0
309,336,308,303,0
310,337,307,306,0
310,336,307,307,0
308,335,306,307,0
307,334,305,305,0
306,332,304,302,0
304,330,302,298,0
303,327,301,295,0
302,322,300,294,0
302,314,301,295,0
306,302,303,297,0
312,288,305,298,0
315,277,307,299,0
315,274,310,301,0
313,288,312,303,0
311,312,312,306,0
310,337,313,308,0
310,354,313,312,0
310,358,313,317,0
309,350,313,322,0
309,337,313,328,0
308,328,313,331,0
307,323,312,330,0
305,316,312,325,0
306,307,310,319,0
306,297,309,312,0
305,290,307,308,0
304,286,306,304,0
305,285,305,304,0
309,288,305,308,0
315,291,305,313,0
319,294,307,320,0
320,297,309,325,0
317,300,311,328,0
313,304,312,330,0
307,308,312,330,0
302,311,312,328,0
299,315,312,325,0
301,318,312,320,0
305,322,311,314,0
310,325,309,305,0
313,328,306,295,0
311,329,304,286,0
308,325,302,280,0
304,319,300,276,0
300,312,299,275,0
298,302,299,277,0
300,291,300,282,0
304,281,301,287,0
305,274,302,293,0
305,272,303,297,0
303,276,304,301,0
303,285,305,306,0
305,298,306,313,0
309,310,308,322,0
312,319,309,328,0
314,322,309,330,0
314,319,309,328,0
314,314,309,323,0
312,309,308,314,0
310,306,307,306,0
307,305,306,298,0
303,304,305,293,0
300,302,305,289,0
299,300,305,288,0
299,295,307,289,0
301,291,308,291,0
304,295,309,293,0
308,307,310,296,0
312,323,311,300,0
315,337,312,303,0
316,345,311,305,0
316,346,310,308,0
314,342,311,310,0
313,333,311,311,0
311,322,311,311,0
309,312,309,309,0
306,303,307,306,0
304,297,305,303,0
303,292,304,300,0
305,292,302,298,0
309,295,301,298,0
312,298,299,299,0
307,304,298,299,0
300,315,298,299,0
294,323,298,301,0
290,322,297,302,0
289,316,298,305,0
292,305,299,308,0
298,293,301,313,0
306,282,304,316,0
312,278,305,318,0
313,281,305,319,0
313,286,305,320,0
311,291,305,321,0
310,296,306,323,0
309,301,306,324,0
309,305,306,326,0
309,310,306,325,0
310,313,305,322,0
311,313,304,319,0
311,310,302,316,0
308,303,301,312,0
302,294,299,309,0
295,286,299,307,0
292,282,299,305,0
291,286,300,301,0
294,299,302,299,0
298,312,303,297,0
304,318,304,296,0
310,316,305,297,0
316,315,306,298,0
320,317,307,302,0
323,320,309,307,0
322,322,310,312,0
317,320,312,315,0
313,317,312,317,0
308,314,313,317,0
304,314,313,315,0
301,316,313,312,0
300,323,312,308,0
300,329,311,306,0
300,333,310,307,0
301,331,309,312,0
301,323,310,318,0
301,310,310,323,0
299,297,309,325,0
298,291,308,324,0
300,292,308,321,0
303,297,308,317,0
305,302,308,312,0
306,305,307,306,0
307,305,306,301,0
308,304,306,296,0
310,304,306,292,0
311,302,306,287,0
310,300,305,282,0
308,298,304,278,0
306,297,303,277,0
306,301,304,277,0
306,309,304,281,0
306,318,306,285,0
307,323,307,291,0
307,320,308,297,0
308,309,308,303,0
307,296,307,306,0
307,286,306,308,0
306,280,305,309,0
306,281,305,311,0
308,290,307,313,0
310,302,308,315,0
311,317,310,315,0
311,330,311,315,0
311,336,311,315,0
310,333,311,313,0
309,323,312,312,0
306,313,312,311,0
301,303,311,308,0
297,297,310,305,0
294,298,309,303,0
294,300,310,301,0
294,297,310,298,0
296,286,311,296,0
301,275,311,296,0
309,267,311,296,0
315,263,311,298,0
320,264,309,299,0
321,271,307,302,0
318,281,306,303,0
314,292,305,305,0
310,301,305,307,0
309,308,305,309,0
310,312,306,309,0
314,311,306,308,0
319,309,308,306,0
325,309,308,302,0
329,310,309,298,0
327,310,310,295,0
316,307,311,295,0
303,298,312,296,0
294,284,313,296,0
287,270,312,298,0
283,263,310,302,0
282,265,308,309,0
283,276,306,319,0
288,294,304,329,0
293,312,304,335,0
298,324,303,337,0
302,331,303,334,0
307,336,302,328,0
310,338,302,319,0
312,339,301,310,0
313,338,301,302,0
314,334,301,296,0
313,328,302,293,0
310,325,304,294,0
308,321,306,294,0
306,320,308,295,0
305,324,307,295,0
304,331,306,296,0
303,334,305,296,0
303,331,303,298,0
302,327,302,300,0
301,323,300,302,0
298,320,298,305,0
294,319,296,305,0
292,321,295,305,0
292,327,295,304,0
293,332,296,303,0
295,335,297,305,0
299,333,300,309,0
303,324,303,315,0
309,312,306,318,0
314,302,309,319,0
315,298,310,318,0
314,299,311,316,0
312,302,311,314,0
310,304,311,313,0
309,299,311,311,0
308,286,310,309,0
307,272,308,307,0
305,261,307,304,0
301,249,304,300,0
295,242,302,297,0
293,255,303,300,0
298,284,305,306,0
306,310,308,315,0
313,320,311,326,0
318,316,312,339,0
320,306,312,350,0
320,296,312,357,0
319,288,310,357,0
318,284,310,352,0
317,288,309,344,0
317,295,309,334,0
316,305,309,323,0
315,318,308,316,0
313,331,308,312,0
310,339,307,310,0
307,342,306,308,0
302,342,304,306,0
300,340,304,302,0
300,338,303,296,0
301,332,302,287,0
303,322,300,279,0
307,312,299,272,0
313,306,299,268,0
318,303,298,266,0
323,302,298,269,0
325,303,300,275,0
322,305,301,284,0
319,307,303,290,0
318,308,304,292,0
317,309,305,293,0
317,308,306,293,0
315,301,306,293,0
314,288,305,291,0
311,277,304,287,0
308,273,302,284,0
305,275,300,282,0
304,282,300,282,0
304,294,299,283,0
305,304,299,286,0
305,310,299,290,0
305,312,299,294,0
306,313,299,298,0
308,315,299,302,0
311,317,298,304,0
313,316,297,305,0
314,308,295,304,0
311,299,295,303,0
304,297,297,304,0
299,304,301,308,0
298,313,306,312,0
296,314,311,317,0
294,313,315,321,0
293,309,317,325,0
295,305,318,328,0
303,302,318,329,0
309,299,315,328,0
312,300,309,324,0
311,302,304,320,0
308,304,299,314,0
305,302,296,308,0
303,298,294,301,0
302,292,292,295,0
300,282,290,290,0
297,268,289,288,0
295,256,288,288,0
295,258,290,293,0
299,270,292,301,0
304,288,295,307,0
308,308,298,312,0
312,328,300,315,0
314,346,301,316,0
313,360,302,316,0
309,365,303,314,0
305,360,303,313,0
303,345,303,313,0
304,322,303,315,0
308,297,304,320,0
313,282,304,325,0
318,283,303,328,0
320,296,302,327,0
318,307,301,322,0
313,311,298,315,0
306,310,296,305,0
299,306,294,295,0
293,299,292,286,0
289,291,291,280,0
288,287,290,278,0
289,291,291,280,0
293,302,293,286,0
298,313,296,293,0
303,321,299,302,0
306,324,302,311,0
307,325,304,319,0
306,326,305,323,0
305,329,306,326,0
303,332,306,327,0
302,337,305,327,0
302,339,305,326,0
302,338,304,323,0
301,335,304,320,0
302,328,304,316,0
304,319,304,312,0
309,308,303,307,0
312,298,302,301,0
312,288,301,295,0
312,281,300,291,0
312,281,300,289,0
312,284,300,290,0
312,287,301,292,0
310,288,302,294,0
307,285,303,296,0
304,280,303,299,0
301,277,304,303,0
300,284,306,310,0
302,298,308,319,0
305,312,310,328,0
307,323,312,334,0
308,332,313,338,0
308,336,314,341,0
308,338,314,341,0
308,336,314,339,0
308,333,314,335,0
307,326,312,330,0
306,318,311,325,0
305,308,311,321,0
309,297,311,318,0
316,284,310,314,0
322,273,309,309,0
327,265,309,304,0
326,262,309,300,0
318,265,309,296,0
309,274,310,294,0
302,287,311,291,0
297,303,313,289,0
296,318,315,288,0
296,330,317,290,0
297,338,319,292,0
298,343,321,294,0
299,346,321,296,0
300,346,320,299,0
301,340,318,305,0
302,329,314,311,0
303,315,312,316,0
303,299,309,318,0
303,284,308,318,0
304,276,309,315,0
305,276,309,311,0
308,281,309,304,0
309,284,309,296,0
312,284,309,288,0
314,286,308,284,0
317,295,309,283,0
320,310,311,286,0
317,326,311,291,0
311,336,310,295,0
302,341,308,300,0
292,336,309,305,0
287,325,310,308,0
287,315,312,308,0
290,311,313,306,0
294,314,314,304,0
297,320,313,301,0
299,324,312,299,0
300,324,312,297,0
300,320,312,297,0
301,315,314,296,0
301,309,315,297,0
302,305,317,298,0
303,303,318,299,0
303,303,319,300,0
303,303,319,299,0
303,305,317,299,0
306,310,315,299,0
310,315,314,300,0
312,316,312,301,0
311,310,311,304,0
310,303,311,306,0
309,297,311,309,0
309,297,311,310,0
309,303,311,311,0
309,310,310,310,0
310,313,310,307,0
310,310,310,304,0
311,304,309,301,0
311,296,308,299,0
311,289,308,298,0
311,284,308,299,0
310,282,308,301,0
307,283,307,304,0
304,284,307,306,0
300,282,307,307,0
299,280,308,309,0
299,278,309,310,0
301,280,311,311,0
303,285,311,310,0
304,290,312,308,0
304,294,312,306,0
304,297,311,304,0
305,300,311,304,0
305,306,311,306,0
304,316,311,311,0
302,325,311,316,0
301,330,311,319,0
302,331,310,318,0
303,328,308,314,0
302,320,307,310,0
303,308,306,307,0
302,297,306,307,0
303,292,308,310,0
306,294,310,314,0
310,301,312,318,0
315,312,313,320,0
321,323,314,319,0
327,329,313,314,0
330,330,312,308,0
327,327,309,302,0
320,319,308,298,0
310,309,307,295,0
300,297,308,295,0
294,280,308,295,0
291,262,308,295,0
289,249,306,294,0
287,243,304,292,0
285,245,302,292,0
286,258,301,293,0
288,280,300,296,0
291,302,299,299,0
292,316,298,303,0
292,323,298,305,0
292,324,298,306,0
293,323,300,308,0
295,320,302,308,0
296,316,302,308,0
297,313,301,308,0
298,309,300,308,0
299,308,299,308,0
300,308,299,308,0
300,311,299,308,0
301,316,298,308,0
301,324,299,309,0
303,334,300,314,0
306,342,302,323,0
308,345,304,333,0
310,341,305,342,0
312,332,306,349,0
313,319,308,354,0
313,305,309,355,0
313,293,309,354,0
314,286,308,348,0
315,283,306,340,0
315,281,304,330,0
314,277,302,318,0
311,271,301,306,0
306,264,299,293,0
300,260,296,281,0
297,265,294,274,0
298,280,293,271,0
302,297,292,271,0
305,307,291,272,0
306,311,290,275,0
306,309,290,277,0
306,302,290,279,0
304,293,290,278,0
300,282,290,277,0
296,272,291,276,0
295,270,292,277,0
299,277,292,280,0
305,289,293,285,0
308,299,293,289,0
309,307,294,295,0
308,309,294,301,0
308,309,295,306,0
308,308,295,310,0
307,308,295,314,0
307,305,297,318,0
307,300,298,320,0
306,297,298,321,0
305,302,298,320,0
304,313,298,321,0
305,320,298,322,0
308,319,297,323,0
310,313,297,324,0
308,306,297,323,0
305,301,297,322,0
302,302,299,320,0
302,307,301,318,0
304,314,302,314,0
305,321,301,312,0
307,328,299,312,0
307,331,298,313,0
306,329,298,314,0
305,322,297,313,0
304,311,297,310,0
303,301,296,305,0
303,292,295,298,0
301,284,294,291,0
299,277,292,285,0
296,273,292,281,0
296,275,292,280,0
299,283,292,280,0
305,293,292,281,0
312,300,292,282,0
318,303,292,283,0
319,303,291,285,0
314,301,291,289,0
308,300,292,296,0
305,304,293,306,0
304,310,294,317,0
304,317,295,327,0
305,324,296,335,0
306,327,298,341,0
305,323,299,343,0
302,313,300,340,0
298,296,300,334,0
292,279,300,326,0
287,270,299,318,0
283,272,299,312,0
281,285,299,308,0
284,304,301,307,0
290,322,303,309,0
297,334,305,310,0
304,340,305,310,0
310,340,304,308,0
314,337,303,305,0
317,331,302,302,0
317,326,301,298,0
317,323,302,295,0
317,324,304,293,0
316,327,306,291,0
315,327,308,289,0
312,324,308,287,0
309,317,309,288,0
305,311,310,290,0
303,304,312,292,0
305,299,312,294,0
308,299,310,297,0
309,304,308,300,0
308,309,307,303,0
306,313,306,306,0
305,319,306,309,0
307,322,306,312,0
311,322,306,315,0
314,320,306,318,0
315,321,306,321,0
314,325,305,323,0
314,330,305,324,0
315,331,304,323,0
317,325,304,319,0
319,315,304,313,0
316,303,305,304,0
312,294,306,297,0
307,288,307,292,0
304,288,309,290,0
303,293,309,291,0
302,298,309,294,0
301,302,309,297,0
301,303,310,301,0
301,303,311,304,0
302,303,312,307,0
304,299,312,307,0
304,293,314,307,0
304,286,316,309,0
304,276,318,312,0
305,264,319,315,0
305,258,320,318,0
305,260,320,320,0
306,269,321,321,0
307,282,322,320,0
309,298,324,318,0
311,312,325,314,0
312,320,325,308,0
312,323,324,299,0
309,319,322,291,0
305,305,320,284,0
301,288,315,279,0
298,276,311,278,0
298,274,308,281,0
299,279,307,285,0
301,286,306,287,0
302,290,305,288,0
303,295,304,288,0
304,306,304,290,0
308,317,304,293,0
311,320,305,297,0
316,318,305,303,0
321,316,305,310,0
326,312,305,318,0
326,309,306,325,0
320,311,307,331,0
315,317,310,335,0
311,325,313,337,0
309,331,315,338,0
307,335,316,337,0
307,339,317,335,0
306,343,316,332,0
305,349,315,327,0
304,353,314,320,0
302,354,311,312,0
300,348,308,304,0
300,336,307,298,0
302,323,307,293,0
305,308,307,289,0
307,294,307,288,0
307,285,307,288,0
305,278,305,289,0
302,274,304,291,0
300,275,304,294,0
300,280,305,297,0
304,285,306,298,0
310,289,308,298,0
314,290,310,298,0
315,289,312,298,0
314,287,314,298,0
312,287,315,298,0
308,289,315,299,0
305,292,314,300,0
303,295,313,300,0
301,297,312,299,0
300,297,312,298,0
300,293,311,297,0
299,290,313,297,0
299,291,314,297,0
301,295,315,298,0
303,299,315,300,0
305,300,314,303,0
304,299,314,305,0
304,297,313,308,0
303,294,311,309,0
305,295,310,311,0
307,298,310,315,0
311,305,311,320,0
314,312,312,324,0
316,318,314,327,0
314,323,314,330,0
310,326,315,332,0
307,326,315,332,0
304,325,314,330,0
302,321,313,326,0
301,316,312,321,0
300,312,312,316,0
301,308,311,312,0
301,305,310,309,0
301,306,309,308,0
301,311,309,307,0
302,317,308,307,0
302,319,307,307,0
303,316,307,307,0
305,315,308,310,0
310,315,311,315,0
314,313,314,322,0
317,310,318,326,0
318,308,320,329,0
317,307,322,328,0
315,306,323,326,0
313,306,323,324,0
310,308,322,321,0
309,311,320,318,0
307,316,318,316,0
306,322,317,316,0
306,330,315,317,0
305,336,314,319,0
304,338,313,320,0
304,338,312,320,0
304,335,311,317,0
305,330,311,311,0
306,317,311,304,0
307,295,312,296,0
307,268,313,289,0
306,241,313,284,0
302,220,313,281,0
297,215,313,281,0
294,231,312,286,0
296,258,311,292,0
303,281,310,299,0
312,296,309,307,0
315,302,309,315,0
311,305,308,322,0
305,307,308,327,0
301,311,308,330,0
298,313,308,330,0
298,311,308,328,0
299,305,306,322,0
299,299,305,313,0
300,292,303,305,0
300,287,301,299,0
300,281,299,294,0
299,275,296,291,0
298,272,295,289,0
298,277,294,289,0
299,288,294,291,0
301,304,296,295,0
303,321,297,300,0
304,337,298,303,0
305,351,298,304,0
305,363,297,303,0
304,375,296,301,0
303,383,297,300,0
302,383,298,301,0
302,371,300,305,0
303,353,301,311,0
303,335,302,317,0
304,317,303,322,0
305,299,302,326,0
306,285,302,329,0
308,275,302,330,0
310,271,302,329,0
310,273,302,326,0
311,277,302,321,0
310,283,303,313,0
310,289,304,305,0
307,294,305,299,0
302,297,306,295,0
296,294,306,293,0
291,287,305,292,0
288,276,304,292,0
289,267,302,292,0
291,265,300,293,0
294,272,299,296,0
296,286,298,299,0
299,297,298,301,0
300,306,298,302,0
302,311,298,303,0
303,309,298,302,0
304,302,297,301,0
304,291,296,299,0
305,279,296,298,0
306,273,297,299,0
308,273,299,303,0
311,277,302,310,0
313,278,305,317,0
315,277,308,323,0
315,276,310,328,0
315,278,310,330,0
314,283,309,330,0
313,291,308,329,0
312,302,306,328,0
311,313,305,330,0
311,320,303,331,0
310,323,303,329,0
309,322,302,325,0
309,319,301,319,0
309,313,300,313,0
309,305,300,307,0
309,298,299,302,0
308,291,298,297,0
308,285,298,294,0
308,282,299,292,0
309,287,300,292,0
307,297,301,294,0
302,307,304,297,0
297,315,306,302,0
294,324,308,307,0
295,330,309,312,0
299,334,311,316,0
304,333,311,319,0
307,330,310,322,0
309,325,309,323,0
310,325,307,322,0
310,328,305,321,0
310,330,304,319,0
311,329,303,318,0
311,325,301,315,0
310,320,300,312,0
310,315,298,307,0
310,311,296,303,0
311,309,295,299,0
314,313,294,298,0
319,320,295,299,0
325,325,296,301,0
327,321,296,303,0
323,311,297,306,0
318,298,298,307,0
314,286,300,307,0
309,280,302,306,0
303,282,304,304,0
298,288,305,302,0
295,294,306,299,0
295,297,308,296,0
297,298,308,293,0
299,298,309,293,0
301,299,309,293,0
303,298,309,293,0
305,296,308,293,0
306,295,305,293,0
308,296,301,293,0
309,297,297,295,0
311,299,296,297,0
312,301,296,300,0
313,302,296,303,0
313,303,296,307,0
312,304,296,310,0
310,306,296,311,0
306,310,295,311,0
302,315,294,309,0
299,319,293,309,0
297,321,293,308,0
296,319,293,306,0
297,312,293,304,0
298,302,293,301,0
298,291,292,298,0
299,283,291,295,0
300,279,292,293,0
302,278,294,293,0
304,279,295,294,0
308,284,295,297,0
313,288,296,301,0
317,287,297,306,0
318,287,297,311,0
318,290,298,315,0
316,298,298,317,0
314,309,297,317,0
313,319,296,316,0
313,328,295,313,0
312,336,294,311,0
310,343,293,309,0
306,347,294,308,0
302,348,294,306,0
299,344,295,305,0
299,337,295,303,0
302,329,295,303,0
305,321,294,306,0
305,315,293,311,0
304,309,292,317,0
305,306,292,321,0
306,308,292,324,0
307,313,292,325,0
308,315,293,327,0
309,315,295,328,0
311,311,297,329,0
311,306,299,326,0
311,304,301,321,0
310,304,301,314,0
308,303,301,305,0
306,298,300,298,0
307,290,300,295,0
309,281,300,295,0
310,273,300,297,0
311,270,300,299,0
311,274,298,302,0
311,286,297,304,0
309,302,296,308,0
305,317,296,313,0
303,327,296,318,0
302,332,297,322,0
303,332,297,326,0
304,329,297,330,0
306,325,298,332,0
306,320,299,332,0
304,313,299,330,0
302,306,300,326,0
300,302,300,320,0
300,304,301,316,0
301,301,301,312,0
304,293,302,311,0
307,286,302,310,0
310,288,303,310,0
312,299,303,309,0
312,312,302,308,0
311,325,302,307,0
309,335,302,308,0
308,341,303,309,0
307,342,303,310,0
308,341,303,310,0
309,336,303,310,0
310,327,302,309,0
310,319,302,309,0
310,314,303,310,0
311,309,304,311,0
315,304,305,311,0
323,301,306,310,0
333,298,305,307,0
337,291,305,303,0
331,282,304,300,0
321,274,305,298,0
312,273,306,298,0
306,278,307,298,0
301,286,309,299,0
299,295,311,300,0
297,304,312,302,0
295,312,311,303,0
292,319,311,304,0
288,327,311,305,0
285,332,309,305,0
284,333,307,306,0
288,332,305,305,0
293,332,304,304,0
300,333,303,302,0
305,333,303,302,0
309,329,303,301,0
311,325,304,301,0
312,323,305,301,0
314,326,307,303,0
314,334,309,307,0
313,343,309,312,0
313,347,310,320,0
312,342,311,329,0
312,330,311,336,0
312,316,312,341,0
311,305,311,341,0
310,298,311,339,0
309,294,312,335,0
307,291,313,330,0
305,289,315,323,0
303,289,317,316,0
303,289,319,309,0
305,287,320,301,0
306,279,319,296,0
308,271,316,293,0
310,269,313,293,0
313,276,311,294,0
316,288,309,296,0
319,299,309,299,0
320,308,309,301,0
321,316,310,303,0
320,323,310,305,0
314,331,312,307,0
307,339,313,309,0
300,347,313,309,0
296,352,313,308,0
293,352,313,307,0
291,349,312,306,0
290,340,311,305,0
289,327,309,306,0
289,317,309,308,0
291,312,308,312,0
296,311,309,317,0
300,306,311,320,0
305,299,313,321,0
308,290,315,320,0
310,284,316,317,0
312,282,317,312,0
313,284,319,305,0
312,288,319,300,0
310,291,318,295,0
306,290,316,292,0
303,281,315,290,0
300,268,313,289,0
297,253,312,289,0
296,242,311,289,0
295,244,310,292,0
297,260,311,296,0
300,285,312,301,0
303,311,312,305,0
305,335,313,310,0
307,354,313,314,0
307,364,315,318,0
306,364,316,323,0
304,359,318,328,0
305,352,318,330,0
307,341,318,330,0
308,329,318,326,0
307,317,317,321,0
305,309,316,315,0
303,305,315,310,0
301,304,314,304,0
298,306,313,299,0
295,310,311,294,0
290,315,310,292,0
287,314,308,293,0
285,300,308,297,0
285,281,308,301,0
291,265,310,305,0
302,256,311,308,0
312,255,312,310,0
316,263,312,312,0
315,274,312,315,0
313,288,313,319,0
312,299,314,323,0
313,308,316,327,0
314,314,317,331,0
314,318,318,335,0
314,322,320,337,0
313,324,320,338,0
312,326,320,337,0
311,327,320,335,0
310,327,320,331,0
309,326,319,328,0
308,325,318,328,0
308,324,317,331,0
308,322,317,335,0
308,321,316,337,0
308,321,315,336,0
306,322,314,331,0
305,325,312,322,0
303,327,311,311,0
302,326,309,298,0
300,318,308,285,0
299,305,307,274,0
299,290,308,268,0
300,278,311,268,0
303,269,315,274,0
310,266,321,286,0
316,271,324,297,0
318,280,325,308,0
316,288,324,315,0
312,292,324,320,0
309,292,324,322,0
307,290,325,324,0
307,289,327,325,0
307,293,328,328,0
308,303,329,331,0
309,315,328,333,0
308,325,325,330,0
305,332,321,325,0
304,333,317,318,0
303,331,313,312,0
304,328,310,307,0
305,324,308,303,0
307,320,307,300,0
308,316,307,296,0
308,315,307,292,0
306,316,308,289,0
305,318,309,287,0
304,322,310,286,0
303,328,310,285,0
302,335,310,284,0
302,339,310,284,0
301,336,309,284,0
300,324,308,285,0
300,311,307,288,0
300,299,307,291,0
300,287,307,295,0
300,274,306,297,0
301,266,306,300,0
302,261,307,302,0
304,253,308,304,0
304,246,309,306,0
303,246,310,310,0
304,253,313,318,0
306,268,315,326,0
310,284,317,334,0
314,297,320,339,0
317,305,320,337,0
318,310,320,332,0
316,314,319,322,0
314,316,317,313,0
311,318,317,303,0
309,319,316,294,0
307,320,315,288,0
305,322,311,284,0
304,320,308,282,0
303,316,305,282,0
303,312,304,284,0
302,311,302,287,0
302,314,302,290,0
302,318,302,294,0
302,321,302,298,0
302,320,302,301,0
303,317,303,304,0
303,311,305,308,0
305,309,307,315,0
307,311,308,323,0
308,316,309,331,0
308,319,309,335,0
307,320,309,337,0
306,316,308,335,0
306,312,309,330,0
305,310,309,324,0
305,312,309,316,0
304,314,309,306,0
304,313,308,297,0
305,306,307,289,0
305,293,307,284,0
305,277,307,282,0
304,264,307,285,0
303,261,309,291,0
305,274,311,300,0
310,295,313,308,0
319,313,314,314,0
322,322,315,319,0
315,325,315,320,0
304,325,315,320,0
294,325,315,318,0
288,322,314,315,0
284,318,314,313,0
282,315,313,312,0
281,313,312,312,0
279,312,311,313,0
279,310,310,315,0
280,308,310,317,0
283,309,310,317,0
289,313,311,315,0
296,316,310,312,0
300,317,309,307,0
304,316,307,303,0
306,314,305,300,0
308,313,304,299,0
310,313,304,301,0
311,313,304,305,0
312,312,304,312,0
312,311,304,323,0
312,310,306,335,0
311,307,309,345,0
309,302,310,352,0
308,298,310,352,0
307,298,310,347,0
306,305,309,337,0
305,315,307,325,0
304,323,305,312,0
304,323,304,300,0
303,315,303,290,0
303,300,303,283,0
302,286,303,278,0
302,276,303,276,0
302,273,303,277,0
304,276,304,279,0
305,282,304,282,0
307,288,305,286,0
308,294,305,289,0
309,301,306,292,0
308,307,307,295,0
308,313,309,297,0
307,318,309,299,0
306,321,309,300,0
304,322,309,301,0
303,322,308,301,0
301,321,307,301,0
300,319,307,301,0
298,315,307,302,0
297,310,307,302,0
299,302,306,302,0
300,297,305,302,0
300,296,304,302,0
300,300,303,302,0
300,308,302,303,0
300,318,302,303,0
301,329,302,305,0
304,337,303,308,0
306,341,305,311,0
307,344,306,312,0
307,348,307,314,0
307,351,308,315,0
310,352,310,318,0
314,349,312,321,0
316,344,313,324,0
315,339,313,328,0
314,335,313,330,0
312,327,313,332,0
311,310,314,333,0
312,287,315,334,0
312,266,314,332,0
311,256,311,329,0
312,254,307,325,0
312,259,304,321,0
310,268,302,318,0
306,278,302,316,0
303,287,302,315,0
302,294,303,315,0
302,299,303,314,0
302,304,304,313,0
302,309,304,310,0
302,313,304,308,0
302,316,305,307,0
302,314,306,307,0
302,309,307,309,0
301,303,307,311,0
299,300,307,313,0
296,299,308,317,0
295,301,309,322,0
296,303,311,329,0
299,307,313,334,0
303,309,313,339,0
306,309,313,340,0
308,305,311,339,0
307,295,310,335,0
305,280,307,327,0
302,263,305,318,0
301,252,303,309,0
303,248,302,301,0
309,247,302,295,0
315,250,301,292,0
320,259,301,295,0
325,272,301,301,0
326,287,301,308,0
320,299,301,312,0
311,308,300,311,0
305,316,300,307,0
303,322,299,301,0
303,325,298,295,0
304,325,297,290,0
305,325,297,287,0
304,324,297,285,0
303,322,297,285,0
301,322,297,286,0
301,322,297,288,0
300,321,298,291,0
301,319,299,294,0
304,317,301,298,0
307,314,303,303,0
310,311,305,308,0
311,309,306,313,0
313,309,307,316,0
313,310,307,319,0
313,313,308,320,0
312,316,307,321,0
312,317,306,321,0
312,317,304,319,0
311,316,303,315,0
310,313,301,310,0
309,310,300,305,0
309,307,299,304,0
309,304,299,307,0
309,302,299,312,0
309,302,299,315,0
308,307,298,317,0
308,314,297,317,0
309,323,297,315,0
309,332,297,311,0
308,339,297,306,0
307,341,298,301,0
308,340,299,297,0
310,335,301,295,0
312,326,304,293,0
315,310,307,292,0
318,290,308,292,0
319,272,307,292,0
318,262,306,293,0
316,258,306,296,0
314,261,305,299,0
311,268,304,302,0
311,278,303,306,0
315,286,303,310,0
319,292,303,314,0
318,296,301,317,0
314,299,300,320,0
310,299,299,324,0
308,297,300,329,0
307,294,302,333,0
308,291,304,336,0
308,287,306,337,0
309,285,307,335,0
308,285,308,331,0
307,286,308,326,0
304,288,307,321,0
301,291,308,318,0
300,297,309,317,0
299,305,310,317,0
299,314,310,315,0
299,320,309,311,0
299,324,307,306,0
300,328,304,299,0
300,330,301,292,0
301,324,295,287,0
301,311,291,282,0
301,296,287,277,0
301,286,286,274,0
302,280,287,274,0
302,271,289,276,0
300,262,292,282,0
295,256,295,290,0
289,254,298,302,0
286,258,302,314,0
290,265,306,324,0
299,274,308,330,0
308,282,309,331,0
314,291,308,329,0
318,304,307,326,0
320,318,307,323,0
318,326,307,319,0
314,329,307,313,0
311,329,305,307,0
308,324,302,302,0
306,317,300,299,0
305,307,298,298,0
304,299,298,297,0
305,291,298,299,0
307,285,300,302,0
308,281,302,305,0
310,280,304,307,0
310,286,306,308,0
309,298,308,309,0
309,316,309,309,0
309,335,310,309,0
309,348,311,308,0
308,351,311,307,0
306,347,310,305,0
303,336,309,306,0
301,323,308,311,0
301,310,308,317,0
302,301,309,321,0
303,296,309,321,0
304,300,309,320,0
306,309,310,319,0
309,316,310,318,0
311,318,310,316,0
312,317,310,314,0
315,313,312,313,0
318,308,313,312,0
323,304,314,311,0
329,303,316,309,0
332,302,317,308,0
328,301,317,308,0
321,298,317,308,0
315,295,316,305,0
311,293,314,303,0
306,291,314,303,0
303,291,314,304,0
304,294,314,304,0
305,299,313,303,0
305,305,311,301,0
303,312,309,298,0
301,316,307,297,0
299,317,306,297,0
297,313,305,298,0
297,309,304,299,0
298,308,304,300,0
300,309,304,303,0
302,310,305,304,0
304,309,306,304,0
305,309,308,304,0
305,311,310,304,0
305,316,313,307,0
305,322,315,311,0
305,324,316,315,0
305,323,316,317,0
305,320,315,318,0
305,317,314,318,0
305,315,313,318,0
305,314,312,317,0
304,313,310,315,0
303,310,308,312,0
302,305,306,308,0
301,298,305,303,0
300,291,302,297,0
298,289,301,292,0
297,294,298,287,0
297,307,297,283,0
299,326,297,281,0
303,345,299,283,0
308,349,301,288,0
311,335,304,294,0
313,317,308,301,0
313,301,310,307,0
313,289,311,311,0
312,279,311,313,0
309,274,311,313,0
306,273,309,313,0
301,274,309,314,0
298,276,310,316,0
296,278,312,320,0
297,281,313,322,0
298,284,314,321,0
299,285,314,320,0
300,284,314,317,0
303,282,314,314,0
305,282,312,312,0
307,283,309,311,0
308,286,307,311,0
309,293,306,313,0
309,300,306,316,0
310,308,305,320,0
311,312,306,323,0
311,316,306,324,0
310,319,306,324,0
309,322,306,322,0
308,326,304,318,0
306,328,303,314,0
304,330,302,312,0
303,330,302,316,0
302,329,301,322,0
302,325,301,328,0
303,321,302,331,0
303,317,302,331,0
303,314,303,330,0
304,311,304,328,0
305,310,305,325,0
306,310,305,322,0
307,312,306,320,0
307,317,306,318,0
306,320,306,318,0
303,321,306,317,0
299,314,305,315,0
295,300,305,311,0
289,280,303,304,0
287,269,302,296,0
291,272,303,288,0
299,287,304,280,0
308,307,305,275,0
316,322,306,273,0
318,327,305,274,0
315,326,305,275,0
312,317,305,278,0
309,303,305,281,0
308,289,304,285,0
307,279,304,288,0
306,273,304,291,0
307,271,304,294,0
307,271,305,299,0
308,274,306,303,0
307,280,308,308,0
305,286,310,313,0
301,292,313,317,0
297,297,315,320,0
296,301,315,321,0
298,303,315,321,0
303,303,314,320,0
308,303,313,319,0
310,303,311,318,0
311,303,309,315,0
310,303,307,311,0
311,304,306,307,0
312,307,306,305,0
312,308,306,304,0
310,307,306,303,0
309,305,306,303,0
308,304,305,302,0
308,305,305,302,0
308,307,305,302,0
309,309,305,304,0
311,310,307,306,0
313,312,308,308,0
313,315,310,309,0
312,319,310,309,0
309,325,309,307,0
305,330,307,304,0
301,333,305,300,0
298,332,303,296,0
297,325,300,292,0
299,313,299,291,0
304,305,298,290,0
303,305,299,290,0
298,311,300,291,0
293,317,302,294,0
290,317,304,299,0
292,311,307,307,0
295,299,310,314,0
300,283,312,320,0
305,269,314,323,0
310,262,316,326,0
314,261,318,329,0
316,264,319,331,0
318,270,320,331,0
318,277,321,328,0
317,284,319,325,0
315,289,317,321,0
314,292,314,318,0
313,295,312,314,0
310,298,310,309,0
306,301,309,304,0
303,305,309,298,0
303,308,311,293,0
303,310,311,287,0
304,310,311,284,0
304,311,311,281,0
304,311,311,282,0
305,311,309,284,0
306,311,306,288,0
306,311,304,294,0
307,310,303,300,0
309,310,304,305,0
310,309,307,309,0
310,308,309,313,0
309,309,311,315,0
307,310,312,316,0
307,312,313,315,0
308,313,313,312,0
309,312,312,308,0
310,309,310,303,0
310,304,308,299,0
310,303,307,296,0
311,306,306,295,0
310,312,306,295,0
307,319,306,295,0
300,325,305,294,0
292,327,304,292,0
287,327,304,292,0
290,325,305,294,0
297,319,306,298,0
302,308,306,300,0
306,291,307,302,0
308,274,307,302,0
308,261,308,299,0
308,255,309,298,0
310,258,310,300,0
313,266,311,304,0
314,275,312,307,0
313,283,312,310,0
310,293,312,310,0
308,305,311,308,0
307,317,309,305,0
307,327,308,302,0
307,331,308,298,0
307,330,307,297,0
309,326,307,297,0
311,322,308,298,0
311,319,308,301,0
310,316,309,304,0
308,314,310,308,0
307,312,311,313,0
306,312,312,318,0
307,313,314,323,0
307,315,316,327,0
306,314,317,329,0
305,313,316,329,0
304,313,316,327,0
304,313,315,324,0
304,314,314,318,0
304,318,314,312,0
304,326,313,306,0
305,332,311,302,0
307,335,310,299,0
311,333,309,299,0
316,326,307,299,0
317,318,305,301,0
312,313,305,304,0
307,310,305,307,0
300,306,306,308,0
292,299,307,307,0
287,293,307,304,0
285,292,308,299,0
289,295,308,295,0
292,300,308,291,0
293,307,308,289,0
292,315,307,288,0
292,321,307,289,0
293,320,307,292,0
294,313,307,296,0
294,310,307,300,0
294,310,307,303,0
295,312,307,305,0
297,313,307,308,0
300,312,307,309,0
303,309,307,309,0
306,306,308,309,0
309,304,308,308,0
310,306,309,310,0
311,308,308,316,0
311,309,308,324,0
310,309,309,333,0
310,307,311,340,0
310,303,313,343,0
310,299,313,343,0
309,295,313,340,0
308,291,312,335,0
307,290,310,327,0
306,289,308,319,0
305,291,306,313,0
305,298,305,309,0
305,307,304,308,0
304,314,303,305,0
303,319,302,303,0
303,324,302,300,0
307,332,301,297,0
312,339,301,294,0
314,341,300,293,0
313,334,300,296,0
311,326,301,302,0
308,320,303,311,0
307,316,306,320,0
307,312,308,328,0
307,311,309,331,0
309,309,309,332,0
311,306,309,331,0
313,304,310,330,0
315,305,310,326,0
315,308,310,320,0
313,311,311,314,0
312,312,310,309,0
311,311,309,304,0
311,305,309,300,0
310,297,307,296,0
309,290,304,291,0
307,284,301,287,0
307,281,298,283,0
307,280,296,280,0
308,280,295,279,0
308,280,294,278,0
309,280,294,279,0
310,280,295,280,0
310,281,295,281,0
310,286,296,283,0
313,299,297,286,0
317,315,299,291,0
317,324,301,295,0
314,325,303,299,0
310,325,305,303,0
310,325,305,307,0
312,322,305,312,0
317,314,304,315,0
320,304,302,316,0
316,295,300,317,0
305,289,298,316,0
294,284,298,313,0
289,281,298,309,0
288,278,298,304,0
288,276,299,302,0
289,277,300,304,0
291,283,302,309,0
294,292,303,315,0
298,304,305,321,0
302,320,306,325,0
305,337,308,327,0
306,350,308,326,0
304,355,309,324,0
301,351,310,322,0
298,340,309,320,0
299,326,308,317,0
304,316,308,314,0
311,309,308,310,0
315,308,307,304,0
317,310,306,299,0
316,313,305,294,0
314,315,304,289,0
313,316,304,287,0
313,319,303,287,0
312,319,303,289,0
310,316,303,291,0
308,306,304,293,0
304,297,304,296,0
301,294,306,299,0
300,298,308,302,0
302,302,312,307,0
305,305,314,312,0
308,307,316,315,0
309,308,317,316,0
309,306,317,317,0
308,300,318,320,0
308,296,318,324,0
307,294,318,330,0
307,294,316,335,0
306,295,314,338,0
305,296,311,337,0
304,297,310,333,0
304,297,308,327,0
303,295,307,319,0
301,291,305,309,0
299,290,303,300,0
298,291,302,292,0
299,293,302,287,0
302,295,302,282,0
305,298,303,278,0
308,304,304,276,0
310,312,304,277,0
312,320,305,279,0
313,325,305,282,0
314,327,304,284,0
315,325,304,287,0
317,321,304,290,0
318,316,304,293,0
317,308,305,295,0
315,302,305,295,0
313,299,305,296,0
310,296,305,297,0
306,293,305,298,0
303,288,304,301,0
300,282,305,305,0
299,276,305,309,0
298,274,306,315,0
298,279,307,320,0
299,291,308,327,0
301,305,310,331,0
304,315,311,332,0
305,319,313,329,0
307,316,313,320,0
308,310,314,311,0
309,306,314,303,0
311,306,315,298,0
312,311,315,296,0
311,315,315,294,0
309,319,315,293,0
307,319,315,293,0
306,319,315,293,0
308,318,315,294,0
311,316,314,296,0
313,315,312,296,0
313,314,308,296,0
313,313,304,296,0
313,311,300,295,0
315,308,298,295,0
318,307,297,297,0
320,311,298,299,0
315,320,300,300,0
308,328,302,302,0
303,333,305,305,0
302,330,307,309,0
303,323,309,313,0
304,314,310,319,0
306,305,311,328,0
306,297,312,335,0
305,292,312,340,0
304,288,311,341,0
303,285,309,338,0
302,280,308,333,0
299,275,307,326,0
297,274,305,319,0
295,279,304,314,0
295,289,303,311,0
296,296,303,310,0
299,299,304,310,0
301,299,304,312,0
303,300,305,314,0
305,303,305,315,0
305,306,305,314,0
304,309,305,311,0
303,309,304,307,0
301,308,303,302,0
298,304,302,299,0
293,299,303,298,0
288,292,304,299,0
287,290,305,301,0
291,292,307,305,0
298,297,308,311,0
304,303,308,316,0
305,309,308,322,0
307,313,309,329,0
310,312,310,335,0
312,309,312,339,0
314,308,312,340,0
316,308,313,338,0
316,306,313,335,0
315,304,314,331,0
314,303,314,328,0
312,304,313,324,0
309,306,310,319,0
306,308,307,312,0
304,309,303,303,0
303,310,301,294,0
302,311,299,288,0
303,312,298,282,0
303,315,298,278,0
304,321,297,276,0
305,330,298,274,0
306,338,299,273,0
307,344,300,275,0
307,345,301,279,0
307,339,302,285,0
307,331,304,292,0
309,323,305,299,0
309,317,306,305,0
311,313,308,310,0
311,311,309,314,0
311,308,311,317,0
309,306,313,318,0
308,304,314,318,0
306,304,315,315,0
304,304,315,311,0
302,304,314,305,0
301,304,313,301,0
300,304,313,300,0
299,303,312,300,0
298,298,312,302,0
297,290,312,305,0
298,283,310,308,0
300,277,307,309,0
302,277,306,309,0
304,281,305,309,0
308,287,304,310,0
312,293,304,311,0
