291,298,280,288,1
302,297,284,290,1
312,297,288,291,1
319,296,292,294,1
323,296,296,299,1
324,296,297,305,1
321,297,298,311,1
318,298,298,315,1
318,299,298,320,1
320,300,299,324,1
323,302,298,327,1
325,305,299,329,1
327,308,298,329,1
326,310,298,326,1
323,310,298,323,1
318,310,299,322,1
312,310,301,320,1
307,310,305,320,1
305,310,309,320,1
305,309,313,319,1
304,308,315,317,1
302,307,314,313,1
300,306,312,309,1
298,306,309,306,1
298,305,306,302,1
298,304,304,300,1
298,304,303,299,1
299,305,303,302,1
298,307,303,308,1
297,309,301,313,1
293,312,298,316,1
291,313,295,315,1
290,312,296,312,1
290,312,296,308,1
290,311,295,304,1
287,311,292,300,1
282,309,289,296,1
281,308,287,293,1
285,307,288,291,1
291,306,291,291,1
300,305,296,293,1
308,303,300,298,1
313,302,303,304,1
314,301,304,311,1
313,302,303,319,1
309,303,302,326,1
306,305,302,330,1
304,307,302,331,1
303,310,303,329,1
303,311,303,323,1
304,312,302,315,1
305,312,302,306,1
306,311,302,298,1
306,311,302,291,1
303,310,302,286,1
299,308,303,283,1
295,307,302,282,1
292,306,301,282,1
290,304,298,282,1
289,301,295,282,1
290,299,291,282,1
293,297,289,283,1
297,296,288,287,1
299,296,287,294,1
300,297,287,302,1
303,300,288,312,1
307,303,292,324,1
314,307,297,333,1
321,311,300,338,1
323,313,302,337,1
321,314,301,331,1
315,314,300,323,1
307,314,300,316,1
303,313,300,309,1
303,312,300,303,1
303,311,300,299,1
301,309,300,295,1
297,308,299,293,1
295,307,298,292,1
294,306,298,290,1
294,305,296,288,1
294,304,294,287,1
295,303,290,287,1
295,303,285,288,1
295,303,282,290,1
296,302,281,293,1
297,304,282,297,1
299,305,285,301,1
300,307,289,305,1
302,309,292,308,1
302,311,295,310,1
302,313,294,312,1
302,313,291,314,1
301,313,288,316,1
295,312,284,319,1
291,311,282,322,1
291,310,284,326,1
294,310,289,328,1
297,311,296,329,1
297,311,302,326,1
297,310,307,320,1
297,308,310,312,1
297,305,311,307,1
299,303,310,303,1
302,301,310,301,1
304,300,310,297,1
306,299,310,295,1
307,300,307,293,1
306,300,303,293,1
305,301,300,294,1
308,303,299,296,1
313,305,300,298,1
317,307,299,300,1
315,310,297,301,1
309,311,295,303,1
300,312,298,305,1
292,313,303,312,1
287,314,308,321,1
283,314,310,331,1
280,313,312,340,1
279,312,312,346,1
284,309,311,350,1
293,307,312,350,1
302,304,311,347,1
308,302,311,341,1
311,301,311,333,1
313,302,311,322,1
314,303,310,311,1
314,304,309,301,1
313,305,306,292,1
311,305,303,284,1
308,305,300,278,1
305,305,297,276,1
303,304,295,275,1
303,304,294,277,1
305,305,295,281,1
307,306,297,285,1
310,307,299,290,1
310,307,301,295,1
309,307,303,299,1
305,306,302,302,1
301,304,297,306,1
300,302,291,310,1
303,301,285,313,1
308,300,280,315,1
312,300,276,316,1
314,300,278,316,1
314,302,285,316,1
312,304,294,316,1
308,308,302,315,1
304,310,309,314,1
303,312,314,312,1
307,313,317,312,1
311,313,320,312,1
314,313,321,314,1
314,313,322,318,1
314,312,321,323,1
312,312,320,327,1
310,312,318,328,1
307,311,317,326,1
304,310,314,320,1
303,308,312,314,1
302,305,310,307,1
304,303,306,302,1
307,303,302,299,1
312,302,299,298,1
314,302,297,295,1
314,302,297,293,1
312,304,299,292,1
308,306,303,292,1
303,308,306,292,1
299,311,309,293,1
298,312,310,294,1
300,313,308,295,1
305,313,304,298,1
312,312,300,301,1
319,310,297,302,1
325,308,296,302,1
329,305,297,303,1
331,303,300,304,1
330,301,303,304,1
326,300,306,305,1
320,300,307,306,1
312,300,309,307,1
303,299,311,310,1
295,299,313,314,1
292,300,315,319,1
293,303,317,323,1
298,306,317,325,1
303,310,316,326,1
308,314,316,326,1
312,317,316,325,1
312,319,315,324,1
312,320,314,323,1
314,321,314,322,1
316,321,313,321,1
317,322,313,320,1
316,321,312,317,1
314,319,310,314,1
310,317,308,312,1
305,314,307,310,1
302,311,307,307,1
300,308,307,307,1
299,305,307,307,1
296,303,308,309,1
293,303,309,309,1
291,303,309,309,1
290,304,306,308,1
291,306,303,307,1
297,308,298,305,1
307,310,293,302,1
315,311,289,301,1
320,312,287,301,1
320,313,289,303,1
320,313,295,307,1
319,314,302,312,1
317,314,307,315,1
314,315,312,321,1
313,315,316,327,1
312,315,317,331,1
311,314,316,330,1
308,312,314,325,1
305,309,312,316,1
305,306,311,307,1
307,305,312,299,1
310,304,313,292,1
314,304,314,287,1
318,305,314,286,1
320,307,315,288,1
320,309,314,292,1
318,311,313,297,1
315,313,312,302,1
312,314,312,305,1
308,314,311,305,1
305,314,310,305,1
303,313,310,305,1
302,312,309,303,1
302,311,309,302,1
302,310,307,300,1
301,309,306,300,1
300,307,305,300,1
298,306,305,303,1
297,305,304,306,1
297,305,301,309,1
297,305,296,310,1
298,304,288,310,1
301,304,279,308,1
306,304,274,307,1
310,305,275,306,1
312,306,281,305,1
311,306,289,305,1
311,306,297,306,1
312,307,304,309,1
314,307,309,314,1
314,307,313,318,1
312,306,316,320,1
309,307,318,322,1
305,307,319,321,1
298,308,319,317,1
291,308,318,310,1
286,308,316,305,1
287,307,312,303,1
294,306,308,305,1
303,305,304,309,1
312,305,302,313,1
317,304,302,316,1
319,303,304,317,1
320,304,308,317,1
320,306,312,316,1
319,309,316,314,1
317,311,317,310,1
311,311,316,304,1
304,311,314,301,1
299,310,310,300,1
297,311,307,301,1
300,312,305,304,1
307,312,305,306,1
314,312,305,309,1
317,311,305,311,1
318,310,307,312,1
317,307,308,312,1
315,305,309,310,1
312,303,310,310,1
310,301,310,312,1
309,300,310,315,1
308,300,311,317,1
307,300,311,318,1
307,302,313,317,1
305,304,315,315,1
302,306,316,311,1
298,307,317,308,1
295,308,318,306,1
293,308,318,306,1
290,308,316,309,1
288,307,313,314,1
287,308,310,318,1
285,308,308,319,1
287,308,309,320,1
292,308,310,320,1
302,308,310,318,1
313,307,308,316,1
322,305,307,314,1
327,303,307,313,1
329,302,309,313,1
328,302,311,314,1
325,302,314,314,1
321,302,316,312,1
317,302,318,310,1
312,302,319,308,1
307,302,320,307,1
302,302,319,307,1
298,302,318,308,1
295,303,315,309,1
294,304,309,309,1
295,305,300,308,1
297,306,293,307,1
298,306,290,304,1
300,307,290,302,1
307,306,292,303,1
314,305,294,308,1
319,304,295,313,1
321,303,294,320,1
321,301,293,327,1
320,300,292,333,1
316,300,293,337,1
311,299,297,340,1
306,301,303,343,1
303,303,311,346,1
300,306,317,347,1
299,309,322,347,1
299,311,326,341,1
300,312,328,332,1
302,312,329,320,1
303,311,328,310,1
303,310,327,302,1
304,309,326,297,1
305,307,325,294,1
307,305,321,291,1
308,304,315,289,1
308,303,310,287,1
308,302,306,286,1
309,301,303,286,1
310,300,302,288,1
312,300,302,292,1
313,300,301,295,1
312,300,298,296,1
308,300,298,294,1
305,300,300,292,1
300,301,305,291,1
297,302,305,291,1
295,303,302,293,1
297,304,296,297,1
303,306,291,303,1
308,308,290,311,1
312,309,292,317,1
312,310,299,321,1
308,309,306,324,1
301,309,310,324,1
291,309,310,323,1
281,308,306,319,1
277,307,300,315,1
282,306,291,314,1
292,307,283,314,1
304,308,278,313,1
313,308,278,309,1
319,307,281,304,1
321,306,285,301,1
321,305,292,300,1
321,306,304,302,1
320,307,319,302,1
315,308,330,301,1
304,308,337,299,1
291,307,339,297,1
280,305,338,296,1
275,303,335,297,1
273,302,330,297,1
274,301,325,298,1
280,301,320,301,1
293,302,314,304,1
306,303,308,307,1
316,305,303,309,1
321,306,302,314,1
323,307,305,321,1
323,308,312,330,1
322,310,319,339,1
321,312,324,347,1
320,314,327,351,1
318,315,328,353,1
314,317,328,354,1
308,318,326,354,1
303,319,324,353,1
300,320,324,348,1
298,320,324,340,1
297,319,323,331,1
295,317,322,323,1
293,316,319,318,1
294,315,314,316,1
295,314,308,312,1
297,312,305,305,1
298,311,305,300,1
298,310,305,297,1
298,308,303,298,1
298,307,300,299,1
298,305,297,300,1
303,303,296,299,1
311,303,296,298,1
317,302,295,297,1
319,303,293,295,1
318,304,294,295,1
317,305,295,295,1
314,307,299,296,1
314,309,304,299,1
314,312,309,303,1
314,315,313,307,1
313,317,316,309,1
311,317,317,308,1
306,315,316,305,1
302,312,314,300,1
298,309,311,296,1
296,307,308,292,1
293,303,304,288,1
291,301,301,286,1
292,299,300,286,1
292,299,300,288,1
292,298,304,293,1
291,299,308,298,1
292,300,311,303,1
295,302,313,307,1
299,303,314,309,1
302,303,314,309,1
305,304,314,308,1
305,304,313,307,1
303,305,312,307,1
301,305,311,309,1
302,305,308,312,1
306,306,305,316,1
314,308,302,319,1
322,310,300,319,1
327,311,296,315,1
330,311,292,309,1
331,309,288,301,1
333,307,286,296,1
332,306,286,293,1
327,305,286,292,1
320,305,289,295,1
314,306,295,301,1
310,308,303,309,1
308,312,310,315,1
306,314,316,319,1
304,316,319,321,1
301,316,320,321,1
297,315,319,320,1
295,315,318,319,1
293,314,317,318,1
291,314,313,316,1
289,313,308,314,1
286,313,303,312,1
285,311,297,312,1
287,309,293,311,1
288,307,292,310,1
289,304,295,311,1
294,302,300,315,1
303,301,304,321,1
312,300,306,326,1
317,301,305,331,1
320,302,304,333,1
321,304,306,333,1
320,307,311,329,1
317,309,314,323,1
313,312,316,315,1
311,313,317,307,1
309,314,318,299,1
309,313,318,292,1
307,313,317,288,1
306,312,316,288,1
304,311,314,290,1
302,310,312,293,1
301,308,309,297,1
300,306,307,300,1
299,304,305,302,1
298,303,303,303,1
297,302,302,303,1
296,301,300,301,1
294,300,299,299,1
293,298,298,296,1
291,298,296,295,1
290,297,295,297,1
290,299,294,300,1
288,300,297,305,1
286,302,301,310,1
286,304,303,313,1
287,305,304,313,1
289,305,303,312,1
294,307,302,312,1
300,308,299,312,1
308,310,295,310,1
316,310,289,306,1
323,309,286,300,1
328,309,285,295,1
331,308,287,293,1
333,306,291,293,1
332,304,295,297,1
328,302,299,304,1
324,301,304,313,1
320,300,309,320,1
317,300,312,323,1
315,301,315,324,1
317,302,315,323,1
319,304,313,322,1
320,307,311,319,1
318,308,310,316,1
311,309,307,311,1
302,309,304,305,1
294,309,302,300,1
289,309,302,296,1
286,309,299,294,1
286,309,294,293,1
288,309,288,292,1
288,308,284,291,1
287,307,283,291,1
289,305,286,291,1
292,303,292,293,1
296,301,299,295,1
300,300,307,297,1
304,300,312,300,1
310,300,313,301,1
315,300,313,300,1
318,301,311,299,1
319,302,309,300,1
319,305,310,300,1
317,308,313,301,1
315,310,315,300,1
310,312,313,300,1
301,313,309,301,1
291,313,306,303,1
286,312,305,310,1
286,311,305,318,1
288,309,306,326,1
289,307,308,331,1
290,305,308,334,1
290,304,309,334,1
291,303,308,330,1
293,302,308,323,1
297,301,307,315,1
300,300,306,307,1
304,299,305,302,1
307,299,305,299,1
308,300,305,297,1
311,301,305,296,1
318,303,305,296,1
324,305,305,297,1
327,306,307,298,1
327,308,309,300,1
325,309,310,303,1
323,309,311,307,1
321,309,311,311,1
322,310,310,314,1
324,311,309,316,1
328,312,307,317,1
328,312,304,316,1
324,310,301,312,1
318,307,300,308,1
312,304,302,305,1
308,302,306,304,1
306,300,309,303,1
304,298,311,303,1
303,299,312,305,1
305,301,313,309,1
308,304,315,312,1
309,308,315,313,1
309,311,313,314,1
310,314,312,316,1
309,315,310,319,1
308,316,309,319,1
306,315,309,318,1
304,315,306,315,1
303,314,303,312,1
302,312,298,309,1
303,310,295,306,1
307,309,293,303,1
311,307,292,302,1
315,306,293,301,1
316,305,294,302,1
316,303,294,304,1
315,302,296,305,1
313,302,299,308,1
313,302,305,312,1
312,304,313,317,1
310,305,318,322,1
306,306,320,324,1
305,305,320,323,1
304,304,319,320,1
305,303,317,318,1
304,303,316,315,1
302,302,315,313,1
299,302,313,310,1
296,303,310,307,1
295,303,307,305,1
296,304,306,302,1
298,305,306,301,1
300,305,307,300,1
303,305,308,301,1
304,305,308,304,1
304,304,307,310,1
305,303,306,316,1
310,303,304,323,1
318,302,302,327,1
324,302,298,327,1
331,302,295,325,1
334,302,295,323,1
331,302,298,321,1
323,303,303,320,1
314,304,307,319,1
307,306,310,318,1
304,307,311,318,1
304,308,313,318,1
304,308,314,320,1
305,307,316,319,1
305,306,316,317,1
307,305,314,312,1
309,304,311,308,1
312,302,309,302,1
313,300,306,296,1
314,298,303,290,1
312,296,301,287,1
310,296,300,284,1
307,295,300,281,1
306,295,299,280,1
305,296,298,280,1
304,298,300,281,1
304,299,302,284,1
305,299,303,286,1
307,299,304,289,1
310,300,306,290,1
312,301,308,292,1
313,302,307,293,1
312,303,305,295,1
312,304,303,296,1
313,304,303,298,1
316,303,301,299,1
319,303,297,300,1
322,302,292,301,1
322,301,289,301,1
317,299,288,303,1
311,299,290,305,1
304,299,296,309,1
298,301,304,313,1
292,302,310,315,1
290,304,314,316,1
292,306,315,315,1
294,308,317,315,1
296,309,316,314,1
299,311,312,314,1
306,311,308,314,1
313,312,305,314,1
318,311,301,314,1
320,310,299,314,1
321,308,297,314,1
322,306,297,314,1
322,303,298,312,1
322,299,298,310,1
321,296,298,307,1
318,293,300,306,1
313,293,304,308,1
307,295,307,312,1
305,298,310,316,1
309,301,312,319,1
315,304,315,321,1
320,306,316,323,1
322,309,317,325,1
320,311,318,327,1
316,313,318,329,1
311,316,317,328,1
305,317,314,325,1
300,318,309,323,1
297,318,304,320,1
298,317,301,315,1
303,315,298,311,1
306,313,298,305,1
310,310,301,300,1
313,307,304,296,1
317,305,307,292,1
319,302,309,287,1
320,299,309,283,1
318,297,308,279,1
313,294,306,279,1
307,294,305,281,1
301,295,306,286,1
299,298,309,291,1
299,302,312,295,1
302,305,314,298,1
304,307,313,298,1
304,309,310,298,1
305,310,309,298,1
306,310,311,298,1
306,309,311,299,1
304,308,311,299,1
302,307,309,299,1
298,306,306,298,1
296,304,304,297,1
296,303,303,297,1
300,302,304,298,1
307,301,305,301,1
315,300,306,304,1
320,300,306,308,1
323,299,305,310,1
323,299,301,309,1
319,301,294,308,1
314,302,289,307,1
307,304,286,305,1
299,306,285,304,1
293,307,289,304,1
295,309,298,305,1
305,311,308,306,1
315,312,316,306,1
320,311,320,306,1
322,310,323,306,1
321,310,324,307,1
318,310,322,311,1
315,309,318,317,1
313,307,314,324,1
312,305,312,330,1
311,302,311,335,1
311,300,310,338,1
314,299,308,338,1
317,297,305,336,1
316,295,302,333,1
313,295,300,332,1
311,296,301,331,1
309,300,303,332,1
305,304,307,333,1
296,309,311,332,1
288,312,315,330,1
291,314,317,327,1
299,315,318,322,1
305,315,318,315,1
310,314,317,309,1
313,314,316,304,1
315,314,315,301,1
317,314,315,297,1
317,312,314,293,1
316,309,312,290,1
315,306,311,290,1
315,303,310,293,1
315,301,309,297,1
315,299,309,302,1
316,300,309,306,1
317,301,309,308,1
318,303,308,306,1
317,304,307,303,1
317,307,306,300,1
318,309,305,300,1
319,311,304,299,1
320,311,303,298,1
320,312,303,296,1
319,313,304,294,1
316,313,305,292,1
311,313,306,292,1
304,312,307,291,1
298,311,305,289,1
293,309,304,286,1
293,307,303,285,1
296,305,302,285,1
300,303,302,286,1
302,302,299,287,1
301,301,296,289,1
300,302,291,292,1
304,303,289,296,1
312,306,290,299,1
320,310,295,301,1
326,313,302,302,1
328,316,307,301,1
331,317,310,301,1
331,318,312,302,1
329,318,313,304,1
326,317,312,305,1
323,314,308,306,1
322,311,305,308,1
321,309,302,311,1
321,308,302,315,1
320,307,305,319,1
317,306,308,323,1
312,306,311,324,1
306,304,314,324,1
302,303,315,322,1
302,302,316,319,1
305,302,316,317,1
310,303,317,317,1
314,305,316,317,1
316,306,315,318,1
315,307,313,319,1
309,307,311,320,1
302,307,310,322,1
295,307,307,323,1
290,308,303,322,1
286,309,300,320,1
286,310,298,319,1
288,310,297,316,1
290,310,300,312,1
289,309,304,309,1
289,308,307,305,1
294,306,310,301,1
302,304,311,299,1
311,303,312,299,1
319,302,313,304,1
324,302,313,313,1
328,303,312,321,1
329,305,311,328,1
329,307,311,333,1
327,310,311,334,1
323,312,310,331,1
317,313,308,325,1
312,312,304,318,1
309,312,301,309,1
309,311,297,303,1
310,310,295,299,1
311,310,296,298,1
311,309,300,299,1
310,310,305,301,1
309,310,309,303,1
307,309,310,303,1
306,307,309,303,1
305,304,305,301,1
306,302,300,299,1
306,300,295,298,1
306,299,293,297,1
308,299,294,296,1
309,300,296,296,1
311,302,299,295,1
314,304,303,294,1
314,307,308,293,1
313,309,312,291,1
312,309,315,290,1
309,309,316,288,1
306,309,315,288,1
301,308,312,289,1
295,307,306,292,1
292,307,301,296,1
289,307,297,300,1
287,307,296,304,1
286,306,298,308,1
286,305,303,311,1
292,304,308,312,1
302,303,311,311,1
312,301,313,309,1
316,299,313,307,1
316,298,314,306,1
313,298,313,306,1
307,300,313,307,1
303,302,315,309,1
300,304,317,310,1
300,307,318,311,1
301,309,317,311,1
302,310,315,309,1
302,310,313,308,1
302,310,312,307,1
300,310,310,306,1
296,309,307,305,1
292,309,303,306,1
289,310,300,306,1
288,309,298,306,1
288,306,298,306,1
290,303,298,309,1
295,301,298,312,1
300,299,298,317,1
303,299,297,323,1
303,300,298,329,1
303,302,302,333,1
304,304,308,335,1
304,307,314,335,1
301,309,319,331,1
298,312,320,326,1
296,312,321,320,1
295,312,321,315,1
296,311,320,311,1
296,310,320,308,1
297,310,318,307,1
298,309,317,307,1
299,309,316,308,1
301,309,316,310,1
302,308,316,312,1
304,307,316,315,1
306,305,316,318,1
309,304,316,323,1
312,302,313,327,1
316,301,307,330,1
320,301,297,332,1
323,301,286,333,1
325,304,278,331,1
327,306,276,326,1
327,309,282,319,1
326,311,290,311,1
325,311,297,302,1
322,310,302,296,1
315,309,305,291,1
307,308,306,286,1
297,307,303,284,1
289,307,298,283,1
285,307,293,284,1
284,306,290,284,1
283,305,289,284,1
284,304,290,285,1
286,304,293,288,1
291,303,298,291,1
298,303,305,295,1
303,303,312,299,1
305,303,316,302,1
304,303,319,304,1
301,305,319,308,1
298,306,320,312,1
295,307,319,316,1
294,308,318,318,1
295,308,317,318,1
295,308,316,316,1
295,307,316,315,1
298,306,316,314,1
305,305,315,317,1
310,305,314,319,1
311,305,312,319,1
311,304,310,317,1
310,303,309,315,1
312,302,309,313,1
316,302,309,311,1
318,302,310,310,1
317,303,311,312,1
312,304,311,315,1
306,305,308,319,1
302,307,302,325,1
303,310,297,331,1
306,313,292,333,1
309,315,290,330,1
313,316,291,324,1
316,316,296,318,1
318,315,302,311,1
318,313,306,304,1
316,312,307,300,1
316,309,307,298,1
314,307,308,297,1
311,305,307,295,1
306,304,305,292,1
300,301,305,289,1
296,300,307,287,1
298,298,310,287,1
302,297,313,288,1
308,297,316,290,1
313,297,318,292,1
317,297,317,295,1
320,298,317,298,1
322,300,316,302,1
324,301,314,307,1
323,302,313,310,1
321,303,312,312,1
318,303,311,311,1
316,304,309,307,1
314,305,307,302,1
310,305,305,297,1
306,305,305,293,1
305,304,307,291,1
305,304,308,289,1
308,303,308,287,1
311,302,306,285,1
313,301,304,285,1
314,301,303,287,1
315,300,304,291,1
314,300,305,296,1
310,301,308,303,1
306,303,309,308,1
301,305,310,314,1
297,308,309,318,1
292,311,307,318,1
289,312,306,316,1
288,312,307,312,1
288,312,308,307,1
289,312,308,305,1
289,311,306,304,1
287,309,300,304,1
285,307,294,305,1
285,306,291,305,1
288,306,291,306,1
292,305,294,308,1
298,304,301,312,1
304,303,308,315,1
308,300,314,318,1
312,298,317,318,1
315,297,320,320,1
318,297,322,322,1
321,299,323,325,1
322,302,323,326,1
323,306,323,325,1
322,310,321,322,1
320,313,319,319,1
317,314,318,316,1
314,316,317,314,1
311,315,316,312,1
310,314,316,310,1
310,313,315,308,1
309,312,313,304,1
307,310,309,297,1
308,308,307,292,1
309,305,304,288,1
309,303,303,288,1
307,301,302,289,1
304,299,301,291,1
305,297,300,297,1
309,298,299,304,1
315,300,297,313,1
320,302,295,320,1
321,304,296,326,1
319,306,300,330,1
315,309,307,332,1
311,312,315,331,1
308,313,321,327,1
306,313,327,321,1
305,312,329,314,1
304,309,329,307,1
303,308,325,302,1
300,306,321,298,1
299,305,319,297,1
299,304,318,297,1
300,304,317,299,1
302,303,317,301,1
304,302,318,303,1
307,301,319,304,1
311,299,318,304,1
314,298,318,303,1
315,297,318,302,1
313,297,318,302,1
310,299,318,302,1
306,301,318,304,1
301,303,320,307,1
293,305,320,309,1
285,307,319,312,1
278,308,317,314,1
273,308,315,315,1
273,308,313,315,1
278,307,312,315,1
287,307,312,312,1
296,307,311,309,1
301,307,310,303,1
302,307,309,297,1
300,306,306,291,1
297,304,302,287,1
294,302,296,286,1
291,300,292,287,1
290,299,292,288,1
292,298,296,291,1
297,300,303,296,1
306,302,310,301,1
314,304,315,306,1
318,306,314,311,1
319,307,310,318,1
317,308,303,324,1
317,308,296,329,1
317,308,292,330,1
316,308,289,329,1
316,309,290,328,1
315,310,295,328,1
314,311,300,326,1
312,310,304,322,1
310,309,309,319,1
310,308,314,314,1
311,307,319,310,1
311,306,321,306,1
305,304,322,302,1
296,302,322,297,1
288,301,321,295,1
285,301,320,294,1
283,302,319,295,1
281,302,318,297,1
280,303,317,299,1
283,304,316,299,1
289,305,314,298,1
297,306,312,296,1
304,307,310,295,1
310,308,308,294,1
312,309,308,294,1
313,310,308,294,1
314,310,307,294,1
313,308,306,294,1
313,307,304,294,1
312,305,302,297,1
311,304,298,301,1
312,302,295,306,1
314,301,294,312,1
316,301,295,317,1
318,302,298,322,1
319,302,302,328,1
319,304,306,333,1
318,305,310,337,1
317,307,314,339,1
315,308,316,336,1
311,309,316,331,1
303,309,316,324,1
295,310,316,318,1
289,310,315,316,1
288,310,314,319,1
290,311,313,325,1
292,311,312,331,1
294,312,310,334,1
296,310,306,332,1
295,308,301,326,1
293,303,295,319,1
293,300,291,312,1
296,296,289,306,1
299,294,289,302,1
302,294,293,299,1
304,295,301,300,1
303,298,310,301,1
301,301,316,301,1
303,303,319,300,1
307,305,321,298,1
310,306,323,296,1
312,308,322,293,1
313,309,321,291,1
315,309,319,291,1
315,309,317,294,1
314,310,314,299,1
311,310,310,306,1
304,309,305,312,1
300,308,302,318,1
297,307,301,320,1
297,306,301,320,1
296,306,303,317,1
294,305,304,311,1
290,304,305,304,1
288,304,305,298,1
289,304,304,293,1
293,303,304,289,1
298,303,305,287,1
306,304,308,287,1
313,305,311,288,1
316,306,313,290,1
318,306,313,293,1
317,308,312,295,1
314,309,311,298,1
309,310,309,298,1
302,311,309,299,1
298,310,309,302,1
298,309,310,305,1
299,309,309,310,1
301,309,305,315,1
304,308,300,319,1
308,306,293,323,1
311,306,288,326,1
313,305,286,330,1
313,306,287,331,1
314,306,292,329,1
314,307,301,325,1
312,308,308,318,1
309,309,314,312,1
306,310,318,307,1
306,310,321,305,1
306,311,323,305,1
307,311,323,307,1
308,311,322,310,1
307,311,320,312,1
306,312,316,313,1
302,312,312,313,1
298,312,309,310,1
294,310,306,306,1
296,308,304,301,1
301,305,304,297,1
305,301,307,293,1
307,296,310,290,1
305,292,313,289,1
303,291,316,292,1
302,292,317,298,1
300,294,317,303,1
296,298,316,308,1
293,302,316,313,1
290,305,315,319,1
289,308,315,324,1
289,310,314,328,1
292,312,314,331,1
297,313,314,333,1
302,315,315,331,1
307,316,315,329,1
309,316,314,324,1
310,316,309,318,1
311,314,303,310,1
311,311,299,303,1
308,307,296,296,1
306,304,296,292,1
307,301,298,290,1
314,300,300,290,1
323,300,300,291,1
331,300,301,292,1
332,301,303,292,1
326,302,306,292,1
314,303,311,292,1
302,305,315,293,1
294,306,318,292,1
290,307,319,292,1
288,308,319,292,1
288,310,317,292,1
289,310,316,295,1
291,311,315,297,1
294,311,314,298,1
297,310,314,299,1
299,309,313,298,1
301,307,313,296,1
302,304,313,298,1
302,302,313,302,1
302,302,314,310,1
304,302,315,317,1
306,303,317,322,1
307,304,318,326,1
306,305,318,328,1
305,307,317,329,1
304,309,314,329,1
302,310,307,329,1
299,311,300,325,1
295,312,294,321,1
293,312,293,318,1
297,312,296,317,1
303,312,302,316,1
306,313,309,315,1
307,314,314,314,1
306,314,316,311,1
303,313,318,307,1
302,312,319,303,1
302,311,318,301,1
305,308,316,299,1
309,305,314,297,1
312,302,313,296,1
314,299,311,295,1
313,298,310,296,1
310,297,306,297,1
304,297,304,298,1
301,298,304,300,1
299,301,306,304,1
300,303,308,307,1
302,305,309,310,1
305,307,311,311,1
305,309,312,314,1
304,311,314,317,1
303,313,315,319,1
303,314,315,320,1
305,314,315,319,1
306,314,314,316,1
306,312,312,313,1
305,310,310,309,1
302,307,307,304,1
299,304,303,299,1
298,301,295,294,1
298,299,285,289,1
303,300,277,287,1
311,301,274,286,1
316,302,277,285,1
317,304,285,285,1
315,306,295,285,1
312,307,304,285,1
309,307,312,286,1
307,308,316,288,1
307,309,318,291,1
308,310,317,295,1
310,310,315,299,1
311,310,313,301,1
310,309,313,304,1
309,308,313,305,1
307,306,313,307,1
306,304,313,308,1
307,303,312,309,1
310,302,310,310,1
312,302,309,311,1
314,302,308,311,1
314,303,310,312,1
313,304,311,314,1
311,306,313,318,1
307,309,314,321,1
303,311,314,322,1
299,313,315,322,1
297,314,315,323,1
300,314,314,322,1
308,314,313,320,1
316,313,312,318,1
319,312,311,316,1
318,310,308,314,1
315,308,303,313,1
311,306,297,311,1
307,304,290,309,1
306,302,283,307,1
308,301,278,306,1
311,301,276,305,1
314,301,279,305,1
315,302,287,306,1
316,304,299,307,1
316,306,311,308,1
316,307,319,307,1
314,306,322,305,1
312,305,323,303,1
310,306,322,304,1
308,306,320,306,1
304,306,318,308,1
298,307,317,308,1
294,308,315,307,1
295,308,313,306,1
299,307,311,305,1
302,306,309,308,1
304,306,306,313,1
308,304,303,318,1
311,303,300,321,1
314,300,298,322,1
317,297,297,322,1
322,295,297,321,1
325,295,300,320,1
326,296,305,319,1
323,299,311,317,1
320,303,317,314,1
316,307,319,311,1
310,311,320,306,1
305,312,319,301,1
302,313,317,297,1
302,313,314,294,1
303,312,311,291,1
304,312,307,289,1
302,311,304,288,1
298,310,298,288,1
292,308,292,287,1
289,306,287,286,1
289,303,284,287,1
290,301,285,289,1
293,299,289,292,1
298,298,295,297,1
302,297,301,304,1
304,298,306,311,1
302,299,312,318,1
298,302,318,325,1
299,304,324,330,1
304,307,327,332,1
308,309,328,330,1
311,310,327,324,1
310,311,324,317,1
309,312,321,309,1
307,311,318,303,1
305,310,314,296,1
304,309,311,290,1
302,308,307,287,1
300,307,300,287,1
298,306,295,289,1
297,305,293,292,1
298,304,295,296,1
301,302,299,298,1
305,301,302,298,1
309,299,304,296,1
312,298,306,294,1
313,299,306,294,1
315,300,306,294,1
316,303,307,296,1
317,306,308,297,1
317,308,308,297,1
317,310,308,298,1
315,311,309,299,1
308,311,309,301,1
296,311,309,302,1
283,310,308,303,1
273,310,307,305,1
267,310,307,306,1
264,311,305,306,1
266,310,302,305,1
277,309,299,305,1
289,308,296,305,1
300,307,295,307,1
308,305,297,311,1
316,302,301,316,1
321,300,304,320,1
321,300,305,325,1
320,300,304,329,1
322,302,303,331,1
322,305,302,330,1
319,307,301,325,1
310,309,303,320,1
302,310,306,316,1
298,311,309,313,1
300,313,310,308,1
305,314,309,303,1
311,315,307,298,1
315,314,306,293,1
319,312,306,291,1
323,310,308,292,1
324,307,311,295,1
323,304,313,300,1
320,301,312,304,1
315,298,311,309,1
310,296,310,313,1
309,295,311,315,1
309,295,311,315,1
310,296,310,314,1
310,298,309,312,1
308,300,309,311,1
305,302,309,310,1
303,304,309,308,1
304,306,309,306,1
307,308,309,305,1
309,309,308,307,1
309,309,307,313,1
309,309,305,322,1
307,309,305,329,1
305,309,305,333,1
303,309,305,331,1
300,307,307,326,1
293,304,308,319,1
286,301,309,311,1
281,297,307,303,1
277,294,303,297,1
275,293,299,294,1
279,293,297,293,1
292,294,299,294,1
310,296,302,298,1
326,300,307,302,1
336,303,311,306,1
340,306,313,310,1
338,309,312,312,1
334,310,310,313,1
329,312,306,313,1
327,313,300,312,1
324,313,294,309,1
319,313,289,302,1
311,313,287,295,1
303,311,287,289,1
296,309,292,286,1
295,307,298,286,1
298,305,300,290,1
307,302,300,297,1
315,299,302,305,1
320,297,306,314,1
323,296,312,320,1
324,297,316,325,1
321,298,319,326,1
317,300,319,324,1
313,304,318,319,1
309,307,317,314,1
306,309,316,307,1
303,310,314,299,1
302,310,311,293,1
302,310,306,287,1
303,309,300,284,1
304,308,292,284,1
304,306,284,286,1
302,305,279,289,1
299,303,280,292,1
297,301,284,295,1
296,299,290,296,1
295,298,297,298,1
294,297,303,301,1
291,297,307,304,1
290,297,307,306,1
289,298,307,310,1
288,301,307,313,1
286,303,308,314,1
285,306,308,313,1
285,308,309,311,1
284,311,310,310,1
284,313,312,311,1
290,315,314,312,1
299,315,316,314,1
306,314,317,316,1
308,313,315,318,1
310,313,313,319,1
311,312,311,320,1
312,310,311,320,1
315,307,309,320,1
322,305,306,321,1
331,303,301,323,1
338,302,296,324,1
340,302,293,324,1
336,303,294,321,1
328,305,298,318,1
321,307,305,313,1
317,308,310,308,1
314,310,314,302,1
312,310,316,298,1
310,311,317,296,1
305,310,317,296,1
298,309,316,299,1
289,309,316,302,1
284,308,315,305,1
284,308,314,308,1
291,307,313,309,1
299,307,312,310,1
306,307,309,311,1
310,308,308,310,1
310,307,306,309,1
309,307,304,306,1
311,305,303,304,1
312,305,303,306,1
312,304,305,313,1
311,304,309,323,1
309,306,311,332,1
307,308,313,337,1
306,309,315,339,1
306,310,317,337,1
306,310,319,333,1
307,310,319,327,1
306,310,318,320,1
301,310,314,313,1
293,310,307,305,1
288,310,299,298,1
286,309,291,291,1
286,308,285,286,1
287,306,283,283,1
290,304,282,281,1
295,301,283,281,1
299,300,288,282,1
305,299,294,285,1
312,299,302,285,1
320,299,311,286,1
324,301,319,286,1
325,303,323,285,1
321,305,325,284,1
315,308,324,286,1
310,311,323,289,1
308,313,321,293,1
309,313,320,295,1
310,313,319,297,1
311,312,318,297,1
313,311,317,298,1
313,310,317,298,1
312,310,317,297,1
310,308,318,297,1
308,307,318,297,1
304,305,316,298,1
300,304,311,300,1
299,302,305,304,1
303,302,300,311,1
307,303,298,320,1
311,304,298,328,1
316,306,302,334,1
319,307,308,335,1
320,308,314,331,1
320,308,318,326,1
318,308,320,320,1
312,308,321,315,1
307,308,321,312,1
305,309,322,310,1
305,308,321,308,1
302,308,318,307,1
297,307,314,309,1
291,307,311,312,1
290,307,307,315,1
292,306,305,317,1
297,305,305,317,1
303,304,307,317,1
308,303,310,320,1
311,302,313,324,1
311,302,316,330,1
312,302,319,336,1
315,303,321,340,1
316,304,324,341,1
313,305,326,339,1
313,305,326,332,1
317,305,323,323,1
321,304,319,312,1
320,304,315,301,1
314,305,311,294,1
305,306,306,289,1
296,306,300,285,1
288,305,292,283,1
284,304,285,282,1
283,302,280,282,1
285,301,278,283,1
289,300,281,286,1
295,300,287,290,1
303,299,294,295,1
308,299,303,301,1
312,299,311,307,1
316,300,317,314,1
319,302,320,321,1
320,305,321,328,1
320,308,322,334,1
317,311,323,338,1
313,312,324,339,1
307,312,325,336,1
301,312,325,331,1
294,311,325,327,1
289,310,324,325,1
285,309,322,325,1
285,308,319,324,1
290,307,316,321,1
300,305,315,316,1
313,304,314,309,1
325,302,313,303,1
334,300,312,296,1
338,297,310,291,1
336,295,309,288,1
330,294,308,287,1
323,294,307,287,1
317,295,306,287,1
313,297,306,287,1
310,300,307,288,1
308,304,307,288,1
308,306,305,289,1
308,307,300,289,1
308,307,293,289,1
308,306,288,290,1
307,306,286,292,1
306,305,289,295,1
305,305,297,297,1
303,303,305,298,1
296,301,310,299,1
286,298,310,300,1
279,297,308,301,1
284,297,308,303,1
298,296,310,304,1
309,295,312,305,1
315,294,315,308,1
316,293,316,312,1
314,293,318,317,1
313,295,318,323,1
312,297,318,329,1
313,299,319,334,1
313,302,319,337,1
312,304,318,338,1
310,307,316,336,1
308,309,314,333,1
306,310,311,327,1
305,311,308,320,1
303,310,304,311,1
300,309,302,305,1
299,309,300,300,1
299,307,299,297,1
300,305,299,293,1
302,303,298,291,1
305,300,297,291,1
308,298,295,292,1
309,297,292,293,1
310,295,287,295,1
308,295,282,298,1
307,297,280,302,1
307,299,283,305,1
310,302,289,309,1
315,306,298,312,1
318,308,308,312,1
316,310,315,310,1
312,311,320,309,1
307,311,323,308,1
302,311,324,306,1
298,310,323,304,1
296,311,322,301,1
296,310,319,298,1
299,310,316,294,1
303,307,313,291,1
307,304,309,289,1
311,300,305,288,1
316,298,304,289,1
320,296,305,293,1
324,296,308,297,1
325,297,311,301,1
322,298,313,304,1
318,300,312,306,1
313,303,310,309,1
306,305,306,312,1
297,307,301,316,1
290,308,295,318,1
287,309,288,319,1
294,312,285,322,1
304,313,287,324,1
311,314,290,324,1
314,314,297,323,1
314,313,305,319,1
312,311,312,315,1
309,307,316,308,1
309,303,318,302,1
310,299,318,295,1
312,296,316,290,1
312,294,312,286,1
310,293,308,284,1
307,293,307,283,1
304,294,307,285,1
303,295,310,288,1
303,296,312,292,1
303,296,313,295,1
303,296,314,297,1
302,296,315,299,1
301,297,316,304,1
299,299,317,314,1
297,301,316,325,1
295,304,316,334,1
295,306,315,339,1
296,307,314,341,1
297,307,311,340,1
300,308,310,338,1
302,308,309,335,1
303,308,310,332,1
304,308,311,327,1
304,307,311,320,1
305,307,312,314,1
307,307,313,310,1
309,308,314,306,1
308,310,315,303,1
306,311,313,300,1
303,311,308,295,1
301,311,300,291,1
301,312,292,287,1
303,310,289,281,1
306,308,290,277,1
308,306,295,274,1
308,305,299,274,1
308,304,304,275,1
309,303,306,276,1
311,302,304,277,1
313,300,299,279,1
315,298,293,281,1
316,297,289,284,1
317,297,289,289,1
320,299,293,293,1
322,301,298,298,1
323,303,304,301,1
321,306,310,303,1
316,308,315,303,1
309,310,319,303,1
302,311,323,301,1
297,311,325,300,1
292,310,325,299,1
289,309,323,300,1
286,309,317,302,1
288,309,309,304,1
294,309,303,306,1
301,308,299,306,1
306,307,299,306,1
309,307,302,304,1
310,305,307,303,1
309,303,310,300,1
308,300,311,300,1
306,299,310,301,1
305,298,311,303,1
305,299,312,305,1
308,301,313,308,1
313,304,313,310,1
314,306,313,311,1
312,308,314,311,1
308,309,314,312,1
302,311,314,313,1
297,313,312,315,1
292,315,312,318,1
289,317,312,320,1
288,318,313,322,1
290,319,312,323,1
290,318,312,323,1
290,316,312,322,1
291,313,311,321,1
292,309,311,320,1
297,306,310,320,1
304,303,311,321,1
315,301,311,321,1
326,300,313,321,1
333,299,314,320,1
334,299,314,320,1
330,302,315,320,1
325,305,314,317,1
321,309,312,310,1
315,312,310,304,1
309,314,310,299,1
304,316,311,298,1
298,318,313,299,1
293,319,313,302,1
289,320,312,304,1
289,319,311,305,1
292,318,309,303,1
297,316,307,298,1
301,313,305,292,1
303,308,304,287,1
300,304,302,284,1
295,300,300,283,1
294,298,297,283,1
299,298,294,285,1
303,299,292,289,1
305,302,291,293,1
304,304,292,297,1
302,306,292,300,1
297,308,294,302,1
294,310,298,304,1
295,311,302,305,1
298,313,308,305,1
302,313,312,304,1
303,313,313,301,1
303,312,312,300,1
303,311,312,303,1
306,311,312,309,1
314,310,313,315,1
322,309,313,319,1
329,308,313,321,1
333,307,314,319,1
334,306,316,316,1
333,304,318,312,1
327,303,318,308,1
318,302,317,304,1
308,303,317,303,1
303,305,317,303,1
301,308,316,303,1
300,312,315,303,1
301,314,313,302,1
301,314,312,301,1
301,314,311,300,1
300,313,310,302,1
299,313,310,304,1
298,312,309,306,1
297,311,306,308,1
298,311,301,310,1
299,311,297,310,1
301,310,293,308,1
300,309,292,305,1
299,306,295,304,1
295,304,300,305,1
290,302,304,311,1
287,301,306,319,1
290,302,306,330,1
296,303,308,341,1
302,304,309,347,1
307,305,311,350,1
307,307,312,350,1
305,310,314,348,1
305,313,315,344,1
305,314,317,339,1
305,315,318,333,1
303,316,319,328,1
299,317,320,325,1
296,316,320,322,1
295,316,320,319,1
297,315,319,316,1
298,313,316,311,1
298,311,311,304,1
303,307,307,296,1
313,305,305,289,1
321,302,306,282,1
327,299,307,276,1
329,298,308,272,1
331,298,308,270,1
331,299,310,270,1
331,301,310,272,1
329,304,307,274,1
323,305,303,279,1
313,307,299,284,1
303,307,297,290,1
295,308,295,293,1
289,309,293,293,1
288,309,291,292,1
292,309,291,290,1
297,308,293,289,1
301,308,297,288,1
303,306,301,288,1
302,305,304,288,1
300,304,305,290,1
298,303,304,292,1
300,303,302,297,1
304,304,301,302,1
308,306,301,308,1
310,308,303,315,1
312,311,308,321,1
313,313,314,325,1
311,316,319,326,1
305,317,322,327,1
301,318,324,330,1
303,320,324,332,1
307,321,322,333,1
309,320,319,332,1
307,318,315,329,1
301,315,309,324,1
294,312,304,318,1
288,308,299,312,1
284,305,295,306,1
283,301,292,301,1
287,298,292,298,1
292,296,291,296,1
297,294,289,297,1
300,294,284,298,1
303,295,281,301,1
307,298,282,304,1
311,301,289,308,1
314,305,299,312,1
316,307,308,315,1
319,310,314,316,1
322,311,317,316,1
323,311,319,313,1
324,310,320,309,1
323,310,320,304,1
322,309,320,301,1
322,308,317,298,1
321,306,313,298,1
320,305,310,300,1
317,304,307,304,1
312,302,305,308,1
309,301,302,313,1
310,300,300,320,1
314,301,299,329,1
317,303,301,338,1
316,306,305,344,1
313,309,310,346,1
309,311,315,342,1
305,312,317,334,1
301,311,318,322,1
295,310,317,311,1
291,309,316,302,1
289,309,314,296,1
288,309,313,293,1
289,310,313,293,1
292,310,312,294,1
294,310,311,295,1
297,310,309,296,1
298,309,305,297,1
298,308,298,296,1
298,306,290,295,1
299,304,285,295,1
302,302,283,294,1
305,300,285,294,1
307,298,290,294,1
305,299,296,296,1
300,300,303,301,1
298,303,308,308,1
299,306,314,315,1
302,309,318,321,1
304,311,320,327,1
304,313,321,331,1
303,314,320,331,1
300,314,317,329,1
296,313,313,324,1
290,312,308,317,1
284,311,305,310,1
279,310,301,304,1
281,309,298,300,1
288,308,295,298,1
298,308,294,298,1
308,307,295,298,1
316,305,296,298,1
321,303,299,298,1
322,300,303,298,1
320,299,308,300,1
316,298,313,302,1
310,298,317,305,1
301,299,320,307,1
291,302,320,307,1
286,305,319,307,1
287,308,315,306,1
292,310,311,303,1
301,310,308,301,1
308,310,308,299,1
314,310,307,298,1
317,309,305,296,1
318,307,302,293,1
318,305,300,293,1
316,303,297,294,1
312,299,297,299,1
311,297,297,304,1
311,294,298,310,1
311,294,300,316,1
311,295,303,323,1
310,298,305,330,1
310,303,308,339,1
312,308,311,345,1
316,312,314,347,1
320,315,315,342,1
321,316,314,332,1
319,316,312,321,1
314,315,309,310,1
308,315,307,300,1
302,315,305,292,1
297,315,304,288,1
296,315,302,287,1
294,316,299,288,1
291,315,296,290,1
288,314,292,292,1
290,312,290,294,1
296,311,290,297,1
302,309,289,300,1
306,307,289,303,1
308,306,292,309,1
309,305,297,314,1
306,305,300,315,1
301,305,304,314,1
296,307,308,310,1
293,308,311,306,1
292,310,314,302,1
295,311,315,298,1
299,311,316,296,1
304,311,317,296,1
310,311,316,296,1
316,310,315,295,1
317,309,312,293,1
315,308,308,290,1
314,307,306,288,1
313,305,304,287,1
308,304,301,288,1
299,302,297,292,1
290,300,293,297,1
283,299,290,305,1
279,299,290,314,1
280,300,292,320,1
287,301,297,324,1
298,303,303,324,1
306,304,308,323,1
310,306,310,321,1
311,306,309,319,1
310,308,308,315,1
309,309,308,310,1
307,310,308,305,1
306,310,308,301,1
305,309,308,299,1
305,309,309,299,1
305,308,310,300,1
305,308,310,301,1
304,308,306,301,1
304,306,299,301,1
305,305,291,300,1
307,304,286,300,1
306,303,283,302,1
306,304,284,304,1
307,305,287,308,1
312,307,292,310,1
316,310,299,311,1
318,312,307,310,1
317,312,313,306,1
313,312,316,303,1
308,311,317,300,1
300,311,317,298,1
290,310,314,297,1
285,309,311,299,1
286,309,308,302,1
293,310,307,307,1
298,311,308,311,1
301,311,308,313,1
302,311,306,314,1
302,310,303,315,1
302,309,301,316,1
304,308,299,317,1
306,308,298,318,1
308,308,298,319,1
309,308,300,319,1
309,308,302,319,1
309,308,303,317,1
308,307,303,313,1
307,307,301,308,1
307,307,300,302,1
306,307,301,297,1
306,308,304,292,1
307,307,306,288,1
308,306,308,287,1
311,304,310,288,1
315,302,310,292,1
317,301,310,298,1
318,300,308,301,1
314,298,304,301,1
306,295,300,299,1
299,292,296,295,1
298,290,292,292,1
304,289,291,293,1
311,289,292,295,1
315,291,295,298,1
318,295,299,301,1
319,299,302,304,1
318,303,306,305,1
316,306,308,306,1
312,308,311,307,1
306,310,312,308,1
299,310,312,309,1
292,311,311,311,1
286,312,311,313,1
282,312,312,314,1
281,312,313,315,1
282,312,314,314,1
286,310,314,312,1
287,307,313,309,1
286,304,309,304,1
284,301,304,300,1
282,299,300,298,1
280,297,298,296,1
276,297,295,295,1
278,298,293,295,1
291,299,290,296,1
309,302,289,298,1
325,304,289,300,1
337,307,289,301,1
346,308,289,300,1
347,309,294,298,1
342,310,304,298,1
333,309,313,298,1
324,309,320,299,1
318,310,323,300,1
313,311,324,300,1
310,312,324,300,1
307,312,321,300,1
304,311,319,304,1
303,309,316,309,1
302,308,314,314,1
304,306,312,319,1
306,305,312,325,1
308,305,312,331,1
311,305,312,337,1
314,306,313,343,1
319,308,314,347,1
323,311,316,349,1
327,313,315,347,1
328,314,312,342,1
322,313,310,334,1
309,312,309,325,1
293,309,308,316,1
273,305,306,305,1
257,302,305,296,1
252,299,305,289,1
259,298,307,285,1
273,299,308,283,1
291,301,308,283,1
308,302,309,284,1
319,302,308,285,1
322,301,307,286,1
320,299,305,287,1
316,298,305,290,1
311,299,306,294,1
304,300,307,299,1
298,302,308,305,1
298,305,308,311,1
300,307,310,315,1
300,309,311,317,1
299,310,312,319,1
300,311,311,318,1
304,311,310,314,1
312,311,308,308,1
322,311,309,303,1
331,310,311,301,1
336,310,312,300,1
338,310,311,301,1
334,310,306,302,1
328,308,302,303,1
324,306,299,306,1
319,303,297,308,1
315,301,297,311,1
313,300,296,314,1
311,299,294,316,1
311,299,293,318,1
312,301,293,318,1
312,303,295,317,1
310,305,299,314,1
306,307,303,310,1
304,308,309,306,1
303,309,314,305,1
304,309,317,306,1
306,308,315,310,1
307,308,312,312,1
307,308,309,314,1
307,308,306,316,1
304,309,304,315,1
301,309,306,313,1
296,308,310,310,1
289,306,312,308,1
280,303,312,307,1
270,301,309,309,1
265,300,308,312,1
269,300,309,316,1
280,301,312,319,1
297,302,314,320,1
312,302,318,321,1
323,304,319,322,1
325,305,319,323,1
316,306,319,324,1
304,305,318,324,1
298,304,317,321,1
299,303,316,318,1
304,303,314,314,1
308,303,311,310,1
311,303,310,306,1
315,304,310,303,1
318,304,311,300,1
320,304,311,300,1
321,303,311,301,1
321,303,310,303,1
323,303,308,307,1
325,304,307,313,1
326,306,308,320,1
327,307,310,326,1
325,308,310,327,1
322,308,310,326,1
320,308,310,325,1
320,307,311,323,1
319,306,312,321,1
317,306,311,319,1
314,305,311,314,1
313,304,310,307,1
312,303,310,302,1
311,303,311,297,1
309,302,310,294,1
307,301,308,292,1
307,300,305,292,1
306,299,304,293,1
305,298,303,293,1
304,297,301,292,1
304,297,299,292,1
304,297,294,293,1
305,298,293,294,1
306,300,295,296,1
307,302,299,299,1
307,305,300,303,1
304,308,298,308,1
299,311,294,311,1
297,312,290,315,1
297,314,289,319,1
300,316,293,324,1
303,316,303,327,1
303,316,314,328,1
300,314,324,325,1
293,312,329,320,1
282,310,330,313,1
273,308,327,307,1
270,305,323,303,1
276,304,320,300,1
288,302,317,300,1
300,301,315,301,1
307,299,314,304,1
309,299,312,307,1
310,299,311,312,1
311,300,312,317,1
313,301,314,321,1
318,303,314,323,1
326,304,311,323,1
333,306,307,321,1
337,308,305,319,1
338,310,305,317,1
337,311,306,315,1
334,311,307,312,1
329,310,307,306,1
324,308,306,301,1
317,305,304,298,1
310,304,302,295,1
304,301,299,294,1
299,300,297,296,1
297,298,297,301,1
299,298,298,311,1
302,299,301,322,1
304,301,305,333,1
305,302,309,342,1
306,303,312,348,1
309,305,314,351,1
310,306,314,349,1
312,307,310,342,1
314,307,306,331,1
317,306,303,317,1
319,304,301,302,1
319,303,299,288,1
315,302,299,275,1
309,301,300,266,1
302,300,300,262,1
297,299,301,261,1
295,298,301,261,1
297,298,301,264,1
301,298,301,268,1
306,298,300,274,1
310,298,300,281,1
312,298,300,288,1
313,299,298,294,1
313,301,296,297,1
314,303,296,299,1
315,304,297,300,1
315,305,297,301,1
316,307,296,303,1
315,308,294,306,1
313,309,293,310,1
310,310,294,314,1
307,310,297,315,1
305,310,301,313,1
305,309,305,312,1
307,308,309,310,1
307,307,312,309,1
302,306,313,308,1
292,304,310,308,1
279,303,304,312,1
274,301,297,318,1
279,300,291,322,1
292,298,288,326,1
306,297,288,327,1
319,298,294,328,1
327,301,302,327,1
330,303,311,324,1
330,306,318,320,1
329,308,323,316,1
326,309,326,312,1
322,310,327,309,1
318,309,326,307,1
314,308,324,306,1
313,307,322,306,1
313,306,320,308,1
312,306,316,311,1
311,306,311,313,1
310,305,304,312,1
309,304,299,311,1
310,303,297,312,1
309,303,297,313,1
309,302,297,314,1
308,301,299,315,1
309,301,302,316,1
312,302,308,316,1
315,304,313,317,1
316,306,318,319,1
314,309,320,323,1
309,310,319,328,1
305,312,317,332,1
305,313,314,336,1
307,313,313,337,1
309,314,312,336,1
311,314,312,333,1
313,313,311,326,1
312,312,310,317,1
309,311,310,309,1
304,310,311,302,1
299,309,310,297,1
295,306,307,293,1
293,303,304,290,1
293,301,303,287,1
297,299,303,285,1
302,298,304,283,1
307,298,304,282,1
312,299,304,282,1
315,301,305,282,1
315,303,306,283,1
313,306,306,285,1
309,308,305,288,1
304,310,301,290,1
298,311,297,293,1
297,312,295,296,1
299,312,296,300,1
301,312,299,304,1
302,312,302,307,1
303,310,302,308,1
305,308,300,308,1
305,305,297,309,1
302,303,295,311,1
297,301,293,314,1
293,299,293,318,1
290,298,295,319,1
289,296,299,318,1
292,295,304,315,1
297,295,309,312,1
301,297,314,308,1
305,299,318,306,1
312,300,320,303,1
320,302,320,301,1
324,303,317,299,1
325,303,310,300,1
326,303,299,301,1
326,303,288,304,1
323,303,280,308,1
317,303,274,311,1
309,302,275,314,1
305,303,281,317,1
306,303,290,320,1
311,303,300,323,1
318,303,308,324,1
324,301,315,327,1
329,300,322,330,1
331,299,327,334,1
328,299,330,339,1
322,301,331,343,1
314,303,331,343,1
308,304,329,338,1
306,305,327,330,1
306,305,325,320,1
306,306,322,311,1
305,307,321,304,1
303,307,319,300,1
300,306,318,297,1
300,306,316,296,1
301,305,314,296,1
302,304,312,298,1
303,303,309,300,1
304,302,306,301,1
305,300,304,300,1
304,299,303,297,1
303,297,304,292,1
302,296,304,289,1
301,296,304,288,1
301,297,303,289,1
303,300,303,292,1
305,304,304,294,1
308,308,305,296,1
310,310,304,297,1
312,311,303,298,1
312,312,302,299,1
308,313,303,301,1
302,314,306,303,1
296,314,308,306,1
292,313,310,308,1
292,312,311,311,1
294,311,312,313,1
295,310,312,314,1
298,308,311,314,1
303,306,309,312,1
306,303,306,310,1
304,300,302,307,1
300,298,298,303,1
295,297,296,301,1
294,297,299,300,1
300,299,304,301,1
308,301,307,302,1
313,305,308,305,1
314,308,309,308,1
317,311,310,310,1
321,313,311,309,1
323,314,311,308,1
321,313,311,306,1
319,312,310,305,1
315,311,309,305,1
311,310,306,305,1
306,309,301,306,1
302,308,296,306,1
297,306,292,306,1
293,305,289,306,1
289,303,289,305,1
288,301,292,303,1
288,299,296,301,1
293,298,299,298,1
300,298,302,296,1
308,299,308,293,1
316,300,314,290,1
322,301,317,289,1
324,302,318,290,1
324,303,314,292,1
321,304,309,296,1
317,306,305,300,1
315,308,303,303,1
314,310,302,305,1
314,311,301,306,1
314,311,300,307,1
315,311,295,309,1
315,310,290,309,1
313,308,288,311,1
309,306,290,315,1
306,304,296,320,1
306,303,304,325,1
308,303,313,329,1
310,304,319,333,1
313,305,323,334,1
313,307,324,333,1
312,309,323,329,1
307,310,322,322,1
301,312,321,313,1
294,312,321,305,1
290,313,320,300,1
289,313,320,298,1
291,312,317,300,1
293,311,311,302,1
295,310,303,304,1
297,308,297,304,1
301,308,296,303,1
307,307,298,299,1
313,306,301,293,1
314,304,304,287,1
310,301,307,281,1
307,299,309,279,1
303,299,311,278,1
298,299,312,280,1
290,300,311,283,1
285,302,310,288,1
284,305,310,293,1
285,308,312,298,1
286,312,313,303,1
290,316,314,308,1
297,319,315,312,1
306,321,316,315,1
313,322,316,319,1
316,322,317,324,1
318,321,318,328,1
318,320,318,332,1
319,318,317,334,1
319,316,315,334,1
320,313,313,334,1
321,310,311,333,1
322,307,308,332,1
321,305,306,329,1
320,305,305,323,1
317,304,305,318,1
313,305,307,313,1
308,306,311,311,1
301,308,314,310,1
294,311,316,310,1
294,312,316,310,1
297,313,316,309,1
299,313,314,307,1
300,312,312,304,1
301,312,309,303,1
301,312,306,302,1
302,312,304,303,1
304,312,302,303,1
306,312,299,302,1
306,312,297,300,1
305,311,296,299,1
306,310,296,300,1
307,308,298,302,1
310,307,302,302,1
314,307,307,302,1
317,306,310,304,1
317,306,313,306,1
318,306,315,309,1
320,308,317,312,1
323,311,314,314,1
325,314,307,315,1
325,316,298,316,1
321,317,290,316,1
314,317,286,318,1
308,316,288,321,1
305,315,295,325,1
306,313,305,327,1
310,312,315,326,1
316,311,323,321,1
321,309,326,312,1
322,306,327,301,1
319,304,325,293,1
310,302,322,288,1
305,300,319,285,1
302,298,316,285,1
301,298,314,287,1
300,298,314,289,1
298,299,314,291,1
296,302,314,293,1
296,304,314,296,1
296,305,314,298,1
297,306,315,301,1
295,307,316,303,1
288,307,315,304,1
280,307,313,307,1
271,308,311,311,1
265,309,307,317,1
267,310,304,321,1
278,309,302,323,1
294,308,301,323,1
309,306,300,321,1
322,304,301,318,1
328,303,303,315,1
329,301,306,312,1
327,299,309,309,1
324,300,312,307,1
321,302,314,305,1
321,306,315,304,1
321,309,316,302,1
321,313,316,300,1
320,315,315,299,1
318,316,315,298,1
316,317,314,297,1
314,317,315,298,1
311,316,315,298,1
307,315,314,298,1
302,313,313,298,1
295,311,312,301,1
289,309,312,305,1
286,307,311,309,1
287,305,311,313,1
292,303,310,318,1
296,301,311,322,1
298,298,311,325,1
297,297,312,325,1
297,297,313,323,1
298,297,313,319,1
302,297,314,314,1
306,298,314,306,1
309,300,313,299,1
312,302,310,295,1
315,305,304,296,1
317,309,296,301,1
316,312,286,307,1
313,314,277,313,1
309,315,271,316,1
305,314,269,318,1
302,314,273,321,1
301,312,281,323,1
300,310,290,323,1
301,308,298,319,1
302,305,306,311,1
304,302,313,301,1
307,300,320,292,1
311,299,325,287,1
316,298,329,283,1
319,298,331,281,1
317,298,330,281,1
314,299,329,282,1
314,299,328,285,1
314,300,327,287,1
309,301,326,291,1
300,303,324,294,1
289,303,322,297,1
279,303,320,299,1
271,304,318,300,1
269,304,317,301,1
271,304,316,302,1
276,305,313,306,1
281,304,310,311,1
288,303,306,316,1
293,301,304,322,1
299,299,304,329,1
304,299,308,334,1
308,299,312,338,1
311,300,316,338,1
311,302,319,336,1
310,305,320,333,1
309,307,320,329,1
308,310,319,326,1
308,311,316,322,1
308,311,313,319,1
306,309,311,316,1
306,307,309,312,1
305,306,310,309,1
304,305,310,305,1
300,303,310,303,1
295,302,310,301,1
287,301,310,300,1
282,300,308,298,1
286,299,307,296,1
295,298,305,293,1
307,296,303,291,1
318,295,301,291,1
325,294,300,292,1
326,294,300,295,1
323,294,302,298,1
318,296,306,300,1
314,299,309,303,1
309,303,311,305,1
306,306,311,310,1
305,310,311,318,1
305,313,311,328,1
304,315,311,336,1
303,316,310,338,1
301,316,307,336,1
300,316,306,333,1
299,316,306,328,1
300,315,306,322,1
302,315,305,315,1
302,314,303,308,1
302,311,302,303,1
304,308,302,301,1
305,306,304,301,1
308,304,306,303,1
311,303,308,305,1
314,303,307,307,1
314,303,303,310,1
313,304,295,311,1
308,305,290,309,1
303,306,286,308,1
299,307,285,308,1
299,309,286,309,1
300,311,287,311,1
296,313,289,312,1
294,315,290,311,1
296,316,290,309,1
302,316,293,308,1
307,315,296,306,1
308,314,301,305,1
307,312,306,303,1
307,309,312,302,1
309,306,316,302,1
315,302,321,303,1
322,300,324,305,1
326,297,326,305,1
325,296,327,305,1
322,297,327,305,1
314,298,326,305,1
304,300,324,302,1
293,303,323,300,1
287,306,323,299,1
286,309,321,298,1
286,311,319,296,1
288,313,316,294,1
289,313,315,292,1
292,313,314,291,1
297,313,313,291,1
305,311,312,291,1
310,309,310,292,1
314,307,309,295,1
316,305,307,298,1
317,305,306,301,1
319,304,307,305,1
320,305,308,309,1
322,305,310,313,1
323,306,312,317,1
325,307,314,321,1
325,309,316,323,1
324,311,316,323,1
322,312,315,322,1
318,313,313,320,1
313,314,311,316,1
305,316,309,312,1
294,317,306,309,1
287,318,304,306,1
287,318,304,305,1
293,318,304,304,1
299,317,304,303,1
301,315,302,300,1
301,311,300,298,1
302,307,299,296,1
304,305,299,295,1
307,303,301,295,1
309,302,302,296,1
310,300,303,297,1
312,300,305,298,1
313,301,309,299,1
312,303,312,300,1
311,306,313,303,1
309,310,314,305,1
306,313,314,308,1
305,315,313,312,1
305,316,312,317,1
305,316,310,325,1
305,317,310,333,1
305,316,310,339,1
304,317,310,342,1
305,316,311,339,1
308,316,311,333,1
310,314,310,324,1
312,312,308,316,1
315,309,306,311,1
316,306,303,307,1
316,304,299,306,1
316,302,297,306,1
316,301,294,307,1
320,303,292,309,1
325,305,290,308,1
325,306,286,304,1
322,307,281,300,1
321,308,279,297,1
323,309,281,297,1
324,309,286,296,1
323,309,294,294,1
318,307,303,292,1
309,306,312,291,1
298,305,320,291,1
289,304,325,291,1
284,304,328,289,1
284,303,327,289,1
290,303,324,291,1
302,304,320,295,1
311,304,314,299,1
315,305,310,301,1
316,306,310,304,1
318,308,314,307,1
319,311,319,312,1
321,313,322,316,1
321,315,324,319,1
318,316,324,319,1
315,317,323,317,1
309,316,321,313,1
303,315,319,308,1
301,314,317,304,1
301,313,315,301,1
301,313,313,300,1
301,312,311,301,1
301,311,310,302,1
300,311,308,304,1
300,309,307,306,1
301,307,306,309,1
302,306,306,311,1
305,304,307,313,1
307,304,308,315,1
311,304,308,318,1
313,304,309,322,1
316,306,310,325,1
318,308,311,326,1
319,309,312,324,1
318,309,313,321,1
314,309,312,318,1
311,308,308,315,1
307,307,301,312,1
301,306,293,307,1
299,305,289,302,1
304,304,290,299,1
313,303,295,297,1
317,301,299,299,1
313,300,301,302,1
307,298,302,306,1
303,297,300,310,1
300,298,299,317,1
298,299,297,322,1
301,301,296,324,1
309,304,297,323,1
318,308,301,320,1
322,311,308,313,1
322,312,314,307,1
318,313,319,301,1
313,313,321,299,1
308,313,320,298,1
303,312,319,299,1
300,312,318,302,1
297,312,319,306,1
293,310,319,309,1
292,308,319,310,1
294,305,318,310,1
299,302,316,309,1
305,301,314,307,1
313,300,313,305,1
319,300,310,304,1
322,300,307,303,1
322,301,303,306,1
322,302,300,310,1
323,304,296,316,1
326,306,292,322,1
330,309,289,329,1
336,311,289,334,1
341,313,291,336,1
343,314,296,334,1
343,315,304,329,1
342,316,312,325,1
337,316,319,321,1
328,315,324,318,1
317,315,326,315,1
307,315,326,312,1
299,314,326,307,1
294,312,324,303,1
291,309,321,301,1
288,307,317,299,1
284,305,313,298,1
281,303,310,296,1
282,301,308,294,1
285,299,308,293,1
290,298,309,292,1
296,298,309,291,1
300,299,310,292,1
303,300,312,294,1
304,303,313,296,1
304,305,311,298,1
302,306,309,299,1
301,307,306,299,1
300,307,304,298,1
301,307,304,297,1
303,306,304,297,1
305,306,304,298,1
304,306,304,300,1
301,305,303,302,1
296,304,304,306,1
292,303,305,310,1
289,302,306,315,1
287,302,307,321,1
286,302,305,328,1
290,302,304,335,1
304,304,301,342,1
322,306,301,349,1
335,310,305,357,1
341,313,311,363,1
339,314,315,362,1
335,315,318,357,1
332,316,318,350,1
331,316,317,341,1
331,316,316,329,1
328,314,313,314,1
322,312,308,299,1
316,310,305,287,1
312,309,303,280,1
310,307,304,277,1
307,304,304,277,1
303,302,302,278,1
299,299,299,279,1
297,297,295,282,1
300,296,292,285,1
308,295,290,288,1
316,295,292,291,1
321,296,296,294,1
322,297,302,297,1
320,300,307,299,1
318,302,310,298,1
318,304,313,296,1
317,305,313,295,1
314,305,313,295,1
309,305,312,296,1
304,306,311,298,1
298,307,311,303,1
296,309,310,308,1
295,311,309,312,1
295,312,308,315,1
297,313,306,316,1
300,313,304,316,1
303,312,300,316,1
304,310,297,316,1
302,308,293,315,1
299,305,290,315,1
301,303,288,315,1
308,302,289,315,1
317,302,290,314,1
323,303,293,312,1
326,306,295,308,1
327,308,300,305,1
326,310,305,303,1
324,312,309,302,1
322,312,311,300,1
318,312,312,298,1
311,312,312,294,1
303,310,311,290,1
293,308,309,288,1
283,305,307,288,1
276,301,305,291,1
273,298,300,295,1
274,295,297,299,1
279,294,295,303,1
287,295,296,306,1
294,297,300,309,1
304,300,302,310,1
314,303,301,309,1
322,305,299,307,1
326,308,299,304,1
327,310,300,302,1
326,312,302,302,1
324,313,305,305,1
322,314,308,310,1
319,314,311,316,1
315,314,313,323,1
309,313,315,328,1
304,313,317,331,1
302,313,317,332,1
300,312,317,329,1
299,311,316,324,1
298,310,314,318,1
301,308,311,312,1
307,306,309,306,1
313,304,307,303,1
315,303,306,303,1
311,303,305,304,1
306,304,304,304,1
302,305,303,302,1
300,306,303,297,1
300,308,304,293,1
301,310,303,291,1
302,311,300,294,1
304,312,297,299,1
305,313,297,306,1
307,312,299,312,1
309,312,302,316,1
312,311,303,317,1
316,311,301,316,1
319,310,299,313,1
319,309,296,307,1
314,308,293,302,1
307,306,291,295,1
298,303,291,289,1
292,302,294,286,1
288,301,295,284,1
287,300,296,285,1
291,301,299,288,1
300,303,305,294,1
308,306,311,302,1
315,310,315,308,1
319,312,318,312,1
321,314,319,316,1
322,315,320,317,1
320,315,320,316,1
319,314,320,314,1
318,313,318,310,1
319,311,316,306,1
321,309,313,303,1
323,308,308,301,1
323,306,298,299,1
323,303,287,295,1
322,300,278,291,1
323,298,274,290,1
325,297,275,291,1
328,296,284,294,1
332,296,296,300,1
333,296,306,305,1
330,296,313,309,1
324,298,318,311,1
319,300,319,311,1
312,303,319,310,1
304,304,317,310,1
298,305,315,311,1
297,306,313,311,1
296,307,313,312,1
294,307,312,311,1
292,307,310,309,1
291,306,308,306,1
291,304,305,303,1
291,303,302,301,1
293,301,301,299,1
295,299,302,299,1
299,297,305,299,1
304,297,309,301,1
309,296,311,302,1
312,296,312,303,1
315,296,313,303,1
316,297,313,305,1
316,300,314,306,1
313,303,315,308,1
310,306,316,309,1
303,308,316,309,1
292,310,317,309,1
282,311,317,310,1
276,312,316,309,1
278,312,315,306,1
286,312,313,303,1
294,311,311,300,1
300,308,309,298,1
306,306,308,298,1
314,304,308,297,1
319,301,308,295,1
320,298,306,293,1
317,295,304,294,1
312,294,301,299,1
308,293,298,308,1
307,294,297,318,1
308,296,296,323,1
311,300,297,324,1
314,303,298,321,1
316,306,299,314,1
314,308,299,307,1
309,309,297,300,1
304,311,294,294,1
304,312,293,292,1
304,313,293,291,1
305,314,296,292,1
309,314,300,295,1
312,314,306,299,1
314,313,312,303,1
314,311,316,306,1
312,308,319,307,1
311,304,320,308,1
310,302,320,309,1
309,300,320,310,1
307,299,319,309,1
305,299,318,310,1
306,300,317,311,1
307,303,317,312,1
308,305,316,313,1
309,308,315,314,1
310,311,315,315,1
311,312,315,315,1
311,313,315,315,1
308,313,315,315,1
303,312,314,313,1
297,312,313,312,1
293,310,308,310,1
292,309,302,308,1
294,308,296,306,1
297,306,291,305,1
301,305,289,305,1
305,304,291,306,1
309,303,296,309,1
310,304,303,313,1
308,304,309,318,1
306,306,312,322,1
304,307,311,323,1
300,308,307,323,1
296,308,301,321,1
294,309,296,319,1
300,309,294,317,1
308,309,297,314,1
314,310,303,312,1
316,310,310,312,1
315,311,316,314,1
312,311,321,316,1
308,311,322,318,1
304,311,320,318,1
302,309,315,314,1
300,305,311,308,1
297,302,311,302,1
293,299,311,296,1
288,297,312,291,1
283,296,312,287,1
280,296,311,284,1
279,296,309,283,1
281,296,308,283,1
286,298,308,284,1
291,300,310,284,1
296,303,312,285,1
302,305,314,287,1
308,307,315,289,1
311,309,316,292,1
314,310,317,296,1
314,312,317,298,1
312,313,316,299,1
310,313,314,299,1
309,314,312,298,1
308,313,309,296,1
308,312,305,293,1
310,309,301,291,1
312,307,297,290,1
314,305,294,292,1
316,304,295,295,1
317,304,298,299,1
318,304,304,304,1
318,305,311,310,1
317,306,316,316,1
319,307,319,322,1
320,308,320,325,1
320,309,319,326,1
318,311,319,328,1
314,312,319,334,1
308,315,319,338,1
303,316,318,340,1
298,317,317,338,1
295,317,316,334,1
294,316,314,328,1
294,315,312,321,1
295,314,309,314,1
297,312,306,307,1
300,309,304,301,1
302,306,303,297,1
306,304,303,295,1
308,303,303,295,1
308,303,304,296,1
308,303,306,298,1
307,304,307,300,1
304,306,308,301,1
299,308,307,302,1
295,309,306,304,1
293,311,307,306,1
293,313,309,310,1
296,314,309,313,1
299,315,307,316,1
304,315,304,316,1
307,314,301,314,1
308,311,299,310,1
306,307,297,306,1
303,303,297,303,1
300,299,298,301,1
297,296,300,300,1
293,293,304,300,1
288,292,308,301,1
288,292,308,301,1
292,292,305,303,1
299,294,301,306,1
305,297,300,311,1
309,301,300,317,1
309,303,304,320,1
308,305,309,322,1
306,307,314,323,1
304,307,318,321,1
302,306,321,318,1
301,306,324,314,1
300,307,325,308,1
298,306,324,301,1
299,305,321,295,1
302,304,318,291,1
307,302,315,288,1
309,300,314,288,1
308,298,313,289,1
304,297,313,292,1
299,296,313,294,1
297,295,312,297,1
295,294,311,299,1
297,296,312,302,1
302,298,314,305,1
308,300,316,308,1
311,302,317,309,1
311,304,317,310,1
312,306,315,310,1
312,307,313,311,1
314,308,311,313,1
315,308,310,316,1
317,307,309,320,1
319,306,305,324,1
319,306,300,329,1
314,305,295,332,1
305,305,290,332,1
297,304,287,327,1
292,303,287,320,1
290,303,288,313,1
290,303,291,307,1
295,303,296,303,1
303,304,302,299,1
311,305,309,297,1
314,306,314,296,1
315,307,317,295,1
313,309,318,296,1
311,310,317,298,1
307,311,317,299,1
304,312,316,300,1
301,312,315,303,1
300,311,315,307,1
300,311,314,310,1
299,310,314,312,1
300,309,312,313,1
299,307,310,313,1
299,304,308,312,1
299,301,306,310,1
299,299,304,309,1
299,297,304,308,1
301,296,304,308,1
302,296,304,308,1
303,297,302,307,1
301,299,299,304,1
299,300,297,303,1
299,301,295,305,1
304,303,292,310,1
308,304,290,315,1
310,305,289,317,1
310,306,289,316,1
311,307,289,314,1
313,308,289,310,1
314,308,289,305,1
314,307,290,299,1
310,305,295,294,1
305,302,301,292,1
299,299,306,292,1
296,297,311,294,1
295,296,315,298,1
299,294,318,304,1
304,294,320,310,1
309,295,321,316,1
310,297,322,321,1
308,299,322,323,1
306,301,322,321,1
307,303,320,318,1
310,304,319,315,1
312,306,317,315,1
313,306,317,315,1
312,306,316,314,1
310,306,315,312,1
307,305,314,308,1
305,305,312,304,1
304,304,311,299,1
304,304,310,295,1
306,303,308,292,1
308,303,306,288,1
308,301,305,286,1
306,299,304,286,1
304,297,304,287,1
304,296,305,291,1
308,294,307,297,1
315,294,307,304,1
324,294,304,312,1
332,295,296,319,1
333,296,287,324,1
330,297,281,325,1
323,299,282,324,1
313,301,287,322,1
300,302,295,318,1
289,304,303,314,1
284,305,310,311,1
286,306,314,306,1
290,305,317,301,1
293,305,320,295,1
296,303,322,293,1
297,303,322,294,1
298,303,322,298,1
300,303,321,305,1
302,304,320,311,1
304,306,320,316,1
305,308,319,318,1
305,308,318,319,1
305,308,318,318,1
303,309,317,315,1
302,310,316,312,1
301,311,315,308,1
300,311,315,305,1
300,311,314,302,1
300,309,312,299,1
300,308,311,298,1
301,307,309,297,1
301,307,309,297,1
302,306,308,298,1
303,306,308,298,1
304,305,308,297,1
303,303,307,296,1
301,302,305,297,1
298,299,303,299,1
296,297,300,303,1
293,295,297,307,1
289,294,292,310,1
292,293,288,312,1
303,294,289,313,1
317,296,295,314,1
327,300,301,314,1
330,303,307,312,1
325,307,310,307,1
316,309,312,300,1
306,310,314,295,1
300,310,315,292,1
298,311,316,290,1
300,310,315,291,1
302,309,314,292,1
304,309,313,295,1
307,309,311,298,1
310,309,310,301,1
312,309,309,303,1
313,308,307,305,1
314,307,305,307,1
315,306,303,312,1
315,306,300,320,1
315,306,300,327,1
314,306,302,334,1
313,308,303,336,1
313,309,300,335,1
312,310,296,328,1
312,312,292,322,1
311,313,291,318,1
311,314,294,314,1
313,315,302,314,1
316,315,309,314,1
318,314,314,316,1
319,314,318,318,1
320,314,319,322,1
320,314,320,326,1
319,313,319,329,1
314,313,316,329,1
307,312,311,325,1
301,310,304,318,1
295,306,295,310,1
290,303,287,303,1
291,302,282,301,1
296,303,282,302,1
302,304,285,303,1
308,307,292,304,1
314,309,301,303,1
320,311,311,301,1
323,313,318,299,1
321,313,322,299,1
316,314,322,299,1
308,313,320,297,1
301,313,318,295,1
297,312,316,293,1
295,311,316,291,1
296,309,314,290,1
299,308,312,289,1
302,306,309,288,1
305,304,308,288,1
307,301,308,289,1
306,299,309,290,1
304,297,309,291,1
299,296,310,292,1
295,297,309,294,1
293,299,308,295,1
293,302,308,295,1
292,305,308,295,1
292,308,309,295,1
293,311,309,296,1
298,313,307,300,1
308,315,306,307,1
317,317,305,314,1
321,318,307,321,1
321,320,308,326,1
320,321,309,328,1
315,321,308,326,1
309,321,306,321,1
303,319,303,316,1
299,317,301,311,1
299,315,302,308,1
303,312,303,305,1
309,309,306,305,1
314,307,309,306,1
317,306,313,308,1
318,307,316,309,1
316,309,317,309,1
315,311,317,308,1
314,312,316,306,1
312,313,314,302,1
309,312,312,298,1
306,310,310,295,1
303,309,309,293,1
301,307,308,292,1
300,307,307,294,1
300,307,307,297,1
300,308,306,299,1
300,308,305,299,1
301,307,303,296,1
304,306,302,295,1
308,304,301,295,1
311,302,301,298,1
315,302,302,302,1
317,302,304,310,1
317,303,307,320,1
315,305,311,332,1
314,306,314,342,1
314,307,316,347,1
315,308,315,348,1
315,309,314,345,1
313,309,314,339,1
309,309,314,332,1
303,308,313,324,1
296,308,311,316,1
290,307,305,309,1
287,307,298,303,1
287,307,291,299,1
287,305,284,297,1
288,303,279,298,1
291,302,277,301,1
295,301,280,304,1
296,299,286,304,1
292,299,292,301,1
287,298,298,297,1
285,299,305,292,1
286,301,312,290,1
289,302,314,288,1
293,303,315,288,1
299,304,315,289,1
302,306,317,291,1
301,307,317,293,1
301,308,318,296,1
302,309,318,298,1
304,309,318,300,1
304,309,317,301,1
306,310,316,299,1
308,311,314,298,1
310,311,312,296,1
312,310,309,296,1
312,308,307,296,1
312,305,307,296,1
311,303,307,296,1
310,300,308,296,1
309,298,309,297,1
308,298,310,301,1
307,299,312,307,1
304,302,313,314,1
299,306,313,320,1
297,309,313,326,1
299,311,313,328,1
303,311,313,327,1
305,311,314,324,1
306,310,313,320,1
306,308,314,316,1
304,306,313,312,1
302,304,310,307,1
303,301,305,304,1
307,299,299,302,1
312,297,294,302,1
315,295,293,301,1
317,294,293,302,1
317,294,296,304,1
316,295,300,307,1
314,295,303,310,1
312,297,306,312,1
310,299,309,315,1
311,303,311,317,1
311,307,314,319,1
312,310,316,320,1
310,311,316,319,1
305,312,315,317,1
296,311,312,316,1
289,311,308,317,1
286,310,303,320,1
284,309,300,324,1
281,309,297,326,1
279,309,297,326,1
279,308,297,324,1
280,307,298,319,1
281,305,299,313,1
283,302,302,308,1
290,299,305,306,1
302,298,310,308,1
312,298,315,311,1
317,298,319,312,1
318,299,321,311,1
315,301,320,308,1
311,304,319,305,1
307,305,316,302,1
305,307,310,301,1
304,308,301,302,1
302,309,290,302,1
301,309,281,304,1
300,309,278,307,1
299,310,282,310,1
298,310,292,312,1
299,310,301,311,1
299,309,307,306,1
297,307,310,300,1
296,305,311,297,1
300,303,313,299,1
307,301,315,304,1
312,300,317,309,1
314,299,319,313,1
315,300,320,316,1
315,301,321,318,1
313,303,320,319,1
309,304,320,319,1
303,305,319,318,1
297,305,317,317,1
292,306,315,314,1
290,306,312,310,1
290,306,311,307,1
290,305,309,304,1
289,303,308,303,1
288,302,306,301,1
290,300,306,298,1
292,299,305,295,1
294,298,304,291,1
294,297,303,290,1
292,296,301,290,1
290,295,294,290,1
293,294,286,290,1
299,296,279,292,1
306,299,280,295,1
313,302,286,299,1
317,306,293,302,1
319,309,300,306,1
321,310,305,310,1
323,310,308,314,1
324,309,309,317,1
322,307,310,319,1
317,305,311,318,1
310,303,310,314,1
307,301,308,309,1
308,300,307,304,1
312,300,307,299,1
314,300,308,295,1
312,300,310,293,1
310,300,310,294,1
307,301,308,296,1
305,301,303,299,1
304,303,296,303,1
303,304,289,306,1
302,305,284,306,1
299,305,281,306,1
294,306,286,304,1
290,307,294,304,1
290,308,304,306,1
292,310,313,309,1
294,311,320,312,1
297,312,324,316,1
298,313,325,318,1
299,314,324,320,1
301,313,323,319,1
303,313,322,317,1
304,312,320,315,1
302,310,319,313,1
301,308,318,313,1
301,307,318,313,1
301,305,315,313,1
300,303,313,314,1
298,302,311,316,1
300,303,311,318,1
306,303,311,319,1
309,304,310,319,1
308,304,308,315,1
307,305,307,311,1
308,305,308,307,1
310,305,309,304,1
311,306,309,302,1
313,307,310,301,1
312,308,309,299,1
309,309,306,295,1
304,309,303,292,1
300,310,301,293,1
298,310,301,294,1
300,310,301,298,1
306,310,300,302,1
312,308,299,307,1
317,307,299,311,1
320,305,299,316,1
320,304,301,320,1
319,305,303,325,1
318,306,306,327,1
316,309,309,327,1
314,311,311,326,1
313,314,312,325,1
313,316,312,325,1
311,318,311,326,1
309,318,309,328,1
305,317,308,334,1
302,316,308,341,1
299,315,308,348,1
295,314,307,351,1
295,313,307,347,1
297,311,305,335,1
299,307,303,320,1
299,304,300,303,1
301,301,297,288,1
306,300,295,278,1
313,299,293,271,1
318,298,294,267,1
320,298,295,266,1
320,299,297,268,1
318,299,300,272,1
316,301,300,279,1
315,302,296,286,1
314,304,291,293,1
313,305,287,300,1
308,307,286,306,1
303,309,290,311,1
301,312,298,315,1
303,314,308,317,1
307,315,317,318,1
311,315,323,318,1
312,315,327,316,1
311,313,327,311,1
309,312,325,306,1
306,309,321,303,1
305,307,316,301,1
305,305,310,300,1
307,303,306,299,1
308,303,306,298,1
307,303,308,297,1
303,304,311,296,1
299,305,313,295,1
297,306,313,293,1
296,307,310,291,1
296,307,307,289,1
300,307,306,288,1
306,307,306,288,1
308,306,307,288,1
306,305,307,288,1
301,305,306,289,1
297,304,305,289,1
294,304,301,289,1
295,304,296,290,1
299,304,293,291,1
304,304,292,293,1
308,304,293,297,1
310,304,293,303,1
311,304,292,308,1
311,305,292,315,1
312,307,295,321,1
313,309,300,326,1
315,311,307,329,1
318,312,311,327,1
317,313,315,324,1
313,313,316,320,1
307,312,317,318,1
301,311,315,316,1
298,310,312,317,1
299,309,308,320,1
303,310,304,325,1
309,311,301,329,1
314,312,298,331,1
318,313,296,333,1
321,311,296,333,1
322,308,299,333,1
322,305,303,331,1
322,301,307,329,1
322,299,310,325,1
322,299,312,320,1
322,300,312,314,1
320,302,313,308,1
315,304,314,301,1
310,305,314,294,1
303,307,311,287,1
297,307,305,282,1
296,308,299,279,1
298,309,295,280,1
303,310,292,285,1
307,311,289,293,1
309,312,288,301,1
310,312,287,307,1
309,312,288,308,1
307,310,289,305,1
302,308,291,300,1
295,305,294,295,1
290,302,298,293,1
288,301,303,294,1
288,300,308,297,1
289,301,313,301,1
295,302,318,306,1
303,305,321,309,1
309,307,324,312,1
312,309,326,313,1
311,311,325,312,1
310,312,324,310,1
311,313,322,305,1
314,312,320,300,1
318,313,318,295,1
321,313,315,292,1
322,313,313,289,1
320,312,312,289,1
316,310,310,290,1
311,307,308,292,1
307,304,306,294,1
304,300,305,296,1
303,297,304,296,1
302,294,304,296,1
303,294,305,296,1
304,294,306,297,1
304,296,308,298,1
303,298,308,299,1
301,301,307,300,1
301,304,306,300,1
303,306,305,302,1
306,308,306,305,1
308,309,307,308,1
310,310,306,309,1
310,311,302,309,1
308,311,297,308,1
303,311,293,305,1
296,311,293,302,1
291,311,295,301,1
287,310,300,301,1
286,308,304,301,1
287,305,306,302,1
292,303,307,303,1
297,301,306,304,1
305,301,305,305,1
312,301,305,306,1
318,302,305,307,1
321,304,306,309,1
321,307,307,313,1
321,309,308,317,1
322,312,308,321,1
321,315,308,325,1
318,317,308,330,1
314,318,310,334,1
310,318,313,338,1
305,318,317,342,1
302,318,318,346,1
301,318,319,349,1
303,318,319,349,1
306,316,317,347,1
311,314,315,342,1
315,310,312,332,1
318,307,307,318,1
318,303,300,305,1
315,299,291,294,1
307,296,283,286,1
297,294,278,281,1
285,293,277,278,1
275,294,281,277,1
271,297,290,278,1
269,300,300,280,1
267,303,308,280,1
269,305,312,278,1
281,306,313,275,1
297,307,315,273,1
312,308,317,272,1
322,309,319,274,1
326,309,320,278,1
325,309,319,283,1
322,308,318,288,1
319,307,315,293,1
318,305,313,297,1
320,303,312,301,1
322,301,311,304,1
324,301,311,307,1
323,302,311,309,1
318,303,311,309,1
311,304,311,308,1
301,306,309,306,1
292,308,308,308,1
285,310,305,312,1
281,311,303,320,1
280,312,303,327,1
281,313,306,332,1
282,313,308,334,1
283,313,308,332,1
284,313,306,328,1
286,313,305,321,1
289,312,304,313,1
293,311,303,304,1
297,308,300,295,1
301,305,297,288,1
306,301,296,284,1
309,298,295,283,1
312,295,297,285,1
313,294,300,288,1
315,294,305,291,1
316,296,308,295,1
314,298,310,297,1
311,302,312,300,1
311,305,312,300,1
313,308,312,299,1
315,310,310,299,1
316,311,308,297,1
316,312,305,297,1
315,312,302,297,1
314,312,299,297,1
313,312,296,297,1
312,312,294,297,1
309,311,292,297,1
306,309,292,298,1
305,307,295,300,1
305,305,299,303,1
304,304,303,308,1
304,305,308,317,1
304,306,312,327,1
303,309,316,338,1
302,312,318,347,1
300,314,319,353,1
298,316,320,356,1
297,317,320,355,1
297,318,320,350,1
297,317,319,341,1
297,316,318,328,1
297,314,314,315,1
297,311,307,304,1
297,309,299,296,1
298,307,292,290,1
301,306,287,286,1
306,304,284,284,1
309,303,284,284,1
309,302,289,285,1
309,300,295,286,1
306,299,301,288,1
303,298,305,290,1
300,298,308,293,1
298,299,311,296,1
297,300,314,298,1
297,302,317,301,1
300,304,319,304,1
302,305,319,307,1
303,306,317,310,1
303,307,311,313,1
304,309,305,316,1
306,311,301,316,1
310,313,299,316,1
315,315,300,318,1
318,316,305,319,1
315,317,309,319,1
307,316,312,317,1
297,314,313,315,1
290,312,314,312,1
286,309,314,309,1
288,307,312,306,1
296,305,309,303,1
306,303,305,301,1
314,301,301,298,1
317,299,298,297,1
313,300,295,297,1
308,303,298,297,1
302,306,304,298,1
295,308,310,298,1
292,311,313,298,1
292,313,315,297,1
295,315,315,294,1
298,315,314,290,1
301,315,313,286,1
303,314,312,284,1
305,313,311,283,1
307,311,309,284,1
307,309,307,286,1
307,306,305,289,1
308,304,305,292,1
309,302,305,296,1
310,301,306,299,1
311,301,307,306,1
312,302,308,314,1
311,303,309,322,1
308,305,311,327,1
304,308,312,328,1
300,310,313,327,1
298,313,314,324,1
295,314,314,321,1
293,315,315,318,1
291,316,315,316,1
290,316,314,315,1
294,316,312,316,1
300,315,308,318,1
305,314,301,318,1
306,312,291,318,1
304,310,282,315,1
300,307,277,313,1
298,305,276,310,1
298,303,279,305,1
305,302,286,300,1
318,302,295,299,1
330,303,301,300,1
331,306,306,302,1
321,308,308,303,1
309,310,311,303,1
302,312,314,304,1
299,315,319,304,1
299,317,323,304,1
299,319,324,301,1
297,320,324,297,1
296,320,323,292,1
296,319,319,290,1
296,317,317,289,1
298,315,316,288,1
299,313,314,288,1
300,310,312,288,1
301,308,311,289,1
303,307,311,292,1
305,306,311,296,1
307,305,310,299,1
309,305,310,302,1
309,306,310,304,1
310,308,312,305,1
311,309,313,305,1
310,311,314,304,1
308,312,314,304,1
306,313,313,306,1
305,313,311,310,1
304,313,309,316,1
303,313,308,322,1
303,313,307,328,1
303,312,306,333,1
304,312,305,335,1
303,312,302,331,1
301,311,300,322,1
300,309,298,310,1
299,307,297,298,1
298,305,297,289,1
297,304,298,285,1
297,303,300,284,1
295,302,300,284,1
294,302,300,285,1
293,302,299,287,1
292,302,297,287,1
290,304,296,287,1
289,306,296,287,1
287,308,296,286,1
286,309,297,285,1
288,310,298,285,1
291,311,298,285,1
294,310,296,286,1
297,310,296,288,1
301,310,296,291,1
305,309,296,294,1
309,308,297,298,1
312,307,298,302,1
314,306,299,307,1
316,306,300,312,1
319,306,301,320,1
319,305,303,330,1
318,305,306,341,1
317,306,309,352,1
315,307,312,360,1
311,309,314,363,1
307,311,313,359,1
302,313,310,349,1
298,314,305,335,1
295,315,301,322,1
292,315,297,312,1
290,314,296,303,1
288,313,297,296,1
291,310,299,291,1
300,308,301,288,1
307,306,301,286,1
312,304,300,285,1
313,301,296,284,1
314,299,293,287,1
315,298,290,292,1
316,297,287,298,1
319,297,285,304,1
321,297,283,310,1
320,298,281,313,1
317,300,282,314,1
316,304,286,313,1
313,306,292,310,1
308,309,299,305,1
304,311,305,301,1
301,313,311,298,1
298,314,316,298,1
296,314,319,300,1
296,314,320,302,1
297,313,319,303,1
299,313,318,303,1
300,311,314,302,1
300,309,312,301,1
301,308,312,301,1
303,307,313,303,1
306,306,314,306,1
308,306,313,308,1
310,305,312,312,1
310,305,311,314,1
310,305,311,316,1
310,307,312,319,1
309,309,313,322,1
307,312,314,323,1
305,314,314,323,1
303,315,314,322,1
300,316,314,320,1
298,317,315,317,1
297,317,316,313,1
298,316,316,308,1
304,315,315,303,1
310,312,313,299,1
316,310,310,296,1
319,307,308,295,1
320,304,305,296,1
318,301,303,299,1
315,300,301,302,1
312,300,301,304,1
309,300,300,305,1
304,301,299,304,1
299,302,298,303,1
298,304,299,302,1
297,305,301,304,1
297,307,303,305,1
298,310,306,308,1
301,312,307,310,1
303,313,309,311,1
305,314,310,311,1
307,315,311,312,1
308,315,311,312,1
308,316,310,312,1
308,316,308,314,1
309,316,306,319,1
309,315,304,326,1
308,314,301,335,1
304,312,298,343,1
300,309,294,348,1
298,306,291,350,1
299,305,289,349,1
305,304,288,346,1
313,304,288,339,1
319,304,290,330,1
320,305,294,319,1
319,305,299,310,1
320,306,306,305,1
322,307,313,303,1
321,307,320,303,1
320,308,324,302,1
318,308,324,301,1
314,307,323,300,1
308,305,321,299,1
300,303,320,297,1
294,301,318,298,1
291,301,318,299,1
291,300,316,300,1
291,299,315,300,1
292,299,313,299,1
295,298,310,298,1
300,299,303,297,1
305,301,297,298,1
309,304,292,299,1
312,307,291,300,1
313,311,295,300,1
313,313,302,299,1
310,315,308,298,1
306,316,311,296,1
302,315,311,294,1
299,315,312,293,1
298,314,315,294,1
298,314,318,297,1
298,313,320,300,1
300,311,321,304,1
304,310,323,308,1
308,309,323,311,1
311,308,321,313,1
313,306,317,314,1
313,303,313,316,1
313,302,310,319,1
314,301,310,322,1
316,302,310,323,1
320,302,311,322,1
319,304,312,320,1
313,306,313,316,1
303,306,313,311,1
294,306,312,306,1
291,306,310,301,1
290,305,308,299,1
290,304,307,297,1
290,303,305,297,1
290,303,304,297,1
290,304,303,298,1
292,305,303,301,1
295,306,304,305,1
297,307,304,309,1
299,308,305,313,1
301,307,305,316,1
302,306,305,318,1
305,305,305,320,1
306,304,305,321,1
308,304,307,321,1
308,305,309,319,1
307,307,311,317,1
307,310,313,313,1
311,312,314,309,1
315,313,315,305,1
317,313,313,302,1
318,313,310,300,1
318,313,305,301,1
319,313,300,304,1
320,313,296,306,1
322,312,294,309,1
322,310,291,310,1
316,308,288,311,1
307,305,284,308,1
300,302,281,304,1
296,299,280,300,1
293,297,281,299,1
289,295,286,299,1
287,294,293,299,1
284,292,301,298,1
286,292,309,297,1
294,293,316,300,1
303,295,322,304,1
310,298,327,308,1
314,302,331,311,1
315,305,331,312,1
315,307,330,311,1
313,309,328,307,1
312,310,324,304,1
311,310,321,302,1
311,310,315,303,1
313,310,307,305,1
316,309,299,305,1
320,309,293,304,1
325,307,290,302,1
327,305,291,299,1
326,302,297,298,1
322,300,303,298,1
317,299,308,301,1
313,299,313,305,1
308,300,317,310,1
305,302,319,315,1
303,304,319,317,1
301,306,317,316,1
299,308,315,313,1
298,309,313,309,1
298,310,310,305,1
300,309,307,303,1
302,307,305,302,1
305,306,304,302,1
305,304,304,304,1
306,304,305,308,1
307,303,306,311,1
307,301,307,313,1
305,299,308,312,1
303,297,306,310,1
300,296,305,309,1
299,295,304,307,1
299,294,305,307,1
302,296,306,307,1
306,297,307,307,1
311,300,308,307,1
314,302,309,308,1
316,304,310,307,1
316,305,309,306,1
314,306,308,306,1
311,307,307,306,1
309,307,307,307,1
307,308,307,309,1
307,308,307,310,1
307,309,307,311,1
307,309,306,310,1
308,309,305,308,1
307,307,304,306,1
307,305,304,306,1
306,303,304,306,1
306,302,305,306,1
306,300,306,306,1
305,298,306,306,1
303,296,307,306,1
305,295,305,306,1
311,294,302,305,1
320,295,298,305,1
326,295,291,304,1
326,296,283,305,1
325,297,277,308,1
322,299,277,314,1
319,300,282,318,1
314,301,290,322,1
309,301,298,325,1
304,302,306,327,1
302,303,315,326,1
302,303,320,322,1
303,302,323,316,1
304,301,324,311,1
306,299,325,306,1
307,297,324,302,1
308,295,323,297,1
307,293,322,292,1
306,291,320,289,1
304,291,319,288,1
303,293,319,289,1
304,296,320,292,1
307,299,321,295,1
309,301,321,297,1
310,303,321,299,1
311,305,320,301,1
312,306,318,302,1
312,306,317,304,1
310,305,315,306,1
307,305,314,308,1
307,305,313,309,1
311,305,312,310,1
313,305,311,309,1
315,304,309,308,1
316,302,308,307,1
317,301,307,307,1
317,298,304,310,1
316,296,299,315,1
314,295,294,320,1
312,295,291,324,1
311,297,290,327,1
312,299,292,329,1
312,303,297,328,1
312,306,303,327,1
310,309,309,325,1
306,311,313,322,1
303,311,314,320,1
302,311,314,317,1
301,309,312,311,1
299,308,311,306,1
297,307,311,303,1
300,305,310,303,1
304,303,308,306,1
306,302,305,310,1
302,300,303,313,1
295,298,301,313,1
288,296,301,311,1
285,294,303,306,1
286,292,305,301,1
296,292,307,295,1
307,294,309,289,1
314,296,310,286,1
318,299,312,284,1
318,301,313,285,1
316,303,313,286,1
313,305,313,287,1
309,307,312,289,1
306,307,312,292,1
305,308,312,295,1
309,307,312,299,1
314,307,312,304,1
319,307,309,309,1
321,307,303,312,1
321,305,295,313,1
321,304,286,314,1
320,302,279,315,1
319,301,277,317,1
316,300,280,320,1
310,300,288,324,1
302,301,298,328,1
293,304,308,328,1
289,306,315,324,1
290,308,320,318,1
293,308,322,311,1
296,308,321,306,1
299,308,318,302,1
300,309,315,300,1
300,309,312,297,1
299,308,309,295,1
298,308,308,293,1
300,309,309,293,1
302,309,311,293,1
305,308,311,292,1
306,306,312,292,1
307,304,310,293,1
307,302,309,294,1
306,300,308,297,1
304,298,306,301,1
302,298,305,306,1
302,299,303,309,1
304,300,300,311,1
310,303,296,311,1
314,304,292,309,1
315,306,290,306,1
313,308,294,304,1
309,310,300,304,1
302,312,307,303,1
292,312,312,303,1
285,313,315,303,1
282,312,317,304,1
284,310,317,303,1
288,307,316,303,1
291,304,314,302,1
297,301,311,302,1
306,299,309,304,1
317,297,307,306,1
325,297,306,308,1
331,297,305,308,1
335,298,305,310,1
337,299,304,312,1
332,302,303,315,1
321,304,302,319,1
305,307,301,324,1
290,310,300,330,1
283,313,300,337,1
289,315,304,344,1
303,317,310,349,1
316,319,315,351,1
325,319,320,352,1
330,319,322,351,1
331,318,322,347,1
329,317,319,341,1
325,315,314,333,1
323,313,310,324,1
320,310,306,315,1
314,307,304,308,1
308,305,303,301,1
304,304,305,296,1
302,303,308,294,1
301,303,309,294,1
300,303,310,298,1
300,304,309,302,1
301,305,309,304,1
300,306,309,304,1
301,307,310,303,1
303,309,310,301,1
305,310,308,297,1
308,311,304,293,1
311,311,299,291,1
312,311,293,291,1
308,311,288,291,1
302,310,286,292,1
297,309,286,294,1
297,308,290,297,1
298,307,296,300,1
300,305,302,302,1
301,304,308,303,1
303,302,312,303,1
304,302,315,303,1
306,302,317,304,1
306,303,319,306,1
305,304,320,308,1
303,306,320,309,1
301,308,319,308,1
298,310,318,307,1
294,311,317,305,1
288,312,316,305,1
283,313,315,305,1
281,313,313,305,1
283,313,311,304,1
289,312,310,304,1
297,311,308,304,1
305,309,303,305,1
310,307,296,308,1
312,306,288,312,1
311,305,281,316,1
310,305,280,321,1
307,305,283,326,1
304,305,289,331,1
299,306,296,333,1
292,307,303,332,1
287,308,307,329,1
288,309,311,326,1
293,310,313,322,1
298,311,316,320,1
304,312,318,318,1
308,314,321,316,1
309,315,322,315,1
309,314,322,312,1
306,313,321,310,1
304,310,320,307,1
301,308,318,305,1
300,307,319,304,1
301,305,319,304,1
302,304,318,303,1
302,302,318,303,1
302,301,319,303,1
304,300,320,303,1
308,299,321,303,1
310,299,320,304,1
310,300,318,306,1
312,302,315,307,1
315,304,312,309,1
318,307,309,312,1
319,309,309,316,1
319,311,310,319,1
314,312,312,322,1
306,312,314,326,1
300,311,316,329,1
297,310,316,332,1
294,308,313,332,1
294,306,307,330,1
295,303,297,326,1
298,302,288,320,1
304,300,285,318,1
309,301,285,319,1
312,302,287,323,1
313,303,294,326,1
314,305,304,328,1
313,307,316,329,1
312,310,325,328,1
309,313,331,322,1
305,314,333,314,1
299,314,334,305,1
294,313,333,298,1
292,313,331,295,1
293,312,329,295,1
296,312,328,297,1
299,312,326,299,1
300,312,324,302,1
301,312,322,306,1
303,312,320,310,1
306,312,319,313,1
309,311,319,314,1
311,310,318,314,1
311,308,318,312,1
309,305,318,308,1
304,303,317,303,1
299,302,317,299,1
293,301,316,297,1
291,302,317,296,1
297,304,317,296,1
306,307,319,297,1
312,310,319,298,1
311,312,316,300,1
307,313,307,301,1
302,313,295,301,1
299,313,286,298,1
300,313,282,294,1
305,311,284,292,1
311,310,291,292,1
317,308,301,294,1
320,306,308,296,1
319,304,313,297,1
315,301,316,301,1
308,300,318,306,1
303,299,318,312,1
300,298,318,317,1
300,299,318,321,1
302,300,319,327,1
305,303,320,334,1
307,305,320,341,1
309,306,320,345,1
310,307,319,346,1
313,308,319,346,1
314,309,317,344,1
313,311,316,341,1
311,313,313,335,1
307,314,311,324,1
304,314,308,308,1
301,313,305,292,1
299,311,302,278,1
298,308,297,267,1
298,304,292,261,1
301,302,286,260,1
304,299,283,262,1
308,298,283,267,1
310,298,287,273,1
311,298,292,279,1
311,299,298,285,1
312,301,300,291,1
312,303,298,296,1
311,306,295,301,1
308,308,294,306,1
301,310,293,309,1
295,311,293,310,1
291,312,295,310,1
291,312,297,311,1
294,312,300,315,1
298,312,303,321,1
299,311,307,327,1
300,310,311,330,1
300,308,313,329,1
301,306,315,328,1
303,304,316,325,1
307,302,317,323,1
310,300,318,320,1
311,299,318,316,1
311,298,317,313,1
310,298,316,311,1
307,298,314,308,1
303,300,312,306,1
301,301,309,303,1
302,303,307,301,1
308,305,305,299,1
314,305,304,296,1
319,305,303,294,1
323,306,300,292,1
325,306,296,292,1
324,306,292,294,1
322,306,288,296,1
320,305,287,298,1
316,304,288,299,1
310,303,291,300,1
302,303,295,303,1
296,302,298,305,1
292,301,302,306,1
290,300,304,308,1
289,300,306,309,1
290,300,308,312,1
293,302,310,315,1
296,304,310,317,1
299,307,310,316,1
300,309,307,312,1
301,310,305,309,1
302,312,304,305,1
303,313,304,304,1
303,313,305,304,1
301,314,307,305,1
297,314,309,307,1
296,313,310,308,1
297,311,311,309,1
300,308,312,309,1
306,306,311,310,1
313,304,309,312,1
318,302,306,316,1
320,301,303,320,1
319,301,301,325,1
319,301,299,330,1
316,303,298,334,1
312,306,299,337,1
307,308,301,338,1
303,310,302,337,1
300,311,304,335,1
297,312,303,331,1
294,311,302,324,1
289,311,302,315,1
285,310,303,309,1
282,310,303,303,1
283,310,303,299,1
291,311,302,296,1
303,311,300,294,1
311,311,297,292,1
315,309,295,292,1
316,307,292,294,1
315,305,292,296,1
314,304,292,297,1
312,303,293,298,1
310,304,295,299,1
305,305,299,299,1
297,307,303,298,1
294,310,308,298,1
297,312,312,299,1
301,315,315,300,1
303,316,317,300,1
306,317,317,299,1
307,317,316,297,1
306,316,314,295,1
303,315,312,293,1
298,314,310,293,1
292,313,308,296,1
285,312,307,299,1
279,311,306,301,1
277,309,304,304,1
281,306,299,307,1
288,304,292,312,1
295,303,287,318,1
304,302,285,322,1
313,303,286,324,1
320,304,290,324,1
324,305,297,322,1
325,306,303,319,1
324,307,305,315,1
320,309,306,315,1
315,310,308,318,1
312,311,310,320,1
310,311,311,321,1
310,312,311,320,1
309,312,310,316,1
307,313,308,311,1
304,313,306,304,1
301,312,304,297,1
299,309,303,292,1
298,307,302,289,1
298,305,300,290,1
298,303,298,295,1
298,302,296,301,1
298,303,297,307,1
300,304,302,313,1
303,305,307,316,1
307,305,311,316,1
309,306,314,314,1
310,306,316,313,1
309,307,316,310,1
307,308,314,308,1
302,309,313,306,1
295,310,311,305,1
287,311,308,304,1
280,312,304,303,1
275,311,300,303,1
275,310,297,304,1
280,308,295,307,1
289,307,295,309,1
300,306,297,312,1
313,304,299,314,1
322,302,302,313,1
326,300,304,310,1
325,299,306,308,1
323,298,308,309,1
321,300,311,311,1
317,302,311,314,1
312,305,310,315,1
310,308,306,314,1
310,309,300,311,1
312,309,293,308,1
313,309,288,308,1
315,309,285,309,1
314,309,286,311,1
309,309,291,313,1
302,309,299,315,1
295,310,305,315,1
290,310,311,315,1
288,310,314,314,1
289,309,316,314,1
294,308,316,314,1
301,307,316,313,1
307,306,316,311,1
311,305,316,309,1
313,303,313,306,1
314,303,309,305,1
316,304,305,304,1
319,305,301,305,1
321,306,299,305,1
322,308,299,305,1
323,309,301,304,1
324,309,303,306,1
323,309,303,308,1
319,308,300,310,1
310,307,294,311,1
300,307,291,310,1
292,306,292,306,1
288,306,297,303,1
287,304,303,302,1
287,303,308,304,1
287,301,311,307,1
288,301,314,310,1
292,301,316,314,1
297,302,318,316,1
300,302,319,317,1
302,303,319,318,1
302,305,319,320,1
300,307,320,321,1
296,309,320,322,1
294,310,321,321,1
292,311,320,320,1
291,311,319,317,1
290,309,316,315,1
291,308,314,312,1
293,306,311,310,1
300,305,310,310,1
308,304,310,312,1
313,304,311,315,1
316,306,311,320,1
315,307,310,324,1
312,306,308,324,1
309,305,306,321,1
306,305,305,315,1
304,304,306,309,1
301,304,308,302,1
300,304,309,296,1
303,304,310,293,1
305,304,312,292,1
305,306,312,292,1
305,308,311,295,1
304,310,308,298,1
301,312,305,302,1
301,313,303,305,1
304,313,301,307,1
306,313,301,308,1
307,312,304,310,1
308,312,308,313,1
308,311,309,316,1
307,309,308,318,1
307,307,305,321,1
308,305,303,324,1
312,303,302,327,1
315,301,303,328,1
317,301,305,326,1
315,300,306,323,1
311,300,307,318,1
307,301,304,312,1
304,302,300,305,1
304,303,296,298,1
306,305,294,291,1
307,306,294,286,1
305,307,297,282,1
300,308,303,282,1
294,309,309,284,1
289,311,314,288,1
286,312,318,295,1
286,314,322,301,1
286,314,324,307,1
286,313,324,310,1
288,313,323,311,1
293,312,321,312,1
299,310,318,313,1
304,309,317,315,1
308,309,316,318,1
310,309,316,320,1
311,309,316,319,1
308,309,315,317,1
302,309,317,314,1
294,310,317,312,1
286,310,316,307,1
286,309,314,302,1
293,309,311,296,1
303,309,308,289,1
310,308,305,284,1
314,307,303,281,1
317,306,304,279,1
317,304,305,280,1
316,302,307,281,1
313,300,309,283,1
308,298,310,287,1
303,297,309,290,1
301,296,308,294,1
304,297,306,296,1
303,297,304,297,1
299,299,303,299,1
294,301,305,301,1
289,304,310,303,1
286,307,314,305,1
285,309,318,305,1
290,311,320,304,1
298,313,321,303,1
309,314,319,303,1
319,316,316,305,1
325,317,312,310,1
327,317,310,317,1
326,318,310,324,1
324,318,309,329,1
322,317,307,331,1
319,314,304,329,1
316,311,300,322,1
313,307,298,314,1
312,302,299,307,1
312,299,302,304,1
311,298,305,303,1
312,297,309,304,1
313,297,313,304,1
314,298,315,304,1
315,299,314,303,1
316,301,310,300,1
315,302,306,297,1
313,303,301,296,1
309,304,298,295,1
306,305,297,295,1
303,306,299,295,1
302,308,303,297,1
302,310,309,300,1
301,311,315,304,1
300,312,318,308,1
298,312,320,312,1
297,310,320,315,1
296,309,320,319,1
298,307,317,326,1
301,305,313,336,1
304,305,308,345,1
306,304,304,353,1
309,305,302,356,1
313,306,302,354,1
316,307,303,348,1
320,308,305,340,1
320,308,306,332,1
319,308,309,323,1
317,308,311,313,1
316,307,312,302,1
313,306,312,291,1
307,305,311,282,1
299,305,313,277,1
293,305,314,275,1
293,304,315,277,1
297,304,313,282,1
299,303,312,289,1
298,302,311,295,1
296,301,312,300,1
298,301,313,302,1
300,300,312,304,1
302,300,311,304,1
302,301,310,303,1
301,302,308,300,1
299,304,307,297,1
295,305,306,295,1
294,305,306,293,1
297,305,307,293,1
303,305,308,293,1
309,306,310,293,1
312,306,311,295,1
312,306,313,296,1
311,306,314,296,1
310,306,315,298,1
310,306,316,299,1
307,305,317,300,1
303,304,316,299,1
299,301,316,299,1
296,299,315,298,1
292,297,312,300,1
290,296,309,303,1
288,296,305,308,1
289,298,302,314,1
293,301,302,321,1
299,304,307,326,1
305,308,313,328,1
311,309,316,328,1
315,310,313,324,1
314,310,306,320,1
312,310,300,317,1
311,311,298,315,1
310,311,301,314,1
311,311,309,313,1
312,310,320,313,1
313,309,328,313,1
314,308,334,314,1
314,307,337,313,1
314,305,338,312,1
313,302,337,311,1
313,299,335,311,1
313,297,332,312,1
311,296,329,314,1
310,296,326,316,1
309,297,326,317,1
311,298,327,318,1
314,301,329,318,1
319,304,329,318,1
324,307,329,317,1
328,309,328,317,1
325,311,325,317,1
317,312,322,317,1
307,312,319,316,1
297,312,316,313,1
287,312,313,312,1
281,312,311,311,1
281,310,309,311,1
286,308,309,314,1
295,306,308,320,1
304,302,308,328,1
310,300,308,332,1
313,300,309,331,1
315,300,310,324,1
317,302,311,313,1
318,304,313,302,1
318,307,315,295,1
315,310,317,293,1
309,311,319,294,1
302,312,321,298,1
296,312,323,303,1
291,313,324,307,1
289,313,324,310,1
291,312,323,310,1
295,310,320,308,1
302,309,318,306,1
309,308,316,305,1
315,306,315,304,1
317,304,314,304,1
315,303,313,305,1
311,301,312,305,1
307,299,308,303,1
304,297,303,299,1
301,295,298,296,1
299,294,295,295,1
300,295,294,296,1
302,298,295,297,1
304,301,299,296,1
305,304,305,295,1
304,307,309,294,1
302,308,312,292,1
302,310,313,291,1
304,311,313,291,1
307,311,312,290,1
310,309,311,290,1
312,308,312,292,1
314,306,314,294,1
316,304,314,298,1
316,301,312,303,1
317,299,310,309,1
318,298,308,316,1
320,299,307,322,1
322,301,307,327,1
324,303,310,330,1
324,304,314,328,1
322,305,318,322,1
319,306,319,316,1
318,308,316,310,1
318,310,312,306,1
318,310,308,304,1
317,310,306,305,1
314,310,308,309,1
310,310,312,314,1
304,309,316,319,1
297,309,319,322,1
291,308,322,322,1
291,306,322,317,1
295,304,321,309,1
296,302,319,300,1
295,299,317,292,1
294,297,315,285,1
297,295,314,281,1
303,295,315,279,1
307,295,316,278,1
309,296,318,278,1
311,298,320,280,1
313,301,322,283,1
315,304,323,288,1
316,308,324,293,1
315,311,324,299,1
312,313,323,305,1
308,315,321,313,1
303,316,320,320,1
300,317,320,323,1
298,317,321,325,1
300,316,323,327,1
305,315,323,329,1
311,314,322,330,1
316,312,320,329,1
317,309,319,328,1
312,307,317,327,1
301,304,316,328,1
290,302,315,328,1
282,301,314,326,1
278,301,313,322,1
281,300,312,316,1
286,300,311,308,1
293,300,310,300,1
301,300,309,295,1
308,301,308,293,1
313,302,305,293,1
315,304,303,295,1
317,306,302,295,1
317,308,301,295,1
314,308,301,296,1
311,308,301,297,1
311,307,303,298,1
312,306,306,298,1
314,304,309,297,1
316,302,312,294,1
318,300,314,292,1
318,299,314,291,1
318,299,313,290,1
316,299,309,290,1
314,299,306,292,1
313,300,305,297,1
313,302,305,303,1
313,305,305,310,1
311,307,304,316,1
306,309,301,320,1
301,309,297,322,1
299,309,293,322,1
297,309,291,322,1
292,308,291,319,1
286,306,292,315,1
282,305,296,312,1
285,306,304,309,1
293,306,313,305,1
302,305,320,301,1
311,304,323,297,1
317,301,324,296,1
319,299,324,297,1
319,298,323,300,1
318,298,323,303,1
317,299,323,304,1
317,301,323,303,1
316,302,321,300,1
314,302,319,296,1
310,303,315,291,1
304,303,312,289,1
299,304,311,288,1
295,304,310,288,1
290,305,309,288,1
287,305,307,288,1
286,305,306,289,1
287,305,304,289,1
290,305,302,290,1
292,304,300,292,1
291,303,299,296,1
287,302,298,299,1
280,300,297,301,1
274,298,296,299,1
273,296,295,296,1
281,295,296,294,1
293,295,298,294,1
306,297,300,296,1
316,300,302,299,1
320,303,302,302,1
320,305,301,305,1
315,308,298,306,1
310,310,297,308,1
305,312,299,309,1
301,313,302,310,1
301,315,305,310,1
305,315,308,310,1
312,315,309,308,1
318,314,310,306,1
324,313,309,303,1
328,311,308,302,1
329,309,307,303,1
324,307,307,307,1
317,305,306,315,1
308,303,304,323,1
301,303,301,327,1
295,303,298,326,1
288,304,296,322,1
284,305,296,317,1
281,307,296,314,1
282,309,297,311,1
285,311,298,308,1
287,312,298,305,1
291,313,297,302,1
300,313,296,299,1
307,312,294,296,1
309,311,292,293,1
308,310,291,290,1
308,309,292,289,1
309,308,294,289,1
313,308,299,290,1
320,307,305,292,1
323,305,309,294,1
323,303,311,296,1
317,300,309,299,1
309,298,307,302,1
302,299,307,308,1
297,301,307,314,1
296,305,307,317,1
295,308,308,314,1
295,310,309,308,1
294,312,311,302,1
294,312,312,299,1
292,311,312,297,1
290,310,312,296,1
288,309,311,296,1
287,306,311,294,1
288,304,311,293,1
289,303,311,293,1
290,302,311,294,1
288,301,311,296,1
285,300,310,298,1
283,300,309,300,1
281,300,308,301,1
284,301,308,301,1
291,303,308,301,1
302,305,308,302,1
313,307,310,305,1
319,309,311,308,1
321,311,311,311,1
320,313,309,313,1
319,315,306,316,1
317,316,303,320,1
314,317,300,323,1
312,318,299,325,1
310,317,299,323,1
306,316,299,320,1
303,315,299,316,1
301,313,298,311,1
300,310,297,304,1
300,306,294,296,1
301,302,291,290,1
305,300,290,287,1
309,298,290,286,1
313,297,294,286,1
317,298,298,288,1
318,299,301,290,1
319,300,300,293,1
318,303,296,297,1
317,305,291,300,1
315,308,288,302,1
313,308,289,304,1
308,309,295,306,1
301,309,303,307,1
295,310,311,309,1
297,311,317,308,1
302,311,322,307,1
306,310,324,304,1
309,309,325,303,1
310,307,323,301,1
311,305,321,301,1
313,303,318,301,1
316,302,315,302,1
318,301,312,303,1
319,300,309,304,1
317,299,306,304,1
313,299,305,306,1
308,300,306,307,1
304,303,309,308,1
300,307,311,307,1
295,310,307,303,1
289,310,301,298,1
286,311,294,296,1
287,311,292,298,1
292,312,293,302,1
296,312,297,307,1
299,312,301,313,1
302,312,303,321,1
301,313,305,330,1
299,313,305,341,1
297,314,305,351,1
297,313,306,362,1
300,313,307,370,1
304,311,308,371,1
308,309,308,366,1
312,307,308,355,1
314,307,308,343,1
314,307,308,331,1
312,308,308,320,1
310,310,308,311,1
306,311,308,303,1
302,313,307,297,1
299,313,306,294,1
295,315,304,293,1
290,315,301,292,1
284,316,298,291,1
280,315,297,288,1
280,314,297,285,1
286,313,299,282,1
295,311,300,280,1
307,309,300,279,1
320,306,300,279,1
328,303,301,282,1
331,301,301,286,1
334,301,301,291,1
334,302,302,295,1
333,304,303,299,1
330,306,304,304,1
328,308,305,306,1
324,310,304,306,1
316,311,302,304,1
306,310,297,300,1
299,308,291,297,1
297,307,287,296,1
297,307,286,299,1
298,309,287,304,1
299,311,285,311,1
298,312,281,316,1
297,312,277,320,1
297,312,273,324,1
298,311,275,329,1
300,311,281,331,1
302,310,289,333,1
304,310,298,334,1
306,310,308,332,1
307,310,316,328,1
310,310,322,323,1
311,310,325,319,1
312,311,327,316,1
311,312,326,315,1
308,312,324,314,1
305,313,322,313,1
304,312,320,312,1
304,311,318,309,1
304,309,316,304,1
304,308,313,300,1
301,307,311,296,1
297,307,308,290,1
293,307,307,284,1
287,307,307,280,1
282,305,306,278,1
280,304,306,280,1
279,302,305,283,1
278,301,304,286,1
281,301,304,288,1
289,301,304,292,1
303,302,304,294,1
315,303,304,296,1
322,304,304,297,1
323,306,303,299,1
320,307,303,299,1
315,308,302,298,1
307,309,301,296,1
298,310,302,294,1
289,310,303,292,1
282,310,303,292,1
277,310,302,293,1
277,309,299,294,1
282,308,297,294,1
290,308,297,295,1
299,306,297,296,1
307,305,300,300,1
314,303,304,307,1
319,301,309,318,1
321,300,313,330,1
323,300,316,342,1
323,301,319,351,1
320,303,321,357,1
314,305,322,358,1
310,308,322,356,1
311,310,321,352,1
315,312,319,344,1
318,312,316,335,1
317,312,313,326,1
313,311,310,316,1
309,310,308,308,1
306,310,306,302,1
306,309,303,299,1
306,308,300,297,1
308,307,297,297,1
310,305,294,301,1
312,303,290,307,1
314,302,286,311,1
314,301,285,314,1
314,300,286,314,1
312,299,290,313,1
307,300,298,310,1
304,301,307,307,1
301,303,316,304,1
298,305,321,301,1
296,306,323,298,1
294,307,324,296,1
292,307,324,294,1
292,308,323,293,1
294,309,323,294,1
297,309,323,297,1
299,308,324,300,1
298,308,326,302,1
294,307,326,303,1
288,307,324,303,1
284,307,321,300,1
283,306,318,295,1
287,305,315,292,1
292,304,313,292,1
297,304,312,293,1
301,303,312,295,1
303,303,313,297,1
305,302,313,298,1
306,302,312,298,1
306,303,310,298,1
307,305,308,298,1
306,306,307,296,1
306,308,309,295,1
305,309,311,295,1
305,309,313,295,1
305,309,315,295,1
306,309,316,295,1
308,308,317,296,1
311,308,317,296,1
314,307,317,295,1
314,306,317,295,1
311,304,317,295,1
303,301,316,296,1
293,299,314,298,1
286,298,312,303,1
281,298,309,308,1
282,298,309,316,1
287,299,312,322,1
293,301,316,328,1
302,304,318,332,1
317,307,319,336,1
328,311,319,340,1
333,314,318,343,1
331,315,317,342,1
326,316,317,339,1
321,315,318,334,1
317,314,320,329,1
313,313,321,323,1
311,311,319,317,1
310,309,312,312,1
309,306,305,307,1
310,304,299,304,1
312,302,295,304,1
315,301,295,308,1
317,300,300,315,1
319,301,306,323,1
321,302,314,329,1
322,304,321,330,1
321,305,326,326,1
321,306,327,318,1
320,307,325,307,1
316,307,320,297,1
312,307,315,290,1
308,308,312,286,1
304,309,310,285,1
301,309,313,285,1
300,309,317,286,1
300,308,321,286,1
300,306,323,287,1
298,304,324,288,1
297,301,323,289,1
297,298,320,290,1
298,297,319,290,1
300,295,318,291,1
303,296,317,292,1
306,296,318,293,1
309,297,318,294,1
310,299,318,295,1
311,301,318,296,1
311,303,315,297,1
311,304,310,298,1
309,305,306,298,1
309,305,305,298,1
309,307,306,299,1
309,307,309,297,1
307,305,310,295,1
302,304,310,292,1
294,301,308,290,1
288,300,307,289,1
290,299,307,290,1
297,299,308,291,1
306,301,309,295,1
314,302,308,298,1
318,302,307,300,1
319,301,304,302,1
321,302,303,305,1
322,303,303,308,1
322,305,305,310,1
318,307,308,310,1
311,310,311,309,1
303,311,314,307,1
296,313,316,306,1
292,314,319,305,1
290,314,321,306,1
290,315,322,308,1
295,315,323,311,1
301,315,324,315,1
308,314,324,319,1
310,313,324,325,1
308,312,323,330,1
306,311,321,333,1
306,309,320,335,1
306,307,318,335,1
307,306,315,332,1
309,304,311,326,1
313,302,305,318,1
317,302,301,310,1
320,302,297,304,1
322,303,294,302,1
325,306,296,303,1
328,308,300,306,1
329,311,305,310,1
330,313,309,314,1
329,314,314,317,1
328,313,316,316,1
323,310,316,313,1
314,307,314,309,1
305,305,312,304,1
300,303,311,302,1
297,302,312,302,1
297,301,314,304,1
297,300,315,305,1
298,298,316,306,1
300,296,318,306,1
303,295,319,307,1
307,295,322,310,1
311,296,324,311,1
313,298,327,311,1
312,301,329,308,1
307,303,330,304,1
299,304,330,300,1
289,305,329,298,1
283,306,327,297,1
280,306,325,297,1
282,306,323,298,1
288,307,321,299,1
295,307,318,299,1
302,307,317,298,1
306,306,317,296,1
308,306,316,293,1
310,305,314,291,1
311,303,313,292,1
313,300,313,296,1
317,298,314,301,1
318,296,317,308,1
316,296,318,314,1
312,296,321,317,1
309,298,323,316,1
304,301,325,314,1
300,304,325,309,1
300,307,322,305,1
304,308,318,301,1
306,308,315,298,1
305,308,315,297,1
304,308,318,294,1
305,306,320,291,1
306,304,322,288,1
304,302,324,285,1
300,302,326,282,1
296,301,326,278,1
297,301,326,275,1
302,300,325,273,1
307,299,325,274,1
310,298,325,276,1
313,297,325,281,1
315,298,326,285,1
316,299,325,290,1
317,301,322,296,1
318,303,319,302,1
319,306,316,308,1
320,309,315,315,1
321,311,316,321,1
323,313,320,324,1
325,314,325,323,1
326,315,329,318,1
325,313,331,312,1
323,309,330,304,1
321,305,328,297,1
318,302,325,292,1
314,300,321,288,1
313,299,319,286,1
314,298,318,286,1
314,298,317,287,1
314,299,316,290,1
314,299,318,295,1
312,299,319,300,1
312,299,321,304,1
310,300,325,308,1
309,302,332,311,1
311,305,338,313,1
312,308,343,314,1
313,311,345,315,1
313,313,344,316,1
312,314,341,318,1
309,315,338,321,1
307,316,336,324,1
305,316,336,327,1
305,315,337,327,1
308,314,338,324,1
309,312,339,319,1
307,308,337,312,1
301,303,334,304,1
294,299,330,298,1
285,296,327,293,1
278,294,323,291,1
274,295,320,291,1
276,298,316,293,1
280,302,315,296,1
285,305,316,298,1
290,308,319,300,1
291,310,321,300,1
287,311,323,299,1
282,312,324,298,1
278,313,324,297,1
282,313,326,297,1
293,313,328,300,1
307,314,331,302,1
318,313,332,305,1
323,311,333,306,1
324,309,332,307,1
324,306,331,308,1
323,304,329,309,1
322,301,328,308,1
320,300,327,305,1
317,300,326,302,1
315,300,325,300,1
313,300,326,298,1
311,301,327,298,1
308,303,327,299,1
306,305,328,300,1
305,307,328,301,1
304,309,329,302,1
304,310,329,302,1
304,310,330,301,1
304,310,329,300,1
303,310,327,297,1
301,309,321,295,1
298,308,315,295,1
294,308,310,297,1
291,307,307,301,1
293,306,311,304,1
299,304,318,306,1
307,303,324,306,1
312,301,326,304,1
315,298,326,301,1
314,296,324,298,1
314,295,323,297,1
318,296,324,299,1
322,298,328,304,1
326,301,332,309,1
327,305,335,314,1
325,307,336,316,1
322,310,338,317,1
319,312,338,316,1
318,314,339,315,1
318,315,340,314,1
318,315,341,316,1
318,315,340,321,1
319,315,338,327,1
321,315,333,332,1
324,313,326,333,1
327,311,318,332,1
330,309,311,329,1
331,307,307,326,1
326,305,307,322,1
315,304,310,320,1
301,303,315,320,1
288,304,322,325,1
279,307,328,331,1
271,310,334,337,1
266,313,337,342,1
262,315,338,343,1
263,316,338,341,1
272,316,338,338,1
286,317,338,332,1
298,318,336,324,1
304,318,334,316,1
304,316,330,306,1
303,314,327,298,1
302,312,325,291,1
301,308,323,286,1
301,305,323,282,1
302,303,322,281,1
303,301,321,281,1
302,300,321,282,1
300,300,321,283,1
297,301,322,286,1
294,303,321,291,1
290,305,321,296,1
287,306,320,302,1
287,307,320,307,1
293,308,318,311,1
300,309,317,314,1
306,310,314,317,1
309,310,312,318,1
308,309,309,319,1
307,308,306,318,1
305,308,305,318,1
304,307,304,318,1
302,307,305,319,1
302,306,304,323,1
303,307,301,327,1
308,307,296,331,1
315,306,290,334,1
320,306,288,336,1
322,305,290,338,1
321,305,295,337,1
319,306,301,334,1
316,308,305,329,1
313,310,308,322,1
311,311,309,315,1
310,312,309,308,1
312,313,308,303,1
315,314,304,300,1
318,313,299,299,1
323,312,290,299,1
326,310,281,301,1
328,308,275,303,1
329,307,274,307,1
329,307,278,313,1
331,306,287,320,1
331,305,295,328,1
327,304,302,336,1
319,303,306,342,1
311,303,306,344,1
300,302,303,343,1
286,303,297,336,1
271,303,290,328,1
262,304,285,317,1
263,306,281,309,1
273,308,281,303,1
287,310,283,299,1
298,311,287,297,1
304,311,290,296,1
306,310,292,294,1
305,309,292,292,1
304,308,290,291,1
302,307,287,290,1
300,306,284,290,1
298,304,281,291,1
297,303,278,293,1
298,302,276,296,1
299,300,274,300,1
300,299,273,304,1
298,299,274,309,1
295,300,274,313,1
291,301,274,317,1
290,302,273,319,1
294,304,271,320,1
300,306,270,320,1
305,307,269,319,1
310,308,270,319,1
313,309,270,318,1
316,309,270,318,1
318,308,271,316,1
318,307,271,314,1
316,307,273,311,1
313,307,274,309,1
310,306,273,310,1
307,305,269,313,1
306,303,264,319,1
307,301,260,326,1
310,299,259,334,1
315,298,262,340,1
319,297,267,342,1
321,298,271,338,1
319,299,274,329,1
316,300,276,318,1
312,302,277,306,1
308,304,278,295,1
304,305,280,288,1
302,307,283,284,1
304,308,285,284,1
306,309,286,284,1
308,309,285,286,1
310,310,284,288,1
312,310,281,291,1
313,310,278,295,1
314,309,276,298,1
314,308,276,301,1
314,306,277,304,1
315,304,279,305,1
317,303,281,307,1
320,302,284,309,1
323,301,289,312,1
326,301,293,315,1
328,301,296,318,1
326,302,296,321,1
321,303,293,324,1
313,305,290,327,1
304,307,287,329,1
298,309,285,330,1
297,310,284,330,1
295,311,285,329,1
294,312,287,328,1
294,312,289,325,1
292,311,290,322,1
287,310,290,319,1
282,308,290,315,1
280,307,289,313,1
279,306,287,309,1
279,304,286,307,1
281,303,284,305,1
286,302,283,304,1
292,302,283,305,1
299,302,284,310,1
303,302,285,316,1
306,302,286,321,1
306,303,286,324,1
309,305,286,322,1
315,307,285,318,1
321,308,287,312,1
325,309,288,307,1
326,309,291,302,1
326,309,293,300,1
325,308,294,300,1
323,307,293,302,1
320,306,292,303,1
317,305,290,305,1
313,304,288,307,1
311,303,284,310,1
310,303,278,312,1
311,302,273,315,1
313,302,270,317,1
318,300,270,318,1
326,300,275,319,1
336,299,282,319,1
343,298,288,317,1
350,297,292,315,1
352,297,294,313,1
345,300,295,312,1
330,303,295,312,1
316,307,294,313,1
303,310,293,315,1
291,312,291,315,1
279,311,290,316,1
271,310,290,315,1
268,309,291,315,1
268,307,293,313,1
273,304,294,311,1
285,302,294,308,1
299,300,293,305,1
313,298,292,302,1
323,297,291,296,1
326,297,290,290,1
324,296,289,287,1
317,296,289,287,1
307,295,289,291,1
296,296,287,295,1
292,297,284,300,1
294,298,280,303,1
294,299,276,305,1
292,301,273,305,1
292,303,272,304,1
292,305,273,302,1
295,306,277,300,1
300,306,283,300,1
304,305,288,301,1
308,304,292,302,1
309,302,293,303,1
307,301,293,304,1
306,299,291,306,1
304,299,289,308,1
303,299,287,310,1
304,300,286,312,1
306,301,286,313,1
310,302,287,314,1
314,302,287,315,1
315,304,287,316,1
314,306,285,317,1
310,308,282,320,1
305,310,280,323,1
302,311,277,326,1
299,311,274,328,1
297,310,271,328,1
294,308,266,326,1
294,307,262,324,1
299,306,260,321,1
305,305,262,316,1
310,304,267,310,1
311,303,274,306,1
309,300,282,303,1
306,298,289,301,1
303,296,294,300,1
301,294,297,300,1
300,293,298,300,1
300,292,299,300,1
300,292,299,298,1
301,291,299,295,1
305,292,298,291,1
310,292,296,289,1
314,293,294,286,1
315,294,289,285,1
311,296,285,287,1
306,297,281,293,1
299,299,277,300,1
294,301,275,306,1
292,303,277,311,1
295,304,281,311,1
300,305,285,310,1
306,305,286,307,1
311,304,284,305,1
314,303,281,303,1
314,301,276,304,1
314,300,273,306,1
313,300,272,309,1
311,300,273,312,1
307,300,278,315,1
301,300,283,318,1
297,302,290,320,1
300,303,296,321,1
306,304,299,319,1
311,304,300,316,1
314,304,301,312,1
315,304,300,308,1
313,303,300,304,1
308,302,298,299,1
302,301,295,293,1
300,301,293,289,1
302,302,294,287,1
305,303,294,289,1
306,303,295,292,1
305,302,294,296,1
304,302,294,300,1
303,301,293,303,1
303,301,291,305,1
306,301,290,307,1
309,303,290,309,1
313,305,290,311,1
315,307,290,313,1
317,309,291,313,1
317,310,291,313,1
315,311,290,313,1
311,310,289,311,1
306,308,289,310,1
302,307,291,309,1
297,306,294,308,1
290,306,295,307,1
284,306,295,304,1
287,306,291,300,1
293,306,284,297,1
302,304,276,295,1
308,303,271,293,1
312,302,269,294,1
315,300,273,295,1
316,299,282,296,1
315,298,291,297,1
311,298,299,299,1
307,299,306,301,1
301,302,310,303,1
297,304,311,304,1
295,307,310,304,1
298,309,308,301,1
302,311,306,298,1
306,313,304,297,1
309,313,303,296,1
310,314,301,298,1
309,314,300,304,1
307,314,300,311,1
304,314,300,318,1
300,314,301,323,1
295,312,301,326,1
295,311,300,326,1
301,309,298,326,1
307,308,295,326,1
309,308,292,326,1
308,309,291,325,1
306,309,291,322,1
308,308,293,317,1
312,307,296,311,1
316,307,298,305,1
317,306,298,300,1
318,305,296,297,1
317,304,294,294,1
316,303,293,291,1
314,303,294,289,1
310,303,296,288,1
307,304,298,287,1
307,304,299,287,1
306,304,300,287,1
302,303,300,288,1
296,302,301,290,1
292,301,302,295,1
292,300,304,301,1
296,299,307,307,1
302,299,311,312,1
307,300,312,315,1
310,303,313,315,1
310,306,312,315,1
309,309,312,317,1
310,312,312,321,1
313,314,311,326,1
316,316,311,333,1
314,317,310,342,1
311,317,306,349,1
308,316,300,351,1
306,314,292,346,1
305,312,286,334,1
307,310,284,319,1
310,306,287,305,1
313,303,292,295,1
314,301,296,287,1
310,298,299,281,1
304,295,302,278,1
298,292,308,276,1
297,291,312,277,1
300,290,314,281,1
303,291,314,285,1
302,292,312,290,1
299,296,311,295,1
299,300,313,299,1
301,305,316,304,1
305,310,319,307,1
305,313,320,307,1
304,314,318,306,1
306,314,316,304,1
310,314,312,303,1
310,313,308,301,1
307,311,305,299,1
302,310,304,299,1
298,307,305,298,1
295,305,307,299,1
293,303,311,300,1
291,301,314,302,1
293,299,317,303,1
296,297,319,306,1
300,297,318,310,1
303,298,316,314,1
305,301,311,318,1
305,305,306,321,1
305,308,302,324,1
305,309,302,325,1
305,311,305,324,1
302,311,310,321,1
299,310,316,316,1
296,310,319,312,1
295,309,321,307,1
300,308,321,304,1
309,307,321,301,1
320,306,319,299,1
330,304,317,299,1
339,302,314,301,1
344,302,311,305,1
344,302,307,310,1
339,303,306,316,1
332,306,307,320,1
327,309,311,324,1
323,312,312,329,1
319,314,311,332,1
315,316,307,333,1
312,318,304,331,1
308,318,302,326,1
303,317,303,321,1
300,316,309,317,1
298,315,316,314,1
298,313,320,310,1
299,312,322,306,1
301,310,322,302,1
304,308,321,298,1
306,306,320,295,1
307,304,319,291,1
307,302,318,289,1
305,299,318,288,1
298,297,318,290,1
289,296,316,293,1
283,295,313,297,1
281,296,311,299,1
280,297,310,301,1
279,299,311,302,1
280,301,312,301,1
286,304,312,299,1
296,307,311,296,1
306,310,311,294,1
315,311,312,292,1
320,311,312,290,1
322,311,311,290,1
322,311,307,289,1
316,309,302,290,1
307,308,297,291,1
299,306,295,294,1
295,305,293,298,1
295,305,293,303,1
302,306,295,308,1
311,306,297,312,1
316,306,299,313,1
316,306,299,314,1
313,306,298,313,1
310,306,298,314,1
312,308,299,315,1
317,310,301,316,1
324,312,304,318,1
329,314,309,323,1
332,315,315,330,1
330,316,321,336,1
322,317,326,336,1
311,317,329,332,1
300,317,330,325,1
294,316,330,317,1
293,314,329,310,1
295,312,328,304,1
301,310,327,299,1
304,308,324,296,1
307,304,320,293,1
307,301,315,291,1
305,298,310,289,1
302,296,307,289,1
303,296,306,290,1
305,297,306,293,1
307,299,306,297,1
308,302,303,300,1
308,304,300,303,1
308,307,297,306,1
306,308,296,309,1
303,309,298,313,1
298,310,302,317,1
294,311,308,321,1
295,312,313,324,1
300,313,317,325,1
304,313,321,324,1
306,313,322,322,1
304,312,322,318,1
298,312,320,314,1
289,311,317,311,1
279,309,315,309,1
271,307,315,307,1
269,305,315,306,1
277,304,316,305,1
295,303,316,305,1
314,304,315,306,1
328,307,315,305,1
335,310,315,305,1
336,313,315,305,1
333,315,313,305,1
327,317,311,307,1
320,318,309,308,1
314,318,307,307,1
311,317,306,306,1
312,315,306,307,1
317,313,306,310,1
323,312,306,313,1
328,310,302,315,1
329,307,296,316,1
325,305,290,314,1
317,303,283,310,1
310,302,279,304,1
305,302,280,299,1
307,303,285,296,1
314,303,292,294,1
322,304,299,292,1
327,304,305,290,1
329,305,309,288,1
330,306,312,287,1
329,308,314,288,1
324,308,317,288,1
313,308,319,288,1
303,309,320,288,1
296,309,319,290,1
293,310,317,292,1
293,311,317,296,1
294,311,317,299,1
295,310,317,301,1
295,309,317,301,1
295,307,316,300,1
295,304,314,300,1
296,303,313,300,1
298,302,313,302,1
300,302,312,305,1
299,304,309,309,1
300,306,305,313,1
304,309,303,317,1
307,312,303,321,1
309,314,307,325,1
311,317,312,327,1
312,318,317,330,1
312,318,321,330,1
310,317,323,330,1
305,315,323,327,1
298,313,322,324,1
292,311,320,322,1
289,310,318,319,1
286,307,314,314,1
282,305,311,309,1
280,304,309,307,1
281,304,307,307,1
286,304,306,308,1
293,304,305,310,1
302,305,306,315,1
314,307,308,324,1
328,309,312,334,1
339,312,315,343,1
346,315,318,349,1
351,317,320,352,1
351,319,320,351,1
347,320,319,347,1
338,320,316,341,1
325,320,312,335,1
311,320,307,329,1
300,319,303,323,1
296,319,302,318,1
299,317,304,312,1
304,314,306,304,1
308,311,306,295,1
310,307,304,286,1
311,304,303,280,1
313,303,302,279,1
316,304,303,279,1
321,305,305,281,1
326,307,309,284,1
330,309,313,288,1
333,310,316,292,1
333,311,315,295,1
332,311,311,298,1
327,310,304,299,1
316,308,300,299,1
303,307,300,298,1
295,306,303,296,1
294,306,308,294,1
298,306,313,292,1
303,306,317,291,1
309,306,319,290,1
310,306,319,290,1
309,304,317,290,1
306,303,316,291,1
305,301,314,295,1
304,300,313,299,1
305,300,312,305,1
307,301,310,312,1
310,303,307,318,1
313,307,304,323,1
312,311,301,324,1
309,315,300,324,1
303,318,302,320,1
295,320,306,317,1
286,321,309,312,1
277,322,312,308,1
272,322,314,304,1
274,321,314,300,1
283,319,315,297,1
291,318,315,296,1
298,317,314,298,1
305,315,314,300,1
313,314,313,304,1
319,313,313,308,1
323,312,313,312,1
327,311,312,315,1
331,310,312,318,1
336,311,311,318,1
341,312,309,318,1
343,314,308,316,1
341,316,309,315,1
335,318,313,316,1
326,319,316,319,1
319,319,317,321,1
313,319,317,321,1
309,318,316,319,1
306,317,315,316,1
303,317,313,311,1
301,315,310,305,1
299,313,308,299,1
300,312,307,297,1
301,310,305,296,1
302,309,304,296,1
305,307,303,297,1
310,306,301,297,1
315,304,298,298,1
318,304,294,299,1
320,303,291,303,1
320,305,291,307,1
317,307,294,313,1
311,310,298,318,1
305,312,305,322,1
303,314,313,324,1
304,315,318,323,1
306,316,320,320,1
309,317,320,316,1
312,318,317,313,1
315,319,314,311,1
316,318,313,312,1
313,317,313,314,1
308,317,317,315,1
301,317,321,314,1
295,316,325,310,1
293,314,325,305,1
299,311,322,302,1
309,308,316,303,1
315,306,310,306,1
317,304,305,310,1
314,303,303,313,1
309,304,306,315,1
302,304,310,313,1
295,305,316,307,1
287,305,319,300,1
281,306,321,294,1
278,306,321,290,1
277,306,319,287,1
279,307,318,286,1
285,308,318,286,1
295,309,318,288,1
309,308,316,289,1
322,308,315,292,1
331,307,314,297,1
334,307,314,303,1
333,308,315,309,1
330,308,316,312,1
329,308,318,315,1
330,308,320,319,1
328,308,321,322,1
325,307,321,321,1
321,307,320,316,1
319,306,318,310,1
316,306,317,306,1
313,306,315,301,1
310,306,314,295,1
306,307,312,289,1
301,308,310,285,1
296,309,306,283,1
291,310,303,286,1
289,310,300,290,1
287,310,298,294,1
286,311,297,298,1
285,311,292,300,1
290,310,285,300,1
300,309,278,300,1
308,309,273,302,1
316,308,274,305,1
322,309,281,309,1
327,310,294,314,1
331,310,306,317,1
330,309,314,317,1
321,307,318,315,1
307,306,320,314,1
294,305,321,311,1
286,305,322,308,1
280,306,323,306,1
274,307,324,305,1
269,309,324,306,1
266,310,324,306,1
265,312,322,307,1
266,313,320,305,1
269,314,317,302,1
277,314,313,301,1
286,313,308,299,1
296,311,305,299,1
307,309,304,301,1
319,307,305,306,1
328,306,308,312,1
335,305,311,317,1
340,305,315,318,1
342,305,317,317,1
339,306,317,312,1
332,307,317,307,1
325,309,316,303,1
318,310,314,299,1
314,311,314,298,1
314,313,314,300,1
314,314,315,304,1
310,315,316,307,1
304,315,317,310,1
300,316,317,312,1
296,317,316,313,1
292,316,314,310,1
288,313,311,305,1
285,309,308,298,1
281,305,306,293,1
278,302,304,289,1
272,299,300,287,1
270,298,298,287,1
276,298,299,288,1
288,299,302,290,1
302,302,305,295,1
312,304,308,301,1
319,306,306,307,1
324,308,304,311,1
328,309,302,314,1
330,310,300,317,1
329,311,296,319,1
325,311,291,321,1
317,311,283,322,1
307,311,276,324,1
299,310,272,326,1
296,309,275,327,1
297,308,285,326,1
302,308,298,326,1
307,306,311,325,1
311,306,322,326,1
313,305,328,326,1
314,305,330,325,1
314,305,329,324,1
311,304,326,323,1
305,304,324,320,1
298,304,322,314,1
291,303,321,306,1
285,304,320,300,1
280,304,318,297,1
278,305,317,294,1
278,305,316,291,1
281,305,314,288,1
289,305,311,286,1
302,305,309,285,1
319,306,307,285,1
333,306,307,286,1
339,306,306,289,1
338,305,305,292,1
332,304,303,293,1
322,303,302,293,1
309,302,301,291,1
296,301,301,290,1
290,302,302,290,1
290,304,304,291,1
290,307,307,290,1
291,309,309,289,1
295,312,310,288,1
300,314,310,286,1
303,314,310,284,1
306,313,309,282,1
308,312,309,282,1
312,311,309,284,1
316,311,308,288,1
321,310,309,294,1
324,309,310,299,1
323,307,308,304,1
317,305,305,310,1
307,303,299,316,1
297,303,292,322,1
287,304,284,328,1
283,305,275,333,1
285,306,268,338,1
290,308,267,343,1
296,310,273,348,1
303,313,284,352,1
310,316,297,351,1
314,318,307,344,1
314,318,313,334,1
312,315,316,325,1
309,312,318,318,1
306,309,319,311,1
303,306,321,303,1
300,303,323,294,1
299,302,323,286,1
299,302,323,281,1
302,302,322,278,1
306,301,320,279,1
310,300,317,280,1
312,297,313,281,1
312,295,307,282,1
311,294,303,284,1
310,294,303,286,1
306,295,304,289,1
303,297,307,294,1
298,300,308,298,1
291,302,309,303,1
287,304,309,308,1
287,307,310,314,1
292,309,311,318,1
296,310,312,320,1
299,310,312,319,1
298,309,309,317,1
298,307,306,317,1
298,306,304,318,1
296,305,302,317,1
295,304,299,313,1
297,302,296,308,1
301,302,292,304,1
303,301,288,301,1
304,302,286,300,1
305,301,287,301,1
304,302,290,303,1
302,302,295,306,1
299,303,299,307,1
298,303,301,308,1
300,303,303,309,1
304,304,304,309,1
310,305,304,309,1
316,307,305,307,1
319,308,306,304,1
319,308,307,300,1
317,308,308,297,1
315,308,308,296,1
313,308,307,297,1
310,308,303,298,1
307,307,296,299,1
304,306,290,300,1
300,304,285,301,1
295,302,284,304,1
291,300,288,306,1
290,299,293,306,1
289,298,298,305,1
288,298,302,303,1
288,299,306,302,1
291,300,308,300,1
295,302,309,298,1
301,305,309,299,1
305,309,309,302,1
308,311,308,305,1
310,314,303,309,1
311,315,297,313,1
311,316,292,316,1
312,317,290,318,1
313,317,290,320,1
314,316,291,321,1
312,315,295,323,1
305,312,300,325,1
297,309,304,325,1
297,305,308,323,1
302,303,310,320,1
308,300,311,313,1
311,298,309,308,1
311,298,308,303,1
308,299,305,301,1
300,301,303,298,1
291,302,301,296,1
285,305,300,297,1
289,307,298,299,1
299,309,298,306,1
306,311,297,315,1
307,312,297,323,1
305,313,296,329,1
303,313,296,331,1
304,313,297,331,1
305,313,297,330,1
306,313,296,328,1
306,310,293,324,1
306,307,289,322,1
306,304,286,323,1
307,302,285,326,1
308,301,286,330,1
307,301,289,331,1
305,301,293,329,1
302,301,297,326,1
297,303,298,322,1
290,304,298,318,1
285,306,299,315,1
288,308,301,313,1
295,310,304,312,1
303,311,305,312,1
309,312,302,313,1
313,312,296,315,1
315,311,290,316,1
314,309,285,313,1
313,306,283,309,1
313,304,285,304,1
315,301,291,302,1
319,298,296,301,1
324,294,299,301,1
328,292,296,302,1
328,293,290,304,1
325,294,285,305,1
320,296,281,305,1
314,298,280,304,1
307,300,283,303,1
302,303,288,302,1
297,305,295,299,1
294,307,300,295,1
291,308,304,291,1
290,309,307,289,1
293,309,309,289,1
297,309,309,292,1
299,309,308,296,1
301,310,307,300,1
300,310,307,303,1
300,309,306,304,1
298,308,305,305,1
294,307,302,306,1
295,306,299,306,1
301,305,298,307,1
308,304,297,307,1
312,303,297,308,1
312,301,297,308,1
310,300,295,306,1
307,300,292,305,1
307,300,288,304,1
308,302,285,305,1
309,304,285,310,1
309,307,288,318,1
309,309,294,327,1
307,311,299,337,1
305,311,304,344,1
303,308,308,348,1
302,305,311,351,1
303,303,313,350,1
302,300,312,346,1
300,298,310,341,1
299,298,309,337,1
298,298,306,331,1
301,297,303,326,1
309,297,303,323,1
318,298,302,324,1
324,299,299,326,1
325,302,296,324,1
322,305,295,319,1
319,307,295,312,1
316,309,297,303,1
312,309,300,293,1
310,308,302,284,1
308,306,303,276,1
307,305,306,270,1
305,303,308,267,1
302,302,309,267,1
299,301,309,271,1
297,300,307,277,1
300,299,306,288,1
305,299,304,302,1
310,300,302,319,1
311,299,301,336,1
311,299,304,352,1
311,300,307,364,1
310,302,311,372,1
308,304,313,374,1
307,307,314,370,1
304,310,310,361,1
299,313,305,352,1
294,317,298,347,1
288,320,294,349,1
287,322,292,355,1
290,322,294,362,1
298,320,298,369,1
306,317,303,375,1
315,314,308,382,1
322,311,312,387,1
326,306,314,385,1
324,301,314,378,1
320,297,313,367,1
314,294,312,352,1
306,293,312,337,1
299,294,313,331,1
294,295,315,336,1
291,297,317,347,1
290,299,319,360,1
292,299,320,369,1
295,298,321,369,1
300,298,320,365,1
304,300,319,357,1
304,302,318,344,1
303,305,315,331,1
300,306,311,319,1
298,307,308,311,1
295,307,306,307,1
293,306,305,305,1
290,306,305,310,1
288,307,307,322,1
286,309,309,344,1
283,312,311,373,1
281,315,309,406,1
284,318,304,434,1
294,321,300,455,1
307,323,298,467,1
320,323,297,462,1
331,321,300,431,1
335,315,302,378,1
329,306,304,321,1
318,297,305,275,1
304,290,304,249,1
292,288,303,236,1
284,288,304,229,1
284,290,305,224,1
289,292,305,220,1
295,294,304,215,1
298,295,301,212,1
297,295,299,211,1
297,294,301,213,1
296,293,303,218,1
299,291,304,223,1
307,289,303,228,1
314,287,301,233,1
317,286,298,236,1
317,286,297,240,1
315,286,298,244,1
312,286,300,247,1
308,288,303,252,1
303,290,303,256,1
299,293,302,260,1
297,295,301,264,1
299,298,301,267,1
302,300,302,271,1
304,302,306,275,1
305,304,311,280,1
305,304,315,285,1
305,304,318,288,1
303,303,318,289,1
302,302,316,290,1
299,300,314,291,1
296,298,311,292,1
294,296,310,294,1
288,293,305,295,1
281,291,299,296,1
274,288,292,296,1
274,287,290,296,1
285,288,292,296,1
300,292,298,295,1
314,296,306,295,1
320,299,313,294,1
321,302,320,293,1
322,304,325,293,1
324,305,328,293,1
329,305,328,294,1
334,304,327,295,1
337,304,324,297,1
336,303,318,300,1
331,303,311,303,1
323,302,306,306,1
314,301,304,307,1
304,299,304,306,1
297,298,304,308,1
293,296,304,310,1
293,296,305,313,1
297,297,307,315,1
305,297,309,314,1
313,298,309,312,1
318,297,308,310,1
319,297,307,308,1
315,297,305,307,1
311,298,301,305,1
309,298,297,304,1
307,299,296,302,1
307,300,295,300,1
306,302,297,299,1
307,303,298,299,1
308,304,300,301,1
309,304,302,306,1
308,303,302,311,1
306,301,299,313,1
302,299,296,312,1
294,297,294,308,1
286,295,294,305,1
287,295,297,303,1
293,295,300,305,1
299,297,303,309,1
304,298,305,315,1
307,301,308,322,1
312,304,312,330,1
317,308,317,336,1
323,312,319,338,1
324,313,317,334,1
321,312,311,323,1
315,309,304,311,1
306,306,299,301,1
299,304,298,294,1
296,301,301,290,1
298,299,304,288,1
303,296,305,287,1
308,295,304,287,1
308,292,302,288,1
301,290,298,287,1
290,288,293,284,1
281,287,289,280,1
278,287,286,277,1
280,288,285,276,1
286,291,287,280,1
292,294,290,285,1
296,298,294,290,1
295,303,298,293,1
296,308,303,292,1
301,311,307,290,1
307,312,310,291,1
310,312,310,293,1
310,311,309,296,1
308,309,307,299,1
305,307,304,300,1
305,305,301,301,1
309,303,299,300,1
317,301,297,298,1
326,299,295,296,1
333,297,292,294,1
336,296,288,294,1
331,295,281,295,1
320,295,276,296,1
308,296,273,299,1
295,298,275,302,1
288,300,280,306,1
291,302,287,311,1
297,304,294,314,1
303,306,299,318,1
305,308,301,321,1
304,310,299,323,1
301,312,296,323,1
297,312,293,324,1
297,312,292,327,1
301,310,293,331,1
307,309,296,335,1
309,308,299,339,1
308,307,299,340,1
307,306,299,337,1
307,305,298,331,1
312,305,297,324,1
318,305,295,316,1
323,306,295,308,1
326,306,296,301,1
328,305,296,296,1
329,306,293,292,1
331,306,290,288,1
333,307,287,284,1
331,308,286,282,1
326,309,289,282,1
318,310,294,286,1
308,310,299,291,1
299,311,301,300,1
292,312,300,311,1
286,312,296,321,1
281,311,291,328,1
281,311,289,332,1
289,311,291,333,1
303,310,295,330,1
322,308,299,324,1
338,306,302,319,1
348,304,304,313,1
352,302,303,307,1
348,300,301,301,1
338,298,298,296,1
324,298,297,292,1
311,299,298,288,1
301,301,301,284,1
294,304,304,282,1
288,305,307,282,1
283,306,310,282,1
282,305,312,283,1
283,305,313,284,1
287,304,314,288,1
292,304,314,292,1
300,304,312,297,1
307,304,306,300,1
309,303,298,301,1
308,301,291,298,1
307,299,287,294,1
308,297,286,291,1
312,296,289,291,1
318,296,295,293,1
320,296,300,297,1
319,296,304,301,1
317,297,305,306,1
315,300,305,312,1
312,303,304,316,1
308,306,304,320,1
306,310,304,323,1
305,311,305,326,1
304,312,306,326,1
305,312,306,323,1
306,312,305,319,1
307,310,303,314,1
307,309,299,308,1
307,307,294,303,1
306,305,291,299,1
304,302,289,297,1
303,299,289,297,1
305,297,291,298,1
310,295,296,301,1
318,295,301,305,1
325,296,306,310,1
328,298,309,315,1
327,300,311,321,1
320,304,313,327,1
308,307,313,332,1
293,310,312,336,1
281,310,309,338,1
275,310,306,338,1
274,310,304,337,1
275,310,304,336,1
278,311,305,335,1
285,313,306,332,1
292,315,305,326,1
300,314,303,317,1
308,311,300,308,1
317,309,299,300,1
324,306,299,293,1
330,304,302,287,1
334,303,305,284,1
339,302,309,283,1
343,302,313,284,1
345,303,315,284,1
344,303,318,284,1
338,305,320,285,1
327,307,321,286,1
314,310,321,287,1
303,312,321,290,1
296,313,320,294,1
293,314,319,298,1
291,315,317,301,1
290,314,315,302,1
289,313,313,304,1
289,311,313,308,1
291,310,314,314,1
295,309,314,320,1
301,308,314,324,1
309,307,311,325,1
316,306,303,323,1
321,305,295,319,1
321,305,289,313,1
318,305,288,308,1
314,306,291,305,1
312,307,297,304,1
314,308,306,304,1
319,309,315,303,1
325,309,321,304,1
330,310,322,305,1
332,310,320,304,1
328,309,316,301,1
321,309,313,298,1
317,307,312,297,1
315,306,316,298,1
315,304,321,301,1
313,302,325,303,1
311,301,326,304,1
307,299,325,303,1
303,299,322,301,1
299,299,317,297,1
302,299,312,293,1
310,301,309,289,1
316,302,306,288,1
314,302,306,289,1
307,304,311,291,1
302,305,318,295,1
302,306,324,299,1
305,307,328,302,1
314,308,330,303,1
322,309,329,303,1
323,309,328,301,1
317,309,326,299,1
306,309,325,296,1
295,310,324,294,1
289,311,324,293,1
287,312,322,292,1
288,312,321,292,1
294,311,318,291,1
299,310,316,290,1
303,309,313,289,1
