301,308,304,299,2
300,307,304,301,2
299,306,304,305,2
297,304,300,309,2
296,303,296,312,2
294,301,291,314,2
293,299,287,314,2
292,299,287,315,2
293,301,291,315,2
296,303,297,315,2
298,305,302,314,2
300,307,308,315,2
304,308,315,317,2
309,310,321,321,2
311,312,325,325,2
310,313,327,326,2
312,313,327,325,2
318,312,326,322,2
323,311,326,318,2
326,310,325,313,2
324,309,324,308,2
319,307,320,301,2
313,305,314,294,2
310,303,305,287,2
309,300,297,282,2
310,298,290,278,2
311,297,286,278,2
312,297,285,279,2
310,297,288,280,2
308,299,295,280,2
307,301,302,281,2
307,303,308,282,2
309,304,312,285,2
310,306,316,288,2
311,307,319,291,2
311,306,321,293,2
308,306,321,293,2
303,306,321,292,2
299,306,319,288,2
296,305,317,285,2
295,304,316,285,2
295,304,315,286,2
296,304,315,289,2
297,304,313,292,2
298,304,311,295,2
299,304,310,296,2
301,304,309,296,2
303,305,308,296,2
306,305,308,297,2
308,307,308,298,2
309,309,307,298,2
309,311,305,299,2
308,312,304,299,2
307,313,303,299,2
305,313,303,299,2
303,313,304,298,2
301,312,304,296,2
301,311,306,296,2
302,310,307,298,2
302,309,307,301,2
302,307,307,305,2
301,305,306,308,2
300,303,305,311,2
301,302,301,311,2
301,301,297,308,2
300,300,292,302,2
300,299,289,295,2
299,300,289,290,2
299,302,294,289,2
296,304,300,291,2
291,306,306,295,2
286,308,311,300,2
285,310,314,305,2
287,311,316,309,2
290,312,317,312,2
294,312,316,311,2
297,312,314,308,2
300,311,311,304,2
300,310,309,300,2
299,309,307,296,2
297,307,306,292,2
301,305,304,289,2
310,303,302,287,2
319,301,301,285,2
327,299,300,285,2
332,298,298,286,2
335,297,293,289,2
333,298,289,295,2
329,300,284,303,2
322,302,282,311,2
316,305,284,317,2
313,308,292,320,2
313,311,299,321,2
315,312,304,319,2
317,313,306,319,2
318,312,308,320,2
317,312,308,320,2
315,312,306,319,2
309,310,304,315,2
303,309,301,309,2
300,307,299,304,2
300,304,298,298,2
301,302,298,293,2
304,300,300,287,2
309,298,304,283,2
311,297,310,281,2
309,297,315,282,2
306,298,317,286,2
302,299,318,290,2
300,302,320,293,2
298,306,321,296,2
297,308,321,297,2
297,310,320,297,2
296,310,319,296,2
296,311,317,295,2
296,310,315,294,2
296,310,314,292,2
297,309,312,290,2
298,308,310,290,2
299,307,307,292,2
300,305,305,294,2
302,304,302,297,2
306,301,300,301,2
311,299,301,305,2
315,297,303,309,2
318,297,306,312,2
319,297,308,315,2
317,299,311,317,2
315,301,314,319,2
313,304,316,319,2
310,307,316,318,2
307,309,316,317,2
304,311,317,318,2
301,313,319,318,2
298,313,319,316,2
294,313,319,315,2
290,313,317,314,2
288,313,313,314,2
288,313,308,314,2
290,312,303,313,2
290,311,299,309,2
290,309,297,302,2
293,306,297,295,2
298,303,299,288,2
301,300,301,283,2
303,297,301,278,2
304,295,300,275,2
306,294,301,274,2
308,295,302,278,2
309,296,305,284,2
311,298,307,290,2
311,300,308,294,2
312,302,307,297,2
313,303,304,298,2
316,304,303,298,2
318,305,304,296,2
319,305,307,293,2
318,304,310,289,2
318,303,311,285,2
317,302,311,281,2
315,301,311,276,2
311,299,310,273,2
308,299,309,273,2
309,299,308,276,2
312,299,306,283,2
315,299,305,291,2
319,300,303,299,2
321,301,301,304,2
320,303,297,308,2
318,305,294,312,2
313,307,291,314,2
307,310,291,316,2
302,312,295,315,2
298,313,302,314,2
296,314,310,312,2
295,313,315,311,2
294,313,317,309,2
295,312,316,308,2
295,311,312,306,2
296,310,307,306,2
296,309,303,305,2
298,308,302,306,2
301,306,304,308,2
304,305,308,310,2
306,304,313,313,2
307,303,317,316,2
306,303,321,316,2
305,303,323,316,2
304,304,323,314,2
304,305,323,313,2
303,306,321,310,2
304,307,316,307,2
306,307,311,304,2
306,307,306,302,2
305,308,303,299,2
304,308,301,297,2
303,309,301,294,2
301,309,301,291,2
297,308,301,288,2
292,307,300,286,2
292,305,300,285,2
296,304,303,285,2
300,302,307,286,2
304,301,311,286,2
306,300,314,288,2
307,299,316,290,2
308,299,319,293,2
312,300,321,296,2
316,302,324,300,2
319,305,325,303,2
320,308,326,307,2
318,311,325,309,2
316,312,324,311,2
311,312,322,312,2
307,312,319,313,2
305,312,317,314,2
305,312,315,314,2
308,311,312,315,2
314,310,310,315,2
320,308,308,314,2
323,306,306,311,2
322,305,305,308,2
317,304,304,305,2
312,303,304,304,2
309,302,304,303,2
310,301,305,303,2
313,300,305,302,2
317,300,304,301,2
320,301,304,299,2
321,303,302,296,2
319,304,302,293,2
317,306,302,288,2
315,307,303,286,2
314,309,304,284,2
313,310,305,284,2
312,311,305,286,2
309,311,305,290,2
307,311,305,295,2
305,312,308,301,2
304,311,311,305,2
304,311,312,308,2
305,309,309,310,2
306,307,305,313,2
307,305,301,315,2
307,304,298,318,2
307,303,298,321,2
308,303,302,324,2
310,304,308,328,2
311,305,314,331,2
313,307,317,332,2
314,309,320,331,2
313,311,321,329,2
312,313,320,326,2
311,314,320,321,2
311,314,319,316,2
312,314,315,310,2
314,314,312,304,2
317,313,309,298,2
317,312,306,290,2
313,310,305,283,2
306,308,305,277,2
298,305,306,273,2
292,304,307,272,2
290,302,309,273,2
289,301,311,276,2
289,301,312,281,2
294,301,313,286,2
303,302,313,292,2
310,304,313,297,2
314,305,312,301,2
313,307,311,302,2
312,309,310,301,2
308,310,310,298,2
303,310,310,294,2
298,310,309,291,2
294,309,308,288,2
295,308,308,285,2
298,307,308,283,2
302,307,308,283,2
306,307,308,282,2
308,306,309,282,2
309,305,309,282,2
307,304,306,286,2
304,303,303,293,2
300,302,299,301,2
298,301,300,308,2
301,301,304,313,2
307,302,308,317,2
314,305,312,321,2
320,307,313,326,2
324,310,314,330,2
326,313,312,334,2
324,315,310,336,2
321,316,307,336,2
317,315,305,332,2
313,314,303,323,2
308,312,303,312,2
305,310,304,302,2
301,308,306,295,2
298,306,307,291,2
295,304,308,290,2
293,302,309,292,2
292,300,310,295,2
292,300,310,299,2
295,299,311,305,2
299,299,311,313,2
303,299,311,322,2
305,299,310,329,2
306,300,309,334,2
308,302,309,336,2
308,305,310,333,2
308,306,312,328,2
305,307,313,321,2
303,307,313,312,2
301,307,313,302,2
299,306,313,294,2
298,305,312,287,2
297,304,311,282,2
296,303,310,278,2
294,302,309,274,2
291,301,308,271,2
288,300,306,269,2
286,299,305,268,2
285,298,305,270,2
285,296,305,273,2
287,296,305,277,2
290,296,306,282,2
292,297,308,287,2
295,298,309,292,2
297,301,311,297,2
299,304,310,301,2
301,306,308,304,2
305,307,305,306,2
310,309,300,308,2
314,310,295,311,2
316,311,288,313,2
316,312,283,313,2
315,311,280,310,2
314,310,280,307,2
314,308,285,304,2
317,306,295,301,2
320,305,306,298,2
323,303,315,297,2
323,302,321,297,2
321,300,323,297,2
316,299,324,298,2
311,299,324,302,2
306,300,324,307,2
302,302,325,313,2
297,303,325,318,2
293,305,322,323,2
292,307,319,327,2
295,309,316,329,2
302,310,313,329,2
307,310,310,328,2
309,310,308,327,2
307,310,307,326,2
304,310,308,324,2
300,308,309,319,2
299,307,308,311,2
300,305,307,305,2
302,304,306,299,2
304,302,306,295,2
308,300,306,292,2
311,298,307,290,2
313,297,307,289,2
314,296,308,289,2
313,296,308,290,2
312,298,309,292,2
311,301,311,296,2
309,304,312,302,2
306,307,313,307,2
304,310,313,311,2
302,311,313,313,2
301,311,311,313,2
300,310,309,310,2
301,309,307,308,2
301,307,306,306,2
304,306,303,305,2
306,306,300,305,2
309,305,297,305,2
310,304,293,304,2
311,303,290,301,2
311,301,288,299,2
312,299,288,295,2
313,298,291,293,2
314,297,294,293,2
313,297,296,293,2
308,297,298,293,2
300,298,300,293,2
292,300,305,293,2
287,302,308,294,2
282,304,311,294,2
278,306,313,294,2
278,306,313,293,2
283,306,313,292,2
289,306,313,291,2
293,306,312,292,2
295,306,311,294,2
296,306,308,297,2
297,307,306,299,2
299,306,304,301,2
303,305,303,302,2
306,303,304,303,2
307,302,304,304,2
308,302,306,303,2
308,302,307,302,2
310,303,308,301,2
313,304,310,301,2
315,306,312,303,2
317,309,313,307,2
316,311,311,311,2
314,313,305,316,2
311,314,295,321,2
308,315,285,327,2
307,316,279,331,2
306,317,278,333,2
306,318,283,333,2
305,318,293,331,2
305,318,305,328,2
307,316,314,321,2
309,313,319,313,2
310,309,322,303,2
310,305,322,295,2
311,301,321,288,2
312,297,319,283,2
313,296,318,281,2
314,295,318,284,2
315,297,318,290,2
315,300,319,299,2
314,304,320,310,2
311,307,320,321,2
306,310,318,329,2
301,313,316,330,2
298,314,314,326,2
295,314,313,319,2
294,313,311,310,2
293,312,310,301,2
292,311,310,295,2
291,311,310,290,2
291,310,310,289,2
291,309,310,289,2
292,308,309,291,2
293,307,308,294,2
295,306,307,298,2
298,306,306,303,2
301,307,304,308,2
305,308,305,312,2
310,310,305,316,2
314,312,304,319,2
315,315,302,319,2
314,316,300,316,2
311,317,298,312,2
307,316,298,307,2
303,316,299,302,2
299,315,303,298,2
296,314,308,295,2
294,314,312,292,2
293,313,316,290,2
294,312,318,289,2
295,310,320,289,2
295,309,320,290,2
295,306,319,291,2
295,304,318,293,2
295,302,316,294,2
294,301,315,296,2
293,300,314,297,2
293,301,313,297,2
294,301,313,296,2
293,302,313,295,2
291,304,312,294,2
292,305,312,293,2
298,306,311,294,2
304,308,310,295,2
309,309,308,295,2
312,310,306,295,2
314,309,304,294,2
314,308,303,294,2
313,308,302,294,2
313,307,298,295,2
311,307,290,296,2
309,306,282,299,2
309,306,276,301,2
310,306,273,303,2
313,306,277,304,2
315,305,288,305,2
316,305,301,305,2
317,305,313,307,2
315,305,323,310,2
311,306,330,313,2
306,308,334,315,2
301,309,335,316,2
295,310,334,317,2
291,311,332,316,2
290,311,330,312,2
292,310,327,305,2
299,309,322,299,2
308,308,318,295,2
313,308,313,296,2
315,308,309,300,2
314,308,305,305,2
315,308,301,310,2
315,308,297,313,2
316,307,293,314,2
316,306,290,312,2
315,304,290,308,2
315,304,293,305,2
314,305,298,305,2
313,307,305,307,2
311,310,311,310,2
308,312,315,312,2
305,313,318,312,2
303,314,319,310,2
301,314,318,306,2
299,313,316,302,2
298,313,314,300,2
299,313,311,299,2
299,313,309,299,2
300,313,307,300,2
303,313,305,302,2
305,314,304,305,2
308,314,305,309,2
309,312,306,313,2
310,310,307,318,2
310,308,306,322,2
310,306,304,324,2
309,305,302,326,2
308,305,301,327,2
306,306,302,327,2
303,307,305,325,2
300,309,309,320,2
301,311,312,314,2
306,313,314,307,2
310,314,316,300,2
311,314,316,293,2
310,313,316,284,2
308,313,314,277,2
305,312,313,273,2
304,311,311,271,2
303,310,309,272,2
301,310,308,273,2
300,309,307,274,2
301,307,308,277,2
301,305,310,279,2
301,303,312,282,2
302,302,313,285,2
303,301,314,289,2
304,301,314,292,2
306,303,314,296,2
307,305,314,301,2
308,307,315,305,2
307,309,315,308,2
306,311,314,311,2
304,312,314,312,2
303,312,313,313,2
302,313,312,314,2
301,313,308,314,2
302,312,302,313,2
302,312,293,313,2
303,312,285,316,2
304,312,278,321,2
305,311,275,328,2
306,309,278,334,2
308,307,288,338,2
310,305,297,338,2
311,304,306,336,2
311,303,313,330,2
312,303,317,324,2
311,303,319,320,2
306,304,321,319,2
300,305,322,317,2
299,305,324,314,2
304,306,324,310,2
312,306,323,303,2
318,305,322,293,2
321,304,318,283,2
321,302,314,274,2
319,301,310,270,2
315,300,308,270,2
311,300,308,273,2
309,301,308,278,2
307,302,309,284,2
306,301,308,289,2
306,301,309,295,2
307,301,310,300,2
308,301,313,304,2
310,302,315,308,2
311,304,317,308,2
311,305,317,307,2
309,306,317,304,2
306,308,316,301,2
304,308,315,300,2
303,309,314,299,2
303,310,312,298,2
303,310,310,298,2
303,309,307,297,2
302,308,303,296,2
303,307,299,294,2
303,307,295,292,2
301,306,293,289,2
299,305,291,285,2
297,303,290,281,2
296,300,289,279,2
297,298,289,279,2
297,296,288,282,2
297,296,289,285,2
300,295,290,288,2
309,295,294,291,2
319,295,300,293,2
325,297,306,295,2
328,299,311,296,2
326,302,313,296,2
321,304,314,295,2
316,306,315,295,2
312,307,316,296,2
309,308,316,299,2
307,309,315,301,2
306,309,313,305,2
305,309,311,308,2
305,308,310,310,2
305,307,309,312,2
305,306,308,314,2
306,304,307,315,2
307,302,306,314,2
307,301,305,311,2
307,300,303,306,2
306,300,302,303,2
305,301,301,300,2
305,302,302,300,2
304,303,303,301,2
304,306,304,303,2
306,309,304,306,2
308,311,301,309,2
311,313,294,313,2
313,314,286,318,2
315,315,279,323,2
314,316,276,327,2
312,316,276,329,2
308,316,282,330,2
304,315,290,331,2
300,314,297,332,2
298,312,302,333,2
303,311,307,335,2
312,310,310,336,2
320,308,313,337,2
324,306,317,338,2
327,306,321,341,2
328,305,324,343,2
327,305,326,344,2
324,306,328,343,2
320,307,328,339,2
317,308,327,332,2
316,309,325,322,2
316,309,321,310,2
317,308,317,299,2
318,306,315,290,2
319,305,313,285,2
319,304,312,282,2
316,302,310,280,2
311,301,308,278,2
304,300,305,277,2
297,299,302,275,2
287,297,299,273,2
277,295,296,271,2
270,293,294,271,2
271,293,293,273,2
276,293,294,275,2
282,294,295,280,2
289,296,299,284,2
296,298,302,288,2
302,300,305,292,2
307,301,306,295,2
310,302,307,296,2
312,304,307,297,2
313,305,307,297,2
313,306,306,295,2
313,307,305,292,2
313,307,305,289,2
314,306,304,288,2
315,305,305,289,2
316,305,305,292,2
317,305,306,297,2
317,304,306,303,2
316,303,306,310,2
315,302,305,317,2
314,302,302,323,2
313,302,299,328,2
313,303,297,332,2
314,304,295,336,2
316,306,295,337,2
317,307,296,335,2
317,309,299,330,2
316,309,302,323,2
314,310,306,314,2
311,309,306,305,2
305,308,305,294,2
300,307,303,286,2
296,306,301,278,2
295,305,297,272,2
296,304,292,268,2
300,304,289,266,2
305,303,288,268,2
310,302,289,272,2
315,301,292,278,2
319,299,297,285,2
322,299,304,293,2
321,300,310,300,2
317,301,311,306,2
310,303,308,310,2
302,305,304,311,2
295,308,302,315,2
290,310,301,319,2
290,313,304,322,2
295,314,310,324,2
302,315,314,324,2
308,316,316,323,2
312,316,318,323,2
314,315,319,323,2
314,314,319,323,2
314,313,318,321,2
314,312,315,318,2
313,309,313,311,2
313,305,311,302,2
312,301,307,293,2
311,297,302,284,2
310,295,297,279,2
311,293,294,275,2
312,293,295,273,2
315,295,298,273,2
317,297,302,273,2
317,300,305,274,2
315,302,308,274,2
310,305,308,275,2
301,306,306,276,2
291,306,303,278,2
283,307,300,280,2
276,308,297,284,2
273,308,296,288,2
274,308,297,293,2
282,308,300,298,2
293,308,303,304,2
302,308,305,310,2
310,308,307,315,2
315,306,309,319,2
318,304,309,323,2
318,303,309,326,2
317,302,309,329,2
315,302,309,330,2
314,302,310,331,2
312,303,310,331,2
311,305,310,330,2
308,307,309,328,2
306,309,307,326,2
305,310,306,323,2
304,310,306,321,2
303,311,305,320,2
303,311,305,319,2
303,310,306,319,2
303,310,307,318,2
305,309,307,315,2
307,308,307,310,2
310,306,306,303,2
312,303,304,294,2
314,300,303,286,2
314,296,301,280,2
312,294,297,277,2
310,293,293,277,2
307,294,287,281,2
306,295,283,288,2
305,298,282,296,2
305,301,280,302,2
304,304,277,304,2
301,304,275,302,2
299,305,276,299,2
299,305,282,296,2
297,305,292,296,2
295,306,303,299,2
292,306,314,305,2
294,307,322,312,2
301,308,326,317,2
307,308,327,319,2
311,308,326,321,2
313,308,323,322,2
315,306,319,324,2
316,305,315,326,2
317,304,312,326,2
319,304,310,323,2
320,303,310,319,2
319,304,312,313,2
318,304,314,306,2
315,305,316,299,2
312,306,317,291,2
308,305,316,285,2
305,304,315,282,2
303,303,314,281,2
302,302,314,281,2
301,302,313,282,2
301,302,313,281,2
302,302,312,280,2
304,302,312,279,2
306,301,311,278,2
308,300,309,279,2
311,300,305,281,2
313,299,300,285,2
315,297,295,288,2
315,296,291,292,2
316,295,290,295,2
315,295,292,297,2
314,296,294,299,2
309,297,298,300,2
306,299,305,299,2
307,301,310,298,2
308,303,314,296,2
308,304,315,294,2
306,305,315,291,2
304,305,313,288,2
303,305,312,286,2
301,305,311,284,2
298,304,310,283,2
296,303,309,282,2
294,302,308,282,2
295,302,306,283,2
297,301,306,284,2
300,301,305,286,2
303,300,306,289,2
307,301,307,294,2
310,301,310,300,2
313,303,313,307,2
315,304,316,316,2
316,307,319,324,2
316,309,321,330,2
315,310,321,333,2
314,311,321,332,2
312,311,320,328,2
311,311,318,323,2
310,310,317,318,2
309,309,315,313,2
308,309,314,308,2
307,308,312,303,2
307,307,312,298,2
308,306,311,294,2
309,305,310,291,2
311,304,309,291,2
314,303,304,294,2
318,303,295,299,2
321,302,282,307,2
324,301,269,315,2
323,302,259,325,2
319,303,256,335,2
313,304,264,343,2
307,307,278,348,2
306,308,294,347,2
311,309,307,340,2
314,309,316,331,2
314,309,321,320,2
312,308,325,309,2
309,308,328,297,2
306,307,329,286,2
304,305,329,276,2
303,303,328,269,2
302,301,326,266,2
302,299,323,264,2
302,297,320,264,2
303,295,317,266,2
304,295,315,268,2
306,294,315,273,2
309,295,316,280,2
311,297,318,288,2
312,299,319,297,2
313,302,321,306,2
313,304,322,313,2
312,307,322,318,2
312,309,322,322,2
310,310,321,323,2
308,311,321,323,2
305,311,321,322,2
303,310,320,320,2
299,309,318,318,2
292,307,314,316,2
289,306,311,314,2
294,304,308,311,2
303,302,306,307,2
313,300,305,302,2
321,298,306,297,2
329,296,308,292,2
334,295,311,287,2
337,295,311,284,2
337,295,310,283,2
334,295,308,283,2
326,297,306,284,2
318,299,305,285,2
310,301,305,286,2
305,302,306,287,2
301,304,307,288,2
297,305,307,290,2
293,306,307,292,2
290,308,308,294,2
288,309,310,297,2
287,309,312,300,2
288,309,313,301,2
289,308,312,299,2
292,306,310,298,2
295,304,308,299,2
299,303,308,302,2
302,302,308,305,2
305,302,309,311,2
308,302,311,318,2
311,304,314,327,2
313,306,316,339,2
314,309,319,349,2
315,312,320,356,2
315,315,321,360,2
314,317,321,359,2
312,318,319,355,2
310,318,318,346,2
308,316,315,332,2
307,314,311,315,2
307,312,306,298,2
308,310,299,281,2
309,307,292,269,2
311,306,286,260,2
313,304,282,256,2
313,302,276,255,2
313,301,270,257,2
309,299,266,262,2
305,299,267,267,2
301,299,272,273,2
299,300,281,278,2
299,301,292,283,2
302,304,300,288,2
305,307,307,291,2
307,309,315,294,2
306,310,322,295,2
304,311,329,297,2
302,311,333,301,2
300,312,334,306,2
299,312,334,311,2
299,313,332,315,2
299,313,330,317,2
300,313,327,320,2
300,312,324,322,2
301,311,322,323,2
300,309,320,324,2
299,307,318,325,2
297,305,317,325,2
295,304,316,322,2
293,303,316,316,2
292,302,315,311,2
294,302,313,306,2
299,303,312,302,2
304,305,310,298,2
306,306,307,294,2
304,307,304,289,2
305,308,301,287,2
307,309,299,288,2
309,310,298,291,2
308,311,299,295,2
305,312,302,299,2
305,313,305,301,2
306,312,307,301,2
308,311,308,300,2
311,309,307,297,2
312,307,306,293,2
313,304,306,290,2
312,302,307,289,2
311,301,309,291,2
310,301,312,295,2
310,302,315,300,2
311,304,317,306,2
311,306,318,311,2
310,308,318,313,2
309,309,316,312,2
308,309,313,310,2
307,309,311,306,2
305,309,308,300,2
304,309,306,293,2
303,309,305,288,2
303,309,305,287,2
302,309,304,290,2
304,308,304,295,2
306,307,303,299,2
309,306,302,301,2
313,305,302,301,2
317,304,302,300,2
320,302,302,298,2
319,301,303,295,2
316,300,303,293,2
312,301,304,292,2
309,302,305,294,2
308,304,306,297,2
306,306,307,299,2
306,308,309,299,2
305,311,310,299,2
306,312,310,296,2
306,311,309,292,2
308,311,305,289,2
310,309,300,286,2
312,309,293,285,2
313,308,287,284,2
313,307,284,284,2
311,306,284,285,2
305,306,285,285,2
299,305,285,287,2
295,304,287,290,2
293,304,289,294,2
292,304,293,300,2
293,304,301,306,2
297,305,307,311,2
301,306,312,315,2
303,308,316,320,2
303,309,319,324,2
305,310,322,327,2
307,312,325,329,2
310,313,327,330,2
312,313,328,329,2
311,313,328,326,2
310,312,326,322,2
308,311,324,317,2
307,310,322,311,2
306,309,321,306,2
304,308,319,301,2
303,307,318,297,2
302,305,316,292,2
302,303,315,287,2
302,301,313,283,2
302,300,313,279,2
304,300,312,278,2
305,301,312,279,2
306,303,312,284,2
306,306,311,292,2
305,309,308,301,2
304,311,305,309,2
303,313,301,314,2
303,314,299,317,2
302,315,298,316,2
302,315,298,316,2
299,314,300,314,2
294,314,304,311,2
288,312,308,307,2
282,310,310,301,2
276,308,310,293,2
271,306,308,284,2
268,302,304,277,2
271,299,300,272,2
281,297,298,271,2
294,297,298,274,2
304,296,299,279,2
312,297,301,287,2
316,299,303,297,2
318,302,304,308,2
318,305,306,316,2
317,307,307,321,2
316,309,307,323,2
316,311,307,324,2
317,312,307,321,2
317,313,307,317,2
318,313,306,310,2
317,312,305,303,2
315,311,302,296,2
312,309,299,288,2
308,306,295,281,2
305,304,292,276,2
305,303,292,275,2
306,302,294,276,2
308,302,297,281,2
309,302,300,287,2
309,303,303,298,2
310,304,307,310,2
311,305,311,321,2
311,308,313,330,2
312,310,313,337,2
312,313,310,341,2
311,314,306,343,2
309,315,302,342,2
307,315,298,337,2
304,314,295,329,2
302,313,294,319,2
300,312,296,309,2
299,311,299,302,2
298,310,303,296,2
297,308,306,291,2
295,306,308,287,2
293,304,309,284,2
292,301,309,282,2
292,300,309,282,2
292,298,306,284,2
295,298,301,287,2
300,299,294,289,2
307,300,286,290,2
314,302,280,290,2
319,304,278,290,2
321,307,281,291,2
321,309,287,293,2
319,312,293,294,2
315,313,300,296,2
310,314,305,297,2
307,314,310,298,2
305,313,314,300,2
303,313,316,303,2
302,313,318,308,2
302,312,318,312,2
301,311,317,317,2
301,309,316,323,2
302,308,315,328,2
304,308,315,330,2
305,307,314,330,2
306,307,313,326,2
308,306,311,323,2
313,306,309,323,2
318,307,307,324,2
320,308,306,325,2
319,308,304,326,2
316,309,303,328,2
312,309,302,329,2
307,309,303,328,2
302,309,302,323,2
295,308,301,316,2
290,307,298,308,2
285,306,295,301,2
287,305,291,296,2
294,305,289,294,2
302,303,289,294,2
306,302,290,296,2
308,299,293,301,2
308,297,295,306,2
307,296,297,309,2
307,296,298,309,2
307,297,297,306,2
308,298,295,302,2
308,300,294,298,2
308,303,296,296,2
307,306,298,294,2
307,308,301,293,2
307,310,303,293,2
308,311,305,294,2
308,311,306,295,2
308,311,305,296,2
306,311,303,296,2
305,310,301,297,2
304,309,302,297,2
303,307,302,297,2
303,306,303,297,2
305,304,304,299,2
307,302,306,300,2
309,301,305,302,2
311,299,303,303,2
312,298,300,305,2
312,298,299,308,2
311,299,299,312,2
308,301,300,316,2
306,303,299,319,2
305,304,296,320,2
305,304,292,322,2
308,305,289,324,2
313,306,289,326,2
318,307,291,328,2
320,308,294,327,2
317,308,296,321,2
311,308,297,312,2
304,307,296,303,2
298,305,297,293,2
295,303,297,287,2
294,301,299,284,2
294,299,302,284,2
296,298,307,287,2
298,297,311,293,2
302,296,314,299,2
308,297,317,305,2
315,298,318,310,2
321,299,320,313,2
323,301,320,315,2
320,302,318,315,2
314,303,316,313,2
307,304,314,311,2
301,304,309,308,2
296,304,302,306,2
293,303,295,306,2
294,303,289,308,2
298,303,286,312,2
303,303,285,314,2
306,303,290,313,2
308,303,295,308,2
311,302,300,301,2
313,300,303,295,2
314,298,306,290,2
316,297,308,289,2
316,296,309,291,2
315,295,308,296,2
310,296,306,302,2
302,297,303,309,2
296,300,302,315,2
292,302,304,315,2
292,304,307,312,2
293,305,308,304,2
294,305,308,295,2
293,304,307,288,2
291,303,305,284,2
290,302,304,282,2
295,302,302,282,2
300,301,300,283,2
304,300,299,284,2
306,299,299,286,2
307,299,301,288,2
309,298,301,290,2
309,297,300,292,2
309,297,300,296,2
311,297,302,300,2
313,297,304,305,2
314,299,307,311,2
315,300,309,314,2
314,302,310,317,2
313,303,308,317,2
311,304,306,315,2
310,305,301,311,2
309,307,297,307,2
308,307,293,304,2
307,308,290,301,2
305,308,288,301,2
303,308,289,303,2
302,308,292,307,2
304,307,294,310,2
306,306,297,313,2
310,304,299,314,2
314,302,302,315,2
318,301,305,314,2
320,300,309,312,2
318,300,312,310,2
313,299,314,304,2
305,299,314,298,2
297,299,314,293,2
294,300,313,289,2
294,301,312,285,2
297,303,310,285,2
300,305,308,286,2
303,306,307,291,2
305,308,306,298,2
307,309,306,308,2
308,311,306,318,2
308,311,307,326,2
307,310,309,332,2
306,310,310,335,2
305,309,312,336,2
305,307,313,335,2
306,306,311,331,2
307,306,307,327,2
308,305,302,322,2
309,304,298,317,2
310,303,295,313,2
313,304,291,309,2
316,304,288,307,2
319,306,289,306,2
318,307,292,305,2
315,309,297,305,2
310,310,304,306,2
304,311,312,308,2
301,311,318,309,2
296,310,321,308,2
292,309,322,306,2
291,307,321,303,2
295,305,320,298,2
300,303,319,293,2
303,301,317,288,2
304,299,315,283,2
305,298,311,280,2
306,297,307,281,2
308,297,305,285,2
310,298,304,290,2
312,300,305,296,2
313,304,306,302,2
314,307,308,309,2
314,310,311,316,2
312,312,310,320,2
309,313,305,322,2
306,314,297,321,2
302,314,287,319,2
301,314,280,316,2
300,313,281,314,2
302,314,288,311,2
305,313,295,307,2
309,313,302,303,2
313,311,308,297,2
315,309,313,291,2
316,306,314,286,2
314,303,314,283,2
312,301,311,283,2
308,299,304,287,2
304,299,295,293,2
302,300,287,300,2
301,303,281,307,2
298,306,281,313,2
297,310,287,316,2
300,314,294,318,2
306,316,301,320,2
311,317,306,322,2
313,317,311,324,2
316,317,316,325,2
317,317,321,325,2
316,317,325,324,2
312,316,327,322,2
309,315,327,319,2
306,313,326,315,2
303,311,324,310,2
301,308,322,305,2
301,305,320,302,2
302,302,319,300,2
305,300,319,301,2
308,299,320,301,2
310,299,320,302,2
310,299,321,301,2
310,300,322,299,2
309,302,321,297,2
307,303,320,294,2
305,305,318,292,2
304,306,316,292,2
302,307,314,295,2
301,308,312,299,2
300,309,311,302,2
300,310,309,304,2
301,310,307,303,2
301,310,305,300,2
302,309,301,296,2
303,307,295,291,2
304,306,291,289,2
305,305,290,289,2
308,305,294,295,2
310,305,299,303,2
308,304,302,314,2
303,304,303,324,2
297,304,302,333,2
293,305,301,340,2
292,307,300,342,2
293,308,299,339,2
293,308,304,332,2
293,309,311,322,2
294,309,319,314,2
296,309,325,308,2
299,310,330,302,2
300,310,332,297,2
301,309,332,292,2
302,309,330,289,2
302,308,327,287,2
303,307,322,286,2
304,306,318,285,2
305,304,313,284,2
305,302,310,284,2
306,301,308,286,2
307,301,308,288,2
308,301,310,291,2
308,303,313,294,2
308,305,316,299,2
307,307,318,303,2
304,309,319,306,2
302,311,320,309,2
299,312,319,311,2
296,312,318,312,2
294,312,317,313,2
293,312,316,313,2
296,312,315,312,2
302,311,313,311,2
308,311,309,309,2
314,310,304,308,2
317,310,298,305,2
318,308,294,301,2
317,306,292,298,2
314,304,294,297,2
309,303,300,299,2
303,303,307,302,2
303,303,314,305,2
306,304,320,308,2
310,306,324,310,2
312,308,326,312,2
311,309,325,317,2
309,311,325,323,2
307,313,325,329,2
305,314,324,331,2
304,314,324,331,2
303,314,324,326,2
302,313,324,318,2
301,312,323,309,2
300,310,321,300,2
298,308,319,291,2
298,305,316,283,2
298,302,314,278,2
299,299,312,276,2
300,298,311,275,2
301,297,311,275,2
302,297,311,277,2
303,298,311,279,2
303,300,311,281,2
303,303,311,285,2
302,305,310,290,2
300,307,309,296,2
299,308,306,302,2
299,309,304,306,2
301,310,303,310,2
303,310,302,312,2
306,311,299,314,2
308,311,296,316,2
310,310,292,317,2
311,310,288,318,2
310,309,285,318,2
304,307,286,319,2
298,306,290,321,2
294,304,296,322,2
291,303,304,324,2
290,303,312,327,2
291,304,319,330,2
293,305,325,335,2
295,308,330,339,2
298,311,334,343,2
301,314,336,345,2
302,316,337,343,2
302,317,336,338,2
302,317,334,330,2
302,316,330,321,2
300,314,326,312,2
299,312,322,304,2
298,310,318,299,2
298,309,315,296,2
299,309,313,293,2
301,309,310,290,2
303,307,307,287,2
305,305,305,283,2
305,302,303,281,2
305,300,302,281,2
303,298,300,283,2
302,298,300,288,2
303,298,302,296,2
305,300,306,305,2
306,302,310,315,2
307,305,314,324,2
306,308,315,332,2
304,310,316,337,2
301,311,315,340,2
298,312,313,339,2
293,312,309,334,2
287,311,303,322,2
283,309,298,309,2
285,308,293,297,2
291,306,291,290,2
298,305,291,285,2
304,304,293,283,2
307,302,296,282,2
309,300,299,281,2
310,299,301,283,2
310,298,304,287,2
310,298,306,296,2
311,299,309,308,2
311,302,310,321,2
311,305,310,332,2
310,309,309,339,2
308,312,308,341,2
306,314,306,341,2
303,316,305,339,2
301,317,305,337,2
299,317,307,334,2
297,317,309,332,2
296,316,311,329,2
298,314,312,325,2
305,313,311,320,2
313,311,310,314,2
319,308,307,308,2
322,306,302,304,2
321,304,298,302,2
318,301,295,302,2
316,300,297,305,2
314,299,300,309,2
314,299,304,312,2
314,300,309,315,2
315,303,313,316,2
315,305,315,315,2
315,307,315,312,2
314,307,313,308,2
314,308,311,306,2
314,308,309,305,2
314,309,308,307,2
313,309,306,309,2
311,309,305,312,2
308,309,303,314,2
305,309,303,315,2
301,308,303,315,2
298,306,303,313,2
296,304,303,310,2
295,301,302,307,2
295,300,301,307,2
299,300,300,308,2
305,300,301,311,2
312,301,302,313,2
317,303,302,315,2
320,305,297,315,2
320,307,287,313,2
320,309,278,310,2
319,310,271,307,2
318,311,268,304,2
318,311,271,300,2
317,311,280,296,2
316,311,290,294,2
314,309,299,293,2
312,308,305,295,2
310,306,310,300,2
310,305,314,306,2
310,305,316,310,2
309,305,318,312,2
309,304,317,311,2
309,304,316,310,2
310,303,312,309,2
310,303,310,310,2
310,304,309,310,2
309,304,310,308,2
309,305,311,306,2
308,305,314,304,2
306,306,315,301,2
305,307,313,299,2
305,308,310,298,2
306,307,306,300,2
307,307,302,303,2
307,307,298,306,2
307,306,294,309,2
306,306,294,309,2
306,304,296,309,2
306,304,300,306,2
306,302,303,302,2
307,301,304,297,2
309,299,305,293,2
312,297,306,292,2
315,297,306,295,2
319,297,306,301,2
321,298,307,309,2
323,299,308,318,2
325,302,309,327,2
325,305,311,333,2
322,307,313,336,2
317,310,315,337,2
313,312,316,337,2
310,313,316,336,2
308,313,314,334,2
307,314,311,333,2
307,314,307,330,2
306,314,302,327,2
304,313,298,324,2
303,312,295,319,2
302,309,295,313,2
301,307,296,305,2
300,304,297,299,2
298,302,298,292,2
296,299,299,286,2
297,297,299,283,2
299,296,299,281,2
302,297,301,280,2
305,298,303,280,2
309,300,304,281,2
310,302,306,283,2
308,304,306,286,2
306,306,306,291,2
305,308,304,298,2
305,309,302,306,2
304,309,300,314,2
305,309,297,320,2
306,309,296,324,2
309,310,297,327,2
311,309,299,327,2
313,309,302,324,2
313,307,303,320,2
311,306,302,314,2
308,303,297,307,2
304,300,288,298,2
301,298,280,290,2
297,297,274,283,2
292,297,271,278,2
292,298,272,276,2
301,299,278,277,2
313,302,284,280,2
322,304,289,283,2
326,306,292,287,2
326,308,295,292,2
324,309,298,297,2
320,310,303,303,2
317,311,307,308,2
314,312,310,312,2
312,311,311,314,2
310,310,311,318,2
309,309,310,323,2
309,307,310,330,2
310,306,310,337,2
310,304,310,343,2
311,304,310,343,2
310,303,310,341,2
309,304,309,334,2
309,305,308,326,2
308,307,308,318,2
308,309,308,312,2
307,311,307,308,2
307,312,305,307,2
307,313,303,308,2
307,312,301,308,2
309,311,298,309,2
311,310,295,308,2
312,309,293,307,2
312,308,291,305,2
312,307,290,303,2
309,306,290,301,2
306,304,292,298,2
303,302,296,295,2
300,300,299,293,2
299,299,302,293,2
300,299,304,296,2
302,299,307,300,2
304,300,308,306,2
305,303,311,315,2
307,306,315,324,2
309,309,318,332,2
309,311,318,337,2
308,312,316,338,2
308,311,314,336,2
311,309,312,332,2
317,308,311,325,2
320,308,309,319,2
321,307,307,313,2
320,306,306,307,2
316,305,305,301,2
310,303,304,294,2
303,301,303,288,2
297,298,302,283,2
292,294,302,280,2
292,292,303,280,2
295,290,305,282,2
299,290,306,286,2
304,291,308,292,2
307,293,308,297,2
307,296,307,300,2
305,299,304,301,2
304,302,300,302,2
302,303,294,301,2
302,305,289,301,2
300,306,287,303,2
298,306,288,305,2
298,307,292,308,2
301,307,298,312,2
307,307,305,316,2
312,307,310,321,2
315,307,315,326,2
316,307,318,331,2
316,306,319,336,2
315,306,319,340,2
316,305,317,342,2
317,304,315,341,2
320,303,315,338,2
322,303,315,333,2
325,304,316,327,2
326,305,316,321,2
325,307,313,317,2
323,308,306,316,2
318,310,298,317,2
312,311,291,317,2
306,312,287,315,2
301,311,285,310,2
297,311,285,303,2
297,309,287,294,2
301,308,290,285,2
306,306,292,278,2
309,304,294,273,2
309,302,297,270,2
307,300,302,268,2
306,298,306,267,2
305,297,310,268,2
306,297,314,271,2
307,297,317,274,2
308,299,319,280,2
309,301,319,285,2
310,304,317,291,2
311,307,314,298,2
311,311,310,305,2
312,314,309,312,2
312,317,312,318,2
314,319,317,323,2
316,320,322,327,2
316,320,324,331,2
313,319,325,334,2
310,319,324,338,2
306,317,324,342,2
303,316,323,345,2
301,315,321,347,2
299,313,320,345,2
299,310,317,338,2
298,307,315,327,2
299,304,313,315,2
298,302,313,302,2
296,301,312,291,2
295,301,311,285,2
297,301,310,280,2
300,303,309,278,2
303,304,308,277,2
303,305,307,278,2
302,306,306,280,2
302,307,305,285,2
303,308,305,291,2
304,309,307,298,2
305,309,310,304,2
306,309,312,310,2
307,310,313,315,2
308,310,313,318,2
309,309,313,320,2
311,308,312,322,2
312,307,311,323,2
311,306,309,325,2
308,306,307,325,2
306,305,307,324,2
304,304,308,324,2
303,305,311,321,2
302,307,313,319,2
303,309,314,317,2
304,311,314,317,2
304,312,312,316,2
305,312,308,314,2
306,312,304,310,2
306,313,300,304,2
303,313,297,297,2
299,312,296,290,2
296,311,297,285,2
296,309,298,282,2
298,308,298,281,2
303,306,300,283,2
308,306,302,288,2
313,305,306,292,2
314,306,310,298,2
315,306,310,303,2
315,306,308,307,2
313,307,306,310,2
307,308,303,311,2
302,310,303,312,2
302,312,306,311,2
306,314,312,311,2
309,315,317,310,2
310,315,320,309,2
308,315,322,309,2
306,314,323,308,2
304,312,322,307,2
303,311,319,306,2
302,310,314,305,2
301,309,309,302,2
300,307,304,299,2
300,305,300,297,2
299,303,297,296,2
298,301,296,295,2
300,299,297,296,2
305,298,298,295,2
311,297,299,293,2
316,296,301,292,2
319,297,304,293,2
319,298,310,294,2
318,300,314,295,2
314,302,317,297,2
309,304,320,301,2
303,307,321,306,2
300,309,323,312,2
298,312,325,320,2
297,313,327,329,2
297,314,328,336,2
297,314,328,341,2
298,313,328,344,2
298,311,326,345,2
298,308,323,343,2
298,305,320,339,2
298,302,316,333,2
299,300,314,324,2
299,298,311,314,2
300,297,310,304,2
300,297,309,296,2
299,298,309,290,2
299,299,309,287,2
300,301,310,286,2
300,303,309,288,2
300,304,308,293,2
300,305,307,299,2
300,305,306,304,2
300,305,306,306,2
302,305,306,307,2
303,305,306,306,2
305,305,305,304,2
307,304,303,301,2
306,303,299,297,2
305,301,295,292,2
304,300,292,288,2
304,298,291,287,2
303,297,291,287,2
303,296,293,288,2
301,296,297,290,2
299,296,302,294,2
297,298,308,299,2
297,300,315,305,2
297,302,320,309,2
299,304,322,311,2
301,305,324,313,2
304,307,325,314,2
306,309,326,314,2
308,311,326,313,2
309,312,325,312,2
309,313,324,311,2
308,313,322,308,2
306,312,320,307,2
306,311,318,304,2
305,308,316,303,2
306,306,314,302,2
307,304,313,303,2
308,302,314,303,2
308,300,313,302,2
307,299,313,299,2
305,299,312,294,2
303,300,312,290,2
301,301,310,288,2
301,303,309,289,2
302,306,307,291,2
299,309,305,293,2
294,311,303,295,2
289,312,302,299,2
289,312,302,303,2
294,312,304,308,2
299,311,305,312,2
302,310,303,314,2
303,308,297,314,2
302,307,287,312,2
300,305,278,309,2
297,303,271,306,2
296,302,269,305,2
295,302,274,306,2
295,301,282,307,2
296,301,292,309,2
297,302,302,313,2
301,303,311,318,2
307,305,319,323,2
310,308,326,326,2
311,311,331,326,2
310,313,332,324,2
309,314,333,320,2
307,314,331,314,2
306,314,328,308,2
305,314,324,305,2
304,313,320,304,2
304,312,317,305,2
303,310,314,306,2
302,309,313,309,2
301,307,311,312,2
300,305,310,314,2
298,303,310,314,2
297,301,310,313,2
296,299,311,311,2
295,299,311,308,2
296,299,310,305,2
298,299,311,302,2
299,301,311,299,2
300,302,311,295,2
302,304,309,291,2
304,305,306,287,2
306,305,302,283,2
308,304,300,279,2
309,304,298,278,2
307,303,297,279,2
302,303,297,281,2
297,303,298,284,2
293,303,300,288,2
291,304,303,292,2
290,304,305,294,2
292,303,307,296,2
296,302,307,296,2
301,301,305,298,2
304,300,302,299,2
306,299,300,301,2
307,299,298,305,2
307,300,299,311,2
307,302,301,317,2
309,305,305,324,2
311,307,309,328,2
312,309,313,332,2
314,310,315,332,2
313,311,317,330,2
312,311,317,328,2
311,310,316,324,2
309,309,315,319,2
305,308,312,315,2
301,307,310,311,2
299,306,309,307,2
297,305,308,303,2
297,303,306,300,2
297,302,305,298,2
298,300,305,297,2
299,298,306,296,2
300,298,306,295,2
302,297,307,296,2
303,298,309,300,2
302,299,311,305,2
300,301,313,310,2
297,303,314,313,2
297,304,313,316,2
298,305,313,318,2
297,306,312,319,2
293,306,312,318,2
290,307,312,316,2
291,308,313,315,2
294,309,311,316,2
298,309,307,318,2
301,309,301,320,2
303,307,294,321,2
304,305,286,321,2
305,302,281,320,2
305,300,281,317,2
305,298,286,314,2
305,297,294,312,2
305,298,304,310,2
307,299,313,308,2
310,300,317,305,2
314,302,318,302,2
316,303,315,298,2
317,303,314,295,2
317,303,312,292,2
316,303,310,290,2
315,303,310,289,2
314,303,312,289,2
311,302,314,288,2
307,302,316,289,2
305,301,318,294,2
304,300,319,301,2
304,300,321,308,2
304,299,321,314,2
304,297,320,317,2
304,296,319,317,2
304,294,318,315,2
304,294,316,314,2
305,294,315,312,2
307,295,315,311,2
308,298,316,311,2
309,301,316,313,2
310,304,316,316,2
310,307,316,319,2
309,308,316,321,2
307,310,314,323,2
305,310,312,322,2
304,309,310,320,2
304,308,309,316,2
304,307,308,310,2
305,305,307,305,2
306,303,306,301,2
305,300,303,297,2
304,298,299,293,2
303,295,296,289,2
304,293,294,286,2
305,291,294,284,2
306,290,295,284,2
306,291,297,286,2
306,292,301,290,2
306,294,305,295,2
307,297,308,299,2
307,299,309,301,2
307,301,310,302,2
306,303,310,303,2
305,304,309,305,2
304,305,309,308,2
304,306,308,313,2
304,307,308,319,2
304,308,308,325,2
304,308,308,330,2
303,308,306,334,2
302,307,304,337,2
301,306,303,336,2
302,304,302,334,2
303,303,301,331,2
305,301,301,328,2
306,300,303,325,2
307,300,304,322,2
307,300,306,318,2
306,302,307,314,2
304,303,308,308,2
301,305,307,301,2
299,306,306,296,2
297,306,305,291,2
297,306,306,288,2
298,306,306,286,2
299,305,305,286,2
300,304,305,288,2
303,304,305,292,2
305,304,306,296,2
305,303,305,300,2
301,301,303,303,2
294,299,299,303,2
288,297,294,301,2
287,294,291,297,2
288,292,289,292,2
291,292,291,290,2
296,292,297,291,2
299,295,303,296,2
301,297,309,302,2
301,300,312,306,2
301,303,313,309,2
302,304,313,309,2
304,306,310,310,2
306,307,305,310,2
308,309,301,310,2
310,309,298,311,2
311,310,296,312,2
311,311,297,315,2
311,311,302,318,2
311,311,307,321,2
310,310,311,322,2
309,308,314,324,2
308,306,315,324,2
307,304,316,325,2
306,303,316,323,2
307,302,312,317,2
309,302,307,309,2
311,302,301,300,2
312,303,296,294,2
312,304,293,291,2
310,305,294,292,2
310,306,297,296,2
310,307,303,300,2
309,309,308,304,2
308,311,311,308,2
308,312,313,311,2
309,312,313,311,2
310,312,312,310,2
312,311,310,308,2
313,310,308,306,2
313,309,306,303,2
313,307,302,301,2
313,306,299,300,2
315,304,298,300,2
316,303,297,301,2
318,302,297,302,2
318,302,298,304,2
317,304,300,308,2
317,306,303,312,2
317,309,307,317,2
316,312,309,320,2
314,313,310,320,2
312,314,310,320,2
310,314,309,318,2
309,314,308,317,2
307,313,306,317,2
307,313,305,318,2
306,311,304,317,2
306,309,302,315,2
306,307,301,311,2
306,304,300,305,2
307,302,297,301,2
308,300,294,298,2
310,297,291,296,2
311,295,290,295,2
313,295,290,294,2
314,295,292,294,2
315,296,295,297,2
315,299,299,302,2
314,302,302,307,2
313,304,305,310,2
312,307,307,311,2
312,309,309,311,2
312,310,310,310,2
313,311,311,307,2
313,311,311,304,2
313,310,309,299,2
312,309,306,296,2
312,308,303,294,2
312,307,301,294,2
314,306,299,293,2
315,304,297,293,2
317,303,294,293,2
318,301,291,292,2
316,301,285,292,2
315,301,277,294,2
314,302,272,296,2
314,304,273,299,2
315,306,278,301,2
316,307,284,303,2
315,308,292,303,2
314,308,300,302,2
311,308,306,300,2
308,308,309,297,2
303,308,309,293,2
299,308,308,292,2
296,307,307,294,2
294,307,306,301,2
292,307,305,310,2
293,308,303,319,2
296,308,302,327,2
300,307,300,333,2
307,306,300,337,2
313,305,301,338,2
318,305,301,337,2
320,305,299,334,2
321,305,296,331,2
320,306,293,326,2
319,306,291,322,2
318,307,289,320,2
318,308,290,317,2
317,310,291,314,2
317,311,293,310,2
318,311,296,305,2
318,312,300,303,2
318,312,303,302,2
315,312,306,302,2
311,311,309,302,2
306,310,310,302,2
302,308,308,302,2
299,306,305,304,2
298,303,303,306,2
298,301,301,309,2
298,299,301,311,2
295,298,300,315,2
292,298,299,317,2
294,299,298,319,2
300,300,298,318,2
308,302,298,317,2
313,305,299,315,2
316,308,300,313,2
318,311,300,312,2
319,314,300,312,2
318,315,299,311,2
317,316,299,309,2
316,315,300,308,2
315,314,300,306,2
314,313,299,303,2
314,312,297,299,2
314,310,295,293,2
315,308,293,287,2
316,305,290,280,2
318,303,287,275,2
319,301,282,271,2
320,299,277,270,2
320,298,273,269,2
321,297,272,271,2
321,298,276,273,2
322,299,283,280,2
322,302,292,287,2
320,304,298,294,2
317,305,303,300,2
315,306,305,306,2
314,307,305,310,2
314,307,302,313,2
312,307,298,316,2
308,307,294,317,2
302,307,291,317,2
296,305,288,315,2
290,303,287,312,2
286,301,289,310,2
285,299,292,309,2
288,299,296,307,2
296,298,299,306,2
304,298,302,304,2
312,299,304,302,2
318,301,306,302,2
322,303,308,303,2
323,305,310,304,2
321,308,310,306,2
318,311,309,308,2
315,314,307,307,2
312,316,306,305,2
310,317,306,303,2
308,318,307,300,2
307,318,307,298,2
305,317,307,298,2
304,315,305,297,2
304,313,303,296,2
304,311,301,296,2
304,309,299,296,2
303,307,298,297,2
303,305,297,299,2
303,303,296,301,2
301,302,292,303,2
297,301,288,306,2
291,301,284,309,2
290,302,279,313,2
296,304,278,317,2
305,306,282,321,2
313,309,288,324,2
317,312,295,326,2
320,313,301,328,2
321,314,308,330,2
321,315,315,332,2
320,315,320,336,2
318,315,323,338,2
316,314,323,338,2
314,313,321,336,2
312,312,318,333,2
313,311,316,327,2
314,310,314,319,2
314,308,314,310,2
314,306,313,302,2
314,305,313,296,2
315,304,311,292,2
316,303,309,289,2
317,304,308,289,2
317,305,307,291,2
317,307,307,292,2
316,309,307,294,2
315,311,308,296,2
313,313,309,298,2
310,313,309,301,2
307,314,309,303,2
305,314,308,307,2
302,315,307,310,2
300,315,306,313,2
299,315,307,315,2
298,315,308,316,2
298,314,310,319,2
299,313,310,321,2
300,311,310,324,2
302,310,311,326,2
305,309,311,328,2
308,307,312,329,2
311,306,313,330,2
315,307,315,332,2
317,308,317,333,2
317,310,317,333,2
315,311,316,329,2
314,311,315,323,2
313,311,314,316,2
313,310,313,309,2
315,309,311,301,2
316,309,308,295,2
316,307,303,289,2
314,306,298,284,2
308,306,293,282,2
301,305,289,282,2
293,306,287,284,2
285,306,287,287,2
278,306,289,291,2
274,306,293,294,2
276,306,298,298,2
284,306,304,301,2
295,307,308,304,2
303,308,314,307,2
309,310,317,309,2
313,312,318,311,2
313,314,319,311,2
310,315,319,310,2
307,316,319,308,2
304,317,318,307,2
302,318,317,305,2
301,318,316,305,2
300,319,315,306,2
300,320,312,309,2
299,320,308,312,2
299,319,305,315,2
300,317,304,317,2
301,315,304,320,2
302,314,304,325,2
303,312,306,330,2
304,311,309,333,2
304,310,312,332,2
305,311,316,330,2
305,311,319,327,2
305,313,322,324,2
307,314,323,321,2
310,316,324,320,2
311,319,323,320,2
309,320,322,320,2
305,321,321,320,2
299,321,318,318,2
293,320,316,315,2
289,319,313,311,2
289,318,310,308,2
295,317,305,305,2
301,316,295,301,2
306,315,285,297,2
308,313,277,292,2
309,312,272,287,2
310,309,273,283,2
310,307,280,282,2
310,306,292,286,2
309,306,305,293,2
308,306,315,303,2
307,308,324,315,2
305,310,331,327,2
304,313,336,336,2
304,315,337,343,2
303,316,335,347,2
302,317,332,349,2
301,317,328,349,2
300,317,325,346,2
300,316,324,342,2
300,315,324,336,2
301,314,323,329,2
301,313,322,320,2
300,311,321,310,2
300,309,319,303,2
302,307,317,298,2
304,306,315,295,2
308,304,315,293,2
311,303,314,292,2
314,303,313,291,2
314,302,314,290,2
312,303,314,289,2
309,304,314,289,2
305,305,314,289,2
302,307,313,289,2
299,308,310,289,2
298,308,308,290,2
297,308,307,293,2
299,309,306,296,2
300,310,305,299,2
301,309,303,300,2
302,309,302,301,2
304,309,303,302,2
307,309,307,305,2
309,308,310,307,2
310,307,312,309,2
311,305,314,312,2
312,304,316,316,2
311,304,317,320,2
310,304,318,325,2
306,306,319,330,2
303,308,321,335,2
300,311,322,339,2
296,315,323,341,2
293,318,323,343,2
291,319,323,344,2
293,320,323,342,2
297,321,322,339,2
302,322,321,337,2
305,321,319,333,2
307,320,317,328,2
308,317,316,319,2
308,313,314,311,2
308,310,312,302,2
308,306,309,294,2
308,302,307,286,2
307,299,305,280,2
307,297,303,276,2
307,296,302,275,2
307,296,302,277,2
308,296,304,282,2
309,299,306,291,2
311,302,310,303,2
312,306,313,314,2
311,308,316,324,2
310,310,318,330,2
308,310,320,334,2
304,311,320,335,2
300,311,320,335,2
297,310,319,333,2
298,310,318,329,2
302,309,316,323,2
307,308,314,317,2
312,308,313,310,2
316,306,311,302,2
317,304,309,295,2
317,302,307,290,2
314,300,307,286,2
311,300,308,285,2
309,300,309,285,2
308,301,311,286,2
307,303,313,288,2
307,305,314,292,2
306,308,315,297,2
306,310,317,301,2
306,312,318,307,2
306,314,317,313,2
306,315,315,320,2
306,315,311,327,2
307,316,305,333,2
306,316,299,335,2
306,315,295,336,2
306,314,295,337,2
307,313,298,338,2
308,312,304,338,2
308,309,310,334,2
308,306,315,328,2
308,303,317,321,2
309,300,315,314,2
310,299,311,308,2
312,298,307,303,2
313,299,306,299,2
312,299,306,295,2
311,301,310,292,2
310,302,315,290,2
309,303,320,287,2
307,303,322,285,2
305,303,324,284,2
303,303,323,284,2
301,303,322,284,2
299,304,321,284,2
299,304,318,286,2
299,305,317,288,2
300,305,315,291,2
302,305,312,294,2
303,304,308,297,2
304,303,306,298,2
305,302,304,301,2
305,301,304,305,2
306,300,307,311,2
307,301,310,318,2
309,303,314,325,2
310,306,316,332,2
311,309,316,341,2
311,311,315,349,2
310,312,313,355,2
308,313,311,358,2
307,313,312,358,2
307,313,312,355,2
306,313,312,350,2
305,312,312,342,2
304,310,312,332,2
303,308,310,321,2
302,306,306,311,2
302,303,302,301,2
302,300,300,295,2
302,298,299,293,2
303,297,301,295,2
305,296,304,300,2
308,296,306,305,2
310,296,307,308,2
312,297,307,309,2
313,298,307,307,2
313,300,306,302,2
311,301,303,295,2
309,302,299,291,2
306,303,295,290,2
304,305,293,292,2
303,306,294,296,2
303,307,297,300,2
304,309,299,304,2
304,309,301,308,2
305,309,301,312,2
305,308,301,315,2
305,307,301,317,2
305,306,301,319,2
307,304,302,320,2
307,302,303,319,2
308,301,303,314,2
307,300,303,309,2
306,300,303,306,2
305,301,303,304,2
305,303,303,303,2
304,304,304,300,2
302,304,304,296,2
299,304,303,291,2
295,304,302,287,2
291,303,299,283,2
286,301,296,281,2
283,300,294,281,2
283,298,292,281,2
290,296,290,282,2
301,295,290,284,2
313,295,290,288,2
322,295,288,293,2
328,295,287,300,2
332,296,285,308,2
332,298,285,314,2
329,299,286,319,2
323,300,287,321,2
318,302,291,321,2
315,304,297,320,2
313,307,302,318,2
311,309,304,318,2
310,311,302,318,2
309,313,297,319,2
307,313,291,319,2
307,314,283,319,2
306,313,276,321,2
305,314,273,324,2
305,313,274,327,2
306,313,276,329,2
307,312,279,328,2
307,311,285,325,2
307,310,293,319,2
305,307,301,314,2
303,305,307,309,2
300,302,311,306,2
298,301,313,305,2
297,300,314,305,2
296,301,313,306,2
294,302,312,309,2
293,304,310,313,2
297,306,307,318,2
303,308,305,321,2
308,309,301,322,2
310,309,297,320,2
310,309,293,319,2
310,309,289,320,2
310,310,288,320,2
311,309,287,320,2
311,309,288,317,2
311,309,289,310,2
310,308,289,300,2
308,306,289,289,2
305,303,288,279,2
303,299,287,273,2
303,297,286,269,2
303,296,286,268,2
304,295,286,270,2
306,296,287,273,2
307,298,288,277,2
309,300,289,281,2
310,303,290,284,2
310,305,290,287,2
309,306,289,290,2
308,307,287,293,2
307,307,286,296,2
306,306,285,298,2
305,306,285,301,2
305,305,285,306,2
307,305,285,312,2
309,305,286,316,2
310,306,286,319,2
311,305,284,319,2
309,304,283,319,2
307,304,281,320,2
305,304,281,322,2
303,304,282,323,2
300,305,283,324,2
298,305,285,324,2
298,306,286,324,2
300,309,287,324,2
303,311,286,322,2
305,311,286,320,2
304,312,285,317,2
303,312,284,315,2
304,313,284,315,2
307,314,284,316,2
310,314,284,318,2
313,315,283,318,2
315,314,281,317,2
317,314,279,315,2
319,312,278,314,2
319,309,277,313,2
316,307,278,312,2
313,304,278,313,2
311,302,277,315,2
309,301,276,319,2
308,301,275,323,2
307,302,276,326,2
304,304,277,325,2
300,306,276,322,2
297,308,272,317,2
295,309,265,313,2
294,309,255,310,2
292,309,246,308,2
294,309,240,305,2
301,308,240,301,2
308,308,246,297,2
311,308,256,293,2
312,307,267,289,2
310,306,278,286,2
307,304,284,284,2
302,301,287,282,2
299,299,287,279,2
297,296,286,276,2
296,294,285,273,2
297,292,284,271,2
299,291,284,271,2
302,292,284,273,2
305,294,284,276,2
307,296,282,279,2
309,298,280,282,2
309,301,278,286,2
310,303,278,289,2
310,305,281,293,2
311,307,287,297,2
312,308,292,301,2
312,308,296,305,2
310,308,298,309,2
307,308,298,313,2
305,306,298,316,2
303,304,298,317,2
301,301,296,317,2
300,299,296,318,2
300,298,295,319,2
300,298,296,320,2
302,299,296,322,2
303,300,297,324,2
305,302,298,325,2
306,305,299,325,2
306,308,300,325,2
305,312,300,324,2
304,315,299,324,2
301,317,297,324,2
298,318,295,324,2
295,318,294,322,2
293,317,295,319,2
295,316,295,317,2
299,314,296,314,2
302,313,297,311,2
305,312,297,306,2
306,309,296,300,2
306,305,295,293,2
305,301,294,289,2
305,299,293,288,2
307,297,293,289,2
308,297,294,293,2
308,298,296,296,2
306,300,298,299,2
304,303,300,300,2
303,306,302,301,2
303,309,304,303,2
303,312,305,306,2
303,313,306,310,2
303,314,306,313,2
303,314,306,315,2
304,314,306,314,2
304,313,306,313,2
305,312,305,312,2
306,310,305,311,2
307,308,304,311,2
304,306,304,310,2
298,303,303,306,2
293,301,301,301,2
293,299,301,295,2
295,297,303,289,2
295,296,305,285,2
292,296,307,284,2
290,296,309,286,2
292,297,311,290,2
299,300,313,296,2
308,302,314,300,2
314,305,316,302,2
315,305,318,302,2
310,306,320,302,2
303,306,322,302,2
297,306,323,306,2
295,307,324,312,2
296,307,324,318,2
299,307,324,323,2
305,307,324,327,2
309,307,321,328,2
312,306,315,326,2
314,304,307,323,2
316,303,300,319,2
318,301,296,314,2
319,301,294,311,2
321,301,296,310,2
322,303,301,309,2
322,305,307,309,2
321,307,313,309,2
316,309,318,305,2
311,309,325,300,2
307,310,332,296,2
305,310,339,294,2
304,310,344,292,2
302,310,347,292,2
301,309,350,292,2
297,308,352,293,2
294,307,351,295,2
292,306,350,298,2
291,304,348,300,2
291,302,345,301,2
290,300,344,303,2
291,299,342,305,2
293,298,342,307,2
295,298,341,309,2
298,299,341,312,2
301,301,342,314,2
303,303,342,316,2
305,306,341,316,2
305,308,336,313,2
306,310,331,309,2
306,311,327,307,2
305,312,326,306,2
304,312,328,309,2
302,312,330,314,2
303,312,332,320,2
306,311,332,327,2
306,311,333,331,2
302,311,334,335,2
298,310,334,339,2
296,309,335,344,2
297,308,334,348,2
301,306,331,350,2
307,305,326,349,2
313,304,317,347,2
316,304,308,344,2
318,305,301,342,2
319,306,299,340,2
322,309,304,338,2
325,311,313,334,2
326,311,323,328,2
324,311,331,321,2
319,311,334,312,2
311,310,334,302,2
302,309,334,291,2
292,307,334,281,2
285,306,335,276,2
282,306,336,275,2
281,304,336,275,2
281,302,334,276,2
283,300,330,278,2
287,298,324,281,2
294,297,320,285,2
303,296,318,289,2
311,296,317,292,2
317,295,317,295,2
320,296,320,296,2
322,297,322,296,2
321,298,326,293,2
317,300,329,291,2
313,301,330,289,2
310,304,330,289,2
308,306,331,290,2
306,308,331,293,2
304,308,331,296,2
301,306,331,302,2
299,305,329,307,2
297,304,327,310,2
297,303,325,311,2
299,302,323,310,2
300,301,321,307,2
302,300,318,305,2
303,300,315,304,2
303,300,313,304,2
299,300,313,306,2
297,301,315,309,2
299,302,319,313,2
304,304,323,317,2
309,306,326,321,2
312,309,328,325,2
314,311,328,327,2
315,312,327,327,2
317,313,325,324,2
320,314,323,320,2
321,314,320,315,2
317,312,318,311,2
311,311,315,307,2
304,310,315,305,2
299,310,316,305,2
294,309,317,305,2
289,309,317,306,2
286,308,316,308,2
284,307,315,309,2
287,306,315,311,2
293,306,317,315,2
303,307,319,318,2
311,307,321,322,2
318,308,318,324,2
322,309,312,324,2
323,309,305,322,2
324,310,300,318,2
324,309,299,314,2
323,309,302,308,2
319,309,309,300,2
313,309,315,292,2
305,309,319,286,2
297,309,323,282,2
293,309,324,280,2
292,308,324,280,2
295,307,321,284,2
300,305,319,288,2
305,303,316,291,2
310,301,313,294,2
313,300,312,298,2
315,299,314,303,2
315,300,319,310,2
316,301,326,316,2
317,303,331,322,2
316,305,334,325,2
313,306,334,324,2
309,308,332,320,2
307,308,327,313,2
308,307,322,305,2
310,307,317,297,2
311,307,311,289,2
311,306,305,282,2
312,306,300,278,2
311,306,297,279,2
311,305,298,283,2
310,305,301,290,2
309,303,306,297,2
308,302,310,303,2
307,302,313,307,2
305,301,314,310,2
301,301,314,311,2
298,301,315,309,2
301,302,316,304,2
305,303,318,300,2
309,305,319,295,2
309,307,321,292,2
307,309,321,290,2
305,310,320,289,2
304,311,319,290,2
304,311,319,294,2
305,311,319,298,2
305,311,320,303,2
305,310,320,311,2
304,310,321,319,2
303,309,322,327,2
301,309,321,333,2
301,308,319,336,2
302,306,317,334,2
303,305,315,330,2
306,303,313,325,2
309,302,312,319,2
312,301,310,312,2
316,302,308,304,2
318,302,306,296,2
316,303,306,290,2
312,304,305,284,2
309,305,307,281,2
305,306,307,280,2
303,308,307,282,2
301,309,307,286,2
300,310,305,292,2
299,311,304,297,2
298,310,303,302,2
298,310,303,304,2
297,309,304,305,2
298,307,306,304,2
298,306,309,302,2
298,304,311,300,2
296,302,313,298,2
294,299,314,296,2
293,297,313,296,2
294,295,311,298,2
294,296,305,301,2
295,297,296,307,2
298,299,286,312,2
302,302,278,315,2
306,305,273,318,2
310,307,274,319,2
315,310,282,319,2
318,312,294,319,2
318,313,307,319,2
318,313,319,318,2
315,312,326,317,2
311,311,330,315,2
308,309,330,312,2
305,308,327,310,2
305,305,324,308,2
305,302,323,306,2
306,300,321,304,2
307,299,320,305,2
308,298,319,311,2
308,299,319,319,2
307,300,318,326,2
304,302,317,330,2
301,303,317,330,2
304,304,317,326,2
308,306,319,322,2
312,307,319,319,2
314,308,320,317,2
315,309,320,315,2
314,310,320,313,2
313,310,320,309,2
310,311,319,304,2
308,310,317,297,2
305,310,313,290,2
302,308,307,283,2
301,305,302,276,2
302,303,297,272,2
305,302,294,272,2
307,301,293,276,2
308,300,294,281,2
306,301,298,286,2
304,301,303,291,2
304,302,308,294,2
304,303,311,297,2
303,304,313,300,2
303,305,314,303,2
304,306,316,307,2
304,308,317,309,2
305,309,317,309,2
304,310,317,307,2
304,310,316,303,2
303,310,314,297,2
303,309,310,292,2
302,308,306,287,2
302,306,301,284,2
302,303,298,282,2
304,301,298,282,2
305,298,300,284,2
306,296,303,286,2
303,295,304,289,2
298,294,305,292,2
294,294,306,295,2
294,296,308,297,2
296,298,309,299,2
298,301,310,302,2
299,304,309,303,2
298,306,309,304,2
297,307,309,305,2
297,308,311,309,2
299,309,313,313,2
302,310,315,319,2
306,309,316,324,2
309,309,318,328,2
311,309,319,330,2
312,308,318,331,2
314,306,315,330,2
316,304,311,328,2
319,302,308,326,2
323,302,306,322,2
325,301,302,318,2
325,300,296,314,2
323,300,290,311,2
320,301,286,309,2
315,302,285,310,2
309,304,286,313,2
303,306,291,316,2
302,308,299,320,2
305,310,308,324,2
307,312,317,328,2
306,313,324,330,2
305,314,328,329,2
302,313,330,327,2
301,313,331,324,2
299,312,332,321,2
300,310,331,318,2
301,308,329,315,2
304,306,327,314,2
307,304,324,313,2
310,303,322,312,2
312,301,319,310,2
313,300,318,308,2
311,300,317,306,2
308,301,316,304,2
303,302,316,300,2
297,303,315,296,2
291,304,313,290,2
287,305,310,284,2
285,305,308,278,2
286,305,306,271,2
287,305,304,265,2
289,304,303,262,2
293,303,303,261,2
297,302,303,261,2
301,301,303,263,2
304,300,303,266,2
307,299,302,271,2
310,297,301,275,2
312,296,299,280,2
314,295,298,286,2
315,295,301,292,2
317,296,305,299,2
318,298,310,305,2
318,300,313,311,2
315,303,316,317,2
309,306,316,321,2
300,308,315,324,2
291,310,312,325,2
286,311,306,326,2
283,311,300,326,2
281,311,295,323,2
279,310,292,318,2
280,309,291,312,2
285,307,293,306,2
292,306,296,301,2
298,305,301,297,2
302,304,306,295,2
304,303,310,295,2
306,303,314,299,2
307,302,317,304,2
308,302,318,311,2
308,303,320,318,2
309,304,320,326,2
309,306,321,333,2
307,308,320,339,2
304,310,320,343,2
302,312,318,346,2
299,313,316,345,2
297,314,313,341,2
296,313,308,334,2
295,312,303,326,2
297,310,299,319,2
300,309,298,313,2
302,308,299,309,2
304,306,300,304,2
306,304,300,299,2
310,302,300,295,2
312,301,300,293,2
312,300,301,293,2
311,300,303,295,2
310,300,305,298,2
308,301,307,304,2
306,303,305,312,2
305,305,302,320,2
304,308,299,326,2
302,310,295,330,2
301,311,293,330,2
300,312,294,328,2
301,312,297,325,2
303,312,300,321,2
305,311,302,316,2
306,310,303,311,2
307,309,306,304,2
309,309,308,298,2
311,308,310,294,2
311,307,310,293,2
310,305,309,293,2
308,304,305,294,2
306,302,302,296,2
306,300,301,299,2
306,299,302,301,2
307,298,304,303,2
307,298,306,304,2
306,299,307,305,2
305,301,307,305,2
304,303,306,305,2
303,304,305,303,2
301,305,305,300,2
297,306,303,296,2
294,306,302,292,2
293,307,302,291,2
293,307,302,291,2
292,308,303,292,2
292,308,303,295,2
294,309,303,298,2
299,308,304,302,2
303,307,303,306,2
306,305,303,310,2
308,303,305,315,2
307,302,306,320,2
306,301,308,325,2
307,302,310,330,2
309,303,313,334,2
312,306,315,337,2
314,308,317,338,2
315,311,317,336,2
316,312,317,331,2
315,313,315,325,2
311,313,312,317,2
305,313,309,310,2
299,312,305,304,2
293,312,301,297,2
288,312,297,291,2
285,312,295,287,2
286,311,295,284,2
289,310,295,285,2
296,309,293,289,2
302,308,290,295,2
306,306,288,301,2
308,305,285,307,2
308,305,285,312,2
307,305,287,315,2
306,306,293,316,2
306,307,300,316,2
302,309,306,316,2
297,311,310,317,2
294,313,313,319,2
296,314,314,325,2
301,315,316,334,2
305,316,316,343,2
308,316,315,349,2
310,317,314,352,2
311,317,312,351,2
311,317,309,346,2
309,316,304,335,2
306,315,298,320,2
304,312,288,304,2
302,308,278,289,2
302,305,270,280,2
302,303,268,275,2
305,302,271,273,2
308,302,280,275,2
311,302,291,278,2
313,303,300,281,2
313,304,305,283,2
311,305,309,285,2
307,305,310,288,2
302,305,310,292,2
297,306,310,296,2
293,306,310,300,2
291,306,310,302,2
290,306,309,303,2
290,306,308,304,2
291,306,304,305,2
293,305,299,305,2
296,303,293,304,2
297,300,287,302,2
298,298,284,300,2
300,297,284,299,2
301,295,288,298,2
302,294,292,299,2
302,294,296,299,2
302,295,299,300,2
302,296,301,302,2
302,299,301,306,2
303,302,301,310,2
304,304,302,314,2
306,306,305,318,2
306,307,309,321,2
303,308,311,322,2
298,308,313,323,2
294,308,313,322,2
291,307,312,322,2
290,306,311,320,2
290,304,309,317,2
290,303,308,314,2
290,300,308,311,2
291,299,309,308,2
291,297,309,307,2
294,296,310,306,2
297,296,309,306,2
302,298,309,305,2
307,299,309,306,2
311,302,310,307,2
313,305,312,309,2
313,308,313,311,2
312,310,312,312,2
310,311,309,311,2
307,311,305,307,2
304,310,302,304,2
300,310,299,299,2
295,309,298,297,2
289,308,299,297,2
284,308,301,300,2
280,307,303,302,2
278,306,304,305,2
278,305,304,308,2
282,303,301,309,2
290,301,298,312,2
298,300,296,315,2
306,300,296,321,2
313,300,298,330,2
318,302,301,341,2
320,304,306,350,2
320,307,312,355,2
319,309,315,354,2
316,312,316,347,2
314,312,315,335,2
311,312,313,321,2
310,311,310,308,2
309,310,308,298,2
308,309,308,290,2
306,308,309,285,2
304,306,310,283,2
302,305,309,282,2
300,304,306,283,2
300,303,299,283,2
301,301,290,285,2
304,299,281,286,2
307,298,275,290,2
310,298,275,294,2
312,298,282,299,2
313,299,292,303,2
313,301,304,304,2
312,302,313,304,2
308,303,320,302,2
305,304,323,299,2
302,304,323,297,2
300,305,321,295,2
298,305,317,295,2
298,306,313,295,2
298,306,310,298,2
298,306,308,303,2
297,306,309,309,2
298,307,313,316,2
298,307,316,322,2
298,307,317,326,2
297,306,318,327,2
297,305,318,327,2
298,304,317,325,2
299,303,317,323,2
301,303,317,323,2
301,304,317,324,2
301,306,317,326,2
299,309,318,328,2
299,312,318,328,2
298,313,318,328,2
298,314,318,327,2
297,315,318,327,2
295,316,318,324,2
295,315,315,320,2
297,314,310,314,2
300,312,303,307,2
303,310,297,302,2
306,308,294,299,2
309,306,295,298,2
311,304,297,300,2
313,301,298,306,2
316,298,299,312,2
318,296,302,318,2
318,295,305,323,2
316,294,308,327,2
311,295,310,328,2
306,297,313,328,2
302,299,314,326,2
296,302,314,324,2
289,305,314,321,2
285,306,313,318,2
289,307,312,315,2
297,307,310,312,2
305,306,308,310,2
309,305,306,308,2
310,304,304,306,2
309,304,303,305,2
307,303,303,304,2
306,302,303,305,2
305,301,304,306,2
305,299,304,308,2
305,298,304,310,2
305,297,305,310,2
306,296,307,310,2
307,297,308,310,2
308,298,310,310,2
308,300,312,311,2
308,303,314,313,2
307,307,317,316,2
306,310,317,319,2
305,312,311,321,2
305,314,298,322,2
306,314,283,325,2
308,315,270,328,2
312,315,263,329,2
315,314,265,328,2
318,313,275,327,2
320,312,290,323,2
320,309,305,317,2
319,306,316,310,2
317,302,321,301,2
313,297,323,292,2
309,294,322,285,2
305,291,320,280,2
304,291,319,278,2
303,291,320,277,2
302,294,320,279,2
302,297,320,281,2
301,300,320,283,2
301,302,319,285,2
299,304,318,286,2
298,305,317,287,2
297,305,316,289,2
297,306,315,292,2
297,306,314,296,2
298,307,314,300,2
299,309,313,305,2
300,309,313,309,2
300,309,312,313,2
300,309,311,315,2
301,307,310,316,2
302,306,310,316,2
303,305,309,316,2
304,304,310,317,2
305,305,310,319,2
306,307,311,321,2
307,310,311,324,2
307,313,311,325,2
308,315,310,323,2
308,316,309,321,2
307,316,306,321,2
306,316,304,323,2
306,316,303,326,2
304,315,302,328,2
301,313,300,329,2
299,312,298,329,2
299,310,299,327,2
300,309,302,324,2
302,307,306,319,2
301,306,308,313,2
299,306,309,307,2
298,305,310,303,2
301,304,312,302,2
305,303,313,302,2
310,303,315,302,2
314,303,316,303,2
317,304,316,303,2
318,304,316,301,2
317,306,315,299,2
316,307,314,297,2
315,309,313,295,2
315,310,312,292,2
314,311,312,289,2
313,311,311,288,2
311,311,311,292,2
309,311,310,299,2
306,311,310,309,2
305,311,311,317,2
309,310,311,323,2
313,310,311,327,2
317,308,310,329,2
320,308,310,330,2
323,307,310,329,2
324,308,310,328,2
324,309,310,326,2
321,310,311,321,2
318,312,310,317,2
314,314,309,312,2
310,316,305,306,2
308,316,299,297,2
305,315,289,289,2
305,313,277,282,2
305,311,267,277,2
304,308,258,273,2
302,306,253,271,2
300,304,257,270,2
300,303,269,270,2
300,302,285,271,2
300,302,300,273,2
299,302,311,275,2
297,301,317,277,2
298,300,320,279,2
302,300,322,283,2
307,300,323,288,2
311,300,325,294,2
313,302,326,300,2
315,304,328,307,2
314,306,328,315,2
312,310,327,323,2
307,312,325,330,2
302,313,322,336,2
297,315,321,342,2
294,316,320,345,2
294,316,318,346,2
296,317,317,343,2
300,317,315,339,2
305,317,314,335,2
310,316,312,331,2
313,314,309,328,2
314,312,306,325,2
314,310,303,321,2
313,307,300,318,2
312,305,299,314,2
310,303,297,311,2
307,302,295,308,2
305,301,295,306,2
305,302,295,303,2
306,304,297,299,2
308,307,299,295,2
311,310,300,290,2
313,312,303,288,2
315,315,306,289,2
316,317,309,294,2
317,319,312,300,2
317,320,314,307,2
317,319,313,313,2
315,317,311,318,2
312,315,310,322,2
310,313,309,324,2
309,311,308,325,2
308,309,307,325,2
308,307,305,322,2
307,304,304,318,2
307,302,302,312,2
305,300,301,304,2
304,299,301,296,2
303,299,300,292,2
303,300,300,292,2
305,303,299,296,2
307,305,298,300,2
309,307,298,303,2
309,308,300,305,2
309,309,301,307,2
309,310,302,307,2
308,310,301,307,2
306,310,301,305,2
304,310,301,302,2
305,310,301,298,2
307,309,299,294,2
308,308,296,291,2
308,307,292,289,2
309,305,289,289,2
312,304,285,291,2
316,303,282,294,2
318,302,279,298,2
317,302,278,301,2
313,302,279,304,2
310,303,283,304,2
307,304,291,301,2
306,305,299,295,2
304,306,304,289,2
301,307,305,285,2
298,307,302,284,2
299,308,297,287,2
302,308,291,292,2
304,308,287,299,2
305,309,288,306,2
306,310,294,314,2
306,310,303,321,2
305,310,311,327,2
303,309,317,330,2
303,308,321,330,2
303,307,324,328,2
305,306,325,323,2
307,305,325,318,2
309,304,323,313,2
311,305,322,308,2
313,305,320,304,2
314,306,319,300,2
314,305,318,296,2
313,305,316,294,2
313,306,314,291,2
313,305,313,289,2
312,305,310,287,2
310,305,306,286,2
306,305,303,287,2
304,305,300,290,2
302,305,298,293,2
301,303,296,296,2
299,301,293,299,2
296,300,291,303,2
294,298,291,306,2
296,297,293,309,2
301,297,297,310,2
307,297,302,312,2
311,298,305,314,2
313,300,308,317,2
313,302,310,320,2
311,304,311,320,2
308,305,311,319,2
307,307,311,318,2
306,308,311,315,2
305,308,309,311,2
305,308,308,306,2
304,307,306,298,2
302,306,303,291,2
299,305,299,285,2
296,304,293,280,2
293,303,289,278,2
293,302,288,278,2
297,301,290,279,2
302,299,293,282,2
306,298,297,286,2
309,298,301,289,2
309,299,303,294,2
308,300,304,298,2
306,302,305,303,2
304,304,305,309,2
301,307,307,313,2
300,309,309,318,2
304,312,310,321,2
310,314,310,324,2
317,315,309,326,2
322,315,308,327,2
325,315,307,330,2
326,314,303,332,2
322,314,297,334,2
315,313,289,335,2
308,312,282,335,2
301,311,278,334,2
295,310,280,335,2
293,309,287,336,2
298,308,296,336,2
305,307,305,336,2
311,307,312,336,2
312,307,318,335,2
310,308,322,332,2
305,309,324,328,2
301,311,323,323,2
297,311,320,317,2
296,311,317,310,2
297,311,313,303,2
299,310,310,298,2
303,310,307,295,2
306,309,305,295,2
309,309,305,296,2
312,309,304,300,2
313,309,303,305,2
313,308,301,311,2
311,307,300,316,2
308,305,299,319,2
306,304,298,320,2
306,304,297,319,2
306,304,296,315,2
307,303,296,310,2
310,304,298,307,2
315,305,301,306,2
319,307,306,306,2
322,308,310,307,2
323,310,313,307,2
321,310,315,305,2
319,310,316,304,2
316,310,316,303,2
313,309,314,300,2
309,307,311,296,2
306,306,307,293,2
304,304,302,290,2
305,302,298,287,2
305,301,294,285,2
305,299,290,283,2
304,297,289,283,2
305,295,291,284,2
307,294,295,286,2
310,294,300,289,2
312,294,305,292,2
315,296,309,295,2
317,298,311,300,2
318,300,312,303,2
317,303,311,306,2
315,305,310,307,2
312,307,309,309,2
310,308,308,311,2
308,310,308,312,2
306,311,309,313,2
304,311,308,311,2
302,310,308,308,2
301,311,309,307,2
300,310,310,310,2
300,310,310,317,2
301,309,309,328,2
304,309,307,338,2
308,307,306,346,2
312,307,307,350,2
314,306,308,351,2
315,307,310,349,2
315,308,311,346,2
312,309,312,342,2
308,311,313,338,2
302,313,313,331,2
293,314,313,322,2
288,315,310,311,2
289,314,305,299,2
297,313,300,287,2
304,311,297,278,2
311,309,296,272,2
317,308,297,269,2
321,307,298,269,2
323,307,300,271,2
322,306,301,276,2
322,306,301,281,2
320,305,300,287,2
319,305,299,294,2
319,305,298,301,2
319,305,297,308,2
321,305,294,314,2
322,306,293,318,2
321,308,293,320,2
319,309,295,320,2
315,310,299,315,2
309,310,303,309,2
303,310,306,301,2
297,309,307,292,2
291,308,306,284,2
288,307,304,279,2
287,306,305,277,2
290,306,307,278,2
294,306,308,281,2
297,306,311,286,2
298,306,313,292,2
299,306,314,297,2
300,305,313,302,2
302,304,313,306,2
307,303,313,310,2
311,303,313,314,2
315,303,311,318,2
318,304,309,321,2
320,305,305,323,2
321,307,304,323,2
322,308,302,322,2
321,309,303,319,2
319,309,305,316,2
317,309,308,312,2
315,309,311,308,2
315,309,313,305,2
314,309,314,304,2
314,309,315,304,2
314,309,316,303,2
313,309,315,303,2
313,307,314,303,2
313,306,312,303,2
314,305,311,304,2
316,304,310,309,2
318,303,311,318,2
319,303,311,330,2
320,303,313,343,2
322,305,314,355,2
323,307,316,364,2
324,310,317,368,2
324,312,318,368,2
322,314,318,364,2
319,315,316,358,2
315,315,315,349,2
311,315,313,335,2
306,313,310,318,2
302,312,306,300,2
302,309,303,283,2
303,307,300,271,2
305,304,298,263,2
306,302,296,259,2
307,300,293,259,2
307,299,291,261,2
308,298,290,265,2
309,298,290,271,2
310,299,290,276,2
311,300,291,282,2
312,302,295,286,2
313,304,300,291,2
312,306,306,295,2
309,308,310,299,2
306,309,312,300,2
306,309,312,301,2
308,309,312,301,2
309,310,311,300,2
308,310,309,299,2
306,310,308,297,2
303,311,307,295,2
301,311,306,294,2
300,311,304,294,2
301,311,300,296,2
304,311,295,298,2
309,310,290,301,2
317,309,287,305,2
322,309,287,309,2
324,308,289,312,2
323,309,292,313,2
320,310,295,315,2
317,311,296,317,2
314,313,299,319,2
309,315,303,321,2
302,316,308,325,2
296,318,314,330,2
292,318,319,335,2
290,318,321,338,2
291,318,323,340,2
296,317,324,340,2
302,316,323,339,2
307,315,320,336,2
310,313,317,332,2
312,311,313,328,2
311,308,310,322,2
310,305,307,317,2
310,303,304,311,2
311,300,300,305,2
312,299,296,300,2
313,298,294,295,2
313,297,295,290,2
314,298,298,289,2
315,301,300,292,2
315,303,303,299,2
314,306,304,308,2
313,308,303,318,2
313,309,300,327,2
312,309,295,332,2
312,309,291,334,2
312,309,289,332,2
311,309,289,328,2
309,308,289,320,2
306,307,292,312,2
303,306,295,304,2
301,304,298,300,2
300,303,300,298,2
300,302,300,299,2
301,301,299,300,2
301,300,298,300,2
302,299,298,299,2
303,299,298,299,2
304,299,300,298,2
306,300,301,298,2
307,302,302,297,2
308,303,304,297,2
308,304,303,298,2
306,306,302,299,2
304,307,299,301,2
302,307,297,304,2
301,307,297,305,2
300,306,299,306,2
301,305,300,305,2
303,304,301,304,2
307,302,299,300,2
309,301,299,297,2
310,300,298,295,2
310,298,298,295,2
308,297,299,299,2
307,296,300,304,2
308,296,302,310,2
310,297,304,315,2
314,300,306,319,2
318,302,308,323,2
321,306,309,326,2
321,308,311,327,2
319,310,312,327,2
316,312,313,324,2
311,312,311,319,2
306,311,307,312,2
301,311,302,305,2
296,310,297,299,2
291,309,293,294,2
291,308,290,292,2
295,307,291,292,2
298,306,293,292,2
299,303,297,294,2
298,301,301,297,2
297,300,303,299,2
298,298,303,300,2
302,297,297,299,2
305,298,289,299,2
308,299,281,300,2
309,301,279,301,2
309,303,279,303,2
311,305,286,303,2
315,307,294,303,2
320,308,304,304,2
322,309,312,305,2
323,310,318,308,2
321,310,323,311,2
316,310,325,314,2
313,310,325,317,2
311,309,325,320,2
309,308,324,324,2
308,307,322,329,2
308,306,320,334,2
309,305,317,341,2
311,304,316,350,2
314,304,316,359,2
317,305,316,365,2
319,307,315,370,2
322,310,316,371,2
323,312,317,367,2
321,314,316,360,2
317,315,314,350,2
313,316,312,341,2
309,316,312,332,2
306,316,313,324,2
305,315,315,316,2
304,314,315,308,2
304,313,314,300,2
303,310,313,292,2
301,308,310,285,2
299,306,308,282,2
298,304,306,281,2
298,301,306,284,2
298,299,305,287,2
299,297,305,290,2
300,296,305,290,2
301,295,305,290,2
302,295,305,290,2
302,296,306,291,2
304,298,308,293,2
305,301,310,296,2
304,304,312,299,2
304,306,312,302,2
304,308,313,304,2
302,309,313,307,2
299,310,312,309,2
296,310,311,313,2
295,310,310,316,2
298,310,309,315,2
301,309,308,309,2
302,307,306,300,2
302,304,304,291,2
302,301,302,285,2
303,298,301,284,2
305,297,301,286,2
307,296,302,288,2
308,296,304,290,2
308,297,306,291,2
308,298,307,291,2
306,299,309,290,2
304,302,310,288,2
302,304,309,285,2
299,305,309,282,2
298,306,308,280,2
296,306,306,279,2
292,306,306,280,2
287,305,306,284,2
285,304,307,288,2
288,305,308,295,2
292,305,309,304,2
295,305,311,315,2
296,305,312,324,2
298,305,312,332,2
303,305,309,338,2
309,305,302,342,2
313,306,292,343,2
316,307,282,342,2
317,308,274,340,2
317,310,272,336,2
315,312,276,332,2
312,314,286,326,2
309,316,298,320,2
309,317,310,311,2
311,317,319,302,2
313,315,326,294,2
312,314,331,288,2
309,313,333,285,2
305,311,333,283,2
301,309,332,282,2
297,308,330,281,2
295,306,328,281,2
294,305,325,283,2
295,304,323,286,2
297,303,321,291,2
299,303,320,298,2
300,303,319,306,2
299,303,319,314,2
299,305,319,320,2
299,307,318,325,2
300,309,317,328,2
300,312,316,329,2
301,315,315,327,2
302,317,314,322,2
304,318,314,318,2
305,318,313,316,2
306,318,312,314,2
307,317,310,313,2
307,316,308,311,2
305,313,306,308,2
303,310,303,306,2
299,308,300,304,2
294,305,296,300,2
291,303,295,296,2
292,301,298,291,2
298,299,302,286,2
305,297,307,283,2
311,297,311,283,2
316,297,315,285,2
318,299,319,287,2
317,301,320,287,2
312,303,320,285,2
306,305,320,283,2
301,307,319,281,2
297,308,318,282,2
295,309,318,286,2
293,310,316,290,2
291,310,315,295,2
291,310,314,298,2
290,310,313,302,2
291,309,311,305,2
292,309,310,307,2
295,308,308,309,2
297,306,308,310,2
299,305,307,312,2
301,305,307,314,2
303,304,307,316,2
305,304,308,317,2
306,304,309,317,2
306,305,311,317,2
306,307,314,317,2
307,309,316,318,2
307,311,318,317,2
307,312,317,315,2
307,313,316,313,2
306,313,312,311,2
304,312,305,308,2
301,311,292,307,2
297,311,276,307,2
294,310,264,309,2
293,309,261,312,2
294,309,267,319,2
295,309,281,327,2
293,309,297,336,2
291,308,313,344,2
294,307,324,350,2
303,306,332,354,2
313,306,336,356,2
319,306,339,358,2
321,307,340,356,2
320,307,339,349,2
316,308,337,339,2
313,309,333,326,2
312,310,329,315,2
311,310,326,306,2
310,310,323,301,2
309,311,321,299,2
309,312,320,299,2
309,312,320,300,2
310,312,319,302,2
312,313,319,305,2
314,313,320,309,2
314,312,319,313,2
312,311,319,316,2
309,309,318,317,2
306,306,317,317,2
304,304,317,317,2
304,303,316,315,2
304,302,316,312,2
305,302,316,307,2
306,302,315,300,2
308,303,312,291,2
309,304,308,284,2
309,304,305,279,2
307,304,303,277,2
306,303,303,277,2
305,303,303,279,2
304,303,304,281,2
303,303,305,284,2
301,303,305,286,2
298,304,306,289,2
294,304,307,291,2
290,303,307,292,2
288,302,306,294,2
287,302,305,297,2
288,302,303,300,2
292,302,302,303,2
299,302,302,306,2
307,303,303,306,2
311,305,304,307,2
312,306,306,307,2
310,309,307,308,2
306,310,306,309,2
303,312,304,311,2
300,313,301,314,2
298,313,300,319,2
298,314,300,325,2
300,315,303,331,2
305,316,307,336,2
309,317,312,340,2
310,316,316,341,2
310,315,317,340,2
309,313,315,337,2
309,310,312,332,2
310,307,308,325,2
313,305,304,319,2
314,302,300,314,2
315,300,295,309,2
312,298,289,304,2
308,298,284,301,2
304,299,282,299,2
303,302,286,295,2
303,304,292,293,2
302,307,299,290,2
300,309,304,287,2
297,310,305,284,2
299,310,303,283,2
303,310,301,282,2
305,310,299,283,2
306,310,297,285,2
305,310,297,289,2
304,310,300,295,2
303,309,304,302,2
302,308,308,309,2
301,307,310,317,2
301,306,309,323,2
302,305,305,326,2
306,304,301,329,2
311,305,299,332,2
315,306,299,334,2
317,309,304,336,2
318,313,310,335,2
317,315,315,331,2
316,317,318,324,2
314,317,319,317,2
312,316,318,310,2
310,315,316,307,2
306,315,314,306,2
301,314,310,305,2
297,313,307,304,2
293,311,304,302,2
295,310,303,302,2
300,309,303,301,2
305,307,303,299,2
309,305,303,297,2
310,303,303,296,2
311,301,304,298,2
312,302,305,302,2
314,304,307,307,2
315,307,307,313,2
316,309,306,318,2
316,312,303,320,2
315,313,301,322,2
313,315,300,323,2
311,316,302,323,2
309,317,304,322,2
305,317,305,318,2
302,315,306,313,2
300,313,306,306,2
300,312,306,301,2
302,310,306,297,2
305,309,305,295,2
308,307,305,294,2
311,304,304,296,2
313,303,304,299,2
314,302,305,304,2
313,301,307,310,2
310,302,309,315,2
310,304,310,318,2
311,306,311,317,2
313,309,310,315,2
313,312,308,314,2
312,314,304,315,2
312,316,298,318,2
316,317,292,323,2
319,318,287,326,2
320,318,283,329,2
318,318,280,331,2
311,318,280,331,2
305,318,283,329,2
300,317,290,325,2
297,315,297,320,2
295,312,302,314,2
294,309,306,307,2
294,306,308,301,2
295,303,309,297,2
295,300,310,296,2
295,299,311,297,2
296,299,311,300,2
297,300,311,303,2
297,302,310,305,2
296,305,311,305,2
295,307,310,304,2
294,309,308,302,2
296,309,306,300,2
299,309,303,299,2
302,309,300,298,2
304,309,298,300,2
306,309,298,301,2
308,309,300,304,2
308,309,303,308,2
309,308,302,312,2
309,307,299,316,2
308,306,295,320,2
307,305,290,325,2
307,304,287,328,2
306,303,289,331,2
306,302,294,332,2
304,303,301,331,2
301,304,307,327,2
301,305,313,322,2
304,306,315,315,2
306,307,314,310,2
306,308,313,306,2
306,309,309,303,2
305,309,304,299,2
303,309,300,296,2
302,309,297,294,2
301,308,297,293,2
300,308,300,294,2
300,307,303,296,2
304,305,306,298,2
312,304,308,299,2
322,302,310,300,2
328,301,311,303,2
330,299,311,307,2
328,299,309,312,2
323,299,307,318,2
316,300,306,323,2
309,302,307,328,2
304,305,310,331,2
300,307,312,332,2
296,309,313,332,2
294,310,313,332,2
295,311,312,331,2
297,311,312,329,2
300,312,312,324,2
303,311,311,318,2
305,310,310,312,2
307,310,308,306,2
308,308,306,303,2
308,306,304,300,2
307,304,302,299,2
307,302,300,298,2
307,301,298,297,2
309,299,297,297,2
310,298,296,295,2
312,298,296,293,2
312,298,296,293,2
310,299,296,296,2
307,300,297,300,2
303,302,299,305,2
301,303,301,309,2
302,304,304,312,2
306,306,304,314,2
311,307,304,316,2
314,307,301,317,2
316,307,297,315,2
317,306,293,310,2
316,305,290,304,2
314,304,289,299,2
310,303,290,297,2
305,302,295,298,2
300,302,302,302,2
297,301,308,308,2
296,300,312,315,2
295,301,315,322,2
296,301,315,329,2
297,302,314,334,2
297,303,311,337,2
296,305,309,335,2
297,306,307,330,2
298,308,308,321,2
300,309,309,309,2
300,309,310,297,2
297,308,307,286,2
294,307,302,278,2
288,306,295,274,2
281,304,289,273,2
280,303,285,275,2
284,303,286,278,2
287,302,291,281,2
290,301,297,283,2
293,299,302,284,2
296,297,304,285,2
300,295,306,286,2
304,293,308,286,2
307,292,310,287,2
308,292,311,288,2
308,293,312,289,2
307,295,312,290,2
306,298,313,291,2
304,301,312,293,2
302,304,312,296,2
301,307,313,299,2
301,309,314,304,2
301,310,314,308,2
303,310,315,312,2
304,310,315,317,2
305,309,316,322,2
305,309,317,326,2
304,308,316,330,2
303,307,315,334,2
303,305,315,339,2
304,303,315,344,2
307,301,314,347,2
311,299,311,346,2
316,297,307,340,2
320,297,303,333,2
321,297,300,326,2
320,299,298,318,2
314,300,296,310,2
307,301,294,301,2
300,301,295,292,2
295,302,298,285,2
291,302,302,279,2
288,303,305,274,2
287,303,307,271,2
286,303,307,272,2
287,303,306,274,2
288,303,304,278,2
289,303,303,282,2
289,301,303,285,2
290,300,303,288,2
292,300,302,291,2
294,299,301,295,2
296,299,301,299,2
299,299,301,304,2
300,300,302,310,2
302,302,303,318,2
302,305,307,326,2
303,309,309,333,2
305,312,310,339,2
307,315,308,343,2
308,316,305,344,2
306,316,302,345,2
303,316,299,345,2
298,315,297,344,2
293,314,295,342,2
289,312,296,336,2
287,311,296,329,2
285,308,295,320,2
285,305,292,309,2
291,302,291,299,2
297,299,291,291,2
303,297,293,287,2
306,297,298,286,2
306,297,307,287,2
302,298,316,288,2
298,300,322,289,2
294,302,325,290,2
292,304,326,290,2
290,305,326,291,2
291,307,324,292,2
293,308,322,293,2
295,310,320,295,2
298,311,318,296,2
299,312,317,298,2
299,312,316,301,2
297,311,315,304,2
296,312,314,308,2
294,311,313,311,2
293,309,313,313,2
294,308,312,318,2
296,306,313,323,2
299,305,313,330,2
304,305,313,337,2
309,305,313,344,2
312,306,313,352,2
316,308,314,359,2
319,311,316,362,2
320,313,317,359,2
320,314,316,350,2
318,315,313,337,2
314,314,313,324,2
309,313,311,311,2
301,312,309,301,2
295,310,307,293,2
294,309,306,287,2
296,308,305,284,2
300,307,305,282,2
303,306,304,281,2
305,304,304,282,2
309,303,302,286,2
313,302,300,293,2
317,301,299,300,2
321,301,298,306,2
322,302,298,309,2
320,302,298,309,2
315,303,299,307,2
309,304,301,302,2
303,306,303,298,2
298,308,304,295,2
295,309,305,297,2
292,311,303,300,2
289,313,302,307,2
288,315,301,313,2
288,316,302,320,2
291,318,307,326,2
294,318,312,331,2
297,318,316,335,2
299,317,319,338,2
301,315,321,340,2
301,313,323,341,2
302,310,323,339,2
301,308,322,335,2
300,305,320,329,2
297,304,318,323,2
295,303,317,316,2
292,303,316,311,2
290,304,315,308,2
285,305,313,309,2
283,305,308,312,2
287,306,303,314,2
298,308,298,314,2
308,308,295,311,2
314,310,293,306,2
318,310,293,301,2
318,310,293,294,2
317,309,294,287,2
313,308,295,278,2
310,306,296,271,2
307,304,299,267,2
306,303,303,266,2
306,301,304,270,2
307,300,302,274,2
308,299,299,281,2
311,298,296,289,2
314,299,296,297,2
318,300,301,306,2
321,303,310,314,2
323,306,319,321,2
321,308,325,326,2
316,310,328,330,2
310,312,330,333,2
304,313,331,335,2
300,313,331,334,2
298,313,329,330,2
298,312,326,325,2
299,311,322,321,2
298,310,318,317,2
295,308,315,313,2
291,306,313,312,2
291,305,313,311,2
294,304,312,311,2
294,303,312,308,2
293,303,310,304,2
291,302,310,303,2
290,302,309,302,2
291,303,310,302,2
294,305,311,302,2
298,307,311,300,2
303,309,309,298,2
306,311,307,296,2
307,313,307,295,2
305,314,307,296,2
302,315,308,297,2
298,315,310,299,2
296,315,313,300,2
294,314,314,299,2
293,313,315,298,2
291,310,314,296,2
289,309,312,296,2
289,307,310,296,2
290,305,310,298,2
293,303,310,301,2
296,302,310,305,2
300,303,312,311,2
302,304,313,318,2
305,307,315,325,2
307,310,317,333,2
308,314,317,340,2
306,317,317,345,2
304,320,316,348,2
301,320,314,347,2
298,320,312,341,2
294,319,310,334,2
290,317,308,326,2
285,315,306,319,2
283,313,303,314,2
287,310,298,311,2
295,309,291,308,2
304,307,283,304,2
312,306,273,301,2
319,304,267,297,2
323,303,263,293,2
325,303,265,290,2
326,303,269,289,2
325,304,274,290,2
323,305,279,293,2
321,306,285,296,2
320,308,292,301,2
319,310,300,307,2
319,312,309,313,2
317,313,317,318,2
313,313,322,321,2
309,313,325,324,2
305,312,326,326,2
302,312,326,326,2
301,310,324,324,2
301,309,321,319,2
304,306,316,314,2
308,304,311,311,2
314,302,305,311,2
321,301,299,313,2
326,298,296,316,2
329,297,296,318,2
327,296,298,318,2
321,296,303,316,2
314,297,306,312,2
307,298,308,307,2
302,299,308,301,2
300,301,307,294,2
299,303,307,289,2
299,305,307,285,2
298,307,308,283,2
296,309,308,282,2
295,310,308,282,2
295,311,308,281,2
296,311,306,282,2
297,310,304,284,2
298,309,304,287,2
298,308,305,292,2
299,306,307,298,2
300,306,308,303,2
302,304,308,308,2
303,303,308,313,2
300,302,307,318,2
296,303,307,322,2
297,304,307,324,2
302,305,309,325,2
308,308,310,325,2
313,310,310,324,2
315,312,311,323,2
314,314,311,323,2
311,315,311,322,2
308,315,311,323,2
306,315,310,323,2
304,315,310,325,2
303,314,310,325,2
302,314,310,325,2
299,312,310,325,2
297,310,308,324,2
297,307,304,322,2
300,305,301,318,2
306,303,298,312,2
313,303,296,305,2
319,302,296,299,2
322,302,297,295,2
322,303,298,294,2
320,304,299,296,2
318,305,297,298,2
317,307,294,300,2
317,309,290,301,2
317,311,287,302,2
317,312,287,303,2
318,312,291,306,2
317,312,298,308,2
316,311,303,309,2
314,310,305,307,2
311,308,302,303,2
306,306,296,297,2
303,304,290,293,2
300,302,288,290,2
300,300,292,288,2
303,299,301,288,2
307,299,313,289,2
312,299,323,291,2
316,300,331,292,2
317,301,335,292,2
316,302,337,294,2
315,304,338,296,2
312,306,337,299,2
309,308,335,301,2
305,309,333,305,2
301,310,332,311,2
298,311,329,317,2
296,313,324,321,2
295,313,320,322,2
295,314,317,322,2
297,314,316,320,2
301,313,315,318,2
307,312,315,315,2
313,311,315,313,2
316,309,315,311,2
317,307,316,311,2
316,306,317,311,2
316,305,318,310,2
319,304,319,307,2
323,303,318,305,2
325,304,316,304,2
323,304,315,303,2
320,305,313,303,2
315,307,312,305,2
309,308,310,307,2
304,310,308,308,2
299,311,307,306,2
293,312,306,303,2
289,311,305,299,2
288,310,305,294,2
289,309,304,290,2
292,308,302,286,2
296,306,301,283,2
301,303,301,282,2
308,301,302,283,2
314,300,304,285,2
317,300,307,289,2
317,300,308,294,2
316,301,309,300,2
314,303,308,307,2
314,305,307,315,2
315,308,306,321,2
316,311,304,325,2
317,313,303,326,2
317,315,304,325,2
318,315,304,323,2
318,315,304,318,2
318,315,305,313,2
316,314,307,308,2
314,312,310,302,2
312,310,313,296,2
311,308,314,290,2
310,305,315,286,2
311,302,316,286,2
313,299,316,290,2
315,298,316,297,2
318,298,316,306,2
319,299,317,316,2
320,301,318,326,2
320,303,320,336,2
320,306,322,345,2
319,308,323,351,2
317,311,322,352,2
314,312,320,349,2
312,312,317,341,2
310,312,311,331,2
307,311,301,320,2
304,310,290,309,2
302,308,281,300,2
301,307,275,292,2
302,306,275,286,2
305,305,281,281,2
308,304,289,278,2
311,303,297,277,2
314,302,303,278,2
315,301,307,282,2
315,300,310,290,2
314,300,314,302,2
314,301,320,318,2
314,303,325,335,2
314,307,330,350,2
313,310,332,362,2
310,313,332,370,2
307,315,330,375,2
304,316,327,375,2
300,316,324,371,2
295,315,323,361,2
294,314,322,344,2
297,312,319,326,2
305,310,315,310,2
312,307,312,298,2
317,305,309,287,2
319,303,307,279,2
319,301,304,276,2
319,299,302,279,2
318,297,299,285,2
316,296,297,291,2
313,296,295,295,2
311,297,294,299,2
312,300,293,302,2
314,304,293,303,2
317,308,294,301,2
319,311,295,293,2
319,313,294,283,2
316,314,293,275,2
313,314,293,271,2
308,315,294,271,2
304,315,296,273,2
301,315,299,279,2
300,315,301,288,2
299,315,302,299,2
299,315,302,311,2
301,314,300,321,2
303,313,298,330,2
307,311,295,336,2
311,308,293,340,2
316,306,292,341,2
321,305,291,338,2
325,303,290,330,2
325,303,291,320,2
321,303,293,308,2
314,303,296,296,2
306,303,300,285,2
299,302,303,277,2
294,302,304,272,2
292,302,305,271,2
293,302,303,273,2
297,303,299,277,2
300,304,294,285,2
302,305,291,293,2
303,306,289,302,2
304,307,290,309,2
305,306,295,315,2
306,305,300,318,2
305,303,302,320,2
305,301,303,322,2
305,300,304,324,2
306,300,304,327,2
307,300,302,329,2
308,302,298,330,2
308,303,293,329,2
307,305,290,326,2
305,307,289,321,2
303,309,291,315,2
302,311,295,308,2
301,312,300,306,2
302,312,304,307,2
303,311,308,309,2
303,310,309,309,2
302,308,309,305,2
301,307,308,300,2
301,305,306,294,2
299,302,303,288,2
298,300,300,284,2
296,299,297,282,2
297,297,296,283,2
304,297,297,287,2
311,298,299,295,2
317,299,302,302,2
319,300,305,309,2
321,302,307,312,2
323,305,309,312,2
324,307,309,311,2
323,309,308,311,2
319,311,308,315,2
314,312,307,321,2
309,313,306,327,2
306,313,305,333,2
304,313,302,338,2
303,313,300,340,2
303,312,299,339,2
303,311,299,334,2
303,309,298,328,2
304,308,297,321,2
304,306,296,316,2
305,305,296,312,2
306,304,296,307,2
307,304,298,302,2
309,304,299,298,2
309,305,300,295,2
308,305,300,294,2
308,306,301,295,2
307,307,303,296,2
307,309,304,298,2
306,310,305,299,2
304,310,306,299,2
301,311,304,300,2
299,311,301,300,2
297,311,299,301,2
297,310,297,302,2
298,309,296,304,2
299,308,296,306,2
301,306,298,307,2
304,303,300,306,2
308,300,301,302,2
311,297,301,296,2
311,295,300,291,2
308,292,298,287,2
305,292,299,286,2
303,293,300,288,2
303,296,304,292,2
304,300,307,297,2
305,304,308,300,2
307,307,308,303,2
309,309,307,303,2
310,311,306,303,2
311,312,304,302,2
310,313,301,300,2
309,312,296,297,2
308,311,290,295,2
307,309,283,292,2
306,308,277,290,2
305,306,274,289,2
306,304,274,289,2
306,303,278,291,2
307,303,285,295,2
308,304,294,301,2
308,305,302,309,2
307,307,307,320,2
306,309,309,331,2
305,312,309,342,2
304,315,308,353,2
304,317,305,360,2
302,318,302,363,2
300,319,298,362,2
299,319,297,357,2
298,318,299,352,2
299,318,303,346,2
297,316,307,338,2
293,314,308,327,2
291,312,309,314,2
294,310,307,299,2
296,307,305,286,2
299,304,304,276,2
302,301,303,272,2
306,300,303,270,2
311,299,302,271,2
314,299,302,272,2
317,300,302,275,2
318,301,302,280,2
317,304,303,287,2
315,306,302,295,2
314,309,301,303,2
316,311,300,310,2
320,313,301,315,2
322,314,300,319,2
320,315,300,320,2
314,315,300,320,2
306,316,301,320,2
298,315,301,320,2
294,314,303,321,2
293,313,304,321,2
296,311,305,320,2
299,308,305,316,2
303,305,304,311,2
306,302,302,305,2
306,299,301,300,2
307,297,300,298,2
307,297,300,298,2
307,299,298,299,2
306,301,295,300,2
305,304,292,300,2
303,306,289,299,2
302,308,289,300,2
301,310,293,303,2
299,312,298,308,2
299,313,304,312,2
299,314,308,315,2
300,314,311,316,2
300,313,311,315,2
299,311,311,313,2
298,309,309,310,2
300,306,306,307,2
306,303,303,304,2
311,301,300,304,2
315,299,298,305,2
318,298,298,306,2
319,298,298,306,2
319,298,300,305,2
318,299,301,305,2
315,301,303,305,2
312,303,305,306,2
310,306,306,307,2
307,308,306,308,2
304,309,303,309,2
302,310,299,309,2
299,310,291,307,2
297,309,282,306,2
295,308,275,304,2
296,307,270,305,2
298,306,270,307,2
298,305,274,310,2
297,305,283,311,2
301,304,291,310,2
307,302,295,308,2
313,300,297,307,2
317,299,297,306,2
320,299,297,306,2
322,299,297,307,2
324,300,300,309,2
324,302,304,312,2
323,305,307,313,2
321,307,308,313,2
318,309,307,311,2
317,310,306,310,2
316,311,305,313,2
316,312,305,317,2
316,313,303,322,2
315,314,301,325,2
313,313,299,327,2
311,313,297,327,2
309,311,294,322,2
306,309,292,315,2
306,307,292,307,2
307,304,293,301,2
308,303,295,297,2
308,302,297,296,2
309,303,299,298,2
310,304,299,301,2
312,307,301,305,2
313,309,301,310,2
315,312,302,313,2
316,314,302,317,2
318,315,302,320,2
319,316,302,322,2
318,315,303,322,2
314,315,303,321,2
309,313,303,317,2
305,312,301,312,2
303,310,298,306,2
302,308,293,300,2
302,306,289,295,2
302,304,285,290,2
303,302,282,288,2
305,301,281,290,2
308,301,281,296,2
312,301,283,299,2
315,301,288,302,2
317,302,294,303,2
318,303,301,306,2
318,305,308,308,2
317,308,312,309,2
314,309,315,309,2
311,310,316,309,2
307,311,316,310,2
304,311,314,312,2
303,311,313,314,2
305,310,311,313,2
308,309,309,310,2
312,308,306,306,2
314,307,304,300,2
314,305,302,293,2
315,304,298,286,2
317,302,293,280,2
320,300,288,277,2
323,299,284,277,2
325,299,283,281,2
326,299,285,287,2
325,300,292,296,2
321,302,299,308,2
316,304,305,321,2
311,308,310,334,2
310,311,312,344,2
313,313,313,350,2
316,314,315,352,2
316,316,317,351,2
316,316,317,350,2
313,316,315,346,2
310,316,313,341,2
306,314,311,334,2
304,313,309,325,2
304,312,309,314,2
303,309,309,302,2
303,306,309,291,2
304,303,309,284,2
305,300,310,281,2
305,298,311,282,2
305,297,312,285,2
305,297,313,288,2
305,298,313,288,2
304,300,312,287,2
301,302,310,285,2
299,304,307,284,2
297,305,305,286,2
300,306,305,290,2
305,306,306,297,2
310,307,309,304,2
314,308,312,311,2
317,309,315,317,2
318,310,316,323,2
318,310,317,328,2
317,311,316,331,2
314,310,315,333,2
311,309,313,335,2
308,307,311,335,2
306,304,309,332,2
304,302,307,328,2
301,301,304,322,2
299,301,303,314,2
300,302,304,305,2
302,303,305,296,2
304,305,306,286,2
305,305,303,278,2
305,305,299,272,2
305,305,295,269,2
307,304,291,268,2
308,303,290,270,2
309,303,290,272,2
310,304,292,276,2
311,305,296,280,2
313,306,300,284,2
315,306,304,288,2
317,306,309,293,2
318,306,312,299,2
318,305,313,307,2
317,305,314,316,2
315,305,315,326,2
314,306,316,336,2
314,308,315,346,2
314,310,312,355,2
313,312,308,360,2
311,313,304,359,2
308,313,301,352,2
303,313,302,342,2
300,314,307,334,2
298,313,312,328,2
298,313,316,323,2
298,312,318,319,2
299,311,319,316,2
299,310,318,313,2
298,308,316,308,2
296,307,311,301,2
292,304,305,291,2
287,300,298,281,2
284,297,293,274,2
283,295,293,270,2
284,293,294,270,2
287,293,297,270,2
294,292,300,270,2
303,293,302,272,2
311,294,305,275,2
316,297,309,280,2
320,300,312,283,2
322,302,313,285,2
321,304,313,288,2
320,305,309,290,2
316,306,304,294,2
311,307,301,297,2
307,308,300,302,2
303,310,301,308,2
300,311,304,313,2
297,312,309,317,2
293,311,312,322,2
290,310,316,326,2
289,309,318,332,2
290,307,320,336,2
295,306,322,343,2
300,305,322,353,2
304,304,321,362,2
307,304,320,367,2
309,305,319,365,2
309,307,320,357,2
308,309,319,343,2
306,310,318,326,2
303,309,315,309,2
301,309,312,295,2
300,309,308,285,2
301,308,305,279,2
303,309,303,278,2
304,309,301,282,2
305,309,299,287,2
304,309,296,292,2
304,307,291,296,2
304,305,288,298,2
305,303,287,299,2
306,301,289,299,2
307,300,293,298,2
308,300,297,296,2
308,300,301,296,2
307,301,305,298,2
307,303,308,301,2
306,305,310,304,2
305,308,311,306,2
304,309,311,308,2
303,311,310,308,2
302,312,310,307,2
301,313,308,304,2
300,313,304,301,2
300,312,298,299,2
300,312,291,298,2
301,311,287,296,2
300,310,285,296,2
299,309,288,298,2
298,308,294,304,2
298,308,302,312,2
297,307,309,320,2
296,307,315,327,2
298,307,320,332,2
304,307,323,336,2
310,308,326,338,2
312,310,327,338,2
310,312,325,335,2
305,313,322,330,2
298,314,318,325,2
294,314,312,320,2
293,315,307,315,2
295,315,301,309,2
297,315,296,301,2
299,314,296,294,2
302,313,300,289,2
303,312,305,287,2
305,310,309,288,2
306,309,313,292,2
309,307,316,300,2
313,305,317,308,2
317,303,318,314,2
318,301,318,317,2
316,300,319,316,2
312,301,320,312,2
305,302,321,306,2
298,304,320,300,2
292,306,316,295,2
287,307,311,292,2
286,308,307,290,2
288,309,304,290,2
292,310,304,290,2
295,311,306,289,2
296,311,309,287,2
296,311,313,285,2
295,311,315,283,2
293,310,317,282,2
291,308,318,283,2
288,306,319,285,2
288,304,319,289,2
290,302,318,293,2
297,301,318,300,2
305,301,318,308,2
312,301,317,316,2
316,302,318,323,2
318,302,319,330,2
319,304,320,336,2
319,306,321,342,2
319,308,323,344,2
317,310,323,342,2
314,310,322,335,2
310,310,319,326,2
307,308,314,317,2
304,307,309,309,2
302,305,303,302,2
301,304,299,298,2
300,302,298,297,2
300,302,300,297,2
300,301,302,296,2
300,300,305,296,2
302,298,306,297,2
304,297,306,298,2
306,296,304,302,2
309,296,301,307,2
311,297,299,314,2
311,299,298,320,2
310,302,299,325,2
308,305,304,326,2
304,308,310,324,2
300,310,314,319,2
298,311,317,311,2
302,311,319,303,2
307,311,321,294,2
309,310,322,287,2
305,310,321,281,2
299,309,320,279,2
293,309,319,279,2
290,309,319,281,2
291,308,319,287,2
296,308,320,294,2
301,307,321,303,2
305,306,323,314,2
308,305,324,325,2
309,306,325,335,2
310,307,326,342,2
310,309,327,348,2
310,312,328,351,2
311,314,327,350,2
312,316,323,347,2
311,316,318,342,2
308,316,310,335,2
304,315,303,326,2
298,313,297,315,2
293,311,296,303,2
289,309,299,294,2
286,306,305,289,2
285,305,309,289,2
284,304,311,294,2
284,303,310,301,2
287,303,309,308,2
292,303,309,314,2
295,304,312,319,2
298,306,316,322,2
300,307,322,326,2
301,307,327,326,2
302,308,330,324,2
303,309,333,321,2
306,310,333,319,2
310,310,332,318,2
314,311,330,315,2
317,311,326,310,2
320,311,323,303,2
323,311,321,296,2
324,310,319,291,2
323,309,314,287,2
321,308,309,284,2
317,306,304,284,2
313,304,300,284,2
307,302,298,285,2
300,300,299,288,2
292,298,302,294,2
285,297,307,301,2
284,297,310,308,2
289,297,310,315,2
297,299,307,320,2
304,300,305,323,2
309,303,304,325,2
312,305,307,324,2
313,308,313,323,2
313,310,319,319,2
311,311,324,315,2
309,311,327,309,2
304,310,328,302,2
299,308,327,295,2
296,307,327,291,2
294,304,325,290,2
294,303,325,291,2
294,302,324,292,2
294,302,323,295,2
294,302,322,296,2
296,301,320,296,2
298,300,318,296,2
300,299,317,298,2
302,299,316,300,2
304,300,315,302,2
305,301,315,304,2
305,304,315,305,2
305,306,316,306,2
305,310,317,307,2
303,311,317,308,2
301,312,318,309,2
301,313,318,312,2
301,313,318,314,2
300,313,317,316,2
297,312,315,316,2
294,312,311,315,2
290,311,306,315,2
288,311,301,314,2
288,310,297,314,2
289,309,297,315,2
292,308,298,316,2
296,305,301,317,2
302,304,304,318,2
307,303,307,319,2
309,303,309,320,2
309,305,310,321,2
307,308,312,323,2
306,311,313,326,2
305,314,316,330,2
303,317,321,335,2
300,318,325,342,2
297,318,327,349,2
295,317,328,353,2
294,316,328,354,2
293,315,327,352,2
292,314,324,347,2
292,312,320,341,2
292,310,315,335,2
294,308,310,328,2
297,306,307,321,2
300,304,307,314,2
305,302,307,310,2
314,300,308,305,2
320,299,308,302,2
324,299,306,299,2
325,299,306,297,2
323,300,306,294,2
319,302,307,291,2
315,304,311,287,2
311,306,315,284,2
308,307,318,281,2
304,307,321,281,2
302,308,323,283,2
301,307,323,285,2
302,307,322,285,2
303,306,321,284,2
305,305,319,282,2
307,304,317,281,2
309,303,313,280,2
312,302,310,281,2
314,301,310,284,2
315,300,311,289,2
314,300,313,294,2
313,300,315,299,2
313,300,315,303,2
314,301,315,306,2
315,303,314,308,2
316,306,313,308,2
317,308,312,308,2
317,309,312,307,2
316,310,312,306,2
315,310,312,304,2
313,309,312,303,2
311,308,312,302,2
309,308,312,302,2
306,308,312,304,2
303,308,311,307,2
301,307,311,313,2
301,306,311,317,2
301,305,311,321,2
303,304,311,324,2
305,304,312,326,2
306,303,314,328,2
307,303,316,329,2
307,303,315,329,2
306,304,311,326,2
305,305,305,323,2
304,307,300,319,2
304,309,298,316,2
305,311,300,314,2
306,313,306,315,2
307,315,314,320,2
307,316,320,330,2
306,317,322,342,2
303,318,322,352,2
298,317,321,360,2
294,317,320,365,2
291,316,319,366,2
294,316,318,364,2
302,314,318,360,2
311,312,318,354,2
318,310,319,348,2
322,308,317,341,2
323,306,312,333,2
320,305,305,321,2
316,303,297,307,2
311,301,292,294,2
306,300,290,283,2
302,300,291,273,2
302,300,294,265,2
307,301,297,258,2
313,301,300,255,2
318,301,304,255,2
320,300,309,256,2
320,300,313,260,2
318,299,314,265,2
313,298,315,270,2
308,298,315,275,2
302,297,315,280,2
297,297,314,285,2
294,296,313,288,2
295,296,310,290,2
298,295,308,293,2
304,296,307,296,2
309,297,307,302,2
313,299,307,307,2
316,301,308,313,2
316,304,308,317,2
315,307,308,320,2
314,309,308,322,2
313,309,308,323,2
314,309,309,323,2
315,309,309,323,2
316,309,308,322,2
314,308,307,320,2
308,307,305,319,2
300,306,304,319,2
294,305,302,320,2
290,304,301,322,2
289,303,300,325,2
291,301,299,328,2
294,300,299,331,2
297,299,300,332,2
300,298,302,330,2
302,298,304,328,2
304,299,304,324,2
307,301,303,320,2
308,303,300,314,2
307,304,296,308,2
306,306,294,303,2
306,307,293,299,2
306,308,293,295,2
306,308,295,293,2
306,308,297,291,2
305,308,298,292,2
303,308,298,293,2
300,307,299,295,2
299,307,300,298,2
299,307,303,303,2
299,306,305,310,2
300,305,307,318,2
303,304,308,326,2
305,304,311,332,2
307,304,314,338,2
310,304,317,343,2
310,306,319,347,2
308,307,319,349,2
301,309,316,345,2
293,310,311,339,2
284,310,305,329,2
274,310,299,317,2
268,309,294,304,2
273,308,290,291,2
290,307,286,282,2
309,306,286,276,2
321,306,287,271,2
327,304,292,267,2
328,302,297,265,2
325,301,302,266,2
322,298,305,268,2
318,297,306,272,2
316,295,306,278,2
316,294,308,285,2
318,294,311,291,2
321,295,315,297,2
324,297,318,302,2
325,299,320,305,2
326,301,319,306,2
324,303,318,306,2
321,305,315,306,2
315,306,313,308,2
309,308,312,309,2
305,309,312,311,2
302,309,312,312,2
300,309,313,312,2
298,308,312,311,2
297,306,310,310,2
297,305,306,308,2
298,303,301,307,2
301,300,300,307,2
304,299,300,308,2
307,298,302,310,2
310,298,303,312,2
311,298,304,313,2
310,299,304,313,2
308,300,304,314,2
306,303,305,313,2
305,304,305,312,2
304,306,305,313,2
303,306,304,315,2
303,307,302,315,2
304,307,299,313,2
303,306,296,309,2
304,306,293,305,2
305,306,290,303,2
305,306,288,304,2
306,306,288,307,2
307,306,290,312,2
307,305,294,317,2
307,304,298,324,2
304,303,303,332,2
301,301,307,338,2
297,300,311,342,2
295,300,314,342,2
294,300,316,340,2
295,301,318,335,2
297,303,319,329,2
302,305,320,322,2
308,306,319,316,2
311,307,318,312,2
311,308,315,309,2
309,309,312,306,2
305,309,309,302,2
300,308,304,297,2
296,308,300,292,2
291,306,298,287,2
287,305,297,283,2
288,305,296,281,2
294,304,295,281,2
301,303,295,282,2
307,302,293,285,2
311,301,289,288,2
313,300,286,291,2
315,299,281,293,2
317,298,278,294,2
320,299,279,295,2
322,300,283,295,2
325,302,286,295,2
327,304,287,294,2
327,305,288,291,2
323,306,291,290,2
317,306,293,291,2
309,306,295,294,2
303,306,298,297,2
299,306,303,302,2
298,307,307,305,2
297,307,310,307,2
297,307,313,309,2
298,307,313,310,2
299,306,313,311,2
300,305,311,310,2
301,304,310,310,2
302,303,310,310,2
303,301,310,310,2
304,302,311,311,2
305,302,312,312,2
306,304,313,314,2
306,305,314,316,2
306,307,313,317,2
306,309,311,318,2
306,310,310,319,2
308,312,310,324,2
310,312,310,330,2
310,313,310,335,2
310,313,309,338,2
308,313,308,339,2
306,313,305,338,2
303,313,303,336,2
298,312,300,333,2
296,311,298,331,2
302,311,296,329,2
312,311,295,328,2
319,312,296,327,2
321,312,297,325,2
318,313,301,319,2
313,314,305,308,2
307,315,309,296,2
301,315,311,285,2
296,314,312,278,2
292,312,312,277,2
289,309,311,281,2
289,306,309,287,2
293,305,308,292,2
302,304,307,295,2
312,304,306,295,2
319,303,305,294,2
324,302,304,291,2
326,300,301,288,2
326,298,296,286,2
324,295,291,285,2
321,292,288,288,2
318,292,287,294,2
316,296,290,300,2
315,302,298,306,2
313,307,305,309,2
310,309,310,310,2
306,311,313,309,2
303,313,315,306,2
299,313,314,301,2
297,314,313,299,2
298,315,313,298,2
300,316,312,299,2
301,317,310,299,2
302,317,308,299,2
303,317,307,298,2
302,316,304,297,2
303,314,299,297,2
304,313,293,297,2
305,311,286,298,2
306,308,280,299,2
306,306,275,301,2
304,305,275,304,2
301,305,278,307,2
299,306,284,310,2
301,307,289,311,2
305,309,291,311,2
305,311,291,309,2
304,312,294,305,2
303,314,301,302,2
303,315,308,299,2
302,316,315,295,2
299,315,319,291,2
296,314,320,287,2
296,313,320,285,2
296,312,319,285,2
293,311,318,287,2
290,311,317,289,2
290,310,316,293,2
294,310,315,296,2
300,309,315,301,2
305,308,315,307,2
309,307,315,313,2
310,306,316,318,2
310,306,316,321,2
309,306,316,323,2
309,308,316,323,2
310,309,315,320,2
312,311,313,315,2
314,312,311,309,2
315,313,309,303,2
314,313,307,298,2
312,312,306,294,2
309,311,305,292,2
306,310,304,291,2
304,310,304,289,2
304,310,302,289,2
305,310,301,288,2
305,309,298,287,2
305,307,296,287,2
306,305,292,288,2
305,303,287,290,2
303,301,281,292,2
301,300,278,295,2
299,299,278,298,2
297,300,280,302,2
294,301,285,308,2
291,303,293,317,2
289,305,301,327,2
288,308,307,335,2
291,310,312,340,2
296,312,316,339,2
301,312,319,334,2
305,312,320,326,2
307,311,319,319,2
307,310,319,313,2
308,310,318,310,2
308,309,318,308,2
308,308,317,308,2
308,306,315,308,2
305,305,313,310,2
303,304,311,313,2
305,303,311,316,2
313,302,311,318,2
321,302,311,319,2
327,303,308,320,2
329,304,303,321,2
327,305,298,321,2
322,306,293,320,2
316,307,287,318,2
309,307,281,314,2
303,308,280,310,2
298,308,283,307,2
297,309,290,305,2
298,311,299,305,2
300,312,308,306,2
301,313,316,305,2
301,313,321,302,2
299,312,322,297,2
297,310,320,290,2
295,306,316,282,2
294,301,312,275,2
296,295,309,270,2
299,289,309,268,2
302,285,310,269,2
303,283,312,272,2
305,285,314,278,2
307,291,316,283,2
308,298,315,287,2
308,305,313,290,2
305,311,310,292,2
303,315,309,295,2
304,318,309,297,2
305,318,309,299,2
306,318,309,299,2
305,317,310,300,2
303,316,310,302,2
302,315,310,305,2
301,314,308,308,2
301,313,304,313,2
303,312,299,318,2
305,311,295,321,2
308,310,293,323,2
313,309,293,324,2
317,309,297,324,2
319,309,303,323,2
319,310,310,322,2
315,312,315,320,2
311,313,317,317,2
307,314,318,312,2
304,314,318,307,2
303,315,316,303,2
305,314,315,300,2
309,314,313,298,2
312,313,312,299,2
311,313,311,302,2
309,313,310,308,2
305,313,309,317,2
303,313,309,327,2
302,312,309,337,2
303,312,310,344,2
305,311,311,347,2
307,309,312,346,2
310,307,312,341,2
312,305,312,332,2
315,305,312,321,2
320,306,312,309,2
326,308,312,299,2
331,309,310,289,2
328,310,306,280,2
317,310,299,272,2
304,309,291,265,2
293,308,283,260,2
288,307,276,257,2
290,307,272,257,2
295,307,270,258,2
302,307,271,261,2
309,307,272,264,2
317,307,274,267,2
324,306,278,270,2
329,304,283,274,2
332,303,291,279,2
333,302,300,284,2
332,302,308,291,2
329,303,316,300,2
323,304,321,309,2
312,306,324,318,2
299,308,326,325,2
291,309,326,331,2
291,311,326,335,2
297,313,324,335,2
303,313,319,333,2
307,313,313,329,2
308,313,306,324,2
309,313,302,319,2
309,313,301,314,2
310,312,304,309,2
312,312,307,305,2
314,310,309,300,2
316,308,310,295,2
317,306,310,290,2
318,304,310,288,2
318,303,306,289,2
318,302,302,293,2
317,302,297,299,2
316,303,295,306,2
315,305,296,312,2
315,308,300,319,2
315,311,307,325,2
314,313,313,328,2
310,314,317,329,2
306,315,318,327,2
299,315,319,324,2
292,315,318,320,2
283,314,318,316,2
275,312,317,313,2
271,311,317,309,2
274,309,317,306,2
282,307,316,305,2
291,305,314,304,2
298,304,311,306,2
304,303,309,308,2
309,302,308,311,2
314,301,309,314,2
320,302,310,317,2
323,303,312,320,2
323,305,312,321,2
320,307,312,320,2
315,309,312,317,2
309,310,311,315,2
303,311,310,314,2
299,311,308,313,2
298,310,304,310,2
300,309,298,307,2
303,307,292,303,2
308,306,288,299,2
316,305,286,296,2
322,304,286,293,2
322,304,289,291,2
318,303,292,290,2
312,301,294,292,2
307,300,295,295,2
305,299,295,300,2
304,299,295,306,2
304,300,295,310,2
306,301,296,312,2
311,302,298,311,2
312,303,303,309,2
305,303,308,307,2
295,304,312,305,2
288,305,314,303,2
287,305,315,301,2
288,305,313,299,2
289,305,310,296,2
293,305,307,294,2
302,305,305,293,2
313,305,305,295,2
318,305,306,301,2
316,305,307,308,2
310,305,304,313,2
304,305,301,316,2
300,304,298,317,2
299,302,293,317,2
300,300,289,315,2
302,299,285,313,2
304,300,284,311,2
305,300,286,310,2
304,303,292,310,2
301,305,299,309,2
295,307,306,307,2
288,308,311,307,2
285,309,314,307,2
283,308,316,309,2
282,308,317,313,2
283,307,316,317,2
290,307,314,320,2
303,306,309,321,2
317,305,304,321,2
329,304,298,320,2
339,303,294,318,2
344,303,291,317,2
342,303,292,317,2
335,303,296,318,2
325,303,300,322,2
317,303,305,327,2
312,304,309,332,2
310,306,312,337,2
312,308,313,341,2
314,311,314,344,2
315,314,313,344,2
313,315,312,341,2
307,316,311,334,2
301,315,310,326,2
295,315,307,319,2
291,314,304,311,2
289,312,301,302,2
289,310,298,294,2
288,308,296,288,2
290,307,294,285,2
292,305,294,284,2
296,304,293,285,2
301,302,292,287,2
305,301,290,287,2
308,299,287,286,2
311,298,285,283,2
316,298,284,282,2
322,299,287,283,2
328,300,292,286,2
334,302,298,290,2
336,304,303,293,2
333,305,305,296,2
326,306,306,298,2
313,308,305,300,2
295,308,303,303,2
278,308,300,305,2
269,309,298,307,2
272,309,298,309,2
280,309,301,311,2
288,308,303,313,2
291,307,301,314,2
290,306,296,314,2
287,304,290,313,2
285,303,284,312,2
283,302,282,314,2
280,303,286,315,2
276,303,294,317,2
279,305,302,319,2
291,308,310,321,2
304,311,315,322,2
313,313,318,322,2
316,314,319,321,2
317,315,318,319,2
316,316,316,317,2
317,316,313,315,2
321,315,311,313,2
324,315,309,312,2
326,314,307,310,2
327,313,303,309,2
328,313,298,309,2
329,311,292,309,2
328,309,285,308,2
325,306,280,307,2
319,305,280,306,2
313,304,284,305,2
306,302,291,303,2
301,302,299,303,2
297,302,305,303,2
295,303,311,303,2
293,304,314,304,2
293,306,316,304,2
293,307,316,303,2
294,309,316,302,2
297,310,314,302,2
299,310,313,302,2
301,310,312,303,2
302,311,311,303,2
301,311,311,303,2
300,311,311,305,2
298,310,310,307,2
293,308,310,309,2
289,307,308,311,2
291,305,307,314,2
299,304,306,319,2
309,303,305,324,2
316,304,305,331,2
319,305,308,337,2
317,308,311,344,2
313,311,314,349,2
309,313,315,351,2
303,315,314,350,2
296,315,312,346,2
289,314,308,336,2
284,313,304,324,2
281,312,299,309,2
282,310,293,294,2
286,308,288,281,2
288,306,284,271,2
288,304,282,267,2
289,302,285,267,2
294,300,289,271,2
299,298,292,275,2
304,296,293,279,2
307,295,291,282,2
309,294,283,286,2
310,293,275,291,2
311,294,271,297,2
311,296,271,302,2
310,299,278,306,2
309,302,290,310,2
308,305,303,313,2
308,308,314,317,2
311,309,320,322,2
312,309,323,325,2
312,309,324,326,2
312,308,325,326,2
312,308,324,323,2
313,307,321,319,2
314,307,315,314,2
319,306,307,308,2
323,306,299,302,2
323,305,294,298,2
318,304,294,295,2
313,302,296,295,2
307,300,301,295,2
303,299,306,295,2
302,299,311,299,2
303,301,317,304,2
304,303,321,308,2
304,305,324,311,2
299,307,324,312,2
292,309,323,314,2
287,310,320,315,2
285,310,318,315,2
285,311,315,314,2
288,311,312,313,2
292,311,309,314,2
296,311,308,318,2
301,311,307,322,2
305,310,308,326,2
309,309,308,328,2
310,307,308,327,2
309,305,307,323,2
308,303,306,317,2
307,302,306,311,2
307,303,308,304,2
305,304,310,298,2
303,306,311,294,2
298,308,312,292,2
293,310,313,291,2
287,312,315,291,2
286,314,315,292,2
287,315,314,294,2
287,316,313,297,2
284,315,312,301,2
287,315,311,305,2
295,315,310,309,2
305,314,309,314,2
314,314,310,320,2
319,313,311,324,2
321,312,313,326,2
321,311,315,327,2
321,309,316,327,2
320,307,315,329,2
320,306,314,331,2
320,306,310,334,2
319,306,305,336,2
316,307,299,336,2
311,307,294,334,2
307,309,290,329,2
304,311,291,323,2
303,312,292,316,2
302,312,292,307,2
304,312,291,297,2
307,311,292,287,2
309,310,294,276,2
307,308,296,270,2
304,306,300,267,2
299,304,305,268,2
296,303,309,270,2
294,303,311,276,2
295,302,310,282,2
298,300,308,290,2
306,300,305,297,2
317,299,306,305,2
326,300,311,311,2
331,301,318,317,2
333,302,324,323,2
330,303,328,328,2
322,305,330,331,2
311,307,329,332,2
300,308,328,331,2
292,308,326,328,2
292,308,324,324,2
294,307,322,320,2
294,306,319,317,2
292,306,318,316,2
290,306,316,315,2
290,306,316,315,2
290,306,316,318,2
291,305,315,323,2
294,303,315,328,2
296,302,315,332,2
298,300,316,332,2
300,299,316,330,2
302,299,316,325,2
304,300,316,317,2
306,300,316,307,2
305,301,316,296,2
305,302,315,288,2
309,302,314,281,2
310,303,312,277,2
308,302,309,274,2
305,302,308,274,2
305,302,307,275,2
309,302,308,278,2
312,302,309,283,2
313,302,311,290,2
312,301,312,297,2
309,301,312,303,2
306,300,312,309,2
304,298,312,313,2
305,297,312,315,2
306,297,311,318,2
308,297,311,321,2
308,297,309,325,2
307,298,303,326,2
308,299,294,325,2
312,300,285,321,2
317,302,277,317,2
320,304,274,314,2
321,306,278,314,2
320,308,289,316,2
316,310,302,317,2
309,311,313,315,2
301,311,321,311,2
296,310,325,304,2
294,309,327,297,2
296,307,327,291,2
299,306,325,289,2
305,304,322,290,2
309,302,320,291,2
310,300,319,293,2
308,298,318,295,2
305,297,314,295,2
305,297,309,293,2
306,297,303,291,2
309,298,298,290,2
311,299,296,290,2
311,301,298,291,2
311,302,302,294,2
309,304,309,297,2
307,305,316,300,2
305,306,320,303,2
303,307,323,305,2
301,307,324,306,2
301,307,324,308,2
302,307,323,310,2
304,307,322,312,2
307,308,323,315,2
309,307,323,317,2
310,306,323,319,2
305,303,322,319,2
299,301,321,317,2
297,300,320,316,2
300,299,320,314,2
304,299,320,313,2
306,300,320,313,2
306,301,320,311,2
305,302,317,307,2
305,304,313,303,2
302,304,309,297,2
296,305,308,292,2
291,304,309,287,2
286,305,310,283,2
281,305,310,281,2
277,305,312,281,2
276,305,313,283,2
282,305,314,289,2
293,304,315,297,2
303,303,314,302,2
312,302,310,306,2
317,300,303,307,2
319,299,296,305,2
320,298,292,302,2
323,298,294,298,2
328,298,300,295,2
333,299,310,296,2
336,301,320,299,2
335,304,327,303,2
330,306,331,307,2
323,309,334,310,2
315,311,334,312,2
306,312,331,312,2
298,314,325,311,2
291,315,318,310,2
285,315,312,310,2
281,316,307,310,2
278,316,304,310,2
276,315,304,309,2
277,313,306,308,2
285,310,309,304,2
300,307,313,300,2
313,304,315,296,2
318,301,315,294,2
316,300,314,295,2
308,299,313,298,2
301,300,312,305,2
302,302,313,314,2
306,305,315,322,2
308,308,318,329,2
309,310,320,333,2
311,312,322,335,2
311,313,324,335,2
309,314,325,334,2
307,315,325,332,2
307,316,323,328,2
309,317,321,323,2
313,317,320,318,2
317,315,319,312,2
323,313,317,309,2
328,311,317,307,2
331,308,316,307,2
330,306,316,310,2
324,304,316,314,2
316,304,317,320,2
308,305,316,327,2
303,306,314,332,2
301,308,313,336,2
302,310,312,339,2
303,311,313,339,2
304,312,313,336,2
305,313,312,331,2
304,313,311,324,2
301,312,310,318,2
295,311,310,311,2
287,311,309,304,2
280,311,309,299,2
276,311,308,296,2
278,311,307,295,2
286,310,306,295,2
293,309,304,294,2
298,307,301,293,2
300,305,297,291,2
298,304,294,291,2
293,303,294,293,2
288,304,296,300,2
289,304,302,309,2
294,307,310,317,2
299,310,317,324,2
304,313,322,327,2
309,314,324,327,2
313,316,323,323,2
316,317,318,318,2
313,317,311,311,2
307,317,303,303,2
303,316,296,297,2
311,314,291,291,2
324,313,291,288,2
336,312,293,284,2
341,310,297,282,2
339,308,302,281,2
332,305,307,280,2
320,303,311,281,2
307,301,315,284,2
299,300,318,290,2
301,301,321,297,2
311,303,323,303,2
324,305,324,309,2
334,308,322,313,2
338,310,318,316,2
335,313,313,318,2
326,314,308,321,2
315,316,305,325,2
307,318,305,329,2
305,318,307,330,2
307,318,309,329,2
315,316,309,326,2
323,314,309,322,2
325,311,307,315,2
320,308,307,309,2
312,306,306,303,2
306,303,305,298,2
303,301,302,294,2
303,300,300,291,2
306,298,301,289,2
310,298,304,289,2
312,299,306,291,2
309,301,308,297,2
302,304,310,304,2
295,306,311,313,2
290,309,313,321,2
289,311,315,327,2
290,313,316,330,2
293,314,316,333,2
297,314,317,336,2
302,315,317,340,2
305,315,317,342,2
306,315,316,341,2
305,313,312,337,2
307,311,304,330,2
313,309,294,323,2
321,307,285,319,2
329,304,280,314,2
337,303,279,311,2
342,303,284,308,2
338,304,291,306,2
329,304,296,302,2
320,304,299,297,2
315,305,303,291,2
316,306,304,286,2
318,307,306,283,2
315,309,306,281,2
306,310,306,282,2
295,311,306,284,2
287,311,306,286,2
283,310,307,290,2
283,308,307,294,2
285,307,306,298,2
285,307,304,299,2
282,306,300,297,2
276,305,294,294,2
275,303,289,291,2
285,303,287,289,2
297,302,287,290,2
307,302,290,292,2
312,302,291,295,2
314,303,294,299,2
313,305,297,302,2
310,307,301,304,2
305,308,304,305,2
301,309,306,305,2
300,310,305,305,2
301,311,302,308,2
301,312,299,312,2
303,313,298,316,2
307,314,297,318,2
314,313,297,318,2
320,313,299,319,2
321,311,302,319,2
315,309,303,319,2
306,308,304,318,2
297,306,305,319,2
290,304,306,320,2
287,303,307,321,2
286,302,309,321,2
288,302,310,322,2
291,302,311,322,2
299,304,310,323,2
313,306,311,322,2
325,309,310,319,2
330,310,309,314,2
326,311,306,307,2
318,311,303,299,2
309,310,299,291,2
301,309,295,285,2
297,308,289,279,2
298,307,284,275,2
302,306,280,273,2
305,306,280,275,2
306,306,283,280,2
306,305,289,287,2
304,305,296,295,2
300,304,302,303,2
294,303,307,309,2
289,303,308,314,2
284,303,308,316,2
282,304,307,317,2
282,305,309,317,2
283,307,311,317,2
286,310,313,316,2
288,312,313,317,2
287,313,314,319,2
283,314,314,323,2
283,314,313,327,2
291,315,314,332,2
302,316,316,335,2
312,317,316,336,2
318,317,314,333,2
319,315,310,328,2
316,312,306,321,2
313,309,302,313,2
310,306,300,306,2
309,303,299,300,2
308,300,299,297,2
307,299,299,297,2
305,299,300,298,2
302,300,300,301,2
301,301,300,302,2
301,304,299,302,2
301,305,296,299,2
301,307,294,296,2
301,308,292,293,2
302,309,294,290,2
303,308,297,289,2
306,308,300,290,2
309,307,303,291,2
312,306,305,294,2
314,305,306,300,2
314,304,307,308,2
311,302,305,317,2
307,300,304,324,2
302,299,304,329,2
300,298,305,332,2
305,298,307,333,2
311,300,308,330,2
312,301,308,325,2
315,302,305,318,2
318,304,300,312,2
322,306,293,308,2
324,308,286,304,2
324,309,281,302,2
325,311,280,302,2
326,313,285,302,2
327,314,293,303,2
326,314,300,305,2
324,314,304,306,2
319,313,304,306,2
313,311,300,306,2
306,309,297,305,2
299,308,294,303,2
295,306,294,301,2
293,304,296,300,2
295,303,301,301,2
298,304,305,303,2
301,304,309,305,2
301,306,314,309,2
298,308,318,314,2
298,310,321,319,2
300,313,323,323,2
303,316,322,326,2
306,318,320,328,2
311,320,318,329,2
317,321,316,327,2
324,321,313,321,2
328,320,310,314,2
332,317,308,308,2
334,313,307,304,2
332,310,306,303,2
323,307,304,302,2
311,306,301,300,2
301,304,300,298,2
296,302,299,297,2
294,300,297,297,2
294,299,295,298,2
296,298,295,302,2
300,299,295,307,2
304,301,296,311,2
308,303,297,315,2
310,305,295,315,2
311,308,295,313,2
308,310,296,310,2
304,311,299,309,2
296,312,305,308,2
288,313,312,307,2
285,313,317,305,2
289,314,320,303,2
297,313,321,302,2
306,312,321,302,2
316,310,319,305,2
328,308,316,310,2
337,306,313,315,2
340,304,311,319,2
334,301,308,321,2
323,299,306,320,2
315,298,303,317,2
311,298,301,314,2
310,299,298,312,2
308,302,296,310,2
304,305,294,308,2
296,307,291,304,2
289,309,287,300,2
288,309,285,296,2
293,308,285,295,2
300,307,287,298,2
307,307,290,303,2
312,307,293,307,2
313,307,295,310,2
309,306,296,309,2
302,305,296,307,2
295,304,298,304,2
289,303,300,304,2
285,302,302,307,2
282,301,303,311,2
283,300,305,316,2
288,300,309,321,2
297,301,313,326,2
305,302,316,329,2
313,304,318,331,2
321,306,319,332,2
330,308,318,330,2
337,310,315,325,2
342,311,312,319,2
342,312,311,311,2
335,312,311,303,2
321,310,309,294,2
303,309,307,286,2
285,308,306,280,2
271,308,305,277,2
263,307,303,276,2
261,305,302,277,2
265,304,301,280,2
274,302,302,285,2
283,301,303,292,2
291,301,304,299,2
296,301,306,307,2
300,302,307,313,2
302,303,307,317,2
306,304,307,319,2
310,306,306,318,2
316,306,304,316,2
320,307,303,313,2
320,307,302,309,2
314,307,301,305,2
304,307,301,300,2
295,306,300,296,2
288,305,299,293,2
286,305,299,292,2
289,306,299,291,2
295,307,299,291,2
300,306,299,290,2
304,304,298,290,2
308,302,298,290,2
311,300,297,289,2
311,298,296,290,2
308,297,294,294,2
304,297,292,300,2
301,298,289,307,2
299,300,287,314,2
297,302,286,318,2
296,304,287,319,2
294,305,291,319,2
297,306,298,316,2
302,307,305,314,2
307,308,310,310,2
311,308,312,308,2
313,308,312,305,2
313,307,311,304,2
313,306,309,304,2
313,305,308,304,2
314,304,307,304,2
314,302,307,304,2
313,300,306,304,2
310,299,306,306,2
305,298,306,308,2
300,298,305,310,2
297,298,303,310,2
297,298,301,309,2
298,300,300,307,2
301,303,301,304,2
302,305,301,300,2
301,307,301,297,2
300,309,301,295,2
299,310,301,295,2
302,311,298,297,2
309,310,293,300,2
314,310,286,304,2
314,309,280,308,2
311,308,276,309,2
307,306,277,309,2
304,303,280,309,2
303,300,287,312,2
305,298,297,316,2
308,296,306,319,2
313,295,315,322,2
316,294,321,323,2
318,294,325,323,2
316,295,326,323,2
312,297,325,321,2
307,299,324,318,2
304,301,321,314,2
306,303,320,310,2
315,305,320,307,2
324,306,320,306,2
326,307,320,306,2
321,307,319,306,2
311,308,318,307,2
303,308,317,308,2
296,308,315,309,2
290,308,313,310,2
287,307,311,313,2
285,306,308,317,2
282,304,306,322,2
282,303,305,328,2
289,302,306,333,2
297,301,309,334,2
302,301,311,334,2
304,302,312,332,2
304,303,312,330,2
304,305,312,326,2
304,306,308,320,2
303,307,304,311,2
303,308,301,302,2
302,308,301,293,2
303,308,302,287,2
304,308,305,283,2
306,308,306,281,2
309,307,306,280,2
311,306,303,279,2
314,304,295,279,2
314,303,287,279,2
312,300,279,279,2
306,297,275,281,2
301,296,276,284,2
297,295,282,290,2
294,296,289,296,2
293,296,297,303,2
293,298,303,309,2
297,300,308,315,2
301,302,313,320,2
304,303,316,324,2
304,306,319,327,2
304,307,321,328,2
304,309,322,327,2
304,311,322,324,2
304,314,322,320,2
303,316,321,316,2
303,316,320,313,2
302,315,317,310,2
299,314,314,309,2
295,311,312,307,2
292,308,310,308,2
290,306,310,308,2
294,305,310,308,2
301,305,309,308,2
309,304,304,306,2
313,304,297,306,2
316,305,289,307,2
316,307,283,310,2
317,310,280,315,2
318,313,284,321,2
319,314,290,326,2
321,315,297,330,2
321,315,305,331,2
319,314,310,330,2
315,313,314,326,2
310,312,317,320,2
304,311,318,312,2
300,310,318,306,2
297,309,318,302,2
297,307,316,299,2
298,306,315,302,2
303,306,314,310,2
311,306,316,320,2
317,306,319,328,2
321,307,321,333,2
319,308,322,334,2
314,309,321,330,2
307,309,319,324,2
298,309,315,316,2
287,308,310,308,2
279,309,304,301,2
281,309,301,296,2
289,310,299,293,2
297,310,300,292,2
304,310,302,293,2
311,310,302,294,2
315,310,301,297,2
316,309,300,301,2
316,309,301,305,2
315,308,301,308,2
314,307,302,308,2
314,305,302,306,2
313,303,301,302,2
313,301,297,296,2
312,300,291,290,2
312,299,286,285,2
312,299,282,283,2
312,301,281,283,2
314,303,283,284,2
314,306,288,286,2
313,308,294,288,2
310,310,300,290,2
306,311,305,290,2
300,311,308,290,2
295,310,308,291,2
291,310,306,295,2
290,310,304,300,2
294,311,302,306,2
301,312,303,312,2
309,313,306,319,2
317,313,310,325,2
322,312,314,332,2
324,311,318,338,2
324,310,320,343,2
322,309,322,344,2
319,309,320,343,2
315,310,315,339,2
311,311,309,334,2
308,312,303,328,2
310,313,298,323,2
316,314,297,321,2
320,315,300,321,2
319,317,304,322,2
315,317,309,322,2
309,318,312,321,2
305,317,314,318,2
304,317,315,313,2
305,316,316,309,2
308,315,315,307,2
313,313,314,306,2
317,311,311,307,2
320,309,309,307,2
320,307,308,308,2
317,306,307,308,2
315,305,306,307,2
313,304,306,306,2
311,304,305,304,2
310,305,304,303,2
308,305,300,302,2
306,307,296,302,2
306,309,292,301,2
307,310,289,301,2
305,311,288,303,2
301,311,290,308,2
299,312,294,313,2
301,313,298,315,2
304,313,301,313,2
307,312,302,309,2
311,311,304,305,2
314,310,305,301,2
316,307,306,300,2
315,305,307,298,2
312,302,308,299,2
309,300,309,300,2
307,299,311,303,2
304,300,313,306,2
301,301,316,310,2
298,303,320,316,2
298,305,323,322,2
300,308,324,328,2
302,310,324,332,2
302,311,322,335,2
305,312,319,336,2
311,313,316,336,2
316,313,314,333,2
318,312,312,328,2
317,310,310,321,2
315,309,307,313,2
313,307,302,304,2
313,306,297,297,2
314,304,294,292,2
314,302,292,288,2
314,301,291,287,2
314,300,293,288,2
314,300,298,292,2
312,301,303,296,2
309,301,306,302,2
306,303,310,307,2
305,304,312,311,2
307,306,314,311,2
311,307,316,309,2
314,308,317,305,2
316,308,316,302,2
316,307,314,299,2
317,307,312,300,2
319,306,310,304,2
322,307,310,310,2
325,308,312,318,2
326,308,315,325,2
325,309,319,331,2
326,308,321,335,2
330,307,322,338,2
336,305,321,341,2
336,304,318,341,2
328,303,312,341,2
313,303,306,341,2
300,304,302,340,2
295,307,301,340,2
294,309,304,336,2
296,311,308,329,2
297,313,312,321,2
298,313,315,312,2
298,313,317,302,2
299,312,318,293,2
301,311,319,286,2
303,310,319,282,2
305,309,317,279,2
305,309,315,277,2
305,308,313,278,2
304,306,313,281,2
301,305,313,285,2
298,304,314,291,2
297,303,315,297,2
298,303,316,302,2
297,303,316,306,2
293,304,314,307,2
289,304,313,308,2
288,306,312,308,2
289,308,312,310,2
289,310,310,310,2
288,311,308,310,2
294,312,307,308,2
304,313,305,307,2
313,313,302,304,2
317,314,299,302,2
318,313,295,301,2
317,312,290,299,2
315,311,288,299,2
313,309,289,300,2
313,308,294,303,2
314,306,301,306,2
314,305,308,309,2
314,304,314,313,2
314,304,317,316,2
311,304,319,318,2
308,304,319,317,2
303,305,318,313,2
297,306,316,309,2
291,308,314,304,2
287,311,313,299,2
285,312,312,294,2
290,313,311,291,2
301,313,309,289,2
313,312,308,289,2
326,312,307,289,2
337,311,305,291,2
344,311,305,294,2
347,310,305,298,2
345,310,304,303,2
340,309,300,309,2
331,309,295,312,2
320,308,291,313,2
309,307,288,313,2
300,305,291,315,2
293,305,297,318,2
288,305,306,322,2
289,306,315,325,2
294,307,322,327,2
300,309,327,326,2
302,309,329,323,2
302,310,329,319,2
302,311,327,316,2
302,312,324,316,2
303,313,323,318,2
304,313,322,322,2
306,313,323,326,2
308,313,323,329,2
310,312,322,330,2
313,311,321,330,2
315,309,320,327,2
315,307,319,322,2
313,305,317,316,2
309,302,315,310,2
304,300,313,304,2
301,299,312,298,2
300,299,311,293,2
301,299,311,289,2
302,300,311,287,2
302,301,312,285,2
301,302,311,283,2
298,304,310,282,2
295,306,307,283,2
292,308,305,287,2
290,308,304,292,2
289,309,305,298,2
293,309,309,306,2
300,310,315,315,2
308,311,319,323,2
313,311,321,330,2
315,311,321,335,2
317,309,319,336,2
317,307,317,336,2
317,304,315,335,2
318,302,313,332,2
318,301,311,325,2
317,300,310,316,2
315,300,309,306,2
311,301,306,297,2
308,302,301,291,2
302,303,297,286,2
298,304,293,283,2
299,304,292,281,2
304,304,293,281,2
309,305,296,282,2
310,306,299,285,2
311,307,304,289,2
310,307,309,293,2
309,307,313,296,2
307,307,315,299,2
306,307,315,303,2
305,305,312,305,2
306,304,307,308,2
307,302,299,313,2
310,301,291,320,2
313,301,283,328,2
317,302,280,335,2
324,303,282,339,2
335,304,289,338,2
349,304,301,332,2
362,304,314,325,2
370,303,324,316,2
367,303,331,308,2
352,302,333,299,2
327,301,332,292,2
301,301,330,288,2
280,301,327,287,2
266,302,323,288,2
260,302,321,291,2
264,303,320,294,2
273,303,319,297,2
283,302,318,300,2
292,301,317,303,2
299,301,317,306,2
303,301,317,309,2
305,301,318,312,2
307,301,318,314,2
308,303,318,316,2
309,304,318,318,2
310,306,316,320,2
309,308,315,321,2
308,310,312,323,2
306,311,309,324,2
306,312,308,324,2
305,312,308,323,2
305,312,309,319,2
304,312,309,314,2
304,311,309,309,2
305,309,308,305,2
305,308,309,301,2
305,306,308,300,2
306,304,309,299,2
308,303,309,302,2
311,301,309,306,2
312,300,310,313,2
313,300,311,321,2
314,301,313,327,2
315,302,314,331,2
315,303,314,333,2
314,306,314,335,2
311,309,313,337,2
308,311,312,339,2
304,312,313,342,2
299,313,314,341,2
298,313,315,339,2
300,313,316,334,2
304,311,316,327,2
307,310,316,320,2
309,309,314,314,2
309,307,312,309,2
308,305,307,306,2
306,303,303,302,2
306,301,299,299,2
305,299,298,294,2
306,297,296,288,2
308,295,294,283,2
311,294,292,280,2
316,294,291,281,2
320,296,291,283,2
320,300,291,285,2
315,303,295,288,2
308,306,300,292,2
304,309,305,297,2
304,311,308,302,2
304,312,308,305,2
302,312,306,310,2
302,312,304,317,2
302,311,302,324,2
304,310,302,331,2
305,308,304,334,2
306,307,307,335,2
306,305,309,333,2
307,303,309,329,2
307,301,309,322,2
309,299,308,315,2
311,298,307,308,2
314,298,304,303,2
318,299,299,298,2
323,299,291,293,2
327,299,284,289,2
328,299,278,287,2
323,300,276,287,2
318,302,276,288,2
313,304,280,291,2
309,305,285,292,2
306,307,290,293,2
304,307,294,293,2
301,307,297,293,2
298,306,300,293,2
298,303,301,291,2
299,301,301,286,2
300,298,300,279,2
301,295,298,271,2
303,293,298,265,2
304,291,299,260,2
304,291,302,261,2
302,292,305,265,2
299,294,307,272,2
296,296,308,280,2
296,299,309,288,2
297,302,310,293,2
299,305,310,297,2
300,308,310,300,2
302,309,309,300,2
304,310,309,299,2
307,310,308,296,2
309,310,305,294,2
312,309,302,293,2
315,309,298,293,2
317,309,296,292,2
319,308,295,287,2
318,305,294,281,2
316,303,294,276,2
313,300,295,272,2
311,299,295,270,2
308,298,297,270,2
306,299,299,272,2
305,300,301,277,2
303,302,303,282,2
300,304,305,288,2
296,306,306,293,2
294,307,306,297,2
294,308,306,300,2
293,309,306,303,2
296,309,305,308,2
302,309,305,313,2
308,308,304,317,2
311,308,302,318,2
311,307,296,316,2
311,306,290,311,2
310,305,284,303,2
308,304,281,294,2
307,302,282,287,2
307,300,285,281,2
