301,346,271,305,0
299,341,269,307,0
298,330,267,307,0
298,317,265,308,0
297,303,263,308,0
295,296,260,309,0
293,299,259,309,0
293,308,258,308,0
296,316,259,306,0
302,320,260,303,0
308,318,261,297,0
313,313,261,292,0
317,309,262,288,0
320,304,264,286,0
322,299,267,286,0
325,296,271,286,0
326,295,275,288,0
322,298,278,291,0
316,303,278,294,0
311,306,275,296,0
307,312,270,296,0
304,321,266,296,0
302,330,264,298,0
301,338,264,300,0
301,340,265,302,0
302,336,265,302,0
302,326,263,302,0
303,313,261,304,0
303,299,260,310,0
304,287,261,318,0
304,277,263,327,0
304,270,265,334,0
303,270,268,337,0
304,277,270,338,0
306,289,269,335,0
308,299,268,328,0
310,307,266,317,0
312,313,263,305,0
312,316,261,291,0
312,318,260,278,0
310,320,261,268,0
308,325,260,261,0
306,329,260,256,0
304,331,261,254,0
303,330,261,255,0
302,326,262,256,0
300,317,263,257,0
297,305,263,258,0
296,291,264,261,0
296,282,266,265,0
298,279,269,271,0
301,283,273,276,0
304,288,276,283,0
306,292,279,289,0
307,297,281,294,0
308,301,281,295,0
309,304,279,294,0
311,308,278,291,0
315,315,278,290,0
315,322,278,290,0
311,325,278,289,0
306,323,278,289,0
302,319,279,289,0
301,316,281,288,0
299,312,283,287,0
297,306,285,287,0
297,302,287,288,0
299,303,288,289,0
301,310,288,292,0
303,319,287,295,0
304,326,287,297,0
305,334,288,297,0
307,342,289,297,0
309,348,292,297,0
312,349,295,296,0
317,345,298,295,0
321,334,300,292,0
321,319,300,289,0
320,300,299,288,0
318,283,297,291,0
314,270,297,295,0
310,264,298,301,0
307,265,298,307,0
305,272,299,314,0
304,280,300,320,0
305,287,301,324,0
307,290,302,326,0
309,290,303,327,0
309,285,305,324,0
310,275,306,317,0
312,272,305,308,0
317,280,303,299,0
321,294,301,292,0
325,308,301,288,0
327,319,302,284,0
328,328,302,282,0
327,331,302,280,0
326,329,301,278,0
325,323,299,277,0
324,316,298,277,0
322,313,298,279,0
320,314,300,284,0
317,315,303,288,0
314,314,304,289,0
312,307,304,286,0
310,299,304,283,0
309,296,304,280,0
310,296,305,281,0
310,297,307,285,0
309,299,311,291,0
307,304,314,299,0
307,309,314,310,0
309,314,315,321,0
309,315,316,330,0
307,312,318,336,0
307,306,319,338,0
311,299,319,336,0
319,295,319,332,0
326,299,319,326,0
327,306,318,319,0
320,311,317,311,0
310,310,316,302,0
304,308,315,294,0
301,306,314,286,0
300,306,312,279,0
300,307,311,272,0
301,305,310,267,0
301,301,309,263,0
300,294,308,261,0
295,285,307,261,0
289,282,308,265,0
283,286,312,271,0
281,292,317,279,0
281,297,324,288,0
286,303,331,297,0
298,309,336,305,0
309,312,339,312,0
316,308,338,316,0
318,298,334,317,0
318,290,328,318,0
319,286,326,318,0
320,290,323,315,0
320,298,320,308,0
317,303,318,299,0
313,301,316,289,0
310,296,315,280,0
309,290,315,276,0
309,288,315,277,0
310,286,314,279,0
310,291,315,283,0
311,304,317,289,0
311,321,319,295,0
311,338,321,301,0
311,347,323,303,0
311,347,324,302,0
310,339,325,300,0
309,323,326,296,0
307,305,328,292,0
304,293,330,288,0
303,293,330,287,0
304,299,329,286,0
306,305,327,288,0
309,309,326,292,0
312,311,328,296,0
312,312,328,299,0
309,311,328,298,0
305,308,327,296,0
305,306,327,294,0
308,305,327,294,0
308,303,328,295,0
307,299,330,296,0
304,294,332,297,0
302,291,335,300,0
300,290,336,303,0
298,292,338,305,0
296,296,338,306,0
295,299,336,307,0
294,300,333,307,0
294,300,330,307,0
295,299,328,308,0
297,300,327,309,0
298,302,326,310,0
299,305,326,311,0
298,309,325,313,0
298,315,326,316,0
299,324,328,319,0
301,335,330,323,0
303,341,332,326,0
307,337,333,327,0
311,327,333,327,0
317,316,333,324,0
317,308,333,320,0
310,301,333,314,0
303,294,332,305,0
297,287,330,296,0
291,280,329,287,0
287,274,327,280,0
284,272,325,275,0
282,276,323,272,0
281,282,321,270,0
281,290,320,270,0
282,300,319,270,0
285,310,318,272,0
289,316,318,274,0
292,317,318,277,0
293,314,319,280,0
295,313,320,285,0
296,311,321,290,0
294,308,321,294,0
291,306,320,298,0
287,302,320,301,0
285,300,321,304,0
285,300,324,307,0
285,303,328,309,0
286,309,332,311,0
288,317,335,312,0
291,323,335,311,0
294,324,334,307,0
295,324,331,302,0
298,327,327,297,0
300,328,323,291,0
299,325,319,285,0
296,317,317,279,0
294,307,316,274,0
293,299,317,270,0
293,293,317,268,0
293,287,318,269,0
293,281,319,273,0
294,277,320,277,0
296,272,322,283,0
297,270,324,288,0
297,275,328,295,0
298,284,331,301,0
297,294,333,307,0
294,305,334,312,0
292,316,334,316,0
293,324,332,317,0
295,326,328,315,0
295,322,324,310,0
293,310,319,301,0
289,292,316,293,0
286,275,315,289,0
285,267,318,289,0
286,266,320,293,0
288,274,322,297,0
288,285,322,300,0
288,295,323,301,0
287,303,323,302,0
288,309,323,302,0
289,316,323,303,0
290,323,322,303,0
293,328,322,302,0
295,327,322,302,0
299,324,323,302,0
303,321,324,302,0
307,318,323,302,0
311,314,322,302,0
310,311,322,304,0
304,307,323,307,0
299,303,324,310,0
296,297,324,312,0
294,291,324,312,0
290,288,323,312,0
287,285,322,310,0
284,282,321,308,0
282,282,320,307,0
279,284,319,305,0
274,285,319,303,0
269,286,319,302,0
268,288,318,302,0
271,289,318,301,0
276,290,319,299,0
282,293,319,298,0
288,300,319,300,0
295,308,320,305,0
302,317,321,310,0
308,325,321,316,0
310,330,322,319,0
307,333,322,319,0
303,334,322,316,0
298,334,323,312,0
294,333,324,308,0
291,331,324,305,0
290,329,323,304,0
290,325,322,305,0
291,320,321,305,0
293,311,319,304,0
294,305,317,299,0
295,302,315,294,0
296,304,313,289,0
298,308,312,286,0
300,311,312,286,0
301,313,312,290,0
301,313,314,296,0
300,313,316,301,0
299,316,318,304,0
300,320,319,305,0
300,324,320,307,0
300,324,322,308,0
298,321,324,308,0
296,316,326,308,0
293,311,326,308,0
289,303,326,306,0
287,291,325,302,0
287,279,323,298,0
288,270,320,294,0
290,266,318,292,0
293,268,317,291,0
295,276,314,290,0
297,285,311,288,0
298,293,308,286,0
300,297,307,283,0
300,300,306,282,0
300,306,308,282,0
301,311,311,285,0
303,310,315,290,0
305,307,318,294,0
308,303,319,298,0
312,302,319,300,0
316,302,318,302,0
311,304,317,304,0
298,304,315,307,0
285,302,314,311,0
279,299,313,314,0
280,296,314,316,0
284,296,313,316,0
288,299,313,316,0
292,302,312,317,0
294,305,312,317,0
295,308,314,318,0
295,312,315,319,0
297,315,316,319,0
300,315,317,318,0
302,312,318,315,0
303,309,318,311,0
303,306,317,307,0
302,303,316,304,0
301,299,315,302,0
300,296,313,302,0
300,295,312,303,0
301,299,311,304,0
303,303,310,306,0
305,308,310,307,0
307,309,312,309,0
309,307,313,311,0
311,301,313,313,0
310,295,311,312,0
309,292,309,310,0
306,294,307,306,0
304,300,307,304,0
304,308,307,302,0
305,316,307,301,0
305,320,307,301,0
305,320,308,302,0
304,318,311,305,0
302,316,314,311,0
300,317,316,319,0
298,318,318,327,0
299,321,320,333,0
299,323,320,334,0
300,324,318,329,0
299,320,317,322,0
298,312,314,312,0
296,302,312,303,0
295,292,311,296,0
295,283,311,292,0
298,278,309,288,0
303,279,308,287,0
307,285,306,287,0
309,291,305,287,0
308,297,304,288,0
307,298,305,291,0
306,296,308,294,0
306,295,311,296,0
306,296,315,296,0
307,299,317,294,0
307,303,317,290,0
306,311,314,284,0
304,318,311,280,0
300,324,307,277,0
298,329,304,276,0
296,333,302,275,0
296,334,302,277,0
296,330,304,281,0
295,324,309,285,0
293,322,313,288,0
293,322,316,292,0
296,320,316,295,0
301,315,313,298,0
305,309,310,300,0
309,303,307,303,0
314,300,305,305,0
319,298,304,308,0
324,297,305,310,0
325,297,306,313,0
320,298,308,315,0
314,300,310,315,0
311,303,312,313,0
310,305,312,309,0
311,307,312,304,0
312,308,311,300,0
313,307,311,297,0
315,305,311,298,0
315,301,312,300,0
316,296,312,303,0
315,287,312,306,0
314,278,311,308,0
314,279,311,309,0
316,290,310,309,0
317,303,311,307,0
318,314,312,305,0
318,320,313,304,0
317,320,314,305,0
318,317,316,306,0
317,317,318,306,0
318,318,319,306,0
317,315,317,305,0
316,312,316,303,0
315,309,315,301,0
315,307,314,300,0
314,303,312,298,0
314,300,311,295,0
313,296,310,294,0
314,296,309,295,0
316,298,308,298,0
318,301,307,300,0
321,304,306,302,0
324,305,306,305,0
327,305,304,307,0
328,304,303,309,0
324,301,300,311,0
318,297,299,312,0
313,296,297,312,0
314,299,297,312,0
320,303,298,312,0
327,307,298,311,0
332,311,298,310,0
331,317,298,310,0
326,322,299,312,0
319,323,300,316,0
314,321,301,320,0
311,314,301,322,0
309,306,301,322,0
308,307,301,321,0
309,317,301,318,0
310,331,300,314,0
311,343,298,310,0
312,349,296,306,0
314,349,295,301,0
315,344,294,297,0
315,330,295,294,0
313,312,297,292,0
312,293,299,290,0
310,279,300,287,0
309,272,300,284,0
310,274,300,284,0
313,282,299,284,0
316,292,299,285,0
318,301,298,285,0
319,308,298,286,0
320,312,297,286,0
320,314,296,286,0
319,316,296,287,0
319,318,295,289,0
319,319,294,291,0
318,319,294,292,0
318,317,293,293,0
319,316,291,292,0
320,316,289,291,0
320,318,287,292,0
320,320,286,294,0
320,322,287,297,0
317,323,289,300,0
312,323,291,304,0
307,324,294,308,0
302,327,297,312,0
302,332,299,318,0
306,333,301,323,0
311,333,302,329,0
317,333,304,334,0
323,334,306,336,0
329,334,306,335,0
332,335,304,331,0
334,334,303,324,0
335,330,301,316,0
337,321,299,308,0
339,309,296,301,0
339,298,292,294,0
333,287,289,289,0
325,280,287,285,0
317,280,287,283,0
312,283,288,281,0
311,288,290,279,0
311,294,291,278,0
312,299,292,278,0
317,306,292,278,0
318,309,291,280,0
314,304,291,282,0
310,300,290,285,0
307,302,289,288,0
307,307,288,292,0
307,312,288,296,0
307,316,289,299,0
309,315,290,300,0
311,309,292,300,0
313,302,295,301,0
313,295,297,302,0
314,290,300,304,0
314,285,302,307,0
315,282,303,311,0
315,281,302,315,0
315,282,300,318,0
315,287,298,321,0
314,293,297,322,0
314,301,297,321,0
314,308,296,317,0
313,312,295,313,0
311,313,294,308,0
309,312,292,303,0
308,308,290,300,0
307,304,290,301,0
306,300,289,304,0
306,297,289,307,0
306,296,289,309,0
306,299,290,310,0
307,303,291,309,0
309,306,292,307,0
310,307,293,305,0
312,305,294,304,0
313,300,295,303,0
314,295,296,303,0
315,294,297,304,0
315,293,299,307,0
315,298,301,309,0
313,307,302,311,0
311,316,301,310,0
308,325,300,306,0
304,331,299,301,0
302,334,298,295,0
302,334,297,289,0
302,332,297,285,0
300,330,297,282,0
299,330,296,279,0
299,328,296,277,0
299,326,295,276,0
302,323,294,277,0
305,318,293,277,0
311,309,293,279,0
317,298,295,281,0
321,282,297,285,0
319,265,299,288,0
313,251,303,294,0
311,248,306,300,0
313,251,309,306,0
315,259,310,310,0
315,269,309,313,0
315,279,307,316,0
316,287,306,317,0
316,294,305,318,0
315,299,304,317,0
314,305,303,315,0
312,309,302,311,0
310,313,301,306,0
308,317,300,302,0
307,321,299,300,0
305,322,299,298,0
303,320,298,295,0
303,317,296,292,0
304,311,295,291,0
307,304,296,292,0
310,299,297,295,0
312,298,298,298,0
312,298,298,300,0
311,300,299,302,0
310,301,302,304,0
308,303,305,307,0
306,307,309,312,0
306,310,312,316,0
307,310,313,320,0
309,304,315,321,0
311,296,315,321,0
312,291,312,319,0
312,291,309,317,0
311,295,306,314,0
309,299,303,309,0
307,302,300,304,0
306,302,299,302,0
306,299,299,301,0
306,296,300,301,0
307,296,300,303,0
307,300,302,305,0
307,310,303,308,0
307,322,303,310,0
305,333,305,312,0
302,340,306,315,0
299,342,308,318,0
296,339,310,322,0
295,334,311,327,0
295,332,313,329,0
296,331,314,329,0
298,330,315,327,0
302,327,315,322,0
306,319,313,315,0
310,307,312,308,0
312,291,311,302,0
310,274,311,295,0
308,261,309,288,0
308,251,308,280,0
312,243,308,273,0
319,239,309,269,0
324,240,308,267,0
320,245,307,268,0
308,253,308,272,0
296,260,309,279,0
286,268,312,286,0
282,279,314,294,0
284,291,316,301,0
288,301,317,305,0
291,309,317,308,0
290,315,316,310,0
290,320,316,310,0
290,323,315,309,0
291,323,314,308,0
293,322,312,306,0
295,319,310,303,0
296,313,308,298,0
297,306,307,293,0
298,299,306,288,0
300,297,307,285,0
302,297,307,285,0
304,300,309,288,0
304,305,310,294,0
304,310,312,301,0
304,314,313,309,0
303,318,314,317,0
304,322,316,323,0
304,325,318,326,0
304,327,320,325,0
304,327,321,321,0
303,323,322,316,0
302,316,322,312,0
301,304,324,310,0
302,292,326,310,0
303,284,328,311,0
303,278,331,313,0
301,278,332,315,0
299,280,331,318,0
297,286,328,320,0
296,294,323,321,0
296,300,319,321,0
295,302,314,319,0
295,301,310,315,0
295,298,306,312,0
294,296,303,308,0
293,295,304,305,0
292,295,306,303,0
293,295,307,301,0
296,294,309,298,0
296,292,308,294,0
295,291,308,289,0
292,291,306,284,0
290,293,304,283,0
290,294,303,283,0
292,299,304,286,0
294,313,303,289,0
296,329,301,292,0
297,337,299,293,0
298,331,298,292,0
299,312,298,289,0
302,286,300,287,0
305,265,303,283,0
306,254,306,280,0
306,252,309,279,0
305,257,312,279,0
302,266,313,281,0
297,277,314,284,0
293,288,314,287,0
291,299,314,291,0
292,308,314,296,0
294,312,313,300,0
296,313,313,303,0
297,313,314,304,0
299,313,314,304,0
303,313,314,304,0
302,312,315,306,0
297,312,315,309,0
293,310,315,311,0
290,308,314,312,0
290,306,314,313,0
294,309,314,314,0
299,313,315,315,0
303,316,315,315,0
307,318,316,315,0
308,319,317,314,0
309,320,318,312,0
309,321,318,311,0
307,322,317,309,0
304,323,316,307,0
302,325,316,307,0
302,327,316,307,0
303,327,317,309,0
304,323,318,309,0
302,315,318,310,0
299,304,318,311,0
296,291,317,310,0
293,277,316,308,0
292,266,313,304,0
293,263,311,300,0
296,270,309,297,0
301,280,310,297,0
304,287,312,297,0
305,291,316,299,0
304,294,319,299,0
303,297,320,298,0
301,299,321,297,0
298,300,320,295,0
293,300,319,293,0
287,298,319,292,0
283,296,317,291,0
281,294,315,292,0
282,292,313,292,0
285,292,310,293,0
288,297,307,295,0
293,305,305,298,0
298,312,305,302,0
301,315,305,304,0
302,315,306,306,0
303,315,307,307,0
305,317,308,307,0
307,321,309,306,0
308,324,310,304,0
309,325,311,304,0
310,324,312,305,0
310,320,313,307,0
310,315,315,309,0
310,310,319,313,0
311,305,322,315,0
311,304,322,316,0
308,305,320,314,0
304,306,317,311,0
302,307,316,309,0
303,309,316,309,0
307,310,316,309,0
309,307,316,308,0
308,302,316,307,0
308,297,315,309,0
307,292,314,315,0
305,288,313,322,0
302,285,313,328,0
300,282,313,330,0
299,282,313,329,0
299,285,314,325,0
300,292,314,320,0
302,302,314,313,0
304,312,313,304,0
306,317,313,296,0
310,317,311,288,0
315,314,311,281,0
321,306,309,275,0
324,296,308,273,0
319,290,307,274,0
307,292,306,277,0
297,298,306,283,0
291,305,306,288,0
288,311,306,292,0
287,311,307,297,0
288,307,308,301,0
290,302,309,305,0
292,297,309,311,0
293,296,309,318,0
295,302,310,325,0
297,311,310,331,0
300,320,312,335,0
303,323,313,336,0
305,321,314,334,0
306,317,314,331,0
306,312,313,327,0
305,309,312,321,0
303,309,309,316,0
301,313,308,311,0
297,317,306,306,0
293,319,305,302,0
287,316,305,300,0
281,311,305,299,0
276,303,306,299,0
276,294,307,299,0
280,288,307,300,0
286,288,307,302,0
294,295,306,305,0
302,303,303,309,0
310,313,302,315,0
314,325,302,322,0
316,335,303,328,0
315,340,305,331,0
314,340,306,331,0
313,338,306,326,0
310,333,306,320,0
309,327,305,313,0
308,321,304,307,0
308,317,303,302,0
309,312,302,298,0
310,307,300,295,0
310,301,298,293,0
308,295,297,291,0
305,290,297,291,0
304,289,300,289,0
304,291,302,289,0
304,295,304,288,0
304,299,305,290,0
305,303,306,296,0
307,305,307,303,0
308,305,307,311,0
309,302,307,317,0
309,297,307,321,0
309,291,306,321,0
308,288,305,317,0
308,290,305,311,0
306,292,305,305,0
305,292,304,299,0
305,291,304,295,0
307,289,302,291,0
308,287,301,288,0
308,283,301,286,0
307,284,300,284,0
303,294,299,286,0
297,307,298,289,0
296,318,298,292,0
297,325,297,295,0
300,330,298,297,0
302,332,298,299,0
303,331,299,301,0
302,327,300,306,0
301,322,303,313,0
301,318,305,322,0
301,314,306,329,0
301,312,307,334,0
301,312,308,337,0
301,314,308,336,0
302,318,307,333,0
302,321,306,327,0
301,325,304,320,0
299,328,302,313,0
298,334,300,305,0
299,341,299,297,0
304,347,299,290,0
307,349,298,287,0
309,345,299,289,0
309,334,299,292,0
309,317,299,297,0
309,298,299,304,0
309,284,300,312,0
310,280,301,321,0
310,286,302,327,0
309,296,302,329,0
305,302,303,328,0
300,303,303,323,0
297,298,304,319,0
298,294,306,317,0
301,291,307,316,0
306,291,307,315,0
311,295,306,315,0
315,303,304,313,0
315,310,302,309,0
313,315,300,305,0
311,319,299,301,0
309,320,298,296,0
309,319,297,292,0
309,315,297,288,0
310,306,297,286,0
309,296,297,285,0
307,290,297,285,0
304,287,298,287,0
302,287,300,289,0
304,286,301,291,0
305,286,302,291,0
304,289,301,290,0
301,293,300,289,0
298,298,299,289,0
296,304,298,291,0
296,310,296,295,0
298,317,295,300,0
303,322,294,304,0
305,325,294,308,0
305,326,295,309,0
302,326,298,308,0
300,326,300,306,0
299,326,302,302,0
299,325,302,298,0
301,321,301,296,0
301,315,300,295,0
301,309,298,296,0
301,303,297,298,0
303,300,296,302,0
306,300,298,305,0
309,307,300,309,0
307,315,303,313,0
300,324,305,317,0
296,329,306,320,0
294,331,306,322,0
294,330,306,322,0
295,325,305,321,0
296,318,304,318,0
296,310,303,315,0
298,303,302,312,0
301,297,302,311,0
302,292,302,310,0
302,288,302,308,0
301,288,302,308,0
301,291,301,309,0
302,299,301,311,0
305,307,301,313,0
307,314,301,314,0
307,319,301,313,0
305,318,302,312,0
302,312,304,311,0
299,304,305,310,0
298,302,306,309,0
301,305,306,309,0
305,309,307,309,0
309,313,308,310,0
312,316,311,311,0
313,317,312,310,0
313,317,313,309,0
312,316,313,308,0
311,316,311,306,0
310,316,309,303,0
309,316,306,299,0
308,313,304,297,0
308,307,304,295,0
307,299,304,292,0
307,291,303,291,0
308,285,302,292,0
312,285,303,298,0
313,288,306,306,0
311,296,310,314,0
307,306,313,321,0
302,317,314,326,0
298,325,315,330,0
297,330,314,331,0
299,329,313,331,0
302,325,311,330,0
305,320,309,327,0
307,317,307,321,0
307,315,304,313,0
306,314,301,300,0
305,315,297,286,0
303,317,293,274,0
301,318,290,265,0
300,317,288,260,0
300,317,286,259,0
301,320,286,263,0
303,317,287,269,0
305,309,288,278,0
307,299,291,286,0
310,293,294,293,0
313,293,296,298,0
313,296,297,300,0
311,298,299,302,0
308,297,302,303,0
307,291,305,304,0
307,282,308,305,0
309,273,310,305,0
310,264,311,305,0
309,257,312,306,0
307,257,311,309,0
303,263,310,311,0
299,271,309,313,0
296,277,306,316,0
294,283,305,320,0
295,291,304,324,0
299,300,305,330,0
304,308,307,333,0
309,313,308,333,0
311,314,310,329,0
313,313,311,320,0
313,312,311,311,0
314,311,310,302,0
314,310,311,298,0
315,311,311,297,0
317,315,310,301,0
319,322,307,304,0
320,329,305,307,0
317,335,304,311,0
309,338,303,317,0
302,339,304,323,0
297,338,304,327,0
297,334,304,330,0
299,328,305,329,0
301,321,306,326,0
302,315,308,322,0
302,311,309,317,0
301,309,311,310,0
301,308,312,303,0
301,306,314,299,0
300,305,317,298,0
299,303,319,297,0
299,304,320,296,0
302,312,321,294,0
307,325,321,293,0
310,335,319,291,0
310,339,316,288,0
307,337,314,287,0
305,330,312,287,0
303,322,311,289,0
303,316,311,293,0
304,313,311,296,0
304,312,310,300,0
304,306,310,304,0
303,297,311,310,0
303,288,314,318,0
303,279,316,326,0
302,269,319,334,0
301,259,322,339,0
299,253,323,341,0
298,254,323,338,0
298,265,322,332,0
300,279,319,323,0
303,292,316,313,0
307,305,313,304,0
310,316,310,298,0
313,324,308,294,0
313,323,306,292,0
310,315,306,292,0
306,306,306,292,0
303,301,308,294,0
300,294,308,295,0
297,285,309,295,0
296,280,309,296,0
299,283,308,298,0
305,292,308,301,0
311,300,307,303,0
314,305,308,304,0
316,306,307,304,0
316,303,308,304,0
315,298,307,304,0
314,294,307,304,0
311,292,308,301,0
309,293,308,298,0
307,297,309,296,0
306,306,309,293,0
306,317,309,290,0
306,326,308,289,0
308,330,309,290,0
310,328,310,292,0
311,325,310,294,0
312,323,311,297,0
312,316,312,301,0
312,306,313,306,0
311,296,313,313,0
309,291,313,319,0
308,290,314,325,0
307,293,315,330,0
308,299,315,332,0
309,305,316,332,0
312,310,316,330,0
314,313,315,325,0
316,314,314,319,0
316,313,314,314,0
314,313,313,310,0
314,315,312,307,0
313,319,311,304,0
303,325,311,304,0
292,330,312,305,0
285,335,314,307,0
284,338,316,310,0
288,341,319,314,0
295,341,320,317,0
302,337,320,321,0
307,329,319,326,0
311,316,318,331,0
313,303,317,334,0
314,293,318,335,0
316,285,319,334,0
317,279,319,329,0
316,273,317,322,0
316,268,316,312,0
315,266,317,303,0
315,269,316,296,0
314,275,315,291,0
311,284,313,289,0
309,293,311,289,0
306,300,310,288,0
304,305,308,288,0
303,308,307,288,0
303,312,306,290,0
304,316,306,292,0
306,320,306,295,0
307,323,306,299,0
308,325,308,303,0
309,319,310,308,0
310,304,311,312,0
312,287,312,315,0
314,272,314,316,0
315,261,316,316,0
315,255,317,316,0
314,255,317,316,0
313,262,316,317,0
311,272,315,320,0
311,284,314,321,0
312,297,313,320,0
313,311,311,316,0
313,324,309,310,0
312,335,307,302,0
310,344,305,295,0
309,349,304,289,0
308,350,303,285,0
309,348,302,282,0
310,343,302,280,0
311,338,301,282,0
313,335,302,286,0
314,333,303,292,0
316,332,305,300,0
318,333,308,307,0
320,335,311,312,0
321,336,313,314,0
323,333,313,314,0
322,322,313,313,0
319,307,315,313,0
318,293,317,314,0
317,282,318,314,0
314,276,317,313,0
308,278,316,310,0
304,285,315,305,0
303,290,314,298,0
302,294,312,291,0
302,294,310,284,0
302,293,308,279,0
302,292,307,276,0
304,294,306,275,0
308,300,306,278,0
314,308,308,282,0
316,316,309,286,0
313,321,312,290,0
308,325,315,292,0
306,326,318,295,0
304,326,320,297,0
301,326,321,301,0
297,325,320,304,0
294,324,319,308,0
290,323,317,313,0
288,320,315,316,0
288,318,314,317,0
293,318,313,318,0
297,315,313,318,0
301,312,313,320,0
304,310,313,324,0
306,309,312,329,0
307,306,312,333,0
308,302,312,334,0
308,299,313,334,0
310,297,313,333,0
311,295,314,330,0
311,294,315,326,0
311,294,316,324,0
310,295,317,322,0
309,296,319,321,0
308,296,320,319,0
306,297,320,316,0
307,300,320,313,0
308,307,319,310,0
309,314,317,307,0
309,322,315,306,0
308,328,314,305,0
308,331,312,303,0
307,330,309,299,0
306,329,307,296,0
305,325,304,293,0
305,321,303,291,0
305,317,302,291,0
307,315,303,293,0
309,314,304,297,0
311,312,307,300,0
312,310,309,303,0
311,308,310,304,0
311,307,312,304,0
311,307,312,304,0
312,309,313,302,0
315,312,312,301,0
319,315,312,302,0
320,317,312,304,0
318,319,312,308,0
313,320,312,310,0
308,321,312,311,0
303,319,312,308,0
299,314,311,305,0
298,309,308,302,0
299,303,305,301,0
301,301,304,302,0
304,304,305,305,0
307,313,306,308,0
308,322,307,312,0
309,328,308,317,0
310,327,309,321,0
311,322,310,324,0
312,318,310,325,0
313,314,310,322,0
314,309,309,316,0
314,303,308,308,0
312,302,306,301,0
309,304,306,295,0
304,306,306,292,0
300,307,306,290,0
297,304,306,292,0
296,299,307,295,0
297,293,308,300,0
299,287,308,305,0
300,282,309,311,0
301,279,309,316,0
302,277,310,320,0
303,278,309,324,0
305,280,309,325,0
307,284,308,326,0
308,288,307,325,0
309,291,306,324,0
309,291,304,323,0
307,288,302,321,0
306,283,301,314,0
306,278,299,304,0
307,276,298,295,0
308,282,298,290,0
309,293,298,289,0
302,309,298,290,0
290,324,299,292,0
285,331,300,295,0
288,328,300,298,0
294,319,300,299,0
302,310,301,299,0
310,302,300,299,0
318,296,299,298,0
322,296,298,298,0
321,299,299,302,0
318,305,301,309,0
315,311,304,320,0
313,316,308,331,0
310,319,311,340,0
308,321,312,344,0
305,322,312,343,0
303,323,311,339,0
302,324,310,333,0
302,323,308,327,0
302,322,307,321,0
302,320,307,317,0
301,317,307,313,0
300,313,306,312,0
301,309,307,312,0
303,307,307,312,0
304,308,307,311,0
306,313,307,307,0
308,320,307,301,0
311,328,307,297,0
313,337,306,295,0
316,344,305,294,0
317,348,305,294,0
316,348,304,295,0
313,344,303,298,0
309,339,302,300,0
306,330,302,299,0
303,320,302,298,0
301,311,302,296,0
296,303,304,293,0
291,296,306,290,0
288,292,308,285,0
290,290,307,281,0
296,291,306,277,0
303,293,303,273,0
310,297,299,269,0
318,300,296,268,0
324,302,293,269,0
323,302,292,270,0
317,300,292,274,0
311,298,292,279,0
309,293,294,285,0
307,289,297,291,0
307,290,300,296,0
307,294,303,302,0
307,301,305,306,0
308,306,308,309,0
309,309,310,312,0
310,310,311,315,0
311,310,311,316,0
311,308,311,317,0
312,307,310,316,0
313,307,309,313,0
315,309,306,309,0
317,312,303,304,0
317,316,299,300,0
314,318,297,298,0
309,317,296,297,0
305,314,295,297,0
302,304,297,297,0
302,293,299,299,0
304,288,304,306,0
306,290,309,314,0
309,293,312,323,0
310,295,315,330,0
310,296,317,336,0
310,297,318,339,0
310,299,316,339,0
312,303,315,337,0
314,304,314,334,0
314,303,313,331,0
311,302,311,328,0
307,305,310,328,0
302,310,309,331,0
300,313,308,335,0
301,315,307,336,0
305,315,305,335,0
307,312,303,333,0
309,308,301,329,0
311,305,300,326,0
313,300,301,323,0
314,294,303,322,0
313,290,304,322,0
311,290,307,320,0
307,292,308,315,0
304,297,309,306,0
302,304,309,297,0
302,311,307,291,0
304,314,306,285,0
305,314,304,281,0
307,313,303,277,0
308,313,302,274,0
310,312,300,270,0
309,311,299,266,0
307,309,298,261,0
304,303,297,258,0
302,293,298,259,0
302,282,300,265,0
304,275,303,272,0
307,275,305,280,0
309,279,308,287,0
310,284,310,294,0
313,293,315,302,0
317,302,318,309,0
320,310,322,314,0
318,314,323,317,0
311,314,321,318,0
304,312,318,318,0
297,309,314,317,0
295,307,312,315,0
296,304,310,313,0
300,304,308,310,0
304,306,305,306,0
309,310,303,302,0
314,316,302,299,0
318,320,302,295,0
320,321,302,291,0
318,318,302,289,0
314,311,300,288,0
310,305,301,287,0
308,301,302,288,0
309,301,305,290,0
312,303,308,295,0
310,304,311,299,0
304,305,313,303,0
299,304,314,305,0
297,304,313,305,0
297,303,310,306,0
295,307,307,305,0
292,314,305,304,0
289,326,303,304,0
288,340,303,306,0
287,349,303,308,0
287,350,304,309,0
289,344,305,310,0
293,334,307,312,0
297,321,309,315,0
301,306,310,319,0
302,294,311,323,0
304,288,313,325,0
309,287,313,327,0
314,289,313,328,0
316,295,313,327,0
316,298,314,327,0
314,299,314,325,0
312,297,314,324,0
310,295,314,323,0
309,295,313,323,0
307,295,313,324,0
307,295,312,326,0
306,296,312,331,0
306,297,313,336,0
305,298,313,340,0
305,299,313,343,0
306,300,313,343,0
307,299,313,341,0
307,297,313,337,0
307,296,312,331,0
307,300,312,324,0
308,310,312,318,0
309,320,313,310,0
312,327,314,302,0
315,330,314,295,0
314,333,314,291,0
311,336,314,291,0
307,340,314,294,0
304,343,314,297,0
304,343,314,301,0
307,341,314,303,0
310,335,314,305,0
311,326,314,307,0
313,316,316,309,0
314,308,317,310,0
313,301,318,310,0
311,293,317,307,0
308,284,315,302,0
305,277,312,296,0
304,274,310,291,0
304,275,309,288,0
305,277,310,289,0
307,280,312,291,0
309,282,313,295,0
311,288,315,300,0
311,295,316,305,0
311,304,318,309,0
310,313,319,312,0
310,320,320,314,0
310,324,321,314,0
312,323,321,312,0
314,320,318,309,0
317,313,315,304,0
318,300,313,298,0
318,285,311,292,0
316,275,310,289,0
308,274,310,287,0
300,278,310,286,0
294,286,309,284,0
293,298,308,283,0
294,314,307,283,0
297,333,305,283,0
300,349,304,286,0
302,355,304,288,0
302,348,304,291,0
301,333,306,295,0
301,319,308,301,0
305,307,311,306,0
311,301,312,307,0
316,296,313,308,0
319,292,313,307,0
318,288,314,307,0
317,283,315,306,0
314,277,316,307,0
310,272,315,308,0
306,270,315,310,0
302,271,313,312,0
298,275,312,312,0
296,282,311,311,0
296,293,309,311,0
299,306,309,311,0
303,315,310,312,0
307,318,312,314,0
310,317,313,316,0
311,314,314,319,0
311,314,315,322,0
308,318,316,324,0
308,327,317,325,0
310,334,318,324,0
312,337,316,320,0
312,337,312,315,0
311,334,307,312,0
309,328,304,309,0
305,317,304,308,0
299,304,305,308,0
294,294,306,311,0
292,290,307,316,0
294,292,307,320,0
297,298,307,324,0
298,302,306,325,0
298,304,306,324,0
296,305,306,321,0
296,306,307,319,0
299,307,310,318,0
305,308,312,318,0
312,310,313,319,0
318,310,313,318,0
322,306,313,316,0
322,302,312,311,0
319,299,310,307,0
315,300,309,303,0
312,300,308,299,0
310,299,307,296,0
309,299,306,292,0
308,299,305,289,0
307,299,305,288,0
307,298,305,288,0
307,295,304,288,0
306,290,303,288,0
305,284,302,287,0
305,280,301,287,0
305,278,301,288,0
305,282,302,291,0
304,290,303,295,0
303,301,305,298,0
303,315,307,301,0
307,330,310,303,0
313,340,312,305,0
320,344,314,305,0
325,343,314,304,0
324,338,313,302,0
316,331,311,300,0
309,325,307,297,0
304,321,302,296,0
302,318,298,296,0
302,317,296,296,0
302,316,296,297,0
303,314,295,299,0
304,308,294,302,0
305,300,295,307,0
306,294,296,313,0
306,289,298,320,0
305,284,300,324,0
305,281,301,326,0
306,281,302,327,0
311,285,303,329,0
317,293,306,333,0
323,303,310,337,0
325,308,312,340,0
322,309,313,342,0
315,306,312,342,0
310,303,310,338,0
307,303,309,331,0
307,305,307,321,0
306,306,304,310,0
304,305,302,300,0
303,302,301,291,0
303,299,301,287,0
304,292,301,284,0
305,283,300,284,0
306,277,300,286,0
306,278,300,289,0
308,285,301,292,0
309,294,303,295,0
308,303,305,298,0
305,311,307,301,0
303,318,309,305,0
304,321,311,309,0
308,320,312,312,0
311,313,312,315,0
314,299,311,315,0
316,289,311,316,0
315,290,310,315,0
313,297,311,315,0
312,306,311,313,0
312,314,311,312,0
312,320,310,312,0
312,323,309,313,0
311,321,309,316,0
311,317,307,318,0
311,313,306,319,0
312,310,305,317,0
313,310,305,314,0
313,313,306,310,0
313,317,307,308,0
312,320,308,306,0
310,319,310,305,0
306,315,312,304,0
303,312,311,303,0
301,311,311,303,0
302,310,310,304,0
305,309,310,305,0
311,308,311,305,0
317,311,311,304,0
322,316,310,302,0
323,319,308,300,0
324,319,307,299,0
325,316,305,300,0
324,313,304,302,0
319,313,304,307,0
312,314,305,312,0
305,317,307,315,0
302,318,308,318,0
301,316,310,319,0
300,311,311,321,0
300,308,312,324,0
301,309,314,326,0
301,313,315,325,0
302,317,314,324,0
301,315,314,323,0
301,311,313,323,0
301,305,312,322,0
301,298,310,318,0
300,290,307,312,0
301,284,304,305,0
301,284,301,299,0
301,293,299,296,0
301,306,298,297,0
301,317,297,299,0
302,323,296,302,0
304,321,296,306,0
306,313,297,308,0
306,303,298,307,0
305,296,301,307,0
306,291,304,306,0
306,287,306,306,0
304,285,308,307,0
300,285,310,307,0
298,290,312,306,0
300,297,313,306,0
304,303,313,308,0
308,308,314,311,0
311,312,315,314,0
313,315,315,316,0
315,317,315,318,0
314,318,315,321,0
313,317,314,323,0
310,315,313,323,0
308,310,309,320,0
307,305,305,317,0
307,303,303,314,0
307,303,302,311,0
309,304,303,308,0
310,306,305,305,0
309,308,307,302,0
309,310,308,299,0
307,311,309,298,0
306,310,308,298,0
304,307,307,299,0
302,303,307,300,0
302,298,307,303,0
302,294,306,308,0
305,292,307,313,0
309,293,306,317,0
311,296,306,318,0
313,299,306,317,0
316,303,306,313,0
320,305,307,309,0
324,304,307,305,0
324,299,308,300,0
324,294,308,297,0
324,293,308,296,0
319,294,308,297,0
309,297,309,299,0
301,302,310,303,0
296,311,311,308,0
293,324,313,313,0
292,335,314,320,0
291,343,314,326,0
291,345,314,332,0
291,341,315,337,0
293,334,315,340,0
294,322,314,339,0
295,312,314,337,0
297,301,314,335,0
299,293,314,332,0
301,286,314,326,0
303,282,313,319,0
306,281,311,313,0
308,283,310,309,0
309,283,309,307,0
308,283,308,304,0
307,282,307,301,0
306,281,306,299,0
304,280,306,296,0
304,280,305,292,0
304,282,304,289,0
302,285,304,284,0
299,289,305,281,0
297,293,306,279,0
295,298,307,277,0
297,305,308,277,0
300,315,308,278,0
304,325,306,280,0
307,333,304,281,0
308,337,302,285,0
309,336,302,289,0
308,333,302,294,0
306,328,302,299,0
304,323,303,303,0
301,319,304,307,0
298,313,305,311,0
296,308,306,314,0
294,303,309,318,0
294,300,313,321,0
297,298,317,325,0
302,298,320,329,0
306,301,322,331,0
308,306,323,333,0
309,310,322,331,0
308,313,319,328,0
307,314,315,323,0
307,314,311,317,0
305,314,310,312,0
305,311,309,309,0
304,306,308,307,0
305,298,308,306,0
305,294,307,307,0
306,296,307,309,0
306,300,307,311,0
306,303,307,312,0
305,306,307,314,0
305,310,307,316,0
306,315,308,318,0
309,321,309,318,0
311,327,310,318,0
312,329,311,316,0
311,326,311,311,0
306,319,311,305,0
301,310,310,301,0
300,302,307,297,0
301,296,305,294,0
302,289,303,293,0
302,284,302,297,0
304,282,301,302,0
306,280,302,306,0
309,280,304,309,0
313,281,306,311,0
315,284,307,313,0
311,289,309,315,0
305,292,310,317,0
302,296,311,321,0
301,300,312,325,0
302,304,313,329,0
303,306,314,332,0
303,306,315,333,0
304,303,316,333,0
304,300,315,330,0
304,302,315,326,0
304,308,314,321,0
303,314,313,314,0
302,318,311,306,0
301,324,309,300,0
300,332,307,295,0
300,340,305,292,0
297,345,304,291,0
294,345,303,288,0
292,342,302,285,0
294,335,301,282,0
298,327,301,281,0
301,321,301,280,0
305,316,301,280,0
308,311,301,282,0
311,308,301,284,0
312,307,302,286,0
313,306,304,287,0
314,305,307,288,0
314,305,308,288,0
313,305,309,287,0
311,306,309,287,0
310,306,308,288,0
312,301,307,289,0
314,293,306,292,0
316,284,306,295,0
316,280,306,297,0
316,282,306,298,0
313,286,305,300,0
308,290,304,301,0
302,292,303,301,0
299,295,302,302,0
299,298,303,303,0
300,300,303,304,0
301,301,305,306,0
303,302,307,309,0
305,302,311,310,0
309,301,316,311,0
313,297,319,311,0
313,294,321,309,0
310,290,320,308,0
306,287,317,306,0
303,287,314,306,0
301,294,311,308,0
302,304,310,312,0
304,312,309,315,0
304,314,309,317,0
304,313,309,318,0
304,313,309,320,0
305,314,309,322,0
306,315,309,323,0
307,313,309,324,0
308,310,309,323,0
308,309,309,321,0
307,310,308,319,0
307,314,308,317,0
306,321,308,316,0
305,328,308,315,0
305,334,308,314,0
304,339,308,313,0
303,342,306,313,0
301,342,304,315,0
300,340,303,317,0
299,339,301,319,0
301,342,301,320,0
305,345,301,321,0
309,345,300,321,0
309,337,300,321,0
301,323,300,322,0
291,314,302,323,0
287,311,304,325,0
287,307,305,329,0
293,302,306,333,0
299,299,307,335,0
307,298,308,336,0
313,298,308,334,0
317,298,308,330,0
318,298,308,325,0
319,299,309,320,0
319,297,309,315,0
318,294,309,310,0
318,291,308,305,0
320,288,306,302,0
323,284,304,299,0
327,280,303,298,0
327,278,303,297,0
324,279,304,298,0
318,287,305,298,0
312,298,306,298,0
307,308,307,298,0
303,315,308,299,0
301,318,308,300,0
303,318,309,303,0
307,318,309,306,0
312,318,310,310,0
317,318,311,313,0
319,317,314,314,0
319,316,316,316,0
317,314,318,316,0
314,311,318,316,0
311,307,317,315,0
309,302,316,314,0
308,295,314,314,0
307,287,312,313,0
306,280,311,312,0
305,276,309,310,0
302,277,308,307,0
301,286,307,302,0
303,301,307,297,0
308,316,307,292,0
312,327,305,287,0
314,331,304,283,0
315,331,304,282,0
316,326,304,283,0
317,318,304,286,0
318,309,305,289,0
319,304,306,292,0
319,302,307,296,0
319,301,308,297,0
318,302,309,299,0
316,303,310,299,0
315,304,310,300,0
313,304,309,300,0
313,304,308,300,0
314,306,308,302,0
314,308,308,305,0
315,312,309,309,0
316,315,309,313,0
316,317,308,316,0
314,320,307,317,0
311,323,306,318,0
306,325,306,320,0
303,323,306,322,0
303,317,306,325,0
309,306,308,329,0
321,296,312,332,0
335,290,313,334,0
342,290,312,334,0
337,294,310,333,0
327,300,309,329,0
316,307,308,322,0
306,315,307,313,0
299,323,306,304,0
296,329,305,297,0
295,332,303,291,0
295,333,303,288,0
297,329,302,288,0
298,322,302,291,0
298,313,303,298,0
299,301,303,307,0
299,288,303,316,0
300,276,304,323,0
302,271,305,329,0
305,271,307,332,0
307,274,309,331,0
307,280,310,329,0
306,285,312,325,0
307,288,313,321,0
308,289,313,316,0
309,287,313,312,0
310,285,313,307,0
310,285,314,302,0
308,289,314,296,0
303,296,314,290,0
297,304,315,287,0
294,310,316,285,0
297,314,316,286,0
306,314,316,289,0
313,310,314,291,0
315,302,313,293,0
313,292,310,293,0
310,284,308,293,0
307,281,306,295,0
307,286,306,298,0
308,297,307,304,0
309,308,308,309,0
309,322,310,313,0
310,336,311,316,0
310,345,313,318,0
309,347,314,318,0
309,343,315,316,0
308,336,314,314,0
308,329,314,312,0
308,320,313,311,0
308,312,312,309,0
308,303,309,304,0
309,296,307,298,0
312,292,305,291,0
314,290,304,285,0
316,292,302,281,0
314,295,301,278,0
308,300,299,279,0
302,305,299,283,0
299,308,299,287,0
300,308,301,292,0
302,306,302,295,0
305,306,303,298,0
307,311,305,303,0
308,319,307,307,0
309,328,308,309,0
309,333,308,307,0
309,334,307,305,0
311,328,306,303,0
314,318,305,302,0
317,305,304,302,0
320,295,303,303,0
319,291,303,305,0
313,292,304,307,0
306,296,305,309,0
301,304,306,311,0
297,312,308,312,0
295,317,309,312,0
295,316,311,313,0
299,313,313,314,0
305,309,314,315,0
310,304,315,317,0
314,296,314,320,0
316,288,312,323,0
315,283,311,329,0
314,281,310,334,0
312,279,310,338,0
308,278,311,338,0
305,278,311,336,0
303,283,310,333,0
301,291,309,329,0
301,301,307,324,0
301,310,307,318,0
303,315,307,312,0
309,321,308,306,0
314,324,308,302,0
315,325,306,297,0
314,321,303,293,0
313,314,301,291,0
311,306,299,289,0
310,300,299,289,0
310,296,299,287,0
309,292,299,284,0
310,289,300,281,0
310,287,302,279,0
311,288,303,280,0
312,292,304,284,0
313,296,305,288,0
312,299,305,292,0
308,305,304,296,0
302,313,304,299,0
298,320,304,302,0
295,323,304,303,0
296,320,304,305,0
298,312,304,306,0
303,307,303,306,0
308,307,302,306,0
311,313,301,306,0
310,322,299,308,0
307,331,298,311,0
305,334,299,314,0
304,329,300,319,0
304,319,303,323,0
304,310,306,326,0
302,302,309,328,0
298,295,311,329,0
293,292,312,329,0
290,294,312,328,0
290,299,313,327,0
292,305,314,325,0
295,310,313,321,0
302,316,310,318,0
310,325,308,314,0
310,332,307,310,0
306,334,306,307,0
302,330,304,304,0
301,322,303,300,0
301,316,302,297,0
303,312,301,294,0
305,310,300,292,0
306,308,301,293,0
308,304,301,295,0
312,300,303,298,0
315,298,305,301,0
317,298,307,304,0
316,300,310,308,0
314,305,311,312,0
311,309,312,315,0
308,312,311,317,0
305,314,310,317,0
304,314,308,317,0
303,314,307,319,0
304,314,307,319,0
305,311,307,318,0
304,307,307,314,0
303,303,305,311,0
303,300,304,309,0
304,296,304,307,0
305,291,303,306,0
306,286,303,305,0
306,281,302,304,0
304,278,302,303,0
302,278,304,304,0
299,281,305,304,0
298,288,307,305,0
301,300,308,305,0
305,315,308,306,0
309,328,308,307,0
312,339,308,308,0
314,343,309,309,0
313,342,311,310,0
309,338,312,312,0
304,331,313,316,0
301,326,314,322,0
299,323,314,331,0
298,319,312,338,0
299,312,309,342,0
299,304,307,341,0
301,300,307,337,0
303,301,309,334,0
308,305,311,331,0
313,309,315,328,0
317,311,317,325,0
315,311,319,323,0
311,309,321,324,0
307,309,323,329,0
303,311,324,335,0
301,315,324,341,0
300,320,323,344,0
300,327,321,345,0
300,333,319,345,0
300,338,317,341,0
300,342,314,334,0
298,343,313,325,0
298,340,311,315,0
299,337,311,305,0
302,335,309,295,0
304,332,307,284,0
305,327,304,277,0
305,319,301,272,0
305,310,299,270,0
308,301,298,272,0
313,293,299,276,0
319,285,301,279,0
322,279,302,281,0
325,277,303,282,0
327,277,304,282,0
322,273,304,282,0
313,271,304,283,0
304,273,305,284,0
300,283,306,287,0
300,296,306,290,0
301,311,306,291,0
302,323,306,291,0
302,331,306,291,0
302,335,306,290,0
302,334,305,289,0
302,329,304,289,0
303,322,304,290,0
304,314,304,291,0
306,308,304,294,0
307,304,305,296,0
308,301,306,299,0
308,296,308,301,0
307,290,308,303,0
305,287,310,305,0
303,289,310,308,0
299,295,311,310,0
297,303,312,311,0
295,311,312,313,0
292,316,312,314,0
288,317,312,316,0
286,317,311,317,0
287,315,310,317,0
293,314,310,315,0
300,314,308,310,0
305,313,307,306,0
308,312,306,304,0
311,311,308,304,0
316,309,309,307,0
318,309,309,309,0
316,311,309,310,0
311,318,309,311,0
306,326,309,311,0
303,334,310,314,0
300,342,310,322,0
298,351,310,331,0
298,357,311,340,0
298,359,311,345,0
297,357,310,347,0
296,351,310,345,0
296,337,310,340,0
297,320,310,334,0
298,305,309,327,0
301,293,308,319,0
303,283,307,311,0
305,275,306,302,0
306,270,305,295,0
308,269,305,289,0
309,274,305,284,0
309,284,306,281,0
309,295,307,280,0
307,306,308,281,0
303,313,311,284,0
297,314,312,287,0
290,309,311,288,0
286,301,308,289,0
287,290,305,288,0
291,283,303,289,0
299,284,304,291,0
308,292,305,292,0
314,300,306,293,0
315,307,308,294,0
314,309,308,294,0
312,305,309,294,0
310,297,309,295,0
309,291,308,297,0
309,290,305,300,0
308,293,303,303,0
309,299,301,305,0
311,307,300,307,0
314,313,301,310,0
318,318,303,312,0
320,320,304,314,0
317,321,305,314,0
314,321,306,314,0
312,321,306,314,0
312,320,307,315,0
314,319,307,315,0
316,317,306,315,0
312,315,306,313,0
304,311,305,311,0
297,309,305,309,0
294,307,306,307,0
294,305,305,307,0
296,303,304,306,0
298,307,303,306,0
299,315,302,307,0
302,321,303,308,0
306,324,305,308,0
311,322,306,307,0
315,316,307,305,0
318,308,308,303,0
319,302,309,302,0
316,299,310,303,0
312,302,311,305,0
310,308,311,307,0
307,317,311,308,0
305,325,309,307,0
303,332,306,304,0
303,337,304,301,0
308,340,301,299,0
311,339,300,299,0
313,335,298,300,0
314,329,299,304,0
315,321,302,308,0
313,314,304,312,0
308,308,306,315,0
303,302,306,319,0
298,297,307,323,0
297,294,308,327,0
299,295,310,333,0
303,297,312,339,0
305,298,313,346,0
308,297,315,350,0
310,297,316,350,0
311,296,316,346,0
311,296,316,342,0
312,297,316,339,0
311,300,316,336,0
310,303,316,332,0
308,304,316,328,0
306,303,316,324,0
305,303,316,318,0
304,302,317,312,0
304,299,316,304,0
304,297,314,295,0
304,297,311,287,0
304,297,307,281,0
304,299,303,277,0
303,303,300,276,0
303,309,298,277,0
305,315,298,280,0
307,322,299,282,0
308,328,300,284,0
309,332,302,286,0
310,335,303,287,0
310,335,304,288,0
310,335,305,288,0
309,333,306,288,0
307,330,307,289,0
306,326,308,292,0
306,322,310,296,0
306,319,310,301,0
307,316,311,306,0
307,313,310,309,0
306,312,307,311,0
306,312,304,309,0
306,314,301,306,0
305,320,299,304,0
307,331,300,303,0
311,342,302,303,0
318,349,305,303,0
325,349,307,302,0
328,343,308,301,0
320,333,309,299,0
307,321,309,296,0
298,311,309,294,0
293,302,307,294,0
291,293,305,299,0
290,286,304,305,0
290,280,304,311,0
291,276,304,316,0
293,276,304,321,0
295,278,305,325,0
298,280,305,328,0
300,282,304,328,0
301,283,304,327,0
302,282,303,325,0
302,281,303,322,0
300,280,303,318,0
300,280,303,314,0
300,281,304,312,0
301,285,304,311,0
300,290,305,311,0
298,296,306,311,0
299,298,307,310,0
303,299,308,308,0
308,298,308,305,0
310,298,307,302,0
311,302,306,301,0
312,308,306,299,0
312,314,305,297,0
312,317,305,294,0
310,317,304,292,0
308,317,304,291,0
307,316,304,294,0
307,317,303,300,0
309,318,303,308,0
313,318,303,316,0
315,317,304,323,0
317,315,306,326,0
317,316,307,328,0
318,321,308,327,0
318,328,309,326,0
318,338,309,322,0
316,348,308,317,0
312,350,306,310,0
307,340,305,303,0
302,322,305,298,0
297,300,304,292,0
294,281,305,289,0
295,271,306,288,0
299,269,307,290,0
303,272,308,292,0
306,280,307,295,0
309,286,306,296,0
312,288,305,297,0
315,287,304,297,0
317,285,303,297,0
318,284,303,297,0
320,285,304,298,0
320,289,306,300,0
317,294,308,302,0
313,300,310,305,0
310,304,311,307,0
307,308,311,310,0
306,311,311,312,0
305,312,309,314,0
305,312,307,314,0
305,314,306,315,0
305,317,305,316,0
306,319,305,318,0
307,320,305,321,0
308,319,305,325,0
308,317,304,328,0
308,314,304,329,0
309,312,304,329,0
312,311,305,329,0
316,309,304,326,0
320,308,304,324,0
324,310,305,323,0
325,312,305,324,0
324,313,307,325,0
321,313,310,327,0
319,312,310,326,0
317,309,309,323,0
312,305,307,317,0
304,301,304,310,0
297,296,303,304,0
295,292,303,301,0
297,289,305,301,0
299,287,307,302,0
299,290,307,303,0
300,295,306,304,0
300,297,305,304,0
301,297,304,303,0
302,294,300,303,0
304,291,297,300,0
307,288,295,297,0
309,288,295,294,0
310,290,295,293,0
311,296,297,293,0
313,303,298,295,0
313,310,299,298,0
313,315,300,303,0
312,318,302,309,0
313,321,304,315,0
313,323,305,321,0
311,324,305,324,0
307,327,305,326,0
304,330,305,324,0
302,335,304,321,0
300,340,303,316,0
301,342,301,311,0
303,339,300,307,0
304,335,299,304,0
307,330,298,301,0
309,323,297,297,0
311,312,296,293,0
313,298,296,290,0
313,288,296,287,0
312,282,298,287,0
310,278,300,288,0
308,276,302,289,0
306,277,304,291,0
305,280,305,295,0
305,283,305,300,0
304,286,305,306,0
303,288,304,311,0
301,290,303,313,0
302,293,303,313,0
303,296,302,312,0
304,298,301,310,0
306,301,301,308,0
308,302,300,306,0
309,302,300,305,0
308,302,300,306,0
306,301,301,306,0
304,300,302,307,0
303,299,303,308,0
303,299,304,309,0
305,300,305,311,0
307,303,306,312,0
308,304,308,314,0
308,306,310,316,0
308,307,312,320,0
306,307,313,323,0
305,306,313,327,0
303,307,314,330,0
300,311,313,333,0
299,315,312,336,0
299,318,311,335,0
300,318,308,332,0
304,319,305,324,0
306,323,302,314,0
307,328,298,306,0
306,332,294,301,0
306,331,293,298,0
309,326,292,298,0
312,314,292,298,0
314,297,293,300,0
314,279,295,304,0
311,265,297,309,0
307,258,300,314,0
302,261,302,318,0
298,271,304,321,0
297,281,305,321,0
298,288,305,320,0
302,295,303,315,0
306,302,302,310,0
312,312,301,306,0
318,318,301,305,0
319,324,302,308,0
314,329,304,312,0
309,333,306,317,0
306,336,306,322,0
304,333,307,328,0
304,324,308,333,0
304,314,309,337,0
305,306,310,337,0
307,301,311,333,0
308,298,309,326,0
308,295,308,318,0
306,292,307,310,0
303,291,305,305,0
301,293,304,303,0
301,296,305,305,0
303,300,306,309,0
305,303,306,314,0
308,304,306,320,0
311,307,307,324,0
314,312,308,328,0
317,318,309,329,0
316,321,310,329,0
312,322,310,329,0
308,320,308,327,0
305,314,306,322,0
302,304,303,316,0
302,297,301,310,0
303,294,300,306,0
306,295,300,304,0
310,299,301,303,0
314,305,303,300,0
316,313,305,295,0
315,322,306,290,0
310,328,307,286,0
304,333,309,284,0
300,336,311,283,0
297,337,312,283,0
294,334,312,283,0
292,328,311,284,0
293,321,308,286,0
295,313,306,289,0
297,305,305,291,0
299,298,305,294,0
299,293,304,297,0
299,292,304,301,0
300,293,305,304,0
302,294,306,309,0
304,292,308,312,0
305,288,308,317,0
306,285,309,321,0
307,282,311,325,0
308,280,312,329,0
308,279,312,333,0
307,280,313,334,0
306,281,312,333,0
304,283,312,328,0
302,287,311,318,0
299,291,311,306,0
298,295,310,296,0
298,298,308,289,0
298,300,305,284,0
299,301,302,282,0
301,301,300,282,0
305,298,297,284,0
308,296,295,285,0
309,297,294,287,0
308,304,294,290,0
306,314,296,294,0
303,321,299,299,0
301,325,303,305,0
302,326,308,311,0
305,327,311,317,0
306,328,312,320,0
306,328,312,320,0
305,325,312,318,0
304,319,312,315,0
304,312,311,312,0
306,306,310,309,0
312,301,309,307,0
320,297,308,305,0
327,296,306,303,0
325,297,304,302,0
316,298,303,302,0
307,301,302,302,0
302,305,301,304,0
300,309,301,307,0
298,311,300,311,0
295,308,300,314,0
292,302,301,316,0
291,298,302,317,0
290,298,305,318,0
292,299,307,319,0
297,302,309,319,0
302,308,309,320,0
305,313,309,322,0
306,315,309,324,0
305,316,309,326,0
305,318,308,327,0
305,322,308,326,0
305,327,308,324,0
304,331,307,320,0
305,331,306,315,0
305,329,305,310,0
305,325,304,305,0
306,321,304,302,0
306,316,303,300,0
307,309,304,300,0
308,304,305,305,0
309,302,307,313,0
310,298,308,322,0
311,291,309,329,0
312,287,310,334,0
311,287,309,335,0
307,292,307,333,0
302,299,304,329,0
297,306,302,322,0
294,308,301,315,0
297,309,303,311,0
303,308,305,309,0
308,306,308,308,0
311,304,310,307,0
313,301,312,306,0
312,299,313,306,0
310,298,313,307,0
307,297,312,308,0
304,297,311,311,0
302,300,311,316,0
304,306,313,320,0
309,313,314,321,0
313,318,314,318,0
314,317,315,314,0
313,313,315,309,0
311,309,313,305,0
312,304,310,301,0
313,301,308,297,0
316,303,306,294,0
316,307,305,292,0
312,310,304,290,0
308,311,302,290,0
305,311,301,290,0
304,310,300,292,0
304,310,299,292,0
305,308,298,293,0
304,303,298,295,0
303,298,298,298,0
302,293,299,303,0
303,291,301,308,0
303,289,303,312,0
303,288,304,313,0
303,287,306,314,0
301,291,308,314,0
301,299,309,315,0
300,306,310,315,0
299,312,310,313,0
298,313,309,310,0
297,312,307,308,0
296,310,305,306,0
296,311,303,305,0
295,317,302,306,0
294,322,303,307,0
294,322,303,307,0
292,315,304,306,0
291,304,305,305,0
291,294,306,306,0
293,284,307,307,0
297,277,308,308,0
301,271,308,309,0
305,267,309,311,0
309,270,309,313,0
314,282,309,314,0
319,297,309,313,0
322,310,308,312,0
319,320,307,310,0
311,325,307,310,0
304,329,307,312,0
300,332,307,317,0
299,331,307,325,0
299,328,307,335,0
299,326,307,343,0
300,326,308,347,0
301,326,309,347,0
302,325,309,344,0
303,323,308,340,0
304,320,307,335,0
304,317,306,330,0
304,314,306,325,0
305,313,306,320,0
308,314,306,315,0
309,315,307,310,0
309,317,306,305,0
307,317,307,300,0
304,316,308,296,0
302,314,310,292,0
301,307,310,290,0
301,297,310,288,0
301,287,309,288,0
300,279,309,290,0
300,277,309,292,0
301,279,309,295,0
300,285,308,298,0
298,294,308,300,0
296,305,307,303,0
297,313,307,306,0
300,318,308,309,0
303,316,309,313,0
302,314,308,317,0
301,313,306,319,0
300,313,305,321,0
301,315,305,322,0
302,317,306,321,0
305,319,306,317,0
308,322,307,312,0
310,325,309,306,0
309,329,311,300,0
306,331,313,295,0
302,336,313,294,0
299,340,313,296,0
297,345,313,297,0
297,352,311,298,0
296,356,309,299,0
296,358,307,299,0
296,354,306,301,0
296,338,306,303,0
298,314,308,307,0
301,291,310,313,0
304,271,312,318,0
306,255,313,323,0
307,247,314,327,0
307,250,313,330,0
307,261,313,331,0
306,274,313,332,0
305,284,312,332,0
303,291,312,329,0
301,295,312,324,0
299,299,311,318,0
298,303,309,313,0
296,308,308,310,0
294,316,307,310,0
291,325,306,312,0
289,333,304,313,0
287,338,303,313,0
288,339,303,313,0
294,338,304,311,0
303,335,305,309,0
313,331,307,307,0
321,327,308,305,0
319,323,309,304,0
314,319,311,303,0
309,314,312,303,0
307,311,312,303,0
306,313,310,304,0
307,316,309,305,0
306,317,308,307,0
305,314,307,307,0
304,311,306,308,0
303,307,307,310,0
302,302,307,311,0
300,297,307,312,0
296,299,306,315,0
295,306,306,320,0
295,311,306,325,0
296,314,306,328,0
295,313,305,330,0
296,310,306,330,0
300,303,306,329,0
304,294,307,327,0
308,285,307,325,0
312,281,307,323,0
316,284,307,323,0
321,291,308,322,0
324,300,309,320,0
324,306,310,315,0
323,309,312,310,0
322,309,312,305,0
322,309,311,302,0
323,309,311,301,0
323,310,312,302,0
321,312,312,305,0
317,313,313,307,0
313,313,314,309,0
310,310,314,308,0
307,307,313,307,0
306,300,311,305,0
305,291,310,303,0
304,281,308,301,0
305,276,308,299,0
306,280,308,299,0
307,288,308,299,0
309,295,308,298,0
309,300,308,296,0
309,306,307,296,0
309,312,305,299,0
308,319,304,303,0
306,324,304,310,0
305,329,305,316,0
304,336,306,320,0
303,342,306,323,0
300,346,306,324,0
296,345,306,323,0
292,341,307,322,0
289,335,308,321,0
292,329,309,320,0
299,324,310,318,0
309,319,310,315,0
319,314,310,311,0
327,311,309,308,0
332,309,310,305,0
329,309,309,303,0
322,311,309,301,0
316,315,309,300,0
309,318,310,300,0
303,321,310,301,0
297,322,310,301,0
292,322,310,301,0
292,320,310,301,0
292,318,310,301,0
294,318,310,303,0
296,317,310,306,0
301,318,311,310,0
307,318,311,315,0
313,319,311,320,0
318,320,311,325,0
322,320,311,327,0
325,318,308,327,0
324,312,306,327,0
321,306,305,327,0
316,300,305,327,0
312,295,306,325,0
309,290,308,321,0
306,285,309,315,0
303,279,310,310,0
301,274,310,307,0
299,274,310,306,0
300,277,311,306,0
300,283,311,306,0
299,290,309,307,0
296,299,308,307,0
294,309,309,308,0
293,316,310,307,0
298,320,311,307,0
307,321,312,306,0
316,318,312,303,0
326,315,313,300,0
334,312,314,299,0
330,309,314,299,0
319,304,313,300,0
310,299,315,304,0
304,296,318,313,0
302,295,320,323,0
299,296,319,332,0
298,295,316,339,0
301,294,313,341,0
305,293,310,339,0
308,294,307,334,0
308,296,305,328,0
305,299,304,321,0
302,305,304,315,0
298,312,303,311,0
294,318,303,308,0
292,320,303,307,0
292,320,305,308,0
295,320,307,309,0
299,322,309,312,0
305,324,310,315,0
310,324,311,320,0
314,322,311,325,0
317,319,312,329,0
318,319,312,330,0
319,322,312,329,0
320,326,313,326,0
320,328,314,321,0
320,329,314,316,0
319,327,312,313,0
317,326,309,313,0
313,324,306,316,0
310,321,304,320,0
307,318,302,323,0
306,315,301,324,0
306,311,300,322,0
306,306,298,316,0
307,301,297,309,0
306,299,297,302,0
303,296,297,297,0
300,293,297,292,0
297,292,298,289,0
296,297,298,288,0
297,304,300,288,0
299,307,302,289,0
303,304,304,292,0
306,300,306,296,0
309,296,309,300,0
310,294,312,304,0
311,291,313,307,0
311,287,315,309,0
309,286,315,313,0
307,288,315,317,0
305,292,314,320,0
303,298,314,323,0
303,304,313,324,0
304,311,313,324,0
304,315,313,321,0
303,315,312,316,0
302,309,311,311,0
301,298,310,306,0
299,286,309,304,0
299,274,308,304,0
299,274,307,306,0
301,286,307,309,0
301,301,306,312,0
301,312,305,313,0
302,317,306,313,0
304,322,308,313,0
307,328,310,313,0
307,334,311,313,0
307,338,311,313,0
305,339,311,312,0
303,336,310,311,0
303,328,308,308,0
304,318,307,306,0
304,310,307,304,0
304,304,307,303,0
304,302,307,303,0
303,301,306,302,0
302,302,306,302,0
301,302,307,303,0
302,305,307,306,0
304,311,309,312,0
307,320,310,317,0
310,329,311,322,0
310,334,310,324,0
310,335,309,323,0
310,331,308,319,0
312,324,307,313,0
315,318,306,307,0
318,312,305,302,0
315,309,306,299,0
309,309,307,298,0
303,310,308,297,0
299,307,309,298,0
296,302,309,301,0
294,296,308,304,0
292,293,308,308,0
290,292,309,310,0
290,292,309,311,0
290,293,309,310,0
293,297,308,309,0
297,303,307,306,0
301,312,306,303,0
304,321,305,302,0
307,330,305,302,0
308,335,305,301,0
309,337,305,298,0
309,336,306,296,0
310,332,306,293,0
310,326,305,291,0
310,320,305,292,0
310,315,306,295,0
309,308,308,299,0
309,304,309,303,0
309,302,310,307,0
308,300,311,312,0
306,298,313,316,0
303,295,314,320,0
302,293,314,323,0
303,293,314,325,0
305,294,314,324,0
307,297,314,321,0
310,299,315,317,0
312,300,315,309,0
314,299,316,300,0
314,294,316,290,0
311,288,315,282,0
302,286,315,277,0
294,293,313,276,0
290,302,312,277,0
291,310,311,279,0
296,315,311,283,0
300,315,312,287,0
303,310,313,291,0
305,302,314,294,0
307,296,314,296,0
308,292,314,299,0
309,290,315,303,0
310,289,315,306,0
309,287,314,307,0
307,283,312,307,0
304,279,311,308,0
305,277,310,309,0
308,278,310,311,0
312,288,311,312,0
313,303,311,311,0
313,319,311,309,0
312,330,311,308,0
310,337,310,308,0
308,341,309,310,0
306,342,309,315,0
307,341,310,320,0
308,334,311,325,0
310,327,311,328,0
309,320,312,329,0
307,315,313,327,0
308,313,312,321,0
309,312,309,313,0
311,311,306,304,0
312,311,304,297,0
315,315,302,292,0
318,319,301,289,0
318,321,301,288,0
315,319,300,288,0
309,313,300,290,0
302,304,301,292,0
297,297,302,294,0
297,297,303,296,0
299,300,303,299,0
300,303,304,305,0
301,302,305,313,0
302,297,306,321,0
306,292,307,328,0
311,288,309,333,0
314,287,311,338,0
311,290,312,341,0
304,297,313,344,0
299,307,313,346,0
298,318,313,348,0
300,328,312,350,0
303,336,312,349,0
306,341,311,346,0
310,345,310,342,0
314,347,310,335,0
317,345,311,326,0
319,334,311,316,0
319,316,309,306,0
319,298,307,296,0
319,283,305,289,0
316,272,304,284,0
313,268,303,281,0
310,273,303,279,0
309,283,303,279,0
306,293,302,280,0
302,300,301,281,0
298,306,302,283,0
295,312,303,286,0
293,315,302,287,0
292,316,300,287,0
293,315,297,287,0
294,310,294,288,0
296,305,292,289,0
295,302,292,293,0
295,301,294,298,0
298,299,297,303,0
305,299,300,307,0
312,298,302,309,0
315,298,304,308,0
317,299,304,306,0
317,303,305,304,0
317,312,303,303,0
315,322,301,302,0
313,328,299,302,0
311,328,298,301,0
310,324,298,301,0
311,319,298,303,0
312,314,297,305,0
314,309,295,308,0
316,304,294,311,0
319,300,293,314,0
322,300,295,318,0
324,299,296,321,0
323,295,297,324,0
320,290,298,325,0
316,289,298,325,0
312,292,299,325,0
309,297,300,325,0
307,302,302,323,0
306,306,302,320,0
305,309,303,315,0
304,311,303,312,0
303,312,302,308,0
301,311,302,305,0
299,308,302,304,0
297,304,301,303,0
296,302,301,304,0
297,303,302,308,0
298,305,302,315,0
300,305,302,323,0
302,304,303,330,0
304,302,303,337,0
308,302,304,342,0
310,304,305,344,0
312,309,305,344,0
313,314,306,341,0
312,321,307,336,0
312,325,307,331,0
310,326,306,324,0
310,323,305,316,0
309,317,304,307,0
309,311,302,298,0
309,308,301,292,0
311,309,300,288,0
313,311,299,287,0
310,314,300,286,0
306,317,299,287,0
303,324,299,287,0
301,330,298,288,0
300,328,298,290,0
301,321,299,295,0
304,314,300,302,0
311,309,302,308,0
317,307,303,312,0
318,308,303,314,0
316,309,303,314,0
309,312,302,313,0
301,317,302,311,0
297,322,303,308,0
295,326,303,305,0
295,327,303,303,0
297,326,303,300,0
298,320,303,299,0
297,311,303,298,0
295,302,302,299,0
294,298,301,300,0
295,297,299,301,0
298,299,299,300,0
301,301,298,298,0
303,299,296,294,0
304,294,295,288,0
306,289,294,286,0
308,286,294,287,0
310,284,293,293,0
312,284,294,301,0
315,285,296,310,0
317,287,298,317,0
316,290,300,323,0
313,296,304,325,0
309,301,307,325,0
306,304,309,323,0
305,305,310,320,0
305,308,312,319,0
307,312,313,319,0
310,318,314,320,0
311,324,313,319,0
309,329,311,319,0
305,332,308,318,0
300,331,305,318,0
297,325,302,317,0
297,316,300,316,0
301,308,300,318,0
306,301,299,321,0
309,294,298,323,0
308,288,298,323,0
304,281,298,322,0
300,279,300,325,0
303,280,304,328,0
317,285,309,331,0
335,292,311,332,0
347,298,310,329,0
345,302,308,326,0
329,307,305,320,0
308,311,303,313,0
292,314,302,305,0
287,314,300,296,0
287,313,298,288,0
289,310,296,279,0
290,307,294,272,0
290,307,292,267,0
293,306,292,265,0
300,305,292,267,0
314,304,294,273,0
328,306,297,281,0
336,310,299,289,0
334,313,301,295,0
322,315,303,300,0
309,317,306,305,0
301,320,308,308,0
297,322,309,309,0
294,323,309,308,0
291,321,308,306,0
290,317,308,303,0
293,310,308,301,0
295,303,308,300,0
294,296,308,299,0
289,293,307,300,0
284,294,306,302,0
281,294,305,302,0
282,293,303,301,0
286,295,303,301,0
292,302,304,305,0
301,311,306,311,0
310,318,308,317,0
316,319,310,321,0
318,313,312,324,0
319,302,314,327,0
319,297,316,328,0
317,295,316,329,0
314,295,316,329,0
312,294,316,329,0
310,295,315,330,0
313,299,314,329,0
316,304,310,326,0
319,308,304,322,0
321,314,298,318,0
321,318,293,312,0
322,318,291,308,0
324,315,290,303,0
327,308,290,298,0
323,300,290,293,0
315,293,290,290,0
309,287,291,288,0
305,283,293,289,0
304,280,296,292,0
303,281,301,297,0
303,287,306,303,0
302,294,310,309,0
300,299,314,314,0
299,303,317,318,0
298,309,320,321,0
297,318,323,323,0
297,329,326,325,0
297,337,327,325,0
298,341,327,324,0
298,342,326,324,0
299,338,324,324,0
298,328,322,324,0
297,315,320,324,0
297,303,318,322,0
298,291,315,319,0
302,282,312,315,0
304,276,309,311,0
304,273,309,307,0
302,275,310,303,0
300,281,312,301,0
298,290,313,301,0
297,302,315,302,0
299,311,316,303,0
303,314,316,306,0
305,314,315,310,0
305,314,314,314,0
305,314,314,320,0
305,314,314,324,0
306,311,314,326,0
306,306,314,325,0
304,303,313,323,0
302,302,312,321,0
299,303,311,320,0
297,304,309,320,0
296,305,308,319,0
299,303,307,316,0
305,299,306,311,0
310,293,306,306,0
312,285,306,300,0
311,279,306,297,0
310,277,306,296,0
310,280,306,297,0
309,285,306,299,0
307,292,306,301,0
305,299,305,303,0
303,305,304,304,0
301,309,303,304,0
299,314,302,303,0
297,320,302,303,0
297,326,303,303,0
299,330,303,304,0
303,329,303,306,0
306,322,304,306,0
308,314,303,305,0
308,305,302,303,0
308,300,301,301,0
312,300,301,301,0
317,302,301,301,0
320,301,301,301,0
320,299,301,301,0
320,300,303,301,0
319,302,304,300,0
317,303,305,299,0
313,305,305,299,0
309,306,306,300,0
305,309,306,302,0
303,312,306,304,0
302,315,307,307,0
302,315,308,309,0
302,313,310,310,0
302,313,309,310,0
302,316,308,309,0
302,321,307,307,0
300,324,306,306,0
298,326,306,304,0
298,324,304,303,0
299,323,302,301,0
301,319,300,301,0
304,311,301,301,0
309,301,303,302,0
316,292,304,304,0
324,287,304,305,0
330,283,304,306,0
324,279,304,306,0
312,277,303,307,0
301,279,303,308,0
293,283,302,310,0
290,288,302,310,0
289,294,301,310,0
290,305,300,309,0
293,317,299,308,0
297,326,298,308,0
301,330,298,307,0
302,330,298,306,0
302,326,298,306,0
303,321,298,305,0
304,316,298,307,0
305,312,300,310,0
305,313,301,314,0
305,318,303,318,0
305,321,305,320,0
305,322,307,320,0
302,321,308,318,0
298,319,309,315,0
295,315,308,312,0
293,309,306,311,0
291,301,304,314,0
291,295,304,321,0
294,293,304,329,0
299,293,303,335,0
303,299,302,340,0
305,306,300,340,0
307,312,298,337,0
307,319,296,331,0
308,323,295,324,0
309,326,294,318,0
311,329,294,314,0
311,331,294,310,0
312,329,295,306,0
312,323,297,303,0
310,317,299,301,0
307,311,301,299,0
306,308,304,297,0
307,309,305,295,0
309,312,306,296,0
313,316,307,297,0
316,318,306,297,0
317,319,304,296,0
316,317,302,295,0
313,315,299,293,0
309,312,297,291,0
305,311,295,288,0
303,310,294,284,0
302,308,292,279,0
303,306,292,276,0
306,306,291,275,0
309,305,292,276,0
312,302,292,279,0
313,298,294,281,0
313,296,294,283,0
313,297,295,285,0
312,303,295,287,0
311,313,295,290,0
308,324,295,293,0
304,332,296,297,0
301,334,296,301,0
299,330,297,304,0
299,319,299,305,0
299,307,300,306,0
301,300,302,308,0
303,296,303,310,0
304,296,303,312,0
303,296,302,312,0
302,296,300,311,0
302,295,300,309,0
304,298,300,310,0
309,304,302,310,0
312,308,305,312,0
315,308,307,313,0
316,303,309,313,0
315,297,310,311,0
316,292,311,310,0
317,290,310,309,0
319,291,309,309,0
321,298,308,309,0
324,308,306,310,0
322,317,306,310,0
314,325,306,310,0
304,330,307,310,0
296,332,307,309,0
288,331,307,308,0
281,329,307,308,0
276,329,307,309,0
272,328,307,312,0
272,325,308,314,0
275,319,307,314,0
281,309,306,314,0
289,299,305,314,0
296,291,305,313,0
304,287,306,314,0
313,287,309,314,0
320,289,310,315,0
322,294,310,315,0
320,301,310,316,0
316,310,309,319,0
314,317,307,321,0
312,320,307,325,0
311,318,307,331,0
311,312,308,340,0
311,307,310,349,0
311,304,313,354,0
313,304,313,355,0
314,303,311,351,0
313,304,308,344,0
310,307,305,337,0
309,308,305,329,0
310,305,305,320,0
310,299,305,311,0
308,298,306,303,0
307,303,306,298,0
307,311,307,295,0
306,317,308,294,0
306,319,309,295,0
305,320,310,297,0
305,319,311,299,0
305,316,311,301,0
305,314,310,303,0
303,312,310,305,0
299,309,308,307,0
296,307,307,308,0
295,307,307,306,0
299,310,308,304,0
306,313,308,301,0
310,313,309,300,0
311,312,309,300,0
310,310,308,303,0
310,309,308,305,0
310,308,307,307,0
311,306,306,306,0
312,301,305,303,0
312,295,305,300,0
313,292,304,299,0
314,290,304,299,0
315,288,303,299,0
316,288,303,301,0
315,291,304,304,0
311,296,304,308,0
305,302,304,312,0
296,308,304,317,0
288,314,305,321,0
283,317,306,324,0
286,315,306,324,0
291,311,305,323,0
298,307,304,321,0
306,304,302,317,0
314,302,301,313,0
321,302,300,310,0
325,303,300,308,0
321,304,301,309,0
314,307,303,312,0
308,312,306,318,0
305,317,310,325,0
307,320,313,330,0
309,321,313,333,0
308,319,313,334,0
307,314,311,333,0
305,305,310,329,0
304,296,310,324,0
302,290,310,318,0
301,285,310,312,0
301,282,307,309,0
302,284,304,308,0
303,288,301,308,0
304,294,300,309,0
307,299,299,311,0
309,301,299,314,0
308,301,297,317,0
303,301,296,319,0
298,304,296,320,0
294,309,298,321,0
294,316,300,322,0
297,325,302,326,0
300,336,304,332,0
302,344,305,335,0
304,346,305,336,0
305,342,305,333,0
306,335,304,328,0
309,329,305,323,0
311,322,305,317,0
312,316,305,312,0
313,310,304,309,0
313,304,305,306,0
314,298,304,304,0
316,292,303,304,0
317,286,303,302,0
317,284,302,300,0
315,286,302,298,0
313,289,302,298,0
308,294,303,300,0
304,300,305,303,0
300,306,309,306,0
298,313,311,311,0
298,319,310,314,0
303,324,308,314,0
309,325,306,312,0
312,321,304,310,0
313,312,303,311,0
313,302,303,312,0
314,295,303,313,0
314,291,303,313,0
314,288,303,312,0
313,287,303,311,0
314,286,303,310,0
319,282,300,309,0
324,274,298,306,0
330,265,296,304,0
332,258,296,303,0
323,254,297,303,0
310,258,299,305,0
300,273,301,307,0
298,293,305,309,0
301,314,307,309,0
306,333,307,308,0
309,345,306,307,0
310,349,304,306,0
311,347,302,304,0
311,344,301,303,0
311,341,300,303,0
312,335,300,305,0
312,327,300,308,0
313,316,299,310,0
314,308,299,311,0
315,301,298,311,0
316,296,297,309,0
316,295,296,308,0
315,298,296,306,0
315,301,297,304,0
316,303,297,302,0
317,303,298,301,0
318,303,299,301,0
317,305,300,302,0
315,310,301,304,0
313,318,303,307,0
312,325,305,311,0
312,329,307,316,0
311,331,309,319,0
309,332,310,322,0
309,331,312,322,0
310,325,313,322,0
313,316,314,320,0
316,307,313,316,0
318,298,310,310,0
318,288,306,302,0
316,278,303,297,0
313,274,300,297,0
311,276,298,301,0
308,283,297,306,0
306,292,296,311,0
304,301,296,316,0
304,309,297,320,0
308,314,299,323,0
311,316,301,326,0
313,315,303,326,0
315,312,304,325,0
316,309,305,323,0
320,307,306,320,0
323,308,305,316,0
324,311,303,310,0
324,315,302,305,0
323,318,301,302,0
320,321,300,301,0
319,323,300,300,0
320,326,301,298,0
322,325,301,294,0
321,322,301,291,0
315,314,301,289,0
307,304,303,289,0
303,295,305,292,0
304,290,309,296,0
309,291,313,302,0
312,300,316,307,0
314,311,318,310,0
313,318,318,312,0
311,316,317,314,0
311,308,316,318,0
312,299,314,320,0
314,291,311,321,0
317,283,309,320,0
320,277,306,315,0
319,274,304,309,0
314,275,303,303,0
309,279,303,298,0
307,282,303,293,0
307,289,303,288,0
307,297,303,285,0
307,303,301,282,0
307,306,300,279,0
308,307,301,280,0
311,306,303,283,0
314,305,304,289,0
317,305,306,295,0
318,303,307,299,0
317,299,307,302,0
314,296,306,302,0
311,296,303,301,0
307,296,301,298,0
304,297,301,293,0
303,302,300,288,0
302,312,299,285,0
301,323,298,283,0
299,330,298,285,0
298,331,301,288,0
300,327,303,293,0
304,319,305,297,0
305,312,306,299,0
304,309,306,300,0
300,309,307,300,0
297,314,307,299,0
298,321,310,299,0
302,327,312,300,0
308,331,316,301,0
314,329,319,301,0
319,322,320,301,0
322,312,320,301,0
324,303,319,301,0
325,300,318,302,0
326,299,318,303,0
324,299,317,304,0
319,300,316,306,0
313,303,315,307,0
307,305,315,308,0
302,305,314,309,0
298,302,314,309,0
296,297,313,308,0
297,292,313,307,0
300,286,313,307,0
303,281,313,309,0
304,277,314,316,0
304,281,315,325,0
303,290,316,333,0
300,302,319,341,0
301,314,321,346,0
305,323,322,348,0
310,328,322,347,0
312,329,321,344,0
311,325,320,339,0
309,319,319,332,0
308,315,318,326,0
308,314,317,320,0
309,316,315,315,0
313,317,313,311,0
317,317,312,308,0
322,318,310,305,0
325,318,307,300,0
320,318,304,293,0
311,320,302,287,0
304,321,300,281,0
298,319,299,276,0
295,314,298,273,0
294,313,299,273,0
294,315,300,275,0
295,320,302,278,0
295,324,304,283,0
295,324,304,288,0
294,320,305,295,0
292,313,307,303,0
293,305,311,310,0
298,299,314,316,0
305,294,315,319,0
309,288,313,319,0
309,283,312,317,0
308,275,310,315,0
306,267,309,312,0
304,261,307,311,0
303,258,304,309,0
303,261,302,308,0
303,268,301,307,0
304,280,301,307,0
306,293,303,309,0
307,303,305,312,0
307,310,307,314,0
307,314,307,315,0
305,315,307,313,0
305,313,307,309,0
307,309,307,305,0
311,305,303,301,0
313,301,298,297,0
311,300,293,294,0
304,306,289,293,0
293,317,287,292,0
282,327,286,291,0
278,332,286,290,0
281,334,286,288,0
287,332,285,288,0
294,327,285,289,0
301,324,284,291,0
307,318,284,293,0
310,307,284,294,0
310,292,284,296,0
310,281,284,298,0
309,278,285,301,0
307,279,285,304,0
305,286,285,306,0
303,298,285,308,0
300,308,284,308,0
297,315,284,308,0
295,323,283,308,0
294,330,282,309,0
295,336,282,310,0
296,338,282,313,0
295,338,281,316,0
295,336,279,319,0
295,330,278,319,0
297,326,276,316,0
301,321,274,311,0
304,315,274,307,0
307,307,274,303,0
304,300,276,301,0
298,297,278,302,0
295,300,280,303,0
298,304,283,308,0
302,307,285,316,0
303,310,286,323,0
303,311,285,330,0
302,310,282,333,0
300,308,280,334,0
298,308,279,332,0
295,311,279,329,0
292,317,278,325,0
289,323,277,317,0
287,329,275,310,0
286,332,274,302,0
287,332,273,295,0
290,325,272,291,0
293,314,271,289,0
297,302,271,291,0
301,292,271,294,0
304,285,272,299,0
305,283,273,304,0
304,283,274,308,0
304,285,275,311,0
305,288,276,311,0
307,291,276,308,0
303,294,276,303,0
298,300,276,296,0
292,304,276,288,0
286,302,275,281,0
283,294,275,276,0
281,282,274,273,0
281,276,274,274,0
283,275,275,277,0
287,276,276,281,0
292,277,276,287,0
297,284,277,294,0
301,295,277,301,0
301,306,278,308,0
298,312,280,315,0
295,315,283,320,0
297,318,284,322,0
300,321,285,321,0
301,324,284,317,0
299,326,283,311,0
296,327,282,305,0
291,327,281,299,0
285,323,280,294,0
278,313,280,291,0
273,300,280,289,0
272,288,281,289,0
275,280,282,291,0
280,277,283,294,0
285,281,284,297,0
289,287,285,298,0
293,295,286,299,0
294,299,287,300,0
295,302,288,302,0
297,303,289,305,0
299,305,291,310,0
303,311,293,316,0
307,317,295,322,0
310,323,298,327,0
312,328,300,328,0
312,333,302,327,0
311,335,305,323,0
309,334,306,318,0
308,327,305,314,0
307,318,304,312,0
307,309,303,311,0
308,298,303,309,0
306,288,303,305,0
297,282,304,302,0
292,283,306,298,0
293,288,309,294,0
297,293,310,288,0
300,296,310,284,0
302,298,310,282,0
303,298,310,283,0
304,295,310,286,0
306,291,311,290,0
308,287,312,294,0
310,284,314,298,0
311,282,317,301,0
311,280,320,301,0
311,277,321,299,0
312,274,321,295,0
313,272,321,290,0
317,275,323,288,0
322,285,324,288,0
322,295,326,289,0
318,303,327,290,0
314,309,328,293,0
311,313,327,296,0
310,319,326,297,0
311,324,325,297,0
313,326,324,296,0
316,321,322,296,0
319,316,319,295,0
322,310,316,295,0
324,306,315,294,0
328,305,314,294,0
330,306,315,293,0
328,310,317,293,0
322,313,320,295,0
316,316,322,296,0
310,315,324,297,0
305,308,325,297,0
300,298,326,296,0
296,288,327,292,0
294,284,328,290,0
296,288,329,291,0
303,298,329,292,0
308,309,327,295,0
309,317,325,297,0
305,322,322,301,0
304,327,318,305,0
306,329,315,308,0
308,326,312,311,0
309,317,311,315,0
311,304,311,318,0
313,295,314,322,0
315,292,318,326,0
317,292,323,329,0
319,292,327,330,0
320,294,330,329,0
320,298,332,327,0
318,304,333,325,0
316,310,332,325,0
315,316,331,325,0
313,318,330,324,0
312,316,328,321,0
311,313,327,317,0
309,311,326,314,0
309,311,326,310,0
308,313,326,306,0
308,318,325,302,0
306,324,324,299,0
304,327,324,297,0
303,321,324,297,0
303,315,324,299,0
305,314,323,302,0
307,316,324,305,0
308,318,325,308,0
305,316,326,310,0
299,309,327,313,0
290,299,328,314,0
286,290,328,313,0
290,285,329,311,0
300,284,329,309,0
310,284,329,310,0
317,287,328,315,0
324,296,328,324,0
331,307,329,335,0
334,316,329,344,0
328,320,328,349,0
317,320,326,350,0
309,314,324,348,0
306,300,323,344,0
304,285,323,338,0
303,276,323,332,0
302,275,324,327,0
302,281,326,323,0
302,289,326,320,0
302,299,327,317,0
301,309,327,314,0
300,317,326,308,0
299,324,325,303,0
297,324,324,297,0
296,317,324,294,0
296,305,326,295,0
297,294,328,299,0
297,285,330,304,0
298,280,331,309,0
298,283,330,313,0
299,295,329,316,0
299,310,326,317,0
301,314,325,318,0
303,311,324,317,0
304,305,322,312,0
303,297,321,305,0
303,289,321,299,0
303,281,323,296,0
303,276,326,296,0
301,274,329,298,0
299,273,330,302,0
297,275,332,306,0
295,282,331,308,0
293,292,330,309,0
292,302,328,309,0
292,312,325,311,0
293,321,323,313,0
294,327,321,317,0
295,327,321,320,0
297,326,321,322,0
297,325,321,323,0
298,329,322,322,0
300,332,324,321,0
301,332,326,320,0
302,329,327,319,0
302,325,327,317,0
301,322,324,315,0
298,322,320,314,0
295,326,318,313,0
294,331,318,313,0
297,333,318,312,0
302,329,317,309,0
305,318,315,305,0
307,303,314,302,0
307,287,314,301,0
307,277,314,303,0
308,274,314,307,0
307,278,314,314,0
306,284,315,321,0
305,291,316,327,0
305,297,317,332,0
307,301,317,334,0
310,304,316,334,0
314,306,315,331,0
317,306,313,328,0
316,307,312,328,0
314,308,313,328,0
313,308,316,328,0
314,309,318,326,0
312,311,319,322,0
308,311,319,317,0
303,313,319,312,0
302,315,318,308,0
304,318,316,304,0
307,322,314,301,0
310,324,313,299,0
312,325,312,298,0
315,326,311,298,0
315,327,311,301,0
312,327,311,304,0
306,325,311,308,0
302,324,311,310,0
300,323,310,310,0
301,320,309,308,0
307,316,310,307,0
313,311,311,306,0
314,305,310,304,0
308,300,310,302,0
303,295,309,301,0
300,289,309,301,0
299,283,309,299,0
299,282,309,297,0
300,288,308,293,0
301,298,308,290,0
301,309,307,287,0
301,319,307,286,0
301,325,306,284,0
302,326,305,283,0
303,323,305,283,0
303,316,305,283,0
301,308,304,285,0
300,300,303,289,0
300,291,302,295,0
302,286,303,303,0
308,285,304,311,0
313,294,306,316,0
318,312,307,319,0
321,334,309,320,0
323,350,312,317,0
326,355,313,313,0
325,353,314,310,0
323,348,314,308,0
321,339,314,307,0
318,330,314,307,0
315,317,315,307,0
313,304,316,307,0
311,292,316,305,0
307,282,314,303,0
303,277,310,300,0
299,276,306,297,0
296,280,301,294,0
299,288,297,293,0
304,298,294,294,0
308,310,293,296,0
311,320,293,299,0
315,323,294,303,0
317,320,295,305,0
319,312,297,306,0
319,305,298,306,0
319,301,300,306,0
318,299,302,305,0
316,299,303,304,0
314,301,303,302,0
312,302,301,298,0
308,299,300,296,0
306,292,301,297,0
308,282,303,304,0
314,278,305,314,0
319,283,305,325,0
320,295,305,335,0
317,305,305,342,0
315,313,305,346,0
315,317,306,347,0
313,321,307,347,0
310,324,309,344,0
308,327,310,338,0
307,328,311,331,0
307,325,312,323,0
307,319,312,316,0
307,312,313,310,0
308,302,313,306,0
307,293,314,303,0
307,289,314,301,0
306,289,314,299,0
306,294,313,297,0
307,302,312,295,0
306,308,311,295,0
306,312,309,296,0
306,313,308,297,0
306,311,307,298,0
305,311,307,298,0
305,308,306,297,0
305,304,305,296,0
305,299,305,295,0
307,295,305,297,0
311,294,305,299,0
314,294,306,301,0
317,295,307,304,0
319,293,309,308,0
319,289,310,312,0
318,290,311,316,0
318,299,312,320,0
316,314,313,325,0
315,327,314,329,0
314,338,315,332,0
314,343,316,333,0
314,344,315,332,0
314,344,314,328,0
313,341,312,324,0
312,334,310,319,0
312,324,308,314,0
313,312,306,307,0
313,301,305,301,0
315,292,304,298,0
317,285,304,300,0
321,285,305,304,0
327,291,305,310,0
328,299,305,315,0
321,307,305,318,0
310,313,305,319,0
300,317,305,316,0
294,318,306,313,0
291,314,307,309,0
292,309,309,306,0
299,301,313,305,0
310,293,316,306,0
320,285,316,306,0
325,280,315,306,0
324,284,315,307,0
317,295,314,308,0
308,310,313,309,0
301,321,312,307,0
297,323,308,304,0
296,315,302,301,0
298,305,298,299,0
301,297,296,299,0
305,294,296,301,0
309,296,298,306,0
313,301,301,310,0
317,309,304,313,0
319,317,305,315,0
318,321,306,318,0
315,321,306,321,0
310,317,306,324,0
305,312,307,325,0
302,304,308,321,0
300,299,307,314,0
302,295,307,306,0
306,296,307,299,0
309,300,308,293,0
309,305,307,288,0
306,312,307,285,0
302,315,306,284,0
298,313,304,284,0
297,307,304,287,0
300,306,305,294,0
304,309,307,302,0
313,309,309,309,0
326,304,311,314,0
334,299,312,318,0
338,296,312,319,0
333,294,312,317,0
322,289,312,312,0
308,282,312,308,0
299,278,312,307,0
300,283,313,309,0
312,297,313,314,0
329,312,313,318,0
339,322,312,320,0
339,330,312,321,0
329,336,313,320,0
316,342,314,317,0
304,345,313,312,0
299,345,310,306,0
298,342,308,300,0
301,338,308,296,0
303,331,307,295,0
306,319,306,297,0
308,306,305,302,0
311,303,306,307,0
316,303,305,311,0
319,302,303,312,0
317,301,300,313,0
312,305,300,314,0
309,310,300,316,0
307,314,301,318,0
304,312,301,318,0
302,303,300,318,0
303,288,297,319,0
303,275,294,320,0
304,274,292,320,0
303,279,292,319,0
303,280,290,316,0
304,275,290,312,0
307,275,291,310,0
312,281,292,306,0
316,282,294,301,0
317,272,295,294,0
317,265,297,288,0
317,267,298,284,0
318,279,300,282,0
320,293,300,280,0
320,304,299,281,0
322,305,300,283,0
325,299,301,285,0
329,295,302,286,0
331,294,301,285,0
329,297,299,284,0
322,302,298,283,0
312,305,297,284,0
304,306,296,287,0
301,306,295,290,0
301,304,294,293,0
301,301,294,296,0
302,297,294,299,0
302,295,294,303,0
303,294,295,310,0
303,296,296,318,0
303,304,297,323,0
303,321,299,327,0
304,342,301,327,0
304,356,302,326,0
304,358,303,323,0
304,350,304,318,0
305,338,305,312,0
306,327,305,306,0
306,319,304,300,0
306,310,304,296,0
305,301,302,293,0
304,289,301,291,0
302,273,300,290,0
301,258,299,290,0
301,244,297,292,0
302,237,297,296,0
303,240,298,301,0
304,248,300,306,0
304,259,302,311,0
305,272,305,314,0
307,288,306,314,0
308,302,305,312,0
308,314,304,309,0
306,324,303,305,0
304,331,301,304,0
302,332,301,302,0
301,330,300,302,0
300,325,301,303,0
300,319,301,304,0
300,315,301,306,0
300,311,301,306,0
300,308,301,307,0
300,309,301,308,0
301,310,300,309,0
302,312,300,310,0
303,312,300,313,0
305,310,301,317,0
306,307,302,323,0
307,305,304,328,0
308,302,306,330,0
308,299,308,330,0
307,296,309,328,0
305,294,309,322,0
302,291,309,315,0
300,291,308,310,0
300,298,307,306,0
300,310,308,304,0
301,322,307,303,0
302,329,306,302,0
301,329,305,303,0
300,325,303,305,0
300,316,302,305,0
300,303,301,304,0
302,289,300,302,0
303,279,299,301,0
303,273,298,301,0
303,278,299,304,0
300,292,300,308,0
296,306,302,314,0
291,314,304,320,0
288,315,307,326,0
288,315,309,331,0
290,316,310,332,0
292,316,306,329,0
293,316,301,323,0
292,315,297,314,0
290,317,294,305,0
290,324,293,297,0
295,332,294,291,0
303,335,295,287,0
307,329,295,282,0
305,313,294,279,0
298,295,292,276,0
293,280,290,275,0
292,271,288,275,0
294,267,287,277,0
298,267,286,281,0
301,268,287,285,0
304,271,287,289,0
304,274,287,292,0
303,277,287,295,0
301,280,287,299,0
300,281,286,302,0
298,280,285,304,0
296,279,285,306,0
295,279,285,307,0
294,281,284,309,0
294,285,283,311,0
295,291,283,311,0
296,298,282,311,0
298,305,283,310,0
299,308,284,309,0
301,309,285,307,0
302,309,286,306,0
303,309,287,306,0
304,311,289,310,0
305,313,291,317,0
305,313,294,326,0
305,309,297,331,0
305,304,299,334,0
304,304,303,335,0
304,309,307,333,0
305,316,312,329,0
308,322,316,323,0
309,325,319,316,0
309,323,321,311,0
307,317,323,309,0
304,312,326,308,0
302,311,328,310,0
301,313,328,310,0
300,318,329,309,0
300,322,331,307,0
299,325,332,304,0
298,320,334,302,0
299,308,335,301,0
299,294,337,302,0
301,285,339,303,0
304,283,341,306,0
308,287,343,309,0
314,292,346,313,0
319,295,349,320,0
322,294,352,328,0
317,290,355,333,0
308,284,357,335,0
301,283,357,334,0
296,289,357,330,0
291,299,357,325,0
288,302,357,319,0
286,300,356,313,0
285,299,354,308,0
286,301,352,305,0
291,305,351,303,0
296,307,351,300,0
302,310,351,294,0
308,313,350,290,0
312,318,349,289,0
310,320,350,291,0
303,319,351,297,0
296,315,354,304,0
288,305,356,311,0
285,289,357,316,0
286,278,359,319,0
292,283,360,320,0
298,298,359,318,0
302,313,357,312,0
305,325,355,306,0
306,332,354,302,0
307,332,354,298,0
305,327,355,296,0
303,321,355,294,0
301,315,356,294,0
300,309,356,295,0
302,306,356,297,0
302,305,353,297,0
301,306,350,296,0
298,307,346,295,0
295,310,345,294,0
296,311,346,296,0
301,307,348,297,0
308,298,351,299,0
312,298,354,302,0
311,306,357,306,0
307,317,361,310,0
303,325,362,313,0
299,326,363,314,0
298,319,362,312,0
297,304,361,309,0
297,289,360,308,0
298,283,359,308,0
300,285,359,310,0
302,291,357,313,0
304,297,357,319,0
305,302,356,324,0
304,305,354,327,0
302,308,354,330,0
301,311,353,331,0
301,315,354,332,0
301,320,355,332,0
301,324,356,334,0
301,329,358,338,0
301,332,359,344,0
301,329,360,351,0
302,322,361,357,0
302,312,361,361,0
301,302,359,363,0
300,293,358,364,0
299,287,356,361,0
299,284,353,356,0
298,286,351,348,0
298,290,348,336,0
298,291,345,324,0
298,292,341,311,0
298,294,339,301,0
299,296,336,292,0
301,299,332,283,0
303,302,329,275,0
304,303,327,269,0
305,304,327,267,0
305,305,328,268,0
303,307,330,272,0
301,309,332,276,0
299,313,335,279,0
296,319,335,282,0
295,328,333,285,0
294,338,330,288,0
295,343,326,292,0
296,340,323,296,0
299,333,320,299,0
304,325,316,302,0
307,317,314,302,0
308,310,311,300,0
304,305,308,298,0
293,300,306,297,0
281,297,304,298,0
277,297,302,302,0
279,298,302,307,0
284,300,302,311,0
291,301,302,314,0
297,303,302,318,0
301,307,302,322,0
303,314,302,325,0
304,320,302,328,0
304,323,301,329,0
303,324,300,328,0
302,323,298,325,0
301,319,296,319,0
298,315,295,314,0
294,316,293,310,0
289,320,291,308,0
285,325,291,308,0
283,326,291,309,0
283,325,290,310,0
282,320,288,311,0
286,315,288,312,0
295,310,288,313,0
308,304,288,312,0
317,299,288,311,0
320,296,288,310,0
319,296,288,311,0
317,297,289,311,0
315,300,290,312,0
315,303,292,313,0
315,305,294,313,0
314,307,295,313,0
312,310,297,314,0
312,314,299,317,0
312,318,301,319,0
313,321,303,321,0
313,324,303,320,0
312,325,301,319,0
308,326,298,317,0
304,326,294,315,0
301,325,290,313,0
298,325,288,312,0
295,325,287,311,0
293,324,288,312,0
293,323,288,314,0
294,318,289,318,0
298,311,291,323,0
303,306,294,328,0
308,302,297,331,0
311,298,299,333,0
311,296,300,336,0
312,297,301,341,0
313,302,302,344,0
315,307,302,345,0
317,312,302,343,0
317,319,301,338,0
314,325,300,332,0
309,330,300,325,0
305,329,300,318,0
303,324,301,311,0
303,316,300,306,0
304,305,299,303,0
308,296,299,302,0
311,293,299,304,0
313,296,300,305,0
314,299,300,307,0
314,298,301,310,0
314,297,301,312,0
314,297,301,312,0
314,300,300,312,0
314,306,299,308,0
313,311,298,302,0
312,315,297,296,0
309,316,295,292,0
306,317,294,291,0
304,317,294,293,0
306,319,295,296,0
309,322,295,298,0
310,325,295,301,0
310,325,295,302,0
309,319,293,302,0
308,309,292,301,0
309,300,291,302,0
312,295,291,304,0
315,294,291,307,0
317,295,291,310,0
317,295,291,313,0
317,294,289,314,0
317,291,288,315,0
315,289,288,313,0
313,291,286,312,0
311,295,284,309,0
309,297,282,306,0
308,300,280,304,0
308,302,278,303,0
310,303,277,304,0
313,303,276,305,0
316,301,275,306,0
311,301,272,306,0
302,303,270,307,0
297,308,269,308,0
300,314,268,311,0
308,316,266,314,0
315,318,265,318,0
316,317,264,323,0
313,315,264,327,0
311,312,265,331,0
308,308,265,332,0
307,304,265,332,0
306,303,265,329,0
306,307,264,324,0
306,312,262,320,0
305,314,261,315,0
304,313,260,312,0
303,310,258,309,0
304,309,256,306,0
305,308,253,304,0
307,304,250,304,0
307,301,248,304,0
308,302,246,305,0
308,306,245,308,0
308,312,244,311,0
308,320,243,316,0
309,324,242,321,0
310,324,242,323,0
310,321,242,321,0
308,317,244,318,0
306,314,247,316,0
305,316,251,314,0
307,316,256,312,0
308,312,258,309,0
306,302,257,305,0
303,290,252,302,0
301,280,247,302,0
301,280,241,304,0
301,285,237,306,0
301,295,236,308,0
302,307,235,310,0
302,323,235,311,0
303,337,236,310,0
304,342,236,305,0
304,337,235,300,0
305,325,234,294,0
304,309,234,290,0
304,293,235,288,0
305,278,236,288,0
306,273,237,289,0
308,277,239,290,0
310,285,240,292,0
309,297,241,294,0
308,309,243,297,0
305,317,245,301,0
302,321,245,306,0
298,320,246,311,0
295,319,246,315,0
293,318,245,318,0
293,317,245,319,0
294,313,245,318,0
294,309,246,315,0
294,310,246,311,0
294,312,246,307,0
297,312,247,302,0
301,306,247,299,0
304,300,249,298,0
308,298,250,299,0
310,303,252,300,0
311,315,253,301,0
313,324,255,305,0
312,327,257,309,0
309,325,259,313,0
303,323,260,314,0
298,321,259,314,0
296,316,259,313,0
299,309,259,311,0
306,304,258,310,0
313,299,257,307,0
310,294,255,305,0
302,292,253,302,0
295,292,252,301,0
290,291,251,299,0
287,288,250,296,0
284,285,249,292,0
283,287,249,290,0
287,297,252,290,0
295,306,254,293,0
304,310,257,300,0
308,312,263,310,0
309,313,268,320,0
309,312,271,327,0
306,310,273,332,0
301,309,273,334,0
296,304,273,331,0
293,300,272,325,0
294,298,271,317,0
295,298,269,307,0
294,298,267,299,0
290,302,266,294,0
288,308,265,293,0
287,313,265,293,0
287,315,264,294,0
286,312,262,293,0
285,307,260,291,0
285,302,259,289,0
289,297,259,287,0
297,287,258,286,0
302,272,257,284,0
303,255,256,284,0
304,242,255,285,0
304,239,255,287,0
304,246,254,291,0
304,260,254,296,0
302,278,253,300,0
299,299,251,303,0
295,323,250,305,0
291,343,250,307,0
289,355,251,307,0
288,360,251,306,0
289,360,251,303,0
290,357,250,301,0
291,353,248,299,0
295,348,247,297,0
305,342,246,294,0
319,332,244,292,0
331,322,243,291,0
339,312,243,292,0
337,301,246,294,0
328,297,253,297,0
321,303,259,299,0
316,311,264,301,0
312,314,267,302,0
310,310,268,301,0
311,301,270,300,0
309,295,270,299,0
302,290,270,301,0
296,287,270,303,0
292,283,269,304,0
291,280,269,306,0
292,278,270,307,0
294,279,271,306,0
296,283,272,305,0
298,289,272,302,0
300,299,272,298,0
301,309,273,297,0
302,314,274,300,0
301,313,275,306,0
301,309,278,314,0
302,307,281,321,0
305,307,286,328,0
309,309,289,331,0
313,311,292,330,0
313,312,293,326,0
311,312,293,319,0
307,309,293,311,0
303,305,292,304,0
300,301,290,297,0
298,295,289,290,0
298,289,288,286,0
299,284,288,283,0
301,279,289,285,0
303,272,291,289,0
305,265,293,293,0
304,265,294,294,0
305,274,295,295,0
306,284,297,297,0
307,293,298,298,0
306,302,300,300,0
304,311,301,301,0
302,320,302,301,0
302,329,301,300,0
303,335,302,298,0
305,338,303,297,0
306,336,304,295,0
305,330,305,294,0
302,323,306,293,0
298,315,306,290,0
296,309,306,289,0
297,305,306,288,0
300,302,307,289,0
302,301,307,291,0
302,300,307,293,0
302,300,307,295,0
301,304,307,296,0
301,311,307,298,0
301,319,308,301,0
301,323,310,305,0
301,321,311,309,0
301,317,311,312,0
302,312,312,315,0
303,304,314,317,0
303,297,315,317,0
303,292,317,315,0
303,291,317,311,0
303,294,317,306,0
303,298,316,302,0
303,301,315,299,0
302,303,314,298,0
302,304,314,298,0
301,305,314,298,0
301,304,313,297,0
301,304,313,297,0
302,305,312,296,0
303,305,310,296,0
305,305,309,299,0
307,305,308,303,0
308,304,307,307,0
306,303,308,310,0
303,303,310,311,0
300,303,312,311,0
299,305,315,309,0
304,307,317,308,0
309,308,318,304,0
309,309,318,300,0
305,308,317,295,0
300,308,315,291,0
296,307,314,288,0
295,307,313,285,0
296,309,313,283,0
298,309,313,281,0
302,308,312,281,0
308,305,311,282,0
312,302,310,283,0
313,298,309,286,0
313,296,309,288,0
317,298,311,293,0
322,303,313,299,0
327,312,315,305,0
325,322,318,311,0
317,327,322,317,0
310,327,325,323,0
305,326,328,326,0
302,325,329,327,0
302,323,328,326,0
303,320,327,323,0
306,318,324,319,0
309,317,321,314,0
311,309,318,311,0
312,297,316,311,0
312,285,315,315,0
309,277,315,319,0
304,272,314,322,0
299,270,312,322,0
293,271,311,320,0
290,273,310,316,0
288,276,309,311,0
288,283,309,306,0
291,293,309,302,0
298,305,310,301,0
305,315,311,301,0
311,322,313,300,0
314,328,314,299,0
315,331,315,296,0
314,332,314,292,0
313,331,313,288,0
311,330,312,285,0
312,329,312,286,0
312,332,313,288,0
313,338,315,291,0
314,344,318,296,0
314,345,320,302,0
315,340,322,308,0
315,330,324,315,0
315,321,326,324,0
314,316,328,331,0
313,316,329,337,0
314,316,331,341,0
318,317,333,343,0
321,316,335,342,0
322,317,335,339,0
322,319,335,334,0
320,324,335,329,0
318,332,335,325,0
315,339,335,319,0
313,345,334,313,0
314,347,334,306,0
315,341,333,300,0
315,327,332,296,0
316,310,331,294,0
315,297,331,294,0
315,288,331,296,0
316,283,332,298,0
316,283,332,300,0
316,287,332,302,0
317,292,331,304,0
317,297,331,305,0
317,300,332,304,0
317,304,333,305,0
317,308,334,311,0
318,310,335,319,0
320,308,336,327,0
322,303,338,333,0
324,293,339,334,0
323,281,338,331,0
320,271,337,324,0
315,265,336,315,0
310,267,335,306,0
308,276,334,297,0
307,291,334,292,0
310,305,333,292,0
312,316,333,294,0
314,322,333,298,0
314,323,332,302,0
313,319,331,306,0
310,309,329,308,0
307,302,328,309,0
308,300,328,311,0
311,304,329,312,0
315,308,332,310,0
318,312,334,306,0
321,313,335,302,0
324,310,335,299,0
327,307,336,298,0
331,305,337,299,0
333,306,338,302,0
333,310,338,304,0
334,317,335,307,0
331,321,332,308,0
325,322,328,309,0
319,321,325,311,0
317,321,323,312,0
319,318,321,312,0
323,311,320,310,0
326,298,319,305,0
324,283,319,300,0
317,271,320,298,0
312,266,322,299,0
310,269,324,303,0
310,280,325,308,0
311,290,326,313,0
312,301,326,318,0
312,308,327,324,0
310,311,329,328,0
309,309,330,332,0
310,304,332,333,0
314,297,332,332,0
316,288,330,328,0
315,282,327,321,0
311,283,324,314,0
307,290,321,306,0
305,302,318,300,0
308,318,315,295,0
312,332,312,290,0
314,341,309,285,0
314,343,307,279,0
311,339,305,275,0
308,336,305,274,0
304,334,307,275,0
304,331,310,279,0
308,328,314,284,0
312,325,317,289,0
315,323,320,295,0
317,323,323,299,0
317,323,323,303,0
318,323,322,305,0
318,325,321,305,0
319,328,319,305,0
320,330,316,305,0
316,327,314,304,0
309,320,312,303,0
302,313,311,303,0
300,303,311,304,0
303,297,313,306,0
309,294,314,309,0
316,297,314,312,0
321,301,314,317,0
325,305,313,321,0
328,309,311,326,0
329,310,311,329,0
331,311,312,330,0
331,309,313,328,0
329,308,314,324,0
325,309,315,320,0
319,312,315,317,0
317,316,315,316,0
319,319,313,314,0
321,323,311,311,0
321,329,308,306,0
321,333,304,304,0
319,334,302,302,0
316,328,301,303,0
313,316,301,307,0
311,300,301,313,0
310,286,301,318,0
310,282,302,322,0
311,289,302,321,0
313,300,303,319,0
318,313,303,315,0
322,326,304,311,0
327,334,305,307,0
330,336,305,304,0
330,333,306,302,0
326,327,309,299,0
321,318,310,295,0
318,309,311,290,0
319,301,311,286,0
323,295,310,282,0
328,289,310,280,0
330,284,310,278,0
324,282,309,279,0
316,284,308,281,0
310,292,307,283,0
306,303,306,286,0
304,313,304,289,0
303,320,303,294,0
303,324,302,298,0
306,324,302,305,0
309,322,304,315,0
313,319,307,327,0
315,320,311,339,0
317,322,315,348,0
318,322,318,352,0
317,320,322,352,0
315,317,323,347,0
312,315,325,341,0
310,315,325,335,0
308,316,324,326,0
306,316,322,315,0
305,314,318,304,0
304,310,315,294,0
303,307,313,285,0
302,307,313,278,0
302,305,313,273,0
304,303,313,271,0
308,298,315,272,0
310,292,318,275,0
313,290,320,281,0
317,292,323,287,0
321,294,324,295,0
322,297,326,302,0
320,302,329,309,0
315,305,331,314,0
312,307,332,317,0
307,309,333,320,0
302,310,333,323,0
297,309,331,324,0
293,307,329,325,0
294,302,326,326,0
299,298,324,326,0
305,297,323,326,0
308,300,323,324,0
309,305,322,319,0
309,310,320,312,0
307,315,317,303,0
305,315,315,295,0
302,315,312,288,0
300,313,312,283,0
299,311,312,282,0
300,309,314,285,0
303,309,316,291,0
307,309,320,299,0
310,310,323,307,0
312,313,326,315,0
313,318,329,319,0
313,325,330,321,0
311,334,331,322,0
308,344,331,323,0
305,353,331,322,0
302,354,330,321,0
300,344,332,318,0
301,328,332,315,0
302,315,330,312,0
302,309,327,308,0
302,305,322,304,0
304,298,318,300,0
308,292,315,296,0
314,290,312,293,0
321,289,311,291,0
323,286,310,290,0
318,285,310,288,0
311,290,310,287,0
305,301,311,285,0
302,314,311,284,0
300,327,312,283,0
299,337,312,281,0
297,344,311,279,0
296,349,310,278,0
295,350,309,278,0
295,349,309,278,0
296,349,309,279,0
298,346,309,280,0
301,340,309,282,0
304,331,310,284,0
305,321,312,286,0
304,311,314,287,0
303,302,314,289,0
302,294,316,292,0
302,286,316,295,0
302,281,316,299,0
301,277,316,302,0
300,279,316,306,0
300,285,317,311,0
300,290,317,316,0
301,293,316,321,0
303,296,314,325,0
305,298,313,330,0
305,299,312,335,0
303,301,312,341,0
300,303,312,345,0
298,305,311,347,0
297,305,311,347,0
297,304,309,345,0
297,303,307,341,0
298,304,306,337,0
300,304,305,332,0
302,304,305,325,0
304,303,304,317,0
305,301,304,310,0
305,296,305,306,0
304,287,305,303,0
303,278,305,300,0
301,272,305,297,0
300,271,305,296,0
300,274,305,295,0
300,281,305,293,0
299,287,304,291,0
298,293,304,288,0
297,298,303,284,0
296,304,301,280,0
296,309,300,278,0
297,316,300,279,0
298,323,300,282,0
299,326,300,286,0
299,327,301,289,0
300,327,301,293,0
299,330,302,298,0
298,334,303,305,0
297,336,304,313,0
298,337,306,321,0
299,337,309,328,0
302,336,313,334,0
306,331,317,336,0
308,325,319,335,0
307,323,318,331,0
303,327,315,326,0
302,332,313,321,0
305,334,310,318,0
308,332,308,317,0
308,329,306,315,0
302,326,304,311,0
294,323,301,305,0
288,316,298,300,0
285,307,296,296,0
285,298,295,295,0
289,290,296,295,0
294,284,296,297,0
298,285,296,302,0
300,293,296,308,0
301,306,298,313,0
302,323,299,317,0
303,340,301,320,0
304,353,303,322,0
306,359,304,321,0
308,354,305,317,0
309,339,306,312,0
307,320,306,308,0
298,302,307,305,0
288,289,307,304,0
280,281,308,304,0
275,278,307,304,0
273,279,305,303,0
274,282,303,301,0
279,285,301,299,0
285,288,299,298,0
290,293,299,298,0
292,295,299,299,0
291,295,299,300,0
289,293,300,301,0
286,293,302,302,0
285,293,302,305,0
285,297,303,308,0
287,302,303,312,0
289,306,303,315,0
290,305,303,316,0
290,300,303,317,0
289,294,302,316,0
287,288,302,315,0
284,287,301,313,0
283,293,300,312,0
283,304,299,311,0
286,312,298,310,0
290,318,298,310,0
295,320,298,310,0
298,320,297,310,0
300,318,297,309,0
301,312,296,310,0
302,302,296,311,0
302,292,297,312,0
302,283,300,312,0
301,278,303,313,0
299,280,306,314,0
298,290,309,316,0
297,302,311,317,0
297,310,311,316,0
298,315,308,316,0
297,317,306,316,0
293,317,306,317,0
287,320,306,318,0
281,326,306,319,0
279,331,307,319,0
283,332,307,319,0
289,331,307,318,0
295,331,306,317,0
300,328,305,316,0
304,321,304,317,0
309,311,302,316,0
312,302,300,316,0
312,297,299,316,0
308,296,298,314,0
304,295,297,310,0
300,296,297,304,0
298,301,297,299,0
297,311,297,293,0
296,320,297,289,0
294,324,296,286,0
292,326,295,285,0
290,325,295,286,0
290,325,296,287,0
291,323,296,289,0
293,320,296,292,0
295,317,296,295,0
297,313,295,298,0
299,308,295,300,0
300,304,295,301,0
300,302,295,301,0
298,300,295,301,0
296,299,295,300,0
294,303,296,300,0
295,312,298,301,0
296,320,300,302,0
297,326,303,304,0
299,331,305,307,0
301,333,307,310,0
303,331,309,312,0
304,327,309,312,0
304,322,310,312,0
303,315,310,312,0
303,306,310,313,0
304,296,310,315,0
308,287,312,318,0
312,283,312,322,0
314,283,312,325,0
308,286,311,329,0
300,290,311,332,0
294,294,311,333,0
292,297,311,335,0
292,301,310,337,0
294,304,310,339,0
295,306,310,338,0
297,307,311,337,0
299,307,311,336,0
300,308,311,334,0
299,310,311,331,0
297,311,309,327,0
295,312,308,323,0
295,314,306,319,0
297,317,305,314,0
299,319,303,309,0
301,315,302,303,0
303,310,301,297,0
303,306,302,293,0
303,305,303,292,0
303,306,305,293,0
304,310,307,297,0
305,313,309,300,0
306,311,310,302,0
308,307,310,304,0
310,302,309,305,0
312,299,308,306,0
311,296,307,306,0
306,295,306,306,0
300,295,308,308,0
297,297,310,311,0
296,297,312,315,0
298,297,313,318,0
300,301,312,318,0
300,308,310,316,0
301,315,310,313,0
304,319,310,312,0
308,323,310,310,0
310,327,311,309,0
310,331,311,308,0
311,331,311,307,0
312,326,309,305,0
315,318,305,302,0
316,309,302,298,0
315,298,299,295,0
312,291,298,292,0
309,293,299,290,0
307,306,300,291,0
307,321,302,292,0
306,329,304,294,0
305,329,304,294,0
302,324,304,293,0
298,315,304,291,0
294,305,304,290,0
294,297,305,290,0
297,294,306,291,0
300,294,305,294,0
300,296,305,297,0
298,297,304,299,0
294,297,304,300,0
293,297,304,300,0
295,296,303,301,0
300,295,303,303,0
304,293,303,305,0
307,290,303,308,0
308,285,304,310,0
309,280,305,311,0
309,278,306,312,0
310,283,308,313,0
310,293,310,315,0
311,309,312,318,0
312,322,312,322,0
314,329,310,326,0
315,331,308,329,0
315,330,306,332,0
316,327,305,333,0
315,323,304,333,0
315,319,304,334,0
318,316,305,336,0
321,313,306,338,0
324,312,307,337,0
325,313,307,336,0
319,314,306,333,0
306,315,306,328,0
295,316,306,322,0
290,317,307,315,0
290,317,307,309,0
293,316,307,305,0
299,313,306,302,0
305,312,304,300,0
309,312,302,297,0
310,310,300,293,0
307,302,297,288,0
300,294,294,284,0
294,288,292,281,0
289,283,292,280,0
289,283,293,281,0
292,292,295,284,0
297,307,296,288,0
301,320,296,290,0
303,327,296,292,0
304,330,296,294,0
305,327,297,297,0
307,320,300,302,0
311,309,304,306,0
314,297,307,310,0
316,286,311,314,0
317,283,313,317,0
317,286,313,319,0
316,289,311,321,0
313,289,308,322,0
311,286,305,323,0
308,285,303,325,0
305,285,303,327,0
302,289,303,326,0
300,295,303,323,0
299,302,302,319,0
299,307,301,314,0
299,310,299,309,0
299,312,297,305,0
300,311,296,303,0
301,310,295,300,0
303,306,295,297,0
304,303,294,294,0
305,300,294,292,0
306,299,295,291,0
308,300,295,290,0
309,301,297,291,0
310,302,298,292,0
311,304,299,294,0
311,306,300,294,0
311,306,301,293,0
309,306,302,292,0
307,307,302,293,0
301,308,302,294,0
291,310,300,296,0
280,312,299,298,0
274,317,298,303,0
278,327,299,309,0
292,343,301,315,0
305,355,303,321,0
313,353,304,325,0
317,340,305,328,0
319,323,307,334,0
321,305,309,340,0
323,290,311,346,0
324,281,313,350,0
326,280,314,351,0
328,286,314,348,0
330,293,314,343,0
334,299,314,335,0
338,302,313,324,0
337,302,310,311,0
334,303,307,300,0
328,305,305,292,0
318,307,303,287,0
308,307,301,286,0
301,307,301,287,0
299,305,301,290,0
298,303,301,296,0
299,301,302,304,0
300,298,303,314,0
302,296,303,324,0
303,295,304,332,0
304,295,305,338,0
305,295,307,340,0
306,294,308,339,0
311,294,310,336,0
316,295,313,330,0
319,297,314,323,0
318,301,312,315,0
316,304,309,307,0
312,306,305,300,0
309,305,302,295,0
308,298,300,292,0
308,287,300,290,0
309,282,300,291,0
311,282,300,293,0
313,283,301,296,0
313,283,301,298,0
312,286,301,300,0
311,293,302,302,0
311,300,303,305,0
311,304,305,310,0
312,303,307,317,0
312,295,312,324,0
312,288,314,329,0
312,286,315,333,0
313,291,315,335,0
315,299,314,334,0
316,308,313,331,0
316,318,311,326,0
316,330,309,321,0
317,342,307,315,0
317,351,306,309,0
316,356,305,305,0
313,352,305,301,0
308,343,306,298,0
306,332,306,296,0
307,320,307,297,0
309,308,307,299,0
309,297,308,303,0
310,291,310,310,0
311,289,312,317,0
311,291,314,327,0
308,297,316,337,0
304,305,320,349,0
303,312,323,360,0
308,316,327,367,0
318,320,329,370,0
326,322,328,368,0
329,323,327,361,0
329,323,325,352,0
328,323,323,342,0
324,322,320,332,0
319,321,318,323,0
314,319,317,313,0
310,317,316,301,0
308,311,314,289,0
308,306,310,279,0
309,305,306,271,0
308,310,304,268,0
308,319,301,267,0
306,324,300,269,0
305,321,299,271,0
305,310,301,274,0
308,299,303,278,0
313,290,306,284,0
319,279,309,292,0
324,269,312,299,0
328,264,314,305,0
331,266,315,310,0
331,275,317,313,0
328,285,317,314,0
323,292,317,313,0
316,294,316,311,0
311,293,315,308,0
309,291,314,305,0
309,290,312,303,0
310,288,309,302,0
311,288,308,304,0
313,290,308,308,0
314,292,308,313,0
314,290,308,319,0
312,285,307,324,0
310,276,308,328,0
308,271,309,331,0
307,271,311,332,0
306,278,312,331,0
306,288,314,330,0
305,303,316,327,0
305,319,318,322,0
306,331,318,316,0
307,336,316,310,0
308,333,314,305,0
309,327,312,303,0
311,323,311,301,0
312,321,309,298,0
312,319,307,294,0
311,317,306,291,0
310,317,306,289,0
310,315,307,289,0
310,311,308,290,0
311,307,310,293,0
313,304,312,296,0
315,297,314,298,0
319,288,316,300,0
322,280,318,302,0
322,278,320,305,0
319,281,321,311,0
314,289,322,317,0
312,300,322,325,0
313,313,321,331,0
315,323,320,333,0
315,332,318,333,0
315,336,316,329,0
313,333,315,322,0
310,328,315,316,0
309,323,316,313,0
309,318,317,314,0
311,313,318,318,0
314,310,318,323,0
318,307,317,328,0
319,303,316,332,0
317,298,316,333,0
314,292,315,332,0
313,289,315,327,0
313,291,316,321,0
313,297,317,317,0
313,303,318,314,0
313,308,318,313,0
311,308,318,312,0
305,306,318,311,0
300,304,318,310,0
296,303,318,307,0
298,304,317,302,0
304,307,315,297,0
308,312,314,292,0
310,314,313,288,0
311,312,311,283,0
310,308,310,280,0
310,305,309,279,0
310,304,308,279,0
310,303,307,282,0
312,301,307,286,0
313,298,308,292,0
315,296,310,297,0
315,296,312,301,0
315,297,315,305,0
318,300,318,308,0
320,303,319,309,0
321,301,319,309,0
321,293,318,307,0
321,282,316,306,0
324,276,314,306,0
326,275,314,306,0
322,276,316,306,0
317,279,319,304,0
314,282,319,302,0
311,285,318,298,0
308,288,315,295,0
304,293,312,293,0
303,300,309,294,0
307,308,308,298,0
311,316,307,302,0
315,321,307,304,0
317,327,308,305,0
318,331,309,304,0
318,335,311,304,0
318,337,312,302,0
316,338,313,301,0
315,336,314,300,0
313,330,314,298,0
311,324,315,298,0
308,319,315,300,0
305,317,316,304,0
303,316,318,310,0
303,314,319,317,0
303,310,320,322,0
306,304,320,325,0
310,292,319,325,0
312,275,317,321,0
313,257,315,314,0
314,242,314,306,0
315,236,315,299,0
316,244,316,293,0
316,257,318,290,0
315,272,322,290,0
316,285,326,293,0
318,296,329,298,0
320,306,330,303,0
319,315,328,308,0
317,321,325,311,0
314,325,323,313,0
312,326,321,315,0
311,327,320,317,0
310,328,319,319,0
309,329,318,320,0
309,329,317,321,0
309,326,317,320,0
308,321,317,321,0
308,315,317,322,0
308,309,316,323,0
308,305,317,324,0
310,303,318,323,0
312,301,318,321,0
317,297,319,318,0
319,294,320,316,0
319,291,320,314,0
318,291,320,310,0
316,296,319,306,0
314,303,318,302,0
313,310,316,299,0
311,317,314,295,0
308,322,312,291,0
304,324,310,286,0
301,323,307,280,0
301,316,306,275,0
304,306,306,273,0
310,294,308,273,0
313,275,309,273,0
313,256,307,273,0
313,247,305,276,0
315,253,304,282,0
320,269,306,291,0
329,289,308,300,0
333,306,311,308,0
331,319,314,313,0
324,327,316,317,0
317,331,319,320,0
312,331,322,321,0
309,328,324,321,0
306,322,325,321,0
303,313,325,321,0
299,304,323,319,0
294,296,321,318,0
292,290,319,315,0
293,287,318,312,0
298,290,318,310,0
304,296,317,308,0
309,302,316,304,0
312,307,314,301,0
315,311,313,299,0
318,310,312,297,0
320,303,312,296,0
324,293,312,295,0
326,284,314,296,0
326,280,315,299,0
323,281,318,302,0
319,289,319,306,0
318,299,320,308,0
317,310,320,309,0
318,318,321,309,0
318,322,323,309,0
317,324,323,309,0
314,322,323,309,0
312,317,323,308,0
309,311,322,308,0
308,304,321,308,0
308,296,319,309,0
309,291,316,310,0
311,292,313,314,0
312,300,310,319,0
312,311,309,324,0
310,321,308,327,0
309,328,308,328,0
308,330,309,327,0
308,326,311,324,0
308,319,313,322,0
309,309,315,320,0
309,301,318,318,0
309,295,321,315,0
308,292,323,314,0
307,293,324,313,0
307,297,326,314,0
307,302,327,314,0
307,305,328,315,0
307,304,327,314,0
305,300,325,313,0
302,291,323,311,0
299,281,321,307,0
299,271,318,300,0
303,263,314,292,0
306,259,310,283,0
307,261,307,276,0
309,272,305,273,0
311,288,303,272,0
313,307,303,273,0
314,322,304,278,0
317,328,306,283,0
319,327,309,287,0
321,323,311,290,0
320,319,313,294,0
317,317,314,298,0
311,316,315,302,0
304,313,315,304,0
297,308,315,306,0
293,301,315,308,0
292,293,316,309,0
296,286,316,309,0
301,278,316,309,0
305,273,314,306,0
307,272,313,303,0
307,278,312,301,0
308,289,313,301,0
309,301,314,303,0
310,316,316,308,0
311,330,317,312,0
314,339,319,315,0
319,346,319,317,0
329,348,320,317,0
337,347,319,316,0
332,343,319,313,0
318,336,319,311,0
304,325,320,310,0
295,310,320,311,0
290,292,319,311,0
289,277,316,312,0
292,274,314,314,0
296,282,311,315,0
299,292,309,315,0
302,299,307,313,0
304,301,305,312,0
305,300,303,315,0
305,297,302,321,0
306,296,301,328,0
307,299,302,335,0
308,304,303,339,0
309,309,306,340,0
308,312,308,339,0
307,310,311,335,0
307,307,313,329,0
309,305,313,319,0
310,304,312,308,0
308,301,309,296,0
303,295,306,285,0
297,291,304,276,0
293,293,303,271,0
294,296,303,270,0
296,299,303,270,0
296,302,302,273,0
296,307,301,277,0
297,311,300,282,0
299,314,299,288,0
301,315,300,294,0
303,317,300,299,0
304,319,300,303,0
306,319,301,305,0
307,319,303,307,0
309,322,304,309,0
310,327,305,311,0
310,330,306,313,0
307,329,306,316,0
302,325,305,317,0
295,320,304,316,0
289,311,303,312,0
287,302,302,306,0
289,293,301,302,0
293,286,300,299,0
300,283,300,298,0
306,283,301,298,0
310,287,301,298,0
311,293,301,297,0
308,298,302,296,0
306,304,302,295,0
302,310,300,295,0
300,319,300,296,0
301,327,298,297,0
303,334,295,298,0
303,333,292,298,0
301,322,289,298,0
299,304,289,299,0
298,285,288,301,0
297,267,288,303,0
296,255,288,308,0
297,252,290,314,0
298,256,293,320,0
298,264,295,323,0
299,280,296,324,0
301,302,296,322,0
304,325,297,321,0
308,342,297,319,0
310,348,296,315,0
305,343,295,312,0
301,333,295,309,0
299,320,294,305,0
299,309,294,302,0
299,296,295,300,0
300,283,296,300,0
302,273,296,301,0
304,272,295,302,0
306,277,295,305,0
307,286,297,307,0
306,294,298,308,0
303,299,299,309,0
299,300,300,311,0
296,301,300,313,0
295,304,300,314,0
295,306,299,316,0
296,307,297,317,0
296,308,296,317,0
296,308,294,316,0
296,308,292,315,0
296,307,291,314,0
297,306,289,312,0
297,305,288,311,0
297,307,288,311,0
296,312,289,312,0
297,317,290,312,0
299,320,291,310,0
302,324,290,305,0
302,327,289,301,0
301,325,288,296,0
297,319,287,293,0
292,314,286,291,0
285,312,286,290,0
280,312,287,291,0
279,310,288,293,0
281,305,289,294,0
286,299,290,295,0
290,291,290,296,0
294,282,290,297,0
297,275,290,301,0
299,273,289,305,0
300,276,290,308,0
299,282,290,310,0
298,289,290,312,0
300,297,291,312,0
304,305,292,312,0
308,311,293,310,0
313,316,293,306,0
314,321,294,302,0
311,323,293,298,0
306,323,292,295,0
302,321,289,293,0
299,317,288,292,0
298,308,288,292,0
297,296,289,293,0
296,286,288,295,0
296,281,288,299,0
295,284,288,302,0
294,293,287,305,0
293,299,287,307,0
293,300,287,310,0
294,300,288,312,0
297,302,289,315,0
300,304,291,318,0
303,304,294,322,0
306,302,296,326,0
308,299,298,330,0
307,294,300,333,0
306,289,301,335,0
303,284,300,334,0
300,281,299,331,0
295,281,298,325,0
291,283,296,318,0
288,287,293,312,0
288,295,290,307,0
294,306,290,303,0
306,315,291,299,0
317,319,292,294,0
316,321,291,291,0
309,320,290,289,0
301,320,288,288,0
297,320,286,288,0
295,320,286,289,0
295,320,286,289,0
296,318,287,289,0
295,312,287,289,0
295,303,288,289,0
294,292,290,289,0
293,286,291,290,0
292,286,293,293,0
291,291,294,295,0
289,296,296,296,0
287,298,296,296,0
284,298,296,294,0
283,298,294,293,0
282,299,291,291,0
282,298,288,290,0
281,297,286,292,0
282,298,285,294,0
282,304,285,298,0
282,310,286,300,0
285,315,287,302,0
288,317,290,304,0
289,317,292,304,0
286,317,293,305,0
281,318,295,306,0
280,319,297,307,0
283,321,299,308,0
287,322,299,307,0
290,323,299,304,0
291,324,298,301,0
292,323,297,297,0
293,324,296,294,0
295,324,294,291,0
296,323,294,289,0
297,320,293,288,0
298,315,293,288,0
295,311,292,289,0
292,306,291,291,0
290,298,292,291,0
289,288,292,292,0
289,280,292,292,0
289,277,293,292,0
288,278,293,294,0
288,283,295,298,0
290,288,296,301,0
292,294,298,304,0
294,302,299,307,0
294,308,301,310,0
293,310,305,313,0
294,308,306,317,0
295,307,307,321,0
296,308,307,323,0
296,314,307,325,0
296,318,305,324,0
292,316,302,320,0
288,312,300,315,0
284,302,297,309,0
282,287,295,300,0
282,270,294,293,0
283,259,295,287,0
284,256,295,285,0
285,263,296,288,0
285,275,297,294,0
281,288,298,301,0
274,300,300,306,0
267,308,303,311,0
266,308,305,313,0
273,301,308,314,0
282,293,309,313,0
288,291,310,311,0
294,298,310,310,0
300,311,309,310,0
306,321,308,309,0
312,327,307,308,0
314,332,305,307,0
308,334,304,306,0
300,333,302,304,0
293,329,300,300,0
290,323,298,296,0
288,319,296,293,0
288,316,294,291,0
287,313,293,290,0
287,309,293,289,0
286,306,295,291,0
287,307,297,294,0
287,307,301,298,0
287,306,304,303,0
288,305,305,310,0
293,305,306,317,0
299,305,305,324,0
302,307,302,329,0
302,309,299,334,0
298,310,297,336,0
292,310,295,334,0
287,310,294,329,0
284,310,294,321,0
282,313,293,313,0
282,318,292,304,0
284,321,291,297,0
285,324,290,291,0
287,321,289,287,0
287,315,290,284,0
286,307,292,282,0
285,300,295,282,0
285,298,298,285,0
285,297,300,288,0
283,296,300,291,0
281,293,300,294,0
280,292,299,294,0
278,296,298,294,0
275,304,297,294,0
272,313,296,292,0
272,317,294,290,0
274,314,293,287,0
278,304,291,284,0
280,295,291,282,0
281,288,292,279,0
283,287,294,278,0
286,288,294,276,0
289,290,293,275,0
292,294,292,275,0
295,298,293,277,0
297,301,295,279,0
300,304,297,283,0
301,308,298,288,0
301,308,298,295,0
301,306,299,301,0
300,302,300,305,0
300,299,302,308,0
300,296,303,308,0
298,294,304,306,0
297,290,304,305,0
294,285,305,304,0
288,278,305,306,0
280,272,304,310,0
273,268,303,315,0
269,266,302,318,0
269,265,303,319,0
273,270,303,318,0
278,284,303,316,0
284,304,303,314,0
287,320,304,314,0
287,329,306,315,0
288,332,308,316,0
293,331,311,318,0
301,331,314,319,0
311,332,315,318,0
313,332,316,317,0
307,330,316,314,0
301,325,316,311,0
297,320,315,309,0
296,314,314,308,0
293,307,312,309,0
289,305,311,310,0
287,309,309,312,0
288,314,307,313,0
290,314,306,312,0
293,308,305,310,0
295,302,305,307,0
294,296,305,303,0
292,291,306,301,0
290,288,307,303,0
292,287,309,308,0
295,286,311,315,0
297,288,313,320,0
297,293,314,322,0
297,300,315,320,0
297,307,315,317,0
297,313,315,314,0
297,316,315,313,0
298,314,315,313,0
299,309,315,311,0
299,304,314,308,0
299,301,313,304,0
298,302,311,299,0
298,305,309,293,0
299,308,308,288,0
300,310,307,285,0
301,308,307,285,0
303,301,308,286,0
305,292,309,288,0
307,284,309,289,0
308,278,308,289,0
307,275,308,289,0
307,276,309,291,0
307,280,310,294,0
307,286,311,297,0
306,295,312,300,0
304,306,314,303,0
302,315,315,306,0
300,320,316,309,0
299,320,318,310,0
298,317,318,310,0
298,312,318,308,0
299,305,317,307,0
300,301,317,307,0
302,302,318,307,0
303,308,319,308,0
305,315,319,309,0
306,319,319,310,0
308,319,318,311,0
309,314,317,314,0
311,308,316,319,0
312,303,317,325,0
313,300,318,329,0
313,300,319,332,0
313,304,321,334,0
312,312,323,334,0
310,319,323,333,0
307,326,322,329,0
306,330,321,325,0
304,326,321,321,0
303,315,321,317,0
302,305,320,312,0
302,298,318,306,0
303,296,316,300,0
305,301,315,295,0
306,307,313,291,0
308,309,312,288,0
310,307,311,286,0
314,302,311,287,0
317,295,311,290,0
320,292,313,297,0
322,292,315,304,0
325,295,317,309,0
329,299,318,314,0
331,304,320,318,0
331,308,321,320,0
328,311,321,320,0
324,311,320,318,0
320,311,320,315,0
319,312,320,312,0
319,312,319,310,0
319,312,319,309,0
320,312,319,309,0
321,313,319,310,0
322,313,318,310,0
323,309,318,310,0
323,303,317,311,0
324,294,317,312,0
325,282,317,314,0
325,268,316,317,0
326,254,316,320,0
327,242,316,321,0
329,237,317,320,0
331,239,318,317,0
332,250,318,313,0
332,271,318,308,0
331,295,319,303,0
333,314,319,299,0
335,327,320,297,0
335,335,322,298,0
333,338,322,300,0
328,338,320,300,0
324,335,317,301,0
321,330,315,303,0
319,326,313,304,0
318,321,312,305,0
318,315,311,304,0
319,308,311,302,0
320,304,312,298,0
322,305,312,295,0
325,313,313,293,0
327,319,315,293,0
329,322,317,296,0
329,322,319,298,0
330,321,320,302,0
329,319,321,304,0
328,316,321,306,0
326,313,321,308,0
325,310,320,310,0
323,307,320,309,0
322,306,319,308,0
322,307,318,309,0
322,313,318,310,0
323,324,317,312,0
324,334,316,314,0
325,339,315,316,0
325,335,314,317,0
324,324,314,318,0
324,306,313,319,0
323,287,313,320,0
323,271,312,323,0
324,263,313,328,0
325,266,314,332,0
328,274,316,334,0
328,282,317,331,0
326,288,318,326,0
323,291,318,319,0
320,295,319,313,0
321,297,319,309,0
325,298,321,306,0
329,297,321,305,0
329,294,320,305,0
329,291,319,306,0
328,288,318,305,0
327,286,317,304,0
326,285,316,303,0
324,282,315,302,0
322,279,315,302,0
322,279,315,302,0
322,282,315,304,0
323,287,316,306,0
323,292,317,307,0
323,298,317,308,0
323,303,319,310,0
324,307,321,313,0
324,308,323,317,0
324,307,323,321,0
325,305,322,324,0
324,303,321,326,0
323,303,320,328,0
320,305,319,328,0
318,311,319,327,0
317,319,318,326,0
318,329,319,325,0
318,337,319,322,0
319,341,319,317,0
320,338,319,312,0
321,328,317,309,0
321,316,316,306,0
320,304,315,304,0
320,296,314,302,0
324,290,314,303,0
331,286,314,304,0
337,285,314,306,0
335,290,314,307,0
328,298,314,309,0
322,308,315,309,0
317,318,315,309,0
314,324,315,308,0
311,328,314,305,0
308,327,314,301,0
304,323,312,298,0
303,317,311,297,0
305,312,311,297,0
311,305,310,298,0
315,298,308,300,0
317,293,305,302,0
317,293,302,304,0
318,297,302,307,0
321,301,302,310,0
322,303,304,314,0
324,305,306,318,0
323,309,308,323,0
319,313,309,328,0
315,315,310,331,0
310,314,310,333,0
308,310,309,333,0
308,305,308,332,0
310,301,307,328,0
311,300,306,322,0
314,303,305,314,0
317,307,303,305,0
319,312,301,298,0
321,316,299,294,0
323,319,297,292,0
325,315,295,292,0
325,303,295,291,0
322,285,296,292,0
320,274,298,293,0
319,273,301,293,0
318,281,302,294,0
315,290,303,296,0
312,294,305,299,0
309,296,305,302,0
305,296,306,305,0
301,295,306,306,0
298,295,306,308,0
299,298,305,311,0
303,305,304,315,0
307,314,302,318,0
311,320,301,322,0
312,324,300,325,0
311,325,299,326,0
310,322,299,327,0
308,318,299,326,0
307,313,298,324,0
307,310,297,320,0
308,308,296,316,0
311,305,296,314,0
316,300,297,317,0
321,298,299,321,0
324,302,302,326,0
325,310,303,329,0
324,317,305,330,0
322,323,306,330,0
319,326,306,328,0
316,327,305,323,0
313,325,303,317,0
311,323,301,310,0
309,321,299,305,0
307,317,297,301,0
303,313,294,297,0
302,310,291,295,0
306,309,289,293,0
314,310,288,292,0
316,313,288,293,0
311,316,287,294,0
304,315,287,295,0
298,311,287,297,0
294,301,287,302,0
293,290,289,308,0
296,281,292,314,0
298,275,296,317,0
300,275,298,315,0
300,281,300,311,0
300,291,302,307,0
300,301,303,306,0
301,306,303,307,0
301,307,303,309,0
301,306,303,311,0
300,304,302,312,0
299,301,300,312,0
299,297,298,310,0
298,292,296,308,0
298,287,294,304,0
296,282,291,298,0
294,282,290,292,0
295,288,288,288,0
297,296,288,285,0
300,302,287,282,0
301,303,288,280,0
302,303,289,279,0
300,304,291,281,0
296,307,295,286,0
295,307,298,291,0
298,303,300,295,0
303,302,301,298,0
304,308,301,301,0
303,315,300,303,0
300,319,298,307,0
299,319,297,313,0
298,319,295,320,0
298,318,294,323,0
299,317,291,325,0
298,314,289,325,0
298,310,287,325,0
297,305,286,324,0
297,301,285,323,0
297,297,285,322,0
296,295,283,320,0
296,293,282,317,0
296,287,281,312,0
296,281,281,306,0
298,278,282,300,0
301,285,283,293,0
304,298,283,288,0
305,314,283,285,0
303,328,283,284,0
301,338,282,284,0
299,347,281,286,0
297,352,280,288,0
295,351,280,293,0
295,346,281,298,0
297,340,283,305,0
297,334,284,311,0
297,329,284,316,0
296,324,284,319,0
295,315,283,319,0
294,301,282,318,0
293,285,282,315,0
293,271,282,312,0
292,264,282,310,0
291,262,283,308,0
290,267,284,307,0
291,279,285,308,0
295,294,285,310,0
300,307,285,313,0
302,315,284,314,0
303,320,283,313,0
302,322,282,310,0
300,322,281,307,0
296,319,280,302,0
292,313,278,296,0
290,310,277,290,0
288,309,277,286,0
289,305,277,282,0
292,298,277,280,0
296,291,277,280,0
302,286,277,283,0
306,286,278,288,0
305,288,279,295,0
299,294,280,302,0
295,303,282,309,0
296,311,284,317,0
298,315,286,323,0
298,314,287,328,0
297,310,288,332,0
294,309,289,335,0
290,313,289,335,0
287,318,291,333,0
285,322,292,331,0
283,325,293,327,0
283,328,293,322,0
282,327,293,318,0
282,321,291,313,0
283,311,290,309,0
284,298,288,305,0
287,286,288,302,0
290,276,289,300,0
293,273,291,299,0
296,278,293,298,0
297,287,295,299,0
297,296,297,299,0
296,306,298,299,0
297,313,298,298,0
302,318,298,298,0
306,323,298,299,0
307,324,298,300,0
306,319,297,301,0
302,308,297,302,0
299,296,297,305,0
297,286,297,311,0
298,282,299,319,0
299,282,300,324,0
300,285,299,326,0
298,295,299,324,0
298,312,298,321,0
298,326,298,319,0
299,333,300,318,0
301,333,301,318,0
302,330,304,319,0
302,327,307,320,0
301,324,310,321,0
299,321,311,320,0
296,317,312,318,0
291,313,313,315,0
286,306,313,311,0
284,300,312,307,0
284,295,311,304,0
288,295,311,303,0
298,298,311,304,0
307,301,311,306,0
312,306,310,309,0
312,312,309,312,0
312,316,308,313,0
311,315,308,314,0
311,309,308,315,0
311,300,309,317,0
311,294,310,320,0
313,293,312,327,0
316,296,316,335,0
319,299,318,344,0
318,300,319,349,0
316,301,319,349,0
312,301,319,345,0
309,304,320,337,0
308,308,320,327,0
308,316,319,316,0
306,325,319,305,0
304,330,318,296,0
302,329,318,288,0
300,319,317,282,0
299,305,316,279,0
299,291,316,279,0
298,281,316,280,0
299,281,317,283,0
301,289,318,288,0
303,297,318,292,0
304,300,320,296,0
305,301,322,301,0
306,302,324,305,0
308,301,324,309,0
310,300,324,311,0
312,299,323,313,0
316,300,323,316,0
320,304,322,318,0
324,312,320,319,0
322,322,319,319,0
314,330,319,319,0
307,333,319,319,0
304,334,320,320,0
303,331,321,322,0
303,326,323,325,0
302,322,326,329,0
301,319,328,331,0
300,319,329,332,0
300,317,330,332,0
300,314,330,331,0
301,313,331,331,0
301,312,331,330,0
301,309,330,328,0
302,305,328,323,0
302,305,325,316,0
303,309,323,308,0
305,314,321,298,0
306,317,320,289,0
305,315,318,281,0
305,309,316,276,0
305,304,315,274,0
305,303,315,275,0
306,303,314,277,0
307,302,315,282,0
307,303,315,287,0
308,304,316,293,0
308,303,316,296,0
305,298,316,298,0
301,293,315,298,0
295,289,316,296,0
289,286,317,295,0
289,285,319,295,0
297,288,323,299,0
309,295,325,303,0
318,303,327,308,0
322,311,327,311,0
324,317,325,313,0
325,320,323,313,0
323,320,321,311,0
321,318,319,310,0
318,311,319,309,0
314,300,319,310,0
311,288,321,311,0
310,275,322,313,0
309,270,323,316,0
309,277,323,318,0
310,292,322,320,0
313,307,322,323,0
320,320,321,326,0
325,327,320,327,0
325,331,320,326,0
322,332,320,321,0
319,330,319,315,0
316,323,319,309,0
315,314,320,305,0
314,305,320,302,0
313,299,321,301,0
312,297,323,301,0
311,298,325,302,0
309,302,326,303,0
308,306,325,304,0
306,307,325,303,0
305,303,324,302,0
305,296,323,299,0
306,291,323,297,0
308,291,323,295,0
309,293,322,292,0
311,293,321,290,0
312,294,321,288,0
313,298,321,287,0
315,305,322,288,0
318,317,324,292,0
320,330,326,297,0
321,340,328,303,0
321,344,330,307,0
320,342,332,311,0
320,341,334,313,0
319,340,336,314,0
319,342,336,315,0
318,341,336,316,0
316,339,335,315,0
314,336,333,313,0
313,332,331,311,0
313,327,329,308,0
316,320,326,307,0
318,314,324,308,0
315,308,323,311,0
310,302,324,315,0
305,297,324,318,0
302,293,323,320,0
300,293,321,320,0
303,293,322,320,0
308,292,322,320,0
314,289,323,319,0
319,284,324,315,0
320,279,324,312,0
319,277,324,307,0
316,283,323,302,0
312,293,322,298,0
309,303,322,296,0
308,309,321,294,0
307,308,320,293,0
307,303,320,293,0
309,296,320,295,0
311,289,320,296,0
311,286,320,297,0
311,289,320,298,0
313,296,320,300,0
318,307,320,303,0
325,319,320,305,0
329,329,318,308,0
328,333,316,313,0
323,333,315,318,0
316,331,316,323,0
312,327,318,327,0
310,324,319,327,0
311,324,321,324,0
314,324,322,320,0
317,325,322,316,0
317,326,321,312,0
316,326,319,308,0
314,324,318,305,0
311,321,316,302,0
309,319,315,299,0
307,320,315,297,0
306,317,315,296,0
306,310,314,295,0
305,300,313,294,0
305,290,312,294,0
306,279,311,296,0
307,265,311,297,0
308,253,311,299,0
309,248,312,302,0
312,253,314,303,0
314,262,315,303,0
316,276,317,304,0
317,293,318,306,0
317,308,319,310,0
316,318,320,316,0
316,325,321,322,0
315,330,321,326,0
313,333,319,328,0
310,333,317,327,0
308,330,314,323,0
307,327,311,317,0
306,325,308,311,0
306,324,305,304,0
306,324,303,298,0
304,322,302,295,0
304,319,301,294,0
304,316,300,294,0
305,312,300,296,0
307,310,302,298,0
309,313,304,301,0
311,320,305,304,0
311,327,307,309,0
309,330,307,313,0
305,329,307,315,0
302,328,307,315,0
302,324,306,314,0
304,318,305,312,0
308,313,304,308,0
311,309,302,305,0
313,305,300,301,0
313,303,299,297,0
312,300,297,295,0
311,297,295,293,0
310,293,294,293,0
311,288,293,295,0
314,281,294,296,0
319,275,295,297,0
323,272,296,298,0
320,273,296,299,0
312,276,298,301,0
305,277,300,304,0
303,277,302,310,0
304,280,305,317,0
307,288,305,324,0
311,298,305,329,0
314,310,304,334,0
313,319,303,337,0
309,325,303,340,0
304,329,303,340,0
303,333,302,339,0
304,337,302,336,0
306,342,301,331,0
306,343,300,324,0
306,343,299,317,0
307,341,300,311,0
312,336,301,306,0
316,328,302,304,0
319,318,302,304,0
319,310,302,306,0
318,306,303,309,0
317,306,304,313,0
316,306,305,315,0
315,307,305,316,0
313,307,305,315,0
312,305,304,313,0
310,302,302,311,0
308,299,300,308,0
306,296,299,306,0
306,295,298,304,0
307,296,297,303,0
308,298,296,302,0
308,299,296,300,0
307,295,296,299,0
306,289,296,298,0
306,287,295,298,0
306,289,294,298,0
304,292,294,299,0
303,297,295,300,0
304,304,297,303,0
304,311,299,306,0
306,318,301,309,0
306,322,303,312,0
307,322,305,314,0
307,317,306,315,0
306,311,306,315,0
305,306,306,314,0
304,304,304,314,0
301,305,303,313,0
298,308,302,312,0
293,311,301,310,0
288,311,300,308,0
284,308,301,307,0
286,304,303,307,0
290,301,304,307,0
296,298,303,307,0
300,296,303,306,0
304,295,303,306,0
306,296,304,306,0
309,297,305,306,0
309,298,305,307,0
308,299,306,309,0
306,303,306,313,0
304,306,306,314,0
301,310,305,314,0
299,311,304,314,0
298,304,304,315,0
298,293,304,316,0
300,285,305,318,0
303,284,305,318,0
306,285,305,318,0
310,289,304,319,0
312,293,303,320,0
314,296,301,319,0
313,301,299,317,0
309,304,297,313,0
304,307,295,311,0
300,309,295,310,0
297,311,295,310,0
295,312,295,310,0
294,314,295,312,0
294,315,296,314,0
300,314,298,315,0
310,311,300,315,0
317,307,301,313,0
314,303,300,310,0
308,300,300,306,0
302,298,299,303,0
299,296,297,303,0
298,293,296,304,0
295,291,295,306,0
293,292,294,310,0
291,294,294,313,0
291,296,293,315,0
292,297,293,316,0
293,296,292,317,0
295,295,291,317,0
297,293,290,315,0
297,291,290,312,0
296,288,290,309,0
291,287,290,304,0
285,290,291,301,0
282,296,293,298,0
281,302,295,299,0
282,305,296,302,0
286,304,296,305,0
290,300,295,306,0
294,296,295,303,0
296,293,294,301,0
298,295,294,300,0
301,300,293,298,0
304,307,294,298,0
306,315,293,298,0
307,321,293,298,0
307,325,293,296,0
308,325,294,295,0
307,323,296,295,0
305,316,298,297,0
301,306,300,300,0
297,294,301,303,0
297,285,303,307,0
300,282,305,312,0
303,284,307,315,0
304,288,308,316,0
305,290,308,316,0
306,293,308,316,0
306,296,308,316,0
304,300,309,316,0
301,304,309,315,0
299,310,308,312,0
298,315,307,308,0
297,319,306,302,0
297,321,304,296,0
298,320,302,290,0
298,320,300,287,0
298,321,299,287,0
297,324,299,289,0
298,326,299,293,0
299,326,299,297,0
302,321,300,300,0
305,315,301,301,0
307,309,301,301,0
308,309,303,301,0
309,311,304,300,0
309,308,305,299,0
310,300,305,299,0
311,292,306,300,0
312,288,307,302,0
312,288,307,304,0
311,288,307,304,0
309,288,307,306,0
307,289,308,309,0
308,291,309,313,0
313,292,307,315,0
319,288,304,317,0
323,285,302,316,0
325,284,302,316,0
327,287,302,316,0
324,291,303,318,0
317,297,305,321,0
310,305,308,326,0
305,312,310,331,0
303,316,312,338,0
303,316,314,344,0
304,316,315,348,0
303,315,315,349,0
301,314,314,348,0
297,312,313,345,0
293,310,311,341,0
291,308,310,334,0
292,305,309,325,0
296,302,307,314,0
301,298,304,301,0
304,294,300,287,0
307,288,296,277,0
307,282,292,269,0
306,278,290,267,0
306,278,290,267,0
309,279,292,271,0
313,283,293,274,0
315,286,295,279,0
316,290,297,283,0
316,294,300,289,0
317,300,302,294,0
318,307,304,298,0
317,313,306,300,0
316,316,307,300,0
312,316,308,300,0
309,315,308,300,0
306,314,310,302,0
306,314,311,304,0
308,313,310,307,0
309,313,310,313,0
311,311,309,321,0
313,307,308,329,0
315,306,306,336,0
314,308,305,339,0
311,314,304,339,0
308,323,304,336,0
306,330,305,331,0
306,331,306,323,0
305,328,306,314,0
304,324,307,307,0
303,314,307,303,0
303,302,308,301,0
304,290,309,302,0
305,284,309,306,0
307,286,309,311,0
307,295,308,315,0
305,308,307,318,0
302,318,305,320,0
300,324,305,322,0
301,323,305,325,0
305,317,305,326,0
308,305,304,326,0
308,288,304,324,0
307,275,303,323,0
308,271,303,321,0
310,273,302,319,0
312,275,302,317,0
314,274,303,316,0
315,273,304,314,0
316,273,305,312,0
315,272,304,310,0
312,271,304,307,0
309,271,304,307,0
308,274,305,307,0
311,280,306,309,0
314,286,306,311,0
318,291,306,313,0
321,297,306,314,0
323,304,305,313,0
323,310,304,311,0
317,316,303,306,0
309,320,302,301,0
303,322,302,298,0
300,322,303,296,0
299,319,304,296,0
301,317,304,296,0
304,315,304,296,0
308,316,304,294,0
312,318,305,291,0
312,321,306,288,0
310,324,307,285,0
308,323,309,283,0
307,318,311,284,0
309,310,313,287,0
311,302,314,291,0
312,296,315,295,0
312,293,314,299,0
312,295,311,304,0
314,301,308,308,0
314,309,306,311,0
311,317,305,313,0
308,322,304,315,0
305,323,303,316,0
305,321,303,317,0
305,318,304,318,0
307,316,305,320,0
309,316,307,322,0
310,319,310,324,0
309,321,312,325,0
309,321,313,325,0
309,319,313,324,0
309,317,313,322,0
310,317,312,322,0
312,319,312,321,0
313,318,311,321,0
312,313,309,320,0
312,308,308,320,0
314,302,307,320,0
318,298,307,320,0
321,296,307,319,0
322,297,307,318,0
319,300,306,318,0
313,306,307,317,0
311,310,307,315,0
310,306,306,311,0
310,297,305,306,0
310,285,305,301,0
309,274,305,297,0
308,269,306,295,0
305,268,307,294,0
300,274,308,294,0
297,284,310,296,0
299,297,313,300,0
303,308,315,303,0
306,316,315,305,0
308,321,315,304,0
309,325,314,302,0
309,328,312,300,0
309,330,311,297,0
307,330,310,297,0
303,328,308,296,0
299,324,307,296,0
295,315,306,297,0
298,304,307,298,0
306,293,310,301,0
314,286,310,303,0
319,282,311,306,0
322,286,310,309,0
322,301,310,312,0
321,322,312,315,0
319,337,313,316,0
315,342,314,315,0
313,340,313,313,0
312,338,313,310,0
314,337,312,310,0
319,334,312,310,0
322,331,309,310,0
324,328,307,311,0
317,324,306,313,0
310,318,306,316,0
305,308,307,319,0
