313,288,319,340,2
314,303,309,346,2
314,316,302,354,2
313,321,295,361,2
310,321,290,365,2
308,318,287,363,2
306,315,285,356,2
306,312,286,346,2
306,313,288,335,2
307,314,288,324,2
308,317,286,315,2
308,324,281,308,2
308,333,276,305,2
308,343,274,305,2
308,354,274,306,2
308,362,277,308,2
309,367,282,311,2
309,371,285,315,2
311,370,286,319,2
311,360,285,321,2
312,342,286,324,2
313,321,288,329,2
315,304,292,332,2
316,291,295,334,2
317,282,297,334,2
317,275,298,334,2
315,272,298,337,2
313,272,298,339,2
310,275,295,340,2
308,281,291,337,2
307,288,286,331,2
307,295,282,323,2
309,299,278,316,2
311,302,277,310,2
313,304,278,306,2
315,303,282,304,2
316,303,287,304,2
318,305,294,304,2
319,309,300,306,2
320,313,305,310,2
319,317,308,315,2
319,318,310,322,2
319,316,310,329,2
320,309,310,334,2
322,299,310,337,2
325,284,312,336,2
327,270,314,334,2
328,267,314,333,2
328,285,311,334,2
326,312,306,337,2
323,338,301,339,2
318,359,294,340,2
314,371,289,338,2
311,370,286,336,2
310,356,285,334,2
310,336,285,333,2
311,316,285,331,2
311,300,285,330,2
311,288,285,330,2
312,283,285,332,2
313,282,286,335,2
314,284,289,337,2
314,290,295,339,2
314,298,301,339,2
313,308,303,339,2
313,316,302,339,2
311,320,298,337,2
308,320,292,333,2
307,318,287,329,2
307,315,284,323,2
309,312,284,318,2
311,308,286,312,2
313,304,290,307,2
313,298,294,303,2
314,289,301,302,2
315,280,309,304,2
316,277,314,305,2
317,281,313,305,2
315,287,307,305,2
314,293,300,307,2
314,300,294,310,2
313,308,292,312,2
313,314,292,314,2
313,319,293,315,2
312,323,294,316,2
311,325,294,315,2
309,324,295,313,2
307,322,298,310,2
306,316,300,306,2
305,308,301,301,2
304,301,302,296,2
303,298,300,292,2
301,297,298,287,2
298,295,295,284,2
296,296,296,285,2
294,298,298,290,2
293,300,301,298,2
294,301,304,309,2
297,302,308,321,2
301,302,312,334,2
304,304,314,343,2
306,308,315,348,2
306,315,315,348,2
306,323,316,344,2
305,329,314,337,2
303,334,313,328,2
302,336,311,319,2
299,334,310,311,2
298,331,309,306,2
297,329,309,305,2
297,331,308,305,2
297,335,305,306,2
299,341,302,309,2
302,346,298,310,2
305,347,294,311,2
308,339,291,312,2
310,326,291,315,2
312,313,291,319,2
313,304,293,324,2
311,297,294,328,2
307,293,295,330,2
303,291,295,328,2
299,289,295,324,2
298,290,295,318,2
299,292,296,314,2
300,292,300,312,2
301,297,307,311,2
302,310,317,312,2
303,324,326,310,2
304,330,335,306,2
304,326,339,300,2
303,308,338,290,2
302,282,334,278,2
302,254,330,268,2
303,235,326,263,2
305,233,327,264,2
307,245,332,270,2
309,261,338,280,2
311,276,345,289,2
312,289,352,300,2
313,300,357,309,2
311,309,360,317,2
306,318,361,323,2
301,325,363,327,2
296,331,363,329,2
293,338,362,330,2
292,342,359,333,2
292,343,352,334,2
292,340,339,334,2
293,338,326,330,2
292,336,316,324,2
290,336,312,315,2
288,333,312,306,2
287,330,314,298,2
287,326,318,291,2
288,320,321,285,2
289,312,322,282,2
291,300,319,281,2
294,287,315,281,2
298,277,312,283,2
300,275,309,286,2
301,281,309,289,2
301,293,309,291,2
299,306,310,292,2
298,315,311,293,2
297,317,312,293,2
297,313,314,294,2
297,303,316,296,2
297,294,316,300,2
297,288,315,305,2
297,287,314,311,2
297,292,312,316,2
294,299,309,322,2
293,302,304,328,2
294,302,301,334,2
295,301,302,340,2
296,299,307,346,2
297,299,312,350,2
297,302,316,353,2
297,308,317,352,2
296,314,319,348,2
295,318,324,340,2
293,322,330,330,2
292,323,335,320,2
293,321,335,310,2
293,318,332,300,2
293,315,324,292,2
291,314,314,288,2
291,313,304,289,2
291,310,297,292,2
293,309,293,295,2
294,310,291,296,2
296,316,291,297,2
297,326,291,296,2
298,340,292,295,2
298,355,297,293,2
299,367,304,293,2
300,368,312,294,2
300,356,319,296,2
301,335,324,301,2
302,317,326,307,2
303,310,325,313,2
303,316,318,317,2
301,328,309,318,2
300,337,302,319,2
300,339,300,322,2
300,330,303,324,2
300,313,310,324,2
301,290,313,323,2
302,270,310,322,2
303,260,302,320,2
304,263,292,318,2
305,269,284,315,2
304,275,279,311,2
302,276,277,307,2
299,273,277,303,2
298,272,280,303,2
298,277,283,303,2
299,286,284,304,2
301,300,286,306,2
303,316,287,307,2
304,331,289,305,2
303,344,292,302,2
300,351,294,300,2
297,354,296,298,2
293,351,296,297,2
291,341,295,297,2
290,328,294,296,2
290,318,293,295,2
292,314,294,295,2
296,312,298,295,2
299,311,306,295,2
301,310,313,296,2
302,307,317,297,2
302,304,318,299,2
301,298,318,303,2
301,292,320,308,2
301,289,325,313,2
301,291,329,319,2
301,300,332,326,2
301,317,335,333,2
302,331,338,338,2
302,341,342,342,2
301,343,344,345,2
300,340,343,347,2
299,334,338,347,2
296,328,332,346,2
293,324,326,343,2
291,323,318,337,2
291,320,313,330,2
292,312,309,323,2
294,302,309,315,2
295,292,312,309,2
296,281,316,303,2
297,274,318,300,2
298,275,318,299,2
300,283,317,299,2
302,296,317,300,2
305,309,316,302,2
307,318,316,303,2
309,322,316,304,2
308,321,315,304,2
304,316,314,304,2
298,313,315,303,2
294,312,316,302,2
293,314,317,302,2
294,313,317,304,2
296,311,319,308,2
300,310,321,314,2
303,310,325,321,2
303,311,329,326,2
301,313,334,327,2
299,316,337,326,2
299,322,338,322,2
300,332,334,318,2
301,343,323,313,2
301,348,312,307,2
300,347,304,302,2
300,342,301,300,2
298,333,300,302,2
296,323,299,306,2
293,311,300,309,2
292,300,303,312,2
291,290,313,313,2
293,279,325,313,2
297,271,334,313,2
300,267,338,313,2
301,270,334,312,2
301,281,327,310,2
299,300,318,305,2
296,320,310,300,2
295,338,308,297,2
295,352,310,296,2
297,363,313,295,2
299,371,310,295,2
301,374,302,293,2
302,375,293,294,2
304,370,289,298,2
307,359,292,304,2
310,343,301,310,2
311,327,311,313,2
310,308,318,314,2
309,290,320,313,2
307,278,319,313,2
306,273,315,313,2
304,274,309,315,2
303,278,304,316,2
301,281,301,317,2
300,282,299,317,2
299,283,299,317,2
301,287,300,317,2
302,294,301,316,2
301,303,304,312,2
299,308,307,308,2
299,307,308,304,2
301,303,307,302,2
303,299,306,302,2
306,299,306,303,2
308,303,308,303,2
309,311,311,303,2
310,321,314,304,2
309,331,316,305,2
308,336,317,306,2
304,337,316,307,2
301,333,314,307,2
299,327,311,307,2
297,322,308,308,2
297,319,306,310,2
297,318,305,311,2
298,316,306,313,2
298,317,309,314,2
298,321,311,315,2
299,323,312,316,2
301,322,313,313,2
303,316,314,311,2
305,305,314,311,2
307,295,316,316,2
308,292,318,322,2
310,297,319,330,2
313,309,318,337,2
316,326,316,344,2
319,346,312,350,2
318,362,305,353,2
313,370,297,354,2
306,368,290,350,2
301,358,288,344,2
298,338,288,336,2
296,317,291,328,2
295,302,296,320,2
293,292,301,312,2
292,285,306,305,2
291,278,311,301,2
292,271,316,299,2
294,264,323,299,2
297,258,329,301,2
301,254,331,302,2
303,252,326,304,2
305,252,319,306,2
307,259,311,310,2
309,272,304,317,2
310,286,303,327,2
309,297,307,335,2
305,306,314,340,2
302,312,320,340,2
299,317,322,338,2
297,321,320,335,2
295,324,315,331,2
296,327,310,325,2
298,331,305,318,2
302,334,302,312,2
305,337,301,308,2
308,337,301,309,2
310,336,302,313,2
310,339,302,318,2
309,338,301,321,2
309,330,302,322,2
309,317,304,321,2
309,305,305,317,2
310,297,306,312,2
311,296,306,304,2
310,301,306,299,2
308,310,306,296,2
307,320,304,295,2
306,329,302,295,2
304,337,300,296,2
303,344,300,296,2
301,349,301,297,2
300,357,303,298,2
300,363,305,300,2
302,362,305,301,2
304,351,302,303,2
304,334,299,305,2
304,314,297,306,2
304,295,298,306,2
305,279,300,305,2
307,271,302,305,2
310,270,304,306,2
314,273,303,307,2
316,275,301,309,2
316,275,298,309,2
315,274,295,310,2
313,275,293,311,2
311,278,292,311,2
308,282,292,310,2
307,287,294,309,2
306,291,299,305,2
305,294,308,302,2
303,296,319,299,2
303,296,329,296,2
303,297,333,294,2
303,299,330,294,2
303,304,323,294,2
304,312,313,295,2
304,318,303,294,2
305,321,299,292,2
306,319,299,290,2
307,315,301,290,2
309,308,305,293,2
312,296,309,297,2
313,280,308,301,2
313,269,305,305,2
312,266,301,308,2
310,271,299,311,2
309,283,300,314,2
309,299,302,319,2
308,317,300,324,2
309,334,295,331,2
311,347,290,337,2
314,356,287,342,2
316,360,288,345,2
316,369,292,346,2
317,380,296,343,2
316,388,299,339,2
313,387,300,335,2
310,376,299,332,2
307,358,296,329,2
305,339,292,323,2
305,320,289,315,2
305,305,287,307,2
306,295,287,300,2
308,287,288,295,2
309,277,290,291,2
308,268,291,289,2
305,266,293,287,2
302,272,294,285,2
300,282,294,284,2
298,292,295,282,2
299,302,297,282,2
300,310,301,283,2
302,314,305,284,2
304,315,308,284,2
305,316,309,283,2
306,317,307,283,2
306,317,300,282,2
307,318,293,282,2
307,320,288,284,2
307,323,286,288,2
306,325,287,294,2
307,327,290,300,2
308,329,295,305,2
310,329,300,309,2
312,326,308,312,2
312,321,317,311,2
311,315,325,310,2
309,311,326,308,2
309,310,322,308,2
312,309,316,309,2
315,305,311,313,2
318,301,306,318,2
319,301,301,323,2
317,303,301,324,2
313,306,302,324,2
309,305,304,321,2
307,297,305,315,2
308,285,306,307,2
311,279,304,299,2
311,279,300,291,2
310,282,294,285,2
309,288,288,281,2
308,294,285,280,2
308,302,284,281,2
309,308,284,283,2
309,313,285,287,2
309,314,286,290,2
309,314,289,293,2
309,313,294,294,2
308,311,298,294,2
308,307,303,294,2
309,305,306,296,2
309,306,307,298,2
308,309,304,300,2
307,312,301,304,2
306,312,298,309,2
306,310,296,313,2
307,306,293,317,2
308,299,292,320,2
310,296,292,323,2
312,297,292,326,2
314,300,293,328,2
315,303,294,328,2
316,307,295,327,2
317,312,297,324,2
316,315,297,318,2
315,313,297,311,2
315,309,297,304,2
315,305,296,297,2
314,304,293,292,2
311,307,291,287,2
309,311,290,283,2
308,316,291,281,2
306,322,292,282,2
306,331,293,284,2
305,338,294,287,2
304,343,295,289,2
302,343,298,290,2
301,336,305,291,2
302,326,317,293,2
305,313,329,294,2
308,301,337,297,2
311,291,339,300,2
316,287,337,303,2
321,289,333,307,2
321,297,325,310,2
315,304,312,313,2
307,311,299,316,2
300,317,289,319,2
296,322,283,322,2
295,326,280,326,2
297,330,279,331,2
300,334,280,335,2
302,334,282,335,2
303,331,283,332,2
303,324,283,325,2
302,316,281,317,2
302,307,279,310,2
303,297,281,304,2
306,284,286,301,2
311,272,291,299,2
315,269,297,299,2
318,276,300,301,2
319,287,300,303,2
317,298,299,304,2
311,306,297,304,2
305,314,296,302,2
301,322,295,300,2
298,331,293,298,2
297,338,292,295,2
297,344,290,292,2
298,347,289,289,2
299,347,289,286,2
300,340,289,283,2
302,329,288,281,2
303,318,288,280,2
304,310,289,281,2
304,307,289,282,2
305,309,290,285,2
306,312,292,287,2
307,314,296,288,2
308,315,300,290,2
309,314,305,291,2
309,311,310,292,2
308,306,313,294,2
307,299,312,297,2
306,293,310,299,2
305,291,308,301,2
303,296,304,302,2
299,307,300,302,2
295,318,296,301,2
293,325,291,297,2
293,327,288,294,2
295,322,287,291,2
297,312,288,289,2
299,299,289,286,2
300,286,291,281,2
303,274,294,276,2
306,271,295,272,2
309,277,296,270,2
311,288,297,269,2
312,298,300,271,2
312,304,304,275,2
312,308,310,281,2
311,311,315,286,2
309,314,319,290,2
307,316,321,294,2
305,319,324,296,2
303,323,323,297,2
301,329,317,297,2
300,338,308,297,2
299,348,301,297,2
299,359,296,298,2
299,367,293,298,2
300,372,291,298,2
301,370,290,298,2
303,362,290,299,2
304,344,291,300,2
305,321,293,301,2
307,297,294,302,2
308,280,294,303,2
308,269,295,305,2
307,265,299,306,2
306,271,308,308,2
306,282,318,309,2
306,295,327,308,2
305,306,330,306,2
303,312,329,303,2
301,314,322,300,2
300,311,313,298,2
300,309,306,295,2
300,308,303,294,2
301,310,304,294,2
302,313,306,295,2
304,318,309,297,2
305,321,308,295,2
307,320,304,292,2
308,314,298,287,2
307,304,292,282,2
307,298,288,280,2
308,296,288,280,2
309,296,290,283,2
311,297,294,287,2
311,298,298,290,2
312,297,301,293,2
313,297,304,296,2
313,300,306,299,2
314,305,308,305,2
313,308,310,312,2
307,314,314,321,2
303,325,318,330,2
300,341,321,337,2
298,361,324,339,2
299,380,323,339,2
300,394,318,335,2
302,399,309,329,2
305,389,303,323,2
307,366,299,319,2
309,341,298,315,2
310,322,296,311,2
307,310,295,305,2
303,303,293,296,2
301,298,293,288,2
300,295,294,282,2
300,298,295,279,2
300,303,295,277,2
300,307,295,278,2
299,305,296,280,2
297,296,297,285,2
298,286,298,289,2
299,281,299,293,2
300,279,300,295,2
300,279,300,295,2
299,280,299,294,2
300,281,299,293,2
302,286,298,290,2
304,294,298,289,2
307,302,297,288,2
310,308,297,288,2
311,311,298,287,2
313,311,302,287,2
314,312,309,289,2
315,317,319,290,2
314,323,330,292,2
312,327,339,293,2
309,326,344,293,2
306,318,342,292,2
304,311,332,293,2
303,308,317,293,2
303,308,303,294,2
302,308,291,295,2
301,306,283,294,2
300,302,280,293,2
298,299,281,291,2
298,299,287,290,2
299,302,292,289,2
300,306,295,290,2
302,310,296,291,2
305,313,295,293,2
308,315,296,295,2
311,317,299,295,2
312,318,303,294,2
313,320,307,294,2
312,323,310,294,2
311,326,312,295,2
310,327,311,297,2
309,325,308,298,2
308,321,304,298,2
307,316,303,297,2
305,312,302,295,2
302,312,303,293,2
301,315,305,292,2
300,319,308,291,2
301,325,310,291,2
304,332,308,292,2
305,337,305,293,2
305,335,301,295,2
304,323,299,297,2
304,304,300,300,2
303,284,302,305,2
303,280,304,311,2
304,291,305,316,2
304,311,307,318,2
303,333,307,317,2
302,352,307,314,2
301,364,305,310,2
301,366,303,305,2
301,356,301,300,2
303,339,301,295,2
305,318,301,292,2
306,298,302,288,2
307,284,302,286,2
307,281,304,286,2
307,285,305,286,2
306,290,306,287,2
305,289,306,289,2
305,285,306,293,2
305,278,307,298,2
306,273,307,302,2
307,273,307,305,2
307,276,306,306,2
307,282,305,307,2
307,288,305,307,2
306,294,306,305,2
306,299,306,303,2
305,303,307,300,2
305,304,307,298,2
306,307,309,298,2
307,311,314,299,2
308,316,319,300,2
309,321,325,300,2
310,329,327,301,2
312,338,326,303,2
314,345,320,304,2
316,350,312,302,2
314,349,301,297,2
310,346,293,292,2
306,339,290,286,2
303,327,293,281,2
303,314,298,278,2
304,301,304,276,2
306,292,311,275,2
307,286,316,275,2
308,285,317,276,2
308,287,315,279,2
307,290,311,281,2
305,295,304,284,2
304,300,297,287,2
305,305,293,288,2
306,311,293,289,2
306,316,293,290,2
305,320,294,292,2
305,322,294,295,2
305,322,295,298,2
305,322,296,301,2
307,322,295,303,2
309,320,294,303,2
312,318,295,304,2
314,316,298,305,2
317,314,301,308,2
317,312,303,310,2
317,309,303,312,2
316,310,304,313,2
315,317,304,313,2
314,329,305,311,2
313,343,305,307,2
312,355,302,302,2
311,358,299,295,2
310,352,295,288,2
310,337,291,282,2
309,316,290,278,2
307,295,291,276,2
306,276,294,277,2
306,265,295,279,2
307,267,295,279,2
308,274,294,278,2
309,281,293,276,2
311,286,293,274,2
313,286,293,274,2
314,284,294,276,2
314,284,296,281,2
312,290,300,288,2
310,303,304,293,2
308,317,308,298,2
307,331,309,303,2
306,341,310,307,2
304,346,310,312,2
303,349,309,316,2
303,351,306,320,2
303,353,303,322,2
303,354,300,322,2
304,349,301,320,2
304,342,306,319,2
306,332,313,318,2
308,319,321,316,2
309,305,325,313,2
310,294,325,309,2
310,289,321,304,2
310,290,312,297,2
311,295,302,292,2
312,303,296,288,2
313,311,294,286,2
315,316,293,283,2
316,313,292,280,2
316,306,291,276,2
316,299,290,273,2
315,293,290,272,2
314,292,290,274,2
313,297,290,278,2
311,309,292,283,2
309,323,293,289,2
308,332,295,294,2
307,336,296,298,2
306,334,298,302,2
305,328,302,303,2
305,320,309,303,2
306,311,314,303,2
307,303,318,303,2
309,294,319,301,2
310,286,316,299,2
312,280,309,295,2
314,275,302,294,2
315,271,298,293,2
316,269,298,295,2
316,271,300,299,2
315,276,303,303,2
313,281,305,306,2
310,287,306,306,2
308,295,306,304,2
306,305,305,301,2
305,319,305,297,2
304,330,306,294,2
303,336,307,293,2
303,336,310,292,2
304,329,313,293,2
304,319,316,293,2
306,312,318,295,2
310,311,320,298,2
315,314,320,302,2
319,318,318,306,2
322,319,313,307,2
323,316,307,307,2
322,313,303,307,2
317,313,301,308,2
312,316,300,309,2
308,322,300,308,2
306,329,300,306,2
305,335,300,304,2
306,338,300,301,2
307,335,300,301,2
308,329,301,302,2
308,322,301,303,2
307,317,302,303,2
305,311,303,302,2
304,305,303,300,2
303,300,302,298,2
304,300,302,296,2
306,304,301,293,2
307,309,299,289,2
309,312,297,283,2
310,313,295,277,2
311,310,296,273,2
313,303,299,272,2
314,300,302,273,2
313,302,304,274,2
312,310,304,274,2
310,317,302,273,2
306,321,299,271,2
302,321,295,270,2
299,317,293,271,2
297,308,294,274,2
296,299,299,277,2
296,292,305,280,2
297,289,314,283,2
299,287,322,284,2
301,286,328,285,2
302,286,329,288,2
304,285,327,291,2
306,284,322,296,2
308,282,316,300,2
309,281,310,301,2
310,284,304,301,2
311,294,298,300,2
311,307,295,296,2
311,322,293,291,2
311,338,292,286,2
310,354,292,282,2
310,360,293,281,2
309,354,295,283,2
307,341,296,286,2
304,324,298,290,2
301,309,299,295,2
301,298,300,299,2
302,293,301,302,2
303,289,303,302,2
306,287,307,301,2
308,287,311,300,2
310,288,317,300,2
310,291,322,300,2
308,297,326,300,2
307,306,325,302,2
306,319,318,304,2
307,334,310,307,2
307,348,302,309,2
306,357,298,310,2
305,360,297,311,2
304,356,297,313,2
302,346,298,317,2
302,333,298,320,2
301,320,299,320,2
301,308,298,316,2
301,297,298,309,2
301,287,296,301,2
300,279,296,291,2
300,273,295,283,2
299,271,294,277,2
300,273,294,273,2
301,276,295,272,2
303,281,297,273,2
305,285,303,276,2
307,289,309,280,2
309,292,316,285,2
310,295,321,290,2
309,299,326,295,2
309,304,331,300,2
307,310,337,304,2
307,315,340,307,2
307,319,339,308,2
307,321,333,307,2
308,323,324,305,2
308,325,315,301,2
308,329,306,298,2
307,336,297,296,2
307,343,290,296,2
307,348,286,295,2
307,351,284,294,2
308,352,284,294,2
309,350,285,295,2
311,341,288,298,2
314,328,291,300,2
314,314,294,302,2
314,301,297,303,2
315,292,299,301,2
317,285,300,298,2
315,282,301,292,2
313,281,301,286,2
308,282,303,280,2
304,282,304,277,2
300,284,306,277,2
297,290,307,279,2
296,296,307,283,2
295,301,306,286,2
296,306,303,288,2
297,313,299,289,2
299,322,295,290,2
301,333,293,291,2
302,342,293,293,2
304,344,294,297,2
305,336,296,302,2
307,319,299,308,2
309,305,302,316,2
311,300,306,323,2
311,302,308,327,2
309,306,308,327,2
306,310,307,323,2
304,310,305,316,2
304,309,303,308,2
304,307,302,298,2
304,307,304,288,2
303,311,305,279,2
303,320,304,271,2
303,336,301,267,2
302,354,297,264,2
302,370,294,263,2
302,377,292,263,2
303,372,292,262,2
303,355,293,263,2
304,332,296,267,2
306,309,300,272,2
308,289,305,280,2
311,274,310,287,2
314,266,315,294,2
315,264,320,299,2
316,267,323,301,2
315,273,323,302,2
313,276,317,299,2
310,276,308,296,2
308,270,302,292,2
306,261,299,291,2
306,259,297,294,2
306,268,297,299,2
307,284,296,303,2
307,300,296,306,2
308,316,295,306,2
309,331,293,305,2
309,342,292,302,2
309,348,293,299,2
309,350,295,297,2
309,345,298,294,2
310,333,301,293,2
311,317,304,292,2
311,303,308,293,2
312,295,313,294,2
314,293,318,296,2
314,292,324,297,2
313,293,329,297,2
311,301,330,297,2
308,312,328,296,2
306,323,322,295,2
304,330,315,294,2
303,331,308,292,2
302,327,302,290,2
301,319,297,288,2
301,315,293,289,2
301,316,291,291,2
301,317,291,294,2
302,317,292,297,2
303,317,293,302,2
303,317,295,306,2
304,318,297,310,2
305,316,300,313,2
306,314,303,316,2
308,311,306,320,2
309,308,307,321,2
310,305,307,321,2
309,303,306,319,2
307,301,305,318,2
305,300,305,316,2
302,299,305,314,2
300,300,305,312,2
300,300,307,310,2
300,299,310,307,2
301,296,315,303,2
301,293,321,300,2
303,293,326,296,2
305,293,328,294,2
308,295,326,292,2
310,296,322,292,2
312,295,315,293,2
313,293,307,294,2
314,293,300,295,2
314,295,297,297,2
314,298,296,299,2
314,304,297,300,2
312,311,299,299,2
310,316,301,297,2
309,322,302,294,2
310,328,303,292,2
311,334,302,290,2
313,341,300,288,2
315,347,298,286,2
312,353,296,285,2
307,356,296,284,2
303,355,298,284,2
300,348,301,285,2
298,336,305,286,2
299,321,311,288,2
302,309,316,291,2
306,299,319,296,2
308,293,316,300,2
310,289,308,304,2
312,286,301,308,2
312,284,295,311,2
311,279,293,313,2
310,270,294,314,2
308,264,295,318,2
308,269,295,322,2
307,284,295,323,2
307,302,296,321,2
307,316,297,316,2
307,325,297,309,2
307,330,296,300,2
306,329,296,291,2
306,324,296,283,2
306,319,298,277,2
306,315,301,274,2
306,309,304,272,2
307,302,305,273,2
308,294,305,274,2
311,285,303,278,2
312,279,301,283,2
313,276,301,289,2
314,275,302,294,2
315,275,303,299,2
315,279,305,304,2
315,284,308,307,2
315,290,311,308,2
314,295,312,308,2
312,300,312,308,2
311,304,311,309,2
309,309,310,310,2
309,313,308,309,2
309,315,304,309,2
310,317,302,308,2
311,317,301,307,2
313,316,301,306,2
314,316,301,303,2
315,316,301,299,2
315,319,301,296,2
313,322,300,295,2
312,326,299,295,2
312,329,296,296,2
312,331,295,297,2
312,333,296,298,2
311,338,297,298,2
311,348,299,295,2
310,355,301,292,2
309,359,303,288,2
308,356,305,286,2
306,343,308,283,2
305,321,310,283,2
306,297,313,283,2
307,277,314,283,2
307,262,314,282,2
306,254,310,280,2
305,251,307,276,2
306,254,302,273,2
306,261,298,271,2
308,271,295,270,2
310,281,294,270,2
311,288,296,272,2
313,291,300,275,2
316,291,302,278,2
317,290,303,282,2
316,289,303,285,2
314,289,303,288,2
313,290,304,292,2
311,294,309,295,2
309,299,317,298,2
309,302,326,301,2
309,304,332,305,2
311,301,330,307,2
311,295,323,309,2
311,284,313,310,2
308,278,304,310,2
305,280,299,310,2
304,289,296,306,2
304,297,294,301,2
305,303,294,297,2
307,305,294,293,2
309,306,295,289,2
309,308,296,289,2
309,312,297,292,2
309,321,298,295,2
308,332,298,296,2
306,343,298,296,2
304,352,297,296,2
304,357,296,298,2
305,360,296,301,2
306,362,297,304,2
308,362,298,306,2
309,358,300,306,2
307,350,301,305,2
303,339,302,302,2
299,327,303,299,2
297,313,305,296,2
298,297,308,295,2
300,281,310,297,2
304,269,312,302,2
308,263,314,307,2
310,261,315,313,2
311,264,314,317,2
310,269,311,319,2
309,275,308,318,2
308,281,307,314,2
306,288,305,307,2
305,293,303,301,2
304,295,300,294,2
304,295,298,288,2
305,295,298,285,2
307,295,299,284,2
307,298,300,285,2
308,304,302,289,2
309,312,303,292,2
310,321,303,293,2
310,328,302,293,2
310,332,301,291,2
311,334,301,289,2
311,330,302,288,2
311,321,305,288,2
311,311,307,290,2
312,302,308,292,2
312,295,311,293,2
314,289,314,292,2
314,283,317,290,2
314,283,319,288,2
314,288,319,287,2
313,295,316,286,2
311,301,313,286,2
310,308,309,286,2
308,316,305,284,2
307,324,301,282,2
306,331,299,280,2
306,339,302,281,2
306,345,308,282,2
306,343,317,284,2
307,333,325,286,2
308,317,329,290,2
310,299,330,295,2
312,283,327,301,2
315,276,323,307,2
317,276,321,312,2
319,280,322,316,2
319,285,324,319,2
319,289,323,320,2
318,293,317,319,2
315,299,309,317,2
312,306,303,314,2
309,313,301,310,2
307,318,299,305,2
305,321,295,301,2
305,320,292,297,2
304,317,290,295,2
303,311,289,294,2
303,303,289,292,2
303,294,288,289,2
304,286,288,287,2
306,281,289,287,2
310,278,291,288,2
314,279,295,291,2
316,284,299,299,2
317,290,304,308,2
316,298,308,318,2
314,304,311,326,2
311,309,312,331,2
310,313,311,332,2
309,318,309,330,2
309,325,306,323,2
312,333,305,315,2
315,342,304,305,2
317,347,304,294,2
314,347,304,284,2
310,343,303,276,2
305,335,303,270,2
302,326,302,267,2
302,318,300,267,2
303,311,299,269,2
306,305,298,272,2
310,298,297,274,2
313,290,297,277,2
317,281,297,279,2
320,273,300,283,2
321,270,302,288,2
318,270,305,292,2
313,274,306,294,2
308,280,307,292,2
303,291,307,290,2
300,304,307,288,2
299,317,306,288,2
299,324,306,288,2
301,327,305,290,2
303,328,304,291,2
304,327,302,293,2
306,325,301,294,2
307,321,302,295,2
308,315,303,295,2
309,306,304,295,2
311,297,305,296,2
312,288,306,297,2
312,282,307,297,2
313,280,309,297,2
314,282,316,297,2
316,288,325,299,2
316,296,333,301,2
315,304,339,302,2
312,313,336,303,2
308,322,329,304,2
304,330,320,306,2
302,335,309,306,2
301,335,297,304,2
300,328,287,302,2
300,317,283,299,2
301,307,282,295,2
302,301,284,291,2
303,297,286,286,2
304,289,289,283,2
305,281,291,284,2
306,278,294,287,2
307,278,298,289,2
308,280,304,290,2
310,283,309,290,2
311,287,313,289,2
312,295,316,289,2
312,306,317,290,2
311,321,315,290,2
309,336,312,290,2
307,350,307,290,2
305,361,300,290,2
303,363,293,291,2
302,355,288,292,2
302,337,287,292,2
302,315,288,293,2
302,297,290,296,2
303,287,293,301,2
304,281,294,306,2
304,279,296,312,2
305,279,297,317,2
306,280,298,323,2
308,282,299,326,2
309,285,300,327,2
310,287,302,326,2
311,289,303,324,2
312,292,304,320,2
313,295,304,316,2
313,301,305,312,2
313,309,304,309,2
312,316,303,310,2
309,323,303,312,2
306,328,304,316,2
304,332,306,320,2
302,331,310,321,2
302,329,312,319,2
302,327,313,316,2
301,324,313,311,2
300,318,311,304,2
299,309,308,297,2
300,301,305,292,2
301,297,302,287,2
304,297,302,285,2
307,298,301,284,2
311,299,302,284,2
315,300,301,285,2
317,298,301,286,2
316,296,301,288,2
311,294,300,287,2
307,293,300,284,2
305,292,298,280,2
304,295,296,277,2
304,301,294,274,2
304,311,294,273,2
305,323,294,271,2
305,335,295,270,2
305,342,299,270,2
306,342,302,273,2
307,336,303,277,2
306,328,302,281,2
305,316,302,287,2
304,304,304,291,2
303,293,306,297,2
303,287,308,301,2
304,286,310,304,2
306,287,310,305,2
307,287,310,305,2
308,290,309,305,2
308,292,308,307,2
307,294,307,309,2
305,296,306,312,2
304,298,305,315,2
303,300,304,319,2
303,302,305,323,2
304,305,306,325,2
305,307,307,325,2
306,310,308,323,2
307,309,309,318,2
308,309,309,309,2
308,308,308,300,2
309,307,308,292,2
310,306,310,288,2
310,304,312,288,2
310,301,314,290,2
309,299,314,295,2
309,299,313,301,2
309,301,313,306,2
308,306,309,310,2
306,310,305,311,2
304,311,302,308,2
303,308,301,305,2
303,306,300,303,2
303,307,301,303,2
303,314,304,306,2
304,323,311,308,2
304,327,318,310,2
303,324,323,310,2
302,316,325,308,2
300,309,324,304,2
299,302,318,299,2
299,298,310,293,2
299,296,303,289,2
301,298,301,287,2
304,306,301,285,2
306,317,305,283,2
309,328,308,281,2
310,336,309,281,2
310,341,307,282,2
309,339,304,282,2
305,330,301,283,2
302,316,299,285,2
299,303,299,288,2
297,291,299,292,2
295,281,299,295,2
294,276,301,298,2
296,277,303,300,2
298,283,305,301,2
300,290,307,301,2
301,297,308,298,2
300,302,308,294,2
300,305,308,289,2
299,307,308,285,2
298,307,306,282,2
298,309,302,282,2
299,311,299,283,2
301,312,298,286,2
304,313,299,290,2
307,312,300,295,2
309,311,303,300,2
309,309,304,302,2
308,308,306,301,2
307,308,306,298,2
307,309,307,295,2
308,309,307,293,2
310,307,306,291,2
310,306,306,290,2
308,305,307,290,2
306,304,310,292,2
303,302,312,296,2
302,301,314,301,2
302,301,314,307,2
303,304,313,315,2
305,310,311,322,2
308,317,309,328,2
309,322,307,331,2
311,325,306,332,2
311,325,307,329,2
311,322,308,324,2
310,317,310,317,2
308,313,311,308,2
305,310,311,300,2
301,309,310,291,2
297,307,309,283,2
294,302,307,277,2
293,297,306,273,2
294,290,304,270,2
296,284,304,269,2
298,282,306,270,2
301,284,309,273,2
302,288,312,277,2
303,292,313,281,2
303,294,313,283,2
304,294,312,286,2
305,294,312,288,2
307,293,313,290,2
309,294,314,293,2
310,296,317,296,2
312,299,323,300,2
313,301,330,304,2
314,303,338,311,2
314,306,344,320,2
311,308,344,326,2
307,310,339,329,2
302,312,332,328,2
298,315,322,324,2
296,320,311,319,2
295,325,303,313,2
296,329,299,307,2
298,333,297,302,2
300,335,297,298,2
302,337,299,298,2
304,335,302,300,2
307,330,306,303,2
309,323,309,305,2
310,317,313,308,2
311,310,317,310,2
310,302,321,311,2
310,291,325,312,2
309,282,327,312,2
307,278,323,310,2
304,278,317,306,2
301,281,313,301,2
299,286,311,296,2
298,293,308,292,2
297,299,304,287,2
297,302,300,284,2
297,302,298,283,2
297,301,299,284,2
297,299,299,287,2
298,295,299,289,2
298,292,298,293,2
299,294,295,296,2
301,299,291,299,2
303,304,289,301,2
305,306,289,302,2
307,309,291,302,2
309,311,293,302,2
308,312,295,302,2
308,314,296,300,2
307,318,297,298,2
307,321,298,295,2
306,320,299,293,2
305,315,301,292,2
304,310,303,294,2
303,307,306,297,2
302,305,306,301,2
301,303,304,305,2
302,305,303,307,2
303,307,301,307,2
304,309,300,305,2
305,310,298,303,2
307,310,298,300,2
309,311,298,297,2
312,309,298,294,2
315,305,299,290,2
315,304,301,289,2
313,309,302,289,2
310,319,304,290,2
306,330,307,292,2
304,338,309,292,2
303,338,311,292,2
301,328,311,292,2
300,313,309,292,2
299,300,306,293,2
299,292,304,295,2
300,290,302,297,2
301,290,299,301,2
301,293,297,306,2
302,293,296,311,2
302,290,295,313,2
305,284,295,313,2
308,276,297,312,2
311,268,298,311,2
312,263,301,310,2
312,263,303,309,2
312,270,307,309,2
312,282,314,309,2
311,295,322,309,2
310,305,330,308,2
308,312,333,306,2
306,319,330,304,2
304,327,322,304,2
303,333,312,303,2
301,334,301,303,2
299,331,293,304,2
299,325,290,305,2
299,315,292,304,2
300,304,296,302,2
301,297,300,300,2
303,296,301,297,2
305,298,298,293,2
306,302,293,289,2
307,305,290,284,2
309,306,288,280,2
309,306,287,280,2
308,304,288,281,2
308,301,291,286,2
308,300,294,292,2
308,299,298,299,2
308,302,303,305,2
307,306,306,311,2
306,313,308,317,2
305,318,308,323,2
305,320,307,328,2
305,320,306,330,2
305,316,305,331,2
305,310,303,330,2
305,305,302,328,2
305,302,302,323,2
305,303,303,315,2
306,305,306,306,2
308,308,309,295,2
311,311,312,286,2
313,313,312,279,2
314,313,307,276,2
313,311,302,275,2
312,310,297,276,2
311,309,294,278,2
310,306,290,279,2
309,302,289,279,2
309,302,289,279,2
309,306,289,279,2
305,310,289,280,2
301,311,289,282,2
298,311,290,286,2
298,309,291,290,2
299,307,294,293,2
300,305,295,294,2
300,304,297,294,2
301,306,298,292,2
302,307,299,290,2
304,307,298,288,2
308,305,295,288,2
311,302,292,289,2
312,298,290,292,2
309,296,291,295,2
306,296,293,297,2
304,299,296,299,2
303,306,300,299,2
302,316,302,299,2
301,325,303,299,2
299,333,303,298,2
297,336,301,297,2
295,331,298,296,2
295,319,296,295,2
295,307,296,293,2
297,298,296,293,2
298,292,297,293,2
300,288,298,293,2
302,283,299,292,2
303,279,300,292,2
305,278,301,293,2
306,284,301,295,2
307,293,303,298,2
308,303,305,302,2
308,311,307,307,2
309,316,309,313,2
311,318,311,321,2
312,316,314,327,2
312,310,317,330,2
312,303,322,330,2
311,299,328,329,2
309,299,333,327,2
307,304,334,324,2
306,310,331,321,2
306,314,326,320,2
306,316,320,319,2
307,314,315,318,2
306,310,309,316,2
305,306,303,312,2
305,304,299,308,2
305,302,297,302,2
306,303,296,296,2
306,304,296,289,2
307,308,297,284,2
308,311,299,281,2
309,313,302,279,2
311,315,303,278,2
312,314,305,278,2
312,313,307,281,2
312,315,310,286,2
311,319,313,293,2
312,325,315,298,2
312,331,315,302,2
311,336,315,305,2
309,338,315,306,2
307,335,313,306,2
305,327,310,306,2
305,316,306,303,2
305,302,303,299,2
306,289,301,294,2
308,277,300,291,2
309,271,299,292,2
311,266,299,295,2
312,265,300,299,2
312,268,301,302,2
313,276,302,304,2
313,286,305,305,2
312,295,307,304,2
311,302,310,304,2
309,305,312,305,2
308,305,312,306,2
306,304,311,306,2
304,304,308,306,2
302,306,306,306,2
302,309,305,306,2
303,310,305,307,2
304,309,307,307,2
306,305,310,306,2
307,300,314,304,2
309,296,320,302,2
310,292,327,302,2
311,292,335,302,2
312,293,341,304,2
313,294,340,304,2
313,296,333,305,2
313,298,323,307,2
311,301,314,308,2
309,306,304,308,2
308,311,297,307,2
308,316,294,306,2
308,320,294,306,2
309,324,295,306,2
311,328,296,306,2
313,330,298,306,2
316,329,299,308,2
319,330,301,314,2
319,333,301,320,2
314,333,301,325,2
306,329,300,326,2
301,323,299,324,2
298,320,300,321,2
297,320,301,318,2
299,320,304,316,2
301,320,307,314,2
302,318,309,313,2
303,316,313,312,2
304,313,316,311,2
304,307,320,309,2
305,300,322,305,2
306,292,324,301,2
307,284,325,298,2
306,278,325,294,2
305,276,322,293,2
303,276,317,293,2
301,277,312,293,2
299,280,309,294,2
298,283,307,295,2
298,287,307,296,2
299,290,308,295,2
300,293,310,293,2
301,296,311,288,2
302,298,311,282,2
303,299,310,277,2
304,299,308,274,2
304,298,307,272,2
304,299,308,274,2
303,302,310,278,2
303,308,310,282,2
302,314,310,287,2
301,320,309,291,2
298,322,309,294,2
296,319,308,295,2
295,313,310,296,2
295,307,312,299,2
295,301,314,302,2
295,299,316,306,2
295,298,316,308,2
295,300,317,311,2
296,302,316,313,2
297,303,316,313,2
299,302,316,313,2
301,302,318,313,2
303,304,321,313,2
304,308,324,315,2
306,311,326,320,2
307,313,327,326,2
307,315,327,334,2
307,317,325,341,2
306,320,323,348,2
305,325,320,353,2
304,330,319,356,2
303,336,318,355,2
302,341,317,351,2
301,343,317,343,2
300,340,316,334,2
299,331,315,328,2
299,318,314,323,2
299,306,313,319,2
300,298,312,316,2
301,293,311,312,2
302,290,310,308,2
303,288,311,305,2
305,285,312,303,2
307,284,313,303,2
309,284,314,305,2
310,285,315,307,2
310,288,313,308,2
310,295,311,308,2
309,304,309,309,2
308,315,308,312,2
307,324,307,316,2
306,328,308,320,2
306,327,310,323,2
306,322,312,324,2
305,316,313,321,2
304,312,313,316,2
304,307,314,310,2
304,304,313,303,2
305,300,312,296,2
307,296,309,291,2
308,294,307,287,2
309,295,306,285,2
310,298,306,282,2
310,300,307,280,2
310,298,308,279,2
309,294,309,280,2
309,290,311,283,2
309,290,312,287,2
308,290,312,291,2
308,290,311,293,2
308,289,310,294,2
309,291,308,294,2
310,293,305,293,2
312,298,303,292,2
312,305,302,291,2
308,313,301,290,2
303,319,302,289,2
300,321,306,288,2
298,319,312,290,2
298,312,317,294,2
298,301,318,298,2
299,291,317,304,2
300,285,315,309,2
302,284,314,315,2
304,286,313,320,2
305,291,311,325,2
306,298,310,329,2
306,306,310,332,2
306,314,310,334,2
306,320,310,336,2
306,324,311,339,2
305,328,312,341,2
306,330,313,345,2
306,330,313,349,2
307,327,311,352,2
307,320,310,352,2
308,312,309,348,2
308,306,309,342,2
309,303,308,334,2
310,302,307,326,2
312,305,307,318,2
314,308,307,313,2
315,310,306,310,2
316,308,305,308,2
316,305,304,305,2
317,301,303,300,2
316,298,302,296,2
315,294,302,291,2
313,292,302,288,2
312,293,303,285,2
310,298,305,283,2
309,304,305,283,2
307,311,305,285,2
306,315,304,289,2
305,317,301,294,2
305,315,298,299,2
305,313,297,302,2
307,313,297,304,2
310,313,297,304,2
312,312,297,302,2
314,310,296,298,2
317,306,295,294,2
318,303,294,292,2
318,299,293,292,2
317,292,293,292,2
316,285,293,292,2
315,279,294,290,2
315,276,295,289,2
314,279,297,290,2
313,287,299,291,2
311,295,300,293,2
310,301,301,296,2
310,305,301,298,2
310,308,300,298,2
309,310,297,296,2
308,313,295,295,2
308,315,292,293,2
307,316,290,292,2
307,317,289,290,2
308,317,289,290,2
308,317,289,290,2
309,319,289,291,2
311,322,290,292,2
312,326,293,293,2
313,326,297,295,2
315,324,301,298,2
316,320,305,302,2
316,316,307,306,2
315,311,306,310,2
313,305,306,313,2
311,298,305,315,2
310,293,306,318,2
310,290,307,319,2
310,290,309,319,2
312,291,309,319,2
314,294,308,318,2
315,296,306,317,2
316,298,304,316,2
317,299,301,318,2
317,299,299,321,2
318,301,297,325,2
320,300,297,330,2
322,297,297,335,2
325,295,298,340,2
328,298,298,343,2
328,304,299,343,2
325,310,301,341,2
321,315,303,336,2
316,319,304,328,2
314,322,305,320,2
313,324,304,311,2
313,324,304,303,2
315,323,303,297,2
319,322,303,294,2
322,318,305,291,2
322,313,306,290,2
318,308,305,288,2
314,304,300,285,2
310,301,294,284,2
308,298,290,284,2
309,295,288,285,2
311,294,287,286,2
314,297,288,286,2
318,304,290,288,2
320,313,292,290,2
321,322,292,293,2
322,331,293,297,2
322,336,294,302,2
322,337,295,308,2
321,335,297,313,2
320,332,299,316,2
319,326,299,316,2
318,318,299,314,2
318,310,298,310,2
318,303,297,304,2
318,298,296,299,2
318,295,294,297,2
317,295,292,298,2
317,298,291,300,2
318,302,290,301,2
319,305,289,300,2
320,305,290,297,2
321,303,293,293,2
322,299,296,290,2
323,293,298,288,2
323,288,299,287,2
323,289,300,288,2
323,297,300,289,2
322,304,298,290,2
322,311,298,290,2
320,314,299,290,2
319,312,301,290,2
319,303,302,290,2
318,291,302,289,2
318,285,302,288,2
318,284,302,288,2
317,288,301,291,2
317,294,302,294,2
317,300,302,299,2
316,303,302,303,2
315,302,301,306,2
316,300,301,309,2
318,299,303,312,2
320,299,305,315,2
322,300,309,317,2
323,303,311,319,2
323,307,312,323,2
323,312,312,325,2
321,318,312,326,2
319,325,310,325,2
316,332,307,323,2
314,338,302,319,2
313,341,297,314,2
313,340,293,309,2
314,334,291,303,2
316,324,293,298,2
319,313,298,293,2
322,302,303,289,2
324,294,308,287,2
322,288,310,288,2
319,283,309,292,2
317,279,306,299,2
317,275,303,304,2
317,273,301,307,2
318,273,300,309,2
318,278,301,309,2
318,284,302,308,2
317,293,302,304,2
315,305,301,298,2
314,318,298,295,2
312,330,296,293,2
311,338,294,293,2
308,343,293,295,2
306,341,293,298,2
305,331,295,303,2
305,318,299,308,2
306,307,302,315,2
308,299,305,320,2
309,291,306,323,2
310,284,307,325,2
312,280,308,326,2
312,279,309,323,2
312,279,310,319,2
312,278,309,315,2
313,276,307,312,2
313,278,306,309,2
313,283,305,306,2
312,287,303,301,2
310,288,301,297,2
308,290,298,292,2
306,290,297,289,2
304,291,296,287,2
304,291,295,286,2
304,291,295,284,2
305,289,294,283,2
306,289,293,281,2
307,292,292,278,2
308,297,292,276,2
309,302,294,276,2
310,306,297,278,2
310,309,300,281,2
309,311,301,283,2
309,313,299,285,2
311,312,297,288,2
311,311,295,292,2
312,309,296,297,2
311,308,299,301,2
311,309,303,304,2
311,311,306,306,2
310,314,307,306,2
309,315,308,309,2
308,316,307,310,2
308,319,304,311,2
306,325,300,312,2
303,333,297,312,2
301,338,295,310,2
299,339,294,307,2
298,335,292,302,2
299,324,292,298,2
303,307,291,295,2
306,288,290,294,2
306,272,289,293,2
304,264,290,294,2
302,261,291,296,2
300,264,292,298,2
299,270,293,301,2
298,280,295,304,2
296,290,296,306,2
294,299,297,306,2
292,307,298,304,2
289,311,301,302,2
289,311,305,299,2
288,309,309,297,2
288,305,312,295,2
289,302,313,296,2
291,300,314,297,2
293,298,315,299,2
296,298,314,302,2
297,301,312,305,2
296,304,309,309,2
293,304,305,312,2
291,303,302,314,2
290,301,298,316,2
291,300,298,318,2
291,297,299,320,2
290,293,303,323,2
290,293,308,327,2
289,295,314,327,2
288,299,318,324,2
286,301,318,319,2
285,301,316,313,2
285,301,314,308,2
284,302,313,304,2
285,303,314,300,2
285,303,316,298,2
286,305,315,295,2
287,308,313,293,2
288,313,311,291,2
288,317,311,289,2
288,321,312,288,2
288,323,315,289,2
289,323,317,292,2
290,321,319,296,2
292,320,320,300,2
293,322,320,304,2
293,328,319,311,2
293,338,318,319,2
292,346,316,325,2
291,352,315,327,2
289,354,314,327,2
287,352,314,326,2
286,342,316,326,2
285,327,321,327,2
285,310,326,329,2
286,297,328,330,2
286,288,328,331,2
286,283,325,330,2
287,280,321,329,2
289,279,319,327,2
292,279,319,325,2
294,280,320,320,2
297,281,320,314,2
299,285,319,305,2
300,290,317,297,2
301,295,315,289,2
301,300,316,284,2
301,304,320,281,2
301,306,323,280,2
299,308,325,281,2
298,310,324,283,2
297,312,321,286,2
296,315,319,288,2
294,318,316,289,2
293,320,314,290,2
293,320,313,291,2
293,316,312,291,2
294,309,313,291,2
295,299,315,290,2
295,292,317,290,2
296,295,320,292,2
297,302,323,295,2
298,306,326,297,2
298,305,328,298,2
299,300,329,299,2
300,297,329,299,2
305,295,327,300,2
312,294,323,302,2
319,294,320,304,2
323,295,316,305,2
319,293,311,306,2
311,290,307,307,2
302,289,304,308,2
296,290,303,308,2
293,293,305,308,2
291,295,309,307,2
291,297,312,304,2
292,300,312,302,2
294,302,312,300,2
297,302,314,299,2
299,301,319,300,2
301,300,325,304,2
303,301,332,308,2
304,303,333,312,2
304,307,330,315,2
303,314,324,317,2
302,321,319,317,2
301,328,315,315,2
302,333,314,312,2
302,332,313,309,2
302,321,314,307,2
302,304,315,308,2
301,289,315,310,2
301,281,316,311,2
300,280,317,313,2
298,287,318,315,2
296,296,319,317,2
295,305,321,322,2
295,313,325,328,2
296,318,328,334,2
297,321,330,336,2
300,321,329,335,2
303,318,326,331,2
306,318,319,325,2
309,319,312,317,2
310,321,306,308,2
310,322,303,302,2
309,323,302,297,2
308,323,301,293,2
308,319,301,288,2
308,311,301,283,2
308,305,302,280,2
307,301,303,278,2
307,299,304,278,2
305,301,306,279,2
303,301,307,281,2
302,296,308,283,2
301,287,308,285,2
301,282,309,287,2
301,280,310,289,2
302,281,312,293,2
305,284,314,299,2
308,287,318,304,2
311,290,322,310,2
313,291,325,315,2
313,292,324,319,2
313,293,322,321,2
312,293,321,323,2
311,294,321,325,2
309,296,322,325,2
309,302,320,323,2
309,311,318,319,2
308,321,313,313,2
308,329,308,306,2
306,334,304,297,2
304,335,301,288,2
302,334,299,284,2
301,330,297,282,2
301,319,296,283,2
302,302,295,287,2
304,287,297,292,2
307,283,301,297,2
310,293,307,303,2
311,310,313,308,2
312,326,315,312,2
311,341,313,314,2
311,351,312,313,2
310,352,311,312,2
310,349,310,310,2
309,344,310,307,2
307,335,310,303,2
306,322,310,299,2
305,306,311,296,2
305,291,311,295,2
306,284,312,294,2
308,285,313,295,2
310,290,313,297,2
314,298,312,298,2
315,305,310,298,2
316,309,307,297,2
316,311,305,296,2
313,309,303,295,2
309,302,302,294,2
306,293,302,296,2
303,286,304,299,2
302,279,305,303,2
300,273,308,308,2
300,272,311,313,2
300,273,316,318,2
303,275,321,322,2
305,282,327,326,2
307,294,330,328,2
308,306,331,328,2
307,314,330,326,2
306,318,324,322,2
306,317,316,317,2
306,313,307,312,2
306,306,300,308,2
306,299,296,305,2
306,295,295,304,2
306,292,295,305,2
307,291,298,309,2
307,293,300,314,2
308,295,302,320,2
308,300,302,323,2
309,309,302,324,2
308,321,301,324,2
308,332,300,322,2
307,338,300,318,2
306,339,299,312,2
304,337,298,305,2
302,330,297,297,2
301,313,297,293,2
301,294,297,290,2
302,279,298,290,2
303,269,299,290,2
303,267,299,291,2
303,272,300,292,2
303,279,300,293,2
304,285,299,294,2
304,287,298,295,2
304,288,297,295,2
304,289,297,294,2
304,290,299,294,2
306,292,303,294,2
307,294,307,295,2
306,296,311,296,2
305,298,315,297,2
304,302,316,299,2
304,308,314,302,2
305,315,311,304,2
306,319,307,306,2
308,321,305,307,2
310,319,305,308,2
311,312,307,308,2
310,305,308,307,2
307,304,307,304,2
304,306,303,299,2
302,307,297,292,2
300,304,293,285,2
300,299,290,279,2
301,290,288,276,2
303,280,289,275,2
304,273,290,280,2
305,269,293,286,2
304,269,295,295,2
304,274,299,302,2
303,282,301,309,2
301,292,303,313,2
299,302,304,316,2
297,312,306,318,2
296,320,309,321,2
296,327,312,323,2
297,335,313,326,2
298,344,311,327,2
299,353,307,326,2
300,362,303,321,2
300,368,299,315,2
299,368,295,310,2
297,359,292,305,2
297,342,290,301,2
298,322,290,297,2
301,306,291,295,2
304,299,293,293,2
306,294,295,293,2
307,287,297,294,2
308,277,298,295,2
305,269,298,295,2
301,266,297,293,2
296,271,295,292,2
293,276,294,291,2
292,282,294,291,2
292,288,293,294,2
292,295,293,297,2
292,300,292,303,2
293,304,292,309,2
296,308,292,315,2
297,308,293,319,2
299,307,295,323,2
300,306,296,326,2
303,305,297,328,2
304,305,298,332,2
303,303,300,334,2
301,300,302,336,2
299,297,306,337,2
298,295,308,336,2
299,293,310,333,2
300,296,310,328,2
300,302,310,322,2
298,310,309,314,2
295,317,307,306,2
292,322,304,298,2
290,322,301,294,2
290,320,299,291,2
293,314,298,288,2
296,305,299,285,2
299,295,299,283,2
301,286,299,282,2
302,281,299,284,2
303,278,298,286,2
303,279,298,289,2
304,283,300,292,2
304,288,302,297,2
303,292,306,300,2
304,295,308,302,2
304,298,307,304,2
304,300,305,305,2
304,302,303,305,2
303,304,301,304,2
302,305,299,304,2
301,307,298,305,2
301,310,297,306,2
301,310,297,307,2
300,305,300,308,2
299,300,302,309,2
300,295,303,311,2
302,294,304,312,2
302,293,303,310,2
302,293,302,306,2
302,296,301,301,2
302,301,299,296,2
302,306,297,290,2
302,310,296,285,2
303,315,295,283,2
304,321,296,285,2
304,328,298,288,2
303,336,300,293,2
302,348,303,299,2
301,362,305,304,2
300,372,306,309,2
299,368,308,314,2
298,354,310,318,2
297,335,310,321,2
297,320,309,321,2
297,309,310,319,2
298,306,311,319,2
299,306,313,319,2
299,306,314,320,2
299,303,315,320,2
298,296,317,318,2
299,287,319,316,2
300,280,321,315,2
303,279,323,316,2
305,281,323,317,2
308,285,321,317,2
310,289,320,318,2
312,290,318,317,2
312,290,317,314,2
311,289,316,310,2
310,286,315,305,2
310,284,313,301,2
310,285,308,297,2
311,288,302,293,2
310,297,297,292,2
307,314,293,294,2
302,334,294,297,2
298,351,297,300,2
295,358,301,303,2
294,355,305,306,2
295,343,308,308,2
296,324,310,310,2
299,303,310,311,2
301,285,309,311,2
304,278,307,312,2
306,283,306,312,2
308,293,306,311,2
309,300,307,309,2
309,303,308,308,2
308,301,309,307,2
306,295,310,309,2
304,285,310,310,2
301,275,310,311,2
299,268,310,312,2
299,267,309,310,2
299,272,309,308,2
301,278,308,304,2
303,284,310,301,2
305,290,314,299,2
307,296,319,300,2
309,300,323,300,2
311,302,323,300,2
313,303,320,300,2
314,302,315,301,2
314,301,312,303,2
313,299,312,305,2
313,299,312,308,2
313,303,312,314,2
312,310,312,320,2
312,318,313,324,2
311,324,313,326,2
310,329,313,324,2
309,331,312,321,2
307,328,311,315,2
306,322,310,309,2
306,320,311,304,2
306,324,311,301,2
307,330,312,299,2
309,333,313,299,2
309,331,315,298,2
310,328,315,298,2
310,326,315,298,2
311,327,316,297,2
311,330,317,296,2
311,332,320,295,2
310,330,324,294,2
311,323,325,294,2
310,317,323,294,2
310,313,318,294,2
311,308,313,293,2
311,303,309,292,2
312,299,306,293,2
312,294,305,293,2
314,286,304,294,2
315,277,304,294,2
315,271,305,294,2
315,270,306,296,2
314,273,308,299,2
314,281,309,300,2
314,289,311,299,2
313,296,311,296,2
312,301,309,294,2
311,302,307,293,2
310,301,303,294,2
310,298,300,296,2
309,296,297,299,2
309,294,296,302,2
310,292,297,304,2
310,291,298,306,2
310,293,300,307,2
310,297,302,306,2
309,302,302,304,2
308,306,302,303,2
308,308,302,302,2
308,310,301,304,2
308,312,301,306,2
309,315,302,308,2
309,321,303,310,2
309,328,304,311,2
308,333,305,312,2
307,330,306,313,2
306,321,305,313,2
306,310,304,313,2
306,298,303,315,2
306,286,303,317,2
308,276,303,320,2
310,273,304,323,2
314,277,304,325,2
317,284,304,328,2
320,292,305,332,2
320,298,307,338,2
317,301,311,341,2
312,302,313,343,2
309,305,315,340,2
306,308,315,335,2
305,311,314,327,2
305,314,311,318,2
305,318,307,309,2
305,319,304,299,2
305,315,299,290,2
305,304,295,283,2
305,292,293,279,2
305,281,292,278,2
305,274,292,279,2
306,273,294,280,2
308,280,297,282,2
310,288,301,283,2
312,293,305,286,2
313,296,310,289,2
312,298,314,294,2
311,299,317,299,2
310,302,318,303,2
307,308,317,310,2
305,317,315,318,2
303,324,311,325,2
302,328,307,329,2
300,330,304,329,2
300,327,302,326,2
302,322,302,320,2
304,314,304,312,2
307,312,305,306,2
310,316,306,302,2
313,322,307,298,2
315,324,308,297,2
314,322,307,296,2
312,315,306,297,2
310,306,303,300,2
308,295,301,303,2
308,286,300,306,2
307,280,300,309,2
307,277,301,310,2
306,277,301,307,2
305,280,301,303,2
304,287,301,299,2
302,296,302,296,2
301,305,303,294,2
302,316,304,295,2
303,326,304,295,2
304,335,305,295,2
305,342,304,294,2
306,344,304,292,2
306,341,305,292,2
308,334,306,294,2
310,321,309,297,2
312,307,312,300,2
314,292,315,304,2
316,278,318,310,2
316,269,320,316,2
316,267,321,321,2
315,271,320,324,2
314,278,318,326,2
312,288,315,326,2
310,298,312,324,2
308,307,311,322,2
306,315,311,317,2
304,321,310,310,2
303,326,310,303,2
302,329,307,298,2
301,330,304,294,2
301,330,301,293,2
302,328,300,294,2
303,324,301,296,2
304,317,303,300,2
305,312,306,304,2
307,313,307,307,2
310,316,306,311,2
312,320,304,313,2
314,323,303,315,2
314,321,302,314,2
313,316,303,314,2
312,311,305,316,2
311,305,308,319,2
310,300,311,322,2
309,298,311,322,2
308,299,310,320,2
308,301,309,317,2
309,304,310,315,2
309,306,309,315,2
309,309,309,316,2
309,312,307,317,2
309,314,307,317,2
308,316,307,316,2
308,316,309,316,2
309,314,313,315,2
309,313,316,315,2
310,312,318,314,2
312,314,319,313,2
313,320,319,311,2
313,328,315,309,2
313,334,309,305,2
310,336,305,301,2
308,336,301,297,2
307,337,299,295,2
307,337,297,295,2
308,330,296,296,2
309,318,295,296,2
310,304,293,296,2
310,296,293,296,2
312,293,294,296,2
312,290,295,297,2
309,286,298,299,2
307,281,300,303,2
304,279,303,306,2
304,279,304,309,2
305,282,306,310,2
306,288,307,310,2
307,296,308,309,2
308,304,309,308,2
307,311,309,307,2
307,319,310,306,2
306,323,309,303,2
304,325,309,299,2
303,326,308,294,2
302,327,307,288,2
300,327,306,284,2
298,322,308,281,2
299,313,310,280,2
301,300,313,280,2
303,287,315,282,2
305,276,315,284,2
307,269,313,287,2
309,265,309,290,2
311,267,306,294,2
312,274,305,297,2
313,283,306,298,2
313,291,307,299,2
313,298,306,302,2
314,304,305,306,2
314,309,306,311,2
314,314,307,317,2
313,319,309,320,2
313,324,310,323,2
312,327,311,322,2
311,328,311,320,2
310,330,310,318,2
309,332,309,315,2
307,333,307,313,2
305,332,305,310,2
304,329,304,307,2
303,320,305,303,2
304,309,306,299,2
305,297,307,295,2
306,290,308,293,2
307,289,310,293,2
309,292,311,294,2
309,296,311,296,2
310,302,310,298,2
309,307,307,302,2
309,312,305,308,2
308,315,305,313,2
307,319,307,316,2
306,322,309,316,2
305,323,309,313,2
305,327,307,308,2
305,334,304,303,2
305,339,300,298,2
305,344,299,296,2
305,347,300,294,2
306,347,302,294,2
306,340,301,294,2
306,327,298,296,2
306,310,295,299,2
307,294,294,304,2
308,281,294,309,2
310,270,294,314,2
311,264,297,321,2
312,263,299,325,2
313,266,301,327,2
315,271,303,328,2
315,276,304,327,2
314,280,306,325,2
314,281,307,322,2
313,280,307,317,2
311,278,306,311,2
309,282,306,305,2
307,291,305,299,2
303,299,304,294,2
298,306,304,291,2
293,312,304,291,2
291,319,306,293,2
290,326,307,299,2
291,333,308,306,2
294,338,308,312,2
296,340,306,316,2
299,337,302,318,2
301,331,301,318,2
303,325,304,316,2
305,318,310,315,2
307,310,317,314,2
308,302,322,314,2
309,297,325,312,2
309,293,323,309,2
308,292,320,306,2
308,293,317,304,2
308,295,315,301,2
308,297,314,299,2
309,300,312,298,2
309,302,310,298,2
309,303,308,299,2
309,303,305,299,2
309,301,301,299,2
310,298,299,299,2
310,296,297,301,2
311,294,297,303,2
311,293,296,307,2
313,296,297,311,2
313,301,300,315,2
313,304,303,317,2
312,304,306,319,2
311,301,309,318,2
310,299,311,315,2
309,299,313,311,2
308,303,313,307,2
306,310,313,304,2
304,319,311,301,2
302,325,306,301,2
301,329,302,303,2
301,330,300,305,2
302,329,300,307,2
304,326,302,307,2
304,321,303,304,2
305,316,304,301,2
306,311,306,298,2
307,307,307,298,2
308,305,308,300,2
308,309,311,303,2
309,317,312,306,2
310,327,313,312,2
311,336,314,319,2
311,340,314,326,2
309,338,314,331,2
307,332,314,334,2
305,323,314,334,2
304,312,313,333,2
304,300,311,329,2
305,289,309,325,2
306,280,308,320,2
306,273,308,315,2
305,269,307,311,2
306,268,306,308,2
306,267,305,304,2
307,269,305,301,2
307,276,305,300,2
308,284,306,299,2
309,290,307,299,2
310,296,306,300,2
311,304,306,302,2
312,314,305,304,2
312,327,303,304,2
311,340,302,301,2
310,351,301,297,2
307,354,302,294,2
306,349,303,291,2
304,335,303,290,2
304,320,302,289,2
305,307,303,290,2
307,300,305,293,2
307,297,308,296,2
307,298,310,301,2
307,301,311,305,2
306,304,313,310,2
305,308,315,313,2
307,311,316,316,2
309,314,316,317,2
311,314,314,317,2
311,311,310,315,2
310,311,306,313,2
310,314,303,310,2
310,319,301,308,2
309,324,302,305,2
307,329,305,302,2
305,332,309,299,2
304,331,311,298,2
303,325,312,301,2
302,315,312,305,2
302,307,309,312,2
303,303,307,317,2
305,303,305,322,2
306,303,304,324,2
306,300,303,323,2
307,293,301,320,2
307,285,298,315,2
307,279,297,312,2
307,276,297,311,2
307,276,297,310,2
308,278,295,309,2
308,280,295,306,2
308,282,294,302,2
308,284,293,297,2
308,286,293,294,2
310,287,292,291,2
312,288,292,290,2
314,291,293,290,2
316,299,294,291,2
315,308,295,295,2
311,316,297,298,2
307,321,298,302,2
304,326,301,306,2
303,327,303,310,2
303,324,304,313,2
304,320,306,313,2
305,317,307,314,2
306,316,308,314,2
305,315,309,314,2
303,316,310,314,2
301,320,311,312,2
300,326,311,310,2
300,331,311,310,2
301,331,311,313,2
301,328,311,316,2
301,322,312,321,2
301,315,314,324,2
302,307,314,326,2
303,303,315,324,2
304,303,316,320,2
304,308,317,315,2
303,317,318,309,2
302,324,318,304,2
300,326,316,299,2
298,321,312,295,2
297,311,306,291,2
295,301,299,289,2
295,295,296,287,2
296,291,295,288,2
297,291,298,290,2
300,294,301,294,2
302,298,305,299,2
305,305,309,304,2
307,311,312,306,2
308,316,316,306,2
309,318,318,305,2
308,316,320,304,2
307,309,320,303,2
305,300,320,301,2
303,292,316,301,2
301,289,311,302,2
299,291,307,302,2
299,297,304,302,2
298,302,301,302,2
298,299,297,301,2
298,294,295,299,2
299,293,292,296,2
300,296,291,293,2
301,300,292,292,2
301,304,295,292,2
303,305,302,293,2
304,306,309,294,2
306,306,314,296,2
306,305,315,297,2
307,302,312,297,2
306,298,310,296,2
304,297,308,297,2
303,299,308,297,2
301,302,307,298,2
299,306,307,300,2
298,308,307,302,2
298,310,309,304,2
300,312,313,306,2
305,314,316,307,2
311,317,319,306,2
314,320,319,306,2
314,324,316,307,2
313,328,310,309,2
311,334,305,313,2
311,339,301,315,2
313,343,299,317,2
315,344,299,319,2
318,341,299,320,2
319,331,300,320,2
315,317,302,321,2
309,304,304,322,2
304,296,306,324,2
301,290,309,326,2
299,285,312,326,2
298,280,314,324,2
297,276,314,320,2
297,273,314,314,2
296,268,312,308,2
295,265,307,303,2
295,271,302,301,2
294,282,299,301,2
295,293,297,303,2
297,300,296,304,2
300,303,297,305,2
303,305,297,304,2
306,305,299,302,2
307,306,300,300,2
309,307,301,298,2
310,311,302,297,2
310,319,303,297,2
308,329,303,296,2
306,338,305,297,2
305,345,307,297,2
303,350,310,298,2
301,351,312,298,2
299,347,315,299,2
298,335,315,303,2
297,322,312,310,2
296,310,310,317,2
295,298,309,325,2
296,287,309,332,2
298,279,310,337,2
300,276,312,340,2
302,280,312,340,2
304,289,313,338,2
306,300,313,332,2
307,309,313,324,2
307,317,312,315,2
306,321,309,307,2
305,321,307,301,2
304,319,307,296,2
304,317,309,293,2
304,313,312,291,2
305,306,316,290,2
306,294,316,290,2
306,281,315,290,2
306,271,313,290,2
306,270,313,290,2
307,275,312,290,2
307,285,312,291,2
308,296,310,292,2
308,306,308,292,2
308,317,305,293,2
309,326,303,294,2
309,330,303,296,2
308,329,305,299,2
308,322,307,303,2
308,315,308,305,2
307,311,309,306,2
308,310,308,306,2
307,310,307,305,2
307,312,306,304,2
307,312,304,303,2
307,311,304,302,2
307,310,306,302,2
306,309,308,301,2
305,307,308,300,2
304,306,308,299,2
303,304,308,299,2
302,303,307,301,2
302,302,305,304,2
301,301,303,309,2
302,301,303,315,2
304,302,305,320,2
306,306,307,325,2
309,313,310,327,2
311,323,312,326,2
312,334,312,321,2
311,343,309,315,2
311,348,306,310,2
310,344,304,307,2
310,333,302,305,2
309,319,299,303,2
308,308,297,299,2
307,301,296,296,2
308,296,296,292,2
310,295,298,289,2
310,296,301,287,2
308,297,302,285,2
305,298,302,284,2
302,298,301,283,2
301,297,300,283,2
301,297,299,284,2
302,296,299,286,2
304,295,299,289,2
305,293,301,294,2
306,293,302,301,2
306,294,304,310,2
305,297,304,317,2
303,300,303,322,2
301,304,300,324,2
299,307,298,322,2
298,308,297,318,2
298,308,298,314,2
300,311,301,311,2
302,319,304,309,2
305,327,307,309,2
306,331,308,310,2
307,330,309,311,2
305,326,310,313,2
304,318,312,316,2
303,308,315,320,2
302,298,319,323,2
304,292,323,328,2
307,292,323,331,2
308,293,321,332,2
308,294,317,334,2
308,294,313,335,2
308,296,311,334,2
308,300,312,332,2
308,309,316,328,2
308,322,319,323,2
307,337,318,317,2
307,352,313,308,2
308,363,307,300,2
309,369,302,294,2
312,369,299,290,2
314,362,298,290,2
314,346,299,290,2
312,325,300,290,2
308,301,300,290,2
305,279,299,288,2
303,262,298,285,2
302,254,299,284,2
303,253,301,285,2
305,255,304,289,2
306,259,306,295,2
307,264,308,299,2
307,271,308,302,2
307,281,308,304,2
307,294,308,304,2
306,308,307,305,2
304,320,307,304,2
302,326,306,303,2
300,329,307,302,2
299,328,310,300,2
299,322,311,299,2
299,307,310,297,2
299,292,308,296,2
300,283,306,296,2
302,277,305,297,2
304,268,305,301,2
307,261,306,306,2
310,261,308,312,2
313,269,309,318,2
315,283,308,320,2
316,298,307,320,2
317,310,306,319,2
315,319,305,316,2
310,324,305,312,2
304,325,306,307,2
300,325,306,302,2
297,323,306,299,2
296,323,305,297,2
296,326,304,294,2
297,329,302,291,2
299,334,302,288,2
301,339,304,286,2
303,342,306,286,2
304,339,308,287,2
305,331,308,291,2
306,320,308,297,2
307,309,309,304,2
307,300,308,312,2
307,293,308,319,2
307,287,308,326,2
308,283,310,330,2
310,283,312,332,2
312,285,315,332,2
313,289,318,330,2
314,293,320,326,2
315,297,320,319,2
314,302,319,312,2
313,308,317,306,2
312,312,313,300,2
311,315,311,295,2
309,313,311,291,2
308,308,314,288,2
308,300,314,287,2
310,292,311,286,2
312,286,306,288,2
312,284,302,292,2
312,290,298,298,2
311,300,297,303,2
311,311,296,304,2
310,315,295,302,2
312,311,296,299,2
313,300,298,297,2
313,291,301,296,2
313,291,306,299,2
313,301,310,302,2
312,313,313,304,2
311,325,316,306,2
310,332,317,309,2
309,334,317,314,2
308,331,315,320,2
307,326,312,326,2
306,320,309,329,2
306,312,306,329,2
305,308,304,326,2
305,307,303,319,2
305,308,304,311,2
306,310,307,303,2
307,310,309,298,2
308,306,310,295,2
308,298,311,295,2
309,288,313,296,2
310,280,316,297,2
311,276,317,300,2
311,274,319,303,2
311,275,320,305,2
310,280,321,307,2
308,287,321,309,2
307,293,320,309,2
306,299,319,307,2
305,308,318,305,2
304,319,317,302,2
304,330,316,300,2
305,338,317,298,2
305,342,317,295,2
307,339,316,291,2
308,325,312,286,2
308,298,308,282,2
309,269,305,280,2
310,253,305,282,2
312,254,307,288,2
313,266,311,295,2
314,282,314,301,2
315,295,315,306,2
315,302,313,308,2
313,303,309,310,2
310,303,305,311,2
308,301,301,311,2
306,301,299,312,2
303,301,299,314,2
298,304,300,317,2
295,307,300,317,2
293,312,300,316,2
292,318,299,311,2
293,325,298,305,2
293,331,297,299,2
293,334,295,294,2
295,335,295,291,2
297,334,296,289,2
298,327,298,290,2
300,316,300,290,2
302,302,302,290,2
304,290,304,290,2
305,281,306,292,2
305,277,307,293,2
304,277,307,294,2
303,280,308,293,2
302,285,310,294,2
301,292,314,297,2
302,301,319,302,2
304,311,321,308,2
306,320,320,314,2
307,329,316,318,2
308,337,311,320,2
308,340,307,320,2
307,337,304,318,2
307,330,301,316,2
307,323,300,314,2
308,318,300,310,2
308,310,300,305,2
310,301,302,301,2
311,293,304,299,2
312,289,307,299,2
312,289,309,299,2
311,293,310,300,2
308,300,311,303,2
306,306,312,309,2
304,309,313,315,2
303,308,314,320,2
303,306,314,324,2
303,302,314,325,2
303,297,315,324,2
303,291,316,322,2
303,286,316,319,2
303,284,312,314,2
303,285,308,310,2
303,289,305,306,2
303,295,304,305,2
304,300,304,304,2
305,302,305,306,2
307,301,307,309,2
309,297,310,310,2
311,293,312,308,2
311,290,312,304,2
311,290,308,297,2
310,290,304,291,2
310,294,301,287,2
310,302,299,284,2
309,311,299,283,2
308,320,298,283,2
307,326,298,282,2
305,329,299,281,2
303,330,299,279,2
302,329,299,278,2
301,326,300,278,2
302,323,299,280,2
305,320,299,283,2
309,318,301,287,2
311,314,304,293,2
312,311,308,300,2
311,308,312,309,2
311,307,316,317,2
312,307,319,324,2
313,307,319,328,2
313,304,317,330,2
314,302,313,329,2
314,300,310,326,2
314,298,308,322,2
313,296,308,318,2
312,296,310,315,2
312,297,310,312,2
310,300,309,309,2
308,305,308,305,2
306,312,307,301,2
304,319,305,297,2
303,324,304,295,2
304,326,303,293,2
307,324,303,293,2
311,318,303,292,2
315,309,304,293,2
317,301,306,293,2
315,297,310,293,2
312,299,313,294,2
309,308,315,296,2
307,320,315,298,2
306,330,313,300,2
305,336,309,301,2
303,333,304,303,2
302,323,301,305,2
303,309,301,307,2
303,296,303,308,2
303,287,307,306,2
303,281,309,303,2
303,280,308,300,2
302,280,306,298,2
302,280,305,298,2
304,278,305,301,2
307,275,306,305,2
311,272,307,310,2
315,267,307,315,2
317,266,306,319,2
316,273,306,326,2
314,289,306,336,2
311,308,309,348,2
308,325,312,356,2
306,340,315,360,2
304,351,315,359,2
302,355,313,353,2
301,353,310,345,2
300,344,308,337,2
300,331,306,331,2
301,318,304,326,2
302,309,302,322,2
302,303,299,318,2
302,300,295,313,2
302,299,292,307,2
303,298,288,301,2
304,298,285,295,2
305,302,283,292,2
307,309,283,291,2
308,320,284,293,2
310,333,285,294,2
311,345,288,295,2
312,355,290,294,2
311,358,290,292,2
309,351,290,289,2
307,335,290,285,2
305,315,291,282,2
303,293,292,281,2
302,275,294,281,2
302,265,295,282,2
302,259,298,286,2
303,258,302,289,2
303,260,307,292,2
304,265,310,295,2
304,269,312,299,2
306,273,312,305,2
308,277,310,312,2
310,281,308,321,2
311,286,307,329,2
312,290,307,335,2
312,294,309,339,2
313,295,310,340,2
312,298,310,339,2
311,303,309,335,2
310,311,305,329,2
309,319,301,321,2
307,326,296,314,2
306,333,293,308,2
305,338,291,304,2
304,343,291,301,2
303,345,292,298,2
302,343,293,295,2
302,335,298,294,2
302,318,303,291,2
302,293,308,288,2
303,268,309,286,2
305,251,307,286,2
308,242,303,288,2
312,241,298,291,2
315,248,294,296,2
316,260,292,301,2
315,273,292,307,2
315,286,293,313,2
314,295,295,319,2
314,302,299,323,2
314,308,302,326,2
313,312,304,327,2
312,314,304,327,2
312,317,303,326,2
311,318,302,323,2
311,319,301,321,2
310,321,301,320,2
310,325,300,320,2
309,329,298,318,2
308,333,294,314,2
307,335,291,310,2
308,333,289,305,2
311,328,289,299,2
314,319,290,296,2
316,309,292,295,2
318,298,296,298,2
319,289,300,304,2
319,287,303,311,2
318,293,305,317,2
318,301,306,322,2
317,308,306,327,2
317,313,305,331,2
315,314,303,333,2
311,313,301,332,2
306,308,299,328,2
303,303,299,321,2
302,302,299,313,2
303,304,299,303,2
304,303,298,293,2
306,298,297,286,2
308,292,295,283,2
310,287,294,285,2
312,282,293,291,2
313,279,294,299,2
314,279,295,308,2
316,284,298,317,2
317,290,301,323,2
317,297,305,326,2
317,300,309,326,2
315,299,313,324,2
314,297,315,322,2
314,294,316,318,2
313,292,316,315,2
311,292,316,312,2
309,296,314,308,2
305,302,311,302,2
302,309,307,297,2
301,313,304,292,2
301,313,303,289,2
303,309,301,288,2
305,303,300,288,2
308,297,298,291,2
310,292,297,295,2
310,290,294,300,2
309,291,292,305,2
308,297,291,310,2
306,308,291,314,2
305,321,292,316,2
304,331,293,316,2
302,336,294,315,2
300,336,292,314,2
299,330,291,313,2
299,319,288,313,2
300,306,288,312,2
302,299,290,312,2
304,296,296,314,2
306,295,302,318,2
307,292,307,324,2
306,288,311,327,2
305,282,313,328,2
305,274,311,325,2
306,265,307,321,2
308,262,304,318,2
311,267,302,314,2
312,276,302,313,2
313,286,302,312,2
312,296,302,313,2
311,308,303,315,2
310,320,304,317,2
311,334,303,319,2
312,347,302,320,2
312,356,301,319,2
311,360,300,318,2
310,356,300,317,2
310,344,300,313,2
310,328,300,309,2
312,311,300,304,2
313,297,301,300,2
313,286,301,296,2
313,280,300,294,2
312,277,300,293,2
312,277,300,293,2
312,281,300,296,2
313,288,300,302,2
314,295,301,309,2
314,299,302,315,2
314,297,303,319,2
314,293,304,321,2
313,292,305,320,2
312,294,306,317,2
311,296,307,313,2
310,294,309,309,2
308,292,313,306,2
306,289,316,305,2
306,289,319,305,2
306,290,321,304,2
307,292,321,304,2
308,294,319,303,2
309,296,316,302,2
310,299,310,303,2
310,302,304,306,2
311,305,299,311,2
313,309,296,316,2
317,311,295,321,2
321,312,296,326,2
325,312,297,328,2
326,309,298,330,2
322,304,300,331,2
315,300,301,330,2
309,297,303,328,2
304,297,304,325,2
301,303,306,320,2
300,314,307,315,2
298,329,307,310,2
296,346,306,305,2
295,360,306,300,2
293,367,306,296,2
292,363,306,294,2
292,351,305,295,2
293,334,302,297,2
294,316,298,300,2
297,299,297,303,2
301,285,297,306,2
305,273,300,309,2
307,266,304,311,2
309,260,307,313,2
311,258,310,315,2
312,259,311,318,2
312,265,311,321,2
311,275,311,325,2
310,289,311,330,2
309,304,311,333,2
308,319,310,334,2
307,328,310,333,2
305,331,309,331,2
305,325,309,327,2
304,306,309,323,2
305,284,309,320,2
306,271,309,317,2
307,269,309,314,2
308,272,308,312,2
309,275,308,310,2
310,276,307,310,2
311,277,306,310,2
312,277,306,310,2
312,280,306,309,2
312,283,307,306,2
310,287,309,300,2
308,289,311,293,2
306,293,312,285,2
304,299,312,280,2
304,305,311,277,2
304,311,311,276,2
304,317,313,276,2
304,321,316,276,2
304,324,319,278,2
304,326,319,280,2
305,331,315,284,2
306,339,307,288,2
307,346,300,290,2
308,351,296,293,2
308,353,294,295,2
309,349,293,297,2
309,337,293,300,2
310,318,294,303,2
310,298,297,308,2
310,282,300,314,2
308,272,305,320,2
307,267,308,326,2
306,265,309,332,2
305,265,309,338,2
305,267,309,340,2
305,270,308,340,2
305,274,308,339,2
305,280,307,337,2
305,285,306,333,2
305,289,306,328,2
305,293,304,321,2
306,298,303,314,2
306,302,302,307,2
306,305,303,301,2
306,306,304,297,2
305,309,306,295,2
305,307,307,294,2
305,302,308,295,2
308,296,309,297,2
312,290,310,299,2
316,287,313,301,2
318,285,317,302,2
316,283,321,303,2
311,283,325,305,2
304,287,325,308,2
298,293,321,309,2
295,298,315,310,2
294,303,309,310,2
296,307,304,311,2
297,310,301,312,2
299,312,299,313,2
300,314,298,315,2
301,314,298,315,2
301,314,297,314,2
301,312,297,313,2
302,310,298,312,2
303,310,300,312,2
305,310,302,314,2
306,310,305,316,2
306,308,309,319,2
306,305,313,321,2
306,303,317,322,2
306,304,320,321,2
306,303,322,317,2
305,301,322,313,2
304,300,320,308,2
302,301,317,304,2
301,302,315,302,2
300,305,313,300,2
300,307,313,299,2
300,310,313,300,2
301,314,314,301,2
302,318,314,301,2
303,323,312,300,2
303,323,307,298,2
303,320,303,297,2
303,313,299,299,2
302,306,297,301,2
302,301,297,303,2
302,302,297,306,2
301,304,297,307,2
299,306,297,305,2
297,304,297,301,2
296,299,298,298,2
295,293,299,296,2
295,286,300,295,2
294,277,301,296,2
293,271,303,299,2
292,272,304,304,2
293,278,305,308,2
294,285,306,311,2
295,291,307,312,2
296,295,308,312,2
298,298,309,312,2
299,299,308,310,2
301,298,307,310,2
303,297,309,310,2
306,299,312,312,2
308,305,317,315,2
309,315,320,317,2
308,325,321,317,2
307,332,318,314,2
306,333,312,308,2
305,329,306,302,2
305,320,302,297,2
304,311,300,292,2
302,305,299,290,2
299,302,298,290,2
297,299,298,291,2
295,294,297,295,2
295,284,297,301,2
296,270,297,307,2
296,257,298,311,2
298,251,302,312,2
300,251,309,311,2
301,261,317,311,2
303,275,324,313,2
304,290,329,315,2
305,304,330,318,2
304,316,328,321,2
304,324,322,323,2
302,327,317,326,2
301,327,314,329,2
301,325,313,334,2
301,324,313,339,2
302,326,314,344,2
304,328,314,346,2
307,330,312,344,2
309,329,308,336,2
306,324,304,323,2
302,318,301,307,2
298,313,299,293,2
295,307,298,281,2
293,300,296,272,2
292,293,294,269,2
292,288,292,269,2
294,284,290,272,2
295,281,291,276,2
296,281,293,279,2
297,285,297,283,2
299,291,300,286,2
300,298,305,288,2
301,306,308,291,2
301,314,309,293,2
299,320,309,295,2
298,325,307,297,2
297,329,307,299,2
297,336,307,302,2
295,345,308,306,2
294,350,309,311,2
294,351,310,315,2
295,346,309,318,2
296,335,308,320,2
297,320,306,321,2
299,306,305,322,2
302,294,305,323,2
303,284,306,322,2
304,277,307,322,2
304,274,308,322,2
303,276,309,323,2
301,283,310,323,2
299,289,311,323,2
296,293,311,322,2
294,293,310,320,2
293,290,309,317,2
292,285,309,314,2
292,283,308,311,2
293,286,309,308,2
293,292,310,305,2
294,301,309,303,2
294,309,308,302,2
296,314,305,301,2
297,315,304,299,2
299,314,303,298,2
300,309,303,296,2
301,305,305,295,2
302,303,309,296,2
303,305,314,297,2
305,309,320,297,2
307,311,326,298,2
308,311,329,300,2
308,311,329,301,2
308,313,325,301,2
306,311,320,302,2
304,307,315,303,2
302,302,311,305,2
300,297,306,307,2
298,289,302,309,2
297,283,298,311,2
297,278,296,314,2
297,281,296,316,2
297,290,299,319,2
297,300,303,319,2
298,306,307,319,2
298,310,308,316,2
299,316,307,314,2
300,324,305,313,2
301,334,304,312,2
303,345,305,314,2
305,356,307,318,2
305,361,309,322,2
306,359,310,325,2
304,351,311,326,2
304,338,311,325,2
303,323,312,321,2
303,308,312,316,2
303,296,312,310,2
303,289,311,303,2
302,287,311,295,2
300,283,311,288,2
298,280,310,283,2
297,276,306,279,2
296,273,302,277,2
295,271,297,278,2
296,271,294,281,2
297,274,293,285,2
299,277,294,288,2
300,280,295,293,2
302,281,296,297,2
302,281,298,303,2
303,281,300,309,2
303,283,302,315,2
303,287,303,321,2
305,293,305,326,2
305,297,306,330,2
306,304,306,334,2
307,314,306,338,2
306,323,304,340,2
304,330,303,339,2
304,335,302,335,2
306,338,302,329,2
308,340,302,323,2
308,341,303,318,2
306,336,303,312,2
303,327,303,306,2
301,315,304,302,2
301,303,308,300,2
302,295,312,301,2
303,292,318,304,2
304,291,323,310,2
305,292,327,317,2
305,293,328,323,2
305,293,327,328,2
306,292,324,331,2
305,293,318,331,2
305,298,312,331,2
305,307,307,330,2
305,316,303,328,2
305,323,302,325,2
305,328,303,323,2
305,332,303,319,2
305,333,301,314,2
304,333,298,308,2
304,332,293,305,2
304,329,290,304,2
304,322,288,304,2
305,311,288,305,2
306,302,291,307,2
306,300,295,310,2
306,304,299,312,2
305,310,302,312,2
304,314,304,311,2
303,315,304,309,2
301,311,304,305,2
301,303,304,301,2
301,293,305,299,2
301,286,305,299,2
302,283,304,302,2
302,282,304,308,2
303,284,304,316,2
303,288,303,322,2
302,293,303,325,2
302,299,303,323,2
301,306,303,319,2
302,311,303,313,2
304,314,303,307,2
305,314,304,304,2
308,311,305,302,2
310,310,307,303,2
312,312,309,304,2
313,317,310,305,2
312,321,309,305,2
310,325,308,305,2
308,325,306,304,2
306,320,305,302,2
305,312,304,301,2
304,304,304,300,2
304,300,304,301,2
304,296,304,304,2
305,293,303,305,2
305,291,302,306,2
304,289,300,306,2
305,290,300,305,2
305,296,302,305,2
306,304,304,304,2
307,307,309,304,2
308,306,315,303,2
309,301,322,304,2
310,296,328,305,2
311,291,328,306,2
310,289,322,308,2
309,288,313,311,2
309,290,305,315,2
309,296,300,320,2
311,305,297,327,2
313,314,297,332,2
318,322,298,336,2
322,327,300,338,2
323,329,301,336,2
319,329,301,333,2
313,327,301,327,2
308,322,301,320,2
305,316,301,313,2
303,312,302,306,2
303,308,303,300,2
303,302,302,296,2
303,295,301,293,2
304,291,300,292,2
305,289,301,292,2
306,290,304,294,2
307,291,309,296,2
307,293,313,299,2
307,296,315,302,2
306,298,315,303,2
305,300,313,304,2
304,304,307,304,2
303,311,301,304,2
301,320,296,304,2
302,331,294,304,2
302,341,295,304,2
303,343,296,303,2
303,335,297,301,2
303,323,298,299,2
304,312,299,298,2
305,301,299,299,2
306,290,299,302,2
307,285,301,306,2
308,281,305,311,2
309,277,309,317,2
310,277,313,320,2
310,283,316,321,2
309,293,318,320,2
307,304,319,317,2
304,314,318,314,2
301,319,317,312,2
298,318,315,310,2
296,313,313,310,2
294,305,312,310,2
294,298,311,310,2
295,296,311,311,2
297,295,312,311,2
299,295,311,310,2
300,295,311,309,2
302,298,310,307,2
305,302,309,306,2
307,306,309,306,2
309,309,309,309,2
311,310,310,314,2
311,308,312,319,2
310,309,313,323,2
308,310,313,323,2
305,313,312,320,2
303,316,311,315,2
301,318,310,309,2
300,319,309,304,2
299,318,308,300,2
299,315,306,298,2
300,310,304,297,2
301,303,302,297,2
302,298,301,300,2
303,295,300,304,2
303,293,300,309,2
303,293,299,314,2
303,293,299,319,2
303,294,300,323,2
304,294,300,327,2
306,296,302,329,2
308,297,303,329,2
310,298,304,326,2
310,298,304,322,2
309,298,304,317,2
307,296,304,312,2
305,297,303,307,2
305,302,302,303,2
306,309,302,300,2
307,319,301,298,2
308,328,300,297,2
308,336,299,298,2
309,342,299,299,2
310,343,300,300,2
311,339,298,300,2
312,332,296,300,2
312,323,295,300,2
310,316,296,301,2
306,311,301,303,2
303,310,308,306,2
302,312,317,310,2
301,316,324,315,2
301,320,327,321,2
301,318,325,325,2
302,310,319,328,2
303,302,311,329,2
304,297,304,329,2
303,295,298,327,2
303,293,295,323,2
304,292,295,320,2
304,293,296,316,2
304,298,297,314,2
303,302,298,313,2
301,303,299,313,2
299,300,301,312,2
297,298,303,309,2
295,297,304,305,2
294,296,303,300,2
295,295,302,296,2
298,293,302,292,2
302,290,302,290,2
305,288,301,288,2
307,287,299,287,2
307,290,298,288,2
307,295,297,289,2
306,302,297,291,2
305,310,295,294,2
306,315,293,298,2
305,317,294,303,2
306,315,295,309,2
306,313,299,318,2
307,313,304,327,2
307,316,307,337,2
308,321,309,345,2
308,327,310,351,2
308,331,308,353,2
307,331,303,351,2
306,330,299,348,2
307,327,297,346,2
309,323,296,343,2
311,315,297,338,2
309,305,297,330,2
306,295,298,320,2
302,288,298,307,2
298,284,298,295,2
296,284,298,285,2
296,289,296,277,2
297,298,296,273,2
299,306,297,272,2
301,313,299,272,2
304,317,300,272,2
305,317,300,273,2
306,314,299,274,2
306,310,297,277,2
305,309,293,281,2
304,314,290,284,2
304,320,289,289,2
305,328,291,295,2
306,336,293,302,2
307,339,295,308,2
308,334,297,315,2
308,327,298,321,2
309,321,299,325,2
308,318,301,326,2
308,319,303,326,2
306,322,305,324,2
305,325,307,322,2
303,325,307,319,2
301,320,306,315,2
299,309,305,313,2
298,297,304,311,2
299,289,304,310,2
300,288,305,311,2
302,289,305,310,2
303,291,308,310,2
303,293,311,310,2
304,294,315,312,2
306,293,319,315,2
309,292,321,317,2
313,292,321,317,2
317,293,318,315,2
320,296,312,311,2
318,299,306,306,2
315,305,300,302,2
311,313,297,300,2
307,321,296,301,2
305,328,295,303,2
304,334,296,306,2
303,336,295,306,2
301,332,293,305,2
300,321,291,304,2
300,305,292,304,2
300,290,294,304,2
301,279,299,304,2
302,278,305,304,2
301,285,309,303,2
301,294,308,301,2
300,300,304,298,2
300,303,300,295,2
300,301,298,292,2
301,297,299,291,2
301,291,299,293,2
303,289,299,297,2
305,295,300,303,2
306,306,302,308,2
306,317,302,313,2
304,326,302,316,2
301,332,303,320,2
299,334,304,323,2
298,332,305,325,2
299,329,306,327,2
300,326,307,327,2
300,324,309,325,2
301,321,309,325,2
301,318,310,327,2
302,314,312,329,2
302,310,313,330,2
304,307,312,329,2
306,305,310,324,2
308,303,306,319,2
309,300,304,313,2
309,298,303,308,2
308,294,304,304,2
307,291,304,301,2
306,293,304,297,2
305,299,303,293,2
304,307,300,288,2
303,317,299,285,2
302,324,298,283,2
301,329,297,282,2
299,330,297,281,2
299,322,296,282,2
298,311,297,283,2
299,301,298,284,2
299,296,299,286,2
300,293,301,289,2
302,293,302,292,2
303,294,304,297,2
304,296,305,300,2
305,299,306,304,2
307,302,304,306,2
309,305,302,308,2
311,307,300,311,2
314,310,300,314,2
316,315,303,317,2
318,322,308,318,2
319,328,312,319,2
317,330,316,317,2
312,329,315,315,2
306,327,313,313,2
302,325,309,312,2
300,324,305,313,2
299,324,303,315,2
299,326,301,318,2
299,327,302,322,2
299,327,303,327,2
299,325,306,332,2
301,322,308,337,2
304,317,312,339,2
308,308,313,337,2
312,299,312,331,2
314,294,308,322,2
311,293,304,314,2
307,293,300,306,2
303,295,298,300,2
300,297,298,295,2
297,296,297,292,2
297,294,297,289,2
297,289,296,288,2
297,285,296,288,2
297,285,294,288,2
296,289,293,288,2
296,294,291,290,2
295,300,290,293,2
294,307,289,296,2
295,315,291,299,2
297,321,292,301,2
298,324,292,302,2
299,324,291,303,2
301,321,290,304,2
304,316,289,305,2
307,309,291,307,2
308,302,294,310,2
309,299,297,313,2
309,301,300,316,2
308,306,302,317,2
307,315,304,317,2
306,326,305,315,2
304,336,304,311,2
303,344,303,306,2
302,348,302,300,2
301,343,301,294,2
301,329,303,289,2
301,309,305,284,2
301,289,308,281,2
303,276,311,279,2
305,272,312,279,2
307,275,313,281,2
309,278,313,284,2
309,281,311,287,2
309,282,308,290,2
309,284,306,294,2
310,285,305,299,2
311,286,305,305,2
312,291,305,314,2
312,297,306,323,2
311,307,306,329,2
308,320,306,332,2
306,334,306,331,2
304,348,304,327,2
303,360,303,321,2
302,365,303,316,2
302,361,304,314,2
302,346,306,314,2
302,328,308,318,2
302,311,308,324,2
302,297,308,329,2
303,288,308,333,2
305,283,309,334,2
307,280,312,333,2
309,278,316,331,2
311,277,321,328,2
312,277,325,324,2
312,279,329,321,2
311,282,328,316,2
310,287,323,310,2
308,292,316,304,2
306,296,310,300,2
304,298,305,296,2
303,297,303,294,2
303,296,303,293,2
302,293,305,293,2
302,291,307,293,2
304,291,308,294,2
306,293,306,295,2
309,296,303,298,2
311,301,299,301,2
315,309,296,306,2
316,317,293,312,2
315,323,292,316,2
312,326,292,321,2
309,326,295,323,2
307,327,300,324,2
307,330,308,325,2
308,333,314,327,2
310,335,316,329,2
312,336,314,329,2
314,335,309,328,2
315,332,304,325,2
313,325,301,319,2
308,315,300,311,2
304,305,301,301,2
301,296,302,290,2
299,288,303,282,2
299,280,305,278,2
300,272,306,278,2
301,267,308,280,2
303,267,310,285,2
303,270,313,290,2
304,275,314,295,2
305,282,316,299,2
306,289,316,302,2
307,295,316,304,2
308,301,317,306,2
308,306,315,309,2
308,310,312,312,2
307,312,308,317,2
307,315,308,323,2
306,318,308,328,2
304,322,309,332,2
303,325,308,332,2
301,326,307,329,2
300,326,305,322,2
300,323,303,313,2
300,318,301,304,2
300,311,299,297,2
301,305,298,292,2
301,302,298,291,2
302,301,298,291,2
303,300,299,294,2
305,301,300,298,2
307,305,303,303,2
307,310,307,308,2
307,316,312,312,2
307,322,317,314,2
306,330,318,315,2
306,337,316,315,2
307,342,312,316,2
306,347,308,315,2
306,349,305,314,2
305,347,301,311,2
304,340,298,308,2
302,326,296,304,2
301,307,296,300,2
301,285,296,298,2
301,268,296,296,2
300,257,295,294,2
300,250,295,293,2
300,251,297,294,2
301,259,299,297,2
301,271,301,300,2
301,281,305,303,2
301,287,307,306,2
302,292,309,308,2
303,296,309,308,2
304,299,309,308,2
306,303,310,309,2
307,308,311,312,2
308,313,312,318,2
310,318,314,323,2
311,323,316,328,2
311,329,317,333,2
311,333,317,337,2
310,336,314,338,2
308,336,311,336,2
306,332,307,331,2
303,323,303,322,2
301,311,300,313,2
300,300,299,306,2
300,291,299,300,2
301,285,300,296,2
302,281,304,294,2
303,282,308,294,2
304,286,312,295,2
304,292,315,294,2
303,297,316,292,2
302,303,314,290,2
301,310,311,288,2
301,317,307,285,2
301,326,301,284,2
301,336,296,285,2
301,345,294,286,2
301,351,293,288,2
301,353,293,290,2
302,350,294,294,2
303,341,296,297,2
305,325,298,301,2
308,306,299,304,2
312,290,302,307,2
312,279,305,312,2
309,273,308,318,2
307,271,311,323,2
306,273,315,327,2
306,279,318,331,2
307,288,320,332,2
306,295,321,331,2
305,299,320,328,2
304,299,320,328,2
304,296,322,329,2
304,290,325,332,2
305,284,329,334,2
307,281,329,335,2
308,280,325,334,2
310,281,318,331,2
311,282,311,325,2
313,283,304,318,2
311,282,298,312,2
308,282,294,308,2
305,286,292,308,2
303,293,293,309,2
304,301,295,310,2
305,307,299,311,2
307,311,303,310,2
309,314,305,307,2
309,316,307,303,2
307,318,307,299,2
305,321,306,297,2
303,325,305,296,2
301,329,303,295,2
299,333,300,292,2
298,335,297,289,2
298,334,296,285,2
298,329,296,282,2
298,323,297,281,2
299,316,298,281,2
300,311,299,282,2
302,309,299,284,2
302,310,300,287,2
303,315,301,291,2
305,321,304,296,2
307,326,307,300,2
308,329,310,306,2
309,329,311,313,2
309,328,312,321,2
308,325,311,329,2
307,323,310,333,2
305,321,309,334,2
303,318,307,334,2
301,314,306,334,2
299,309,306,333,2
300,304,307,331,2
302,300,308,328,2
306,297,307,324,2
307,294,306,317,2
308,292,305,308,2
307,286,302,300,2
306,279,300,292,2
304,272,298,289,2
304,270,298,288,2
305,272,299,291,2
306,275,302,297,2
307,278,305,303,2
308,283,308,310,2
308,289,311,317,2
306,296,313,322,2
305,303,313,326,2
304,309,310,328,2
304,315,307,329,2
304,325,304,329,2
305,338,303,327,2
305,348,302,324,2
305,353,301,321,2
304,351,299,318,2
304,344,299,317,2
305,335,301,318,2
306,325,304,320,2
306,314,308,322,2
307,304,311,323,2
308,298,312,324,2
311,295,312,324,2
314,293,310,324,2
317,291,306,324,2
320,289,302,321,2
322,286,299,317,2
320,283,299,312,2
314,280,301,307,2
309,281,307,306,2
306,289,313,309,2
304,298,317,311,2
304,305,316,311,2
303,310,312,309,2
302,315,306,305,2
301,322,302,300,2
302,331,299,296,2
303,339,298,293,2
302,346,299,292,2
300,350,301,295,2
297,351,303,297,2
296,349,306,299,2
297,344,308,301,2
300,336,308,304,2
304,327,306,307,2
307,318,304,310,2
308,306,300,311,2
307,293,298,310,2
305,283,297,308,2
303,275,296,306,2
301,271,297,303,2
299,271,297,302,2
297,273,298,301,2
296,277,298,301,2
294,281,298,302,2
293,284,297,301,2
293,286,297,300,2
295,288,297,298,2
298,287,298,295,2
300,286,299,292,2
303,284,302,290,2
304,284,304,290,2
306,288,306,292,2
309,294,306,295,2
311,301,305,300,2
312,307,304,306,2
313,311,304,313,2
312,315,305,319,2
313,320,307,321,2
312,322,308,322,2
312,323,307,321,2
313,324,305,320,2
312,329,303,320,2
310,334,302,321,2
307,337,302,322,2
304,336,303,323,2
302,327,306,321,2
302,312,307,316,2
301,298,308,311,2
302,289,307,306,2
305,285,303,301,2
308,282,299,298,2
309,281,295,296,2
307,281,291,296,2
304,282,289,296,2
302,285,288,298,2
301,290,288,298,2
301,298,291,298,2
299,307,294,298,2
297,316,297,298,2
295,322,301,297,2
294,328,303,295,2
294,333,304,295,2
296,337,307,296,2
298,338,309,297,2
301,334,313,300,2
304,325,315,303,2
306,313,316,306,2
308,300,315,308,2
308,289,313,309,2
308,284,311,309,2
308,283,310,310,2
308,289,311,311,2
308,295,312,313,2
308,298,312,315,2
309,297,311,318,2
310,293,310,319,2
311,290,308,319,2
310,287,307,318,2
309,283,307,318,2
307,281,307,320,2
306,283,307,325,2
305,292,307,331,2
305,302,307,335,2
304,311,307,335,2
303,318,306,332,2
303,322,306,328,2
304,325,306,325,2
305,328,305,321,2
305,331,302,318,2
306,331,299,313,2
307,328,298,308,2
307,322,299,304,2
308,315,301,300,2
309,310,305,298,2
309,307,310,299,2
310,310,313,302,2
310,317,314,304,2
309,323,315,305,2
308,326,317,304,2
306,324,319,302,2
304,319,319,300,2
303,315,319,299,2
303,314,318,299,2
304,318,314,300,2
305,323,308,301,2
305,328,301,301,2
304,330,296,300,2
304,326,293,299,2
305,317,294,297,2
306,307,295,295,2
308,296,297,293,2
311,284,298,290,2
316,273,298,288,2
319,266,298,289,2
320,268,298,291,2
317,275,299,294,2
313,285,301,298,2
309,294,302,300,2
305,297,302,301,2
303,295,302,300,2
301,292,302,299,2
301,288,304,301,2
302,287,305,304,2
304,289,307,310,2
306,296,309,315,2
309,307,311,318,2
311,318,311,320,2
312,326,310,321,2
310,327,310,322,2
306,323,311,323,2
302,316,313,325,2
301,309,314,324,2
301,304,315,322,2
303,301,315,319,2
305,300,312,315,2
306,301,310,310,2
308,302,309,307,2
308,303,308,304,2
308,301,307,301,2
308,299,306,298,2
307,300,304,296,2
306,303,304,296,2
306,307,305,297,2
307,311,306,300,2
308,315,308,305,2
310,319,309,309,2
312,320,308,313,2
314,320,307,316,2
317,320,306,320,2
318,318,306,325,2
319,319,306,330,2
319,322,307,333,2
318,326,306,333,2
314,327,305,330,2
311,325,303,324,2
309,321,302,316,2
307,319,301,308,2
307,322,301,300,2
306,324,302,295,2
306,321,302,294,2
307,313,301,294,2
308,302,300,296,2
307,293,300,296,2
307,286,302,296,2
306,282,305,295,2
306,280,310,295,2
306,282,313,296,2
305,286,313,296,2
305,291,312,296,2
304,296,309,296,2
305,304,305,296,2
307,315,302,298,2
308,326,301,300,2
309,330,301,303,2
310,330,302,306,2
310,328,305,311,2
311,327,306,315,2
310,324,306,318,2
309,316,306,319,2
308,306,306,319,2
308,294,306,319,2
307,286,307,318,2
308,281,308,316,2
308,278,310,314,2
308,279,312,312,2
308,281,314,311,2
307,285,315,308,2
305,288,315,303,2
304,291,314,297,2
304,293,312,292,2
306,294,311,288,2
308,292,309,286,2
310,290,306,284,2
312,291,305,284,2
313,294,305,284,2
314,299,305,285,2
314,305,305,285,2
313,311,303,284,2
311,317,302,284,2
310,321,301,285,2
309,325,301,288,2
310,328,302,292,2
310,331,304,297,2
310,332,305,302,2
310,331,305,307,2
311,332,306,311,2
313,335,305,312,2
315,335,305,310,2
317,332,303,307,2
319,325,301,303,2
317,315,300,300,2
314,303,299,298,2
311,295,299,298,2
310,295,301,299,2
311,300,304,300,2
312,305,308,303,2
313,308,313,306,2
313,307,318,310,2
314,301,322,313,2
315,295,322,314,2
315,291,318,315,2
312,292,312,315,2
309,295,307,315,2
305,300,304,313,2
303,307,304,310,2
302,310,307,304,2
303,309,311,299,2
304,306,317,296,2
306,302,322,294,2
307,299,324,295,2
309,297,321,297,2
311,298,313,298,2
313,300,305,300,2
315,305,301,304,2
317,312,299,307,2
317,319,299,312,2
316,325,299,314,2
315,330,299,315,2
313,331,298,313,2
310,329,296,309,2
308,323,296,307,2
306,316,297,306,2
306,311,300,307,2
306,309,303,310,2
306,310,306,312,2
307,312,310,315,2
308,316,311,316,2
308,319,311,318,2
308,320,310,319,2
309,319,309,322,2
311,315,305,326,2
313,310,302,328,2
313,304,300,330,2
313,300,299,331,2
313,299,300,331,2
313,303,301,330,2
312,309,302,325,2
312,316,303,317,2
310,322,302,307,2
309,326,302,298,2
307,327,300,290,2
306,324,299,284,2
305,318,299,280,2
305,308,299,279,2
304,300,299,281,2
304,295,299,284,2
304,292,301,289,2
304,289,302,297,2
305,287,303,305,2
307,288,304,315,2
309,288,306,322,2
311,289,308,325,2
313,288,310,325,2
314,287,312,323,2
314,289,313,318,2
314,295,313,312,2
314,306,313,306,2
313,317,311,301,2
312,326,309,297,2
310,330,307,297,2
308,325,304,298,2
305,314,302,302,2
302,305,301,308,2
300,301,300,313,2
300,302,300,315,2
300,304,301,315,2
301,306,304,314,2
301,305,306,310,2
301,303,307,305,2
301,300,307,299,2
301,297,307,294,2
302,293,308,291,2
304,292,308,291,2
308,293,308,293,2
313,298,307,296,2
316,303,306,297,2
316,308,306,298,2
315,312,304,298,2
313,311,303,299,2
312,308,302,300,2
311,303,303,301,2
312,303,303,299,2
309,308,303,296,2
304,315,303,293,2
299,322,304,292,2
296,328,307,292,2
295,332,310,293,2
295,334,313,295,2
297,331,312,298,2
301,322,310,301,2
306,314,307,305,2
311,309,306,310,2
314,304,309,315,2
313,295,315,319,2
310,289,320,322,2
306,289,324,324,2
302,293,324,324,2
299,295,317,321,2
298,296,308,317,2
297,297,301,312,2
296,295,296,307,2
296,291,293,302,2
296,290,292,297,2
297,292,291,292,2
298,295,291,290,2
300,298,290,288,2
302,299,290,287,2
302,296,291,287,2
303,293,294,289,2
303,290,297,292,2
304,289,302,298,2
306,289,308,306,2
306,293,315,314,2
305,300,320,322,2
304,307,321,328,2
303,313,322,331,2
301,317,322,331,2
299,318,320,326,2
297,316,315,318,2
296,311,310,309,2
296,307,306,299,2
297,304,302,292,2
297,302,299,287,2
296,301,297,285,2
296,300,297,285,2
296,302,296,286,2
296,307,296,289,2
297,314,295,294,2
298,322,294,299,2
300,329,295,304,2
302,331,295,306,2
304,327,297,306,2
305,318,300,306,2
305,306,304,307,2
304,295,310,308,2
302,287,314,311,2
301,286,317,313,2
301,290,318,315,2
301,296,318,316,2
302,302,318,317,2
302,307,316,318,2
302,312,314,319,2
303,316,311,319,2
304,319,309,320,2
305,321,308,318,2
307,318,307,315,2
309,312,307,310,2
310,302,308,303,2
311,292,308,296,2
312,285,307,292,2
312,283,306,290,2
313,286,305,293,2
317,295,307,299,2
318,304,310,305,2
318,312,309,310,2
316,315,306,314,2
310,317,305,316,2
303,319,304,317,2
297,316,303,316,2
294,310,302,314,2
294,305,303,314,2
295,302,303,314,2
296,300,305,313,2
298,300,306,311,2
300,300,308,307,2
302,299,309,303,2
304,298,310,299,2
305,298,311,296,2
305,296,309,293,2
305,294,307,291,2
304,292,307,292,2
304,294,307,295,2
304,297,305,300,2
304,304,305,305,2
303,312,304,312,2
303,321,305,316,2
302,331,304,318,2
300,338,303,316,2
298,340,300,314,2
297,338,298,312,2
297,333,296,312,2
298,328,297,313,2
300,325,302,314,2
301,322,309,315,2
302,318,315,315,2
301,312,319,315,2
302,304,320,315,2
302,297,321,316,2
303,291,321,317,2
304,290,321,319,2
307,294,320,321,2
308,299,320,322,2
308,304,317,324,2
308,307,314,323,2
307,303,310,321,2
307,293,306,318,2
306,283,303,315,2
305,277,301,313,2
304,279,299,310,2
303,286,299,306,2
303,295,298,300,2
301,304,298,294,2
299,311,297,287,2
297,317,296,282,2
296,320,295,280,2
296,320,296,282,2
297,320,296,286,2
298,318,297,294,2
299,313,299,304,2
301,307,300,314,2
303,300,303,323,2
305,295,305,328,2
307,292,307,329,2
308,291,308,328,2
309,293,310,326,2
310,297,312,324,2
310,301,314,322,2
310,306,316,318,2
309,311,317,314,2
308,316,317,309,2
307,321,317,305,2
306,326,316,304,2
305,328,313,303,2
303,327,309,302,2
301,324,306,299,2
301,319,303,297,2
302,315,301,294,2
303,313,300,292,2
306,311,299,290,2
308,308,298,289,2
309,306,298,292,2
310,305,299,299,2
311,305,301,309,2
313,304,304,319,2
314,303,307,329,2
316,305,310,337,2
316,308,314,342,2
313,311,316,343,2
310,310,316,339,2
309,310,315,333,2
308,310,315,327,2
309,312,317,319,2
308,312,320,311,2
305,311,321,302,2
303,311,320,293,2
300,311,318,287,2
299,314,314,284,2
298,317,310,283,2
297,320,305,283,2
297,322,302,284,2
298,323,301,287,2
300,319,301,290,2
301,313,304,294,2
302,306,308,297,2
303,300,311,301,2
304,295,314,305,2
304,293,316,309,2
305,292,316,312,2
305,292,315,313,2
304,293,312,314,2
303,295,308,315,2
301,298,305,316,2
299,300,302,316,2
299,301,300,317,2
298,301,300,318,2
299,300,302,320,2
299,300,304,321,2
300,301,305,322,2
301,302,305,321,2
302,304,305,319,2
303,304,305,318,2
304,303,307,317,2
306,302,308,316,2
307,301,308,316,2
307,302,309,316,2
307,305,310,317,2
305,309,311,317,2
303,314,310,316,2
301,319,309,313,2
300,321,307,309,2
299,322,306,306,2
299,321,306,301,2
299,319,308,296,2
299,317,309,292,2
299,313,308,290,2
299,310,306,294,2
298,308,304,301,2
297,306,301,309,2
298,306,297,315,2
300,310,292,319,2
304,316,290,321,2
307,322,290,321,2
309,326,291,321,2
309,326,293,320,2
308,322,298,319,2
307,319,302,318,2
306,315,304,316,2
304,310,305,314,2
302,307,305,311,2
300,306,305,308,2
299,308,306,306,2
300,312,308,302,2
302,315,310,297,2
304,315,311,291,2
304,313,309,285,2
303,311,307,281,2
302,313,306,279,2
300,317,307,279,2
299,322,310,282,2
300,325,313,287,2
302,327,315,291,2
306,326,314,294,2
312,326,311,298,2
317,325,308,301,2
317,323,307,304,2
313,320,307,306,2
306,313,309,307,2
301,303,312,308,2
296,291,315,308,2
291,282,319,308,2
289,278,322,309,2
289,278,323,311,2
290,281,320,314,2
292,285,316,317,2
293,288,311,321,2
294,292,307,325,2
294,297,305,327,2
295,302,305,330,2
297,310,308,331,2
299,319,311,333,2
300,326,314,333,2
301,331,315,332,2
302,329,313,330,2
302,322,310,326,2
303,312,307,322,2
302,302,306,316,2
302,295,305,309,2
301,293,305,301,2
300,291,304,292,2
299,292,302,284,2
299,294,302,279,2
299,296,302,276,2
300,298,303,276,2
302,298,304,279,2
303,297,306,283,2
305,297,309,286,2
306,301,311,288,2
307,309,310,290,2
307,316,308,293,2
307,320,304,295,2
307,319,300,299,2
305,313,299,302,2
304,300,298,304,2
302,285,299,307,2
302,278,301,313,2
302,278,304,320,2
303,280,307,327,2
304,281,311,332,2
304,281,313,334,2
303,282,315,332,2
303,285,315,330,2
303,289,313,326,2
303,292,311,321,2
304,294,307,317,2
305,295,304,316,2
306,296,301,316,2
307,297,299,317,2
307,301,299,317,2
308,306,298,315,2
309,313,299,312,2
309,320,300,309,2
309,327,302,307,2
310,332,303,306,2
310,334,305,304,2
308,333,305,302,2
306,330,305,300,2
304,328,305,300,2
303,324,304,300,2
303,317,304,301,2
304,305,304,301,2
306,292,308,302,2
308,281,313,304,2
309,278,317,307,2
309,279,319,309,2
308,283,321,309,2
310,286,321,307,2
312,286,320,303,2
312,286,318,299,2
308,285,317,298,2
305,288,316,301,2
303,295,313,308,2
305,305,308,314,2
308,314,303,319,2
311,320,300,321,2
314,324,300,321,2
315,325,301,321,2
316,325,301,317,2
312,326,301,312,2
305,329,301,307,2
299,331,301,303,2
294,333,303,302,2
291,333,305,302,2
289,328,307,304,2
290,320,308,305,2
291,311,306,306,2
291,302,303,307,2
292,289,300,308,2
292,276,297,308,2
294,273,295,309,2
295,277,292,310,2
297,281,291,310,2
300,285,291,309,2
302,287,292,309,2
304,288,295,310,2
305,288,297,310,2
306,289,299,309,2
305,290,300,309,2
304,293,301,307,2
302,295,301,307,2
300,298,300,306,2
298,299,300,306,2
297,301,300,309,2
298,302,300,313,2
300,303,301,317,2
302,306,301,320,2
303,310,302,322,2
304,313,304,322,2
305,315,304,320,2
305,317,304,316,2
306,321,302,313,2
308,327,301,309,2
310,333,299,307,2
312,337,299,305,2
314,336,299,302,2
317,331,301,301,2
320,320,303,301,2
321,308,306,304,2
321,300,309,310,2
320,303,311,318,2
318,311,313,325,2
315,317,313,331,2
311,318,314,334,2
309,313,315,334,2
309,303,316,331,2
308,289,316,327,2
306,279,315,322,2
304,277,312,317,2
302,280,310,312,2
300,284,306,309,2
299,288,303,310,2
299,290,302,313,2
300,291,303,316,2
302,291,306,318,2
305,291,310,318,2
306,292,313,317,2
306,294,313,317,2
305,297,313,315,2
304,301,312,313,2
304,304,311,311,2
304,305,311,307,2
305,305,311,304,2
306,305,310,301,2
307,304,308,301,2
307,305,305,301,2
307,307,302,302,2
308,310,299,304,2
308,312,298,304,2
307,313,298,301,2
308,311,300,298,2
309,307,302,294,2
311,304,303,293,2
312,305,304,294,2
313,308,305,297,2
312,310,307,302,2
311,310,311,309,2
311,312,317,317,2
310,313,320,323,2
309,316,319,329,2
308,318,315,332,2
307,321,311,334,2
306,322,309,334,2
305,320,307,332,2
304,315,307,329,2
303,310,306,325,2
302,306,306,319,2
302,303,306,313,2
302,301,306,308,2
303,303,305,304,2
303,308,304,303,2
304,315,303,303,2
306,322,302,303,2
308,329,301,304,2
310,334,301,305,2
310,333,301,307,2
310,324,302,308,2
309,309,303,309,2
309,294,305,308,2
310,284,306,307,2
311,280,306,306,2
311,281,307,306,2
311,283,308,306,2
309,287,309,305,2
307,291,312,304,2
305,295,316,304,2
305,299,319,301,2
305,303,317,299,2
305,309,314,296,2
306,312,311,294,2
307,314,308,293,2
309,313,307,294,2
310,310,308,296,2
312,307,309,299,2
313,307,310,304,2
312,311,309,309,2
312,318,309,315,2
312,326,308,320,2
311,332,307,323,2
309,338,306,325,2
308,343,305,324,2
306,344,305,323,2
305,341,305,322,2
304,333,306,321,2
302,321,306,319,2
302,306,305,317,2
303,292,305,313,2
304,282,305,309,2
306,275,306,305,2
308,271,306,303,2
308,267,305,303,2
308,265,306,303,2
309,265,307,305,2
310,268,309,308,2
311,276,313,311,2
312,286,316,313,2
314,297,319,315,2
315,307,319,317,2
316,315,319,320,2
318,322,315,324,2
317,326,311,326,2
315,329,307,328,2
314,331,306,328,2
313,331,305,324,2
312,330,304,316,2
309,330,304,309,2
306,333,305,303,2
305,336,307,300,2
304,337,309,298,2
303,334,309,296,2
301,323,309,294,2
301,309,308,295,2
302,295,308,298,2
305,284,309,302,2
307,278,309,305,2
310,277,310,308,2
311,279,311,311,2
311,283,313,314,2
311,289,315,317,2
309,295,317,319,2
308,301,318,320,2
309,306,318,319,2
309,310,317,316,2
309,312,314,314,2
308,313,310,313,2
307,315,305,311,2
306,315,301,311,2
305,315,299,311,2
305,314,299,312,2
306,313,302,314,2
308,314,306,316,2
309,318,311,316,2
309,321,315,314,2
310,320,316,313,2
312,315,316,312,2
314,308,314,313,2
316,303,312,315,2
318,303,309,315,2
318,306,307,315,2
317,310,306,313,2
316,313,305,310,2
315,314,305,306,2
314,314,304,304,2
313,314,304,302,2
312,315,304,301,2
312,316,304,301,2
312,318,303,301,2
312,319,302,301,2
312,319,301,302,2
311,316,300,302,2
310,312,300,303,2
310,308,300,304,2
312,304,301,305,2
313,299,302,307,2
314,295,302,309,2
315,293,303,310,2
315,298,304,313,2
315,306,305,314,2
315,313,305,315,2
314,319,305,313,2
313,322,306,310,2
312,321,307,309,2
311,318,308,308,2
311,312,310,308,2
311,304,312,308,2
310,298,312,308,2
309,295,312,307,2
309,296,312,307,2
309,298,313,306,2
310,301,313,304,2
311,303,313,302,2
312,303,313,301,2
313,303,313,301,2
314,301,312,301,2
314,296,312,303,2
313,290,311,305,2
311,288,311,308,2
310,289,311,311,2
310,293,311,315,2
309,298,310,318,2
307,303,309,320,2
305,308,308,324,2
303,310,306,328,2
301,311,305,331,2
301,310,305,332,2
302,309,304,332,2
304,309,305,330,2
307,309,307,326,2
311,309,308,319,2
313,310,308,311,2
313,313,307,304,2
310,318,307,299,2
306,328,307,295,2
305,339,306,293,2
306,350,308,293,2
308,358,311,295,2
310,360,314,299,2
312,354,318,305,2
315,342,320,311,2
317,326,319,318,2
316,309,316,321,2
311,296,314,322,2
306,289,311,321,2
302,287,308,320,2
300,287,306,320,2
299,287,304,318,2
300,287,301,315,2
299,290,298,311,2
299,293,295,307,2
297,297,292,302,2
297,300,289,300,2
298,302,287,300,2
298,302,286,299,2
299,301,286,300,2
302,301,288,300,2
303,303,291,300,2
304,306,295,300,2
304,308,299,300,2
303,311,303,299,2
303,312,307,299,2
302,311,310,300,2
301,312,313,301,2
301,315,314,303,2
301,316,314,306,2
300,315,313,309,2
299,313,311,311,2
300,310,309,314,2
301,307,308,315,2
303,307,307,315,2
305,307,305,313,2
306,306,303,310,2
307,304,302,307,2
309,305,302,305,2
309,307,303,302,2
310,311,305,300,2
310,314,308,300,2
310,318,312,301,2
310,321,316,302,2
310,319,319,303,2
309,313,320,304,2
307,308,319,305,2
307,305,317,307,2
306,302,315,309,2
306,301,313,309,2
306,300,309,307,2
305,299,306,303,2
304,297,304,299,2
303,294,301,296,2
303,292,298,293,2
303,293,298,292,2
303,293,300,292,2
304,293,303,293,2
305,293,305,295,2
307,293,305,299,2
310,293,304,302,2
313,293,303,304,2
314,294,302,305,2
314,296,303,306,2
312,298,304,306,2
311,300,305,305,2
310,303,306,303,2
310,305,305,299,2
310,307,303,296,2
311,309,300,295,2
311,311,298,295,2
310,314,297,297,2
309,315,297,300,2
308,315,298,303,2
308,316,301,305,2
308,317,305,307,2
308,318,307,311,2
308,320,309,318,2
309,321,309,323,2
309,319,311,327,2
311,314,311,327,2
312,310,310,324,2
315,306,310,320,2
316,303,308,314,2
316,301,306,307,2
316,302,305,300,2
316,306,303,296,2
313,312,302,294,2
308,318,301,296,2
303,324,301,297,2
300,329,300,299,2
299,332,299,299,2
300,334,298,300,2
303,335,297,301,2
308,334,297,302,2
312,331,298,304,2
315,326,300,307,2
315,320,304,309,2
314,310,309,313,2
313,298,313,316,2
312,288,315,321,2
311,285,315,327,2
310,287,313,333,2
310,292,313,338,2
310,299,312,341,2
309,306,311,341,2
309,312,310,340,2
308,317,309,336,2
307,319,309,328,2
305,318,308,318,2
303,314,306,307,2
302,308,305,299,2
300,301,304,293,2
299,291,303,290,2
299,284,302,289,2
300,279,302,287,2
302,277,303,285,2
304,277,305,284,2
307,278,308,284,2
308,281,311,287,2
309,288,313,292,2
310,293,315,298,2
311,298,318,304,2
311,301,318,310,2
311,306,316,315,2
312,310,315,319,2
312,314,315,323,2
311,316,315,325,2
308,315,314,325,2
305,313,312,322,2
302,310,309,318,2
300,306,306,312,2
299,302,304,306,2
299,299,302,301,2
301,298,299,296,2
303,297,297,292,2
306,298,293,289,2
307,299,291,288,2
309,299,289,290,2
310,300,290,293,2
311,303,293,299,2
313,306,299,307,2
315,307,305,314,2
315,308,311,320,2
315,309,315,325,2
313,311,319,328,2
310,313,321,329,2
307,314,322,328,2
303,314,322,327,2
301,315,320,325,2
300,316,319,324,2
300,318,317,323,2
300,320,314,322,2
301,319,310,319,2
301,315,306,314,2
300,311,301,307,2
300,307,297,298,2
299,306,294,291,2
301,307,292,287,2
305,308,291,286,2
310,307,291,289,2
315,302,292,294,2
318,293,294,300,2
316,281,297,307,2
312,274,299,315,2
306,276,302,323,2
303,284,305,330,2
301,290,308,335,2
302,294,312,337,2
304,297,316,334,2
306,300,317,329,2
307,303,317,324,2
306,304,316,320,2
303,306,315,316,2
300,309,317,313,2
297,312,320,310,2
297,315,322,309,2
298,318,324,308,2
300,321,324,309,2
302,321,320,309,2
304,319,314,310,2
304,316,310,310,2
305,315,309,311,2
306,315,310,311,2
307,316,312,311,2
308,317,314,310,2
307,316,314,307,2
307,315,314,304,2
306,313,313,299,2
305,312,309,295,2
304,310,306,290,2
303,307,304,287,2
303,305,304,288,2
303,306,305,292,2
304,308,306,297,2
305,308,307,304,2
305,304,307,309,2
304,298,308,313,2
304,290,308,314,2
304,284,308,314,2
305,288,309,315,2
306,301,310,316,2
308,317,311,315,2
309,332,312,314,2
309,341,312,311,2
309,339,311,308,2
309,332,310,306,2
311,324,309,306,2
311,317,309,307,2
311,311,309,307,2
311,305,309,307,2
310,301,310,305,2
309,296,310,302,2
309,291,309,298,2
307,286,307,294,2
307,284,305,291,2
307,284,305,290,2
307,286,306,288,2
307,287,307,287,2
307,288,306,287,2
306,290,305,289,2
305,294,305,292,2
305,298,304,296,2
304,304,302,300,2
304,311,301,302,2
304,320,301,303,2
304,329,302,303,2
304,336,302,303,2
304,340,303,303,2
305,341,303,303,2
305,338,302,301,2
302,329,302,300,2
299,316,303,300,2
297,302,305,302,2
296,290,307,305,2
296,284,308,308,2
297,281,306,311,2
298,279,305,314,2
300,282,304,317,2
304,292,303,320,2
307,306,303,323,2
310,324,303,324,2
312,341,303,324,2
313,354,303,322,2
313,355,302,319,2
312,347,304,317,2
312,332,310,319,2
313,316,317,323,2
314,302,323,327,2
312,294,326,329,2
308,289,325,328,2
303,286,319,326,2
301,283,311,322,2
299,281,303,317,2
298,280,298,311,2
299,281,295,307,2
300,282,294,303,2
301,285,294,300,2
303,291,296,299,2
304,297,299,303,2
306,304,301,310,2
308,309,304,320,2
308,310,305,328,2
309,309,307,334,2
310,306,309,336,2
310,301,312,336,2
308,293,314,333,2
306,282,314,329,2
304,274,313,325,2
304,277,312,322,2
304,287,311,320,2
305,299,309,316,2
305,309,308,311,2
304,318,304,304,2
303,326,300,296,2
302,329,295,288,2
302,325,292,282,2
303,322,291,278,2
303,320,292,278,2
305,318,294,279,2
308,314,297,283,2
309,309,299,287,2
310,305,302,293,2
310,305,305,300,2
310,308,307,306,2
309,312,307,311,2
308,313,306,310,2
308,313,306,307,2
306,312,306,303,2
305,311,307,299,2
305,311,307,296,2
305,312,308,293,2
306,316,309,292,2
306,320,308,291,2
306,322,306,291,2
306,322,303,289,2
305,321,300,287,2
305,319,298,287,2
307,318,299,289,2
310,317,302,294,2
314,318,305,300,2
318,319,308,308,2
320,317,309,315,2
317,316,309,321,2
312,316,309,324,2
306,317,308,325,2
301,319,308,322,2
299,323,306,317,2
297,327,304,309,2
296,331,301,301,2
295,329,299,295,2
295,320,298,291,2
297,306,298,290,2
298,293,298,290,2
299,285,297,292,2
301,285,296,294,2
304,288,296,296,2
307,292,297,297,2
309,293,299,299,2
311,293,302,303,2
312,292,306,307,2
312,294,309,312,2
313,297,312,317,2
312,301,313,322,2
311,305,313,327,2
309,309,314,329,2
306,312,315,329,2
304,311,315,326,2
303,311,315,322,2
302,311,312,317,2
301,312,307,312,2
300,313,302,309,2
299,315,297,307,2
298,315,295,306,2
297,315,295,306,2
297,314,295,305,2
299,312,297,305,2
302,310,300,307,2
304,310,303,310,2
307,314,306,315,2
308,322,310,318,2
309,331,313,320,2
309,337,315,321,2
309,338,315,323,2
307,335,314,325,2
306,330,313,327,2
305,324,314,328,2
305,315,317,329,2
305,305,321,329,2
305,299,323,330,2
303,297,324,330,2
302,298,321,329,2
300,299,317,328,2
299,302,312,325,2
299,304,308,320,2
300,304,303,312,2
302,303,299,303,2
303,301,296,294,2
304,297,294,287,2
305,293,294,280,2
305,288,296,277,2
306,286,300,275,2
306,286,306,277,2
306,289,313,282,2
306,293,316,288,2
306,297,318,294,2
305,302,316,299,2
305,307,313,304,2
304,312,307,306,2
304,315,302,307,2
303,317,299,307,2
303,316,298,305,2
303,312,298,302,2
302,306,300,298,2
302,302,302,293,2
302,298,304,290,2
301,296,307,288,2
301,294,309,288,2
300,294,309,290,2
300,296,307,293,2
300,300,306,297,2
303,305,306,302,2
306,311,307,307,2
309,318,307,311,2
312,328,308,314,2
314,341,308,314,2
316,354,307,313,2
315,364,307,310,2
314,369,306,306,2
313,368,306,302,2
310,363,307,298,2
305,350,308,292,2
299,330,310,287,2
295,306,311,284,2
294,285,310,282,2
294,267,307,282,2
295,255,303,284,2
297,249,301,290,2
299,248,300,297,2
300,252,300,306,2
302,260,301,312,2
302,270,302,317,2
303,279,305,319,2
303,287,308,320,2
303,293,310,320,2
303,297,312,318,2
303,301,312,317,2
303,304,312,315,2
303,306,311,316,2
303,309,310,318,2
303,310,308,320,2
303,310,306,324,2
304,309,304,328,2
304,309,303,331,2
304,309,302,333,2
304,312,303,335,2
305,317,304,339,2
306,321,306,342,2
307,324,308,343,2
309,324,310,342,2
310,323,312,336,2
310,317,313,326,2
310,308,315,314,2
310,298,317,304,2
309,294,318,297,2
308,293,318,293,2
308,296,318,292,2
308,299,316,296,2
308,304,314,302,2
306,309,314,309,2
303,314,315,315,2
302,317,316,320,2
302,321,318,325,2
303,324,318,329,2
304,328,317,331,2
304,334,313,330,2
304,338,308,327,2
304,340,305,319,2
305,336,302,308,2
305,329,301,295,2
306,318,301,283,2
306,307,300,275,2
307,298,299,271,2
307,293,298,270,2
306,293,297,272,2
305,296,296,274,2
303,298,296,276,2
302,299,296,279,2
301,300,297,283,2
300,298,299,288,2
298,297,300,292,2
298,297,301,296,2
299,299,302,299,2
300,302,301,302,2
301,305,301,304,2
302,306,301,305,2
303,304,302,303,2
304,301,303,301,2
306,296,304,298,2
308,293,305,297,2
310,289,306,297,2
310,287,305,298,2
309,285,304,301,2
308,286,303,304,2
306,290,303,308,2
303,296,303,311,2
303,303,303,314,2
302,309,304,317,2
303,313,305,320,2
303,313,305,322,2
304,311,306,323,2
305,309,309,324,2
306,309,311,323,2
306,310,313,322,2
305,312,314,320,2
304,314,314,317,2
303,314,314,313,2
303,312,311,311,2
304,306,310,311,2
306,301,308,310,2
307,299,308,310,2
309,300,308,312,2
311,302,309,316,2
312,306,311,321,2
311,309,313,327,2
309,310,313,331,2
307,308,311,331,2
305,307,309,329,2
305,308,306,324,2
305,309,304,318,2
306,311,302,312,2
308,312,301,308,2
308,313,301,304,2
305,313,300,301,2
301,314,300,298,2
298,313,300,296,2
297,310,299,294,2
297,306,298,293,2
299,302,297,293,2
301,303,297,292,2
303,311,299,292,2
304,319,303,291,2
306,324,306,290,2
307,326,309,289,2
307,326,312,289,2
307,323,314,288,2
306,319,315,288,2
305,318,315,288,2
304,319,314,291,2
304,321,312,295,2
303,321,310,299,2
304,319,308,303,2
303,315,306,307,2
303,312,303,310,2
303,309,300,313,2
303,306,298,315,2
304,303,299,316,2
306,300,300,315,2
309,297,302,313,2
313,297,305,310,2
315,297,308,309,2
316,298,311,308,2
316,300,314,307,2
313,304,314,308,2
310,311,312,307,2
306,322,306,305,2
304,334,300,301,2
304,345,296,296,2
305,354,293,293,2
306,356,294,293,2
307,348,296,297,2
307,332,300,304,2
307,315,304,312,2
308,301,308,319,2
309,292,311,325,2
310,285,313,328,2
311,282,314,328,2
312,281,315,327,2
313,283,315,325,2
315,287,311,322,2
316,292,306,320,2
316,298,302,317,2
315,304,298,314,2
313,311,296,313,2
311,315,296,314,2
309,316,297,316,2
308,317,301,318,2
306,317,304,320,2
305,315,308,319,2
304,307,311,316,2
304,295,313,311,2
306,287,314,306,2
307,285,315,303,2
309,285,314,304,2
310,286,313,306,2
310,288,310,308,2
310,291,306,309,2
310,291,301,310,2
311,288,298,310,2
312,287,297,312,2
313,289,297,313,2
314,293,297,314,2
314,298,299,317,2
314,305,302,321,2
314,315,305,324,2
314,325,307,323,2
313,334,309,319,2
313,339,311,313,2
313,339,312,306,2
313,330,313,300,2
314,315,313,297,2
314,297,313,295,2
312,284,312,296,2
309,280,310,298,2
306,280,308,301,2
305,282,306,304,2
305,283,304,307,2
305,286,304,309,2
306,287,304,310,2
307,288,304,308,2
308,288,303,304,2
309,288,304,300,2
310,290,306,296,2
311,295,311,295,2
311,301,315,296,2
311,306,319,298,2
309,309,320,302,2
308,309,319,305,2
307,309,314,308,2
306,311,308,310,2
305,319,302,312,2
304,331,296,313,2
304,344,291,311,2
302,353,287,307,2
301,355,286,301,2
301,346,286,294,2
303,329,288,289,2
306,309,294,286,2
311,291,299,287,2
317,278,304,291,2
321,272,307,298,2
324,276,308,305,2
321,285,307,311,2
314,294,306,314,2
306,300,304,315,2
300,303,303,314,2
296,305,303,313,2
296,306,302,312,2
297,307,301,311,2
298,308,300,309,2
299,308,300,308,2
300,306,299,305,2
301,303,299,302,2
302,303,299,300,2
302,304,300,299,2
303,303,300,299,2
303,300,301,300,2
304,297,301,301,2
306,292,301,303,2
308,285,300,304,2
309,277,300,305,2
310,270,300,306,2
310,269,303,309,2
310,274,306,314,2
309,283,309,317,2
307,291,310,319,2
305,299,311,319,2
303,306,311,319,2
302,310,311,319,2
301,313,310,317,2
300,316,307,313,2
299,318,304,311,2
298,321,300,309,2
298,323,297,310,2
298,325,296,312,2
299,324,296,313,2
299,323,299,313,2
300,320,300,311,2
302,318,302,310,2
304,318,302,309,2
306,317,302,310,2
307,316,301,313,2
308,314,300,320,2
308,311,300,326,2
306,309,300,330,2
303,310,299,329,2
300,310,298,324,2
298,308,297,315,2
297,306,297,306,2
297,302,297,299,2
297,300,298,294,2
298,300,299,291,2
299,302,302,289,2
299,302,304,288,2
300,301,306,289,2
301,297,307,291,2
303,293,309,294,2
304,289,310,295,2
304,285,311,296,2
304,280,309,296,2
304,277,308,295,2
305,275,306,295,2
307,276,306,295,2
308,280,306,298,2
308,288,308,303,2
307,297,309,308,2
305,305,310,312,2
303,312,311,316,2
300,315,313,320,2
298,315,314,325,2
296,314,313,330,2
296,315,312,334,2
298,316,312,336,2
300,319,312,336,2
302,321,310,334,2
302,323,306,330,2
304,324,302,324,2
305,327,300,320,2
308,329,302,319,2
311,329,306,320,2
313,327,312,322,2
313,324,315,322,2
312,321,317,320,2
310,316,317,317,2
307,311,316,312,2
306,303,314,308,2
309,295,313,305,2
312,290,311,302,2
313,286,309,298,2
309,285,307,296,2
306,285,308,297,2
303,289,309,300,2
300,291,310,305,2
299,292,310,309,2
299,291,308,312,2
299,290,307,312,2
301,287,304,310,2
303,283,302,306,2
305,278,300,301,2
308,272,300,295,2
310,266,301,293,2
312,264,301,293,2
312,268,302,295,2
311,279,302,298,2
310,292,303,302,2
308,305,305,305,2
307,317,307,307,2
306,324,310,309,2
305,327,314,310,2
304,328,317,311,2
303,326,320,313,2
303,324,322,315,2
304,322,322,317,2
304,319,320,317,2
305,318,316,314,2
304,317,312,309,2
304,316,308,306,2
303,314,306,305,2
304,311,304,306,2
305,307,303,309,2
306,303,303,312,2
309,300,303,315,2
312,298,304,319,2
314,299,306,326,2
315,306,308,333,2
314,316,309,336,2
313,325,308,334,2
310,333,305,328,2
308,336,303,320,2
307,334,301,312,2
306,326,301,305,2
305,316,300,300,2
303,302,300,297,2
302,291,300,297,2
300,288,300,297,2
299,291,301,298,2
299,295,302,300,2
301,300,303,304,2
305,303,306,309,2
310,304,309,315,2
314,302,311,320,2
316,300,310,324,2
318,299,310,326,2
316,297,309,328,2
311,296,310,329,2
306,295,310,329,2
302,294,311,328,2
300,289,312,327,2
299,282,313,325,2
299,278,314,322,2
300,275,315,320,2
301,274,316,315,2
301,279,317,310,2
302,288,317,306,2
302,297,315,303,2
303,302,313,302,2
304,304,309,301,2
306,304,305,302,2
308,303,302,303,2
311,302,300,304,2
312,302,300,307,2
311,305,302,311,2
310,310,306,313,2
308,313,311,311,2
305,316,315,309,2
303,320,317,305,2
302,324,316,301,2
300,324,315,297,2
300,321,312,294,2
300,314,309,292,2
300,309,309,292,2
300,305,309,294,2
300,304,309,298,2
299,304,308,303,2
298,304,308,308,2
297,304,307,312,2
297,305,307,315,2
297,305,307,318,2
299,305,306,321,2
302,305,305,323,2
304,306,304,323,2
305,308,303,321,2
306,311,302,318,2
306,316,302,316,2
306,323,302,313,2
305,328,301,310,2
304,332,298,305,2
302,333,295,299,2
301,331,294,294,2
301,325,295,289,2
302,318,297,287,2
303,312,299,288,2
304,308,303,290,2
304,305,305,294,2
303,303,307,296,2
302,300,308,298,2
303,297,309,299,2
303,294,310,301,2
303,290,311,302,2
304,285,312,303,2
305,281,314,304,2
306,276,314,304,2
306,274,314,306,2
305,276,313,307,2
303,281,313,310,2
299,291,310,315,2
295,302,307,323,2
292,311,304,330,2
292,317,304,336,2
294,320,304,336,2
296,320,305,333,2
297,316,307,327,2
299,311,309,321,2
302,306,310,316,2
305,303,313,313,2
309,301,315,311,2
311,302,316,311,2
313,304,315,312,2
315,310,314,314,2
317,318,312,316,2
316,325,309,317,2
313,330,306,317,2
310,333,303,317,2
306,334,301,316,2
304,332,301,315,2
302,328,302,313,2
300,324,303,312,2
299,320,304,312,2
299,316,303,310,2
299,312,301,308,2
300,308,299,308,2
300,302,298,307,2
298,297,296,307,2
296,292,297,308,2
295,292,299,309,2
295,293,304,310,2
297,295,309,311,2
302,298,312,313,2
306,301,314,313,2
308,302,316,312,2
309,302,318,312,2
309,303,319,312,2
309,305,321,314,2
309,308,322,316,2
310,310,321,316,2
311,311,316,315,2
313,311,310,311,2
314,309,304,304,2
315,306,299,298,2
316,303,296,291,2
317,302,293,287,2
317,303,292,285,2
314,306,293,285,2
308,311,294,288,2
303,317,295,291,2
301,322,296,295,2
301,322,296,298,2
303,319,295,303,2
305,315,296,306,2
309,311,296,309,2
312,308,297,311,2
315,308,298,311,2
316,310,298,310,2
316,313,299,309,2
315,315,299,309,2
315,312,300,310,2
313,305,302,312,2
312,296,304,315,2
310,290,307,319,2
308,289,309,322,2
306,291,310,323,2
305,296,311,324,2
306,300,313,325,2
307,308,315,326,2
310,318,316,327,2
311,328,317,326,2
312,334,316,322,2
312,335,313,317,2
311,329,309,312,2
310,319,304,308,2
308,303,300,307,2
309,287,299,307,2
310,275,299,308,2
313,272,301,308,2
314,275,304,307,2
314,281,309,305,2
313,289,313,302,2
312,296,314,301,2
310,300,314,302,2
308,303,312,304,2
306,306,309,308,2
306,310,303,315,2
306,316,299,321,2
307,321,298,324,2
309,323,298,323,2
311,321,299,320,2
313,314,301,315,2
314,304,300,310,2
314,292,298,306,2
314,281,296,303,2
314,274,295,303,2
315,275,295,304,2
316,281,296,304,2
315,288,297,303,2
312,294,299,301,2
308,299,300,299,2
304,304,301,296,2
301,308,302,293,2
300,312,303,291,2
299,315,303,288,2
299,318,304,287,2
300,321,304,286,2
304,325,304,287,2
308,330,303,290,2
310,335,300,294,2
310,341,298,298,2
310,348,297,301,2
311,350,297,303,2
311,344,298,304,2
311,331,298,305,2
313,312,300,309,2
315,292,303,313,2
317,276,305,318,2
319,266,308,321,2
320,261,313,320,2
320,261,317,318,2
319,264,321,312,2
318,269,323,304,2
315,273,322,298,2
313,277,320,297,2
311,283,318,298,2
310,289,317,301,2
309,295,316,302,2
308,301,316,303,2
307,308,316,302,2
307,315,314,299,2
306,322,310,299,2
307,329,306,302,2
309,332,304,306,2
312,330,307,310,2
314,323,312,313,2
316,315,315,317,2
318,306,313,320,2
319,297,310,323,2
320,287,308,324,2
321,284,307,323,2
322,290,306,322,2
320,301,305,319,2
317,311,303,315,2
312,319,302,311,2
308,324,301,305,2
307,327,300,300,2
306,327,298,297,2
306,326,297,296,2
306,324,298,297,2
306,323,298,298,2
306,321,299,300,2
307,315,299,300,2
308,306,300,300,2
309,293,301,300,2
310,283,304,301,2
311,276,307,303,2
313,276,312,305,2
315,281,316,306,2
315,289,318,305,2
315,296,318,303,2
314,300,317,304,2
312,304,315,310,2
308,307,313,318,2
304,310,310,325,2
302,314,308,329,2
302,317,307,330,2
303,319,305,326,2
305,320,305,320,2
306,321,304,313,2
308,317,304,305,2
308,310,303,297,2
309,302,302,291,2
309,295,301,287,2
310,292,301,287,2
311,293,303,289,2
310,296,306,293,2
309,299,311,297,2
308,304,315,301,2
307,309,317,303,2
307,315,317,302,2
308,322,316,299,2
308,329,314,296,2
307,336,310,293,2
305,341,307,291,2
305,346,304,291,2
304,350,301,291,2
305,352,301,293,2
305,351,302,295,2
306,345,305,299,2
306,334,306,302,2
306,315,308,305,2
307,296,311,308,2
309,281,313,313,2
310,275,313,319,2
312,274,312,326,2
314,276,311,331,2
315,279,311,334,2
315,282,313,334,2
314,285,313,332,2
312,289,313,329,2
311,293,312,326,2
309,296,310,321,2
307,299,307,317,2
306,302,304,312,2
306,304,301,306,2
306,305,297,300,2
306,306,297,294,2
306,309,299,290,2
305,312,303,288,2
304,312,309,286,2
302,307,314,284,2
301,299,317,284,2
301,293,316,286,2
303,290,313,290,2
305,290,310,295,2
307,292,309,301,2
308,297,309,308,2
309,302,309,316,2
308,307,309,322,2
307,309,310,328,2
305,311,312,331,2
304,313,315,333,2
303,314,317,334,2
303,315,319,332,2
304,316,320,326,2
305,316,318,318,2
305,316,315,310,2
306,316,311,303,2
305,316,307,298,2
304,317,304,295,2
305,318,302,293,2
306,318,301,294,2
308,316,301,295,2
309,314,302,298,2
310,312,305,301,2
310,310,308,304,2
309,310,310,306,2
308,310,310,308,2
308,310,309,309,2
310,308,307,308,2
312,305,305,305,2
314,302,304,304,2
314,301,304,305,2
310,302,305,312,2
307,303,307,321,2
304,305,308,329,2
303,307,307,334,2
303,310,308,335,2
304,312,307,334,2
305,313,307,329,2
306,314,307,324,2
307,314,307,319,2
307,315,307,316,2
307,315,308,314,2
308,315,309,314,2
307,316,311,314,2
307,320,313,313,2
308,322,314,312,2
309,322,316,309,2
308,320,316,305,2
307,318,314,301,2
306,313,310,296,2
305,304,305,290,2
304,296,301,284,2
303,292,300,281,2
304,290,301,282,2
305,290,302,285,2
307,292,303,290,2
308,296,302,297,2
307,302,301,302,2
307,306,300,307,2
306,310,300,309,2
306,311,301,311,2
307,311,303,315,2
308,314,306,319,2
309,317,310,324,2
310,319,313,327,2
311,319,313,328,2
310,319,311,327,2
307,319,308,326,2
304,318,305,322,2
301,314,304,317,2
299,309,303,310,2
300,304,303,304,2
301,299,304,298,2
303,297,305,293,2
303,297,305,289,2
303,301,306,287,2
302,306,307,286,2
301,312,307,288,2
301,317,307,290,2
302,321,307,291,2
304,325,307,293,2
305,327,306,294,2
307,324,306,294,2
308,319,308,296,2
310,311,311,299,2
311,303,317,302,2
312,295,322,305,2
311,291,323,307,2
310,292,319,308,2
308,298,314,309,2
306,304,310,308,2
305,309,307,306,2
305,311,305,304,2
305,313,304,301,2
305,314,303,300,2
306,317,303,299,2
308,320,302,300,2
308,324,300,301,2
308,327,298,302,2
308,329,299,304,2
308,328,300,307,2
309,324,302,309,2
312,321,305,312,2
314,317,308,314,2
316,314,311,316,2
316,312,313,318,2
314,311,315,318,2
311,308,314,318,2
308,303,312,317,2
306,297,308,316,2
304,291,305,314,2
304,287,303,312,2
304,286,303,310,2
304,285,303,308,2
303,285,304,307,2
302,286,303,310,2
302,286,301,316,2
303,285,299,321,2
304,285,297,325,2
306,286,295,327,2
309,287,296,326,2
311,289,298,321,2
312,293,300,316,2
312,297,303,308,2
311,300,305,302,2
310,303,308,299,2
310,309,308,300,2
311,316,307,301,2
310,323,306,302,2
309,328,306,301,2
307,330,308,299,2
306,328,310,296,2
306,322,311,294,2
308,314,311,293,2
311,303,310,293,2
315,291,309,295,2
315,282,308,301,2
312,279,308,309,2
307,281,308,317,2
303,284,308,323,2
299,289,308,327,2
297,294,311,330,2
297,301,314,333,2
298,309,318,333,2
302,316,321,331,2
307,322,322,326,2
312,325,320,319,2
314,326,314,311,2
314,324,308,303,2
311,319,303,297,2
307,311,302,293,2
304,302,301,289,2
300,294,302,287,2
299,287,303,287,2
298,281,305,287,2
299,277,307,288,2
300,276,308,289,2
301,277,308,289,2
302,279,309,290,2
304,282,308,293,2
306,286,305,295,2
308,292,301,298,2
311,298,299,301,2
312,304,298,303,2
313,309,299,305,2
313,314,300,306,2
312,317,302,307,2
311,318,302,307,2
309,315,302,306,2
308,312,302,305,2
307,307,302,304,2
306,301,301,304,2
306,295,300,304,2
304,289,299,305,2
304,286,298,306,2
304,285,299,307,2
305,288,302,309,2
305,295,307,312,2
306,302,314,313,2
307,307,321,315,2
309,307,325,315,2
309,305,325,317,2
309,304,321,318,2
309,306,314,321,2
308,312,308,324,2
308,315,304,329,2
307,314,302,332,2
306,308,302,333,2
306,302,304,329,2
306,294,305,322,2
306,288,307,312,2
306,285,307,302,2
307,284,307,294,2
308,285,305,287,2
309,288,303,283,2
311,293,300,282,2
312,300,298,283,2
311,307,297,287,2
309,311,297,291,2
307,310,298,296,2
305,305,300,302,2
305,299,304,309,2
307,294,309,314,2
309,291,314,316,2
310,289,318,316,2
311,289,319,317,2
311,291,319,318,2
311,294,319,319,2
310,298,317,320,2
309,300,316,321,2
309,301,316,321,2
308,301,317,319,2
307,299,316,315,2
306,295,315,309,2
307,291,311,303,2
308,291,305,298,2
311,297,301,295,2
314,306,297,294,2
315,316,294,294,2
313,322,293,295,2
311,325,293,297,2
309,325,296,299,2
306,323,301,301,2
304,320,307,302,2
304,318,311,302,2
305,314,313,303,2
305,308,313,304,2
303,306,312,305,2
301,307,309,306,2
298,312,305,305,2
297,317,301,306,2
297,322,299,306,2
298,326,299,308,2
299,325,299,312,2
301,319,300,317,2
302,312,300,322,2
305,304,298,326,2
306,295,297,324,2
304,287,297,318,2
302,282,298,311,2
301,278,302,303,2
302,275,306,298,2
305,274,310,297,2
309,275,313,298,2
310,280,314,299,2
311,285,313,300,2
310,290,312,299,2
310,292,308,299,2
309,294,305,299,2
308,295,302,301,2
307,297,302,303,2
306,299,303,306,2
305,303,305,309,2
305,309,307,313,2
305,315,310,316,2
306,318,312,321,2
307,319,315,326,2
308,319,315,331,2
308,318,312,332,2
308,315,306,329,2
308,310,300,321,2
307,304,295,313,2
306,301,293,309,2
305,302,292,307,2
304,308,291,305,2
304,317,292,303,2
306,325,293,298,2
308,329,295,293,2
310,329,297,287,2
311,327,298,283,2
311,320,299,281,2
309,310,299,281,2
307,301,299,282,2
304,294,299,284,2
302,287,299,286,2
300,282,302,289,2
300,277,304,293,2
299,272,307,296,2
299,267,307,300,2
300,262,308,303,2
303,259,307,306,2
306,261,307,308,2
309,266,306,309,2
311,270,306,310,2
312,274,308,313,2
312,279,311,315,2
311,286,312,316,2
309,296,312,316,2
306,306,312,316,2
304,314,311,316,2
303,321,309,317,2
302,328,308,317,2
301,333,308,313,2
301,334,307,307,2
301,330,306,301,2
302,325,306,296,2
303,318,309,292,2
304,310,311,290,2
304,301,313,290,2
304,293,312,291,2
304,288,308,292,2
305,286,303,292,2
305,286,301,292,2
302,288,302,291,2
299,294,304,291,2
296,302,306,293,2
295,312,308,296,2
294,321,309,299,2
296,328,307,300,2
297,331,306,303,2
299,334,305,306,2
300,333,304,310,2
301,328,303,312,2
301,319,300,313,2
302,307,297,312,2
302,295,294,310,2
300,288,292,306,2
299,285,292,304,2
298,283,292,302,2
299,279,292,302,2
300,276,291,303,2
301,275,291,306,2
302,278,292,310,2
303,285,293,314,2
304,294,294,316,2
304,303,296,316,2
304,310,300,314,2
304,317,304,312,2
304,320,307,309,2
303,321,308,307,2
302,323,307,305,2
299,324,304,302,2
297,323,299,300,2
295,318,297,298,2
295,308,296,298,2
295,297,297,299,2
295,291,297,303,2
295,289,297,308,2
296,289,298,315,2
297,289,300,323,2
299,289,304,332,2
301,288,310,339,2
302,287,316,344,2
304,289,321,343,2
307,293,324,340,2
308,301,325,335,2
309,312,325,329,2
309,324,323,323,2
307,337,319,319,2
305,346,314,316,2
302,346,310,312,2
300,338,308,308,2
298,323,308,303,2
297,308,309,300,2
298,293,312,296,2
298,281,314,291,2
299,272,316,286,2
299,266,316,283,2
299,264,312,281,2
300,266,306,284,2
301,276,300,290,2
301,289,294,298,2
302,298,289,304,2
301,304,286,309,2
303,310,284,311,2
305,317,285,310,2
305,322,286,307,2
302,326,289,302,2
297,327,292,298,2
294,326,295,297,2
293,324,298,299,2
295,323,301,303,2
296,322,302,307,2
298,323,303,310,2
300,327,303,313,2
302,329,302,313,2
303,328,301,312,2
303,321,299,309,2
305,309,297,307,2
308,295,297,308,2
313,285,297,311,2
317,279,299,314,2
319,275,300,317,2
318,270,302,320,2
314,268,304,324,2
310,268,308,328,2
308,274,311,328,2
306,287,312,323,2
304,301,311,317,2
301,313,310,312,2
300,320,311,309,2
298,324,312,307,2
297,325,309,304,2
295,325,305,299,2
293,328,300,295,2
292,333,298,290,2
290,334,298,284,2
290,329,299,277,2
291,318,302,272,2
294,307,307,270,2
299,296,313,271,2
303,288,317,275,2
307,285,318,282,2
308,291,315,291,2
308,301,310,302,2
306,312,304,312,2
304,322,300,317,2
302,327,298,320,2
300,329,298,320,2
298,327,299,321,2
298,323,301,326,2
298,319,305,333,2
299,316,308,338,2
300,315,309,339,2
301,316,309,336,2
300,316,306,331,2
299,316,306,325,2
299,316,311,321,2
300,317,319,317,2
304,316,327,314,2
309,316,333,312,2
314,319,333,310,2
318,321,330,310,2
320,321,325,309,2
320,320,318,308,2
319,316,308,305,2
316,310,298,301,2
313,302,292,295,2
311,295,288,288,2
309,292,287,283,2
304,290,287,278,2
298,291,288,274,2
290,294,289,271,2
286,298,291,270,2
285,301,294,269,2
288,302,297,271,2
293,298,300,273,2
297,290,301,276,2
298,280,302,279,2
299,274,302,282,2
301,272,303,289,2
304,276,304,297,2
307,281,307,305,2
310,288,310,315,2
311,296,313,324,2
313,306,315,332,2
313,317,316,338,2
313,328,315,340,2
312,338,311,340,2
310,347,305,337,2
309,354,301,332,2
309,357,299,326,2
309,355,298,320,2
308,348,298,314,2
306,336,296,308,2
304,321,295,303,2
301,308,294,301,2
300,299,295,301,2
301,293,297,301,2
303,289,299,301,2
306,285,300,303,2
311,284,302,306,2
317,286,304,309,2
323,292,307,311,2
326,298,309,312,2
324,303,311,312,2
318,304,311,308,2
312,302,311,305,2
307,301,308,304,2
304,302,305,307,2
303,304,303,311,2
301,308,302,316,2
300,313,302,318,2
299,316,302,318,2
299,317,303,317,2
300,316,303,313,2
300,314,301,308,2
301,311,300,303,2
301,306,302,299,2
302,302,309,296,2
302,299,318,296,2
303,299,327,299,2
304,301,333,303,2
306,303,334,308,2
309,305,329,314,2
310,308,321,319,2
310,311,314,324,2
310,313,312,326,2
309,315,311,326,2
309,316,312,323,2
309,318,311,318,2
309,320,309,312,2
309,321,306,306,2
309,322,302,301,2
308,323,300,297,2
306,323,299,295,2
304,322,299,296,2
303,323,300,299,2
303,326,302,303,2
304,330,304,307,2
305,334,305,309,2
305,336,305,311,2
306,334,304,311,2
308,327,304,309,2
310,316,304,306,2
312,305,305,304,2
313,297,305,302,2
314,289,306,303,2
315,283,306,306,2
316,281,308,309,2
317,285,308,312,2
316,290,309,314,2
314,293,309,313,2
310,296,308,312,2
306,299,306,308,2
303,301,304,304,2
303,303,302,298,2
303,304,301,293,2
304,304,302,290,2
306,303,304,288,2
307,299,307,287,2
309,294,311,288,2
310,291,315,293,2
311,292,321,299,2
311,294,327,306,2
311,299,332,311,2
312,307,336,314,2
314,314,337,314,2
316,319,335,312,2
317,319,331,308,2
316,316,325,306,2
315,312,318,306,2
312,309,312,309,2
309,309,307,313,2
307,310,303,317,2
304,310,300,319,2
302,311,296,321,2
301,311,293,321,2
301,312,291,321,2
303,313,291,320,2
307,316,293,319,2
309,321,297,318,2
311,328,300,317,2
312,333,304,317,2
313,337,307,317,2
314,338,309,316,2
313,335,309,315,2
312,329,308,313,2
311,322,305,311,2
310,317,301,309,2
310,313,298,306,2
309,308,298,302,2
310,301,302,297,2
311,294,313,291,2
311,287,327,287,2
309,283,340,285,2
305,284,347,288,2
302,289,346,294,2
302,296,336,301,2
302,302,321,308,2
303,307,305,315,2
304,312,294,322,2
305,315,289,327,2
307,316,288,329,2
311,316,290,330,2
315,317,293,330,2
317,315,296,327,2
317,313,299,322,2
317,313,301,317,2
316,315,303,313,2
314,314,303,309,2
311,309,303,304,2
