278,317,368,345,1
273,317,369,344,1
279,318,372,336,1
288,320,375,320,1
296,320,375,301,1
299,320,375,284,1
298,319,374,271,1
296,319,373,264,1
294,318,374,260,1
289,317,373,258,1
285,316,371,258,1
288,315,368,257,1
294,314,364,254,1
296,312,360,250,1
289,309,356,248,1
281,306,354,248,1
275,306,353,251,1
275,307,354,254,1
281,308,357,257,1
287,310,360,260,1
291,313,362,263,1
291,317,364,266,1
292,320,364,268,1
294,321,365,270,1
297,321,365,269,1
301,321,365,269,1
305,320,366,269,1
304,319,367,270,1
300,319,367,271,1
293,320,368,273,1
289,320,369,275,1
292,320,370,276,1
298,319,370,276,1
307,317,371,278,1
314,314,372,279,1
317,313,373,281,1
317,312,374,283,1
317,311,374,286,1
317,312,374,288,1
317,312,374,289,1
317,313,374,288,1
317,314,372,286,1
316,315,371,285,1
314,316,370,284,1
313,318,371,284,1
311,319,371,286,1
307,320,371,288,1
303,320,371,288,1
299,320,370,288,1
298,320,369,289,1
297,319,368,290,1
297,319,368,291,1
298,318,366,293,1
300,316,365,295,1
301,315,364,297,1
302,314,363,299,1
301,315,362,301,1
298,316,361,302,1
295,316,359,302,1
292,317,356,301,1
287,317,353,299,1
284,318,350,299,1
285,320,348,299,1
289,322,346,299,1
293,322,345,298,1
295,320,344,297,1
294,316,342,294,1
294,312,341,291,1
297,310,340,289,1
305,308,338,287,1
313,306,337,286,1
318,306,336,284,1
317,307,333,283,1
312,308,329,282,1
308,309,325,281,1
305,311,322,282,1
302,313,319,285,1
300,314,318,287,1
299,316,318,290,1
299,317,318,293,1
298,317,318,296,1
297,315,318,298,1
297,311,318,298,1
298,301,318,297,1
301,290,317,296,1
308,277,316,294,1
317,269,315,294,1
325,266,315,295,1
332,267,314,295,1
335,271,312,295,1
334,277,309,296,1
325,288,308,298,1
314,306,307,302,1
306,323,309,307,1
299,330,311,309,1
294,325,309,308,1
292,314,306,304,1
292,301,302,300,1
293,290,300,295,1
295,285,301,293,1
296,284,303,293,1
295,286,306,292,1
295,290,313,291,1
300,292,326,291,1
311,287,342,292,1
321,275,356,293,1
319,264,360,292,1
303,250,351,288,1
276,229,337,283,1
258,202,321,278,1
265,171,304,271,1
286,144,284,264,1
295,127,265,255,1
291,128,251,248,1
288,143,244,247,1
296,168,242,252,1
319,192,246,262,1
354,214,253,274,1
389,237,260,286,1
415,265,264,295,1
423,296,261,298,1
393,326,252,296,1
333,354,242,291,1
281,382,236,288,1
260,404,235,288,1
264,415,238,291,1
271,410,238,295,1
272,391,235,299,1
258,363,229,301,1
235,329,224,304,1
216,287,224,306,1
222,236,230,306,1
255,184,233,303,1
284,142,228,296,1
288,114,217,286,1
277,107,203,276,1
266,119,191,273,1
263,149,185,277,1
270,190,190,288,1
290,236,199,299,1
314,282,206,305,1
322,326,205,304,1
301,367,198,298,1
265,401,190,290,1
236,424,184,282,1
223,430,183,274,1
229,423,182,268,1
248,407,180,263,1
268,391,174,258,1
284,379,167,256,1
298,371,162,257,1
313,365,163,263,1
328,357,166,270,1
327,345,170,277,1
309,335,174,284,1
286,326,177,287,1
269,317,183,287,1
257,309,189,283,1
252,302,194,280,1
251,299,201,280,1
252,302,208,283,1
253,308,216,288,1
253,314,222,290,1
253,319,226,291,1
254,318,231,291,1
256,311,236,289,1
261,303,240,288,1
268,300,244,286,1
277,305,246,285,1
289,322,247,284,1
304,346,247,286,1
318,369,248,291,1
329,381,250,293,1
332,386,252,293,1
326,387,254,294,1
316,387,257,295,1
308,385,262,295,1
302,378,269,294,1
299,371,278,295,1
298,363,287,296,1
300,356,294,298,1
302,351,300,300,1
303,345,304,302,1
304,340,307,302,1
305,336,308,302,1
307,336,309,302,1
309,339,308,303,1
309,343,308,304,1
307,345,309,303,1
305,342,310,303,1
305,336,312,304,1
304,330,316,304,1
304,325,320,305,1
303,322,326,306,1
303,320,333,308,1
302,318,343,308,1
299,316,353,307,1
300,315,362,308,1
304,315,369,309,1
310,317,371,311,1
315,320,370,315,1
317,325,366,320,1
317,329,359,326,1
315,331,349,334,1
317,332,339,342,1
325,336,331,349,1
341,343,328,350,1
361,349,329,344,1
382,353,334,334,1
396,350,340,323,1
397,339,346,314,1
388,328,350,310,1
378,318,356,309,1
371,310,363,309,1
359,300,368,310,1
334,290,371,308,1
296,281,375,302,1
264,274,382,291,1
253,271,394,277,1
257,270,410,265,1
268,272,427,257,1
284,278,441,254,1
300,288,453,256,1
313,304,461,259,1
321,324,462,263,1
331,335,457,266,1
343,336,444,271,1
344,329,430,279,1
333,331,417,293,1
318,349,409,313,1
307,370,405,339,1
306,385,405,370,1
320,392,404,400,1
348,393,398,422,1
378,389,386,427,1
395,380,366,412,1
398,369,334,386,1
403,358,299,364,1
430,353,279,350,1
474,352,275,339,1
516,358,280,328,1
534,369,290,318,1
519,384,309,318,1
472,400,338,325,1
405,411,373,329,1
345,415,409,323,1
299,410,446,309,1
264,399,480,291,1
237,384,511,274,1
212,362,539,259,1
192,338,559,245,1
182,319,571,235,1
183,307,573,231,1
193,304,557,237,1
211,310,515,253,1
238,317,447,271,1
268,320,370,288,1
288,321,302,311,1
296,322,251,347,1
302,326,221,394,1
314,329,209,438,1
335,327,208,467,1
363,320,215,486,1
386,312,220,495,1
393,303,218,488,1
389,294,212,465,1
384,291,192,431,1
385,301,158,396,1
390,318,122,369,1
391,333,96,347,1
381,342,76,316,1
367,350,69,276,1
358,356,92,240,1
344,360,157,216,1
318,361,253,202,1
283,361,362,192,1
244,359,462,181,1
210,354,546,170,1
186,350,605,162,1
165,347,630,157,1
149,345,610,156,1
140,346,547,159,1
143,346,465,165,1
156,347,384,173,1
174,348,319,182,1
193,350,277,195,1
213,353,259,212,1
235,354,260,236,1
271,356,267,269,1
327,357,267,313,1
384,357,256,369,1
431,361,240,433,1
462,366,217,502,1
469,364,185,565,1
449,354,155,615,1
417,345,136,647,1
388,343,138,663,1
375,350,162,659,1
389,359,195,624,1
419,365,224,546,1
435,368,246,444,1
415,372,268,347,1
351,376,286,279,1
270,379,286,247,1
208,380,259,239,1
163,376,210,239,1
147,367,161,240,1
151,361,125,243,1
175,364,97,258,1
210,374,92,281,1
245,384,103,299,1
265,390,118,303,1
275,398,134,305,1
292,409,141,324,1
315,422,138,366,1
337,431,124,419,1
347,427,101,472,1
340,408,83,521,1
327,379,85,553,1
320,355,119,539,1
325,350,179,482,1
340,359,241,417,1
351,370,279,359,1
343,374,294,305,1
323,368,303,245,1
310,364,319,189,1
312,364,338,147,1
313,367,348,114,1
311,367,346,90,1
309,365,339,80,1
301,360,327,83,1
280,355,314,97,1
256,350,304,120,1
244,347,299,147,1
242,347,300,175,1
239,348,305,199,1
234,350,310,217,1
235,353,313,224,1
244,358,315,219,1
258,364,317,212,1
276,372,315,208,1
295,382,305,212,1
308,391,288,219,1
310,396,267,230,1
303,402,251,246,1
298,407,247,265,1
300,408,258,284,1
309,405,290,296,1
324,400,335,300,1
330,394,373,299,1
311,388,382,303,1
282,383,358,319,1
269,381,313,345,1
277,383,262,375,1
300,385,218,399,1
335,385,180,415,1
369,383,145,418,1
397,381,115,404,1
415,378,95,372,1
419,374,86,338,1
404,369,85,311,1
374,367,93,294,1
342,367,105,280,1
312,366,125,267,1
282,367,156,254,1
247,371,187,242,1
217,378,210,231,1
198,384,217,225,1
190,388,214,224,1
186,388,210,225,1
187,388,216,229,1
198,390,233,238,1
220,390,253,253,1
248,387,268,271,1
275,380,276,289,1
301,373,283,305,1
327,366,291,313,1
345,360,299,311,1
351,355,301,307,1
342,349,292,301,1
318,337,273,293,1
284,323,252,285,1
250,311,233,281,1
219,303,225,285,1
191,299,230,295,1
172,297,246,309,1
168,293,263,320,1
185,293,284,326,1
228,304,306,327,1
289,321,328,322,1
358,336,342,307,1
417,345,348,284,1
445,346,345,265,1
432,344,336,253,1
386,341,327,250,1
327,342,326,254,1
273,348,327,259,1
239,358,330,263,1
237,367,336,268,1
267,370,345,277,1
312,366,356,287,1
353,357,367,294,1
367,345,372,296,1
351,334,368,292,1
336,325,359,284,1
334,321,348,274,1
326,322,337,265,1
320,327,326,259,1
332,336,319,259,1
360,347,319,265,1
387,356,327,277,1
397,362,339,294,1
386,365,352,313,1
373,365,363,329,1
366,364,370,337,1
353,360,372,334,1
329,352,370,321,1
302,346,369,304,1
269,342,367,288,1
228,338,367,278,1
188,334,369,274,1
165,328,370,271,1
160,321,373,269,1
172,317,380,269,1
193,315,388,273,1
219,316,398,279,1
251,318,407,284,1
286,318,413,290,1
322,314,414,294,1
361,308,402,295,1
396,301,376,293,1
414,295,346,288,1
410,291,323,283,1
382,286,313,278,1
327,280,315,275,1
266,277,324,275,1
231,281,340,280,1
227,291,360,289,1
241,309,379,298,1
263,326,396,306,1
287,338,413,313,1
311,343,429,318,1
331,344,441,320,1
344,344,450,320,1
349,344,455,318,1
346,341,451,314,1
332,336,443,308,1
308,330,431,300,1
281,324,415,292,1
265,319,396,285,1
264,312,375,280,1
274,302,357,278,1
292,290,345,278,1
314,276,340,280,1
332,266,337,281,1
347,258,339,282,1
360,253,343,282,1
370,252,348,282,1
371,253,353,280,1
356,258,359,280,1
327,276,365,281,1
300,302,370,283,1
286,323,371,284,1
282,333,368,283,1
290,336,362,282,1
301,333,358,280,1
306,326,358,277,1
299,317,362,276,1
290,309,367,275,1
288,304,370,276,1
290,303,372,277,1
295,308,372,279,1
307,313,370,282,1
331,317,366,285,1
361,318,362,287,1
384,314,357,290,1
392,307,352,293,1
385,299,346,297,1
358,291,340,300,1
315,283,335,304,1
276,279,335,309,1
252,274,339,313,1
237,269,348,316,1
229,267,362,315,1
227,271,377,311,1
233,281,391,305,1
248,295,406,299,1
272,309,418,294,1
298,318,421,289,1
319,322,416,286,1
333,322,403,284,1
341,319,379,282,1
342,311,345,279,1
336,300,310,277,1
319,291,281,276,1
295,288,264,277,1
271,290,261,283,1
255,295,268,290,1
251,299,281,298,1
260,300,294,304,1
276,298,305,309,1
294,294,314,312,1
307,288,321,313,1
314,282,325,315,1
315,279,327,317,1
312,277,329,318,1
307,277,332,322,1
300,275,334,326,1
285,272,333,331,1
262,276,328,335,1
241,285,322,335,1
231,297,318,329,1
233,305,315,319,1
252,308,313,306,1
282,307,313,298,1
308,305,317,294,1
325,305,321,291,1
333,307,323,289,1
343,310,323,285,1
358,311,325,280,1
372,308,328,274,1
379,302,331,269,1
374,297,331,265,1
352,294,329,263,1
317,293,325,263,1
284,293,323,265,1
263,291,323,270,1
257,288,322,278,1
261,285,319,286,1
271,283,316,294,1
279,285,314,301,1
283,287,312,307,1
279,288,311,307,1
268,288,312,306,1
257,286,315,304,1
258,281,319,305,1
270,277,323,303,1
286,275,327,300,1
298,277,330,296,1
305,281,336,293,1
309,287,340,290,1
315,293,341,288,1
318,297,341,286,1
318,299,342,286,1
312,299,346,287,1
305,300,350,288,1
298,299,352,287,1
288,297,350,286,1
275,295,345,285,1
268,291,338,288,1
269,289,331,296,1
272,288,323,305,1
269,289,315,314,1
256,292,309,321,1
240,296,305,324,1
232,298,305,322,1
233,295,306,318,1
239,288,306,312,1
251,281,305,307,1
263,277,305,304,1
272,277,307,302,1
282,280,310,303,1
292,287,315,304,1
303,295,316,302,1
314,301,318,298,1
324,308,323,293,1
332,312,329,288,1
335,313,333,285,1
333,313,337,285,1
326,312,339,286,1
317,310,338,288,1
308,306,335,290,1
300,301,331,293,1
296,295,327,296,1
297,288,320,298,1
302,284,314,299,1
311,284,309,301,1
319,285,304,303,1
323,288,300,305,1
317,290,297,307,1
303,293,293,312,1
290,294,292,317,1
283,293,290,322,1
281,292,291,323,1
283,291,293,320,1
285,291,296,317,1
288,292,298,312,1
291,292,296,305,1
294,291,291,298,1
300,290,288,294,1
310,290,287,292,1
324,290,287,293,1
332,291,287,294,1
327,290,287,292,1
309,289,287,291,1
287,289,288,293,1
272,290,290,296,1
267,292,293,301,1
271,294,294,307,1
282,296,296,315,1
294,297,296,323,1
299,298,296,331,1
301,297,296,338,1
301,296,297,342,1
301,294,299,342,1
304,292,303,336,1
308,290,309,325,1
314,290,314,314,1
315,291,317,303,1
313,290,313,294,1
306,289,304,288,1
298,288,293,285,1
288,287,284,284,1
279,285,277,284,1
274,282,274,285,1
274,281,272,286,1
279,281,271,288,1
283,282,271,291,1
282,283,272,294,1
268,283,275,297,1
242,283,277,299,1
220,284,280,301,1
213,284,281,302,1
219,286,281,303,1
236,288,281,305,1
264,291,281,309,1
290,294,282,311,1
309,296,281,313,1
324,297,283,315,1
337,296,285,315,1
344,292,286,315,1
344,287,285,315,1
338,283,282,313,1
325,282,277,309,1
306,283,269,307,1
288,286,259,307,1
279,289,249,308,1
281,290,243,311,1
288,292,244,315,1
298,294,251,322,1
307,298,263,326,1
311,302,275,327,1
313,305,284,323,1
314,306,291,318,1
314,305,296,312,1
313,303,301,308,1
310,300,307,304,1
307,297,310,301,1
306,295,312,299,1
306,294,312,299,1
306,293,308,300,1
305,294,303,302,1
303,295,295,305,1
301,296,286,309,1
300,296,278,313,1
302,295,271,316,1
305,292,267,319,1
308,289,266,320,1
312,286,264,320,1
313,282,265,320,1
309,279,269,319,1
301,277,277,319,1
294,277,288,320,1
292,280,298,320,1
293,287,302,317,1
294,295,304,312,1
296,301,305,305,1
297,304,305,300,1
296,303,300,297,1
295,300,290,296,1
295,296,277,297,1
297,294,265,298,1
299,292,256,299,1
302,292,250,300,1
304,292,246,302,1
300,293,245,304,1
289,294,245,307,1
276,295,246,310,1
268,297,249,313,1
265,298,252,317,1
268,298,257,319,1
273,297,261,321,1
274,296,263,321,1
273,294,264,320,1
274,292,265,319,1
278,291,269,318,1
284,291,274,318,1
288,292,280,319,1
290,295,287,320,1
291,298,293,323,1
295,299,297,327,1
300,298,296,329,1
305,294,287,331,1
310,288,276,330,1
313,282,266,326,1
313,277,260,319,1
312,274,257,312,1
309,274,257,307,1
310,276,259,302,1
314,278,262,299,1
318,280,265,298,1
319,283,268,299,1
319,286,271,302,1
318,289,274,304,1
316,290,276,303,1
314,290,280,301,1
314,289,282,299,1
315,287,284,296,1
315,286,286,295,1
315,285,287,295,1
314,282,287,297,1
312,280,286,298,1
309,278,285,298,1
307,278,284,297,1
307,281,282,298,1
308,284,277,299,1
309,286,271,300,1
308,287,268,302,1
308,288,270,305,1
312,291,275,311,1
316,295,283,318,1
316,301,289,323,1
315,306,292,327,1
315,308,295,330,1
313,306,296,333,1
307,302,294,335,1
301,297,291,333,1
296,294,288,325,1
295,292,285,316,1
299,292,281,306,1
305,292,277,300,1
307,291,274,297,1
304,289,272,297,1
296,288,272,298,1
288,286,273,300,1
285,286,276,302,1
287,286,282,306,1
294,285,290,311,1
301,285,299,313,1
304,287,311,313,1
305,291,320,312,1
306,295,327,311,1
306,297,329,310,1
305,298,328,310,1
303,298,327,310,1
300,295,329,309,1
293,291,335,307,1
282,287,344,305,1
268,282,350,304,1
252,278,351,302,1
247,275,342,300,1
260,277,325,300,1
284,282,304,303,1
304,290,286,307,1
315,296,276,312,1
321,299,279,316,1
324,298,291,319,1
327,296,309,321,1
329,294,329,321,1
330,293,344,318,1
327,292,350,315,1
322,290,345,313,1
317,288,331,312,1
312,286,309,311,1
308,284,284,311,1
306,282,259,308,1
306,282,239,306,1
309,283,226,304,1
313,283,221,302,1
315,283,221,300,1
315,282,225,299,1
312,280,230,298,1
307,277,236,299,1
302,271,243,302,1
296,265,248,305,1
292,261,252,309,1
290,260,255,313,1
292,263,259,317,1
295,270,263,320,1
298,278,267,322,1
299,285,269,323,1
298,290,271,324,1
293,291,274,324,1
289,288,276,324,1
284,284,279,323,1
282,279,281,319,1
281,274,281,314,1
284,268,283,312,1
290,264,288,309,1
293,260,296,306,1
293,257,303,302,1
293,255,307,301,1
294,255,307,300,1
296,255,304,301,1
297,256,299,301,1
298,258,294,301,1
301,264,288,300,1
303,275,282,300,1
306,291,277,301,1
308,307,276,300,1
309,319,278,300,1
310,325,283,300,1
309,327,289,302,1
308,327,294,306,1
305,324,298,312,1
299,320,302,319,1
292,315,305,325,1
287,310,303,330,1
286,306,297,331,1
288,303,290,329,1
295,300,283,322,1
302,300,278,313,1
307,304,276,305,1
309,309,276,300,1
310,311,278,300,1
311,310,282,304,1
313,310,284,311,1
312,310,287,319,1
304,308,289,325,1
293,306,291,328,1
288,304,292,326,1
290,303,293,320,1
298,304,294,312,1
306,306,299,307,1
312,307,307,304,1
312,306,320,302,1
308,303,334,301,1
302,301,349,301,1
297,300,364,301,1
294,299,373,302,1
294,299,369,304,1
298,298,355,305,1
304,299,339,306,1
308,301,321,306,1
309,302,304,308,1
308,300,291,308,1
307,297,283,308,1
306,292,280,307,1
306,287,280,306,1
309,284,280,305,1
311,283,281,305,1
314,284,283,307,1
319,286,285,308,1
325,291,288,310,1
332,297,291,311,1
335,303,294,310,1
338,307,297,308,1
342,311,300,306,1
344,315,302,303,1
340,318,303,301,1
329,319,306,302,1
316,319,312,304,1
308,316,323,306,1
303,311,336,309,1
301,304,348,312,1
300,299,358,315,1
299,297,365,318,1
297,297,368,321,1
296,297,364,321,1
294,298,353,320,1
293,300,334,318,1
294,306,314,316,1
294,312,298,313,1
294,316,287,310,1
292,316,280,307,1
293,312,273,305,1
297,304,267,306,1
300,295,261,309,1
302,287,257,313,1
304,282,256,317,1
308,281,255,320,1
313,282,254,322,1
318,285,254,324,1
320,290,253,326,1
317,296,254,326,1
310,302,257,326,1
305,306,265,324,1
301,310,275,323,1
300,311,285,323,1
299,310,294,322,1
299,310,301,321,1
299,312,306,316,1
298,315,309,310,1
297,319,313,305,1
296,321,318,301,1
296,320,323,299,1
296,313,327,297,1
298,304,329,297,1
300,296,330,298,1
301,290,327,300,1
300,286,325,301,1
297,284,323,303,1
294,283,318,304,1
292,284,311,306,1
292,290,302,309,1
294,297,297,315,1
296,302,296,320,1
294,302,295,325,1
289,298,293,329,1
286,293,289,331,1
286,289,286,333,1
290,288,285,333,1
298,288,286,328,1
307,291,290,321,1
316,299,298,314,1
323,308,310,307,1
327,315,323,303,1
328,318,335,300,1
326,318,344,299,1
324,317,347,299,1
322,315,346,300,1
316,313,343,301,1
310,309,336,301,1
304,303,324,299,1
301,294,307,297,1
301,287,290,297,1
304,283,276,300,1
309,286,268,304,1
315,292,266,309,1
320,299,268,315,1
324,306,271,321,1
324,311,276,325,1
320,314,280,327,1
314,314,282,329,1
311,314,284,328,1
311,313,286,326,1
313,312,289,323,1
316,310,293,318,1
318,308,296,314,1
318,305,298,309,1
316,304,299,307,1
313,305,298,304,1
309,304,296,302,1
305,303,294,300,1
303,301,294,300,1
303,299,294,301,1
305,297,295,302,1
307,297,296,303,1
308,298,298,304,1
307,299,300,305,1
305,302,302,306,1
302,307,304,307,1
300,311,305,310,1
300,313,306,312,1
304,313,307,316,1
313,311,309,320,1
320,308,313,324,1
321,305,321,329,1
318,301,331,332,1
313,297,342,334,1
310,294,349,334,1
309,292,352,332,1
313,291,350,328,1
317,293,345,325,1
317,297,337,324,1
311,302,327,322,1
304,306,313,320,1
300,309,301,321,1
299,310,294,323,1
301,311,290,324,1
301,311,290,325,1
301,311,291,324,1
302,310,293,321,1
304,310,296,317,1
304,310,297,313,1
303,309,298,310,1
301,308,298,308,1
300,308,300,306,1
299,307,307,303,1
298,307,320,301,1
300,307,337,298,1
302,308,356,296,1
305,307,373,297,1
307,307,383,299,1
308,306,379,302,1
308,305,358,304,1
307,304,330,304,1
305,303,304,305,1
306,304,286,305,1
311,306,277,307,1
316,308,275,309,1
321,309,277,310,1
325,310,282,310,1
325,310,287,310,1
318,309,291,309,1
304,306,292,309,1
292,303,293,310,1
289,299,295,313,1
292,297,298,315,1
296,297,301,316,1
300,297,303,314,1
302,298,305,312,1
302,299,306,309,1
299,299,307,307,1
297,300,309,307,1
297,299,311,307,1
297,299,315,310,1
298,299,319,313,1
300,300,322,316,1
301,303,325,317,1
303,306,325,318,1
304,310,324,317,1
303,312,324,315,1
301,313,324,314,1
299,314,326,314,1
300,313,329,315,1
301,314,332,317,1
302,316,333,318,1
303,317,331,320,1
303,318,328,322,1
302,319,326,323,1
300,319,325,323,1
297,319,322,321,1
296,317,320,319,1
297,314,319,318,1
301,311,318,317,1
306,307,317,317,1
308,305,316,319,1
307,303,316,321,1
305,301,316,323,1
304,297,316,324,1
306,294,315,325,1
308,294,316,325,1
305,295,316,324,1
300,296,316,324,1
294,298,316,323,1
292,298,316,322,1
294,299,315,321,1
294,299,313,319,1
296,299,312,314,1
301,300,312,309,1
305,303,312,304,1
307,306,311,299,1
307,308,311,296,1
306,309,311,295,1
306,308,313,295,1
308,307,315,296,1
309,306,319,299,1
311,306,329,302,1
312,307,342,306,1
314,309,355,309,1
315,312,367,312,1
314,313,375,314,1
311,315,378,315,1
306,316,379,315,1
301,317,374,313,1
296,318,358,311,1
294,317,338,308,1
297,316,316,307,1
301,314,300,306,1
303,311,291,307,1
301,307,287,308,1
297,303,287,309,1
295,300,289,310,1
298,297,293,312,1
304,295,300,316,1
310,294,308,318,1
315,295,316,320,1
320,297,324,321,1
324,301,331,322,1
327,305,335,323,1
326,309,335,325,1
323,313,331,324,1
319,316,326,322,1
316,317,322,319,1
313,317,320,317,1
312,316,320,316,1
312,314,322,317,1
312,311,324,316,1
308,308,321,316,1
302,305,314,315,1
296,302,307,314,1
292,301,303,314,1
290,300,301,312,1
291,299,302,309,1
297,297,302,307,1
305,295,304,307,1
312,294,305,307,1
316,293,307,309,1
318,293,309,311,1
318,296,311,313,1
315,299,313,314,1
312,303,315,316,1
308,306,317,316,1
305,307,319,316,1
301,307,320,315,1
298,306,321,315,1
296,305,320,316,1
296,304,319,317,1
299,304,319,317,1
303,305,320,318,1
305,307,322,319,1
303,308,323,318,1
298,309,324,316,1
297,311,325,314,1
302,315,329,313,1
314,318,333,313,1
327,318,335,314,1
339,315,335,315,1
348,308,333,316,1
350,302,330,319,1
342,298,328,323,1
324,299,324,328,1
305,303,319,331,1
289,307,314,334,1
281,310,310,335,1
285,310,306,335,1
295,309,304,334,1
305,307,302,331,1
312,304,300,323,1
315,302,296,313,1
313,299,291,303,1
310,296,288,295,1
308,293,286,290,1
307,289,286,288,1
308,288,289,289,1
310,287,296,293,1
310,288,304,297,1
308,289,312,302,1
305,291,319,305,1
299,293,323,308,1
295,296,326,312,1
294,299,326,315,1
300,302,327,317,1
311,304,325,318,1
322,306,323,317,1
330,306,320,315,1
334,305,316,313,1
334,304,312,310,1
328,302,307,308,1
317,300,301,306,1
302,297,295,305,1
287,295,291,304,1
279,294,291,304,1
281,294,294,307,1
289,296,297,313,1
299,300,301,319,1
307,304,306,325,1
313,309,310,329,1
315,312,314,329,1
314,311,316,329,1
310,308,317,326,1
306,306,317,323,1
302,304,317,318,1
297,301,316,313,1
293,298,314,308,1
294,294,310,305,1
301,291,305,303,1
308,288,301,302,1
312,288,297,302,1
314,290,296,303,1
314,293,297,303,1
312,295,297,304,1
309,296,298,307,1
308,295,297,311,1
308,293,296,314,1
309,291,296,318,1
311,289,297,323,1
317,288,299,327,1
328,289,302,328,1
342,290,305,327,1
351,291,307,326,1
352,293,308,326,1
346,295,309,327,1
336,297,308,328,1
324,298,308,328,1
314,299,307,327,1
305,300,305,326,1
300,300,306,324,1
297,301,308,321,1
296,301,311,318,1
296,299,312,316,1
296,297,309,314,1
296,295,304,314,1
299,294,299,314,1
305,292,295,314,1
310,289,293,314,1
313,286,292,314,1
313,282,292,312,1
312,280,292,312,1
306,279,294,312,1
297,279,295,313,1
284,279,296,314,1
272,280,297,315,1
269,282,297,316,1
278,285,297,318,1
293,289,296,320,1
308,294,295,323,1
320,297,295,322,1
330,300,295,319,1
337,302,295,316,1
341,303,294,314,1
337,304,292,312,1
329,306,290,311,1
319,306,288,309,1
312,303,286,308,1
308,300,284,308,1
306,297,286,309,1
305,296,291,310,1
305,295,297,313,1
309,296,304,315,1
314,297,308,316,1
316,299,311,316,1
314,300,311,316,1
307,300,309,315,1
301,302,303,316,1
295,304,296,316,1
292,307,291,316,1
298,308,289,314,1
309,308,290,313,1
319,307,291,314,1
323,304,292,314,1
320,300,292,314,1
311,297,291,315,1
301,295,290,317,1
293,293,290,317,1
288,292,290,318,1
288,292,292,318,1
292,292,294,320,1
298,292,297,322,1
303,292,300,325,1
309,293,304,327,1
314,294,306,327,1
316,297,307,326,1
318,299,307,324,1
317,301,305,321,1
316,304,302,319,1
315,306,300,316,1
317,306,300,312,1
320,304,302,307,1
324,301,304,304,1
326,297,307,302,1
328,293,310,301,1
329,289,312,300,1
329,285,312,298,1
328,283,309,298,1
326,282,308,300,1
320,282,308,304,1
308,283,308,309,1
297,285,308,314,1
286,288,307,319,1
276,290,305,323,1
277,292,301,325,1
286,293,295,323,1
296,293,292,319,1
304,293,291,315,1
311,292,294,312,1
319,292,298,310,1
330,292,301,307,1
339,292,302,305,1
342,293,303,305,1
340,293,305,306,1
335,292,306,308,1
327,289,306,310,1
316,286,307,313,1
305,285,307,316,1
297,285,307,317,1
296,285,308,317,1
298,287,308,315,1
302,289,309,312,1
306,292,309,311,1
307,295,311,309,1
306,297,313,306,1
305,298,315,304,1
304,299,316,302,1
304,299,315,300,1
304,298,315,299,1
303,298,314,299,1
300,297,314,299,1
294,297,313,298,1
287,296,310,297,1
280,294,307,297,1
277,292,304,299,1
280,291,303,302,1
285,289,302,306,1
295,290,300,308,1
312,293,301,312,1
326,299,303,313,1
333,303,304,313,1
337,303,306,311,1
337,300,308,310,1
332,297,310,311,1
321,295,311,314,1
310,294,312,320,1
302,293,311,325,1
297,292,310,329,1
295,292,308,331,1
294,293,308,331,1
295,294,307,328,1
297,294,305,322,1
305,294,303,315,1
319,294,300,308,1
331,293,297,301,1
338,290,293,297,1
335,288,290,294,1
327,285,289,294,1
317,282,291,296,1
310,280,294,298,1
309,280,298,302,1
310,281,302,305,1
312,284,305,309,1
314,288,307,312,1
315,294,310,314,1
316,299,311,314,1
314,303,312,313,1
312,306,311,313,1
311,309,311,314,1
310,310,310,315,1
309,309,310,315,1
309,306,310,315,1
311,303,309,314,1
313,299,308,313,1
316,295,305,311,1
324,292,300,309,1
332,290,295,309,1
336,287,290,310,1
333,285,286,311,1
326,283,282,314,1
316,283,283,317,1
308,285,288,320,1
300,287,295,323,1
293,291,301,324,1
286,295,306,324,1
282,299,308,322,1
281,301,308,319,1
282,303,308,316,1
286,304,307,314,1
292,304,305,312,1
296,303,304,311,1
297,302,303,310,1
295,301,301,310,1
292,299,300,310,1
289,298,298,310,1
287,296,298,310,1
286,293,298,311,1
284,292,297,313,1
280,290,296,315,1
279,289,294,317,1
294,288,292,319,1
319,288,294,321,1
340,290,298,321,1
347,291,303,320,1
343,293,306,318,1
333,295,308,314,1
327,296,309,309,1
327,297,310,304,1
330,298,309,300,1
335,299,309,297,1
337,301,305,296,1
336,301,301,296,1
333,301,298,296,1
330,302,296,297,1
325,302,294,298,1
317,301,291,299,1
308,300,288,301,1
300,299,287,304,1
293,299,287,305,1
288,298,286,307,1
286,298,286,309,1
287,298,287,311,1
291,299,289,313,1
298,300,290,315,1
306,302,292,315,1
313,303,294,314,1
317,303,297,314,1
319,304,300,315,1
320,303,303,317,1
319,304,307,320,1
316,305,310,323,1
311,305,310,326,1
308,306,309,330,1
306,306,307,333,1
302,305,303,333,1
299,303,297,331,1
297,301,292,326,1
296,299,288,319,1
295,298,286,313,1
295,298,285,308,1
298,298,286,303,1
303,299,288,299,1
310,302,290,296,1
315,304,292,294,1
317,305,292,293,1
315,306,294,293,1
313,306,296,295,1
309,306,297,297,1
303,307,299,299,1
293,307,299,301,1
286,307,300,301,1
284,307,301,300,1
284,306,301,299,1
287,304,301,297,1
293,302,301,295,1
296,299,300,293,1
299,296,300,292,1
302,294,301,293,1
308,292,302,297,1
320,291,304,302,1
334,291,306,310,1
340,293,307,317,1
341,296,309,325,1
338,299,311,329,1
331,302,311,332,1
327,304,312,333,1
326,308,311,333,1
325,312,310,330,1
321,315,307,324,1
315,316,303,316,1
311,314,298,307,1
308,312,295,300,1
305,308,293,296,1
302,302,291,296,1
299,296,291,297,1
296,290,291,299,1
295,286,293,301,1
294,287,295,303,1
296,290,298,306,1
300,293,301,308,1
303,293,302,310,1
306,292,304,312,1
306,291,306,314,1
306,294,308,316,1
306,298,311,317,1
307,300,312,318,1
308,301,313,316,1
311,301,313,312,1
309,301,309,305,1
301,299,305,298,1
290,299,301,294,1
287,299,299,292,1
290,300,298,292,1
296,302,297,295,1
299,303,294,298,1
301,303,289,301,1
303,302,285,304,1
306,300,281,306,1
310,298,281,309,1
313,298,285,313,1
317,299,291,318,1
319,301,298,323,1
319,302,304,328,1
318,304,310,331,1
316,306,316,332,1
314,309,320,332,1
311,310,321,329,1
309,310,323,324,1
306,311,323,319,1
304,312,322,314,1
303,312,320,308,1
309,310,317,303,1
320,309,315,301,1
325,309,312,300,1
324,309,310,301,1
320,309,307,302,1
317,307,306,305,1
314,305,306,308,1
312,303,307,312,1
310,302,308,313,1
309,302,310,311,1
308,302,312,308,1
309,302,315,306,1
310,302,317,306,1
310,303,319,305,1
310,303,318,304,1
309,304,317,303,1
310,306,314,302,1
313,306,313,301,1
314,306,312,299,1
315,306,311,296,1
315,306,311,295,1
317,307,312,296,1
320,306,312,298,1
321,305,312,300,1
318,303,312,304,1
311,301,311,307,1
302,298,312,311,1
293,297,314,315,1
288,296,317,318,1
289,297,320,321,1
293,300,323,322,1
297,303,324,320,1
299,305,325,317,1
301,307,325,314,1
308,308,325,312,1
318,308,323,310,1
325,307,321,309,1
329,307,320,308,1
329,306,317,309,1
325,307,315,309,1
319,308,313,309,1
310,311,313,308,1
301,314,312,306,1
295,314,311,303,1
290,312,309,300,1
285,307,307,297,1
281,302,304,295,1
282,298,303,293,1
291,297,303,293,1
304,297,304,294,1
314,298,305,297,1
319,300,307,300,1
320,301,309,302,1
319,302,311,302,1
320,303,312,302,1
323,305,312,301,1
326,307,313,301,1
329,309,312,302,1
333,309,311,304,1
336,308,310,307,1
336,307,308,309,1
334,306,307,310,1
333,307,307,312,1
330,307,306,313,1
326,307,306,312,1
324,308,307,312,1
324,308,308,313,1
328,309,311,315,1
331,309,313,317,1
332,308,315,320,1
331,308,315,321,1
330,308,313,320,1
329,309,308,318,1
325,309,303,315,1
317,309,298,312,1
310,308,295,309,1
304,307,293,305,1
300,307,294,302,1
300,308,297,299,1
302,308,300,297,1
302,308,303,296,1
300,308,304,295,1
296,307,306,294,1
292,307,308,294,1
292,307,309,294,1
292,307,309,294,1
293,305,309,293,1
298,303,307,292,1
307,301,306,294,1
313,301,305,296,1
315,301,304,299,1
316,302,305,302,1
316,303,309,306,1
317,304,312,310,1
318,305,312,312,1
315,307,312,316,1
308,309,312,319,1
296,310,312,322,1
284,311,312,324,1
278,312,311,324,1
281,312,309,321,1
290,312,308,317,1
299,311,308,312,1
305,310,309,307,1
309,308,310,303,1
311,308,309,299,1
312,308,307,296,1
312,309,305,294,1
314,310,304,294,1
320,309,301,295,1
323,307,298,297,1
323,305,293,298,1
319,302,288,299,1
313,300,285,299,1
309,300,283,298,1
308,299,282,296,1
313,299,282,294,1
322,300,283,293,1
330,302,285,293,1
333,304,288,293,1
331,305,290,295,1
326,307,291,298,1
319,308,293,302,1
313,308,294,305,1
309,307,295,310,1
308,306,296,314,1
309,303,296,318,1
311,301,297,322,1
316,299,297,326,1
324,298,298,330,1
331,297,299,331,1
333,299,300,329,1
329,302,301,328,1
316,305,302,327,1
301,308,303,327,1
292,311,304,326,1
292,313,303,324,1
298,314,303,321,1
304,314,301,320,1
306,314,300,319,1
307,313,299,317,1
311,311,298,314,1
319,310,297,310,1
328,308,295,305,1
335,306,292,301,1
339,305,288,297,1
336,303,285,293,1
328,300,281,290,1
315,298,279,288,1
303,296,280,290,1
293,296,283,293,1
286,295,288,296,1
282,296,293,298,1
283,297,298,299,1
287,300,302,299,1
290,302,304,299,1
291,304,304,299,1
295,306,302,297,1
299,308,300,296,1
298,309,298,297,1
295,311,296,298,1
293,313,295,300,1
296,315,295,302,1
303,318,296,304,1
315,318,297,306,1
326,317,298,309,1
334,313,299,313,1
338,310,299,318,1
337,307,299,324,1
335,306,300,330,1
333,308,302,336,1
330,311,305,341,1
325,315,306,343,1
315,318,307,340,1
304,320,306,331,1
297,319,305,319,1
296,315,303,308,1
304,309,301,300,1
316,304,300,294,1
322,301,300,292,1
318,298,300,291,1
310,296,303,293,1
303,296,306,296,1
298,297,308,299,1
295,298,310,301,1
296,298,311,303,1
303,299,311,305,1
313,299,310,307,1
317,300,307,307,1
316,301,303,308,1
311,302,300,309,1
304,303,298,307,1
303,304,296,306,1
309,305,295,304,1
317,306,293,303,1
321,308,292,302,1
320,308,292,303,1
316,307,293,304,1
311,306,294,306,1
307,306,294,308,1
302,306,293,309,1
297,305,293,310,1
294,306,293,310,1
292,306,292,307,1
291,304,290,305,1
293,300,288,304,1
300,297,288,304,1
310,296,290,304,1
315,296,294,305,1
316,297,298,308,1
313,301,301,310,1
307,306,303,312,1
302,310,303,313,1
301,313,302,312,1
303,313,301,309,1
305,312,303,306,1
305,311,306,306,1
304,312,310,306,1
304,312,314,307,1
306,312,314,308,1
308,312,313,311,1
312,312,312,313,1
315,312,309,315,1
320,311,307,314,1
325,308,305,314,1
325,307,304,313,1
320,305,305,313,1
305,304,308,313,1
287,304,312,313,1
277,305,316,315,1
279,307,320,317,1
288,309,326,320,1
300,312,330,322,1
309,313,333,322,1
313,314,334,320,1
313,315,334,316,1
311,315,332,311,1
310,314,330,307,1
310,311,327,304,1
313,306,325,303,1
317,303,324,304,1
319,300,323,307,1
316,298,322,309,1
309,295,318,312,1
303,294,314,314,1
308,295,311,313,1
317,297,310,309,1
320,300,312,305,1
318,304,317,302,1
315,306,322,301,1
311,307,326,302,1
306,307,328,304,1
300,308,331,306,1
294,309,334,307,1
288,312,334,307,1
285,315,333,306,1
283,317,332,304,1
283,318,331,300,1
283,317,330,298,1
284,315,329,296,1
286,311,327,295,1
285,306,324,294,1
281,301,320,293,1
275,298,317,293,1
274,298,315,295,1
282,301,315,299,1
295,306,317,304,1
307,313,319,309,1
317,319,321,313,1
324,323,322,315,1
327,324,324,317,1
326,323,326,318,1
322,322,327,317,1
316,321,326,317,1
312,321,324,316,1
309,319,323,315,1
308,317,321,313,1
304,314,319,312,1
298,312,315,310,1
291,310,313,309,1
290,308,311,309,1
293,307,311,308,1
295,308,310,307,1
295,311,308,305,1
295,313,306,304,1
294,313,303,303,1
292,310,300,303,1
296,308,296,304,1
310,307,293,306,1
327,307,292,309,1
340,308,293,313,1
345,309,295,315,1
345,310,297,315,1
341,311,299,315,1
334,313,300,313,1
325,314,300,311,1
313,314,298,309,1
302,314,293,309,1
294,315,288,309,1
290,315,283,310,1
287,316,280,311,1
285,316,275,309,1
282,314,273,307,1
283,311,273,305,1
288,307,276,304,1
296,305,280,303,1
304,304,284,301,1
310,304,287,298,1
311,305,290,296,1
308,308,292,297,1
303,312,294,299,1
298,316,295,302,1
295,320,296,305,1
292,322,297,306,1
291,321,297,307,1
293,319,297,308,1
297,317,296,309,1
300,315,295,310,1
301,315,294,310,1
301,316,292,310,1
303,318,291,310,1
305,320,291,311,1
307,323,290,312,1
310,326,290,313,1
313,328,290,315,1
314,328,290,317,1
314,324,290,318,1
314,318,290,320,1
316,310,290,322,1
319,303,290,324,1
324,300,291,324,1
329,302,290,321,1
334,306,287,317,1
336,311,282,312,1
335,315,278,308,1
331,317,275,306,1
322,317,274,306,1
309,314,275,308,1
292,313,278,311,1
278,313,281,314,1
275,313,283,315,1
282,314,284,316,1
290,313,286,315,1
297,312,288,312,1
302,311,288,309,1
304,311,288,306,1
304,309,288,304,1
303,307,289,305,1
301,306,291,306,1
300,307,292,309,1
302,309,293,311,1
308,312,294,314,1
318,314,294,317,1
328,317,294,317,1
333,319,294,316,1
330,319,293,314,1
323,320,291,311,1
315,320,290,308,1
311,319,289,305,1
311,318,287,304,1
312,317,286,304,1
311,316,286,305,1
308,316,287,306,1
303,315,291,307,1
295,314,295,308,1
285,313,296,308,1
274,312,294,308,1
273,311,291,308,1
281,310,290,309,1
289,311,289,310,1
297,312,290,313,1
303,313,293,315,1
307,314,298,317,1
307,316,303,317,1
305,316,307,317,1
303,316,311,317,1
300,316,313,316,1
297,315,313,315,1
294,314,311,313,1
288,313,309,310,1
283,312,308,306,1
281,312,307,303,1
282,311,308,302,1
284,309,308,301,1
286,307,309,303,1
293,304,308,304,1
305,302,309,307,1
318,300,309,309,1
328,300,309,310,1
330,302,310,311,1
326,304,311,313,1
322,305,314,316,1
319,307,317,319,1
312,310,320,320,1
301,313,321,320,1
294,315,321,320,1
295,316,320,319,1
301,317,319,319,1
307,317,318,317,1
313,316,317,316,1
319,314,317,313,1
325,312,317,309,1
329,309,317,305,1
332,306,316,302,1
333,303,315,300,1
332,301,314,300,1
324,299,313,301,1
314,300,313,303,1
307,302,313,307,1
305,305,314,312,1
306,308,314,317,1
307,310,316,321,1
305,312,317,323,1
300,312,318,323,1
297,311,318,320,1
294,311,317,316,1
296,311,317,311,1
300,311,316,306,1
304,312,317,304,1
306,313,317,304,1
306,315,318,305,1
303,317,319,306,1
299,318,319,308,1
297,318,321,309,1
300,316,323,309,1
307,311,324,308,1
322,303,325,307,1
339,296,325,305,1
349,291,325,304,1
347,288,325,304,1
335,288,325,305,1
317,290,324,306,1
298,293,323,307,1
282,298,320,306,1
275,303,318,305,1
275,307,318,303,1
277,310,319,303,1
282,311,321,303,1
289,311,323,304,1
293,311,326,307,1
294,312,329,309,1
290,313,331,312,1
290,314,331,312,1
304,312,329,311,1
323,310,326,309,1
336,307,325,307,1
340,305,327,306,1
338,303,329,307,1
331,301,332,309,1
324,300,333,310,1
317,300,331,311,1
312,301,330,312,1
308,303,329,314,1
305,305,329,316,1
302,307,329,319,1
301,309,329,321,1
299,310,330,322,1
298,311,329,321,1
297,312,328,319,1
294,312,326,314,1
291,310,324,308,1
289,308,323,305,1
289,306,322,304,1
289,304,321,303,1
291,301,320,303,1
294,298,321,303,1
299,296,322,303,1
303,295,322,303,1
309,296,320,304,1
319,298,318,306,1
331,301,317,309,1
337,305,318,313,1
338,309,320,315,1
333,312,323,317,1
326,314,323,318,1
320,313,323,318,1
315,310,323,318,1
310,305,321,316,1
306,302,320,314,1
303,300,318,311,1
300,298,316,309,1
296,298,315,306,1
292,298,313,303,1
289,299,312,300,1
288,298,311,297,1
292,298,309,294,1
303,296,308,293,1
316,295,308,293,1
329,294,308,295,1
342,294,310,298,1
354,295,313,300,1
363,297,314,302,1
363,299,315,304,1
352,303,313,305,1
333,305,309,305,1
313,306,305,304,1
300,305,301,303,1
293,303,296,301,1
294,302,291,301,1
299,302,290,302,1
304,303,292,304,1
305,304,297,306,1
301,306,301,309,1
296,308,303,311,1
292,309,305,313,1
289,309,305,315,1
288,309,305,317,1
289,309,305,318,1
290,310,304,319,1
292,311,304,317,1
294,312,303,315,1
296,313,302,313,1
298,313,301,311,1
297,313,300,309,1
296,311,298,306,1
299,309,296,305,1
306,310,294,304,1
313,310,294,304,1
316,311,294,304,1
317,311,293,304,1
316,311,293,306,1
315,311,293,307,1
313,310,293,309,1
313,309,294,311,1
313,308,294,313,1
315,307,293,314,1
317,306,292,315,1
320,305,289,316,1
323,304,286,317,1
326,303,282,316,1
326,300,280,314,1
324,297,277,313,1
320,294,276,311,1
314,291,278,309,1
305,289,280,306,1
300,288,283,301,1
300,290,284,297,1
300,294,285,295,1
298,298,285,296,1
298,302,286,298,1
306,306,287,302,1
316,311,289,307,1
319,313,291,310,1
312,315,292,312,1
299,315,292,311,1
286,312,290,308,1
281,309,288,304,1
283,306,286,303,1
292,304,286,303,1
305,303,286,306,1
317,301,287,310,1
326,302,287,312,1
329,303,288,314,1
330,304,289,315,1
328,305,290,314,1
324,306,291,313,1
318,308,292,310,1
313,309,291,307,1
310,310,291,304,1
308,311,291,301,1
305,310,290,300,1
301,309,290,300,1
299,308,290,301,1
295,307,288,300,1
290,304,286,298,1
290,302,284,297,1
292,300,282,296,1
291,299,279,296,1
291,298,278,297,1
293,299,278,300,1
298,301,279,303,1
302,303,282,305,1
305,304,286,306,1
306,305,292,307,1
305,307,296,308,1
304,308,298,308,1
302,309,299,307,1
301,310,299,306,1
300,309,298,305,1
299,309,297,304,1
300,309,298,304,1
303,310,299,304,1
305,311,301,306,1
309,311,304,307,1
311,309,306,308,1
311,306,307,308,1
309,303,307,308,1
306,301,306,309,1
302,299,307,311,1
299,300,306,312,1
298,301,306,314,1
299,302,304,314,1
301,303,303,314,1
305,304,300,313,1
307,304,298,313,1
306,304,296,313,1
302,302,294,313,1
297,301,294,314,1
295,301,295,315,1
288,301,296,316,1
276,304,297,317,1
266,308,299,317,1
268,312,299,315,1
282,313,300,314,1
301,313,300,311,1
317,311,299,308,1
328,309,299,306,1
335,307,300,306,1
337,305,301,308,1
336,304,301,312,1
333,304,301,317,1
330,305,300,323,1
326,308,301,326,1
322,311,301,329,1
318,313,303,329,1
312,314,306,327,1
303,315,310,321,1
292,314,313,312,1
283,312,314,305,1
279,310,315,302,1
279,308,316,301,1
282,307,316,301,1
288,306,316,301,1
295,305,315,300,1
302,304,314,301,1
309,303,313,301,1
312,301,312,302,1
311,300,312,304,1
308,299,312,307,1
307,301,313,310,1
307,303,314,314,1
308,306,316,318,1
310,310,319,321,1
310,313,321,321,1
309,315,322,319,1
310,316,322,314,1
311,317,322,308,1
313,317,321,302,1
316,316,320,298,1
319,315,320,296,1
321,313,322,296,1
323,311,323,296,1
324,308,325,297,1
326,305,324,298,1
327,301,321,298,1
326,297,317,299,1
322,295,312,302,1
318,296,308,305,1
314,297,306,309,1
311,300,306,313,1
310,304,308,316,1
309,307,311,318,1
307,311,313,318,1
301,315,314,318,1
294,319,315,317,1
287,321,316,318,1
280,322,316,319,1
273,322,315,318,1
268,320,313,315,1
272,317,311,312,1
283,313,309,309,1
293,309,307,307,1
302,305,305,306,1
312,300,304,305,1
318,297,303,306,1
319,295,301,307,1
318,295,300,309,1
315,297,300,310,1
313,301,300,311,1
312,305,300,312,1
314,309,299,312,1
319,314,300,314,1
324,318,301,315,1
327,321,304,316,1
326,319,305,317,1
323,316,306,317,1
320,313,305,316,1
318,310,305,315,1
319,307,304,314,1
323,305,302,313,1
327,303,302,312,1
329,301,302,312,1
323,300,302,312,1
313,299,301,313,1
304,297,300,312,1
299,296,299,310,1
297,293,297,309,1
296,291,293,308,1
298,289,290,307,1
301,288,288,307,1
304,290,288,306,1
308,294,291,307,1
313,300,295,308,1
319,304,300,309,1
322,307,303,309,1
323,308,303,308,1
321,308,302,308,1
312,307,297,307,1
301,306,292,307,1
295,305,288,309,1
294,304,284,313,1
301,303,284,317,1
315,303,289,321,1
327,304,297,324,1
331,305,302,324,1
327,306,304,322,1
320,304,304,317,1
313,301,303,312,1
306,299,302,308,1
301,299,302,304,1
299,301,303,302,1
300,304,303,301,1
304,308,303,301,1
307,311,303,301,1
308,313,302,301,1
308,314,301,300,1
307,315,299,299,1
304,315,298,298,1
300,314,296,297,1
295,312,296,297,1
292,311,296,296,1
293,309,296,296,1
295,307,296,297,1
300,306,296,298,1
307,304,296,299,1
314,301,295,300,1
317,299,295,301,1
321,297,296,302,1
324,297,297,304,1
327,297,298,307,1
327,297,298,310,1
325,298,299,313,1
318,298,299,316,1
308,297,299,319,1
300,296,299,322,1
293,296,299,323,1
289,298,299,323,1
287,302,299,321,1
287,306,299,319,1
290,309,298,316,1
293,311,296,314,1
298,313,294,311,1
302,314,292,309,1
308,315,290,306,1
316,316,289,303,1
325,315,288,300,1
332,314,288,299,1
334,313,288,299,1
330,313,288,301,1
322,314,290,304,1
314,318,293,307,1
307,322,296,308,1
303,324,298,307,1
300,321,300,306,1
300,315,301,306,1
300,309,302,306,1
300,304,302,305,1
301,301,303,304,1
302,299,302,303,1
302,298,302,303,1
300,298,301,304,1
296,297,301,304,1
290,297,300,304,1
282,296,299,304,1
273,295,298,305,1
268,294,297,305,1
276,292,296,305,1
291,291,295,304,1
305,290,295,304,1
315,289,296,304,1
320,289,298,303,1
322,289,300,302,1
323,290,301,302,1
324,294,301,302,1
323,300,301,303,1
320,305,302,305,1
316,311,302,308,1
310,315,302,311,1
306,317,300,313,1
305,319,297,314,1
305,317,293,313,1
306,314,290,313,1
308,311,287,312,1
310,309,287,311,1
310,307,292,311,1
312,306,299,311,1
316,305,304,310,1
318,305,308,309,1
318,305,309,307,1
314,306,310,306,1
308,308,311,305,1
303,309,311,303,1
303,311,312,302,1
305,313,312,301,1
305,314,311,301,1
305,315,311,301,1
304,316,311,301,1
303,317,310,301,1
303,317,310,301,1
304,317,309,301,1
306,316,308,302,1
308,315,308,303,1
310,314,308,304,1
311,312,308,304,1
309,309,309,305,1
307,307,310,306,1
305,305,310,307,1
304,303,311,308,1
303,302,312,310,1
304,302,313,312,1
303,302,314,314,1
301,302,315,317,1
299,304,316,319,1
298,306,316,319,1
297,307,315,320,1
299,308,314,319,1
300,308,314,320,1
301,308,314,322,1
300,307,313,323,1
294,306,311,324,1
285,307,309,323,1
276,309,307,318,1
276,313,305,311,1
282,316,305,304,1
290,317,305,301,1
298,316,306,302,1
306,313,306,304,1
312,310,306,306,1
315,308,305,307,1
314,306,305,307,1
312,305,305,307,1
308,305,308,308,1
304,306,311,309,1
307,307,315,309,1
315,309,317,308,1
323,311,319,307,1
326,312,321,306,1
325,314,323,306,1
322,315,323,307,1
319,315,322,307,1
317,314,321,305,1
317,313,318,301,1
319,312,316,298,1
320,309,314,295,1
320,306,313,294,1
322,304,313,294,1
327,302,311,295,1
329,300,311,296,1
325,299,311,299,1
314,301,312,303,1
303,304,313,307,1
297,309,315,311,1
295,313,317,314,1
296,315,318,315,1
297,315,319,314,1
298,316,318,312,1
299,317,317,311,1
301,318,315,309,1
304,319,313,306,1
308,318,309,304,1
311,315,305,302,1
312,312,300,300,1
312,309,296,299,1
312,306,291,297,1
313,304,289,297,1
314,303,290,297,1
316,302,294,298,1
318,301,298,300,1
319,300,304,303,1
320,300,309,306,1
321,301,313,310,1
321,303,316,313,1
318,305,319,316,1
312,307,320,317,1
304,309,321,318,1
297,310,322,319,1
291,312,322,319,1
285,313,321,318,1
280,314,320,315,1
274,315,317,311,1
267,315,313,306,1
263,313,308,301,1
263,312,305,297,1
273,311,303,295,1
286,309,301,296,1
300,307,300,298,1
312,306,300,301,1
321,306,301,304,1
328,306,302,308,1
333,306,304,311,1
335,307,304,314,1
331,307,304,315,1
326,306,304,314,1
322,306,304,314,1
322,305,304,312,1
323,304,304,310,1
323,303,304,306,1
321,303,303,304,1
317,302,302,302,1
313,300,301,303,1
311,299,302,305,1
308,299,303,309,1
305,301,305,314,1
306,304,307,319,1
307,305,307,324,1
309,307,306,328,1
309,308,305,330,1
307,309,304,330,1
307,309,304,324,1
307,309,305,317,1
309,309,306,310,1
312,309,308,305,1
312,310,309,302,1
310,310,309,300,1
307,311,308,299,1
304,312,307,299,1
302,313,307,298,1
300,313,306,296,1
300,313,306,293,1
305,313,305,292,1
312,312,304,292,1
316,310,303,292,1
318,309,301,292,1
318,307,298,291,1
317,305,296,291,1
315,303,296,292,1
313,302,299,294,1
312,300,302,298,1
311,299,304,302,1
309,299,307,307,1
307,300,310,311,1
305,301,313,314,1
303,303,315,316,1
300,305,315,316,1
298,308,315,315,1
295,312,314,314,1
291,314,312,313,1
288,316,310,311,1
286,318,308,310,1
286,318,305,308,1
287,317,301,306,1
291,315,296,306,1
296,311,292,306,1
299,305,290,307,1
299,299,289,308,1
300,295,290,309,1
305,293,293,309,1
314,292,297,309,1
326,291,301,307,1
335,291,304,304,1
339,291,306,302,1
334,292,308,301,1
322,295,310,302,1
307,298,311,302,1
292,301,313,303,1
278,304,313,304,1
269,306,313,304,1
268,309,314,305,1
275,311,313,306,1
284,312,311,307,1
294,313,310,306,1
302,312,308,305,1
310,311,306,304,1
316,309,304,304,1
320,306,301,305,1
323,303,299,307,1
327,300,298,307,1
334,298,299,307,1
341,297,301,307,1
343,298,303,308,1
338,299,306,309,1
328,301,309,311,1
317,303,311,311,1
308,304,312,310,1
301,304,311,308,1
298,303,310,308,1
301,300,308,308,1
304,298,306,309,1
302,297,306,311,1
297,297,305,313,1
291,299,306,316,1
289,301,306,318,1
289,303,306,318,1
292,305,307,316,1
297,307,308,313,1
301,307,309,309,1
304,306,309,306,1
305,304,308,304,1
305,301,307,302,1
303,300,308,303,1
300,300,311,304,1
295,301,314,306,1
291,303,316,308,1
287,305,317,309,1
287,308,318,308,1
292,310,317,308,1
296,312,317,308,1
297,313,316,309,1
294,313,315,308,1
288,312,314,307,1
284,312,314,305,1
287,311,314,304,1
293,310,314,304,1
300,308,314,304,1
306,305,314,304,1
308,303,314,305,1
311,301,314,306,1
315,302,314,307,1
318,303,313,310,1
319,304,313,313,1
319,305,312,316,1
318,306,309,318,1
317,307,307,318,1
315,309,305,317,1
314,309,303,316,1
310,310,301,313,1
303,309,299,309,1
296,308,298,304,1
297,307,299,300,1
307,306,301,298,1
315,305,303,297,1
319,305,305,297,1
320,305,307,297,1
320,304,308,295,1
320,303,310,294,1
320,303,311,294,1
318,302,312,295,1
314,302,313,297,1
310,302,314,300,1
307,304,316,302,1
308,306,316,305,1
311,307,317,307,1
317,306,317,308,1
322,304,318,308,1
323,304,317,308,1
316,304,316,307,1
304,305,315,307,1
297,306,313,308,1
298,306,312,309,1
303,305,312,312,1
307,304,311,315,1
308,302,310,319,1
306,300,308,321,1
304,298,306,322,1
302,296,304,322,1
302,295,302,322,1
301,295,302,320,1
300,296,302,317,1
298,298,302,312,1
293,302,301,307,1
288,304,300,303,1
281,307,300,300,1
275,309,300,299,1
276,311,301,298,1
288,312,303,299,1
303,313,305,298,1
313,314,306,298,1
316,315,307,299,1
315,315,307,299,1
311,315,306,299,1
307,315,304,299,1
305,313,302,299,1
306,312,301,299,1
310,309,299,300,1
315,307,297,300,1
319,304,295,300,1
322,302,295,300,1
324,301,296,300,1
324,301,297,301,1
323,301,298,304,1
322,302,299,308,1
320,303,300,312,1
317,306,300,315,1
316,310,300,316,1
315,314,300,314,1
316,318,298,310,1
317,322,297,304,1
319,325,295,299,1
321,326,295,296,1
321,326,294,295,1
319,322,294,296,1
316,317,295,299,1
315,311,296,303,1
314,306,298,306,1
317,303,299,309,1
321,302,300,309,1
319,299,300,308,1
309,297,301,308,1
300,296,301,308,1
297,296,300,309,1
298,296,299,309,1
299,297,299,309,1
301,299,299,307,1
302,301,299,305,1
302,302,298,304,1
301,303,297,303,1
300,303,297,303,1
300,303,296,303,1
300,302,294,303,1
300,301,291,303,1
300,300,288,303,1
302,299,285,303,1
305,299,283,304,1
310,299,284,306,1
313,300,287,307,1
315,302,291,308,1
317,302,296,307,1
320,301,299,307,1
322,300,301,308,1
322,299,302,309,1
315,299,302,311,1
304,300,303,313,1
295,302,305,314,1
287,304,307,316,1
278,307,308,317,1
270,310,307,316,1
268,312,307,316,1
273,314,307,315,1
284,315,307,314,1
294,317,307,313,1
301,317,306,312,1
305,316,305,311,1
307,314,304,310,1
307,311,304,309,1
308,308,303,309,1
308,305,302,308,1
309,301,301,306,1
310,298,301,304,1
311,296,301,302,1
308,297,301,301,1
302,298,301,301,1
295,299,300,301,1
294,302,300,301,1
295,305,301,301,1
298,308,302,303,1
301,311,305,304,1
305,314,307,305,1
313,313,307,307,1
321,309,308,308,1
325,305,306,308,1
325,301,304,307,1
322,299,303,306,1
317,298,302,304,1
312,297,301,302,1
307,296,300,301,1
303,296,300,302,1
302,296,302,305,1
302,296,304,307,1
303,296,305,307,1
307,297,307,307,1
310,299,309,306,1
311,302,312,306,1
308,305,313,306,1
304,309,315,306,1
300,313,316,305,1
295,317,315,303,1
294,321,313,302,1
300,324,312,301,1
308,324,311,302,1
311,321,310,302,1
310,317,309,303,1
309,313,308,303,1
311,309,308,304,1
314,306,308,305,1
315,303,308,306,1
314,299,309,306,1
312,296,309,306,1
312,294,310,308,1
311,293,313,310,1
306,292,316,313,1
296,294,317,316,1
287,297,317,318,1
287,301,315,319,1
292,304,313,319,1
298,307,312,319,1
304,308,312,320,1
308,309,312,320,1
310,311,315,321,1
309,311,319,322,1
305,311,322,321,1
302,310,325,317,1
299,308,327,313,1
299,306,327,308,1
299,303,326,305,1
301,300,325,301,1
304,297,324,299,1
308,298,323,297,1
312,298,323,297,1
317,299,323,298,1
322,300,325,300,1
325,301,327,301,1
325,303,328,303,1
324,304,329,304,1
323,305,330,305,1
320,306,331,306,1
316,306,331,308,1
310,306,330,309,1
303,306,328,310,1
296,306,325,309,1
290,306,322,308,1
287,307,319,306,1
288,307,317,304,1
292,309,316,301,1
297,311,315,299,1
298,312,314,298,1
299,312,313,297,1
301,310,312,297,1
304,308,313,299,1
308,306,314,301,1
312,305,316,302,1
315,306,318,303,1
316,308,320,304,1
313,312,322,304,1
306,315,324,304,1
296,318,324,304,1
286,318,322,302,1
284,316,320,302,1
287,313,317,303,1
291,310,316,304,1
298,308,316,306,1
308,307,316,307,1
318,305,316,309,1
329,303,316,310,1
337,302,315,312,1
341,301,313,310,1
339,299,310,306,1
332,297,309,302,1
322,296,309,298,1
312,295,309,296,1
305,295,310,296,1
298,295,311,297,1
295,295,311,299,1
293,297,312,300,1
294,300,312,300,1
294,303,312,299,1
296,306,311,298,1
297,308,310,298,1
296,308,309,299,1
296,308,307,299,1
298,308,305,299,1
301,308,303,298,1
305,309,301,298,1
312,309,301,299,1
319,308,302,300,1
323,306,304,303,1
323,305,306,307,1
319,304,309,312,1
313,304,311,317,1
307,304,311,320,1
304,304,311,322,1
306,305,308,323,1
314,306,305,322,1
323,308,301,321,1
329,309,296,320,1
328,310,291,319,1
321,311,286,318,1
310,312,284,317,1
300,313,284,314,1
292,314,287,310,1
288,314,292,305,1
288,314,297,301,1
290,313,300,297,1
294,312,303,294,1
297,311,304,292,1
298,308,304,291,1
295,304,303,291,1
290,302,302,292,1
284,300,301,294,1
278,298,302,298,1
273,297,303,302,1
270,297,304,307,1
276,297,305,310,1
289,299,306,313,1
307,301,306,314,1
320,302,305,314,1
324,303,305,313,1
321,303,306,312,1
315,304,307,311,1
313,305,308,310,1
316,306,309,308,1
321,306,310,307,1
325,308,310,306,1
325,308,309,305,1
320,308,308,304,1
313,308,306,304,1
303,306,304,305,1
292,305,302,307,1
288,304,300,306,1
292,302,299,305,1
302,301,299,304,1
313,300,301,302,1
324,300,302,302,1
333,302,302,303,1
341,304,303,303,1
344,306,303,302,1
337,309,303,302,1
322,312,303,302,1
307,315,304,300,1
295,318,306,299,1
289,319,308,298,1
287,318,310,297,1
288,315,310,297,1
290,312,308,297,1
293,310,306,296,1
296,307,303,297,1
301,305,303,297,1
305,303,303,299,1
309,302,303,300,1
313,303,304,303,1
317,305,307,305,1
320,306,308,307,1
319,307,308,307,1
316,308,308,308,1
309,308,309,310,1
300,308,309,312,1
290,309,310,313,1
283,310,311,312,1
278,310,312,311,1
273,309,312,310,1
271,308,311,307,1
271,308,310,305,1
273,308,308,303,1
272,307,307,303,1
269,307,306,304,1
267,306,308,306,1
271,305,308,308,1
281,304,309,309,1
291,301,307,310,1
300,299,306,310,1
309,297,304,308,1
314,296,303,303,1
314,295,302,299,1
313,296,301,295,1
312,299,301,291,1
314,302,300,290,1
317,306,300,289,1
320,309,300,291,1
321,312,301,292,1
322,314,300,294,1
320,316,299,295,1
316,316,296,296,1
313,316,294,297,1
309,316,290,299,1
305,315,287,301,1
302,313,286,303,1
299,311,287,305,1
297,309,291,307,1
296,307,297,309,1
296,305,303,311,1
303,303,309,313,1
313,303,314,314,1
318,304,317,314,1
317,306,319,314,1
313,309,321,314,1
306,312,321,314,1
298,314,321,312,1
294,314,321,309,1
298,312,320,305,1
306,309,320,301,1
314,308,319,299,1
319,306,318,297,1
322,306,318,296,1
321,305,318,295,1
316,304,317,294,1
311,303,316,292,1
307,300,314,289,1
307,297,312,287,1
309,294,312,287,1
313,294,312,289,1
319,295,315,293,1
322,297,318,297,1
319,301,320,303,1
313,306,322,308,1
305,312,323,312,1
294,317,323,313,1
282,320,323,311,1
277,321,322,307,1
281,321,322,304,1
288,320,322,302,1
294,319,321,301,1
299,317,320,300,1
305,316,320,299,1
310,314,320,299,1
313,312,321,299,1
313,310,321,300,1
309,307,321,301,1
302,304,320,303,1
295,302,320,304,1
289,302,319,305,1
286,303,318,306,1
284,306,318,307,1
285,309,319,308,1
292,312,319,309,1
304,315,320,311,1
312,318,322,312,1
315,320,324,313,1
314,321,325,314,1
311,322,325,314,1
307,321,323,311,1
304,319,320,305,1
303,316,315,298,1
307,313,312,292,1
312,310,310,289,1
314,309,310,289,1
314,307,309,291,1
312,306,309,293,1
310,306,309,295,1
310,306,309,297,1
311,306,309,300,1
312,307,309,302,1
312,309,309,305,1
311,312,310,308,1
308,315,310,310,1
305,317,311,312,1
303,319,312,313,1
301,319,312,312,1
301,319,311,310,1
302,319,310,307,1
304,318,310,305,1
305,317,310,303,1
303,317,309,301,1
298,317,308,300,1
289,317,305,300,1
278,316,302,301,1
274,314,298,303,1
282,311,294,304,1
297,307,291,307,1
310,303,290,309,1
318,300,291,310,1
322,298,295,310,1
327,298,298,311,1
329,299,302,313,1
327,302,304,314,1
324,304,306,314,1
321,308,307,314,1
319,311,307,313,1
315,312,306,309,1
309,313,304,305,1
305,312,302,300,1
301,309,301,296,1
296,306,300,293,1
295,305,300,292,1
297,306,300,290,1
302,307,299,288,1
307,306,298,286,1
309,304,297,285,1
309,302,296,285,1
310,302,296,287,1
309,301,297,290,1
308,302,298,294,1
308,303,300,297,1
307,305,301,300,1
306,306,302,303,1
305,308,303,305,1
303,309,303,306,1
301,310,303,308,1
300,310,303,310,1
299,309,304,312,1
301,308,304,314,1
303,308,304,316,1
305,307,305,318,1
304,306,304,320,1
302,306,303,320,1
300,306,302,319,1
303,306,300,318,1
305,306,298,317,1
306,305,297,316,1
303,304,295,315,1
300,303,295,312,1
296,302,296,308,1
299,301,297,303,1
309,301,298,300,1
318,303,298,298,1
322,306,298,299,1
319,308,300,300,1
314,310,301,301,1
308,311,302,302,1
302,310,302,302,1
298,310,303,302,1
295,309,302,301,1
296,309,301,302,1
300,309,301,302,1
304,310,303,303,1
306,311,305,304,1
307,310,307,305,1
307,309,307,306,1
309,308,307,307,1
311,307,306,308,1
313,306,305,309,1
312,305,305,309,1
309,305,304,309,1
306,305,305,309,1
303,306,306,310,1
299,308,307,310,1
297,309,309,311,1
296,311,310,312,1
296,311,310,312,1
297,312,308,313,1
296,313,306,314,1
294,313,303,314,1
290,313,301,314,1
286,312,300,314,1
282,311,300,314,1
281,311,302,313,1
284,310,303,310,1
290,307,304,306,1
297,305,305,302,1
304,302,307,300,1
313,300,309,299,1
323,301,311,300,1
330,303,312,302,1
332,305,312,306,1
327,308,313,309,1
318,312,314,312,1
308,313,316,315,1
300,313,316,316,1
296,311,316,316,1
293,310,316,316,1
290,309,315,316,1
286,309,314,315,1
284,309,312,312,1
289,308,311,307,1
297,306,309,303,1
304,304,307,301,1
309,303,305,299,1
311,302,304,297,1
312,302,304,297,1
313,303,303,296,1
314,303,303,296,1
314,304,304,297,1
314,306,305,299,1
313,308,307,302,1
312,310,309,305,1
310,312,310,307,1
308,314,311,309,1
306,315,311,311,1
304,315,312,312,1
303,315,311,313,1
301,316,310,314,1
301,315,309,315,1
301,315,309,316,1
304,314,309,318,1
310,312,310,321,1
321,311,310,326,1
336,309,310,330,1
353,306,307,330,1
370,303,302,327,1
374,300,297,320,1
355,297,293,316,1
321,295,291,312,1
288,294,291,308,1
267,295,295,304,1
257,298,300,300,1
252,304,305,297,1
254,312,309,295,1
266,318,312,295,1
281,322,313,297,1
294,320,314,299,1
303,317,315,301,1
307,314,316,304,1
309,313,318,307,1
309,314,319,309,1
307,315,320,310,1
306,316,320,310,1
304,313,319,308,1
304,309,317,307,1
304,305,315,305,1
305,302,314,305,1
305,300,314,306,1
306,300,314,308,1
306,300,315,310,1
307,301,316,312,1
307,303,317,313,1
306,305,317,314,1
305,307,317,314,1
304,309,316,313,1
303,309,316,312,1
302,310,314,311,1
302,310,313,310,1
303,309,312,310,1
303,309,312,311,1
304,308,311,311,1
305,307,311,311,1
306,306,310,310,1
306,304,310,308,1
307,302,309,306,1
307,300,308,305,1
308,300,307,304,1
310,299,307,305,1
314,299,308,307,1
320,299,310,311,1
328,300,312,316,1
341,302,316,322,1
359,304,319,327,1
373,306,318,331,1
370,306,312,334,1
354,306,301,334,1
332,306,290,331,1
310,305,282,325,1
292,305,278,318,1
283,304,281,313,1
281,304,288,310,1
282,304,295,305,1
283,302,300,298,1
283,300,303,291,1
284,299,305,287,1
286,299,305,286,1
290,301,305,287,1
294,303,306,290,1
298,306,309,293,1
302,309,312,297,1
304,313,314,301,1
304,315,316,305,1
304,317,317,308,1
302,317,317,309,1
302,317,316,310,1
301,317,315,309,1
303,316,314,307,1
303,316,312,306,1
304,315,311,306,1
304,315,310,307,1
303,314,309,308,1
302,313,308,308,1
302,312,308,309,1
302,311,307,310,1
302,310,306,311,1
304,308,306,312,1
305,305,306,312,1
307,303,306,313,1
308,301,306,313,1
309,300,307,313,1
310,300,308,313,1
310,301,309,313,1
310,303,310,312,1
309,305,310,310,1
308,307,309,308,1
307,310,308,306,1
306,310,307,306,1
304,310,306,305,1
301,310,306,305,1
297,310,306,306,1
294,309,306,307,1
293,309,306,310,1
295,307,306,312,1
303,305,306,314,1
311,302,305,314,1
314,298,303,313,1
310,295,300,310,1
303,294,299,310,1
297,295,301,312,1
296,299,304,315,1
302,304,308,315,1
308,309,311,314,1
312,312,313,312,1
312,313,314,310,1
310,312,314,308,1
307,311,314,306,1
304,311,312,305,1
302,312,311,304,1
301,312,310,304,1
302,312,309,304,1
304,311,309,304,1
305,311,308,304,1
305,309,307,303,1
305,307,306,301,1
305,305,305,300,1
305,303,305,300,1
306,301,305,300,1
307,300,306,302,1
307,300,307,304,1
307,301,309,307,1
308,302,309,310,1
309,305,310,312,1
309,308,310,314,1
308,311,309,316,1
307,313,309,316,1
305,315,309,316,1
304,316,309,316,1
304,316,309,316,1
305,317,311,316,1
309,316,313,317,1
316,315,314,316,1
324,313,312,314,1
328,310,307,310,1
330,306,301,307,1
330,301,295,304,1
328,297,289,302,1
327,294,287,301,1
323,293,288,302,1
320,294,292,304,1
315,297,297,306,1
307,301,301,308,1
295,305,305,311,1
286,309,309,313,1
280,313,312,312,1
274,315,313,310,1
272,316,314,308,1
272,315,315,307,1
271,313,315,307,1
271,310,315,308,1
277,308,315,309,1
289,306,314,309,1
298,305,313,308,1
301,304,313,308,1
303,304,311,308,1
305,304,310,307,1
305,302,309,306,1
304,301,309,306,1
304,300,310,307,1
306,300,311,308,1
309,301,313,311,1
311,302,313,312,1
313,304,314,312,1
313,306,314,310,1
313,308,314,307,1
312,308,312,303,1
311,308,310,300,1
307,308,308,298,1
302,308,304,296,1
300,307,304,294,1
304,307,305,293,1
308,306,306,292,1
310,305,306,292,1
310,303,306,292,1
306,301,306,294,1
299,299,306,296,1
290,297,306,300,1
286,297,306,305,1
289,297,306,310,1
294,297,309,315,1
300,299,311,319,1
307,302,314,324,1
314,305,317,326,1
320,308,318,326,1
321,310,319,325,1
319,312,318,322,1
315,312,316,318,1
310,311,315,314,1
306,309,314,312,1
303,309,313,311,1
301,310,313,311,1
300,312,313,311,1
298,312,312,308,1
295,312,310,305,1
293,310,307,302,1
292,308,304,298,1
293,306,303,296,1
296,303,302,296,1
298,300,302,297,1
299,296,301,299,1
300,294,301,301,1
304,293,302,303,1
310,294,303,304,1
316,296,303,304,1
322,297,303,302,1
327,299,303,301,1
328,300,303,301,1
325,301,303,301,1
319,302,304,301,1
312,303,304,302,1
305,304,305,303,1
299,304,304,304,1
293,303,303,305,1
290,303,303,307,1
290,302,304,310,1
292,302,304,313,1
295,301,303,317,1
298,300,302,318,1
299,300,300,320,1
298,301,298,319,1
296,302,296,319,1
294,303,297,319,1
291,304,300,318,1
290,306,303,316,1
294,307,305,313,1
304,309,308,309,1
316,311,309,307,1
324,312,309,305,1
327,313,309,304,1
327,314,309,303,1
325,314,307,304,1
321,314,306,303,1
314,313,305,301,1
308,311,304,299,1
303,310,303,297,1
302,308,302,296,1
302,306,301,295,1
305,304,299,296,1
309,303,299,297,1
313,302,299,299,1
317,302,299,300,1
319,304,300,302,1
321,305,302,304,1
322,308,303,306,1
320,310,304,306,1
318,312,304,306,1
314,313,304,305,1
310,314,304,305,1
306,315,303,305,1
305,315,302,305,1
305,315,301,306,1
306,316,301,306,1
309,315,300,308,1
312,314,300,310,1
314,311,299,313,1
313,306,298,317,1
309,301,297,321,1
304,296,297,325,1
299,293,297,329,1
296,293,298,332,1
297,295,301,335,1
300,298,304,337,1
306,304,307,336,1
311,311,309,332,1
313,316,310,327,1
312,319,311,322,1
312,320,311,317,1
314,319,309,311,1
319,317,306,306,1
320,315,302,300,1
318,313,300,296,1
312,311,298,293,1
304,310,298,293,1
294,309,297,293,1
283,307,297,294,1
273,305,296,295,1
273,304,295,297,1
280,302,295,298,1
291,301,296,299,1
304,300,296,300,1
315,301,297,301,1
323,302,298,303,1
326,304,298,304,1
326,306,297,306,1
323,307,296,307,1
317,308,295,307,1
309,308,297,308,1
298,308,299,309,1
290,308,302,310,1
284,308,306,311,1
283,307,308,312,1
288,307,309,314,1
295,307,310,316,1
301,307,311,318,1
306,307,311,319,1
310,306,311,320,1
315,305,308,321,1
321,304,305,321,1
324,303,301,321,1
327,302,297,321,1
329,302,294,319,1
330,303,293,318,1
329,304,294,317,1
323,307,297,314,1
318,309,299,312,1
312,311,302,309,1
306,313,305,307,1
300,313,307,306,1
295,313,308,306,1
291,312,308,306,1
288,312,308,308,1
287,312,307,311,1
289,312,307,314,1
292,312,307,316,1
295,311,306,317,1
298,309,305,316,1
301,308,304,315,1
303,307,302,314,1
305,305,301,312,1
306,304,301,309,1
304,303,301,309,1
302,303,301,310,1
300,304,303,311,1
298,306,304,311,1
297,308,305,310,1
296,310,305,308,1
293,311,305,306,1
290,311,305,305,1
286,311,304,305,1
281,311,304,307,1
282,310,303,310,1
291,310,304,315,1
299,310,305,319,1
301,308,307,324,1
298,307,308,327,1
294,305,308,329,1
297,304,308,330,1
308,303,306,329,1
319,303,305,326,1
329,304,304,321,1
337,307,304,316,1
342,313,307,309,1
342,318,310,303,1
334,321,312,299,1
320,319,312,297,1
305,314,310,296,1
291,308,308,295,1
282,303,307,295,1
280,302,306,295,1
284,303,306,294,1
291,305,305,294,1
297,306,305,294,1
301,308,306,295,1
300,308,307,296,1
295,307,307,297,1
292,305,306,298,1
292,303,305,299,1
294,301,305,301,1
299,300,306,304,1
304,300,307,308,1
309,301,309,312,1
313,303,312,315,1
316,305,313,317,1
317,306,314,318,1
316,308,314,317,1
314,309,313,317,1
311,311,312,316,1
308,311,309,315,1
305,312,306,313,1
302,313,302,312,1
299,313,298,310,1
297,313,294,308,1
296,313,292,307,1
297,312,292,305,1
301,311,296,305,1
306,310,300,305,1
311,308,303,306,1
315,306,305,309,1
318,302,308,313,1
319,300,312,316,1
319,298,314,321,1
316,299,316,325,1
312,300,318,329,1
307,302,320,330,1
304,304,321,329,1
303,307,320,324,1
300,309,319,318,1
294,310,315,312,1
290,310,310,306,1
288,310,306,301,1
285,311,303,298,1
278,310,303,297,1
275,309,304,297,1
284,309,305,297,1
299,308,305,299,1
314,307,305,302,1
322,306,306,306,1
326,305,306,310,1
324,304,307,314,1
321,305,309,318,1
319,306,311,321,1
317,308,314,324,1
311,311,315,324,1
306,314,315,322,1
306,315,315,319,1
308,315,314,316,1
310,314,313,313,1
311,312,312,311,1
312,311,310,308,1
312,310,309,306,1
311,309,308,305,1
309,308,307,305,1
307,308,305,306,1
304,308,304,306,1
303,307,303,306,1
301,306,302,306,1
302,304,301,306,1
303,302,301,308,1
304,300,303,309,1
305,299,304,312,1
307,300,306,314,1
308,302,308,317,1
310,304,311,319,1
311,306,311,322,1
310,307,311,323,1
309,308,311,324,1
306,308,311,325,1
305,308,310,324,1
305,307,309,322,1
307,306,307,318,1
310,305,306,315,1
313,305,303,310,1
318,305,302,305,1
322,306,301,301,1
321,306,301,299,1
315,305,301,298,1
306,304,300,299,1
299,304,299,301,1
297,304,298,303,1
297,305,297,304,1
299,306,297,304,1
300,307,297,304,1
301,309,297,304,1
301,311,297,305,1
301,312,296,305,1
302,313,297,305,1
304,312,298,306,1
307,311,299,307,1
308,309,299,308,1
308,308,299,308,1
307,308,298,307,1
306,308,298,306,1
304,308,299,305,1
302,307,299,305,1
301,306,299,305,1
300,305,299,306,1
300,304,299,307,1
300,303,300,308,1
299,303,301,310,1
298,303,302,312,1
301,304,302,314,1
306,305,301,317,1
312,307,299,320,1
316,310,297,322,1
319,313,295,323,1
320,315,294,324,1
318,317,295,324,1
310,319,299,323,1
298,319,304,323,1
287,320,307,323,1
281,320,308,321,1
281,319,307,318,1
287,317,304,315,1
295,312,302,312,1
302,307,299,307,1
307,303,298,302,1
311,300,297,300,1
315,298,299,301,1
318,295,302,304,1
319,295,305,306,1
318,296,306,309,1
316,298,307,311,1
314,300,308,313,1
312,301,310,314,1
310,302,311,314,1
308,302,311,314,1
304,302,310,313,1
300,303,309,313,1
299,304,308,313,1
300,306,309,314,1
304,308,308,316,1
306,309,308,318,1
307,311,307,318,1
306,311,306,316,1
305,310,305,314,1
305,307,304,313,1
305,305,304,312,1
306,303,304,312,1
306,301,305,311,1
307,300,306,310,1
307,300,308,310,1
308,300,309,310,1
310,302,311,311,1
311,304,312,310,1
313,307,312,309,1
316,309,312,307,1
320,310,312,309,1
323,312,313,309,1
322,312,312,310,1
314,312,311,309,1
298,310,307,307,1
284,307,303,305,1
282,304,299,302,1
290,303,298,301,1
300,303,297,300,1
308,303,296,300,1
312,304,294,301,1
312,305,292,303,1
309,306,291,303,1
306,305,291,304,1
304,304,294,304,1
303,303,299,304,1
303,302,304,304,1
302,300,309,305,1
301,300,311,306,1
301,299,312,306,1
302,300,313,305,1
303,301,312,304,1
304,302,311,303,1
304,302,310,301,1
304,303,309,300,1
304,303,308,300,1
305,304,308,300,1
307,304,307,299,1
309,303,307,299,1
309,302,306,298,1
312,300,305,298,1
317,298,304,298,1
323,297,304,300,1
325,297,305,302,1
325,298,305,305,1
323,300,306,307,1
320,301,306,309,1
315,302,307,310,1
311,302,308,310,1
306,302,308,311,1
303,302,309,311,1
301,303,310,312,1
299,304,311,313,1
298,304,311,313,1
297,304,310,312,1
295,304,308,310,1
293,304,308,308,1
290,304,308,306,1
286,303,308,304,1
284,303,308,303,1
288,302,307,302,1
295,302,307,303,1
300,301,307,304,1
301,300,308,307,1
300,299,308,310,1
299,299,309,313,1
305,298,311,315,1
315,299,312,315,1
324,300,313,315,1
329,302,314,314,1
330,304,313,312,1
327,306,312,309,1
321,308,310,307,1
314,311,310,305,1
312,313,311,306,1
313,315,312,307,1
314,315,313,309,1
315,314,314,310,1
315,312,313,309,1
314,309,313,308,1
314,306,312,306,1
313,303,310,305,1
314,301,309,304,1
317,300,309,305,1
322,301,311,307,1
327,303,312,310,1
330,305,314,313,1
330,309,314,315,1
328,313,314,315,1
326,317,314,316,1
325,320,314,316,1
326,322,314,314,1
328,323,313,310,1
329,321,313,305,1
329,315,312,301,1
325,308,310,298,1
315,302,308,296,1
305,299,307,295,1
297,297,307,297,1
291,295,307,299,1
288,294,307,301,1
287,294,307,304,1
286,294,306,306,1
286,294,306,308,1
286,295,306,310,1
286,296,306,312,1
289,298,305,314,1
294,300,303,315,1
298,302,301,314,1
301,303,299,312,1
303,304,299,309,1
305,305,301,305,1
307,305,304,301,1
308,305,307,297,1
308,306,309,295,1
307,306,310,295,1
306,305,311,296,1
304,305,311,297,1
300,303,310,298,1
294,301,309,299,1
286,299,308,301,1
280,297,308,302,1
278,296,309,304,1
281,296,311,306,1
291,296,312,308,1
303,298,312,310,1
315,300,311,312,1
323,302,308,313,1
326,304,306,313,1
325,305,305,312,1
323,307,306,311,1
320,308,308,309,1
317,309,309,307,1
312,309,308,305,1
307,309,308,303,1
303,308,307,302,1
300,308,306,300,1
294,306,304,299,1
285,304,302,299,1
280,302,299,300,1
289,301,298,301,1
304,300,299,303,1
316,299,302,307,1
323,299,304,310,1
325,300,307,312,1
326,302,309,314,1
325,304,312,314,1
323,307,314,313,1
321,309,316,312,1
320,311,317,311,1
319,312,317,311,1
318,313,315,310,1
317,314,313,310,1
314,315,312,310,1
311,315,311,312,1
306,315,310,313,1
304,314,309,314,1
304,312,308,315,1
308,310,306,316,1
312,308,304,316,1
316,305,301,317,1
317,303,300,317,1
316,302,299,316,1
315,302,300,314,1
315,302,301,312,1
313,303,302,309,1
312,305,301,307,1
312,306,300,307,1
311,308,300,307,1
311,310,299,307,1
309,312,300,308,1
308,313,301,309,1
308,313,302,310,1
307,313,302,311,1
303,313,303,312,1
297,312,303,314,1
291,311,302,314,1
287,308,300,314,1
288,305,298,313,1
293,302,296,312,1
300,299,294,310,1
306,297,292,309,1
310,295,290,309,1
310,294,289,309,1
308,295,289,311,1
305,298,292,313,1
300,301,297,315,1
292,304,303,317,1
287,307,307,317,1
289,308,310,314,1
299,308,311,310,1
308,307,311,305,1
315,305,310,301,1
317,304,309,299,1
318,304,308,298,1
316,304,307,298,1
312,303,306,299,1
305,302,304,300,1
301,301,303,302,1
299,300,303,303,1
299,300,303,304,1
300,300,304,305,1
301,300,305,306,1
300,300,306,307,1
297,301,307,307,1
293,302,307,307,1
291,303,307,307,1
295,304,306,307,1
304,305,305,307,1
313,307,304,308,1
317,308,303,309,1
316,310,304,312,1
310,311,306,314,1
301,311,308,315,1
290,311,309,314,1
282,310,310,311,1
280,310,310,309,1
282,309,308,305,1
287,308,305,300,1
294,306,302,295,1
302,304,301,292,1
308,303,301,292,1
311,301,302,293,1
313,300,304,295,1
313,300,307,297,1
313,300,310,299,1
311,300,313,300,1
310,301,315,302,1
308,304,315,303,1
307,306,315,304,1
307,308,314,304,1
307,310,313,303,1
307,311,311,303,1
308,312,309,302,1
308,312,308,300,1
307,311,308,298,1
306,310,308,298,1
306,309,308,298,1
305,308,308,299,1
306,306,308,301,1
309,305,308,304,1
312,304,308,307,1
312,304,309,310,1
308,304,309,311,1
303,305,308,311,1
299,306,308,310,1
302,308,308,310,1
309,310,309,309,1
316,311,311,309,1
320,312,312,309,1
317,312,312,307,1
312,313,310,305,1
307,313,308,303,1
303,312,306,302,1
299,311,305,300,1
296,310,305,299,1
293,309,305,298,1
289,308,305,297,1
284,307,304,296,1
281,305,302,294,1
285,303,301,294,1
292,301,302,295,1
298,300,303,297,1
302,301,306,300,1
304,303,309,303,1
306,304,312,306,1
307,306,314,309,1
306,307,316,310,1
305,308,316,309,1
304,310,316,308,1
303,311,315,306,1
302,312,314,305,1
302,313,314,303,1
302,313,314,302,1
301,313,314,302,1
301,313,315,303,1
300,311,314,304,1
300,310,311,305,1
302,309,308,305,1
309,308,305,306,1
320,306,302,305,1
329,304,301,306,1
335,301,301,307,1
336,299,301,310,1
328,298,303,314,1
308,297,305,317,1
286,297,309,320,1
269,299,312,320,1
262,300,316,318,1
268,301,318,315,1
281,302,320,312,1
291,305,320,309,1
297,307,319,304,1
300,308,318,299,1
301,308,316,295,1
301,308,314,293,1
301,307,313,293,1
300,308,312,293,1
302,308,311,294,1
303,307,311,297,1
306,306,311,299,1
308,305,312,302,1
309,304,313,304,1
310,304,314,306,1
310,304,315,308,1
310,305,316,310,1
309,307,317,312,1
307,309,317,313,1
305,310,316,313,1
304,311,316,314,1
302,313,315,313,1
302,313,315,312,1
302,313,315,310,1
302,312,314,309,1
302,311,313,308,1
303,310,312,307,1
303,309,311,307,1
303,308,309,307,1
304,307,308,307,1
306,305,306,307,1
307,303,306,308,1
308,302,306,309,1
309,302,306,311,1
312,302,308,314,1
317,302,309,317,1
324,303,309,320,1
332,303,309,322,1
343,303,308,323,1
354,302,303,323,1
361,301,298,322,1
355,300,297,320,1
337,300,299,316,1
313,301,301,313,1
288,302,303,310,1
270,305,305,308,1
261,308,307,306,1
263,310,309,303,1
274,311,308,300,1
283,312,306,297,1
288,310,304,296,1
293,309,304,297,1
300,306,304,298,1
306,304,306,301,1
310,302,308,304,1
312,302,310,306,1
312,303,312,309,1
310,305,313,311,1
308,307,314,313,1
306,309,314,314,1
305,311,313,314,1
304,312,313,314,1
304,313,312,314,1
303,314,312,314,1
302,315,311,314,1
302,316,310,313,1
303,316,309,312,1
303,316,307,310,1
304,315,305,309,1
305,313,303,307,1
305,311,301,305,1
306,308,300,303,1
307,307,298,302,1
308,306,298,303,1
310,305,298,305,1
311,306,300,309,1
312,307,302,313,1
313,310,303,318,1
312,313,304,322,1
311,316,305,325,1
310,318,304,326,1
308,319,303,325,1
306,319,302,323,1
305,318,301,320,1
307,317,301,319,1
310,317,302,316,1
314,315,300,313,1
315,313,297,309,1
314,310,290,306,1
310,306,284,304,1
308,303,277,302,1
310,301,272,299,1
310,298,271,294,1
303,297,274,290,1
296,297,280,288,1
291,299,289,290,1
287,301,298,295,1
284,304,305,302,1
288,307,310,308,1
296,309,313,313,1
303,310,314,314,1
307,311,315,314,1
308,312,316,313,1
309,314,316,313,1
308,315,316,312,1
307,315,314,313,1
305,314,313,313,1
304,313,312,312,1
303,312,310,310,1
303,310,308,308,1
303,309,306,306,1
304,308,304,305,1
306,307,302,304,1
307,306,300,305,1
309,306,300,306,1
309,305,300,308,1
309,306,300,310,1
309,306,301,312,1
308,306,301,313,1
308,307,301,313,1
306,308,300,314,1
305,309,299,314,1
304,310,299,314,1
304,312,299,314,1
303,314,299,313,1
302,315,300,311,1
303,315,300,309,1
307,316,301,308,1
314,315,302,308,1
323,314,303,307,1
334,312,304,306,1
343,309,305,306,1
346,305,305,307,1
338,302,304,308,1
322,299,304,310,1
304,299,304,313,1
292,300,305,316,1
286,304,307,319,1
284,309,309,320,1
286,311,309,319,1
288,312,309,316,1
290,312,308,313,1
290,312,307,310,1
286,312,307,308,1
281,313,307,308,1
278,313,306,307,1
278,312,305,308,1
283,312,304,308,1
288,310,304,309,1
292,309,304,309,1
294,307,303,310,1
296,305,304,311,1
297,304,304,312,1
298,304,304,313,1
300,304,304,314,1
301,304,304,314,1
303,305,303,315,1
302,306,303,316,1
301,308,302,316,1
298,310,299,315,1
296,311,298,313,1
294,312,298,312,1
294,313,301,312,1
296,314,305,313,1
302,315,307,314,1
311,314,308,315,1
319,314,307,316,1
326,312,304,315,1
328,310,302,314,1
324,308,298,313,1
313,305,295,311,1
301,303,293,310,1
294,302,295,311,1
294,302,299,312,1
296,302,306,314,1
300,303,311,316,1
303,304,316,318,1
305,306,319,317,1
305,309,319,315,1
304,311,318,311,1
302,311,316,307,1
301,310,313,303,1
300,307,311,300,1
300,306,310,299,1
300,305,309,297,1
301,305,309,298,1
303,305,309,298,1
305,304,309,300,1
308,303,309,301,1
310,301,310,302,1
312,300,310,302,1
314,298,311,303,1
316,297,311,304,1
317,296,312,306,1
319,296,312,308,1
321,297,313,310,1
320,298,313,313,1
318,301,314,316,1
313,303,315,316,1
308,305,314,315,1
303,307,313,313,1
298,307,312,312,1
291,306,311,313,1
285,305,311,314,1
281,304,313,316,1
279,304,314,317,1
279,303,316,317,1
280,303,316,317,1
283,303,316,317,1
288,304,315,314,1
294,303,313,309,1
299,301,312,304,1
302,298,311,300,1
303,297,312,298,1
303,296,313,299,1
303,297,314,301,1
304,299,315,303,1
306,301,316,305,1
311,304,317,306,1
320,305,317,306,1
326,306,316,306,1
328,307,316,306,1
328,308,317,307,1
331,308,318,309,1
332,309,319,310,1
329,310,319,312,1
320,311,320,312,1
309,311,320,311,1
298,310,318,309,1
290,309,314,306,1
286,308,311,304,1
288,306,309,304,1
293,304,309,304,1
299,303,309,306,1
303,303,311,307,1
306,305,312,309,1
307,308,312,312,1
307,311,311,314,1
306,312,311,314,1
304,314,312,313,1
302,316,312,311,1
301,316,313,308,1
300,315,314,306,1
301,315,314,304,1
301,313,315,303,1
301,312,315,304,1
302,312,315,304,1
303,311,315,304,1
304,309,313,302,1
307,307,311,301,1
310,305,307,299,1
314,303,303,297,1
316,301,299,298,1
318,299,297,300,1
319,298,298,305,1
318,299,300,310,1
315,300,306,314,1
310,302,312,317,1
302,303,316,319,1
296,304,318,319,1
295,303,318,319,1
296,304,317,318,1
299,304,315,316,1
302,305,313,314,1
304,308,311,313,1
304,310,310,310,1
304,311,308,306,1
303,311,307,301,1
301,311,306,296,1
298,310,305,293,1
296,309,304,291,1
293,307,303,292,1
291,306,303,294,1
288,305,303,296,1
284,305,304,298,1
283,305,305,302,1
288,306,306,306,1
296,308,308,309,1
301,309,309,311,1
305,311,309,311,1
312,311,309,310,1
319,311,308,309,1
328,311,306,308,1
335,310,304,306,1
337,308,301,304,1
335,306,298,302,1
331,304,297,301,1
325,302,298,302,1
318,301,298,304,1
311,301,299,306,1
307,301,300,309,1
304,301,301,312,1
301,301,301,314,1
300,301,302,316,1
301,302,302,318,1
304,302,302,319,1
309,303,302,317,1
314,304,301,314,1
317,305,301,310,1
317,306,300,306,1
314,307,299,302,1
311,307,297,299,1
307,308,296,296,1
301,310,296,295,1
296,312,297,294,1
292,313,297,294,1
290,312,298,294,1
292,310,299,293,1
296,308,298,292,1
303,306,297,291,1
310,304,296,291,1
314,302,295,292,1
313,300,295,293,1
311,298,295,295,1
309,296,296,298,1
308,295,298,300,1
306,296,299,302,1
304,297,301,305,1
302,299,302,308,1
299,300,304,310,1
297,303,303,311,1
294,305,303,313,1
294,308,303,313,1
294,310,303,314,1
295,312,303,314,1
296,312,303,315,1
297,313,303,316,1
299,312,303,317,1
301,310,302,316,1
304,308,300,315,1
305,306,300,313,1
307,304,299,310,1
308,301,300,308,1
309,299,300,307,1
309,297,301,306,1
309,296,302,306,1
308,296,302,308,1
306,297,303,310,1
300,298,303,310,1
290,298,301,309,1
281,300,298,307,1
280,302,294,305,1
283,304,290,303,1
285,308,287,300,1
290,310,286,299,1
298,311,288,298,1
306,311,293,299,1
311,312,298,301,1
313,311,302,303,1
313,309,306,304,1
316,308,307,305,1
323,306,309,306,1
326,303,308,307,1
324,300,308,308,1
320,298,308,311,1
314,296,310,314,1
309,296,311,316,1
308,297,313,318,1
308,299,313,318,1
308,301,312,317,1
303,304,310,315,1
297,305,307,312,1
294,306,304,308,1
294,306,303,307,1
296,307,303,305,1
300,307,303,304,1
305,306,304,304,1
311,305,304,303,1
316,304,305,304,1
321,302,305,304,1
324,301,306,306,1
325,300,307,307,1
325,299,307,309,1
322,299,308,311,1
318,299,309,313,1
313,300,310,314,1
309,302,312,315,1
307,303,314,315,1
307,305,315,314,1
306,306,315,312,1
309,308,314,310,1
312,309,313,308,1
315,310,313,308,1
315,311,313,309,1
311,311,312,310,1
306,311,312,310,1
301,311,311,309,1
296,310,310,306,1
292,309,309,303,1
290,306,308,300,1
290,302,307,298,1
292,299,307,298,1
294,297,308,300,1
297,296,309,304,1
299,295,312,309,1
301,295,315,314,1
300,296,317,319,1
299,298,319,323,1
297,300,321,325,1
296,301,321,326,1
294,301,320,323,1
294,303,320,320,1
294,305,319,316,1
292,308,318,311,1
290,310,317,306,1
293,311,316,301,1
298,311,316,298,1
302,311,315,296,1
304,310,312,295,1
303,308,307,294,1
300,305,302,294,1
298,301,298,296,1
301,300,295,298,1
305,299,294,302,1
307,300,296,304,1
309,301,301,307,1
310,303,309,309,1
310,306,316,312,1
309,309,321,313,1
307,312,325,314,1
304,314,327,313,1
303,315,329,312,1
302,315,329,310,1
301,315,328,308,1
300,314,326,305,1
298,313,324,303,1
297,311,323,301,1
296,310,322,299,1
294,308,321,298,1
294,306,319,296,1
299,304,317,296,1
305,302,315,297,1
312,300,314,300,1
318,298,313,304,1
322,296,313,308,1
326,296,313,312,1
328,296,315,315,1
328,299,317,317,1
326,303,320,320,1
323,308,323,321,1
320,312,323,319,1
321,314,323,316,1
321,314,322,313,1
320,314,321,311,1
317,313,320,310,1
310,311,318,308,1
300,309,317,305,1
294,307,316,303,1
294,304,315,301,1
295,303,313,300,1
295,302,310,298,1
298,301,310,297,1
302,302,310,296,1
305,302,311,295,1
305,302,311,294,1
304,303,311,295,1
305,305,311,297,1
306,307,312,298,1
305,310,313,300,1
306,312,314,303,1
308,314,314,306,1
308,315,314,309,1
307,316,314,313,1
305,317,314,317,1
305,317,313,319,1
306,316,313,320,1
309,315,313,319,1
312,314,314,318,1
314,313,314,317,1
315,311,312,314,1
311,307,309,310,1
304,304,306,304,1
298,301,304,298,1
296,298,303,293,1
297,297,303,290,1
302,297,303,291,1
309,298,303,292,1
314,301,302,295,1
316,304,301,297,1
316,307,300,299,1
315,310,301,300,1
315,312,302,301,1
315,313,304,301,1
314,313,305,302,1
312,314,305,303,1
309,313,304,303,1
307,311,301,302,1
307,310,298,301,1
306,308,294,299,1
306,306,291,298,1
306,304,289,299,1
307,303,289,301,1
308,303,292,303,1
309,303,298,304,1
308,303,303,303,1
306,303,307,303,1
304,303,311,304,1
302,303,313,304,1
298,303,313,304,1
294,303,312,305,1
296,305,311,306,1
299,307,310,305,1
300,310,309,305,1
298,313,308,303,1
294,314,307,303,1
291,314,306,303,1
292,314,304,304,1
298,314,303,305,1
304,313,302,306,1
309,312,302,308,1
313,309,302,308,1
316,307,303,307,1
318,305,303,306,1
316,303,304,307,1
314,303,304,308,1
313,304,305,310,1
314,305,305,311,1
315,307,305,311,1
315,308,304,309,1
313,309,302,306,1
308,309,299,302,1
303,310,296,298,1
302,310,293,295,1
305,310,292,292,1
306,310,292,291,1
303,310,292,291,1
299,310,292,291,1
294,310,294,292,1
290,310,296,293,1
286,309,298,294,1
284,307,299,295,1
286,306,299,297,1
292,304,299,299,1
298,303,300,302,1
304,303,301,306,1
311,303,302,311,1
317,305,302,316,1
321,306,303,319,1
319,308,303,321,1
313,309,302,322,1
307,311,301,323,1
301,312,299,323,1
297,312,299,322,1
296,311,300,321,1
296,310,300,317,1
296,309,300,313,1
297,308,299,308,1
297,307,298,304,1
297,305,297,299,1
298,303,295,295,1
298,301,293,292,1
299,300,292,291,1
301,298,292,293,1
304,298,292,296,1
307,299,293,300,1
310,300,294,304,1
312,302,296,306,1
313,305,297,307,1
314,307,297,307,1
313,309,297,308,1
309,309,297,309,1
304,309,297,311,1
299,309,296,313,1
296,309,296,313,1
295,309,295,313,1
296,309,293,312,1
297,309,290,312,1
298,309,286,310,1
299,309,282,307,1
301,309,279,303,1
303,307,279,299,1
310,306,281,297,1
316,304,284,296,1
319,303,288,296,1
316,302,292,297,1
310,302,295,297,1
301,302,299,298,1
293,304,302,299,1
289,305,304,300,1
289,307,305,300,1
291,308,304,301,1
294,309,302,302,1
296,310,300,303,1
296,312,300,304,1
296,312,300,305,1
295,313,301,306,1
294,314,303,306,1
291,313,304,306,1
288,311,305,306,1
285,309,306,305,1
281,306,306,303,1
279,303,305,303,1
283,301,305,302,1
297,299,305,302,1
314,298,305,302,1
327,297,306,302,1
332,298,307,303,1
329,299,307,304,1
320,300,306,304,1
310,301,303,305,1
303,303,300,306,1
302,304,298,306,1
304,304,296,305,1
308,304,297,304,1
312,304,302,304,1
316,304,306,304,1
319,304,309,304,1
318,305,310,303,1
313,304,310,301,1
308,303,309,299,1
304,301,308,298,1
305,299,309,299,1
309,298,311,303,1
313,297,313,307,1
314,295,314,312,1
311,295,316,315,1
305,295,317,317,1
301,296,317,316,1
298,298,317,314,1
297,300,315,311,1
297,302,313,307,1
297,304,312,303,1
298,306,310,301,1
299,308,309,301,1
301,311,309,302,1
303,313,308,303,1
307,314,308,305,1
312,315,307,307,1
316,314,305,308,1
318,313,302,309,1
317,311,298,309,1
316,308,295,309,1
313,306,294,309,1
309,304,298,309,1
306,303,303,311,1
302,304,310,312,1
299,305,315,314,1
297,308,321,316,1
294,309,324,316,1
292,311,327,316,1
290,312,326,315,1
287,312,325,313,1
285,312,322,311,1
288,311,321,307,1
302,311,319,304,1
319,311,319,302,1
329,311,319,301,1
327,310,318,301,1
319,309,317,300,1
309,307,315,299,1
300,306,314,298,1
294,305,312,297,1
292,305,312,297,1
292,305,312,298,1
295,305,314,299,1
298,305,315,302,1
301,306,316,305,1
303,307,317,308,1
303,309,318,310,1
302,311,318,312,1
304,312,318,313,1
307,313,318,313,1
312,313,318,312,1
314,312,318,311,1
315,311,317,310,1
313,311,316,309,1
306,310,315,308,1
301,309,314,308,1
298,308,313,308,1
296,308,312,309,1
293,307,312,311,1
289,305,311,314,1
290,304,311,317,1
299,304,310,320,1
310,304,310,323,1
318,305,310,325,1
323,306,312,325,1
323,307,312,321,1
321,307,311,316,1
317,307,310,311,1
314,307,308,308,1
311,307,306,306,1
308,307,306,306,1
305,308,306,306,1
304,308,308,307,1
305,308,310,307,1
308,308,311,307,1
313,308,311,306,1
317,307,311,306,1
318,306,311,305,1
317,303,310,305,1
315,301,310,306,1
313,298,309,308,1
313,296,309,310,1
312,294,309,312,1
310,294,309,313,1
306,294,310,314,1
301,297,311,315,1
299,301,311,314,1
300,304,310,312,1
302,308,309,310,1
303,311,309,307,1
303,314,308,305,1
302,315,307,304,1
301,315,306,304,1
300,315,306,306,1
301,315,305,307,1
304,313,303,310,1
308,313,299,312,1
312,312,296,314,1
316,310,293,316,1
317,308,291,319,1
316,306,291,323,1
314,305,295,325,1
314,304,300,325,1
317,303,305,321,1
320,302,309,316,1
321,303,312,311,1
319,304,315,306,1
314,307,315,301,1
310,309,315,299,1
306,311,314,297,1
303,312,312,297,1
301,313,311,297,1
298,314,310,297,1
295,314,310,298,1
290,314,310,300,1
285,314,310,303,1
279,314,311,305,1
275,312,310,306,1
277,310,309,306,1
290,308,308,306,1
306,306,308,306,1
317,304,308,306,1
319,303,309,306,1
315,303,310,305,1
306,304,310,303,1
295,305,309,301,1
291,305,307,301,1
293,306,305,301,1
298,307,305,301,1
301,309,305,302,1
299,310,304,301,1
296,310,304,301,1
294,310,304,300,1
293,309,304,299,1
295,308,303,298,1
297,307,304,297,1
300,306,304,297,1
303,304,303,298,1
305,303,301,299,1
308,302,300,301,1
311,302,299,303,1
314,303,299,305,1
316,304,299,307,1
317,304,299,309,1
316,305,300,310,1
313,306,301,311,1
307,307,303,311,1
300,309,304,310,1
297,311,305,309,1
301,312,307,310,1
307,314,308,310,1
313,314,308,311,1
315,313,308,311,1
315,313,307,311,1
312,312,305,311,1
306,310,303,310,1
301,308,300,309,1
296,307,300,308,1
293,306,300,307,1
291,305,300,306,1
291,304,300,305,1
291,303,302,304,1
292,302,303,305,1
294,302,304,304,1
297,304,305,305,1
299,306,306,305,1
301,309,307,306,1
302,310,308,306,1
302,311,309,307,1
304,311,309,308,1
308,312,309,309,1
313,312,309,309,1
315,312,308,309,1
313,313,307,309,1
307,313,306,309,1
302,314,303,310,1
298,316,301,312,1
296,317,298,314,1
296,318,297,317,1
295,316,296,320,1
294,313,297,322,1
294,310,300,322,1
297,308,303,320,1
303,306,306,318,1
308,305,308,316,1
312,305,310,316,1
313,306,312,316,1
313,307,313,316,1
312,308,313,314,1
313,309,312,312,1
315,309,312,308,1
317,310,311,305,1
316,310,311,302,1
312,310,311,298,1
305,311,309,295,1
299,310,307,291,1
296,309,305,289,1
293,307,303,290,1
288,304,302,292,1
281,301,301,295,1
273,298,301,299,1
270,296,302,303,1
272,295,302,306,1
284,295,304,309,1
301,298,305,313,1
314,302,307,314,1
320,306,307,313,1
322,309,308,310,1
320,313,308,306,1
317,314,309,304,1
315,316,311,303,1
314,317,313,303,1
313,317,314,304,1
312,318,314,305,1
311,318,314,306,1
308,318,313,306,1
304,317,312,306,1
305,316,312,304,1
308,314,312,302,1
310,312,311,300,1
312,310,311,299,1
312,308,311,299,1
312,307,312,301,1
310,307,313,304,1
306,308,315,307,1
303,309,316,310,1
301,311,317,311,1
300,313,318,312,1
300,314,319,313,1
302,316,318,313,1
305,318,316,312,1
310,318,313,310,1
317,317,310,306,1
326,315,307,302,1
331,313,307,299,1
328,312,307,297,1
315,310,308,296,1
295,308,308,296,1
282,305,307,297,1
279,303,307,299,1
284,301,307,301,1
290,300,307,304,1
296,300,309,306,1
301,300,311,309,1
305,303,313,312,1
307,307,315,315,1
307,312,317,318,1
305,315,317,320,1
304,318,318,320,1
302,319,317,319,1
300,319,316,316,1
298,318,315,314,1
296,317,314,312,1
295,317,312,308,1
294,315,310,305,1
295,313,308,302,1
298,311,306,299,1
304,308,302,297,1
308,304,297,295,1
312,301,293,294,1
317,298,291,295,1
325,296,291,295,1
330,296,292,296,1
331,296,296,298,1
328,298,300,302,1
321,301,303,304,1
313,302,306,306,1
305,304,309,307,1
298,305,310,308,1
291,306,309,308,1
285,307,308,307,1
285,307,306,305,1
291,307,305,302,1
300,307,305,298,1
308,308,305,296,1
314,309,305,294,1
315,310,305,295,1
312,311,305,296,1
307,311,305,298,1
301,309,304,300,1
298,307,305,302,1
301,306,306,305,1
310,304,307,307,1
319,304,308,309,1
323,304,308,309,1
324,305,308,309,1
321,308,307,310,1
315,311,306,310,1
306,314,305,310,1
298,317,303,310,1
294,318,302,309,1
296,319,302,308,1
302,319,301,309,1
308,318,300,310,1
311,316,299,312,1
310,315,300,313,1
305,313,302,314,1
296,311,304,315,1
285,310,306,313,1
278,310,306,312,1
282,309,306,309,1
291,307,304,307,1
295,306,303,306,1
297,305,301,306,1
299,305,301,308,1
302,307,301,310,1
304,310,302,310,1
305,313,302,307,1
304,314,301,303,1
304,316,300,298,1
304,316,299,295,1
304,316,299,292,1
303,315,298,291,1
302,314,296,292,1
300,312,294,294,1
299,311,291,296,1
298,310,288,299,1
298,309,286,302,1
298,307,286,304,1
300,306,287,307,1
302,305,289,310,1
304,305,291,312,1
305,304,293,314,1
306,303,296,315,1
307,303,298,315,1
307,304,302,315,1
306,305,305,314,1
305,307,306,313,1
303,309,304,311,1
300,310,300,310,1
303,310,295,310,1
309,310,292,309,1
315,309,290,310,1
316,307,291,310,1
314,306,293,309,1
311,304,297,309,1
308,303,299,308,1
305,302,301,307,1
300,300,301,306,1
296,299,299,303,1
292,298,299,301,1
289,298,298,301,1
291,299,297,301,1
297,301,297,303,1
303,303,296,305,1
308,304,296,307,1
314,306,298,309,1
322,307,299,309,1
328,308,301,309,1
329,309,302,309,1
324,309,302,309,1
317,310,301,309,1
309,311,300,308,1
301,313,299,306,1
294,314,299,304,1
291,314,301,301,1
291,314,301,298,1
292,313,300,296,1
294,311,299,295,1
296,308,299,295,1
298,306,298,296,1
301,304,299,300,1
303,302,299,304,1
304,302,300,308,1
303,302,302,313,1
302,303,302,317,1
299,305,302,319,1
295,307,302,321,1
289,309,302,322,1
282,310,303,322,1
278,311,303,320,1
282,312,303,317,1
289,312,302,313,1
299,313,301,310,1
309,314,300,305,1
314,314,299,300,1
314,312,298,296,1
312,310,298,295,1
311,308,297,296,1
310,305,295,298,1
310,302,294,300,1
310,301,293,302,1
309,301,293,304,1
307,303,294,306,1
306,306,296,309,1
305,308,299,310,1
304,311,301,310,1
303,312,302,308,1
302,312,303,304,1
301,313,303,300,1
303,312,304,297,1
305,311,304,297,1
308,310,306,297,1
309,310,306,298,1
310,310,307,298,1
308,309,306,300,1
306,308,306,302,1
304,308,307,304,1
305,306,307,307,1
306,306,307,311,1
308,305,307,315,1
309,305,308,318,1
308,305,309,320,1
305,306,310,320,1
301,306,311,319,1
299,308,314,318,1
297,308,316,316,1
299,309,316,314,1
306,310,314,313,1
313,310,311,312,1
316,312,308,311,1
312,313,305,309,1
304,314,303,305,1
298,315,301,302,1
293,315,302,300,1
289,314,303,298,1
290,312,304,298,1
292,310,304,297,1
295,306,306,299,1
301,304,308,301,1
307,302,311,306,1
313,302,314,310,1
313,302,317,314,1
306,303,319,316,1
295,305,321,317,1
285,306,323,316,1
281,308,323,314,1
285,309,322,311,1
293,311,322,308,1
302,312,321,305,1
308,313,320,303,1
310,315,319,301,1
311,318,319,301,1
310,320,318,302,1
309,319,318,305,1
308,318,317,307,1
307,317,316,310,1
307,316,314,311,1
307,315,312,311,1
307,313,310,310,1
306,310,309,309,1
306,307,309,308,1
307,305,309,309,1
307,304,310,309,1
309,304,311,310,1
311,304,314,311,1
313,305,315,312,1
314,306,316,312,1
315,306,316,310,1
314,306,315,307,1
314,307,315,304,1
312,307,314,301,1
308,307,314,299,1
302,307,313,299,1
297,307,312,300,1
294,306,312,302,1
294,304,311,303,1
295,302,310,303,1
297,299,309,303,1
301,295,308,304,1
304,294,307,304,1
307,295,306,306,1
308,298,305,307,1
309,301,303,308,1
309,303,303,309,1
310,305,303,309,1
312,306,305,309,1
315,306,307,309,1
317,305,309,310,1
318,304,311,311,1
318,304,313,312,1
316,304,314,312,1
312,304,314,312,1
306,305,313,312,1
301,307,311,312,1
296,308,309,312,1
291,308,308,311,1
291,306,306,308,1
295,304,305,304,1
300,302,303,301,1
304,300,301,299,1
304,298,299,297,1
302,297,298,296,1
300,297,298,296,1
299,298,300,298,1
301,300,302,301,1
304,302,304,304,1
309,305,306,307,1
310,305,308,310,1
307,306,308,312,1
304,306,309,314,1
302,307,310,317,1
302,307,311,318,1
305,307,311,318,1
308,306,310,316,1
310,305,309,314,1
310,304,308,311,1
310,302,307,309,1
313,301,306,308,1
315,300,305,309,1
316,300,303,312,1
313,300,300,314,1
308,301,297,314,1
301,301,295,314,1
297,302,294,314,1
301,304,293,313,1
310,307,295,313,1
317,309,297,311,1
318,311,300,310,1
315,314,301,308,1
310,315,301,306,1
306,315,301,303,1
305,314,300,300,1
307,312,301,299,1
308,310,302,300,1
308,309,303,300,1
309,307,304,301,1
308,306,305,300,1
308,304,304,299,1
307,302,304,298,1
309,302,303,297,1
311,301,302,298,1
311,301,301,299,1
311,301,300,301,1
310,301,300,304,1
310,301,301,307,1
308,301,302,310,1
307,303,302,313,1
304,305,303,314,1
302,308,303,315,1
300,310,303,316,1
298,310,302,315,1
297,310,302,314,1
297,308,301,314,1
298,306,301,313,1
299,304,300,313,1
301,302,300,314,1
302,300,300,314,1
307,299,300,314,1
315,298,299,314,1
325,298,297,314,1
334,298,295,312,1
338,297,294,311,1
340,297,293,310,1
341,298,294,311,1
340,301,297,313,1
333,305,301,315,1
320,309,303,316,1
304,312,304,316,1
289,313,304,315,1
280,314,304,314,1
275,314,303,313,1
271,313,302,312,1
271,312,301,312,1
278,311,299,310,1
291,310,297,308,1
303,310,295,306,1
311,308,293,304,1
315,306,292,302,1
317,304,291,301,1
316,302,292,301,1
313,300,293,302,1
310,299,295,304,1
308,300,297,305,1
308,301,300,306,1
309,304,303,308,1
308,308,304,310,1
307,311,305,312,1
306,313,306,314,1
305,314,306,317,1
305,315,305,319,1
307,315,303,321,1
307,315,300,322,1
304,314,297,322,1
299,313,295,321,1
296,312,294,320,1
295,310,297,318,1
297,308,299,314,1
300,306,302,312,1
304,304,305,309,1
309,303,307,306,1
312,301,308,302,1
315,300,308,299,1
317,299,308,299,1
318,300,308,299,1
319,301,308,301,1
321,302,308,302,1
322,304,308,304,1
321,306,309,305,1
316,307,310,305,1
309,308,310,305,1
303,309,310,303,1
300,310,310,302,1
305,311,309,300,1
314,311,309,299,1
322,312,310,300,1
325,312,311,302,1
322,312,312,303,1
316,310,312,304,1
314,308,312,306,1
317,306,313,307,1
322,303,313,310,1
326,301,312,312,1
326,301,311,314,1
320,302,310,315,1
311,304,308,315,1
303,306,308,313,1
298,308,308,310,1
294,310,308,307,1
291,312,309,307,1
288,312,309,307,1
286,312,310,308,1
286,311,310,310,1
289,310,311,311,1
293,308,310,312,1
297,308,308,313,1
299,309,305,315,1
298,309,302,317,1
297,310,301,317,1
294,310,302,317,1
290,310,305,319,1
286,310,308,322,1
283,309,312,324,1
286,309,315,324,1
294,308,316,321,1
305,307,316,317,1
311,306,314,312,1
310,306,311,308,1
307,307,310,304,1
306,308,309,300,1
307,310,309,298,1
309,312,309,298,1
311,313,310,301,1
311,314,310,304,1
309,315,310,308,1
308,315,309,311,1
309,315,308,313,1
310,313,308,313,1
311,310,307,311,1
312,307,307,307,1
312,303,308,304,1
311,301,309,301,1
310,299,310,299,1
310,297,312,299,1
310,297,313,300,1
312,298,315,301,1
314,299,316,303,1
315,301,317,303,1
315,304,316,304,1
315,307,315,304,1
316,309,314,302,1
319,309,313,300,1
323,308,312,298,1
325,307,310,297,1
320,306,308,296,1
309,305,306,296,1
298,305,305,297,1
290,304,304,297,1
287,303,304,297,1
288,302,303,298,1
293,302,302,300,1
299,303,301,304,1
302,304,300,308,1
301,305,301,312,1
299,305,302,315,1
299,305,305,317,1
300,306,311,316,1
302,307,315,314,1
303,308,317,311,1
304,309,316,307,1
308,309,316,304,1
314,308,316,301,1
316,307,315,299,1
313,307,315,298,1
307,306,314,297,1
300,306,313,297,1
295,305,312,297,1
293,304,310,297,1
292,302,309,297,1
293,301,308,298,1
294,299,307,299,1
294,297,308,302,1
295,297,309,305,1
297,297,310,310,1
301,299,312,315,1
304,300,314,320,1
307,302,314,322,1
307,305,315,323,1
306,307,314,323,1
302,310,313,321,1
297,311,311,318,1
289,311,307,314,1
281,310,302,310,1
273,309,298,307,1
268,308,297,306,1
272,308,299,307,1
282,308,304,307,1
289,307,306,306,1
288,306,305,306,1
288,304,305,307,1
294,303,305,308,1
303,301,305,309,1
311,300,305,308,1
317,300,304,307,1
321,301,305,305,1
324,302,307,302,1
326,303,309,299,1
326,305,309,295,1
325,307,309,291,1
321,308,308,289,1
315,309,307,288,1
308,309,305,287,1
300,309,303,288,1
295,309,302,290,1
294,309,302,293,1
294,309,305,296,1
295,309,306,298,1
296,309,306,299,1
298,308,302,300,1
307,307,298,302,1
319,306,296,304,1
330,305,295,307,1
334,305,297,311,1
332,305,300,314,1
328,306,302,317,1
322,307,304,317,1
316,308,305,314,1
311,309,305,310,1
305,310,305,305,1
302,312,304,302,1
298,313,304,299,1
296,313,303,298,1
293,313,301,297,1
292,311,298,297,1
292,310,296,297,1
293,310,295,297,1
295,310,295,296,1
295,309,295,295,1
297,309,297,295,1
301,308,299,297,1
304,306,302,300,1
306,305,306,304,1
308,304,310,308,1
309,304,314,312,1
310,305,316,316,1
312,307,317,319,1
315,309,316,320,1
316,310,315,320,1
316,312,315,320,1
312,313,314,320,1
306,314,313,320,1
296,316,313,320,1
286,317,313,319,1
279,317,313,318,1
277,317,313,317,1
274,316,313,315,1
271,315,312,312,1
276,313,311,306,1
284,312,309,301,1
293,311,307,296,1
300,310,305,295,1
306,307,305,295,1
311,305,305,296,1
314,304,305,298,1
315,304,307,301,1
314,304,310,303,1
312,306,311,303,1
308,307,313,303,1
305,308,313,302,1
306,307,313,301,1
311,306,313,300,1
315,305,313,299,1
316,305,312,298,1
315,304,311,297,1
315,304,310,295,1
319,303,310,295,1
322,304,307,294,1
321,303,303,293,1
315,301,298,292,1
310,299,295,292,1
308,298,294,294,1
309,298,296,297,1
311,299,298,301,1
311,301,301,305,1
311,304,304,309,1
310,306,307,311,1
310,308,310,311,1
311,310,312,311,1
311,312,313,309,1
312,313,314,308,1
311,313,313,307,1
311,313,312,306,1
313,312,311,305,1
316,312,310,304,1
318,311,309,304,1
320,310,308,303,1
321,309,307,303,1
318,307,307,304,1
313,305,305,306,1
305,303,305,308,1
296,301,304,311,1
288,299,305,313,1
284,297,307,315,1
288,298,309,317,1
294,301,311,317,1
300,305,312,316,1
304,311,311,313,1
304,314,310,309,1
304,317,307,306,1
305,318,305,304,1
307,318,305,303,1
310,316,306,302,1
311,315,307,302,1
312,313,309,303,1
312,310,310,304,1
311,307,312,306,1
312,305,313,308,1
312,303,312,309,1
314,302,312,309,1
317,301,312,308,1
321,301,312,307,1
325,301,312,305,1
327,300,311,303,1
326,300,309,301,1
324,301,305,301,1
320,303,302,301,1
317,306,299,302,1
311,308,297,303,1
303,310,296,304,1
295,311,296,305,1
287,311,297,305,1
280,310,299,306,1
279,309,301,307,1
288,307,303,307,1
304,306,305,308,1
321,305,307,310,1
333,304,309,312,1
339,303,310,313,1
341,301,310,313,1
338,301,311,314,1
332,301,311,313,1
325,302,311,312,1
317,302,312,311,1
310,303,312,310,1
305,304,313,312,1
304,306,315,313,1
303,307,315,313,1
302,308,314,311,1
301,309,311,308,1
300,311,309,304,1
301,314,308,301,1
305,316,309,299,1
309,318,310,297,1
313,316,311,297,1
314,314,310,296,1
314,312,307,296,1
312,310,304,295,1
312,307,301,295,1
310,304,300,296,1
307,303,300,300,1
302,301,301,304,1
300,300,303,309,1
302,299,306,312,1
305,300,309,313,1
305,301,311,314,1
301,304,312,314,1
293,306,312,312,1
286,308,311,309,1
280,308,310,306,1
280,308,308,304,1
287,308,308,304,1
299,309,308,305,1
309,310,309,307,1
314,311,308,310,1
315,311,307,312,1
314,312,306,313,1
312,312,304,314,1
310,311,303,314,1
306,309,302,315,1
303,306,301,316,1
300,304,303,318,1
297,302,305,317,1
292,301,306,315,1
292,300,307,314,1
301,300,307,315,1
315,301,308,317,1
328,303,309,319,1
337,305,308,319,1
338,306,308,318,1
336,308,309,318,1
334,308,311,317,1
332,308,313,315,1
327,308,314,313,1
317,307,313,311,1
305,305,310,310,1
293,304,307,309,1
286,303,305,309,1
285,302,305,308,1
288,301,304,308,1
293,301,303,307,1
297,301,299,305,1
300,301,296,303,1
304,302,293,303,1
308,303,290,303,1
312,304,288,305,1
314,304,289,306,1
314,305,291,306,1
314,306,296,306,1
313,307,303,305,1
312,308,307,304,1
311,308,310,303,1
309,307,310,302,1
308,306,308,301,1
309,304,307,301,1
312,304,306,301,1
314,304,305,301,1
314,304,304,302,1
313,303,304,303,1
309,303,305,304,1
305,303,305,305,1
303,303,305,305,1
302,303,305,303,1
302,303,305,303,1
302,303,305,303,1
301,304,305,303,1
297,306,304,304,1
292,308,304,304,1
287,310,304,302,1
285,312,304,301,1
286,313,304,300,1
291,313,305,300,1
299,313,306,301,1
306,312,307,303,1
312,311,306,305,1
314,310,304,306,1
312,308,303,306,1
309,307,302,305,1
306,305,301,304,1
306,303,300,303,1
305,301,300,303,1
308,300,300,305,1
316,301,300,305,1
324,301,300,307,1
332,301,302,308,1
338,301,305,311,1
340,301,309,313,1
336,302,311,314,1
327,303,312,314,1
317,303,311,312,1
308,304,310,309,1
302,304,307,306,1
300,306,305,304,1
300,308,302,304,1
302,310,301,304,1
303,311,302,305,1
306,312,303,307,1
308,312,304,309,1
309,311,303,311,1
310,310,304,312,1
311,309,305,313,1
310,308,307,313,1
311,307,307,313,1
315,306,308,315,1
320,304,309,316,1
325,303,311,316,1
326,304,311,317,1
325,305,311,317,1
321,305,311,315,1
316,305,310,313,1
312,306,309,309,1
309,305,307,306,1
306,304,305,304,1
304,302,301,302,1
301,301,296,300,1
301,300,292,299,1
302,300,290,299,1
304,301,290,300,1
307,301,292,301,1
311,302,296,302,1
315,301,302,303,1
316,301,307,303,1
315,300,310,302,1
315,298,313,301,1
314,298,315,302,1
310,298,315,303,1
303,299,315,304,1
297,300,315,305,1
295,301,314,307,1
295,302,314,307,1
295,302,313,307,1
297,303,313,308,1
300,304,313,309,1
302,307,312,310,1
304,310,312,310,1
304,311,311,308,1
302,311,309,306,1
297,311,307,302,1
292,312,307,300,1
289,313,309,299,1
287,313,311,301,1
290,311,312,303,1
298,308,312,304,1
309,305,312,306,1
318,303,313,308,1
321,302,315,309,1
318,302,315,311,1
311,303,316,312,1
303,306,316,313,1
296,308,316,314,1
293,311,317,312,1
301,313,317,310,1
311,314,317,309,1
315,315,316,307,1
314,315,315,306,1
309,315,313,304,1
303,315,312,303,1
299,315,310,302,1
298,314,307,301,1
301,311,303,301,1
303,309,300,303,1
307,306,301,306,1
311,303,302,310,1
315,301,304,312,1
319,300,307,312,1
322,300,309,311,1
323,301,313,311,1
321,303,315,311,1
319,305,318,312,1
316,307,319,313,1
313,309,320,313,1
309,310,321,315,1
307,311,321,314,1
303,311,319,310,1
302,310,316,304,1
301,308,313,298,1
302,306,308,291,1
305,304,304,287,1
308,302,302,286,1
310,300,302,288,1
309,299,304,291,1
309,298,306,295,1
307,297,308,298,1
303,297,309,299,1
300,297,309,300,1
297,299,309,301,1
295,301,309,301,1
292,303,308,301,1
289,305,308,301,1
287,307,308,301,1
291,308,306,302,1
300,308,303,302,1
308,308,300,303,1
312,306,297,304,1
313,304,294,304,1
313,301,293,305,1
311,298,294,307,1
307,295,295,308,1
307,293,298,310,1
310,293,302,312,1
311,293,305,315,1
310,296,307,317,1
308,298,308,318,1
307,302,309,316,1
308,305,309,313,1
308,308,309,310,1
308,311,308,307,1
308,314,307,305,1
308,315,307,304,1
307,317,308,304,1
308,318,310,304,1
311,319,311,304,1
314,318,311,303,1
314,318,310,301,1
310,317,309,299,1
304,316,309,299,1
299,314,310,299,1
295,312,309,299,1
290,309,309,299,1
285,306,308,300,1
283,303,308,302,1
287,302,310,305,1
292,301,312,307,1
296,302,315,310,1
299,303,317,312,1
302,304,318,313,1
308,306,317,314,1
313,307,316,314,1
317,308,315,314,1
321,309,313,312,1
324,308,311,310,1
326,308,309,306,1
325,307,307,303,1
321,307,305,300,1
314,306,303,299,1
306,305,302,299,1
302,305,301,301,1
301,306,301,303,1
301,306,302,305,1
300,306,301,306,1
298,305,301,306,1
296,305,300,306,1
292,305,298,305,1
290,304,298,304,1
294,303,299,304,1
303,304,299,304,1
313,304,302,305,1
320,307,304,307,1
321,309,306,308,1
318,311,308,309,1
313,313,309,309,1
308,315,311,310,1
303,316,312,310,1
299,317,313,310,1
297,317,313,309,1
294,316,314,308,1
290,314,314,308,1
283,310,312,307,1
274,306,309,307,1
267,302,305,306,1
271,299,303,305,1
288,297,302,305,1
308,295,303,306,1
323,294,304,307,1
330,295,306,309,1
330,296,307,310,1
324,298,309,311,1
320,300,310,310,1
315,303,311,308,1
311,306,311,306,1
308,308,311,305,1
305,309,311,304,1
303,310,311,304,1
300,310,310,304,1
297,310,309,305,1
294,310,307,306,1
292,310,303,307,1
287,308,298,306,1
282,307,293,303,1
277,304,289,301,1
282,302,287,300,1
293,300,287,300,1
305,299,289,300,1
313,300,293,300,1
317,301,298,301,1
319,303,304,303,1
318,305,310,305,1
318,308,315,308,1
316,310,318,308,1
313,311,320,308,1
310,311,320,306,1
307,312,318,307,1
304,313,318,308,1
303,313,317,308,1
302,313,316,307,1
302,313,315,306,1
304,312,314,305,1
307,310,314,304,1
310,308,313,302,1
313,305,311,301,1
313,301,308,300,1
313,298,307,299,1
314,297,306,299,1
317,296,306,299,1
319,297,307,299,1
320,298,308,300,1
319,299,309,302,1
317,301,310,304,1
314,303,311,305,1
310,305,310,305,1
304,306,309,306,1
297,307,309,308,1
291,307,308,309,1
286,306,308,311,1
285,304,308,313,1
285,303,307,314,1
286,302,306,316,1
289,302,305,317,1
293,301,303,316,1
295,301,302,316,1
296,302,303,316,1
297,304,302,316,1
304,306,300,315,1
317,308,299,315,1
330,311,299,313,1
340,312,299,310,1
345,312,301,307,1
342,313,304,304,1
331,315,305,300,1
318,316,305,298,1
308,317,306,296,1
301,318,305,295,1
299,318,306,296,1
300,318,306,297,1
302,318,307,300,1
304,318,307,302,1
305,318,308,304,1
306,318,308,305,1
305,317,308,305,1
305,316,308,306,1
305,314,307,309,1
304,312,306,312,1
305,311,306,315,1
305,310,307,319,1
307,309,307,321,1
308,308,307,322,1
311,309,307,323,1
314,311,307,323,1
315,312,307,321,1
315,312,307,319,1
313,312,306,317,1
310,314,306,316,1
305,316,305,315,1
301,318,302,315,1
301,319,298,315,1
303,320,293,315,1
305,321,289,315,1
309,320,287,315,1
312,318,286,314,1
313,316,288,314,1
312,313,292,314,1
309,310,295,314,1
306,308,297,314,1
302,307,297,313,1
299,306,297,313,1
299,306,298,312,1
300,306,301,309,1
302,307,303,305,1
304,309,304,302,1
306,312,305,299,1
307,314,304,297,1
308,315,302,296,1
309,316,300,295,1
310,316,296,295,1
310,315,295,295,1
312,314,295,297,1
314,312,297,298,1
315,310,298,298,1
315,308,298,298,1
314,306,298,298,1
312,304,298,300,1
312,302,297,303,1
310,301,298,305,1
306,300,299,307,1
301,301,299,310,1
298,302,301,311,1
302,304,302,312,1
310,305,303,312,1
320,307,304,313,1
327,308,304,313,1
330,308,304,313,1
330,308,304,313,1
327,308,303,312,1
327,308,302,312,1
330,308,302,310,1
335,307,301,308,1
336,307,300,305,1
329,308,299,304,1
314,307,298,304,1
302,306,297,304,1
295,306,297,304,1
288,305,298,305,1
285,304,299,309,1
288,303,302,312,1
297,302,305,317,1
306,302,308,322,1
311,304,310,328,1
310,306,310,332,1
306,308,308,335,1
300,310,303,335,1
296,313,299,331,1
295,314,297,323,1
295,315,298,314,1
297,315,300,305,1
299,316,303,298,1
301,315,304,293,1
304,314,304,290,1
305,312,304,287,1
305,309,303,286,1
306,306,301,286,1
306,304,301,287,1
308,302,301,288,1
309,301,302,290,1
311,300,303,292,1
312,301,304,294,1
313,303,304,295,1
314,304,305,296,1
316,306,304,297,1
317,307,304,298,1
318,307,304,299,1
317,307,304,300,1
314,307,302,301,1
309,307,299,303,1
306,307,297,304,1
305,307,295,305,1
304,308,295,305,1
305,308,297,304,1
306,308,301,305,1
306,308,306,305,1
303,306,308,305,1
299,304,309,306,1
299,302,310,309,1
302,300,311,313,1
308,298,312,317,1
313,298,313,321,1
318,298,316,323,1
318,299,319,324,1
313,301,321,323,1
304,304,320,320,1
294,308,319,317,1
290,311,317,314,1
295,312,315,311,1
303,313,314,308,1
308,313,313,306,1
309,312,312,305,1
308,311,311,303,1
306,309,308,301,1
304,308,305,298,1
303,306,302,296,1
306,305,301,295,1
311,305,302,296,1
317,304,304,298,1
320,304,306,299,1
319,304,307,301,1
315,305,307,303,1
311,306,308,305,1
308,308,310,307,1
307,309,312,310,1
307,312,314,312,1
306,313,315,315,1
305,314,315,317,1
305,314,316,319,1
304,315,316,319,1
304,315,316,319,1
303,314,317,318,1
305,314,318,316,1
308,314,318,313,1
308,314,316,308,1
307,312,314,306,1
306,310,312,305,1
305,307,310,306,1
305,305,309,309,1
305,303,308,311,1
306,302,307,313,1
307,304,306,314,1
308,307,307,315,1
308,310,309,315,1
307,314,311,313,1
306,317,311,310,1
303,319,308,307,1
300,322,305,305,1
300,322,301,303,1
302,320,299,301,1
304,316,296,299,1
305,311,294,297,1
304,308,294,296,1
303,305,298,294,1
304,303,302,294,1
304,302,306,294,1
306,300,310,295,1
308,299,312,296,1
309,298,312,297,1
313,298,312,299,1
317,298,312,300,1
319,299,312,302,1
319,300,313,303,1
316,302,314,305,1
311,303,315,307,1
304,305,316,310,1
301,307,315,311,1
299,309,313,311,1
298,310,310,311,1
296,311,307,312,1
295,311,304,310,1
295,310,302,309,1
294,309,301,307,1
295,308,301,305,1
296,307,302,303,1
298,305,302,301,1
301,303,302,300,1
304,301,302,299,1
306,299,303,300,1
307,297,303,302,1
308,296,303,305,1
309,295,304,308,1
308,295,305,311,1
309,298,306,313,1
312,302,305,315,1
314,306,304,314,1
312,310,302,313,1
307,314,300,310,1
303,316,299,307,1
303,317,299,305,1
305,316,299,304,1
307,315,300,306,1
309,314,300,309,1
309,312,300,312,1
310,311,299,313,1
310,308,300,312,1
311,306,300,311,1
312,304,299,310,1
313,302,299,309,1
313,301,299,307,1
313,300,300,306,1
312,300,301,304,1
310,300,303,303,1
309,301,304,302,1
307,302,305,303,1
306,303,306,304,1
304,303,307,304,1
305,302,306,304,1
309,303,305,303,1
316,304,304,303,1
319,306,304,304,1
315,308,303,304,1
310,311,301,304,1
305,313,298,303,1
300,314,297,302,1
297,313,295,300,1
295,309,294,297,1
296,304,293,295,1
298,299,293,294,1
303,296,293,294,1
306,295,294,295,1
309,293,295,297,1
309,293,296,298,1
308,294,297,301,1
307,297,299,303,1
307,299,301,305,1
306,301,302,306,1
300,303,303,308,1
291,305,305,310,1
286,306,305,311,1
285,307,304,313,1
286,307,304,314,1
287,308,303,316,1
289,308,302,317,1
291,308,301,317,1
296,308,299,314,1
304,306,297,310,1
309,303,296,306,1
312,300,294,303,1
313,298,292,303,1
312,297,289,304,1
311,297,286,306,1
313,298,286,308,1
316,300,288,310,1
319,303,292,312,1
320,306,298,313,1
320,309,304,313,1
319,311,309,312,1
319,312,312,310,1
320,312,312,309,1
321,311,311,309,1
319,311,310,309,1
314,310,309,310,1
308,309,307,311,1
301,307,306,312,1
297,305,305,312,1
294,303,303,313,1
293,301,303,313,1
294,299,304,313,1
296,299,305,312,1
298,300,306,311,1
299,301,306,309,1
299,302,306,306,1
299,304,307,302,1
298,305,307,298,1
297,307,307,295,1
296,309,308,294,1
296,310,308,293,1
297,309,309,293,1
297,308,309,293,1
298,306,309,293,1
301,305,309,294,1
304,305,309,295,1
304,304,308,297,1
301,302,307,299,1
300,300,306,301,1
304,299,306,303,1
313,297,306,304,1
320,297,306,305,1
322,297,308,307,1
319,299,310,308,1
314,300,312,310,1
310,301,313,312,1
305,301,315,313,1
298,302,316,315,1
286,303,316,316,1
275,304,316,316,1
274,304,315,317,1
281,305,315,317,1
289,305,315,317,1
295,305,315,316,1
298,306,314,314,1
297,307,312,311,1
295,307,308,306,1
294,306,303,302,1
294,304,300,298,1
293,303,298,296,1
295,303,300,296,1
297,303,303,297,1
297,303,305,299,1
298,304,307,300,1
303,305,309,301,1
311,307,311,301,1
318,309,313,300,1
322,308,314,299,1
323,307,314,299,1
322,306,314,298,1
319,305,315,300,1
315,306,316,301,1
312,307,317,303,1
310,307,317,304,1
309,307,315,304,1
308,307,312,303,1
308,306,310,303,1
311,305,310,304,1
317,304,311,305,1
322,303,312,305,1
323,301,311,306,1
320,299,309,307,1
313,298,306,309,1
306,298,304,312,1
299,298,303,315,1
293,299,302,317,1
289,301,304,318,1
290,303,307,319,1
291,304,311,319,1
292,306,315,319,1
295,307,317,318,1
301,309,318,317,1
307,311,318,314,1
310,312,317,309,1
312,312,315,304,1
313,311,312,300,1
313,311,309,295,1
312,309,306,290,1
308,308,304,287,1
300,306,303,287,1
292,304,304,287,1
292,302,304,288,1
297,301,305,290,1
303,300,306,293,1
310,301,308,297,1
315,302,309,300,1
315,304,310,303,1
311,307,310,304,1
306,310,311,303,1
303,312,311,302,1
302,314,310,302,1
303,316,310,300,1
305,316,309,300,1
306,316,307,300,1
304,316,305,299,1
301,315,304,299,1
302,314,303,300,1
304,313,304,301,1
304,310,304,303,1
303,308,304,306,1
302,307,304,309,1
302,305,303,312,1
303,303,303,315,1
305,302,304,317,1
306,302,305,318,1
307,303,307,317,1
305,304,309,316,1
306,306,309,314,1
309,308,308,311,1
309,310,303,306,1
309,312,299,301,1
308,312,296,296,1
307,312,296,293,1
308,311,297,292,1
308,311,299,292,1
308,310,300,293,1
309,308,301,294,1
310,306,302,296,1
311,303,302,298,1
310,301,302,298,1
306,299,300,298,1
300,297,298,299,1
299,296,297,302,1
302,295,296,306,1
307,294,297,310,1
309,295,300,313,1
310,296,302,315,1
310,299,305,316,1
310,304,309,316,1
309,308,312,316,1
307,311,313,313,1
306,314,312,309,1
305,316,311,306,1
307,317,309,305,1
311,319,307,306,1
315,320,306,306,1
318,320,305,308,1
316,318,305,310,1
311,315,305,312,1
302,312,305,313,1
300,308,305,312,1
307,306,305,310,1
314,304,306,308,1
315,303,307,307,1
312,302,308,306,1
307,301,307,306,1
303,301,304,305,1
301,301,300,304,1
299,303,297,304,1
299,305,296,304,1
301,307,296,303,1
306,309,298,303,1
310,310,302,302,1
313,310,304,302,1
312,310,306,300,1
309,309,307,299,1
307,308,309,299,1
307,308,309,299,1
307,307,309,300,1
307,306,308,302,1
307,304,308,303,1
308,302,309,305,1
308,301,308,308,1
309,300,307,310,1
308,300,305,312,1
306,301,305,313,1
305,302,304,314,1
303,304,305,314,1
298,306,304,312,1
289,307,301,308,1
280,309,298,306,1
277,311,298,306,1
280,312,301,308,1
285,314,303,311,1
291,316,305,314,1
300,317,305,316,1
307,317,305,317,1
313,315,305,318,1
317,312,305,318,1
320,308,305,319,1
321,304,305,318,1
322,300,305,316,1
322,298,304,314,1
321,297,305,313,1
319,298,306,313,1
316,299,308,312,1
312,301,309,312,1
308,304,311,312,1
305,305,311,312,1
305,306,309,310,1
307,307,306,305,1
309,307,303,300,1
308,306,299,297,1
302,306,297,295,1
294,305,297,295,1
285,305,299,297,1
281,304,302,299,1
287,304,304,301,1
299,303,306,303,1
308,301,308,304,1
314,300,309,305,1
316,300,310,307,1
316,300,311,309,1
314,301,313,311,1
311,302,314,311,1
307,303,314,311,1
304,305,315,310,1
303,306,315,310,1
304,307,316,309,1
306,307,315,310,1
307,308,313,310,1
306,307,310,311,1
304,307,306,309,1
301,307,302,308,1
298,308,299,306,1
296,308,299,304,1
298,308,301,302,1
303,307,304,301,1
304,305,306,299,1
300,303,307,298,1
291,302,308,299,1
285,301,308,300,1
286,300,308,303,1
290,300,309,306,1
293,300,310,308,1
294,302,312,309,1
293,304,314,311,1
290,306,314,312,1
288,308,314,312,1
288,309,315,312,1
291,310,314,311,1
296,310,313,311,1
302,311,312,311,1
307,311,310,313,1
309,311,309,314,1
310,311,308,316,1
309,311,308,316,1
308,310,309,316,1
308,309,310,314,1
308,308,310,312,1
308,306,311,309,1
307,305,312,308,1
306,304,313,309,1
305,304,314,310,1
302,304,314,312,1
298,304,314,312,1
299,306,314,314,1
304,308,314,313,1
308,310,314,312,1
312,312,313,310,1
315,314,312,309,1
314,315,312,309,1
311,315,312,310,1
308,314,311,311,1
307,313,310,312,1
309,311,309,312,1
313,309,307,309,1
317,307,307,306,1
319,305,306,303,1
320,302,305,301,1
318,299,305,300,1
314,297,305,300,1
310,296,305,301,1
309,296,306,303,1
309,297,308,305,1
308,299,309,307,1
306,301,312,310,1
303,304,313,313,1
300,307,314,315,1
297,309,314,317,1
295,311,313,318,1
296,313,311,317,1
299,313,309,315,1
300,313,308,311,1
299,312,308,308,1
295,310,307,305,1
288,310,308,303,1
279,310,308,302,1
274,310,307,300,1
279,308,306,299,1
290,306,305,299,1
298,304,306,301,1
304,303,307,302,1
309,303,308,302,1
313,303,308,302,1
314,303,309,302,1
313,305,309,303,1
313,307,310,304,1
315,309,312,304,1
318,310,312,305,1
321,313,310,307,1
325,314,306,308,1
329,314,302,309,1
331,314,298,309,1
329,313,297,309,1
324,312,299,309,1
318,312,303,309,1
313,311,306,308,1
310,310,309,307,1
308,308,311,305,1
307,307,313,305,1
306,305,313,306,1
306,304,313,309,1
307,304,313,312,1
308,304,313,316,1
309,305,314,319,1
309,306,314,322,1
308,307,314,324,1
307,307,314,325,1
304,308,313,324,1
303,309,311,321,1
302,309,310,319,1
305,310,309,316,1
309,309,308,314,1
311,308,308,312,1
307,306,306,309,1
306,304,304,305,1
307,301,301,302,1
308,298,299,300,1
310,295,298,301,1
313,295,299,303,1
318,296,300,304,1
323,297,300,303,1
327,299,300,303,1
326,301,300,303,1
323,304,302,304,1
318,306,304,305,1
313,309,306,305,1
310,311,307,305,1
306,311,306,303,1
303,312,304,302,1
302,312,302,301,1
304,313,301,303,1
308,314,301,306,1
310,314,302,309,1
309,313,303,312,1
305,312,304,316,1
299,311,305,319,1
290,309,305,319,1
280,306,304,318,1
273,303,304,316,1
274,299,304,314,1
282,298,304,313,1
296,297,304,312,1
309,297,304,311,1
319,298,305,310,1
324,300,305,308,1
326,301,304,306,1
323,303,302,304,1
316,304,301,304,1
309,306,299,304,1
302,307,297,304,1
297,309,295,304,1
297,310,294,304,1
302,310,294,305,1
308,310,295,305,1
314,310,295,306,1
318,310,297,307,1
319,310,299,308,1
322,309,301,310,1
324,308,303,311,1
326,307,305,312,1
326,305,306,312,1
324,305,306,312,1
321,305,307,312,1
319,305,306,310,1
316,306,305,308,1
310,307,302,306,1
302,308,299,305,1
294,309,296,304,1
289,311,293,304,1
286,312,291,304,1
285,313,291,304,1
290,313,293,304,1
297,313,296,303,1
302,313,299,302,1
303,312,302,301,1
302,311,305,302,1
302,310,306,302,1
302,308,306,303,1
305,307,306,304,1
307,304,307,305,1
309,302,308,306,1
311,300,309,307,1
313,299,311,307,1
315,298,313,308,1
315,298,314,308,1
315,301,314,307,1
313,304,313,308,1
308,307,312,307,1
300,310,311,307,1
290,311,309,307,1
281,312,308,309,1
277,313,309,312,1
276,313,309,314,1
273,313,309,316,1
270,313,308,317,1
271,312,307,317,1
280,310,308,317,1
291,308,310,317,1
302,305,311,317,1
309,303,311,316,1
313,301,311,315,1
317,300,310,315,1
320,300,311,316,1
323,301,313,318,1
326,302,316,320,1
327,304,317,321,1
326,306,317,320,1
323,307,316,315,1
318,307,314,310,1
311,306,312,304,1
306,306,311,301,1
307,307,310,298,1
313,307,311,297,1
318,308,311,296,1
321,308,311,296,1
321,307,310,296,1
319,306,309,297,1
315,303,307,298,1
311,300,306,299,1
308,298,306,300,1
306,297,306,301,1
305,297,305,303,1
304,298,305,304,1
304,300,306,306,1
304,303,309,308,1
307,307,310,311,1
311,309,311,311,1
317,311,311,311,1
322,312,311,312,1
322,314,311,312,1
317,315,311,314,1
310,315,309,314,1
301,314,308,315,1
291,313,307,314,1
284,312,306,313,1
285,312,304,310,1
292,311,303,308,1
297,308,302,305,1
302,303,301,302,1
308,298,300,298,1
316,294,300,296,1
326,291,300,293,1
334,290,302,292,1
339,291,305,292,1
340,294,308,294,1
334,298,312,297,1
320,301,314,300,1
304,305,314,302,1
292,309,312,303,1
283,311,311,304,1
278,312,310,305,1
278,312,308,305,1
279,312,308,305,1
280,312,308,306,1
285,312,308,307,1
293,311,307,308,1
301,309,307,309,1
310,307,306,310,1
317,306,306,311,1
320,304,304,311,1
317,303,302,311,1
313,303,300,311,1
308,304,298,311,1
304,305,297,311,1
303,307,297,312,1
305,309,298,313,1
308,309,302,314,1
311,310,307,314,1
313,310,311,314,1
314,310,314,313,1
313,310,315,311,1
311,309,314,309,1
311,309,313,307,1
310,308,312,306,1
311,307,311,303,1
311,305,310,301,1
309,304,309,298,1
307,301,307,296,1
305,299,306,296,1
304,298,306,298,1
304,297,305,301,1
304,297,305,305,1
306,299,305,309,1
310,301,306,314,1
312,304,308,317,1
313,306,310,318,1
312,307,310,318,1
311,308,310,315,1
309,308,309,312,1
306,309,307,308,1
304,310,305,306,1
305,311,304,304,1
308,312,302,302,1
311,312,301,301,1
313,312,301,301,1
313,311,301,301,1
313,309,301,301,1
315,308,302,299,1
320,306,302,297,1
326,305,303,296,1
331,303,303,297,1
336,300,304,298,1
340,298,304,301,1
337,297,306,304,1
326,298,307,309,1
316,300,310,312,1
309,301,311,313,1
301,303,311,313,1
294,305,310,312,1
290,306,310,311,1
289,307,311,311,1
289,308,312,312,1
290,309,313,313,1
290,308,313,313,1
291,308,313,314,1
292,307,312,315,1
294,307,309,316,1
295,305,306,316,1
297,303,303,315,1
298,301,299,313,1
300,298,296,311,1
302,295,293,309,1
306,292,294,307,1
309,291,295,306,1
312,292,297,304,1
314,294,298,302,1
315,297,299,301,1
313,300,300,300,1
310,303,299,301,1
305,306,299,300,1
300,309,298,300,1
295,310,296,299,1
290,311,295,298,1
285,310,294,298,1
280,310,295,298,1
281,310,296,298,1
288,309,298,299,1
295,308,299,300,1
300,307,300,302,1
307,306,301,306,1
314,305,301,310,1
320,305,301,315,1
323,306,301,320,1
327,307,299,323,1
332,308,298,324,1
335,310,297,324,1
335,312,298,323,1
332,315,303,322,1
326,316,308,320,1
318,317,311,317,1
309,316,312,315,1
301,315,311,315,1
293,315,309,315,1
286,314,307,315,1
283,312,306,314,1
289,310,306,311,1
299,308,306,308,1
306,305,305,307,1
306,303,304,305,1
303,301,304,304,1
299,301,304,303,1
297,303,304,305,1
301,305,304,306,1
308,307,305,308,1
317,310,306,310,1
324,313,307,312,1
329,316,308,312,1
327,318,310,312,1
320,319,311,313,1
310,320,311,313,1
301,320,310,313,1
296,320,309,312,1
297,319,307,311,1
299,318,306,310,1
300,316,304,308,1
298,314,303,306,1
295,312,301,304,1
290,308,301,302,1
288,305,301,300,1
291,302,301,300,1
298,299,299,300,1
304,298,299,301,1
307,298,300,303,1
308,298,302,305,1
307,300,305,306,1
305,302,306,307,1
301,304,307,306,1
298,307,306,304,1
294,307,305,303,1
290,307,304,301,1
284,306,304,300,1
280,306,305,299,1
283,306,306,300,1
289,307,308,301,1
296,308,309,302,1
300,308,309,302,1
304,308,309,302,1
307,306,310,303,1
309,304,310,303,1
310,301,311,305,1
310,299,312,306,1
308,297,312,309,1
305,297,313,311,1
302,298,314,314,1
300,300,317,316,1
299,303,318,318,1
303,306,319,319,1
311,307,320,319,1
315,309,320,319,1
311,310,320,318,1
306,310,319,316,1
307,311,316,313,1
311,310,314,310,1
312,309,311,307,1
309,307,308,304,1
305,305,305,302,1
301,302,303,302,1
298,299,303,302,1
297,297,304,303,1
298,296,304,306,1
299,296,304,308,1
300,296,305,312,1
301,298,307,316,1
302,301,311,319,1
303,305,315,321,1
304,310,317,321,1
305,312,317,318,1
305,314,316,314,1
310,315,315,310,1
318,314,314,308,1
325,314,311,305,1
329,313,307,303,1
329,312,303,301,1
325,312,300,300,1
319,311,298,301,1
313,311,298,303,1
306,310,301,304,1
304,308,305,306,1
307,307,308,307,1
310,305,310,308,1
310,304,312,309,1
309,304,313,310,1
308,304,314,310,1
308,306,313,309,1
307,309,311,309,1
307,311,308,308,1
306,313,306,307,1
305,313,304,306,1
305,311,304,305,1
305,310,303,303,1
306,308,304,302,1
307,307,306,302,1
307,306,308,301,1
304,306,309,301,1
299,306,310,301,1
294,306,311,301,1
289,306,310,301,1
286,306,310,302,1
284,305,310,302,1
281,304,310,301,1
278,302,309,300,1
276,301,309,301,1
278,300,310,302,1
288,300,310,305,1
303,302,311,308,1
318,304,311,311,1
325,307,311,313,1
327,309,311,313,1
327,309,310,313,1
327,309,311,313,1
329,308,311,311,1
333,307,312,308,1
333,305,312,305,1
329,303,310,303,1
321,303,308,302,1
314,304,307,302,1
309,304,306,302,1
304,305,304,301,1
301,304,303,301,1
298,303,303,302,1
298,303,304,304,1
299,303,304,305,1
301,303,305,308,1
302,303,306,310,1
302,305,306,311,1
301,306,307,311,1
298,308,307,310,1
296,309,307,308,1
295,310,306,307,1
295,310,306,307,1
295,311,306,308,1
295,310,307,308,1
297,309,308,307,1
298,308,307,306,1
299,305,306,304,1
302,302,304,302,1
306,300,300,300,1
310,298,297,301,1
309,298,294,302,1
308,298,294,304,1
305,298,294,306,1
303,299,295,309,1
301,301,297,311,1
303,303,299,312,1
307,306,302,313,1
310,308,304,313,1
309,311,305,311,1
310,312,305,308,1
312,313,304,306,1
313,313,303,304,1
313,313,302,303,1
309,314,302,301,1
304,313,301,300,1
299,313,300,299,1
299,311,300,301,1
300,309,299,302,1
304,308,296,303,1
306,307,293,305,1
308,306,290,307,1
307,305,287,308,1
306,305,286,309,1
306,304,290,308,1
307,304,295,307,1
308,304,301,306,1
308,305,304,305,1
307,307,308,304,1
305,309,309,304,1
304,311,310,303,1
305,313,310,303,1
307,314,309,304,1
310,313,308,305,1
314,313,309,307,1
318,313,309,309,1
321,314,309,312,1
315,314,308,315,1
302,315,306,317,1
294,315,305,317,1
293,313,303,316,1
295,308,304,314,1
299,304,304,313,1
305,301,305,312,1
308,299,306,311,1
309,298,306,311,1
307,299,307,310,1
304,301,306,310,1
301,304,306,309,1
297,307,305,308,1
296,310,306,308,1
299,312,307,308,1
306,313,308,309,1
311,314,310,309,1
313,315,310,310,1
312,316,310,312,1
309,317,310,313,1
307,317,311,315,1
306,316,312,317,1
306,315,312,320,1
306,312,313,324,1
307,310,313,328,1
309,308,313,331,1
312,306,313,335,1
315,304,314,338,1
318,303,316,337,1
322,303,317,335,1
325,304,317,330,1
325,306,315,325,1
323,308,313,319,1
319,309,310,312,1
315,310,306,306,1
312,310,303,299,1
309,309,303,294,1
306,307,303,290,1
305,306,303,288,1
305,306,303,289,1
305,307,303,291,1
302,309,302,292,1
298,310,300,293,1
299,310,298,293,1
302,309,298,293,1
305,307,300,295,1
306,305,301,299,1
307,304,301,303,1
309,303,300,307,1
310,303,301,310,1
310,303,302,312,1
311,305,304,313,1
311,306,308,314,1
313,307,313,314,1
314,308,317,313,1
315,309,319,311,1
316,309,320,309,1
317,309,319,306,1
319,309,317,303,1
321,310,315,302,1
323,311,315,301,1
321,314,315,302,1
316,316,316,302,1
309,316,315,301,1
302,314,314,301,1
297,310,314,302,1
297,304,314,304,1
299,301,315,307,1
301,298,316,310,1
302,298,318,312,1
299,298,318,314,1
294,300,319,316,1
286,302,319,317,1
277,305,318,318,1
275,308,317,318,1
278,310,315,318,1
