300,284,295,293,2
302,280,296,298,2
303,284,297,305,2
305,296,298,313,2
307,312,299,318,2
307,325,300,319,2
306,331,300,318,2
305,328,300,316,2
306,320,301,314,2
307,312,303,312,2
307,306,304,311,2
306,304,305,311,2
305,303,306,311,2
304,305,306,312,2
303,308,304,313,2
302,310,303,314,2
301,311,301,314,2
300,311,301,315,2
299,312,300,315,2
298,315,301,314,2
298,317,302,312,2
299,317,304,309,2
301,315,306,306,2
302,314,310,301,2
303,312,314,295,2
304,311,316,292,2
305,310,316,291,2
308,306,315,291,2
311,302,314,294,2
312,298,313,297,2
313,295,312,301,2
313,294,309,305,2
312,293,305,308,2
311,294,301,310,2
309,296,299,312,2
307,299,297,312,2
304,303,295,311,2
302,307,295,310,2
301,313,295,308,2
301,319,294,305,2
301,326,294,303,2
301,331,296,302,2
302,332,299,300,2
302,330,305,297,2
303,323,309,297,2
305,311,313,299,2
308,299,313,302,2
309,288,310,306,2
311,279,303,311,2
313,272,297,314,2
313,265,294,318,2
313,258,293,319,2
311,255,294,319,2
311,257,294,319,2
309,264,295,320,2
308,276,294,320,2
305,290,295,319,2
303,304,296,317,2
301,314,297,315,2
300,319,299,314,2
300,320,301,313,2
301,322,303,312,2
303,324,304,309,2
304,326,303,305,2
306,328,303,302,2
308,330,305,301,2
310,332,310,301,2
311,330,313,303,2
312,326,314,307,2
311,320,312,309,2
311,314,307,311,2
310,311,302,313,2
309,307,298,314,2
308,302,296,313,2
307,299,295,311,2
306,299,296,308,2
304,300,296,306,2
303,301,297,306,2
302,302,298,306,2
302,302,297,306,2
302,303,297,305,2
304,304,296,303,2
305,305,295,302,2
307,304,294,301,2
311,303,294,300,2
313,301,295,299,2
313,299,296,299,2
311,299,298,300,2
310,299,300,302,2
310,299,302,306,2
311,300,303,313,2
311,301,304,324,2
311,301,305,333,2
310,299,306,340,2
309,298,306,343,2
307,297,306,343,2
305,297,307,341,2
303,295,307,337,2
303,296,307,331,2
303,301,307,324,2
304,305,306,317,2
305,308,305,309,2
306,309,304,302,2
307,310,304,296,2
308,309,307,295,2
309,310,311,295,2
311,313,315,296,2
313,319,317,298,2
316,327,318,302,2
317,333,316,306,2
317,335,311,309,2
316,329,305,313,2
315,317,301,316,2
313,303,300,320,2
311,292,300,324,2
309,284,301,327,2
306,284,303,328,2
305,288,306,329,2
305,292,308,327,2
305,294,308,324,2
305,294,305,319,2
304,291,302,314,2
302,289,298,309,2
301,289,294,304,2
302,290,291,300,2
302,291,288,297,2
303,292,288,296,2
305,296,290,299,2
307,304,295,304,2
309,315,300,309,2
311,322,304,313,2
313,326,305,315,2
313,327,304,318,2
312,326,304,319,2
312,325,305,319,2
313,321,309,317,2
313,315,316,314,2
313,310,323,313,2
313,305,328,311,2
312,300,329,306,2
310,296,326,301,2
307,291,321,296,2
306,286,316,292,2
307,278,314,290,2
309,268,312,288,2
310,260,310,288,2
312,254,308,291,2
313,256,302,297,2
313,268,295,303,2
312,290,290,310,2
312,314,288,315,2
312,331,288,318,2
312,338,287,320,2
312,338,288,319,2
312,332,289,317,2
313,325,291,316,2
312,322,294,316,2
310,319,297,315,2
308,316,302,311,2
307,313,310,307,2
306,311,317,304,2
307,309,323,302,2
308,306,330,300,2
309,304,337,299,2
309,305,343,299,2
309,309,348,301,2
308,313,347,305,2
308,318,338,310,2
307,321,328,314,2
308,320,319,317,2
310,318,311,319,2
311,315,306,321,2
313,310,304,323,2
313,303,304,325,2
314,299,303,328,2
314,299,300,330,2
313,298,296,331,2
312,298,293,330,2
311,298,291,327,2
310,300,290,321,2
308,302,293,314,2
306,303,297,306,2
305,303,297,298,2
303,303,295,293,2
302,301,293,293,2
303,298,293,299,2
304,297,292,310,2
306,295,292,320,2
309,292,293,328,2
313,288,300,335,2
315,284,313,340,2
316,283,325,344,2
315,286,334,346,2
313,293,337,347,2
310,302,334,344,2
307,313,327,338,2
305,323,317,329,2
302,329,307,316,2
300,330,299,303,2
299,326,291,291,2
298,320,286,285,2
298,314,286,282,2
299,308,288,282,2
300,303,291,283,2
301,300,294,285,2
303,301,295,288,2
303,303,293,292,2
303,306,289,297,2
303,309,287,301,2
304,314,286,306,2
305,318,288,311,2
305,322,291,313,2
305,324,293,314,2
304,325,294,314,2
304,324,295,313,2
305,322,295,312,2
307,321,295,312,2
308,321,296,313,2
308,320,295,315,2
308,314,296,318,2
307,304,297,321,2
306,293,297,323,2
305,281,298,322,2
305,268,299,319,2
305,259,300,312,2
306,258,301,304,2
305,266,301,296,2
305,278,302,290,2
305,288,302,288,2
307,290,304,289,2
309,289,307,292,2
311,288,311,296,2
312,290,313,299,2
310,293,315,302,2
307,299,318,304,2
306,307,319,306,2
304,317,316,307,2
302,325,311,308,2
299,333,305,309,2
297,341,300,309,2
295,346,299,309,2
294,347,301,310,2
296,346,303,309,2
298,345,304,309,2
301,343,304,311,2
303,340,305,314,2
305,332,305,317,2
307,323,306,319,2
308,314,308,320,2
308,307,308,322,2
310,306,308,323,2
310,308,307,324,2
309,310,308,324,2
307,309,311,323,2
305,305,318,322,2
305,301,325,321,2
304,298,332,320,2
304,296,335,318,2
304,295,336,314,2
303,294,331,308,2
302,294,323,299,2
301,294,314,291,2
299,292,307,284,2
300,288,303,280,2
301,280,302,279,2
301,269,303,282,2
301,258,303,286,2
302,255,301,292,2
304,262,300,297,2
305,276,301,302,2
305,291,303,308,2
304,303,305,314,2
302,311,307,319,2
302,316,309,324,2
304,319,309,329,2
305,322,309,333,2
305,324,309,336,2
304,324,310,338,2
302,321,311,340,2
301,316,314,339,2
300,310,317,338,2
299,303,320,334,2
298,299,323,329,2
297,299,324,323,2
297,301,319,316,2
298,302,312,310,2
298,303,307,305,2
299,302,304,303,2
299,303,304,301,2
301,306,305,301,2
302,314,306,300,2
303,323,306,298,2
304,329,305,295,2
303,328,304,290,2
301,318,304,285,2
299,302,308,281,2
298,285,316,279,2
299,274,327,280,2
301,268,338,282,2
302,269,346,285,2
304,277,351,290,2
306,283,349,296,2
307,283,339,300,2
306,278,326,305,2
305,271,314,309,2
305,265,309,312,2
305,263,311,313,2
306,266,317,313,2
307,271,324,313,2
308,279,330,313,2
310,289,331,313,2
310,302,327,312,2
308,316,317,310,2
305,326,307,308,2
302,331,298,306,2
300,333,293,307,2
299,338,291,309,2
299,346,291,312,2
299,358,291,313,2
300,370,292,315,2
301,379,292,315,2
302,380,293,313,2
302,370,294,309,2
303,350,295,304,2
304,327,297,299,2
306,307,301,295,2
308,292,306,294,2
309,284,311,297,2
311,284,315,301,2
312,291,317,306,2
312,297,317,310,2
311,299,316,312,2
310,300,313,314,2
309,298,310,314,2
308,297,309,314,2
307,296,308,313,2
305,298,307,311,2
304,302,305,310,2
302,305,303,308,2
301,307,301,305,2
300,308,300,301,2
300,305,300,298,2
299,298,301,296,2
300,287,302,296,2
300,277,303,299,2
302,269,304,302,2
304,266,305,304,2
305,267,307,306,2
306,267,308,308,2
307,268,310,310,2
308,274,312,312,2
309,285,315,314,2
308,301,318,315,2
308,319,321,315,2
307,334,322,313,2
306,342,323,309,2
305,343,323,304,2
304,338,320,302,2
303,330,315,302,2
303,321,311,305,2
303,311,310,308,2
304,305,311,310,2
304,308,314,311,2
304,320,319,313,2
304,337,323,313,2
305,354,324,313,2
305,366,324,313,2
306,371,324,314,2
307,367,326,318,2
309,352,329,321,2
309,331,328,325,2
310,309,320,327,2
309,291,311,326,2
308,279,304,321,2
306,275,300,312,2
305,274,298,301,2
303,275,296,290,2
301,276,295,283,2
299,277,294,278,2
298,279,294,277,2
299,281,293,278,2
299,285,294,279,2
300,290,295,279,2
300,297,295,279,2
300,304,296,279,2
301,310,297,280,2
303,312,298,282,2
304,308,298,285,2
305,296,298,287,2
305,284,300,291,2
305,277,303,295,2
305,275,305,300,2
305,278,307,305,2
306,283,309,308,2
306,288,310,310,2
305,293,311,312,2
304,297,312,313,2
303,301,312,315,2
302,306,312,316,2
302,313,313,318,2
302,319,316,322,2
302,324,319,326,2
303,329,322,328,2
304,331,326,325,2
304,333,329,318,2
306,335,330,310,2
308,338,326,304,2
310,340,323,300,2
312,339,321,298,2
313,334,318,296,2
312,326,313,294,2
312,311,305,293,2
310,293,298,294,2
309,279,294,296,2
308,276,292,299,2
307,284,291,302,2
307,297,290,305,2
306,309,290,307,2
305,318,291,308,2
305,326,292,309,2
305,332,293,309,2
306,338,295,308,2
306,339,297,308,2
307,334,300,307,2
308,323,304,304,2
309,310,307,302,2
311,297,309,299,2
312,285,308,294,2
311,275,303,289,2
311,266,299,286,2
311,263,300,287,2
311,263,305,293,2
311,266,312,301,2
310,270,320,310,2
309,277,329,318,2
308,288,334,323,2
307,300,331,325,2
306,308,323,325,2
305,311,311,322,2
304,312,301,315,2
304,311,293,309,2
303,308,290,304,2
303,306,289,304,2
303,305,290,306,2
303,307,292,311,2
303,310,294,314,2
303,314,296,316,2
302,318,298,317,2
303,319,300,315,2
303,316,301,312,2
304,309,303,308,2
305,304,304,303,2
305,304,306,299,2
304,306,307,294,2
303,308,307,290,2
304,306,308,288,2
305,300,309,288,2
306,293,311,289,2
306,291,314,289,2
304,293,316,288,2
302,298,317,288,2
301,305,316,289,2
300,313,315,290,2
300,322,311,293,2
302,329,308,298,2
303,332,308,303,2
305,332,311,308,2
307,330,315,311,2
309,326,316,313,2
310,320,316,314,2
312,311,315,314,2
312,297,313,312,2
311,281,310,310,2
310,269,307,307,2
308,261,304,304,2
307,256,302,302,2
307,256,302,302,2
307,262,302,303,2
308,273,302,305,2
308,286,302,309,2
308,299,301,314,2
307,313,299,318,2
305,325,296,321,2
304,335,294,322,2
304,339,293,320,2
304,336,294,315,2
305,327,297,308,2
306,315,299,304,2
308,307,300,302,2
309,305,302,301,2
310,307,303,301,2
310,311,305,302,2
309,313,308,303,2
308,312,311,304,2
306,306,313,303,2
304,292,313,301,2
303,276,311,297,2
302,268,306,293,2
302,272,303,292,2
302,281,301,294,2
303,292,300,298,2
304,299,301,305,2
306,302,303,313,2
307,303,307,321,2
309,303,312,328,2
312,303,318,335,2
313,307,323,340,2
314,317,325,343,2
314,328,322,341,2
314,336,317,334,2
313,341,313,322,2
312,343,311,311,2
310,342,312,302,2
309,335,314,295,2
308,324,316,289,2
307,309,315,286,2
308,292,311,284,2
308,277,307,285,2
308,269,303,288,2
308,268,297,290,2
308,269,293,291,2
308,272,290,292,2
308,278,289,292,2
307,285,290,292,2
306,289,290,295,2
305,293,290,301,2
304,297,293,307,2
304,302,297,313,2
303,307,301,316,2
303,311,304,317,2
304,314,305,316,2
305,318,304,314,2
306,320,304,311,2
306,321,303,307,2
307,322,303,305,2
307,323,303,303,2
307,320,303,302,2
308,316,303,303,2
308,310,303,304,2
309,305,304,306,2
311,302,304,308,2
312,305,303,310,2
313,312,302,313,2
313,323,300,313,2
313,334,299,313,2
313,341,298,313,2
313,340,298,314,2
314,331,298,316,2
314,320,300,319,2
315,308,303,321,2
315,296,306,321,2
315,282,310,321,2
316,273,312,321,2
316,269,313,322,2
314,270,311,322,2
312,275,308,320,2
310,279,304,315,2
307,285,301,309,2
304,291,299,304,2
303,296,299,300,2
302,304,302,297,2
302,314,311,296,2
303,326,325,297,2
304,335,338,299,2
306,340,346,302,2
308,340,344,304,2
309,335,333,306,2
309,327,315,307,2
310,319,299,307,2
310,312,289,305,2
311,307,285,304,2
311,304,285,302,2
312,302,287,301,2
312,301,289,299,2
311,301,291,297,2
309,300,293,295,2
307,300,294,291,2
305,298,296,289,2
304,297,297,288,2
305,298,298,290,2
307,301,298,296,2
309,305,299,302,2
309,310,299,310,2
309,312,298,315,2
309,309,296,317,2
309,304,295,315,2
310,301,294,312,2
310,299,295,309,2
311,298,295,308,2
312,299,296,308,2
314,301,297,308,2
314,303,301,307,2
314,303,307,305,2
313,298,311,302,2
312,291,313,299,2
310,286,314,296,2
310,284,316,293,2
309,285,317,290,2
308,289,319,290,2
308,295,318,290,2
306,303,313,291,2
305,312,306,292,2
303,322,300,295,2
303,329,296,298,2
303,333,295,302,2
304,334,296,305,2
306,332,300,309,2
309,329,305,314,2
310,327,311,319,2
311,322,315,323,2
310,315,316,325,2
310,310,315,324,2
310,307,312,320,2
310,307,310,316,2
309,310,307,313,2
307,315,305,313,2
306,317,302,315,2
304,316,300,317,2
302,313,298,317,2
301,310,297,316,2
302,306,296,313,2
304,300,296,309,2
305,295,296,305,2
306,294,296,303,2
307,300,297,304,2
308,307,298,307,2
309,314,300,312,2
310,318,301,317,2
310,319,304,321,2
310,316,307,326,2
310,313,311,330,2
309,310,314,334,2
308,309,316,337,2
308,310,318,336,2
307,312,323,334,2
307,312,330,328,2
307,311,337,323,2
307,308,341,318,2
306,306,338,313,2
305,305,327,308,2
303,305,313,303,2
302,308,301,300,2
301,313,294,297,2
302,315,292,295,2
302,310,292,292,2
302,299,293,289,2
303,283,294,285,2
303,266,294,284,2
304,256,293,285,2
305,254,294,289,2
306,261,296,295,2
307,273,301,300,2
308,289,306,306,2
308,308,309,310,2
306,325,308,314,2
303,338,305,316,2
300,347,300,317,2
298,350,298,316,2
297,345,299,314,2
298,336,303,314,2
299,328,308,313,2
299,323,313,314,2
300,321,317,316,2
301,321,317,321,2
302,323,315,328,2
303,326,312,334,2
305,329,310,338,2
306,330,306,341,2
307,327,302,341,2
308,320,299,339,2
309,309,299,336,2
310,294,299,331,2
310,278,299,327,2
310,266,300,321,2
309,265,301,315,2
307,272,301,309,2
305,282,301,304,2
303,292,300,299,2
302,300,299,296,2
301,310,299,294,2
301,318,298,293,2
299,322,299,291,2
299,320,302,289,2
299,316,304,288,2
300,310,304,287,2
301,306,302,288,2
302,307,301,290,2
303,311,299,294,2
304,313,299,300,2
304,310,297,309,2
304,304,294,324,2
305,299,293,340,2
305,300,295,351,2
304,303,298,354,2
303,304,301,351,2
303,304,303,345,2
302,300,305,335,2
302,295,305,323,2
302,290,303,310,2
301,288,300,299,2
300,291,298,292,2
299,298,298,289,2
299,306,298,290,2
299,315,299,292,2
300,322,300,294,2
301,326,302,297,2
301,324,303,300,2
302,319,306,302,2
302,315,308,303,2
302,311,307,304,2
303,307,303,304,2
303,303,300,304,2
303,300,300,304,2
302,299,304,304,2
301,298,308,303,2
300,299,310,303,2
300,302,310,302,2
300,305,310,300,2
300,306,307,297,2
301,305,301,295,2
301,302,296,292,2
301,298,291,290,2
301,297,287,290,2
302,297,285,291,2
302,298,286,294,2
304,298,288,297,2
304,296,291,300,2
304,293,295,303,2
304,291,297,307,2
304,291,299,310,2
304,292,300,312,2
305,294,301,314,2
305,297,301,315,2
305,302,301,315,2
304,308,299,317,2
303,314,297,319,2
302,320,295,322,2
301,320,294,325,2
302,315,294,328,2
302,307,295,330,2
303,297,297,331,2
303,288,301,333,2
304,282,305,336,2
304,280,308,340,2
304,282,309,344,2
303,290,309,347,2
301,302,306,346,2
300,311,304,342,2
300,315,301,332,2
301,315,299,320,2
302,313,297,308,2
301,312,297,298,2
301,313,296,291,2
301,315,294,287,2
301,321,293,286,2
301,328,292,287,2
301,333,291,289,2
301,335,291,291,2
300,334,292,293,2
300,327,296,294,2
301,316,302,295,2
301,306,309,297,2
302,301,313,300,2
302,298,313,300,2
303,299,310,298,2
304,300,304,294,2
305,298,300,292,2
307,295,302,291,2
309,293,310,291,2
311,294,322,293,2
314,297,333,300,2
314,305,341,310,2
313,319,341,321,2
310,334,328,327,2
305,345,305,328,2
301,344,283,325,2
299,329,270,320,2
298,306,266,316,2
299,287,267,312,2
300,275,271,309,2
300,271,276,308,2
301,274,281,307,2
301,276,285,308,2
301,274,288,309,2
302,267,289,310,2
303,261,291,311,2
305,259,293,313,2
307,259,295,314,2
308,263,296,315,2
307,274,296,315,2
306,291,296,314,2
305,309,296,314,2
304,324,295,313,2
304,334,295,309,2
303,340,296,303,2
303,342,299,297,2
302,341,303,292,2
301,338,307,290,2
300,333,308,290,2
300,326,307,292,2
301,320,303,295,2
301,314,299,298,2
302,310,296,301,2
302,307,294,303,2
301,305,294,303,2
300,302,294,303,2
301,298,295,304,2
303,293,299,305,2
305,289,304,308,2
308,289,309,312,2
309,296,314,318,2
310,306,316,325,2
311,318,317,333,2
311,328,318,339,2
311,332,317,344,2
309,333,316,347,2
308,333,314,349,2
306,332,314,350,2
305,332,315,349,2
303,332,312,344,2
301,330,305,336,2
301,325,296,326,2
302,316,290,314,2
303,304,286,302,2
304,292,284,293,2
306,282,285,287,2
308,277,286,286,2
309,276,288,290,2
310,278,290,294,2
309,281,291,296,2
309,282,294,294,2
308,281,297,289,2
307,278,301,283,2
307,273,304,281,2
306,270,305,281,2
306,272,304,284,2
306,276,300,287,2
306,281,296,291,2
305,287,294,294,2
304,294,295,298,2
303,302,296,305,2
303,310,298,315,2
302,316,297,323,2
302,322,296,329,2
302,328,293,329,2
302,332,291,326,2
303,333,289,321,2
304,331,289,316,2
306,328,291,313,2
308,324,297,310,2
310,321,303,308,2
311,320,309,308,2
311,323,313,310,2
310,326,312,313,2
308,330,307,314,2
308,333,302,315,2
307,331,300,314,2
305,324,298,312,2
304,314,298,308,2
304,305,297,303,2
304,299,297,298,2
305,297,296,295,2
305,298,295,293,2
305,298,295,292,2
305,294,295,292,2
306,286,295,294,2
306,277,297,298,2
307,272,303,302,2
307,271,311,306,2
308,275,319,310,2
310,282,324,314,2
311,289,327,315,2
310,295,326,316,2
308,300,318,316,2
306,302,309,317,2
305,302,302,319,2
304,299,298,322,2
304,296,297,325,2
303,294,297,329,2
302,292,297,331,2
302,289,296,331,2
302,286,295,327,2
301,286,293,321,2
301,288,291,314,2
301,296,292,307,2
303,308,294,300,2
305,321,296,295,2
306,330,299,291,2
308,334,300,290,2
308,331,300,292,2
309,324,301,296,2
310,315,304,301,2
309,309,307,307,2
307,306,308,312,2
304,307,309,316,2
302,310,310,319,2
301,313,310,320,2
300,315,308,318,2
299,315,304,314,2
299,312,300,310,2
298,309,299,307,2
299,309,299,307,2
300,310,299,309,2
302,311,300,310,2
304,309,300,311,2
307,302,301,311,2
309,293,302,310,2
311,284,302,308,2
312,277,304,305,2
312,272,305,303,2
312,271,308,302,2
311,275,313,303,2
310,283,318,304,2
310,291,321,304,2
308,297,323,302,2
307,302,324,300,2
305,308,325,297,2
304,313,324,295,2
303,314,323,293,2
303,312,321,291,2
304,309,317,292,2
304,306,313,293,2
305,305,307,296,2
304,302,298,297,2
303,299,288,298,2
302,295,281,298,2
302,291,278,299,2
303,286,277,301,2
305,282,279,304,2
307,279,282,307,2
308,279,286,311,2
309,283,290,315,2
309,291,294,322,2
308,302,297,329,2
306,312,299,335,2
304,317,301,339,2
303,319,302,341,2
302,318,303,339,2
302,317,303,334,2
303,314,302,328,2
303,311,302,321,2
304,307,300,316,2
305,304,300,313,2
305,302,299,312,2
306,302,300,313,2
308,303,300,316,2
309,300,300,318,2
310,295,300,320,2
311,288,302,320,2
313,284,307,318,2
315,284,315,315,2
316,289,322,311,2
316,298,324,308,2
314,311,321,305,2
311,324,316,304,2
306,330,311,304,2
302,330,306,303,2
298,327,302,303,2
296,323,303,302,2
297,320,309,301,2
298,318,318,302,2
301,316,328,305,2
304,313,334,307,2
306,310,333,309,2
307,306,326,309,2
307,302,316,309,2
306,298,307,311,2
306,296,299,312,2
306,296,293,313,2
307,297,290,313,2
308,301,289,314,2
308,306,290,316,2
308,312,292,318,2
308,318,292,319,2
308,326,292,320,2
307,333,292,320,2
306,337,292,319,2
305,338,291,318,2
305,333,291,315,2
305,323,293,311,2
306,308,297,307,2
306,292,302,304,2
306,277,306,302,2
306,268,309,300,2
306,266,307,296,2
306,269,301,292,2
305,269,296,289,2
305,270,293,287,2
306,272,295,288,2
308,278,299,291,2
308,286,304,296,2
309,295,309,301,2
308,304,311,307,2
306,313,312,312,2
305,320,311,317,2
303,324,310,319,2
302,327,313,319,2
301,326,318,316,2
302,319,324,312,2
303,309,328,310,2
303,299,327,309,2
304,293,322,309,2
305,293,316,312,2
305,296,310,318,2
306,303,305,326,2
307,309,301,333,2
307,314,296,337,2
307,317,291,337,2
307,320,289,334,2
307,321,289,329,2
308,323,291,324,2
308,325,294,319,2
308,326,296,314,2
306,325,298,310,2
305,322,300,306,2
303,320,301,303,2
303,320,302,301,2
305,318,302,297,2
306,314,302,293,2
306,307,302,290,2
306,297,303,289,2
307,288,305,290,2
309,284,309,291,2
311,285,315,294,2
311,292,321,298,2
311,300,325,304,2
310,307,326,309,2
309,311,324,314,2
309,311,320,318,2
310,308,314,321,2
311,307,310,321,2
313,309,308,320,2
314,312,309,317,2
314,315,310,313,2
314,315,313,308,2
314,314,313,302,2
313,311,308,297,2
310,308,302,293,2
308,305,299,292,2
307,302,297,292,2
306,298,296,293,2
305,294,296,293,2
305,289,297,292,2
305,288,299,292,2
305,290,302,295,2
306,295,305,298,2
306,299,304,304,2
308,303,302,310,2
309,308,298,317,2
311,313,298,323,2
313,318,298,327,2
314,323,298,328,2
313,325,299,323,2
312,324,301,317,2
311,322,304,311,2
310,323,310,306,2
310,323,316,303,2
311,318,320,301,2
312,308,322,300,2
312,297,321,300,2
311,290,314,302,2
310,289,305,307,2
309,295,297,311,2
308,305,292,315,2
307,317,292,316,2
306,322,295,316,2
307,321,299,315,2
308,317,303,314,2
309,312,304,314,2
311,310,305,314,2
312,311,305,316,2
313,312,305,318,2
314,313,304,320,2
314,313,304,320,2
313,310,304,319,2
312,306,304,315,2
311,301,302,311,2
311,299,302,305,2
311,301,301,298,2
309,306,302,290,2
309,310,303,283,2
308,311,304,279,2
308,310,305,279,2
307,309,307,283,2
305,305,307,288,2
305,299,307,293,2
306,294,305,297,2
307,291,302,300,2
309,294,301,302,2
311,299,303,305,2
314,306,309,311,2
316,315,316,319,2
317,324,322,324,2
318,331,326,326,2
317,337,326,326,2
315,339,321,322,2
313,336,312,316,2
311,328,303,310,2
311,318,300,305,2
311,309,302,302,2
312,302,309,301,2
313,299,314,301,2
313,302,317,302,2
313,310,313,300,2
313,321,306,298,2
312,334,299,295,2
311,342,294,293,2
310,339,292,292,2
310,326,295,294,2
311,307,301,296,2
312,287,304,297,2
311,268,307,296,2
311,253,309,293,2
310,244,308,293,2
309,245,302,292,2
307,258,295,293,2
306,278,289,294,2
304,294,285,295,2
301,302,284,295,2
299,303,285,296,2
298,305,287,297,2
297,307,289,298,2
298,309,291,299,2
299,310,292,299,2
300,311,294,299,2
303,310,295,300,2
305,310,297,303,2
308,309,299,307,2
311,309,301,313,2
313,312,303,319,2
313,315,306,325,2
313,316,307,330,2
312,313,308,335,2
310,311,307,338,2
308,311,306,339,2
307,314,305,337,2
306,318,305,330,2
305,318,306,323,2
304,316,307,317,2
304,312,309,310,2
303,307,309,302,2
302,302,309,294,2
301,300,309,288,2
300,299,308,285,2
301,299,307,283,2
302,298,308,284,2
304,296,310,286,2
306,292,311,291,2
309,288,313,298,2
310,286,316,306,2
311,287,318,313,2
312,291,320,321,2
312,299,319,328,2
311,308,315,332,2
309,319,308,334,2
307,327,302,332,2
306,333,302,330,2
304,335,308,325,2
304,331,317,321,2
304,322,326,317,2
304,313,331,312,2
303,309,329,306,2
302,310,322,300,2
300,314,309,295,2
300,316,294,290,2
300,312,282,286,2
301,305,277,285,2
302,296,278,286,2
304,288,284,289,2
306,281,291,294,2
307,277,295,301,2
307,280,297,306,2
306,287,298,312,2
305,293,302,318,2
305,296,307,324,2
305,297,313,329,2
306,296,318,331,2
306,297,322,330,2
305,298,323,325,2
302,302,318,318,2
298,307,310,309,2
297,309,303,300,2
296,309,298,292,2
297,305,295,286,2
298,300,292,281,2
299,298,289,279,2
301,297,288,279,2
302,297,287,282,2
304,298,288,286,2
306,301,290,291,2
308,308,294,296,2
309,319,298,299,2
310,332,301,300,2
310,343,304,300,2
310,346,306,299,2
310,341,309,299,2
311,330,309,302,2
309,319,307,305,2
308,313,303,312,2
307,312,300,319,2
306,314,300,325,2
305,318,302,328,2
304,321,305,329,2
303,321,307,326,2
303,319,310,321,2
303,315,311,317,2
304,309,312,312,2
305,300,311,307,2
306,290,309,303,2
306,279,307,301,2
306,271,305,302,2
306,266,304,304,2
306,265,306,305,2
305,265,309,304,2
303,265,312,303,2
303,268,316,302,2
302,275,319,301,2
301,286,321,299,2
299,301,321,298,2
297,313,318,298,2
296,319,314,297,2
295,320,310,297,2
295,319,306,298,2
295,318,305,299,2
296,321,308,299,2
296,327,314,300,2
297,337,315,302,2
299,348,310,305,2
301,352,303,309,2
302,344,299,314,2
303,329,299,320,2
304,313,301,326,2
304,298,305,330,2
303,287,307,332,2
303,282,309,331,2
302,282,310,328,2
302,286,311,324,2
303,292,314,321,2
303,298,316,318,2
303,302,316,314,2
303,302,316,310,2
301,302,315,305,2
300,301,311,299,2
299,299,307,294,2
299,295,305,291,2
299,291,303,290,2
301,289,303,292,2
303,292,304,296,2
306,298,303,301,2
308,306,303,307,2
309,312,304,313,2
308,315,306,320,2
307,315,308,328,2
305,313,309,336,2
303,307,311,341,2
302,298,312,340,2
301,289,312,337,2
300,282,311,332,2
299,281,310,327,2
298,286,308,322,2
297,292,304,318,2
297,296,300,314,2
296,297,297,309,2
296,297,296,304,2
296,296,298,300,2
298,297,302,297,2
300,302,311,297,2
303,308,318,297,2
306,312,322,299,2
308,313,323,300,2
309,313,319,301,2
308,314,310,302,2
307,316,302,303,2
305,320,297,303,2
304,326,295,301,2
303,331,295,298,2
302,334,296,296,2
301,336,298,294,2
300,336,300,291,2
299,336,301,287,2
298,339,299,284,2
297,338,294,283,2
294,332,289,286,2
293,318,288,291,2
294,301,294,300,2
296,289,304,309,2
298,285,315,316,2
299,288,323,320,2
300,296,327,322,2
300,303,325,321,2
301,306,318,320,2
303,308,310,319,2
304,310,303,318,2
304,312,300,317,2
302,314,298,316,2
301,315,298,313,2
299,312,298,308,2
298,306,299,301,2
299,299,298,295,2
299,291,298,292,2
300,285,298,291,2
301,280,299,292,2
302,278,302,294,2
302,275,304,295,2
303,271,306,297,2
304,265,305,298,2
305,258,304,300,2
307,254,301,303,2
307,256,300,306,2
307,265,299,309,2
307,281,300,312,2
306,303,301,314,2
305,323,302,315,2
304,338,304,314,2
303,343,305,312,2
303,342,307,309,2
304,337,309,305,2
305,330,312,302,2
305,323,315,299,2
304,321,319,297,2
304,324,323,296,2
305,329,324,297,2
305,334,318,299,2
306,336,309,302,2
305,335,302,306,2
305,331,299,310,2
305,325,301,313,2
306,320,304,315,2
306,315,308,315,2
307,311,310,313,2
308,306,309,310,2
308,300,306,306,2
309,294,306,304,2
310,289,307,301,2
310,285,310,300,2
311,282,312,300,2
311,283,314,303,2
310,289,314,308,2
309,293,312,317,2
309,297,310,326,2
309,303,310,335,2
308,312,310,344,2
306,325,308,352,2
305,334,306,357,2
304,337,306,358,2
304,332,307,357,2
305,324,307,353,2
307,313,304,347,2
309,304,301,341,2
310,299,297,334,2
310,300,294,327,2
310,304,291,319,2
309,312,290,309,2
308,318,290,302,2
307,319,291,296,2
306,318,293,290,2
305,316,297,285,2
304,314,300,279,2
303,310,304,276,2
302,304,308,274,2
302,299,307,275,2
302,296,303,277,2
303,296,298,281,2
303,299,294,285,2
303,302,293,288,2
304,308,293,291,2
305,313,294,293,2
306,312,295,294,2
306,305,298,293,2
306,297,303,292,2
306,291,308,292,2
307,287,313,292,2
307,286,314,292,2
307,290,313,292,2
306,298,307,292,2
305,307,300,292,2
304,313,295,292,2
304,318,293,292,2
305,321,294,292,2
305,318,296,294,2
305,310,297,297,2
305,303,300,302,2
305,303,304,309,2
304,302,306,314,2
304,300,308,315,2
304,294,310,314,2
304,285,315,310,2
305,273,320,305,2
305,264,321,300,2
305,258,320,296,2
305,258,316,293,2
305,268,312,293,2
306,286,311,295,2
305,305,311,299,2
304,320,312,304,2
303,329,311,310,2
302,334,307,315,2
301,336,300,320,2
300,336,295,323,2
300,335,293,326,2
300,332,294,330,2
301,329,296,334,2
303,326,297,336,2
305,322,298,336,2
308,318,299,333,2
310,313,298,328,2
312,312,298,323,2
314,313,298,317,2
315,313,299,310,2
315,309,299,306,2
314,302,299,302,2
312,292,299,298,2
310,284,298,294,2
309,282,298,289,2
308,286,298,283,2
307,293,300,277,2
304,301,302,273,2
302,309,305,271,2
302,316,307,271,2
303,321,306,272,2
304,323,306,274,2
306,323,304,277,2
307,319,302,279,2
309,312,302,278,2
310,302,303,277,2
311,292,302,279,2
312,285,299,289,2
313,283,297,303,2
313,282,296,318,2
312,282,297,329,2
310,286,297,336,2
308,295,298,339,2
307,306,300,337,2
304,314,303,330,2
302,317,306,321,2
301,315,309,311,2
300,309,311,304,2
300,302,311,301,2
301,294,309,300,2
301,290,306,301,2
302,288,303,304,2
302,287,301,305,2
301,285,299,304,2
300,281,298,301,2
300,276,296,295,2
300,276,296,291,2
302,281,295,288,2
304,286,296,288,2
307,292,297,289,2
309,298,298,292,2
310,304,303,294,2
310,309,309,297,2
310,310,318,298,2
309,308,325,298,2
307,306,327,298,2
304,306,320,296,2
301,307,310,295,2
299,308,302,295,2
297,310,298,295,2
297,313,297,296,2
298,317,299,298,2
298,321,302,300,2
298,323,305,304,2
298,326,306,308,2
298,328,307,313,2
298,330,306,317,2
300,331,303,321,2
302,333,301,324,2
305,336,301,326,2
308,337,304,326,2
311,335,307,323,2
314,328,309,319,2
315,317,310,313,2
315,305,309,306,2
314,298,307,300,2
311,298,303,295,2
308,303,299,292,2
305,311,298,289,2
302,320,298,289,2
300,327,301,289,2
299,328,305,289,2
299,322,310,292,2
301,313,315,296,2
302,304,319,299,2
303,295,320,303,2
304,289,318,307,2
305,287,314,312,2
306,290,312,317,2
307,295,309,321,2
308,300,305,325,2
310,304,301,326,2
311,305,299,325,2
312,303,298,323,2
312,301,298,320,2
313,301,299,317,2
312,300,299,314,2
311,298,300,311,2
310,293,300,308,2
307,285,299,304,2
305,275,297,300,2
304,264,293,296,2
304,256,290,292,2
306,257,289,291,2
309,267,291,293,2
310,279,295,296,2
310,290,299,301,2
308,302,302,306,2
307,314,304,310,2
306,323,304,312,2
306,327,305,311,2
306,329,306,310,2
306,330,310,310,2
306,331,318,310,2
306,333,326,310,2
306,336,333,311,2
305,339,336,316,2
305,339,332,323,2
305,334,321,329,2
304,324,307,331,2
304,311,296,328,2
304,296,291,324,2
305,283,292,320,2
306,277,297,318,2
307,280,302,317,2
307,289,304,315,2
306,299,303,310,2
306,306,300,304,2
306,308,297,299,2
307,308,295,294,2
307,309,293,292,2
308,312,291,291,2
308,318,291,294,2
307,328,293,297,2
307,338,295,302,2
306,347,298,307,2
306,351,300,312,2
305,349,304,316,2
304,344,311,318,2
303,338,316,319,2
304,333,320,317,2
304,327,321,313,2
305,319,320,306,2
305,308,315,299,2
305,295,307,293,2
305,282,301,290,2
304,276,297,291,2
305,277,295,297,2
307,282,295,304,2
309,289,296,311,2
311,296,299,316,2
311,302,304,320,2
312,304,308,321,2
311,305,311,321,2
311,305,313,319,2
310,307,311,316,2
310,307,306,312,2
309,306,301,308,2
309,302,297,305,2
307,300,296,303,2
306,300,295,301,2
304,302,295,300,2
304,303,296,299,2
304,303,296,298,2
305,299,296,297,2
306,293,296,294,2
307,286,295,292,2
308,281,295,290,2
309,276,295,289,2
311,275,296,289,2
311,275,299,291,2
311,279,301,294,2
312,285,304,299,2
311,293,308,304,2
310,301,311,309,2
308,308,314,312,2
307,311,315,314,2
306,310,316,314,2
306,308,316,315,2
306,307,316,316,2
307,309,316,319,2
307,316,316,322,2
307,325,313,326,2
306,333,309,328,2
305,338,305,327,2
304,341,302,325,2
304,342,300,322,2
304,344,299,318,2
305,345,300,315,2
306,345,300,311,2
308,344,301,308,2
310,342,302,304,2
312,338,304,303,2
313,328,309,305,2
314,315,317,307,2
313,303,325,309,2
311,294,328,310,2
308,289,326,310,2
306,286,319,309,2
304,286,311,307,2
302,286,305,305,2
301,286,304,302,2
300,284,305,300,2
299,282,308,299,2
298,283,310,300,2
299,288,310,304,2
300,295,308,313,2
301,304,306,322,2
303,312,305,331,2
305,317,306,339,2
306,320,307,346,2
309,321,309,351,2
311,322,311,352,2
312,322,312,350,2
312,321,311,346,2
311,319,308,342,2
309,316,306,337,2
308,314,304,330,2
307,312,306,321,2
307,310,310,312,2
307,308,315,303,2
308,305,320,296,2
309,300,322,291,2
309,295,320,287,2
310,287,312,283,2
309,279,300,280,2
309,271,291,278,2
310,264,288,277,2
312,261,287,278,2
314,261,289,281,2
315,268,292,285,2
315,282,295,291,2
314,301,298,298,2
313,320,300,304,2
312,333,302,308,2
310,341,305,312,2
308,339,307,314,2
306,333,309,314,2
305,326,311,313,2
304,322,310,312,2
304,320,309,310,2
302,320,306,306,2
299,321,302,301,2
298,321,299,297,2
299,319,298,294,2
300,316,298,293,2
301,313,298,293,2
301,310,299,293,2
303,309,299,293,2
304,308,299,294,2
306,307,301,295,2
308,307,302,297,2
309,309,303,300,2
309,313,304,302,2
309,319,307,304,2
309,328,311,304,2
308,338,314,304,2
307,346,318,304,2
306,350,323,303,2
306,346,329,304,2
305,338,332,305,2
305,328,332,308,2
305,318,329,310,2
306,308,321,312,2
305,301,313,313,2
304,298,305,313,2
304,301,298,314,2
305,304,292,317,2
306,306,289,320,2
308,305,288,324,2
309,304,293,326,2
310,302,300,326,2
310,300,309,324,2
310,299,315,320,2
310,299,318,315,2
310,298,318,311,2
308,300,313,310,2
307,306,305,312,2
305,314,300,315,2
304,318,298,319,2
304,317,297,321,2
304,312,299,322,2
306,302,301,321,2
306,289,305,319,2
306,282,307,317,2
306,287,308,314,2
305,302,308,312,2
303,315,307,308,2
302,323,302,303,2
301,326,297,300,2
302,325,294,299,2
302,324,293,301,2
303,322,294,304,2
304,321,295,304,2
304,319,296,303,2
304,318,297,300,2
304,318,299,299,2
305,317,299,298,2
305,318,301,298,2
305,319,301,298,2
305,319,303,300,2
305,320,303,302,2
305,320,302,304,2
306,322,301,309,2
307,326,300,315,2
307,331,297,317,2
306,336,295,317,2
306,343,293,314,2
307,348,294,310,2
309,347,297,306,2
310,339,303,304,2
312,328,308,304,2
314,317,313,306,2
315,308,317,308,2
315,303,319,310,2
314,298,318,312,2
312,294,314,313,2
309,290,310,315,2
308,290,307,319,2
307,295,307,323,2
306,300,306,326,2
305,304,306,326,2
304,304,305,323,2
304,301,303,317,2
304,295,301,311,2
303,289,300,304,2
303,287,301,299,2
304,289,304,295,2
305,293,307,292,2
306,297,309,289,2
305,296,311,288,2
305,293,312,287,2
304,289,314,288,2
303,287,313,291,2
303,291,309,295,2
302,300,306,299,2
301,308,303,302,2
300,315,302,305,2
299,318,302,308,2
298,317,302,309,2
298,310,302,310,2
299,298,302,310,2
300,290,301,311,2
300,289,301,313,2
301,295,302,316,2
301,305,304,319,2
302,315,308,323,2
304,322,314,328,2
306,324,322,335,2
308,321,329,340,2
310,318,333,344,2
311,315,333,343,2
313,312,327,339,2
313,309,318,331,2
312,306,308,322,2
310,307,301,315,2
309,312,297,308,2
307,321,294,303,2
305,333,293,299,2
303,346,291,295,2
301,354,289,292,2
299,356,288,290,2
298,350,288,288,2
297,338,288,287,2
296,322,288,286,2
296,305,289,287,2
296,292,292,288,2
297,283,297,290,2
298,277,302,292,2
299,276,306,295,2
301,276,305,296,2
303,279,301,297,2
304,283,297,298,2
305,288,295,299,2
305,294,296,301,2
304,299,298,304,2
302,303,299,307,2
300,306,299,310,2
299,309,299,312,2
300,311,299,312,2
300,311,299,310,2
300,312,300,309,2
300,312,300,309,2
300,314,300,309,2
301,314,303,307,2
302,312,306,305,2
303,305,308,300,2
304,295,310,297,2
304,282,311,297,2
304,268,313,301,2
303,258,317,308,2
303,256,324,315,2
304,260,332,320,2
304,267,337,322,2
305,276,338,321,2
304,288,333,318,2
303,301,321,313,2
300,313,309,309,2
299,322,302,304,2
299,326,298,302,2
300,329,298,300,2
300,329,298,301,2
301,329,297,301,2
301,329,295,301,2
302,329,291,302,2
303,327,286,302,2
304,323,283,304,2
307,318,282,305,2
308,313,282,307,2
310,308,285,308,2
311,304,287,309,2
312,301,290,311,2
312,298,293,314,2
312,298,296,318,2
311,300,298,322,2
309,303,301,323,2
307,308,302,323,2
306,313,304,320,2
304,315,306,317,2
302,315,307,313,2
301,314,305,311,2
299,313,303,311,2
299,312,302,312,2
299,311,301,313,2
299,311,301,313,2
300,311,301,313,2
301,312,302,314,2
302,315,302,316,2
304,319,303,317,2
306,324,304,317,2
307,330,304,316,2
309,336,305,315,2
311,341,305,314,2
311,342,305,312,2
312,337,305,309,2
312,325,304,304,2
312,310,304,301,2
312,297,304,301,2
312,289,304,303,2
311,286,304,306,2
309,283,303,309,2
308,278,302,312,2
308,273,302,314,2
308,268,303,315,2
309,266,303,316,2
310,267,302,315,2
312,272,301,313,2
314,279,299,309,2
316,285,299,304,2
316,285,299,298,2
317,283,300,294,2
317,281,301,294,2
316,282,303,298,2
315,290,308,304,2
312,304,312,311,2
309,319,314,317,2
307,332,313,320,2
307,343,312,321,2
306,350,310,321,2
307,353,308,319,2
308,349,306,316,2
309,341,303,313,2
310,332,302,309,2
312,325,301,306,2
314,317,300,303,2
313,308,300,301,2
313,300,301,301,2
312,295,303,302,2
312,293,307,303,2
311,292,312,304,2
312,290,315,304,2
313,288,317,302,2
314,288,316,299,2
313,291,312,297,2
312,297,306,295,2
310,306,303,293,2
309,316,301,293,2
308,327,300,293,2
307,338,302,294,2
306,348,304,295,2
306,356,307,297,2
306,357,308,299,2
306,348,307,300,2
306,332,304,299,2
306,314,299,298,2
306,300,294,298,2
307,289,292,300,2
307,283,291,305,2
307,282,292,312,2
307,285,294,318,2
307,289,296,322,2
309,291,298,326,2
312,285,302,331,2
315,275,305,337,2
316,266,310,342,2
317,262,313,344,2
317,266,315,342,2
315,280,315,337,2
314,297,313,329,2
312,312,308,319,2
310,321,304,308,2
308,322,301,298,2
308,319,301,291,2
307,315,301,289,2
308,315,300,291,2
308,318,298,295,2
309,321,297,299,2
310,321,296,302,2
311,318,296,306,2
313,316,298,308,2
314,315,301,311,2
316,316,307,313,2
317,319,314,314,2
316,319,321,315,2
314,315,325,314,2
312,311,326,313,2
310,309,324,312,2
307,309,319,311,2
306,310,312,310,2
305,314,308,309,2
304,319,304,307,2
305,325,302,305,2
305,331,301,304,2
305,338,301,303,2
305,340,298,303,2
305,333,295,301,2
306,319,293,299,2
309,306,291,298,2
311,297,290,296,2
313,291,290,295,2
314,288,292,294,2
315,289,296,294,2
315,295,302,295,2
314,303,308,298,2
313,310,314,303,2
311,316,317,307,2
308,323,315,309,2
305,329,312,309,2
303,331,310,308,2
303,330,308,307,2
304,327,309,307,2
305,323,310,309,2
305,317,308,314,2
305,309,305,320,2
304,300,303,327,2
305,294,301,332,2
307,289,300,334,2
308,288,299,333,2
308,289,299,332,2
308,290,300,329,2
307,288,301,325,2
308,282,300,318,2
308,275,299,311,2
309,271,297,304,2
310,274,297,301,2
310,284,296,300,2
310,297,297,301,2
308,308,299,303,2
307,315,301,305,2
306,318,304,307,2
306,319,306,308,2
305,317,307,307,2
305,313,305,303,2
305,308,304,297,2
305,302,302,291,2
305,294,302,285,2
305,285,302,282,2
305,278,302,282,2
306,274,301,283,2
306,275,299,286,2
307,281,296,289,2
307,292,295,292,2
307,305,295,295,2
307,317,297,299,2
307,326,299,303,2
307,331,300,306,2
305,332,301,308,2
304,328,300,310,2
303,323,299,311,2
302,318,299,311,2
301,313,300,312,2
301,312,301,312,2
301,314,303,313,2
302,318,304,313,2
302,322,305,316,2
302,323,305,319,2
302,322,302,323,2
303,318,299,325,2
303,311,297,324,2
305,304,298,321,2
306,299,299,318,2
307,295,302,315,2
307,294,305,312,2
306,295,310,310,2
306,296,319,308,2
306,298,330,308,2
307,300,342,308,2
306,302,350,307,2
306,305,347,305,2
306,307,337,303,2
306,309,320,302,2
306,308,303,301,2
306,307,289,300,2
306,305,284,299,2
305,307,284,300,2
305,313,285,301,2
304,319,286,303,2
305,324,286,305,2
305,325,286,308,2
307,322,287,310,2
308,314,289,313,2
309,299,292,317,2
310,281,294,322,2
310,266,297,326,2
310,265,299,328,2
309,276,299,328,2
307,291,300,326,2
305,305,300,322,2
304,314,301,318,2
305,320,301,313,2
305,323,302,309,2
304,325,303,306,2
304,327,305,306,2
304,329,307,308,2
304,330,308,311,2
305,327,310,315,2
306,322,311,321,2
308,316,312,326,2
310,310,311,331,2
312,307,310,332,2
313,309,309,330,2
313,313,306,325,2
315,318,303,320,2
316,322,302,314,2
316,324,302,308,2
316,324,303,304,2
315,319,304,299,2
313,313,306,294,2
311,310,307,289,2
308,313,306,285,2
306,317,304,284,2
305,318,304,285,2
304,318,305,288,2
303,316,307,292,2
304,315,310,297,2
303,314,313,301,2
304,313,313,305,2
304,310,311,307,2
306,305,308,308,2
307,300,307,309,2
309,295,306,309,2
311,292,307,309,2
313,289,307,310,2
312,287,307,313,2
312,285,307,314,2
310,283,308,316,2
309,283,307,317,2
307,282,308,318,2
306,282,308,316,2
304,283,307,313,2
303,287,307,309,2
302,292,307,305,2
303,300,307,303,2
304,311,308,303,2
305,319,309,303,2
305,321,309,305,2
305,317,310,306,2
304,314,312,308,2
304,313,316,310,2
305,311,322,316,2
306,309,328,324,2
307,307,330,331,2
308,307,328,335,2
308,310,324,336,2
306,315,319,334,2
304,318,313,329,2
302,320,306,323,2
301,318,302,315,2
301,314,299,308,2
302,311,298,302,2
303,310,297,299,2
305,312,296,298,2
307,314,295,298,2
308,317,295,298,2
310,319,297,298,2
310,321,301,297,2
311,323,305,296,2
311,322,309,294,2
311,318,309,293,2
312,311,307,294,2
312,301,305,297,2
312,290,304,303,2
311,284,305,311,2
309,282,307,320,2
308,284,310,328,2
307,289,312,335,2
307,293,314,338,2
306,296,316,340,2
305,300,317,339,2
305,305,316,338,2
305,312,314,334,2
304,318,309,329,2
303,323,304,322,2
303,326,300,314,2
302,325,297,304,2
301,323,296,295,2
301,321,295,288,2
302,319,294,285,2
304,319,294,285,2
305,320,295,286,2
306,322,297,286,2
306,321,300,286,2
307,316,302,286,2
307,309,304,287,2
308,303,305,289,2
307,301,307,293,2
307,304,307,298,2
306,311,308,303,2
305,318,308,306,2
305,321,307,308,2
304,321,307,309,2
304,319,306,310,2
304,316,307,310,2
305,313,307,310,2
305,308,307,309,2
306,302,307,308,2
307,293,308,306,2
308,286,309,306,2
309,282,311,309,2
310,284,312,312,2
310,291,311,314,2
308,301,308,314,2
307,311,306,313,2
306,318,306,310,2
306,323,307,307,2
305,325,308,304,2
304,323,309,301,2
304,319,309,298,2
304,316,309,296,2
303,314,309,294,2
302,312,308,294,2
301,311,308,294,2
302,309,310,294,2
302,308,312,293,2
301,308,314,291,2
301,306,315,289,2
303,304,315,290,2
304,298,313,293,2
306,293,309,298,2
307,290,308,303,2
308,292,310,309,2
308,296,313,315,2
308,296,314,320,2
307,292,314,323,2
306,289,314,326,2
306,291,316,328,2
306,295,320,331,2
307,298,325,335,2
307,299,326,338,2
308,298,323,340,2
308,298,315,340,2
308,297,307,338,2
307,296,302,335,2
307,295,299,331,2
307,299,297,325,2
305,305,295,318,2
304,309,293,310,2
304,309,291,303,2
303,307,290,297,2
305,304,291,292,2
306,303,291,291,2
308,303,293,291,2
308,307,296,295,2
308,312,299,300,2
307,316,302,306,2
306,317,303,309,2
304,316,304,311,2
303,313,305,311,2
301,312,306,309,2
300,312,306,306,2
300,314,306,303,2
300,317,305,299,2
300,322,304,296,2
301,328,302,293,2
301,335,302,292,2
302,340,301,291,2
303,337,302,290,2
304,326,303,290,2
305,311,303,292,2
307,293,304,295,2
308,276,304,299,2
310,266,305,304,2
311,264,307,309,2
312,270,309,315,2
311,279,311,320,2
310,289,313,321,2
308,299,318,320,2
306,306,325,317,2
305,308,333,314,2
303,304,339,311,2
302,295,344,310,2
302,288,342,310,2
301,287,334,311,2
301,292,321,312,2
300,299,309,311,2
300,306,300,309,2
299,310,293,304,2
299,308,290,300,2
300,304,290,298,2
301,301,291,298,2
302,300,293,299,2
303,300,296,300,2
304,300,298,303,2
305,302,302,305,2
306,307,307,306,2
305,311,311,307,2
305,314,316,308,2
305,314,319,311,2
305,313,322,313,2
304,309,321,314,2
304,303,319,314,2
304,294,318,313,2
306,286,317,310,2
307,280,316,308,2
307,279,315,304,2
306,284,311,301,2
305,295,305,298,2
306,306,298,297,2
306,315,291,297,2
306,320,286,299,2
307,323,285,304,2
307,326,285,309,2
307,329,286,314,2
307,330,288,318,2
306,330,291,320,2
304,330,292,320,2
303,329,294,320,2
300,328,295,320,2
299,325,297,322,2
299,322,299,324,2
300,319,300,324,2
301,314,299,324,2
303,307,299,323,2
305,300,299,320,2
307,297,299,315,2
308,293,298,307,2
307,293,297,299,2
307,294,295,291,2
305,292,294,286,2
304,287,293,284,2
305,281,294,286,2
306,275,296,288,2
306,272,300,293,2
305,273,304,302,2
304,278,309,312,2
303,287,313,321,2
302,297,315,326,2
300,307,315,328,2
299,313,313,325,2
298,316,310,320,2
299,316,305,314,2
300,317,301,307,2
301,317,298,301,2
302,318,296,296,2
302,316,295,293,2
303,312,295,290,2
304,306,295,288,2
305,299,294,287,2
306,294,294,287,2
307,289,295,289,2
308,287,295,292,2
309,284,297,297,2
308,285,298,301,2
307,289,299,305,2
307,295,299,310,2
307,300,301,313,2
307,307,302,317,2
306,317,303,319,2
303,323,303,320,2
301,321,303,320,2
299,315,303,320,2
298,311,302,320,2
298,309,301,320,2
299,309,301,318,2
299,308,301,315,2
300,304,300,310,2
300,299,300,304,2
300,295,299,299,2
301,293,299,296,2
302,291,299,295,2
303,289,299,296,2
304,287,302,298,2
304,289,307,301,2
304,297,315,303,2
304,309,322,304,2
303,319,325,303,2
302,325,324,302,2
302,325,320,299,2
302,321,318,297,2
302,316,317,296,2
303,310,318,295,2
303,304,319,296,2
303,298,320,298,2
303,298,316,300,2
302,303,306,303,2
302,313,296,304,2
303,322,288,305,2
304,330,285,304,2
306,335,285,303,2
308,335,288,302,2
310,327,291,300,2
312,314,294,300,2
313,301,298,301,2
314,290,301,302,2
314,284,304,304,2
313,282,307,306,2
312,283,309,311,2
311,286,310,318,2
310,291,311,325,2
308,303,308,330,2
306,316,302,334,2
305,324,298,335,2
304,325,296,333,2
304,320,296,329,2
303,315,297,324,2
303,314,297,317,2
302,316,295,310,2
302,317,295,303,2
303,317,294,298,2
304,315,294,295,2
305,311,294,293,2
307,307,295,292,2
308,302,295,291,2
309,296,296,290,2
309,287,298,289,2
309,278,300,290,2
309,271,302,292,2
308,274,303,296,2
307,286,304,300,2
306,301,303,303,2
303,312,301,305,2
300,316,300,307,2
299,313,298,308,2
298,310,298,309,2
299,310,299,311,2
300,312,300,313,2
301,312,302,317,2
303,311,304,319,2
305,307,306,323,2
307,303,309,329,2
308,302,311,334,2
309,304,313,337,2
310,305,314,338,2
311,306,316,337,2
311,307,316,334,2
309,306,314,328,2
306,303,309,323,2
304,298,307,317,2
303,294,308,313,2
304,291,310,309,2
306,289,311,306,2
306,286,310,302,2
306,286,308,300,2
305,289,306,297,2
305,297,305,295,2
304,306,305,294,2
304,316,304,292,2
304,324,303,292,2
305,328,304,292,2
306,328,306,293,2
307,325,307,295,2
309,317,309,297,2
311,307,311,301,2
312,300,312,305,2
312,297,312,308,2
311,297,311,309,2
309,300,310,311,2
308,303,310,312,2
307,306,309,313,2
306,308,308,312,2
305,310,309,309,2
303,309,310,309,2
302,307,313,312,2
302,306,315,317,2
302,307,315,322,2
304,311,314,327,2
305,316,309,329,2
306,321,304,328,2
307,324,300,325,2
308,324,298,320,2
309,319,298,312,2
311,311,298,306,2
311,303,299,302,2
309,298,299,300,2
307,298,300,299,2
304,295,300,299,2
300,293,301,299,2
297,295,301,300,2
295,301,301,301,2
295,306,301,301,2
295,310,300,301,2
297,311,300,299,2
297,310,300,297,2
298,309,300,295,2
297,307,299,295,2
298,306,298,295,2
298,303,299,295,2
300,299,299,295,2
302,294,300,295,2
304,291,301,296,2
306,290,302,297,2
307,291,302,299,2
308,293,304,302,2
309,292,306,306,2
309,290,309,310,2
307,286,311,314,2
304,281,312,316,2
301,276,312,318,2
298,277,312,323,2
298,287,312,327,2
297,303,314,331,2
297,323,315,331,2
297,341,315,329,2
297,354,314,325,2
296,357,312,320,2
296,350,309,314,2
297,336,304,309,2
299,317,302,306,2
302,298,301,304,2
304,282,303,303,2
304,275,306,302,2
306,273,311,302,2
306,274,317,300,2
307,274,322,298,2
307,276,324,296,2
306,279,322,296,2
304,284,318,297,2
303,289,315,297,2
301,296,315,300,2
300,300,314,304,2
300,302,312,310,2
299,303,309,316,2
298,304,307,321,2
299,305,303,325,2
299,306,298,327,2
300,306,295,328,2
301,307,296,330,2
303,307,297,331,2
305,308,299,333,2
308,309,300,335,2
309,309,302,335,2
310,310,304,334,2
310,310,306,331,2
310,309,307,326,2
309,309,307,316,2
306,311,305,303,2
303,313,303,291,2
300,313,301,282,2
298,308,300,277,2
297,299,301,273,2
297,286,302,272,2
298,277,304,273,2
300,274,306,275,2
302,276,308,279,2
303,283,309,283,2
304,292,309,287,2
304,299,310,291,2
304,304,311,295,2
304,306,314,300,2
305,306,319,304,2
307,307,327,308,2
309,312,335,311,2
311,319,341,313,2
312,323,344,314,2
311,322,341,312,2
310,320,331,310,2
307,318,319,307,2
305,319,309,304,2
304,320,303,302,2
302,321,301,303,2
301,321,301,305,2
301,319,302,307,2
302,317,305,308,2
304,316,307,310,2
306,317,310,311,2
307,319,312,312,2
307,321,312,312,2
306,324,311,312,2
305,327,309,311,2
305,327,308,309,2
306,322,307,306,2
307,313,306,303,2
308,300,303,299,2
308,288,300,296,2
308,278,299,295,2
307,271,301,294,2
305,271,304,294,2
303,277,307,295,2
301,286,307,297,2
300,294,306,299,2
300,301,306,301,2
299,309,306,304,2
299,316,306,306,2
300,320,305,308,2
301,321,305,310,2
303,317,306,312,2
305,310,306,314,2
307,302,309,316,2
308,297,313,319,2
309,294,316,323,2
311,295,320,327,2
312,298,322,330,2
313,302,320,332,2
313,306,316,332,2
312,310,313,331,2
312,313,312,329,2
311,315,312,327,2
311,316,312,326,2
311,314,311,326,2
311,309,308,324,2
311,301,305,320,2
310,294,303,313,2
310,289,302,306,2
311,287,301,299,2
311,287,301,294,2
311,289,301,290,2
311,289,300,290,2
310,287,300,292,2
309,287,302,297,2
309,295,303,303,2
308,307,303,308,2
308,320,304,312,2
309,330,304,315,2
310,336,306,317,2
310,338,307,318,2
310,337,308,317,2
309,334,308,314,2
308,330,309,311,2
307,327,312,307,2
307,323,316,305,2
306,319,321,302,2
307,311,323,301,2
307,302,324,299,2
306,299,323,298,2
305,298,321,297,2
304,298,319,297,2
304,297,319,298,2
305,296,320,299,2
306,295,321,300,2
307,294,318,301,2
308,295,310,301,2
308,298,301,301,2
309,304,294,303,2
309,312,291,304,2
310,319,291,305,2
310,322,292,305,2
310,322,292,306,2
310,319,293,306,2
309,313,295,306,2
308,307,296,307,2
308,302,297,308,2
308,298,296,308,2
308,295,296,309,2
308,295,296,309,2
308,296,299,309,2
308,297,302,309,2
308,297,307,308,2
309,296,311,309,2
310,295,314,310,2
311,295,316,313,2
312,296,317,315,2
312,296,319,318,2
313,297,318,323,2
313,298,315,329,2
314,301,312,336,2
314,305,309,341,2
313,309,307,343,2
312,311,306,342,2
312,313,304,338,2
311,313,303,331,2
311,311,301,323,2
311,310,299,316,2
311,308,298,312,2
311,307,297,310,2
311,309,297,309,2
311,308,299,308,2
310,303,301,303,2
309,300,305,297,2
308,301,309,292,2
309,304,313,289,2
310,307,315,290,2
311,309,314,293,2
312,311,311,296,2
312,312,309,299,2
312,313,308,302,2
310,313,307,304,2
308,313,306,305,2
307,313,306,305,2
306,313,307,303,2
306,313,308,298,2
306,313,308,293,2
306,312,306,290,2
305,313,301,289,2
304,314,296,290,2
303,316,291,292,2
303,320,289,294,2
304,325,288,298,2
305,329,287,305,2
306,331,288,313,2
308,330,289,320,2
309,328,292,324,2
309,329,297,323,2
309,330,303,321,2
308,329,310,317,2
308,327,314,312,2
306,323,316,306,2
305,317,315,301,2
304,307,311,296,2
304,296,307,292,2
305,288,303,290,2
306,286,300,292,2
307,287,299,295,2
307,290,298,299,2
307,293,297,302,2
307,296,297,304,2
306,302,296,306,2
307,308,294,306,2
307,311,292,305,2
308,311,290,302,2
310,309,289,300,2
313,306,291,297,2
315,300,296,294,2
315,294,303,291,2
315,289,311,289,2
315,285,318,287,2
314,282,320,285,2
312,277,316,283,2
310,272,310,282,2
309,271,304,283,2
308,271,301,286,2
307,274,299,291,2
306,278,299,297,2
305,281,299,306,2
305,287,299,314,2
304,295,299,321,2
303,305,298,327,2
303,316,298,333,2
303,324,299,338,2
303,330,301,343,2
305,333,304,347,2
306,335,308,348,2
307,336,313,346,2
308,334,319,342,2
309,331,324,336,2
309,329,328,329,2
309,327,327,320,2
308,325,320,312,2
308,323,312,304,2
308,323,307,297,2
308,325,303,292,2
310,329,301,288,2
311,333,299,286,2
311,339,294,283,2
310,346,289,280,2
309,350,285,278,2
308,346,284,278,2
307,337,285,279,2
307,327,289,282,2
308,316,293,288,2
310,306,297,296,2
312,297,301,304,2
313,291,302,312,2
313,288,302,319,2
313,287,303,325,2
312,290,304,328,2
311,297,304,326,2
310,306,304,320,2
307,313,304,313,2
304,317,302,305,2
302,318,301,301,2
301,316,300,298,2
302,310,299,297,2
303,303,298,299,2
303,297,298,303,2
304,293,298,307,2
305,288,299,308,2
307,285,300,309,2
309,284,301,308,2
310,286,301,309,2
312,290,301,309,2
313,294,302,310,2
313,298,302,312,2
313,301,303,313,2
314,303,304,314,2
314,303,307,311,2
314,301,311,305,2
313,297,315,298,2
312,291,317,293,2
310,286,316,292,2
309,279,312,298,2
309,275,306,307,2
308,277,300,314,2
308,284,295,318,2
308,294,293,319,2
307,302,292,318,2
307,307,292,315,2
308,311,292,313,2
308,313,291,311,2
309,311,292,312,2
311,309,294,314,2
312,309,296,318,2
313,310,298,322,2
315,313,300,325,2
315,317,302,327,2
315,320,303,327,2
313,323,303,325,2
312,321,303,319,2
310,315,303,312,2
309,311,302,305,2
308,311,301,299,2
308,314,301,295,2
307,320,300,293,2
306,324,300,293,2
306,325,298,293,2
304,323,298,294,2
303,319,299,296,2
301,311,305,298,2
301,301,312,301,2
301,295,320,304,2
302,296,325,308,2
304,300,326,313,2
305,306,323,319,2
305,311,316,327,2
305,317,308,332,2
304,320,302,336,2
304,321,299,337,2
303,320,299,336,2
303,320,300,334,2
303,321,300,331,2
303,321,301,326,2
303,321,300,321,2
302,319,300,315,2
302,315,299,309,2
302,310,298,302,2
303,303,297,296,2
304,293,296,290,2
305,281,295,286,2
306,268,294,283,2
307,260,295,283,2
309,258,296,285,2
310,261,299,290,2
311,271,303,297,2
312,283,309,304,2
312,293,313,309,2
311,300,317,313,2
309,305,319,314,2
307,309,316,314,2
305,312,311,313,2
303,313,306,312,2
302,315,304,311,2
302,316,305,310,2
302,318,307,312,2
303,321,310,313,2
304,324,310,315,2
305,328,307,316,2
306,330,303,317,2
306,330,299,318,2
306,325,295,319,2
307,318,294,319,2
308,310,293,316,2
310,300,294,312,2
310,289,295,307,2
310,280,297,305,2
310,274,300,304,2
311,272,302,303,2
311,275,305,300,2
310,284,309,298,2
310,295,314,298,2
309,304,322,300,2
308,310,330,306,2
307,316,334,314,2
307,319,332,321,2
306,320,326,324,2
305,319,315,323,2
304,316,304,319,2
302,314,295,311,2
301,313,289,302,2
301,312,287,293,2
301,311,287,286,2
302,310,288,282,2
305,309,288,281,2
307,306,290,283,2
308,303,292,286,2
309,300,294,289,2
309,301,297,291,2
307,305,299,293,2
305,310,300,295,2
304,316,301,296,2
303,323,302,297,2
302,333,301,297,2
302,343,300,297,2
302,352,299,297,2
302,356,298,297,2
303,354,297,296,2
303,343,297,295,2
303,323,300,295,2
303,300,305,299,2
303,286,310,305,2
304,281,312,313,2
305,279,311,321,2
306,278,308,328,2
307,279,305,332,2
308,282,305,334,2
309,285,306,334,2
309,288,307,332,2
308,292,308,329,2
307,295,309,326,2
306,299,309,322,2
305,302,308,318,2
304,304,307,313,2
303,306,306,309,2
302,307,304,305,2
301,307,303,300,2
301,307,302,296,2
302,306,300,292,2
302,305,299,290,2
302,304,299,290,2
302,302,299,291,2
303,301,299,293,2
303,300,299,296,2
304,299,300,299,2
305,299,300,302,2
307,300,301,304,2
308,302,302,305,2
310,304,303,306,2
310,306,303,305,2
310,309,304,304,2
309,311,303,303,2
309,313,303,303,2
308,315,302,304,2
307,315,301,306,2
305,315,302,309,2
304,313,302,312,2
304,310,303,313,2
303,310,304,313,2
303,310,304,313,2
304,312,304,313,2
305,314,305,314,2
307,315,306,316,2
309,316,306,317,2
311,317,306,320,2
313,320,306,323,2
314,327,307,328,2
314,336,308,335,2
315,343,308,342,2
314,346,308,347,2
313,344,307,349,2
311,336,306,348,2
309,326,306,347,2
309,318,307,347,2
308,311,307,345,2
307,303,308,340,2
306,297,307,330,2
303,291,305,319,2
301,288,304,307,2
299,285,304,297,2
299,284,305,290,2
299,284,307,287,2
301,286,310,289,2
302,288,312,294,2
304,291,313,299,2
305,293,312,303,2
306,295,308,306,2
306,299,305,309,2
307,304,304,311,2
306,309,303,311,2
306,312,303,308,2
306,315,302,305,2
305,319,302,302,2
305,321,301,302,2
305,322,300,305,2
305,321,299,309,2
304,317,298,312,2
304,310,297,311,2
304,297,296,308,2
304,283,296,302,2
304,270,296,296,2
304,263,297,290,2
305,261,298,287,2
305,262,300,287,2
306,267,302,290,2
307,277,304,294,2
307,289,306,298,2
307,300,307,301,2
308,308,310,304,2
308,314,311,307,2
307,318,311,313,2
306,319,311,319,2
305,320,310,324,2
304,320,310,328,2
304,320,309,329,2
304,321,308,327,2
304,321,310,321,2
304,320,313,313,2
304,319,316,305,2
303,316,317,297,2
303,313,319,292,2
304,308,321,290,2
305,301,324,290,2
307,296,327,292,2
307,295,328,296,2
307,298,323,302,2
307,305,315,308,2
305,314,307,314,2
304,319,304,318,2
303,321,303,319,2
302,319,305,319,2
302,316,308,316,2
302,311,311,312,2
301,307,313,308,2
300,304,314,307,2
299,304,316,307,2
300,304,317,308,2
300,306,318,310,2
301,308,317,311,2
302,312,315,310,2
302,316,311,310,2
303,319,306,309,2
303,319,302,309,2
304,314,299,310,2
305,306,298,312,2
306,300,300,314,2
307,293,303,315,2
308,286,307,316,2
308,282,311,316,2
307,284,313,316,2
306,289,314,316,2
304,294,315,316,2
302,298,315,316,2
300,301,314,317,2
299,303,314,318,2
298,305,313,319,2
298,305,312,318,2
299,303,309,313,2
302,296,306,305,2
305,284,303,296,2
307,270,299,287,2
309,256,297,281,2
310,247,296,280,2
311,246,298,282,2
310,259,300,285,2
309,279,301,290,2
306,300,302,294,2
304,315,302,298,2
302,326,303,302,2
301,332,303,306,2
301,335,304,312,2
301,337,305,318,2
301,340,305,324,2
301,344,306,328,2
301,345,306,330,2
300,343,307,330,2
300,339,306,325,2
299,335,306,319,2
299,331,305,311,2
299,325,304,302,2
300,318,303,296,2
302,310,303,291,2
305,304,303,290,2
307,298,305,293,2
308,297,307,300,2
310,302,312,310,2
311,313,317,318,2
311,325,322,325,2
312,337,324,328,2
311,346,327,329,2
310,351,330,326,2
308,350,332,322,2
306,341,330,317,2
303,327,325,314,2
300,313,321,312,2
300,301,317,312,2
301,294,314,311,2
302,293,313,308,2
304,292,310,306,2
306,288,305,303,2
307,278,298,301,2
307,267,291,298,2
308,258,288,296,2
309,254,287,295,2
309,259,287,297,2
308,270,288,300,2
307,282,289,304,2
307,293,292,308,2
308,301,296,310,2
309,305,300,309,2
307,308,302,304,2
304,308,304,299,2
302,306,306,294,2
301,301,306,291,2
300,296,305,290,2
300,291,305,292,2
300,288,304,294,2
301,285,304,295,2
302,286,304,296,2
302,290,303,296,2
303,295,302,296,2
304,296,302,294,2
305,293,302,293,2
308,292,303,294,2
310,296,304,295,2
311,306,306,297,2
311,320,306,299,2
309,333,305,300,2
306,343,302,300,2
304,347,300,301,2
304,348,299,302,2
305,344,299,303,2
305,337,301,305,2
305,328,303,308,2
304,319,304,310,2
304,312,304,310,2
304,306,301,310,2
304,302,299,310,2
303,301,298,309,2
302,303,299,306,2
301,308,302,303,2
302,313,305,299,2
304,318,306,298,2
306,322,305,299,2
308,321,303,302,2
308,314,303,308,2
309,304,305,315,2
310,299,309,321,2
309,299,315,324,2
308,304,321,325,2
307,307,328,324,2
305,306,333,321,2
303,300,335,317,2
301,293,332,312,2
300,284,325,306,2
298,273,316,302,2
298,264,306,299,2
298,260,300,298,2
299,262,296,297,2
299,271,294,296,2
299,283,293,296,2
299,294,291,296,2
300,304,289,296,2
301,313,289,297,2
303,320,290,298,2
304,325,292,302,2
305,326,297,308,2
305,323,302,316,2
304,319,308,323,2
301,315,312,329,2
299,314,315,334,2
297,315,318,337,2
296,315,317,339,2
296,315,310,339,2
295,313,303,337,2
294,310,299,334,2
294,307,296,336,2
295,305,296,340,2
296,303,296,345,2
297,301,298,347,2
297,299,299,347,2
297,298,301,345,2
298,299,303,340,2
299,303,303,333,2
300,309,304,326,2
302,316,304,319,2
304,322,304,311,2
305,328,305,305,2
305,334,305,300,2
304,335,305,295,2
303,331,305,290,2
301,323,304,284,2
299,312,303,279,2
297,301,303,275,2
294,288,302,270,2
292,275,302,266,2
291,268,301,264,2
293,266,300,265,2
294,264,298,268,2
296,262,298,272,2
297,267,299,278,2
298,279,302,284,2
298,293,305,291,2
299,302,310,300,2
300,306,318,308,2
302,309,326,316,2
304,312,333,323,2
305,314,336,328,2
306,317,335,330,2
305,320,328,328,2
304,321,315,324,2
302,320,303,318,2
301,317,296,312,2
301,314,293,307,2
301,312,293,305,2
301,308,295,307,2
301,305,297,310,2
301,305,299,312,2
301,307,299,312,2
300,310,298,310,2
300,317,297,306,2
300,324,296,303,2
301,331,295,300,2
303,338,294,298,2
305,341,295,298,2
308,340,297,299,2
310,330,300,302,2
312,318,305,306,2
312,307,310,310,2
312,301,315,315,2
311,300,318,318,2
309,302,317,319,2
305,306,312,320,2
302,311,309,319,2
299,313,306,317,2
298,315,304,314,2
297,314,300,310,2
298,310,297,305,2
298,304,295,302,2
299,297,294,299,2
299,291,293,297,2
301,286,293,296,2
302,280,294,296,2
304,276,295,297,2
306,274,297,298,2
308,274,299,300,2
309,275,301,302,2
309,278,305,304,2
309,281,309,309,2
308,284,313,317,2
307,285,319,327,2
306,286,324,336,2
305,288,327,344,2
304,296,328,348,2
304,304,326,348,2
303,314,322,344,2
302,325,316,339,2
301,337,306,333,2
300,345,298,326,2
300,348,292,319,2
300,343,289,313,2
300,335,288,307,2
300,326,289,304,2
301,320,289,301,2
302,315,290,298,2
302,312,291,295,2
303,310,295,294,2
304,309,300,292,2
304,307,306,291,2
305,306,310,289,2
305,306,310,287,2
305,309,306,284,2
305,314,302,283,2
304,322,299,284,2
303,329,296,286,2
301,336,295,289,2
299,340,295,293,2
299,341,295,298,2
299,336,296,302,2
300,328,296,304,2
300,316,297,305,2
301,307,297,304,2
302,301,299,305,2
304,297,300,306,2
306,294,302,307,2
308,291,303,309,2
311,289,303,310,2
312,286,304,309,2
313,281,305,307,2
313,276,307,305,2
312,271,309,303,2
312,269,313,301,2
311,273,316,298,2
309,286,318,296,2
307,303,315,296,2
304,317,309,295,2
302,322,305,295,2
300,322,304,298,2
299,320,305,302,2
299,318,307,307,2
299,317,308,312,2
302,315,306,315,2
303,313,304,318,2
306,309,304,321,2
307,306,305,326,2
309,304,309,330,2
310,304,313,332,2
312,306,315,331,2
311,307,317,327,2
310,309,317,320,2
308,309,314,315,2
305,309,310,310,2
302,310,306,306,2
300,314,304,305,2
300,320,303,304,2
300,327,304,304,2
299,333,305,303,2
299,335,306,303,2
299,332,309,303,2
300,324,312,303,2
301,314,317,304,2
304,305,322,307,2
307,303,324,310,2
309,305,323,313,2
310,306,319,316,2
310,303,315,317,2
309,297,311,319,2
308,292,311,321,2
306,290,313,322,2
304,293,313,323,2
302,297,311,322,2
300,302,307,319,2
299,307,304,314,2
299,312,303,309,2
299,317,303,303,2
299,320,303,297,2
301,319,302,292,2
303,311,301,289,2
305,298,300,290,2
307,282,300,295,2
310,267,300,301,2
312,260,300,308,2
314,261,302,316,2
315,272,304,323,2
314,289,304,329,2
313,309,305,335,2
311,326,307,340,2
310,336,308,342,2
309,339,309,342,2
309,339,308,337,2
307,338,306,330,2
306,337,304,320,2
305,335,302,311,2
305,333,302,303,2
305,331,305,298,2
305,329,309,295,2
306,325,314,295,2
305,318,319,295,2
305,309,321,295,2
305,301,318,295,2
305,293,310,294,2
305,288,303,293,2
306,288,301,292,2
308,293,302,293,2
310,298,308,296,2
311,302,315,299,2
312,306,322,302,2
313,309,327,304,2
313,314,328,303,2
312,321,322,300,2
310,328,314,297,2
309,329,304,295,2
307,321,298,296,2
307,306,294,296,2
306,289,293,295,2
306,271,292,294,2
305,253,292,292,2
304,238,293,291,2
303,231,293,290,2
303,234,293,290,2
304,242,294,291,2
304,255,295,294,2
305,270,298,299,2
306,286,302,307,2
307,302,308,314,2
308,315,314,319,2
310,324,317,323,2
311,330,318,325,2
312,333,320,326,2
311,335,321,325,2
310,335,320,323,2
307,334,318,321,2
305,335,314,317,2
302,335,309,313,2
300,335,303,307,2
300,337,298,302,2
299,342,295,298,2
300,345,294,296,2
300,344,293,293,2
301,336,293,291,2
303,321,294,290,2
304,304,294,290,2
306,292,295,293,2
308,287,296,297,2
310,288,299,301,2
310,292,303,303,2
310,296,306,305,2
310,301,308,308,2
309,303,309,311,2
309,304,310,312,2
307,305,311,312,2
306,307,312,311,2
304,309,313,311,2
304,312,313,311,2
303,315,313,311,2
303,316,314,312,2
303,316,312,312,2
303,316,310,312,2
304,318,307,311,2
304,320,305,309,2
305,320,304,308,2
306,316,303,307,2
308,311,302,307,2
309,306,302,308,2
311,303,303,309,2
313,301,305,310,2
314,299,308,312,2
315,296,310,313,2
315,291,313,313,2
315,287,315,314,2
313,291,317,313,2
310,299,317,312,2
308,306,318,309,2
306,311,318,306,2
305,310,318,303,2
304,305,319,300,2
303,299,320,299,2
303,295,320,302,2
304,295,315,311,2
305,303,310,322,2
307,314,307,334,2
309,322,309,342,2
310,322,314,348,2
310,317,319,351,2
311,309,322,351,2
310,302,323,349,2
311,297,320,344,2
311,291,315,337,2
311,287,309,329,2
310,285,305,321,2
309,288,303,313,2
308,298,301,306,2
307,313,300,302,2
306,328,299,298,2
305,340,298,295,2
303,348,297,293,2
302,350,298,292,2
302,345,299,292,2
303,335,303,293,2
304,326,307,294,2
305,316,311,295,2
306,303,311,295,2
306,289,308,293,2
308,273,304,290,2
309,260,302,287,2
311,251,304,285,2
312,248,310,285,2
313,257,317,287,2
314,275,323,288,2
313,294,326,289,2
311,310,325,288,2
307,321,317,288,2
303,329,305,287,2
300,334,297,287,2
299,334,291,287,2
298,332,289,288,2
298,326,288,288,2
297,317,289,289,2
298,310,292,291,2
299,304,295,294,2
300,300,298,298,2
301,299,301,302,2
303,299,303,307,2
305,299,305,312,2
307,297,306,316,2
308,296,307,318,2
308,295,306,319,2
307,294,306,319,2
305,297,306,318,2
304,303,305,316,2
303,311,304,313,2
303,315,304,308,2
303,312,303,303,2
304,308,302,299,2
304,305,302,297,2
304,305,302,297,2
304,309,304,300,2
303,314,308,303,2
304,319,312,307,2
304,324,315,308,2
304,326,316,307,2
304,328,312,303,2
304,327,308,299,2
305,323,308,294,2
306,315,310,292,2
307,303,314,292,2
309,292,317,295,2
310,285,316,299,2
310,282,311,304,2
309,284,304,309,2
308,289,299,314,2
307,297,298,318,2
306,306,298,321,2
305,313,300,325,2
303,319,302,327,2
303,324,303,329,2
304,331,304,332,2
306,340,305,337,2
308,347,305,342,2
308,349,305,345,2
309,345,304,344,2
309,336,304,340,2
310,324,303,332,2
310,312,302,323,2
311,304,300,312,2
311,300,299,303,2
310,301,298,297,2
309,302,298,297,2
309,301,298,299,2
309,299,300,302,2
309,296,303,305,2
310,295,308,308,2
309,298,314,311,2
309,303,323,314,2
309,308,331,315,2
310,312,335,315,2
309,313,334,313,2
309,313,331,310,2
308,314,327,308,2
305,314,320,305,2
302,310,315,302,2
300,304,310,300,2
300,298,306,298,2
302,292,303,298,2
305,285,303,297,2
307,280,303,297,2
309,279,304,298,2
310,281,305,299,2
310,282,305,299,2
309,285,307,299,2
308,289,309,298,2
306,293,311,298,2
304,295,312,297,2
301,298,312,297,2
299,304,311,296,2
298,313,310,295,2
297,322,311,295,2
297,328,315,298,2
299,332,321,303,2
301,335,327,307,2
302,334,330,308,2
303,327,332,307,2
303,312,331,306,2
305,294,326,303,2
307,279,319,301,2
309,269,313,300,2
310,263,307,302,2
311,265,303,305,2
310,275,301,308,2
308,288,300,309,2
306,300,300,309,2
304,311,302,309,2
302,318,305,310,2
302,325,310,311,2
302,330,314,312,2
303,331,317,311,2
304,327,318,309,2
303,319,316,306,2
303,314,312,303,2
302,309,308,298,2
302,306,305,292,2
302,300,301,286,2
303,293,297,283,2
304,286,293,285,2
304,281,291,290,2
304,281,293,297,2
304,285,298,304,2
305,288,303,313,2
306,291,308,322,2
306,293,314,331,2
306,294,318,337,2
305,291,318,340,2
305,287,315,339,2
305,287,311,334,2
305,291,307,325,2
305,297,304,315,2
304,308,302,306,2
303,322,299,300,2
301,338,297,299,2
302,350,294,300,2
303,355,294,299,2
304,349,294,297,2
304,337,294,294,2
305,322,296,289,2
306,307,298,284,2
308,293,300,280,2
310,279,302,278,2
312,265,303,277,2
314,252,305,277,2
313,240,306,277,2
312,234,307,277,2
310,238,308,279,2
309,252,308,281,2
308,274,308,284,2
307,296,310,286,2
306,313,310,287,2
305,325,312,288,2
305,332,316,289,2
306,336,323,289,2
306,338,330,288,2
308,341,336,288,2
309,343,341,289,2
310,344,338,291,2
309,341,327,295,2
307,338,314,301,2
306,335,303,307,2
305,333,298,313,2
305,331,298,317,2
306,330,300,319,2
307,330,302,317,2
307,328,303,313,2
307,321,302,306,2
307,305,299,300,2
307,285,296,297,2
308,270,295,298,2
309,269,296,302,2
310,281,298,307,2
311,300,299,311,2
310,316,300,314,2
310,327,301,314,2
309,333,301,313,2
309,332,300,310,2
308,323,298,306,2
307,308,298,303,2
305,294,298,301,2
305,292,301,301,2
306,301,303,302,2
306,311,306,303,2
307,317,310,304,2
307,315,314,304,2
307,306,316,303,2
306,295,314,301,2
307,285,310,298,2
307,274,304,298,2
308,270,300,301,2
307,274,298,308,2
306,285,297,316,2
304,298,297,323,2
303,307,297,328,2
302,310,298,332,2
300,307,299,333,2
300,302,302,335,2
301,298,305,335,2
303,300,308,334,2
305,306,311,332,2
307,312,312,328,2
308,316,311,323,2
309,319,309,318,2
310,320,306,313,2
311,320,304,307,2
310,317,303,302,2
308,315,302,297,2
305,313,301,293,2
302,310,301,290,2
300,307,307,288,2
298,305,316,288,2
298,307,323,290,2
298,311,330,293,2
301,315,333,295,2
303,320,330,296,2
305,322,319,295,2
305,316,305,297,2
306,303,296,302,2
308,286,293,310,2
308,270,293,319,2
308,261,295,327,2
308,259,296,332,2
308,263,298,329,2
308,271,299,323,2
307,284,300,317,2
306,297,300,313,2
303,309,301,309,2
302,317,302,306,2
301,321,302,304,2
300,322,303,302,2
301,320,303,300,2
301,315,303,301,2
302,310,304,305,2
304,305,307,310,2
306,302,311,313,2
308,301,316,316,2
310,301,321,317,2
312,304,324,318,2
313,309,324,320,2
314,313,321,321,2
312,315,314,321,2
308,315,306,319,2
304,316,301,318,2
303,316,300,315,2
304,313,304,310,2
304,304,307,304,2
303,290,307,297,2
303,278,305,292,2
304,272,304,289,2
307,272,306,288,2
309,277,309,288,2
311,287,310,292,2
314,302,312,297,2
315,318,315,302,2
314,328,316,306,2
311,330,313,309,2
308,327,310,311,2
307,320,306,313,2
308,306,302,313,2
308,288,299,313,2
309,270,299,313,2
309,261,303,313,2
310,262,308,312,2
311,267,312,310,2
311,272,312,307,2
311,277,308,303,2
310,283,304,299,2
308,289,301,295,2
307,294,300,293,2
306,300,300,292,2
305,304,298,292,2
305,308,294,291,2
304,311,289,291,2
305,316,287,291,2
305,323,286,292,2
304,326,286,295,2
305,327,287,299,2
306,325,289,305,2
308,322,291,312,2
309,317,294,320,2
311,312,297,326,2
312,310,299,330,2
314,311,300,333,2
314,312,302,332,2
314,312,303,329,2
313,310,303,324,2
312,308,302,317,2
310,308,301,311,2
308,315,300,306,2
305,331,300,302,2
302,355,298,300,2
299,377,296,299,2
298,390,297,298,2
299,388,300,298,2
301,372,307,299,2
303,344,312,300,2
304,311,313,301,2
305,285,310,302,2
305,271,307,303,2
306,266,304,305,2
308,265,302,307,2
310,266,300,307,2
311,268,298,306,2
312,271,297,305,2
312,272,298,304,2
312,275,299,304,2
310,283,299,304,2
308,297,300,305,2
307,310,300,308,2
306,314,299,309,2
305,310,299,311,2
305,303,298,312,2
305,294,298,311,2
305,287,298,308,2
305,282,299,303,2
305,282,299,300,2
305,287,299,297,2
306,294,300,296,2
306,301,301,298,2
307,306,303,305,2
307,313,308,315,2
308,320,314,323,2
308,324,320,329,2
308,325,326,332,2
307,323,330,332,2
307,321,333,329,2
305,318,331,324,2
303,317,326,320,2
302,319,320,316,2
302,320,314,311,2
302,320,309,306,2
301,315,306,301,2
301,306,303,297,2
300,297,300,295,2
299,291,298,295,2
298,290,297,296,2
299,295,299,299,2
300,305,302,301,2
302,318,307,302,2
304,326,311,301,2
304,328,313,300,2
305,323,314,298,2
305,318,314,298,2
306,313,312,299,2
306,312,311,299,2
306,312,310,298,2
304,311,312,298,2
303,312,311,296,2
302,313,307,295,2
301,316,302,294,2
301,321,298,294,2
301,326,296,295,2
301,331,298,298,2
301,334,301,303,2
300,336,304,308,2
300,334,306,313,2
300,325,307,317,2
302,310,308,320,2
304,296,307,321,2
308,289,306,321,2
312,289,305,321,2
314,293,306,323,2
315,298,307,326,2
314,302,309,330,2
312,304,310,335,2
311,303,312,336,2
310,301,312,333,2
307,301,312,327,2
305,303,311,320,2
303,304,309,314,2
302,306,307,308,2
301,307,306,306,2
300,310,310,306,2
301,313,317,306,2
301,313,327,306,2
303,307,334,304,2
304,297,338,302,2
306,285,337,300,2
307,275,331,299,2
308,272,322,300,2
309,280,311,303,2
309,296,304,308,2
308,313,299,313,2
306,326,297,318,2
304,331,297,322,2
302,332,298,321,2
301,330,299,317,2
299,327,300,311,2
299,324,301,305,2
301,322,302,299,2
303,319,302,292,2
303,317,303,287,2
302,317,303,282,2
300,318,302,280,2
298,317,301,280,2
297,314,301,281,2
297,306,301,282,2
298,296,301,285,2
301,287,302,288,2
303,282,304,291,2
305,283,306,295,2
307,290,309,300,2
307,301,310,305,2
306,312,311,310,2
305,321,312,312,2
303,327,312,311,2
303,334,311,308,2
302,342,310,304,2
301,347,308,299,2
300,347,307,295,2
299,342,309,292,2
299,332,313,290,2
300,316,317,290,2
301,298,321,292,2
303,285,323,294,2
304,280,322,296,2
304,278,317,297,2
304,276,310,299,2
304,274,305,301,2
305,273,301,306,2
306,274,299,313,2
308,279,297,319,2
309,284,298,323,2
310,290,299,324,2
310,297,300,320,2
308,303,301,314,2
306,308,301,306,2
304,309,301,299,2
303,310,302,295,2
303,314,301,293,2
304,325,301,293,2
304,337,301,294,2
305,348,302,296,2
305,357,303,298,2
306,360,305,298,2
307,355,308,298,2
310,341,310,299,2
311,323,309,300,2
311,306,305,304,2
311,294,302,309,2
311,288,301,313,2
311,287,303,316,2
312,289,307,318,2
312,294,311,318,2
312,299,314,317,2
311,304,313,314,2
309,308,309,311,2
307,309,307,308,2
307,309,305,305,2
307,306,304,301,2
308,303,303,298,2
309,299,301,296,2
309,294,299,293,2
309,291,298,291,2
309,289,296,288,2
310,285,294,286,2
311,281,293,286,2
312,280,294,287,2
311,282,298,290,2
311,286,303,294,2
311,290,307,300,2
312,298,310,305,2
312,308,310,311,2
312,316,310,317,2
312,323,310,322,2
311,326,311,327,2
310,327,312,332,2
310,327,313,337,2
309,328,313,343,2
309,332,313,348,2
310,336,312,350,2
311,338,313,349,2
312,335,316,346,2
313,329,322,341,2
313,319,329,335,2
313,306,333,327,2
313,294,333,318,2
313,285,330,309,2
312,283,324,301,2
312,284,316,296,2
311,287,309,293,2
310,292,305,291,2
311,302,302,290,2
311,312,300,289,2
312,317,297,288,2
313,317,296,287,2
313,315,295,288,2
313,310,295,290,2
311,304,296,292,2
307,297,297,292,2
303,290,297,292,2
300,282,298,291,2
299,278,301,290,2
300,279,304,291,2
301,280,309,291,2
303,278,314,293,2
305,278,319,295,2
307,281,321,298,2
307,290,318,301,2
308,303,311,304,2
308,320,305,307,2
308,338,304,310,2
309,352,305,313,2
309,362,310,314,2
307,361,313,314,2
305,350,313,312,2
304,337,310,308,2
303,328,307,305,2
303,322,306,303,2
304,319,305,301,2
303,316,304,300,2
302,312,303,300,2
302,308,303,300,2
303,304,302,300,2
305,300,302,298,2
307,295,302,297,2
308,292,302,297,2
309,293,302,300,2
310,299,302,305,2
311,309,302,312,2
312,320,303,319,2
313,330,305,325,2
313,333,309,329,2
313,331,313,331,2
314,325,315,330,2
313,320,313,326,2
313,319,308,320,2
314,317,307,313,2
315,313,309,303,2
316,303,316,294,2
316,289,321,288,2
316,272,323,286,2
314,257,322,288,2
311,253,316,294,2
307,261,308,301,2
305,272,300,308,2
304,285,296,316,2
304,295,294,324,2
304,303,296,330,2
305,305,298,333,2
306,305,301,332,2
308,304,304,328,2
309,302,305,322,2
309,301,306,315,2
309,302,305,309,2
309,305,303,303,2
309,310,302,297,2
308,313,303,293,2
307,313,304,291,2
306,309,306,293,2
305,303,307,296,2
305,295,309,301,2
306,285,310,306,2
307,274,312,311,2
307,271,313,314,2
307,279,313,316,2
306,293,312,315,2
305,306,311,315,2
306,317,309,314,2
308,324,309,315,2
310,328,310,316,2
313,327,311,317,2
314,326,314,317,2
314,324,318,317,2
314,323,322,316,2
313,322,322,312,2
310,321,318,305,2
307,322,312,299,2
305,323,306,293,2
304,323,303,289,2
303,321,303,288,2
303,319,303,288,2
304,318,303,288,2
303,317,303,289,2
303,317,302,289,2
302,315,300,290,2
302,311,299,291,2
302,305,299,292,2
303,302,300,295,2
305,304,302,299,2
306,313,304,304,2
307,323,305,307,2
307,332,307,310,2
308,335,309,313,2
310,329,310,314,2
310,317,312,314,2
309,303,314,313,2
308,293,315,311,2
307,287,315,307,2
305,284,315,302,2
303,289,315,298,2
302,298,313,297,2
301,305,308,297,2
300,309,304,299,2
300,307,303,301,2
301,302,302,303,2
301,293,302,304,2
303,285,301,305,2
304,280,300,306,2
305,277,299,306,2
307,280,299,305,2
308,284,299,303,2
309,291,301,300,2
309,297,302,297,2
309,301,304,294,2
308,302,304,292,2
307,300,305,291,2
305,296,305,292,2
304,292,305,293,2
304,292,305,295,2
304,298,304,299,2
303,311,302,303,2
302,325,301,308,2
301,334,302,313,2
302,334,306,315,2
302,328,310,315,2
301,317,311,314,2
301,302,310,310,2
301,289,307,308,2
303,285,308,307,2
307,290,312,307,2
310,297,318,308,2
311,304,326,309,2
310,309,333,312,2
309,313,337,313,2
308,315,336,314,2
306,317,330,312,2
303,318,322,310,2
301,320,314,308,2
299,320,309,306,2
298,320,307,304,2
299,321,305,302,2
300,323,304,299,2
302,326,303,297,2
303,328,301,294,2
303,326,301,292,2
304,318,300,294,2
304,303,300,299,2
305,286,299,308,2
308,274,300,318,2
310,269,302,327,2
312,270,304,331,2
312,278,306,331,2
310,288,308,328,2
309,298,309,322,2
307,306,310,316,2
306,313,310,310,2
305,316,311,306,2
305,315,312,306,2
305,312,314,309,2
305,309,316,314,2
305,306,318,320,2
305,304,316,324,2
306,300,314,330,2
306,295,313,333,2
307,288,313,335,2
308,286,313,333,2
309,289,313,329,2
309,293,312,324,2
310,294,311,318,2
311,294,309,312,2
313,296,306,306,2
313,302,302,302,2
313,305,298,301,2
312,308,297,299,2
310,311,298,299,2
307,314,301,298,2
306,319,304,298,2
306,323,308,297,2
308,323,309,295,2
309,317,307,295,2
309,310,303,296,2
308,305,299,300,2
307,306,298,305,2
306,309,298,310,2
305,311,299,313,2
305,311,300,315,2
305,310,301,314,2
307,308,303,312,2
309,307,304,310,2
310,307,304,308,2
310,307,302,306,2
309,308,302,304,2
308,310,304,303,2
307,312,307,301,2
305,314,312,299,2
304,314,315,297,2
304,312,316,295,2
303,309,315,293,2
303,306,311,290,2
304,305,303,287,2
305,305,296,284,2
306,305,290,280,2
306,306,287,279,2
308,305,287,281,2
310,301,288,285,2
311,294,289,292,2
310,292,289,299,2
310,293,292,306,2
309,291,297,310,2
309,288,303,312,2
310,288,307,312,2
311,289,308,311,2
312,292,308,311,2
312,294,307,312,2
312,295,306,312,2
311,296,305,313,2
311,298,304,313,2
310,300,303,313,2
310,303,302,313,2
310,305,303,314,2
310,307,304,314,2
310,307,304,315,2
309,306,305,316,2
309,303,305,316,2
309,299,305,315,2
310,299,305,312,2
311,300,306,310,2
312,301,306,309,2
313,303,305,310,2
314,304,304,312,2
314,308,303,313,2
315,313,301,313,2
314,317,301,314,2
313,319,301,316,2
312,318,302,321,2
311,315,303,328,2
309,311,304,336,2
308,311,305,341,2
307,314,307,342,2
306,317,308,338,2
305,319,308,331,2
304,320,308,323,2
305,319,306,316,2
306,315,306,311,2
308,311,305,307,2
310,306,305,307,2
312,300,305,309,2
312,295,305,312,2
314,290,306,314,2
315,286,307,312,2
316,285,308,310,2
316,287,310,308,2
315,294,312,307,2
313,300,314,306,2
309,307,316,306,2
306,312,317,306,2
303,313,318,306,2
301,310,316,304,2
299,306,312,301,2
298,304,307,298,2
297,305,303,296,2
296,307,301,294,2
296,307,303,291,2
297,306,306,288,2
299,304,310,286,2
301,303,314,286,2
303,302,317,288,2
306,303,319,292,2
308,304,320,297,2
309,305,319,300,2
310,306,314,302,2
309,307,309,301,2
308,308,304,300,2
307,310,302,298,2
307,312,302,297,2
307,313,302,297,2
306,316,302,298,2
305,319,299,299,2
304,320,298,299,2
303,320,300,299,2
302,317,306,299,2
301,312,315,299,2
301,306,322,299,2
301,299,325,299,2
301,293,323,300,2
302,288,316,300,2
302,288,307,300,2
303,294,298,301,2
304,303,293,303,2
305,311,291,306,2
306,314,292,308,2
307,313,294,309,2
307,311,297,309,2
307,311,299,308,2
305,310,301,307,2
304,310,302,307,2
303,309,303,308,2
301,308,304,310,2
301,306,304,311,2
300,307,305,313,2
301,310,306,316,2
302,314,308,318,2
302,317,309,318,2
302,318,308,315,2
302,319,305,310,2
302,322,302,304,2
303,325,300,301,2
304,325,299,302,2
305,322,300,306,2
306,317,302,312,2
308,313,304,318,2
308,309,307,322,2
308,306,310,324,2
306,305,312,323,2
304,304,314,321,2
303,305,316,318,2
302,308,317,314,2
302,313,317,310,2
301,318,313,305,2
300,321,308,300,2
300,319,304,295,2
300,313,300,290,2
300,303,298,286,2
301,289,297,284,2
301,277,297,284,2
302,271,298,286,2
302,272,298,289,2
302,278,299,295,2
304,286,300,301,2
306,293,302,308,2
308,303,305,315,2
309,314,309,322,2
309,322,312,330,2
308,326,316,334,2
306,327,317,337,2
305,325,318,336,2
304,323,317,336,2
303,321,315,333,2
302,317,310,328,2
302,313,305,321,2
302,309,302,314,2
303,305,301,308,2
304,304,302,303,2
304,301,305,299,2
304,297,309,295,2
305,289,312,294,2
305,280,315,293,2
306,272,317,294,2
307,268,314,296,2
308,270,311,298,2
308,274,308,300,2
309,279,308,300,2
309,283,307,301,2
307,286,306,300,2
306,288,305,299,2
304,291,305,296,2
302,298,308,294,2
300,306,312,291,2
299,316,316,290,2
300,325,317,289,2
301,329,317,289,2
301,328,313,289,2
302,325,306,289,2
303,320,299,289,2
304,316,295,290,2
306,317,292,291,2
306,320,291,292,2
305,323,293,295,2
303,323,298,298,2
302,322,306,303,2
303,318,312,307,2
305,311,315,311,2
307,304,316,315,2
308,297,315,317,2
308,296,312,318,2
308,297,307,316,2
307,297,303,314,2
306,297,300,311,2
306,298,298,310,2
306,303,297,310,2
305,310,297,309,2
305,318,297,306,2
304,326,298,302,2
303,333,298,298,2
303,336,298,295,2
303,335,298,291,2
304,325,299,288,2
305,310,301,288,2
307,291,304,289,2
309,274,306,294,2
309,266,308,299,2
307,268,309,305,2
305,278,308,310,2
305,292,307,314,2
305,304,306,315,2
304,314,305,315,2
304,319,305,313,2
303,322,304,310,2
302,325,304,306,2
302,327,304,304,2
303,326,305,301,2
304,321,305,300,2
305,312,305,300,2
306,304,306,301,2
307,300,306,303,2
309,299,306,304,2
310,301,306,306,2
312,304,308,309,2
313,307,309,312,2
314,305,311,317,2
315,298,314,324,2
315,291,317,330,2
314,284,320,334,2
313,282,323,335,2
312,287,323,332,2
310,296,322,326,2
307,303,319,317,2
305,308,314,308,2
305,310,311,302,2
306,313,309,298,2
308,318,309,297,2
309,324,311,299,2
309,328,312,301,2
309,333,313,303,2
308,337,314,304,2
307,336,313,302,2
306,330,311,299,2
306,317,309,295,2
307,303,307,291,2
308,293,308,290,2
308,289,309,291,2
308,290,312,293,2
307,293,314,293,2
306,296,315,294,2
305,300,315,293,2
304,306,314,292,2
304,311,313,292,2
304,311,311,291,2
304,308,311,291,2
305,302,311,292,2
305,299,313,295,2
306,300,314,302,2
306,304,316,312,2
306,311,316,324,2
305,317,316,334,2
304,323,313,341,2
304,328,310,342,2
305,332,306,338,2
305,337,303,332,2
306,343,302,324,2
307,347,303,316,2
308,345,305,309,2
308,337,308,303,2
308,329,312,298,2
306,323,313,295,2
304,317,310,294,2
301,310,304,294,2
299,303,299,295,2
299,294,296,297,2
300,285,296,298,2
300,278,297,297,2
300,277,297,296,2
300,283,298,294,2
301,296,298,290,2
301,310,297,287,2
302,320,297,285,2
304,325,297,285,2
305,322,297,286,2
306,315,298,289,2
307,306,299,291,2
308,296,301,293,2
308,285,303,295,2
308,276,305,296,2
309,268,308,295,2
309,261,314,293,2
309,257,322,292,2
309,258,330,294,2
309,267,336,299,2
309,283,336,304,2
308,297,330,307,2
306,307,319,308,2
305,313,308,307,2
304,313,299,305,2
305,311,294,302,2
306,310,291,300,2
307,313,289,299,2
308,315,288,301,2
309,318,289,304,2
311,319,289,309,2
312,320,290,315,2
313,319,291,322,2
314,317,294,329,2
315,317,297,336,2
315,318,301,341,2
314,324,304,342,2
312,331,305,339,2
310,335,306,334,2
309,335,306,327,2
307,333,307,319,2
307,329,308,312,2
306,323,309,307,2
306,317,310,302,2
305,313,312,301,2
304,313,313,302,2
304,313,312,304,2
305,313,309,305,2
305,312,305,306,2
307,312,302,307,2
308,311,300,307,2
309,309,300,309,2
309,306,300,312,2
310,304,301,316,2
309,304,302,319,2
309,306,302,321,2
307,311,302,321,2
306,317,303,319,2
304,322,303,316,2
303,325,303,311,2
302,323,303,305,2
302,317,303,299,2
301,307,302,294,2
302,299,302,290,2
302,295,302,288,2
302,294,302,287,2
301,292,301,287,2
302,288,300,288,2
302,285,300,289,2
303,283,301,291,2
305,281,303,293,2
307,281,305,294,2
310,278,308,297,2
312,274,310,299,2
312,271,312,300,2
312,271,312,303,2
311,279,311,308,2
311,296,308,316,2
310,316,306,324,2
309,330,305,329,2
308,337,304,331,2
307,336,305,330,2
307,331,306,327,2
306,322,309,322,2
306,307,312,316,2
305,295,315,311,2
303,293,317,306,2
302,300,319,303,2
303,310,320,301,2
306,318,320,301,2
308,324,317,302,2
310,328,312,303,2
310,330,306,304,2
310,330,303,302,2
311,329,302,300,2
312,327,302,297,2
312,325,303,294,2
312,324,303,291,2
313,324,302,290,2
313,324,301,290,2
313,324,301,292,2
312,324,302,295,2
312,325,304,297,2
310,326,306,301,2
309,324,306,304,2
308,318,306,307,2
308,309,306,307,2
308,298,305,305,2
307,287,302,301,2
307,277,300,299,2
307,268,299,298,2
308,263,299,299,2
310,264,301,302,2
311,269,304,306,2
311,279,308,308,2
311,292,311,309,2
310,304,312,306,2
308,313,311,303,2
306,317,309,302,2
304,319,308,302,2
302,318,309,304,2
300,314,313,305,2
299,310,316,307,2
300,308,316,307,2
302,309,314,306,2
304,313,310,305,2
306,320,306,304,2
307,328,303,303,2
308,334,302,304,2
309,334,301,308,2
310,327,302,313,2
311,318,303,317,2
312,309,305,319,2
312,301,307,319,2
310,294,309,316,2
307,290,310,314,2
305,290,310,313,2
303,294,310,313,2
303,300,310,312,2
301,307,309,310,2
300,310,308,308,2
298,311,308,305,2
298,309,308,301,2
297,302,307,297,2
298,295,307,295,2
300,291,309,295,2
302,292,310,297,2
303,296,311,298,2
304,299,311,300,2
304,302,310,302,2
305,306,308,305,2
307,311,306,307,2
308,317,305,308,2
310,322,306,309,2
312,323,310,311,2
315,322,314,313,2
315,317,318,316,2
312,311,318,318,2
309,310,314,320,2
306,313,308,321,2
304,318,304,322,2
304,325,304,323,2
306,332,305,324,2
307,338,308,325,2
309,343,311,327,2
310,345,313,327,2
311,344,315,327,2
311,340,316,326,2
311,332,316,326,2
311,319,316,330,2
311,305,317,336,2
311,292,317,343,2
312,283,318,348,2
312,276,317,348,2
312,274,314,344,2
310,273,311,336,2
309,275,308,326,2
307,275,305,317,2
305,276,301,308,2
304,276,299,300,2
305,279,296,293,2
305,284,295,286,2
305,289,294,279,2
304,296,293,274,2
303,305,292,272,2
303,314,291,271,2
303,320,289,273,2
303,325,289,276,2
304,329,292,280,2
305,331,296,282,2
305,330,300,284,2
305,320,302,285,2
305,302,302,287,2
305,283,304,291,2
307,273,306,296,2
308,273,308,302,2
307,281,309,306,2
305,291,309,308,2
302,302,308,309,2
300,310,309,309,2
298,316,310,310,2
298,321,313,311,2
298,323,314,312,2
299,322,315,312,2
300,320,314,312,2
299,317,310,313,2
298,312,305,313,2
297,307,301,312,2
299,306,298,312,2
302,310,298,312,2
304,317,299,310,2
306,323,302,308,2
308,327,304,305,2
309,328,306,303,2
309,325,308,301,2
308,323,309,301,2
306,322,309,300,2
304,320,309,300,2
304,316,309,301,2
304,308,310,301,2
304,294,312,301,2
304,277,314,303,2
305,267,318,306,2
306,270,321,310,2
306,283,322,314,2
307,298,320,318,2
308,309,315,319,2
308,312,309,315,2
307,307,302,309,2
306,297,298,303,2
306,284,296,299,2
306,272,297,299,2
307,267,300,301,2
307,271,303,305,2
307,282,305,309,2
306,296,307,313,2
305,308,307,315,2
304,316,307,316,2
303,321,305,316,2
302,325,305,317,2
301,330,306,319,2
301,333,307,320,2
300,334,308,321,2
300,332,309,321,2
300,329,308,321,2
301,325,308,320,2
301,320,306,316,2
303,316,303,310,2
304,312,301,303,2
305,309,299,298,2
306,307,297,294,2
306,307,297,294,2
308,309,299,297,2
309,311,302,304,2
310,313,306,313,2
311,315,309,322,2
312,317,311,330,2
311,315,312,337,2
310,309,312,342,2
310,302,312,349,2
310,297,310,355,2
310,292,309,357,2
310,288,307,354,2
310,293,307,347,2
311,308,310,337,2
311,324,313,323,2
312,335,316,308,2
312,340,320,294,2
313,339,323,283,2
313,331,326,274,2
314,315,325,272,2
313,293,320,274,2
313,274,312,279,2
311,264,305,284,2
309,263,300,289,2
305,272,298,293,2
303,285,298,297,2
302,297,299,300,2
301,307,299,299,2
301,315,298,296,2
301,320,298,292,2
302,323,297,288,2
302,322,297,286,2
303,320,298,286,2
304,317,301,288,2
305,314,304,289,2
305,312,306,292,2
304,311,308,295,2
304,312,306,299,2
305,312,304,303,2
305,311,302,306,2
306,306,301,309,2
307,301,302,312,2
307,297,302,313,2
307,296,303,314,2
305,294,304,314,2
304,292,305,314,2
304,291,306,313,2
305,291,306,311,2
305,290,306,309,2
305,291,306,309,2
305,295,307,310,2
305,300,310,313,2
305,305,312,316,2
305,310,315,317,2
305,314,318,318,2
306,317,318,319,2
306,317,314,321,2
307,316,308,325,2
309,312,301,329,2
310,309,298,332,2
312,304,298,334,2
312,301,299,332,2
312,300,300,326,2
311,301,300,317,2
310,302,300,307,2
307,300,299,299,2
305,299,299,295,2
302,299,298,294,2
301,303,298,297,2
301,309,298,302,2
301,317,298,305,2
301,322,299,308,2
302,323,300,311,2
302,323,301,313,2
303,321,301,315,2
304,319,301,315,2
305,320,301,315,2
305,321,302,314,2
306,321,304,312,2
307,320,307,309,2
308,318,311,308,2
309,315,313,306,2
310,310,315,306,2
311,305,316,309,2
312,299,315,313,2
313,292,314,319,2
313,286,312,324,2
311,284,311,328,2
310,285,311,331,2
308,285,312,334,2
306,283,312,336,2
304,284,312,336,2
303,289,312,332,2
300,292,312,326,2
299,293,308,318,2
298,291,304,308,2
299,287,301,300,2
302,281,299,296,2
305,277,300,296,2
307,276,301,300,2
308,277,301,306,2
308,279,300,312,2
308,281,298,315,2
308,286,298,318,2
307,295,301,320,2
306,307,304,319,2
306,317,308,317,2
306,324,312,313,2
306,328,313,309,2
305,329,311,304,2
304,328,307,300,2
303,327,303,297,2
302,324,301,297,2
302,322,299,295,2
302,319,299,293,2
302,314,298,290,2
302,309,298,288,2
303,304,298,287,2
304,298,300,288,2
306,292,302,288,2
308,286,303,288,2
311,282,306,288,2
313,282,311,289,2
316,284,318,292,2
318,286,327,298,2
318,286,334,307,2
319,288,337,317,2
317,299,335,326,2
313,317,324,332,2
308,329,311,336,2
304,331,300,336,2
300,326,295,332,2
298,318,294,325,2
298,312,294,316,2
297,308,295,309,2
297,305,296,305,2
297,303,296,304,2
297,301,296,303,2
299,298,297,303,2
301,296,297,302,2
302,295,299,301,2
304,295,300,301,2
305,296,302,301,2
306,297,304,300,2
306,299,306,301,2
305,301,307,302,2
304,302,307,305,2
304,304,308,307,2
304,306,308,309,2
303,309,309,312,2
304,310,310,314,2
305,312,311,317,2
307,312,313,319,2
308,312,315,319,2
309,313,315,318,2
310,312,315,313,2
309,310,313,306,2
308,307,310,298,2
306,305,306,292,2
306,302,302,289,2
306,301,300,289,2
308,303,300,292,2
309,306,301,296,2
310,312,303,300,2
310,318,304,303,2
309,322,304,305,2
308,321,303,306,2
306,314,304,307,2
305,301,306,308,2
305,291,308,310,2
306,285,310,312,2
305,287,313,316,2
305,296,315,320,2
305,307,316,323,2
305,313,314,322,2
305,313,311,320,2
305,307,308,315,2
305,296,305,312,2
306,283,303,309,2
307,272,302,305,2
308,270,302,301,2
309,277,302,297,2
309,289,303,294,2
308,301,304,293,2
307,311,304,293,2
305,317,304,297,2
305,322,304,302,2
305,324,303,307,2
304,324,303,310,2
304,323,303,311,2
304,321,303,310,2
304,318,303,306,2
303,314,304,302,2
303,311,304,297,2
302,308,305,293,2
303,307,305,291,2
304,305,305,292,2
305,304,305,295,2
307,303,305,301,2
309,302,307,307,2
310,302,308,314,2
311,304,309,319,2
311,305,310,324,2
311,308,310,327,2
311,311,311,326,2
310,314,310,322,2
309,317,310,317,2
308,322,310,313,2
308,329,309,311,2
307,337,309,310,2
307,345,307,309,2
306,347,304,307,2
305,340,301,305,2
305,324,299,302,2
305,300,298,298,2
305,274,297,295,2
306,251,298,291,2
307,241,301,288,2
309,244,305,284,2
311,251,311,281,2
312,254,319,280,2
313,253,328,282,2
315,255,334,287,2
314,263,335,292,2
311,279,333,297,2
307,296,327,301,2
304,310,320,305,2
302,319,315,307,2
300,324,310,307,2
299,325,305,307,2
300,324,303,307,2
300,323,300,305,2
301,322,299,303,2
301,320,298,301,2
301,319,298,302,2
301,317,297,303,2
301,316,297,305,2
301,313,297,308,2
301,312,298,311,2
301,312,299,317,2
301,313,300,323,2
303,315,302,330,2
305,317,303,333,2
307,318,303,333,2
309,318,302,330,2
310,319,301,326,2
311,318,301,321,2
311,318,301,314,2
310,317,300,307,2
308,315,298,301,2
306,314,296,295,2
304,311,294,290,2
303,308,295,286,2
302,304,296,283,2
302,298,297,280,2
302,289,298,277,2
302,281,299,275,2
303,275,298,274,2
305,271,299,276,2
308,271,300,282,2
310,274,303,290,2
310,283,307,300,2
309,297,310,310,2
308,312,313,320,2
307,322,315,330,2
306,329,317,338,2
306,333,318,344,2
306,336,318,348,2
306,338,317,349,2
306,339,316,346,2
307,338,316,340,2
309,336,316,331,2
310,329,315,322,2
311,320,312,313,2
310,312,307,305,2
310,304,302,301,2
309,298,298,300,2
308,294,297,305,2
307,293,298,312,2
307,296,302,319,2
308,300,306,326,2
310,304,312,328,2
312,307,317,328,2
314,310,321,324,2
315,313,323,318,2
314,317,324,309,2
312,323,324,299,2
309,333,321,289,2
307,343,317,280,2
305,349,312,273,2
303,347,307,270,2
302,339,303,270,2
301,327,301,270,2
300,308,301,271,2
300,287,306,273,2
301,270,310,275,2
302,263,309,276,2
303,264,304,278,2
304,269,300,281,2
305,276,299,286,2
307,287,301,293,2
308,299,303,302,2
308,311,303,310,2
307,321,302,318,2
305,325,302,322,2
303,322,303,324,2
301,316,304,323,2
300,308,307,321,2
300,300,311,318,2
300,295,316,315,2
301,289,318,313,2
303,283,318,311,2
304,281,316,310,2
304,283,311,309,2
304,287,305,306,2
303,291,299,304,2
302,295,296,304,2
302,300,295,307,2
303,307,295,311,2
304,312,297,314,2
305,312,298,314,2
307,308,299,313,2
308,303,301,310,2
309,300,302,307,2
310,304,303,304,2
311,315,304,303,2
311,326,305,302,2
310,335,306,304,2
309,340,306,306,2
309,338,306,309,2
308,326,308,311,2
307,313,311,311,2
306,304,316,312,2
305,302,319,312,2
304,305,321,312,2
302,310,320,312,2
301,314,315,312,2
299,315,310,313,2
300,315,304,315,2
302,316,302,317,2
303,317,300,318,2
304,319,300,319,2
304,320,300,318,2
304,322,300,315,2
304,327,301,311,2
304,334,302,307,2
303,341,302,304,2
303,345,302,302,2
303,345,303,302,2
301,337,304,305,2
301,326,304,309,2
300,310,305,313,2
300,295,307,316,2
301,285,309,319,2
303,281,311,322,2
304,281,312,322,2
306,283,312,321,2
307,288,312,318,2
308,293,314,315,2
308,294,320,311,2
309,291,332,307,2
310,288,343,305,2
309,287,346,304,2
309,288,340,302,2
308,291,330,302,2
305,297,316,301,2
303,305,304,301,2
301,314,296,301,2
300,318,292,302,2
299,319,292,307,2
299,321,294,315,2
299,321,296,322,2
299,320,298,326,2
301,317,299,326,2
302,311,299,321,2
304,303,299,314,2
306,293,299,307,2
308,282,299,301,2
310,273,300,297,2
310,270,300,295,2
309,271,300,293,2
307,275,300,293,2
305,284,300,293,2
303,297,302,294,2
302,309,303,295,2
302,315,306,296,2
302,313,309,297,2
303,307,311,298,2
303,303,312,301,2
304,308,312,306,2
305,319,312,313,2
304,330,312,319,2
304,338,313,325,2
305,341,313,330,2
304,339,312,332,2
304,334,308,331,2
305,329,305,327,2
306,321,302,320,2
307,313,300,312,2
308,303,299,305,2
308,296,299,304,2
309,290,301,306,2
309,288,303,310,2
309,290,306,315,2
309,293,309,319,2
309,297,310,321,2
308,300,311,321,2
306,304,310,321,2
304,310,309,321,2
301,317,306,319,2
301,325,304,314,2
301,331,302,308,2
302,335,301,302,2
303,337,301,298,2
303,337,301,294,2
303,332,300,292,2
302,322,299,291,2
302,305,298,292,2
302,287,298,294,2
303,274,299,297,2
303,268,300,301,2
303,270,302,304,2
304,277,304,306,2
303,286,305,307,2
303,295,305,308,2
302,301,306,309,2
300,304,306,309,2
300,304,305,308,2
299,302,305,306,2
299,298,305,304,2
299,292,304,301,2
299,288,303,301,2
299,287,304,302,2
300,291,306,305,2
301,297,309,309,2
301,302,315,313,2
301,305,322,317,2
301,306,327,322,2
302,307,329,325,2
303,306,326,328,2
304,306,320,330,2
305,306,313,330,2
305,305,306,330,2
305,307,301,329,2
304,312,298,326,2
304,319,297,323,2
303,328,297,318,2
303,337,297,314,2
302,342,297,309,2
302,342,299,305,2
303,337,300,300,2
303,327,301,297,2
304,314,302,293,2
303,301,302,291,2
303,294,302,290,2
303,293,299,291,2
302,293,297,291,2
302,291,296,292,2
303,287,297,292,2
304,282,298,292,2
307,278,301,295,2
309,276,305,299,2
312,275,310,305,2
313,278,316,310,2
314,285,319,313,2
313,293,320,316,2
313,299,319,315,2
313,303,314,313,2
312,307,308,310,2
310,310,302,306,2
309,314,297,302,2
307,320,294,298,2
307,327,291,295,2
306,332,289,294,2
305,334,289,295,2
305,332,289,297,2
305,327,291,300,2
306,320,293,302,2
308,311,296,304,2
309,302,299,306,2
311,292,302,309,2
312,284,305,311,2
313,281,307,313,2
314,284,308,314,2
315,294,309,315,2
316,306,308,314,2
315,316,308,313,2
313,322,306,311,2
311,322,305,310,2
309,318,304,310,2
307,312,303,309,2
305,307,303,307,2
305,305,303,306,2
303,309,303,305,2
302,314,303,304,2
302,316,302,303,2
302,314,302,302,2
304,309,302,303,2
306,303,302,306,2
308,296,302,313,2
309,295,304,320,2
309,300,304,327,2
309,312,305,331,2
308,320,306,333,2
307,325,306,332,2
307,325,306,329,2
306,322,306,325,2
306,317,306,320,2
304,314,304,316,2
303,315,303,312,2
303,318,302,309,2
301,320,301,305,2
299,320,301,304,2
299,319,302,307,2
299,316,303,313,2
299,312,304,320,2
300,307,306,325,2
301,303,307,327,2
303,299,308,324,2
306,298,309,320,2
307,297,309,314,2
309,298,309,307,2
310,299,308,301,2
310,301,308,296,2
310,300,311,292,2
309,297,314,291,2
308,293,315,291,2
307,288,314,292,2
306,286,311,296,2
304,285,309,301,2
303,285,309,307,2
303,286,309,313,2
303,290,312,318,2
304,296,316,320,2
304,300,320,320,2
304,302,322,319,2
304,304,323,316,2
305,310,321,312,2
307,315,317,308,2
308,319,313,303,2
310,320,309,298,2
311,319,308,293,2
311,316,307,289,2
311,311,304,288,2
312,307,301,287,2
312,304,298,287,2
312,300,294,286,2
311,296,291,285,2
311,293,291,285,2
310,293,291,287,2
310,297,293,292,2
310,304,296,298,2
308,315,297,302,2
306,325,297,303,2
304,332,297,302,2
303,334,296,300,2
303,331,296,299,2
304,325,297,298,2
306,316,297,298,2
308,308,298,300,2
309,302,299,302,2
309,297,301,306,2
309,291,303,311,2
309,285,307,317,2
308,282,310,322,2
307,285,312,323,2
306,291,312,322,2
305,298,312,321,2
305,303,310,320,2
305,308,308,318,2
305,309,306,317,2
306,305,305,315,2
308,298,304,313,2
309,293,303,311,2
309,293,303,307,2
309,294,302,305,2
308,300,302,305,2
308,308,303,309,2
308,316,305,313,2
309,319,308,314,2
310,320,310,313,2
310,318,312,311,2
310,314,311,308,2
310,311,309,305,2
310,310,305,302,2
310,309,302,299,2
309,306,300,298,2
307,304,299,299,2
306,302,298,300,2
304,302,297,300,2
302,305,297,300,2
300,307,297,300,2
301,309,297,299,2
302,308,297,298,2
304,307,297,296,2
306,304,298,295,2
307,301,298,294,2
309,299,298,295,2
311,299,298,297,2
313,301,299,300,2
314,303,301,303,2
316,306,303,307,2
317,308,306,311,2
318,308,308,314,2
319,305,309,315,2
318,301,308,313,2
317,295,305,311,2
315,290,303,309,2
314,291,301,308,2
314,299,300,307,2
312,310,300,308,2
311,318,300,310,2
309,324,301,313,2
309,326,304,316,2
309,325,309,316,2
309,322,312,316,2
309,317,311,316,2
308,312,308,319,2
308,306,306,326,2
309,301,307,333,2
311,298,310,339,2
312,297,315,343,2
313,298,321,341,2
314,300,324,336,2
314,304,326,328,2
314,308,324,320,2
313,311,319,312,2
312,314,313,303,2
311,318,308,295,2
310,322,303,288,2
309,321,301,284,2
307,317,300,283,2
305,313,300,284,2
305,308,301,287,2
306,302,302,289,2
306,296,304,290,2
306,286,304,292,2
307,275,304,294,2
308,267,304,295,2
309,263,303,299,2
311,265,303,302,2
311,270,304,306,2
311,278,306,308,2
310,287,308,309,2
309,291,310,308,2
308,295,313,305,2
308,301,316,303,2
309,309,319,302,2
308,316,319,301,2
308,321,316,301,2
307,325,310,299,2
306,329,302,298,2
306,332,296,296,2
305,332,292,294,2
304,329,291,293,2
304,324,291,293,2
304,314,293,293,2
305,301,296,294,2
305,287,300,295,2
305,274,303,297,2
306,265,305,299,2
307,263,307,303,2
307,269,307,307,2
306,278,306,311,2
304,289,304,315,2
304,297,303,318,2
303,302,303,321,2
303,304,303,324,2
301,305,305,328,2
300,307,306,332,2
299,315,307,335,2
299,326,308,336,2
299,333,307,334,2
299,336,306,331,2
299,339,302,327,2
300,340,299,323,2
300,338,296,319,2
300,331,295,317,2
301,321,294,314,2
302,308,294,310,2
305,294,295,308,2
307,284,297,308,2
309,281,299,309,2
310,286,301,310,2
311,293,303,310,2
310,299,304,308,2
308,303,304,304,2
306,302,302,298,2
304,298,300,292,2
302,293,298,287,2
302,288,296,284,2
302,287,294,283,2
302,290,294,285,2
302,297,294,288,2
301,304,294,292,2
300,311,293,295,2
299,318,293,296,2
299,324,294,297,2
299,326,296,298,2
300,324,301,299,2
300,319,305,300,2
300,316,308,301,2
301,317,309,303,2
302,319,309,307,2
304,322,310,310,2
304,324,311,313,2
304,325,313,315,2
304,323,315,316,2
303,318,315,317,2
302,312,313,317,2
301,306,309,317,2
302,303,308,316,2
302,304,309,317,2
303,307,313,318,2
303,311,318,320,2
304,315,319,320,2
304,315,318,320,2
305,313,314,321,2
305,309,308,320,2
305,306,301,319,2
306,303,297,318,2
306,298,295,314,2
305,291,297,312,2
304,285,299,310,2
302,284,301,309,2
301,290,302,309,2
300,300,302,309,2
299,310,302,308,2
299,318,301,306,2
298,324,301,304,2
297,327,300,304,2
297,326,300,307,2
296,320,300,313,2
296,313,301,318,2
298,309,302,321,2
299,308,304,322,2
301,306,305,320,2
302,303,305,317,2
303,303,305,313,2
305,306,306,311,2
307,310,307,309,2
309,313,309,309,2
311,315,311,308,2
311,317,311,307,2
310,318,311,303,2
309,318,311,297,2
307,318,313,292,2
306,318,313,288,2
304,318,313,284,2
303,317,310,282,2
303,316,304,280,2
303,315,300,280,2
303,313,297,280,2
304,312,297,283,2
305,311,298,288,2
306,308,301,295,2
306,307,303,300,2
306,304,305,305,2
305,298,305,307,2
304,291,303,308,2
304,285,301,308,2
306,279,301,309,2
309,275,303,313,2
312,274,306,317,2
314,283,309,321,2
313,300,311,324,2
311,317,311,326,2
309,331,312,329,2
307,340,314,330,2
305,346,316,331,2
304,348,318,331,2
304,346,319,327,2
303,341,319,320,2
302,334,317,311,2
302,327,311,303,2
302,320,306,297,2
304,313,302,292,2
305,307,300,288,2
306,303,298,286,2
307,302,298,284,2
308,303,299,284,2
308,303,299,286,2
309,305,301,290,2
309,307,304,296,2
309,309,309,300,2
308,310,314,303,2
307,309,317,303,2
305,310,318,302,2
304,315,318,301,2
304,323,318,300,2
303,334,321,301,2
303,342,322,301,2
302,343,320,300,2
301,337,317,296,2
300,326,312,291,2
299,312,306,287,2
299,298,299,284,2
301,287,294,284,2
303,281,293,286,2
305,278,294,289,2
306,278,296,293,2
307,279,300,295,2
308,282,304,297,2
308,284,308,298,2
308,287,310,300,2
307,290,312,301,2
304,292,311,303,2
302,297,308,305,2
301,301,305,307,2
300,306,303,308,2
301,310,302,309,2
301,314,302,309,2
302,316,301,308,2
302,318,301,306,2
302,320,302,305,2
302,322,302,304,2
303,322,301,304,2
304,320,301,304,2
304,315,301,304,2
306,310,301,304,2
307,304,302,304,2
309,297,303,302,2
310,292,304,302,2
311,291,305,302,2
310,294,307,303,2
309,299,308,305,2
307,303,309,307,2
307,307,309,308,2
306,311,309,307,2
305,314,308,306,2
304,315,307,305,2
304,316,307,305,2
304,317,307,306,2
303,319,306,310,2
303,321,306,315,2
302,322,307,321,2
301,323,307,326,2
301,323,307,330,2
302,322,307,331,2
302,320,307,331,2
303,318,307,331,2
305,318,308,330,2
307,319,310,326,2
309,320,311,320,2
310,320,312,314,2
311,319,312,308,2
310,318,312,304,2
309,316,311,300,2
308,310,310,297,2
308,304,309,294,2
308,298,308,292,2
308,294,307,291,2
308,292,306,292,2
307,292,305,295,2
305,294,305,299,2
304,298,304,304,2
304,303,304,310,2
304,307,303,315,2
305,310,303,321,2
307,311,304,326,2
310,311,305,330,2
311,312,307,331,2
311,314,308,330,2
311,317,309,326,2
310,320,309,321,2
308,320,309,316,2
306,316,310,310,2
305,309,311,307,2
305,303,311,304,2
306,298,312,304,2
307,297,314,303,2
309,299,316,303,2
311,305,316,302,2
313,313,316,301,2
313,322,314,300,2
311,328,311,299,2
308,330,307,298,2
305,324,303,297,2
303,309,300,296,2
302,288,298,295,2
302,273,299,295,2
302,271,300,296,2
302,282,302,299,2
303,299,304,302,2
302,314,306,306,2
301,323,308,310,2
299,323,309,314,2
298,318,311,318,2
299,311,312,323,2
301,305,313,326,2
303,301,313,326,2
304,301,312,324,2
306,305,311,321,2
307,311,309,318,2
308,310,308,312,2
309,306,307,306,2
308,304,308,299,2
307,303,308,293,2
307,300,308,288,2
308,294,307,284,2
310,285,306,280,2
311,275,303,278,2
312,264,300,279,2
312,254,299,282,2
313,249,302,288,2
311,254,307,293,2
309,268,312,297,2
306,286,315,299,2
304,301,316,299,2
302,310,314,298,2
300,314,311,296,2
299,315,307,295,2
299,315,304,295,2
299,314,303,297,2
300,313,303,299,2
300,311,304,302,2
301,309,305,304,2
303,306,305,307,2
304,302,305,310,2
306,298,306,313,2
308,294,306,314,2
310,290,307,316,2
312,286,308,318,2
312,284,310,321,2
312,287,312,324,2
312,295,314,328,2
311,304,315,328,2
310,314,315,327,2
309,324,314,327,2
309,332,313,326,2
308,337,311,325,2
307,338,309,322,2
307,335,307,317,2
308,331,305,312,2
309,327,304,306,2
309,324,303,301,2
308,321,302,298,2
308,315,303,297,2
308,308,304,296,2
309,299,305,296,2
309,291,306,295,2
309,286,307,296,2
310,290,309,298,2
311,303,309,301,2
313,319,309,304,2
314,330,308,306,2
312,333,308,307,2
309,328,307,308,2
306,318,308,311,2
304,307,308,315,2
303,294,308,320,2
302,283,308,326,2
302,272,309,333,2
301,265,310,338,2
301,262,311,342,2
302,264,310,343,2
303,270,309,341,2
304,281,308,337,2
304,293,307,331,2
303,305,307,322,2
303,313,308,313,2
303,319,309,304,2
304,323,310,299,2
304,325,311,295,2
304,326,312,293,2
304,325,311,291,2
304,324,308,291,2
304,321,305,291,2
303,320,304,293,2
302,322,303,296,2
301,325,303,298,2
301,327,303,299,2
300,326,304,299,2
300,322,305,300,2
300,318,304,301,2
300,314,302,301,2
301,308,299,300,2
301,303,298,299,2
301,299,297,297,2
302,296,296,295,2
302,294,296,295,2
303,292,295,294,2
304,292,294,295,2
305,293,294,295,2
306,294,295,295,2
306,296,298,293,2
305,296,303,291,2
304,294,308,289,2
302,293,310,289,2
301,295,308,290,2
300,301,305,292,2
299,308,302,295,2
299,312,301,299,2
299,311,300,305,2
299,311,302,310,2
297,312,304,314,2
296,314,309,317,2
296,315,316,319,2
298,313,324,321,2
300,308,331,324,2
301,302,332,326,2
302,299,328,330,2
303,300,319,334,2
303,304,309,338,2
303,310,301,340,2
303,314,297,341,2
303,317,296,339,2
304,317,297,335,2
304,314,298,329,2
304,307,298,322,2
303,298,298,315,2
303,290,298,310,2
302,286,299,306,2
302,287,300,304,2
302,293,301,304,2
303,304,301,304,2
304,316,302,304,2
305,324,303,304,2
306,330,304,307,2
306,333,304,312,2
305,331,304,318,2
305,328,306,324,2
305,324,309,329,2
305,320,312,333,2
305,317,315,334,2
304,313,317,333,2
303,310,315,331,2
301,305,309,327,2
299,297,302,322,2
298,290,297,316,2
297,290,293,311,2
297,299,291,306,2
297,310,291,302,2
297,318,291,300,2
297,322,293,299,2
298,322,294,299,2
299,318,294,298,2
300,313,294,296,2
301,309,293,294,2
300,307,292,292,2
300,306,292,292,2
301,308,295,292,2
303,313,299,293,2
306,317,303,295,2
308,321,305,297,2
308,324,305,300,2
307,326,303,302,2
306,327,303,305,2
305,325,303,307,2
305,322,303,309,2
304,320,304,311,2
304,318,304,311,2
304,317,303,310,2
304,316,302,307,2
304,315,302,303,2
305,314,303,299,2
305,305,305,295,2
306,291,310,293,2
307,275,317,294,2
309,262,323,297,2
311,259,327,301,2
312,268,328,307,2
312,285,325,313,2
311,304,320,317,2
309,320,312,320,2
307,333,302,321,2
305,341,294,321,2
304,342,289,320,2
302,340,287,318,2
301,337,285,316,2
298,333,285,315,2
297,329,286,316,2
297,323,289,320,2
298,317,293,327,2
299,314,298,332,2
300,310,301,335,2
301,304,303,334,2
301,297,304,332,2
302,290,304,329,2
305,284,305,328,2
307,279,308,327,2
309,274,310,325,2
310,272,312,324,2
310,275,312,323,2
309,283,310,323,2
309,295,307,323,2
309,309,304,323,2
308,320,302,321,2
307,327,300,316,2
305,331,299,308,2
302,331,299,300,2
300,330,299,296,2
300,328,299,294,2
301,325,299,294,2
302,322,300,294,2
303,319,299,295,2
303,312,300,296,2
304,302,300,296,2
305,295,302,297,2
306,290,304,298,2
307,286,306,297,2
308,283,308,299,2
308,284,310,302,2
307,288,312,307,2
307,297,313,314,2
308,307,314,319,2
308,315,315,323,2
308,318,314,323,2
309,319,313,319,2
309,317,311,314,2
309,315,309,308,2
309,316,310,303,2
308,319,313,299,2
307,323,318,297,2
306,326,322,300,2
305,326,323,305,2
306,325,322,310,2
306,322,317,312,2
307,318,310,311,2
309,313,304,308,2
312,309,301,306,2
314,304,301,305,2
317,298,302,305,2
320,295,305,305,2
322,296,308,305,2
323,300,309,302,2
323,303,310,299,2
322,306,313,298,2
317,311,319,298,2
309,317,324,300,2
302,319,328,305,2
299,320,330,310,2
298,320,327,316,2
298,321,319,319,2
300,322,311,321,2
301,322,304,321,2
302,318,299,320,2
303,312,297,319,2
304,307,298,317,2
306,303,300,314,2
308,300,303,312,2
311,298,306,311,2
313,295,309,311,2
315,293,311,313,2
314,291,313,316,2
312,291,314,316,2
309,291,315,314,2
306,295,319,310,2
305,300,324,303,2
304,305,326,296,2
303,310,323,290,2
302,313,316,287,2
301,312,309,286,2
300,307,301,288,2
299,304,296,292,2
299,306,292,296,2
300,309,291,301,2
302,312,292,305,2
303,312,294,309,2
304,312,296,313,2
306,312,299,318,2
308,313,302,320,2
310,313,304,319,2
312,312,306,316,2
312,311,308,312,2
312,310,309,310,2
311,311,311,308,2
309,313,313,307,2
307,316,313,305,2
305,317,314,304,2
304,318,313,303,2
303,320,312,302,2
303,322,310,302,2
302,321,308,302,2
303,322,308,301,2
304,323,311,299,2
306,323,314,296,2
309,321,316,294,2
312,318,316,294,2
315,317,315,294,2
315,316,311,294,2
313,315,306,293,2
310,315,304,293,2
308,314,304,293,2
306,312,305,294,2
306,311,306,296,2
305,311,306,300,2
305,311,306,303,2
305,309,305,307,2
305,306,304,313,2
305,303,304,320,2
305,302,304,327,2
305,302,304,332,2
305,302,304,336,2
306,304,304,338,2
306,308,304,338,2
307,311,303,334,2
309,310,303,326,2
311,306,302,315,2
313,298,302,306,2
313,290,302,302,2
313,282,303,301,2
313,277,303,303,2
312,279,304,305,2
310,287,305,307,2
308,299,307,308,2
306,311,308,305,2
303,316,308,300,2
301,311,307,296,2
299,303,305,294,2
297,300,304,294,2
296,302,303,295,2
297,306,304,300,2
298,310,305,307,2
300,313,307,316,2
302,316,308,321,2
304,319,308,324,2
305,321,306,326,2
305,322,303,325,2
305,321,302,321,2
306,319,304,316,2
307,316,309,308,2
308,312,312,301,2
308,308,312,292,2
307,305,307,285,2
305,306,303,280,2
304,309,298,276,2
304,312,294,274,2
303,314,293,275,2
302,318,292,278,2
301,320,292,282,2
302,315,292,285,2
302,302,292,287,2
304,284,293,287,2
305,268,294,286,2
306,254,295,287,2
308,244,297,290,2
310,243,300,294,2
311,252,304,298,2
311,269,308,302,2
311,287,310,306,2
311,300,312,312,2
312,308,311,317,2
312,313,310,321,2
313,314,309,325,2
311,315,310,326,2
307,318,314,324,2
303,320,318,320,2
299,322,320,316,2
298,323,320,314,2
297,324,317,313,2
296,324,311,312,2
295,324,305,310,2
295,322,300,307,2
295,319,298,304,2
296,316,296,301,2
298,313,295,299,2
300,310,296,299,2
303,310,297,302,2
306,313,300,307,2
308,316,301,311,2
310,321,302,317,2
311,325,304,321,2
311,326,306,323,2
309,323,307,323,2
307,317,307,321,2
304,310,307,317,2
301,303,307,314,2
303,300,308,311,2
307,304,310,309,2
312,310,310,305,2
313,316,310,300,2
310,319,309,296,2
307,318,308,293,2
303,313,307,292,2
299,308,307,293,2
297,304,308,296,2
297,298,308,300,2
299,292,308,305,2
305,288,308,311,2
311,289,308,315,2
316,293,308,318,2
320,297,308,318,2
319,301,307,317,2
316,304,307,317,2
311,308,306,316,2
308,310,306,314,2
305,312,307,310,2
305,313,309,305,2
305,316,311,301,2
307,319,312,299,2
309,322,311,299,2
312,323,309,303,2
315,322,307,308,2
315,321,307,314,2
311,319,308,318,2
304,316,308,318,2
300,311,307,317,2
299,304,306,316,2
299,297,306,316,2
301,289,304,314,2
303,281,304,313,2
304,278,304,310,2
304,278,306,307,2
305,281,308,304,2
305,290,311,303,2
305,304,314,302,2
304,316,314,303,2
303,320,311,303,2
302,314,305,301,2
302,306,301,299,2
301,299,298,294,2
300,292,297,288,2
298,286,298,282,2
297,282,299,280,2
297,279,302,283,2
297,279,304,289,2
298,283,306,297,2
298,292,306,304,2
299,304,305,310,2
299,317,303,313,2
299,327,301,314,2
299,334,300,314,2
301,340,300,313,2
302,343,301,312,2
303,342,302,310,2
304,338,302,308,2
304,336,301,307,2
304,335,301,306,2
304,335,300,304,2
303,336,300,301,2
302,337,300,299,2
301,334,301,297,2
301,326,301,298,2
302,314,302,299,2
303,302,302,300,2
303,295,302,301,2
304,291,301,301,2
305,289,302,302,2
307,285,303,303,2
307,281,305,305,2
308,276,307,309,2
309,272,310,315,2
309,269,315,320,2
309,268,321,325,2
307,271,329,327,2
305,274,335,327,2
305,277,336,324,2
305,279,334,320,2
304,280,326,316,2
303,283,313,311,2
301,291,301,306,2
300,300,294,303,2
299,309,289,301,2
299,315,287,299,2
299,317,287,297,2
301,316,287,295,2
302,312,288,294,2
305,307,290,295,2
307,302,291,296,2
309,298,292,298,2
310,294,294,302,2
310,293,296,307,2
310,292,299,314,2
310,293,301,320,2
309,296,303,324,2
309,302,305,328,2
308,312,306,329,2
307,321,307,331,2
306,326,308,330,2
306,326,308,327,2
305,324,308,321,2
304,321,308,314,2
304,316,308,308,2
304,312,309,305,2
305,310,311,301,2
305,310,313,295,2
305,311,313,288,2
305,312,311,284,2
305,313,308,283,2
307,314,303,285,2
308,315,299,288,2
307,313,297,292,2
306,309,296,296,2
306,307,297,300,2
307,308,299,302,2
308,310,304,302,2
309,313,309,301,2
310,319,312,300,2
311,327,312,300,2
314,336,308,300,2
316,341,305,302,2
316,342,303,302,2
313,338,304,302,2
307,330,307,302,2
304,318,312,302,2
302,302,317,302,2
303,285,322,304,2
305,271,327,306,2
307,262,329,310,2
308,258,329,315,2
310,259,330,321,2
311,263,329,326,2
312,272,325,329,2
312,282,319,330,2
310,291,311,328,2
306,295,304,323,2
301,295,300,318,2
297,291,297,313,2
295,289,296,309,2
296,289,296,306,2
300,293,297,306,2
303,299,297,308,2
305,306,298,313,2
305,315,299,318,2
305,321,300,321,2
305,324,300,322,2
305,324,300,320,2
304,323,299,317,2
304,322,298,313,2
305,320,298,308,2
306,317,298,304,2
307,317,298,302,2
309,321,298,301,2
309,323,299,300,2
309,322,300,300,2
308,319,302,299,2
306,314,304,300,2
305,309,305,301,2
303,309,306,304,2
303,311,307,305,2
303,314,307,306,2
303,318,307,306,2
303,321,308,310,2
304,322,308,315,2
304,320,308,320,2
304,318,308,325,2
305,315,306,327,2
307,312,304,327,2
311,309,302,324,2
312,306,301,319,2
313,303,301,314,2
313,300,302,309,2
313,296,305,304,2
313,289,308,301,2
313,283,311,296,2
311,277,313,292,2
310,272,313,289,2
309,272,313,287,2
309,275,311,286,2
308,280,309,287,2
307,286,307,289,2
305,293,304,293,2
303,300,302,296,2
302,305,300,301,2
301,310,299,305,2
302,313,298,310,2
303,313,298,314,2
303,313,298,318,2
304,311,299,321,2
305,310,301,323,2
306,310,302,324,2
308,311,304,323,2
309,313,307,322,2
310,316,309,323,2
311,319,310,325,2
312,320,310,326,2
312,318,309,325,2
310,311,309,322,2
310,303,310,318,2
309,294,314,313,2
308,288,320,306,2
306,283,325,299,2
304,280,329,293,2
304,282,330,290,2
304,290,329,291,2
304,297,321,293,2
305,300,309,295,2
306,301,299,296,2
307,299,292,297,2
308,296,291,298,2
309,295,294,299,2
310,296,299,300,2
312,300,302,299,2
313,303,305,299,2
314,308,305,299,2
316,313,302,299,2
317,316,297,298,2
317,315,293,298,2
315,313,290,296,2
310,314,289,294,2
304,320,289,292,2
300,325,292,290,2
297,327,295,289,2
297,323,298,290,2
299,317,301,290,2
303,311,303,290,2
307,305,304,290,2
307,302,304,291,2
304,303,303,293,2
301,308,303,297,2
300,314,303,304,2
300,318,303,314,2
301,318,304,323,2
302,315,305,329,2
303,307,306,333,2
304,301,307,334,2
305,297,308,332,2
305,298,308,328,2
305,301,308,324,2
305,303,308,319,2
304,305,308,314,2
304,307,308,310,2
303,308,308,307,2
303,307,307,304,2
303,306,306,302,2
304,304,305,302,2
305,302,305,302,2
306,300,304,303,2
307,299,304,303,2
308,297,304,302,2
309,297,305,298,2
309,296,306,294,2
308,297,307,291,2
308,299,309,292,2
306,302,310,295,2
304,305,311,297,2
303,306,311,298,2
301,305,310,297,2
301,302,309,296,2
301,299,309,293,2
302,296,309,289,2
303,295,309,287,2
305,297,308,287,2
305,303,308,289,2
304,308,307,293,2
304,311,306,300,2
304,313,306,307,2
305,314,306,315,2
306,314,307,321,2
307,314,309,327,2
309,315,311,329,2
310,316,313,330,2
310,317,314,328,2
310,317,314,327,2
310,317,314,325,2
309,317,313,321,2
308,315,312,317,2
306,313,311,311,2
305,311,311,308,2
304,310,311,307,2
303,311,311,307,2
303,313,311,308,2
303,315,310,310,2
303,314,309,310,2
303,310,308,309,2
304,305,306,306,2
304,298,304,305,2
304,292,303,303,2
304,291,302,302,2
306,296,302,299,2
307,300,302,298,2
309,299,303,297,2
308,294,305,296,2
308,287,308,295,2
307,280,311,293,2
307,272,314,292,2
306,270,316,291,2
305,277,316,293,2
303,290,315,295,2
302,307,310,297,2
301,323,305,299,2
300,337,301,300,2
300,346,299,301,2
300,351,298,301,2
301,351,298,301,2
301,348,298,301,2
302,342,298,302,2
303,334,300,305,2
305,326,303,310,2
307,317,305,314,2
308,306,307,317,2
309,296,308,319,2
310,291,310,321,2
310,290,313,323,2
309,292,314,324,2
307,294,314,324,2
306,296,313,322,2
305,298,312,318,2
303,299,313,312,2
301,301,315,305,2
300,300,320,300,2
300,297,325,296,2
301,289,327,294,2
303,279,327,294,2
303,270,324,295,2
303,269,317,297,2
303,275,308,300,2
303,283,302,308,2
303,291,298,318,2
303,299,297,328,2
304,308,299,336,2
305,315,301,340,2
306,322,303,341,2
307,326,304,338,2
308,327,305,334,2
308,326,305,328,2
307,323,305,324,2
305,317,304,321,2
303,310,304,318,2
302,300,303,315,2
302,294,302,312,2
302,292,302,308,2
302,293,301,304,2
303,294,300,300,2
303,295,300,296,2
304,296,299,295,2
304,296,298,294,2
304,297,297,295,2
303,301,296,297,2
303,306,295,299,2
302,310,296,303,2
302,312,300,307,2
304,311,306,312,2
304,309,314,316,2
304,307,321,321,2
304,307,328,326,2
304,307,331,331,2
304,307,330,336,2
304,308,324,342,2
304,309,317,346,2
303,309,312,347,2
301,309,310,346,2
300,308,307,341,2
300,305,305,335,2
300,301,304,328,2
301,296,302,320,2
301,290,300,312,2
302,287,300,305,2
302,286,300,301,2
303,290,301,298,2
305,296,303,295,2
308,303,304,290,2
312,312,304,286,2
315,319,303,283,2
317,324,301,282,2
317,324,298,282,2
313,320,296,284,2
307,314,295,286,2
302,312,297,288,2
299,310,301,289,2
298,307,304,290,2
298,301,305,290,2
299,294,304,289,2
299,288,302,288,2
300,285,301,288,2
301,288,300,290,2
302,292,300,291,2
303,296,299,293,2
304,296,300,295,2
306,294,300,298,2
307,289,301,300,2
309,284,302,303,2
310,277,303,306,2
311,271,305,308,2
310,273,307,310,2
310,284,308,311,2
308,300,309,311,2
307,315,307,309,2
306,324,306,308,2
306,327,304,308,2
306,328,303,310,2
306,325,302,312,2
307,320,302,314,2
307,313,302,313,2
309,305,301,311,2
310,295,302,306,2
310,285,302,300,2
310,279,303,295,2
308,282,304,294,2
307,289,305,295,2
307,298,306,298,2
307,305,307,301,2
307,309,307,305,2
307,311,305,309,2
307,313,304,315,2
308,317,304,321,2
308,320,304,325,2
308,321,304,326,2
309,321,305,323,2
309,320,307,316,2
309,316,312,310,2
308,311,316,305,2
308,309,319,303,2
308,309,321,303,2
308,310,320,304,2
308,310,316,305,2
307,308,309,305,2
307,306,304,305,2
308,302,298,304,2
310,298,294,303,2
311,294,292,303,2
312,292,292,303,2
313,293,294,305,2
314,298,298,307,2
315,302,302,307,2
313,306,305,305,2
310,308,306,301,2
307,308,307,298,2
305,307,307,295,2
305,305,306,293,2
305,303,306,292,2
306,301,306,292,2
306,300,306,292,2
307,301,308,294,2
308,305,308,296,2
308,311,309,298,2
309,316,309,302,2
309,320,310,306,2
309,323,312,310,2
310,325,314,314,2
309,324,317,318,2
308,320,316,321,2
308,313,315,323,2
309,302,312,324,2
311,290,311,324,2
312,278,309,322,2
312,268,310,319,2
312,266,310,314,2
312,271,311,309,2
311,277,311,305,2
309,283,310,305,2
306,288,311,309,2
303,296,310,314,2
303,303,309,320,2
304,308,307,322,2
305,310,306,321,2
306,309,305,317,2
307,309,305,312,2
307,308,304,305,2
307,309,304,298,2
306,309,302,292,2
305,311,301,288,2
306,311,300,287,2
306,310,300,286,2
307,307,302,285,2
307,305,304,283,2
306,304,307,283,2
306,305,309,284,2
305,305,309,285,2
305,303,308,287,2
304,300,306,289,2
305,297,306,292,2
306,293,308,294,2
307,291,312,297,2
308,293,316,300,2
309,297,319,303,2
310,301,318,306,2
311,304,316,309,2
311,306,310,311,2
311,309,303,313,2
311,310,297,313,2
310,309,294,311,2
310,310,294,307,2
310,315,294,304,2
309,324,295,300,2
308,331,295,298,2
308,332,297,295,2
306,328,298,294,2
307,320,300,297,2
310,309,303,302,2
313,299,306,306,2
312,296,312,308,2
311,300,318,309,2
309,306,323,308,2
308,311,325,306,2
308,313,324,305,2
308,314,321,304,2
307,313,317,306,2
304,310,311,310,2
302,306,304,315,2
301,303,300,318,2
302,299,300,319,2
304,298,301,316,2
305,298,303,313,2
306,302,304,310,2
308,309,305,307,2
308,314,305,306,2
308,318,306,306,2
307,321,307,307,2
306,323,307,309,2
305,322,307,311,2
305,321,308,313,2
305,319,308,315,2
305,318,308,315,2
305,317,308,314,2
305,314,306,311,2
306,310,305,306,2
308,303,303,302,2
309,296,302,298,2
310,294,302,295,2
310,300,301,291,2
311,315,300,287,2
310,334,299,282,2
309,350,300,278,2
308,355,304,274,2
307,346,308,272,2
306,327,312,273,2
306,306,316,276,2
307,290,319,281,2
306,280,319,287,2
305,274,315,293,2
303,273,311,299,2
302,276,311,304,2
300,282,311,307,2
299,288,312,307,2
298,291,310,306,2
298,294,306,304,2
299,295,302,301,2
301,295,299,298,2
303,296,299,296,2
304,297,301,296,2
306,299,305,298,2
308,302,311,302,2
309,304,318,306,2
310,306,324,312,2
310,307,327,318,2
310,306,328,322,2
308,304,324,325,2
307,301,316,329,2
305,299,309,332,2
305,302,304,333,2
304,310,301,332,2
304,317,301,330,2
304,322,302,328,2
304,325,303,324,2
303,324,305,321,2
304,322,306,318,2
306,320,306,316,2
308,316,307,314,2
311,313,307,311,2
312,310,306,309,2
312,309,305,307,2
312,310,304,304,2
313,312,304,301,2
314,313,303,297,2
316,313,301,294,2
318,310,300,292,2
320,305,299,292,2
319,300,299,292,2
313,297,300,294,2
306,296,301,296,2
299,295,303,298,2
295,295,304,300,2
294,296,305,303,2
294,301,305,305,2
295,306,304,308,2
297,311,302,312,2
299,314,301,316,2
301,316,301,320,2
303,314,302,324,2
304,309,305,329,2
305,303,307,335,2
306,299,310,340,2
308,298,313,343,2
308,298,314,343,2
309,299,314,339,2
308,301,314,332,2
307,302,313,322,2
306,303,313,315,2
305,304,312,310,2
304,305,312,306,2
304,306,311,303,2
303,306,312,301,2
303,306,313,298,2
303,305,316,297,2
303,304,321,297,2
305,303,327,298,2
308,303,332,299,2
309,304,331,298,2
310,305,324,296,2
310,306,314,294,2
310,307,305,291,2
309,306,299,289,2
307,304,296,288,2
306,299,295,288,2
306,294,295,288,2
304,289,295,289,2
302,284,296,291,2
300,280,299,294,2
300,278,303,297,2
300,281,307,300,2
301,288,309,301,2
301,295,307,301,2
302,298,304,301,2
303,296,300,301,2
304,291,298,302,2
304,287,297,303,2
303,289,298,304,2
303,298,299,305,2
304,310,301,305,2
305,324,302,303,2
306,336,302,300,2
308,344,302,296,2
309,347,303,293,2
310,344,302,291,2
310,340,302,292,2
308,335,302,294,2
307,329,302,297,2
305,321,304,298,2
304,313,306,300,2
303,306,308,304,2
303,300,311,307,2
302,296,312,312,2
302,296,313,316,2
302,297,313,319,2
302,298,310,321,2
302,299,308,322,2
304,299,304,322,2
306,299,303,323,2
308,299,302,325,2
310,301,303,327,2
312,307,304,330,2
314,315,305,332,2
314,321,305,333,2
314,321,305,332,2
314,315,304,329,2
312,306,303,324,2
310,298,302,318,2
308,295,302,313,2
306,294,301,309,2
305,296,300,305,2
304,298,300,302,2
305,300,299,297,2
306,301,298,293,2
307,303,298,289,2
308,306,299,289,2
309,308,299,291,2
309,308,299,295,2
311,305,301,302,2
313,304,303,309,2
314,303,305,317,2
314,304,307,324,2
315,305,309,329,2
316,306,310,331,2
316,307,310,331,2
315,307,309,330,2
312,307,308,327,2
310,308,306,324,2
309,310,305,321,2
310,312,304,319,2
310,314,304,315,2
309,315,304,313,2
308,313,305,311,2
307,307,306,310,2
307,299,308,307,2
306,289,309,306,2
306,280,309,304,2
307,272,307,303,2
309,266,304,302,2
309,267,301,301,2
311,273,300,300,2
312,278,300,298,2
312,279,301,296,2
312,278,303,294,2
310,282,305,293,2
307,292,306,292,2
304,307,308,292,2
303,321,309,295,2
303,332,310,299,2
304,341,311,304,2
304,347,312,309,2
305,350,313,313,2
305,349,314,314,2
306,345,315,315,2
306,342,315,313,2
306,340,314,309,2
307,338,312,304,2
308,336,309,300,2
309,335,307,296,2
310,336,307,294,2
312,339,308,295,2
313,346,311,298,2
314,356,313,302,2
314,365,315,307,2
313,368,314,312,2
312,361,311,314,2
312,345,306,315,2
312,328,303,315,2
313,311,301,315,2
311,295,304,314,2
308,284,308,313,2
305,278,311,311,2
304,274,312,308,2
303,273,310,304,2
303,273,307,300,2
303,273,306,298,2
303,275,305,298,2
303,279,305,300,2
303,282,308,303,2
304,285,313,307,2
305,286,320,312,2
308,285,327,315,2
310,283,333,317,2
312,283,337,319,2
312,286,336,320,2
312,291,326,319,2
310,297,314,318,2
308,300,302,315,2
307,297,294,311,2
307,288,291,306,2
308,273,292,300,2
308,257,296,295,2
309,241,301,291,2
309,233,304,291,2
309,239,306,293,2
307,258,305,297,2
306,284,302,300,2
307,307,300,304,2
308,325,299,307,2
310,337,300,311,2
312,343,303,316,2
312,347,304,321,2
312,349,306,327,2
312,352,306,332,2
311,356,307,335,2
310,358,307,336,2
309,356,307,336,2
307,353,308,335,2
306,348,308,334,2
305,344,307,331,2
305,339,307,328,2
306,336,306,324,2
308,334,305,319,2
310,332,304,315,2
313,328,303,311,2
315,324,303,310,2
315,318,303,310,2
312,312,304,311,2
309,309,304,311,2
308,307,306,309,2
308,304,307,306,2
308,301,308,302,2
309,300,309,300,2
308,300,310,303,2
306,305,312,310,2
304,311,313,318,2
302,315,313,325,2
302,313,312,328,2
301,309,310,329,2
302,305,307,326,2
303,304,304,321,2
304,302,303,314,2
304,300,302,308,2
304,298,302,304,2
304,297,302,301,2
303,297,302,298,2
304,296,303,296,2
305,295,303,295,2
307,292,304,295,2
309,288,305,294,2
312,286,305,295,2
314,288,306,298,2
315,292,307,303,2
316,299,308,307,2
315,307,307,309,2
313,314,307,307,2
309,319,307,303,2
305,320,310,299,2
302,320,315,296,2
302,316,320,294,2
303,309,324,293,2
306,298,326,294,2
308,286,326,296,2
309,277,325,299,2
309,274,322,301,2
309,277,319,303,2
310,287,317,307,2
311,299,317,312,2
313,310,317,317,2
313,319,314,321,2
313,324,307,323,2
310,321,301,321,2
308,315,297,317,2
307,310,295,313,2
306,310,295,310,2
307,317,297,308,2
307,323,298,307,2
307,329,300,305,2
306,333,300,302,2
305,334,300,298,2
304,334,300,293,2
303,333,300,289,2
302,331,300,287,2
302,327,300,287,2
301,320,299,287,2
300,312,299,289,2
301,304,301,293,2
302,296,304,297,2
303,289,307,301,2
304,282,310,305,2
307,274,311,308,2
309,270,310,310,2
312,272,309,310,2
315,279,308,309,2
317,290,308,309,2
315,301,309,308,2
312,308,310,307,2
308,311,310,307,2
306,311,312,308,2
306,309,314,308,2
305,310,316,309,2
305,313,316,310,2
305,314,315,310,2
305,311,314,309,2
304,306,310,308,2
