306,279,311,308,2
307,279,311,308,2
308,282,309,309,2
309,287,307,308,2
311,292,306,306,2
312,296,305,307,2
312,299,305,311,2
311,304,307,316,2
310,309,308,319,2
306,315,308,320,2
303,323,307,317,2
300,333,304,312,2
298,342,301,306,2
297,346,296,298,2
298,344,293,293,2
300,336,295,292,2
303,322,301,294,2
307,307,308,297,2
310,296,313,301,2
312,291,315,302,2
310,288,314,301,2
306,287,311,300,2
303,284,309,297,2
302,283,307,295,2
302,287,306,294,2
304,294,305,292,2
306,301,303,291,2
309,305,303,290,2
309,306,304,290,2
307,304,306,289,2
303,302,308,290,2
300,301,310,293,2
300,303,311,298,2
301,305,311,304,2
301,307,312,311,2
300,309,312,318,2
300,313,311,325,2
301,318,311,331,2
302,324,311,336,2
303,325,310,338,2
304,320,309,336,2
304,309,308,332,2
306,296,306,328,2
306,283,304,326,2
306,272,302,324,2
304,269,302,322,2
303,277,303,322,2
301,293,306,321,2
300,309,309,321,2
298,322,310,319,2
298,330,312,315,2
298,334,313,310,2
299,335,315,305,2
299,332,315,301,2
300,326,313,299,2
301,320,312,300,2
302,312,311,303,2
302,304,311,307,2
303,295,312,310,2
302,287,313,309,2
302,281,313,305,2
301,277,310,298,2
300,273,304,293,2
301,272,300,293,2
301,275,299,298,2
303,284,300,306,2
306,295,305,314,2
310,305,311,319,2
311,313,316,321,2
310,319,318,321,2
309,322,319,319,2
308,322,318,315,2
307,319,316,310,2
306,316,315,305,2
305,315,315,301,2
305,316,317,298,2
305,317,320,295,2
305,315,320,295,2
305,311,314,295,2
305,305,308,297,2
305,300,303,299,2
305,296,299,303,2
304,294,296,307,2
303,294,296,311,2
305,296,299,316,2
307,300,301,324,2
309,305,303,331,2
310,312,304,337,2
311,319,305,339,2
311,322,305,336,2
311,322,305,329,2
311,318,305,320,2
310,311,305,311,2
310,303,305,304,2
310,297,305,301,2
310,291,306,301,2
311,287,306,305,2
310,285,305,308,2
308,283,303,309,2
307,281,301,308,2
306,282,299,307,2
305,285,298,306,2
305,290,297,304,2
305,297,298,300,2
306,303,299,296,2
306,307,302,292,2
306,306,304,289,2
305,303,305,287,2
306,299,306,286,2
306,295,307,287,2
307,292,308,290,2
307,291,310,297,2
308,290,311,305,2
307,291,313,314,2
306,292,315,321,2
305,292,316,324,2
304,292,315,323,2
302,290,314,320,2
302,290,313,315,2
300,291,312,311,2
299,294,309,307,2
297,297,305,303,2
298,300,301,299,2
300,303,300,296,2
302,304,300,293,2
304,305,300,291,2
306,305,302,292,2
307,303,304,293,2
306,300,307,295,2
305,297,308,297,2
304,297,308,298,2
305,301,307,300,2
305,313,305,302,2
307,328,304,305,2
308,340,304,308,2
305,346,306,314,2
302,347,309,320,2
299,347,313,326,2
297,347,316,331,2
297,345,318,333,2
298,341,319,331,2
298,335,318,327,2
298,327,315,320,2
298,318,310,312,2
299,309,304,303,2
300,300,299,295,2
300,293,297,291,2
300,286,296,291,2
300,279,297,294,2
299,276,299,297,2
298,278,299,301,2
299,283,300,303,2
299,289,300,305,2
300,294,301,307,2
299,298,302,310,2
299,299,303,313,2
299,299,304,318,2
300,295,304,323,2
302,291,304,325,2
304,286,305,325,2
307,281,308,321,2
310,278,312,314,2
311,278,315,306,2
309,280,318,301,2
306,281,319,298,2
303,284,316,299,2
301,289,310,302,2
301,297,305,308,2
301,308,303,316,2
301,319,302,323,2
301,330,301,324,2
300,338,302,321,2
300,340,304,314,2
300,337,309,308,2
299,331,317,303,2
297,320,325,299,2
295,306,328,294,2
294,291,327,292,2
293,283,323,290,2
294,285,318,291,2
297,288,311,292,2
299,292,304,295,2
302,296,299,298,2
304,300,299,300,2
305,305,302,301,2
306,311,306,302,2
305,319,309,302,2
305,327,311,305,2
304,335,311,309,2
303,343,310,311,2
302,350,309,312,2
300,353,307,313,2
299,352,306,313,2
300,348,305,314,2
300,343,304,315,2
301,339,302,315,2
301,336,301,317,2
302,335,300,318,2
302,335,301,318,2
302,332,301,315,2
301,329,302,312,2
301,326,303,309,2
300,320,304,307,2
300,310,306,307,2
300,296,307,307,2
301,283,310,306,2
302,276,311,305,2
303,274,312,304,2
304,275,311,300,2
305,276,310,295,2
305,275,308,290,2
306,272,307,285,2
306,266,305,282,2
306,258,305,281,2
305,252,305,284,2
305,254,306,292,2
306,266,306,302,2
306,284,306,310,2
305,304,306,316,2
303,319,305,317,2
301,328,304,315,2
300,331,303,312,2
300,330,302,309,2
301,329,302,307,2
301,329,302,306,2
301,330,303,306,2
302,331,304,307,2
305,332,305,307,2
309,332,306,306,2
311,328,307,305,2
311,324,307,306,2
310,319,306,308,2
309,314,305,311,2
309,309,305,313,2
310,306,306,314,2
313,305,306,315,2
315,307,305,315,2
317,311,306,315,2
316,316,307,314,2
311,319,308,312,2
305,316,309,309,2
300,306,308,306,2
298,294,305,302,2
297,284,301,299,2
299,282,300,298,2
301,285,302,300,2
302,294,306,306,2
301,311,311,314,2
300,330,315,321,2
298,346,317,324,2
295,353,316,322,2
294,350,312,318,2
294,340,310,312,2
295,329,309,306,2
297,322,310,300,2
298,317,311,295,2
299,313,313,292,2
300,306,314,290,2
301,296,313,291,2
302,285,307,294,2
303,275,302,298,2
304,269,299,300,2
304,268,297,302,2
304,267,298,304,2
304,265,300,307,2
303,264,303,310,2
304,270,306,312,2
305,285,307,313,2
306,304,306,314,2
306,321,304,312,2
306,333,302,309,2
305,338,300,306,2
305,338,299,305,2
306,334,300,305,2
307,328,301,306,2
307,322,301,308,2
306,319,302,310,2
304,318,303,312,2
302,320,303,313,2
301,323,303,312,2
301,327,303,311,2
302,332,302,311,2
304,331,303,311,2
306,323,304,310,2
308,308,305,310,2
309,293,307,311,2
311,282,309,313,2
312,277,311,315,2
313,279,313,318,2
314,290,314,320,2
315,305,313,323,2
314,320,312,326,2
313,329,309,327,2
311,333,307,328,2
309,332,305,325,2
306,328,303,321,2
303,325,303,316,2
301,325,303,311,2
300,324,304,306,2
301,323,305,302,2
302,321,307,300,2
303,315,310,300,2
305,305,311,304,2
308,292,312,309,2
309,281,312,313,2
309,276,311,315,2
309,275,310,316,2
308,276,310,316,2
309,278,311,316,2
310,281,313,317,2
310,287,313,316,2
309,292,313,317,2
308,295,311,319,2
307,298,310,321,2
306,300,310,323,2
306,300,309,322,2
306,298,309,321,2
306,294,309,317,2
305,291,309,312,2
304,289,308,304,2
303,287,307,298,2
302,286,305,295,2
302,287,304,293,2
305,290,304,294,2
308,296,305,296,2
311,302,306,298,2
311,305,308,300,2
310,307,310,301,2
307,309,311,303,2
305,312,311,304,2
304,315,311,306,2
304,318,313,313,2
305,325,314,322,2
307,336,315,330,2
309,349,315,335,2
310,360,316,338,2
312,368,315,340,2
314,370,316,340,2
315,361,318,339,2
312,343,319,334,2
308,321,319,326,2
305,301,316,320,2
304,286,312,314,2
305,277,310,311,2
306,274,310,309,2
306,275,310,308,2
306,279,312,309,2
307,285,314,310,2
308,292,317,311,2
309,296,319,311,2
310,298,321,311,2
311,296,322,311,2
312,294,323,311,2
311,291,324,310,2
310,292,326,307,2
309,297,329,304,2
308,307,332,300,2
308,313,331,297,2
307,314,326,294,2
305,308,317,292,2
303,301,307,291,2
301,294,297,291,2
301,289,290,292,2
302,287,288,295,2
303,287,289,299,2
305,286,292,304,2
305,287,295,310,2
305,289,297,318,2
304,297,297,327,2
302,309,297,334,2
301,321,297,340,2
302,331,298,343,2
303,336,299,343,2
303,337,300,341,2
303,332,300,336,2
304,324,302,327,2
305,317,303,318,2
307,314,304,310,2
308,313,303,305,2
308,310,302,303,2
308,302,302,302,2
308,295,302,303,2
308,291,302,303,2
308,285,303,302,2
307,278,305,301,2
308,273,306,300,2
309,272,307,299,2
310,275,309,299,2
311,284,310,298,2
311,294,311,298,2
311,304,311,299,2
311,314,310,301,2
311,320,309,303,2
311,322,308,304,2
310,320,307,304,2
309,316,306,303,2
309,312,306,303,2
308,309,306,303,2
307,309,308,304,2
306,311,309,306,2
305,312,309,307,2
306,312,309,308,2
307,310,308,308,2
310,307,308,309,2
312,306,309,312,2
314,307,309,315,2
315,307,310,318,2
316,307,311,321,2
317,305,313,324,2
317,304,314,327,2
318,306,316,329,2
317,309,319,331,2
315,312,322,335,2
311,313,324,337,2
307,312,324,337,2
305,309,322,335,2
305,307,315,328,2
307,303,307,320,2
308,297,301,310,2
309,287,298,301,2
310,276,298,294,2
311,268,299,290,2
312,267,300,289,2
313,270,303,291,2
314,278,305,295,2
314,290,307,300,2
314,304,308,305,2
314,315,309,308,2
314,321,310,309,2
314,323,310,308,2
313,324,308,305,2
312,324,304,301,2
311,325,302,298,2
309,325,300,295,2
309,325,299,293,2
310,326,299,291,2
310,328,301,290,2
310,333,303,291,2
311,339,304,294,2
311,345,305,300,2
312,350,305,306,2
313,344,304,312,2
315,326,304,315,2
317,304,305,318,2
319,285,307,319,2
322,270,308,318,2
324,260,309,315,2
326,259,311,310,2
326,265,312,307,2
323,274,314,305,2
317,282,315,305,2
309,290,316,307,2
303,299,315,309,2
300,307,314,311,2
301,313,314,312,2
303,318,313,311,2
305,322,312,311,2
307,325,310,310,2
308,326,308,308,2
309,328,307,306,2
309,329,305,304,2
309,327,303,303,2
310,319,302,302,2
311,307,302,302,2
314,293,303,302,2
316,282,306,302,2
317,276,310,302,2
318,274,313,304,2
318,275,315,308,2
318,279,315,311,2
317,286,314,314,2
317,293,311,315,2
316,296,311,314,2
316,294,311,311,2
315,287,312,307,2
315,278,313,302,2
314,270,314,297,2
314,265,313,293,2
314,266,308,289,2
314,275,303,288,2
313,291,297,288,2
312,309,293,291,2
312,326,291,296,2
312,343,292,300,2
313,357,294,303,2
314,364,297,306,2
314,361,300,310,2
315,345,304,319,2
316,326,307,328,2
315,310,310,336,2
314,301,311,340,2
313,296,311,340,2
312,295,310,335,2
311,295,310,328,2
310,297,309,319,2
309,300,308,309,2
308,300,308,301,2
308,300,307,295,2
307,301,306,290,2
308,303,305,288,2
308,305,303,288,2
309,304,301,289,2
309,300,300,292,2
309,294,302,297,2
309,288,307,302,2
309,282,313,308,2
310,277,318,313,2
312,276,318,317,2
312,279,315,319,2
312,284,312,318,2
312,292,310,314,2
311,301,308,308,2
308,312,308,300,2
305,322,308,291,2
302,329,310,284,2
299,332,313,278,2
299,329,316,274,2
300,318,320,272,2
300,303,323,271,2
301,285,324,271,2
302,269,321,274,2
303,260,316,281,2
303,261,310,289,2
303,269,305,297,2
301,281,303,304,2
300,290,302,308,2
300,296,302,308,2
300,298,303,305,2
300,298,305,301,2
300,297,308,298,2
299,296,310,297,2
299,296,311,296,2
298,298,311,296,2
299,304,309,296,2
299,313,307,297,2
299,322,304,300,2
299,329,302,305,2
299,335,301,310,2
300,337,301,314,2
299,332,301,315,2
299,323,303,314,2
299,315,305,312,2
299,306,307,310,2
300,297,310,309,2
302,293,311,308,2
304,296,312,308,2
305,300,312,307,2
305,300,313,308,2
306,298,315,310,2
307,296,316,311,2
308,297,316,311,2
308,299,315,310,2
309,306,314,309,2
311,317,313,308,2
313,328,313,307,2
312,336,313,305,2
308,337,312,303,2
304,332,310,301,2
302,325,308,299,2
302,318,307,297,2
302,312,306,298,2
304,306,306,299,2
305,301,307,302,2
307,299,308,305,2
309,297,309,309,2
310,295,311,311,2
311,292,311,311,2
311,286,311,310,2
311,280,310,309,2
309,277,309,308,2
308,282,307,311,2
306,292,305,319,2
304,307,304,331,2
301,323,305,342,2
300,335,306,351,2
299,337,306,353,2
299,330,306,349,2
300,316,305,339,2
301,303,306,327,2
302,294,306,316,2
303,291,306,305,2
304,293,307,297,2
306,299,306,288,2
307,305,305,280,2
309,312,306,274,2
310,316,309,273,2
310,314,314,274,2
310,312,318,278,2
311,308,319,282,2
311,304,317,288,2
310,302,314,293,2
308,301,311,297,2
305,299,309,299,2
303,299,309,301,2
302,300,308,302,2
303,303,303,303,2
303,309,299,304,2
302,315,297,305,2
301,320,297,306,2
300,324,299,306,2
301,327,303,304,2
303,326,307,301,2
305,321,308,299,2
307,313,308,298,2
308,305,306,299,2
309,295,303,302,2
310,283,300,308,2
311,271,298,314,2
311,262,297,320,2
310,258,297,325,2
309,263,296,326,2
307,276,295,325,2
306,294,295,322,2
307,308,294,316,2
311,316,294,307,2
313,317,295,298,2
311,314,297,290,2
307,306,297,285,2
304,297,298,282,2
301,289,298,281,2
299,284,298,283,2
299,281,298,286,2
300,277,298,290,2
303,274,299,295,2
306,273,302,300,2
309,273,306,305,2
312,277,310,311,2
313,283,314,318,2
312,292,316,325,2
310,306,315,330,2
308,320,313,332,2
308,332,309,331,2
308,339,305,327,2
307,340,303,321,2
305,334,302,315,2
304,325,302,310,2
303,316,303,307,2
304,310,304,305,2
306,308,304,302,2
308,305,303,299,2
310,301,302,295,2
311,294,301,290,2
312,285,300,287,2
313,278,301,284,2
313,272,304,287,2
313,270,308,294,2
312,273,312,306,2
312,278,314,316,2
311,287,313,323,2
311,298,310,325,2
310,311,306,321,2
309,328,302,316,2
307,346,301,310,2
304,360,301,304,2
302,364,301,299,2
300,359,301,294,2
298,348,302,291,2
299,336,303,290,2
300,323,304,290,2
301,310,307,290,2
302,299,312,292,2
303,288,315,294,2
305,279,318,296,2
308,273,320,298,2
310,271,321,300,2
311,272,319,303,2
309,278,317,305,2
307,288,316,307,2
305,302,312,308,2
303,316,307,309,2
301,328,303,310,2
300,336,300,310,2
299,338,297,310,2
298,333,295,308,2
298,322,293,308,2
299,312,293,310,2
300,308,295,315,2
302,309,297,321,2
303,307,299,326,2
303,304,301,327,2
303,297,302,323,2
304,286,303,317,2
305,273,304,311,2
307,262,305,303,2
309,252,305,296,2
311,246,303,290,2
313,244,300,286,2
315,251,299,285,2
315,267,301,287,2
314,286,303,291,2
311,302,305,296,2
308,312,307,301,2
306,317,308,306,2
305,320,308,310,2
303,321,306,312,2
302,321,304,315,2
302,321,305,318,2
303,321,307,323,2
305,320,308,327,2
307,319,307,329,2
308,316,307,329,2
308,312,305,326,2
308,308,305,324,2
309,305,305,324,2
310,303,306,326,2
311,302,307,329,2
311,301,307,332,2
311,301,307,335,2
310,303,305,335,2
309,306,304,332,2
308,309,302,325,2
307,313,300,316,2
306,317,299,306,2
306,320,298,295,2
305,322,296,286,2
304,320,295,280,2
304,316,294,278,2
304,312,295,279,2
304,309,296,282,2
305,307,299,289,2
305,309,302,299,2
304,314,303,312,2
304,323,304,323,2
305,331,304,330,2
305,335,305,331,2
307,335,306,329,2
308,333,307,323,2
309,330,308,315,2
310,327,308,308,2
311,319,308,301,2
312,303,308,297,2
314,286,308,295,2
316,274,308,293,2
316,265,308,291,2
314,261,308,290,2
309,262,310,290,2
306,267,312,290,2
305,274,313,290,2
304,282,311,290,2
302,291,306,290,2
302,298,302,291,2
301,302,298,293,2
302,302,297,296,2
304,300,298,299,2
306,296,302,301,2
308,293,306,304,2
311,292,311,305,2
313,291,313,306,2
313,290,313,305,2
313,287,313,302,2
313,285,312,299,2
312,287,312,297,2
310,288,311,296,2
308,289,309,296,2
307,288,309,297,2
307,288,311,301,2
308,289,317,304,2
309,292,324,308,2
310,296,329,311,2
311,302,331,314,2
313,307,326,316,2
313,312,317,318,2
310,315,308,319,2
306,317,302,320,2
304,319,299,323,2
303,320,298,326,2
304,321,299,329,2
307,323,301,331,2
309,325,303,331,2
309,328,304,331,2
307,331,303,331,2
303,336,303,332,2
300,344,301,332,2
299,353,301,331,2
300,356,302,327,2
300,354,303,320,2
300,345,303,311,2
300,329,304,301,2
301,311,304,292,2
302,298,302,286,2
303,288,301,283,2
304,283,300,282,2
305,281,300,285,2
305,280,301,289,2
305,281,302,294,2
304,283,303,300,2
304,287,305,305,2
304,289,306,308,2
304,289,307,308,2
304,286,309,306,2
304,282,313,302,2
305,277,317,297,2
306,272,323,292,2
308,270,327,288,2
310,275,327,288,2
311,282,324,290,2
311,290,320,292,2
311,297,316,296,2
311,302,313,301,2
311,306,310,307,2
310,308,307,312,2
310,308,305,317,2
310,307,306,321,2
311,307,308,323,2
311,307,310,321,2
310,308,311,318,2
309,309,311,314,2
307,310,310,309,2
306,311,307,303,2
305,312,303,298,2
303,312,302,293,2
301,313,302,291,2
300,314,305,291,2
300,313,307,293,2
301,313,308,294,2
302,311,304,294,2
303,307,299,293,2
303,299,296,292,2
304,295,293,291,2
304,297,293,291,2
303,302,293,291,2
303,306,294,292,2
303,308,297,293,2
304,309,299,295,2
305,312,301,296,2
307,315,303,298,2
309,318,305,300,2
311,320,307,302,2
312,323,310,305,2
312,324,313,306,2
313,322,316,304,2
314,318,319,302,2
315,314,321,299,2
316,313,319,296,2
316,311,314,295,2
313,309,311,296,2
309,307,311,297,2
307,305,311,299,2
306,304,309,301,2
306,303,306,303,2
308,302,305,308,2
309,301,307,312,2
310,301,311,316,2
312,302,318,320,2
314,303,324,323,2
316,304,325,323,2
318,305,323,321,2
318,306,319,317,2
318,307,313,312,2
316,307,307,309,2
313,307,301,306,2
311,309,297,304,2
310,312,295,303,2
310,316,296,303,2
311,319,298,305,2
310,320,303,306,2
309,322,310,309,2
310,325,317,312,2
310,329,325,315,2
312,332,332,313,2
313,333,337,309,2
315,333,335,304,2
316,334,329,300,2
316,332,322,297,2
315,326,315,294,2
313,314,307,291,2
311,300,298,290,2
310,288,291,290,2
311,281,286,290,2
311,278,286,290,2
310,277,290,291,2
309,278,296,292,2
308,281,300,295,2
307,285,304,299,2
307,288,306,304,2
307,290,308,310,2
308,292,308,316,2
308,294,308,320,2
307,299,307,323,2
307,307,307,324,2
307,315,312,324,2
308,322,320,322,2
310,327,326,318,2
312,330,326,314,2
313,332,324,309,2
314,335,322,305,2
315,337,318,302,2
315,340,311,301,2
314,341,303,303,2
314,340,299,307,2
313,336,298,311,2
311,329,299,315,2
309,321,302,316,2
307,315,305,314,2
305,310,306,309,2
303,305,306,303,2
302,303,307,297,2
302,300,307,292,2
303,296,304,289,2
304,290,300,286,2
306,285,298,284,2
307,280,298,285,2
308,277,300,287,2
309,278,302,291,2
310,284,305,296,2
309,292,306,300,2
308,298,305,303,2
306,300,305,311,2
305,301,306,322,2
305,304,307,333,2
304,305,306,340,2
304,305,302,343,2
305,303,300,344,2
306,300,300,341,2
307,297,299,336,2
308,292,298,330,2
309,288,297,322,2
309,285,296,315,2
310,286,295,310,2
310,291,296,305,2
310,299,297,300,2
310,309,297,296,2
310,318,299,294,2
310,322,301,293,2
309,318,303,295,2
309,308,306,298,2
309,300,308,304,2
308,295,310,310,2
308,296,311,315,2
307,303,311,318,2
307,314,310,320,2
306,325,309,319,2
305,334,306,314,2
304,341,303,307,2
304,343,300,302,2
304,340,299,298,2
305,330,297,294,2
305,318,296,288,2
305,303,297,281,2
306,287,301,278,2
306,277,307,277,2
306,273,313,280,2
306,274,314,284,2
307,274,314,289,2
308,273,314,293,2
309,271,317,295,2
310,273,321,297,2
311,282,324,298,2
310,298,326,298,2
308,316,324,299,2
306,333,320,301,2
304,346,317,304,2
302,351,315,307,2
300,347,315,310,2
300,339,317,312,2
301,332,320,313,2
303,326,325,313,2
306,320,330,314,2
307,313,333,314,2
308,304,330,314,2
307,294,322,313,2
305,283,311,312,2
304,274,301,314,2
304,267,295,318,2
306,268,294,325,2
309,276,296,331,2
310,290,299,335,2
309,309,303,337,2
307,326,306,336,2
306,337,308,330,2
304,338,309,322,2
303,330,311,316,2
302,318,312,312,2
302,309,313,311,2
302,303,314,309,2
302,300,314,306,2
301,299,314,302,2
299,299,313,299,2
299,302,311,296,2
298,305,308,294,2
298,308,304,292,2
298,308,301,292,2
300,304,300,291,2
302,297,302,292,2
305,290,305,293,2
307,282,309,295,2
309,277,311,298,2
310,275,313,303,2
310,278,314,309,2
309,283,314,314,2
307,290,315,319,2
304,299,315,323,2
303,308,316,326,2
303,316,316,327,2
305,320,315,328,2
308,317,317,330,2
310,309,320,332,2
313,300,324,332,2
315,295,327,330,2
315,298,328,327,2
310,305,328,323,2
303,310,324,319,2
300,310,320,315,2
300,309,318,310,2
301,305,314,306,2
300,302,312,303,2
301,302,310,300,2
301,304,309,297,2
301,308,308,293,2
301,311,306,290,2
301,309,306,289,2
301,303,307,290,2
300,296,307,294,2
299,292,307,299,2
299,292,307,304,2
299,296,307,310,2
300,305,307,314,2
301,313,307,317,2
302,320,306,320,2
302,325,304,320,2
302,327,303,318,2
302,328,302,315,2
301,326,301,310,2
302,319,302,305,2
302,309,304,301,2
302,299,306,298,2
302,293,309,296,2
302,293,311,296,2
303,296,313,298,2
303,300,316,301,2
302,302,320,303,2
302,302,323,305,2
303,300,326,307,2
304,297,327,307,2
304,293,324,306,2
304,292,317,303,2
302,292,310,300,2
301,292,305,299,2
299,296,301,301,2
299,300,298,305,2
300,304,297,310,2
301,306,297,314,2
303,306,298,317,2
306,305,300,318,2
307,303,301,319,2
307,302,302,320,2
307,301,304,321,2
307,299,305,321,2
306,295,307,319,2
306,294,308,316,2
304,293,309,311,2
302,295,309,306,2
301,299,310,304,2
301,308,311,304,2
301,317,314,305,2
300,323,317,307,2
300,325,317,309,2
300,325,316,310,2
301,322,312,310,2
301,316,307,308,2
301,310,302,306,2
301,305,298,304,2
302,300,296,304,2
304,293,295,304,2
306,286,295,307,2
309,279,296,311,2
311,273,298,317,2
312,270,302,324,2
313,270,309,332,2
312,277,318,340,2
311,292,325,346,2
310,309,328,349,2
309,324,325,347,2
308,336,318,342,2
307,343,311,336,2
304,343,304,326,2
301,340,298,315,2
298,335,295,305,2
296,330,293,296,2
295,325,294,290,2
295,318,294,287,2
296,309,295,287,2
299,300,295,288,2
301,295,295,291,2
303,293,296,293,2
304,291,298,296,2
305,293,300,298,2
306,300,303,299,2
307,313,304,300,2
308,328,304,300,2
308,342,306,299,2
309,352,307,300,2
308,355,308,304,2
307,353,311,309,2
307,348,313,314,2
307,340,315,316,2
307,330,315,316,2
307,320,311,316,2
308,310,304,314,2
310,299,299,312,2
313,287,295,309,2
315,275,294,306,2
318,269,295,304,2
320,267,296,301,2
317,268,298,298,2
312,270,300,296,2
308,270,303,296,2
306,271,305,296,2
305,277,308,298,2
305,286,309,300,2
305,296,310,301,2
305,303,310,301,2
305,309,310,300,2
305,314,310,298,2
305,320,310,297,2
305,327,310,297,2
306,336,309,299,2
307,342,309,302,2
307,345,311,304,2
307,343,314,305,2
306,338,317,303,2
307,332,319,299,2
308,324,320,297,2
309,317,318,295,2
311,308,313,296,2
312,300,308,300,2
312,291,305,307,2
310,286,304,317,2
309,287,305,328,2
310,296,306,338,2
311,305,306,345,2
310,311,307,349,2
308,313,308,350,2
307,313,307,350,2
306,314,305,349,2
307,316,304,349,2
307,318,304,349,2
307,319,306,348,2
307,317,310,343,2
306,311,311,334,2
304,304,310,321,2
303,298,306,306,2
303,293,303,294,2
303,290,302,287,2
305,291,301,285,2
307,298,302,286,2
309,307,303,290,2
309,316,306,293,2
310,325,310,296,2
309,329,315,299,2
308,327,319,301,2
307,318,320,303,2
306,309,319,305,2
305,301,318,308,2
304,295,316,311,2
303,291,313,312,2
303,289,308,313,2
303,288,303,314,2
302,293,300,315,2
303,302,298,315,2
303,313,298,314,2
304,322,299,313,2
304,326,301,312,2
304,327,303,311,2
305,326,305,310,2
306,325,307,309,2
308,322,309,307,2
309,321,312,305,2
310,321,313,302,2
311,318,314,300,2
311,312,314,298,2
310,304,313,296,2
308,295,313,294,2
306,283,312,292,2
305,274,313,291,2
304,267,314,292,2
304,267,316,293,2
303,274,318,297,2
302,283,318,302,2
302,291,317,306,2
301,296,312,308,2
300,298,310,309,2
300,300,310,309,2
300,299,313,308,2
301,298,317,307,2
302,297,321,306,2
305,298,322,306,2
307,302,318,308,2
308,307,312,312,2
309,314,306,317,2
310,320,303,320,2
308,323,301,320,2
306,326,300,321,2
304,328,299,323,2
303,329,299,324,2
305,330,300,324,2
309,328,300,322,2
313,322,300,318,2
316,313,301,312,2
313,307,302,305,2
308,303,302,299,2
304,300,303,294,2
302,297,302,292,2
301,291,302,293,2
300,288,301,295,2
300,287,302,298,2
301,288,304,302,2
302,291,308,306,2
304,294,312,310,2
305,298,313,314,2
306,301,311,316,2
306,304,307,319,2
305,307,303,320,2
304,307,301,320,2
303,305,299,317,2
302,303,298,311,2
302,301,298,303,2
302,302,299,297,2
302,307,299,293,2
302,315,299,291,2
302,325,299,291,2
302,334,299,293,2
301,341,300,297,2
302,342,301,300,2
302,337,303,303,2
304,327,304,304,2
305,316,305,304,2
305,303,306,303,2
305,291,306,302,2
305,282,307,301,2
304,276,307,301,2
303,276,308,302,2
303,278,309,304,2
304,281,312,306,2
304,284,316,308,2
305,286,320,310,2
305,290,323,310,2
305,295,323,308,2
305,303,320,307,2
305,311,313,307,2
305,315,308,307,2
305,314,305,307,2
306,309,305,307,2
307,304,305,308,2
308,299,306,310,2
310,297,309,314,2
312,299,314,319,2
313,304,317,323,2
314,310,318,326,2
314,314,317,327,2
312,315,311,325,2
308,311,304,318,2
306,305,297,310,2
305,299,292,302,2
304,294,290,295,2
302,295,289,289,2
301,298,290,285,2
300,304,291,283,2
300,309,292,283,2
301,312,293,285,2
303,311,294,287,2
304,307,295,291,2
304,301,298,294,2
305,295,299,298,2
307,292,301,303,2
311,290,303,307,2
314,290,305,311,2
317,291,308,314,2
320,295,312,316,2
322,299,314,316,2
320,302,314,311,2
317,305,311,304,2
313,308,305,296,2
310,313,301,289,2
307,319,298,285,2
306,325,296,282,2
304,331,295,282,2
303,334,296,285,2
302,331,297,289,2
301,324,298,294,2
302,314,298,297,2
302,302,299,301,2
302,291,300,304,2
302,282,302,306,2
302,279,303,308,2
304,281,303,308,2
307,284,303,310,2
308,290,305,315,2
308,297,309,324,2
308,305,313,331,2
307,313,316,336,2
305,317,316,335,2
305,318,313,330,2
305,318,311,323,2
306,321,309,314,2
306,324,308,306,2
307,325,307,299,2
308,323,308,294,2
309,321,311,292,2
310,317,313,290,2
309,308,314,287,2
308,297,314,284,2
308,287,313,283,2
308,280,312,283,2
309,278,311,286,2
310,278,311,291,2
310,281,311,297,2
311,284,312,303,2
311,287,313,308,2
310,289,311,313,2
307,291,309,316,2
305,296,307,317,2
303,301,305,316,2
300,305,304,313,2
299,309,305,311,2
299,317,305,308,2
300,325,306,306,2
302,327,308,305,2
303,324,309,304,2
304,319,310,303,2
305,312,310,303,2
306,306,310,303,2
310,303,311,304,2
313,302,316,304,2
315,307,323,306,2
316,317,330,309,2
315,330,338,310,2
315,342,342,310,2
313,347,338,310,2
310,344,328,307,2
307,336,317,305,2
305,325,309,304,2
303,310,305,304,2
303,297,304,304,2
303,289,305,306,2
303,285,305,308,2
303,283,304,312,2
303,281,305,317,2
304,276,305,322,2
305,270,307,325,2
307,263,308,327,2
309,256,309,326,2
311,251,309,325,2
313,249,310,324,2
314,254,310,323,2
314,266,310,323,2
314,281,309,322,2
315,295,308,321,2
316,307,306,316,2
316,313,304,308,2
312,314,303,297,2
306,314,302,288,2
302,312,302,281,2
300,312,303,278,2
300,314,304,278,2
299,318,306,279,2
298,322,308,281,2
298,326,307,284,2
299,328,306,288,2
300,327,304,294,2
303,321,303,299,2
305,314,302,305,2
307,306,304,311,2
307,300,307,314,2
306,297,311,315,2
305,297,313,314,2
303,300,313,310,2
301,303,309,304,2
301,305,305,299,2
301,307,302,298,2
301,311,301,300,2
302,317,303,303,2
303,324,304,306,2
304,331,305,309,2
305,335,305,310,2
305,336,304,311,2
307,334,302,312,2
309,328,302,312,2
310,318,301,312,2
309,306,300,311,2
306,296,299,309,2
304,290,298,306,2
304,288,298,303,2
303,290,298,300,2
303,295,299,297,2
304,301,302,295,2
304,307,307,293,2
304,314,313,292,2
304,318,321,293,2
305,317,328,295,2
307,312,329,297,2
308,305,325,300,2
308,295,317,304,2
308,280,310,307,2
308,263,302,309,2
308,253,297,311,2
308,256,294,311,2
308,266,294,311,2
309,275,295,310,2
310,281,297,310,2
310,285,299,312,2
311,291,302,317,2
311,298,304,321,2
310,303,305,324,2
308,308,304,324,2
306,310,303,323,2
306,311,302,321,2
307,311,301,317,2
308,311,301,312,2
309,311,301,308,2
308,312,302,305,2
307,313,302,302,2
305,314,303,300,2
304,314,304,298,2
304,315,306,296,2
304,316,306,294,2
304,319,306,293,2
304,324,304,295,2
304,329,302,298,2
304,333,301,302,2
304,333,301,305,2
303,330,302,307,2
303,321,304,306,2
303,310,303,303,2
303,302,302,300,2
304,299,300,301,2
305,300,299,303,2
307,302,299,307,2
308,303,301,311,2
309,301,303,314,2
309,299,304,317,2
309,298,304,319,2
309,298,305,318,2
309,299,305,316,2
309,298,304,311,2
308,295,303,305,2
306,294,303,300,2
305,300,301,296,2
304,315,300,293,2
304,333,299,290,2
304,348,298,289,2
305,357,298,288,2
305,360,298,288,2
306,353,300,289,2
307,336,303,292,2
309,317,306,295,2
311,302,309,299,2
312,289,312,304,2
312,278,313,309,2
310,270,312,312,2
307,267,311,314,2
305,268,311,314,2
304,273,312,315,2
304,280,316,316,2
305,288,319,316,2
306,295,320,315,2
308,299,319,314,2
310,301,316,312,2
312,301,312,311,2
314,299,309,309,2
315,299,307,308,2
313,300,305,309,2
310,301,301,309,2
308,303,297,309,2
307,305,294,308,2
307,305,294,309,2
308,301,296,309,2
310,293,299,310,2
313,283,303,311,2
315,274,307,313,2
317,270,310,318,2
315,275,312,327,2
313,291,313,337,2
310,310,313,346,2
308,324,311,350,2
307,330,309,351,2
306,331,309,348,2
306,331,310,343,2
306,332,311,335,2
306,333,311,326,2
307,334,310,317,2
308,333,309,308,2
309,329,309,301,2
310,321,310,296,2
311,309,311,293,2
311,296,311,292,2
311,284,310,293,2
310,276,311,294,2
309,274,311,295,2
309,277,312,297,2
308,283,312,299,2
308,291,313,300,2
307,300,313,301,2
306,306,314,301,2
305,310,316,302,2
304,312,318,300,2
303,312,320,298,2
302,309,319,294,2
302,308,316,292,2
302,310,313,293,2
301,311,312,296,2
302,312,312,303,2
303,312,313,313,2
306,315,314,324,2
307,318,316,334,2
309,319,316,341,2
309,317,317,344,2
308,314,318,342,2
306,308,320,337,2
304,301,323,330,2
303,294,326,320,2
303,289,329,311,2
302,287,329,304,2
300,286,327,298,2
298,286,324,296,2
297,286,319,296,2
296,289,315,299,2
297,296,312,302,2
299,303,311,306,2
301,308,309,307,2
303,310,307,308,2
304,312,306,307,2
306,317,304,306,2
307,326,302,304,2
307,336,299,301,2
306,345,297,298,2
305,345,297,295,2
305,336,301,293,2
306,326,306,293,2
307,312,313,292,2
307,294,319,292,2
308,278,323,291,2
307,267,321,291,2
306,261,317,291,2
305,261,313,294,2
304,264,311,298,2
302,269,310,303,2
301,276,308,308,2
300,284,306,312,2
298,292,305,314,2
298,299,305,314,2
297,303,309,312,2
298,306,314,310,2
299,307,321,309,2
302,307,327,310,2
305,308,332,311,2
307,313,335,312,2
310,319,337,313,2
311,325,338,312,2
309,329,335,309,2
307,327,327,306,2
304,317,320,303,2
301,302,313,302,2
299,287,305,301,2
300,276,299,300,2
302,270,297,299,2
303,268,298,296,2
305,271,298,295,2
306,278,298,295,2
306,284,298,297,2
303,289,297,299,2
300,294,296,301,2
298,300,298,302,2
297,304,300,303,2
298,306,304,303,2
301,310,309,304,2
304,315,310,307,2
306,322,307,309,2
306,328,303,310,2
305,332,300,309,2
304,329,298,307,2
303,319,297,304,2
303,303,297,300,2
303,286,299,297,2
304,277,303,295,2
305,274,309,294,2
306,280,316,295,2
307,289,322,298,2
308,298,328,300,2
308,301,332,300,2
307,298,332,298,2
306,290,326,294,2
306,284,318,291,2
307,279,313,290,2
307,279,311,290,2
308,283,310,292,2
308,294,309,293,2
308,306,308,294,2
307,318,307,295,2
307,325,306,297,2
305,328,304,301,2
304,329,305,307,2
303,327,309,314,2
302,320,314,319,2
302,309,317,318,2
301,298,320,314,2
301,289,322,310,2
301,285,323,307,2
303,287,325,308,2
306,295,326,309,2
306,305,326,310,2
306,316,327,313,2
306,323,330,318,2
306,326,333,325,2
307,327,333,331,2
307,326,328,337,2
306,323,320,339,2
306,320,312,337,2
305,318,307,330,2
304,316,304,318,2
302,314,301,304,2
301,314,297,293,2
300,313,295,289,2
300,313,293,289,2
300,313,291,292,2
300,311,289,296,2
301,309,288,300,2
301,308,288,304,2
302,306,288,309,2
302,308,289,313,2
303,311,290,318,2
303,316,292,325,2
304,322,294,330,2
304,326,294,335,2
303,325,293,337,2
303,319,292,337,2
305,312,292,334,2
307,306,293,329,2
308,302,297,322,2
309,300,303,316,2
308,299,312,308,2
308,298,320,301,2
308,297,325,294,2
307,293,327,290,2
307,288,325,287,2
306,282,320,287,2
305,277,313,286,2
305,275,306,286,2
305,280,301,285,2
305,289,298,285,2
304,297,297,283,2
303,300,295,282,2
302,299,292,284,2
302,298,289,289,2
301,300,287,294,2
301,305,288,299,2
302,309,291,303,2
303,315,295,305,2
303,321,299,307,2
304,328,301,310,2
306,334,302,313,2
306,339,303,317,2
304,342,302,320,2
302,342,302,323,2
301,340,303,323,2
300,336,304,321,2
299,334,305,318,2
299,335,304,314,2
298,338,301,310,2
296,339,297,305,2
296,335,293,301,2
298,328,292,299,2
301,318,293,298,2
304,306,295,298,2
305,293,297,299,2
306,283,299,300,2
307,278,301,302,2
307,275,301,306,2
306,276,302,312,2
306,279,303,317,2
306,282,305,321,2
306,284,310,322,2
305,285,315,321,2
304,287,319,318,2
302,288,320,314,2
300,290,317,310,2
299,290,311,305,2
299,290,306,300,2
300,288,307,296,2
302,287,311,292,2
303,286,316,290,2
305,286,318,289,2
307,289,317,289,2
308,292,315,290,2
309,291,313,290,2
309,286,311,291,2
310,279,311,295,2
310,275,313,300,2
310,278,312,306,2
310,285,310,310,2
309,296,306,312,2
307,307,302,313,2
305,316,299,315,2
304,322,297,317,2
303,326,297,320,2
303,329,297,323,2
304,332,297,325,2
303,334,296,327,2
302,334,295,327,2
300,331,293,323,2
300,327,293,317,2
301,320,294,311,2
303,315,297,305,2
306,312,299,302,2
307,311,302,302,2
307,309,303,302,2
305,306,303,304,2
303,305,303,306,2
301,306,304,310,2
300,309,306,314,2
301,311,308,317,2
303,312,310,319,2
304,309,312,319,2
304,306,311,318,2
304,303,309,314,2
302,302,308,308,2
302,302,307,300,2
302,301,307,293,2
302,300,308,288,2
304,301,309,289,2
305,307,310,293,2
307,317,309,300,2
307,330,307,309,2
308,340,305,319,2
308,341,306,327,2
308,333,308,333,2
309,321,312,337,2
309,308,316,337,2
309,298,319,334,2
309,295,321,326,2
308,297,318,316,2
306,301,313,306,2
306,304,308,298,2
306,309,306,294,2
306,313,307,294,2
305,316,308,298,2
306,317,309,303,2
306,316,310,307,2
307,314,309,310,2
306,309,305,309,2
306,297,301,305,2
305,283,297,301,2
305,271,296,297,2
306,266,295,295,2
307,263,295,294,2
309,265,299,296,2
310,269,305,302,2
310,275,312,308,2
310,282,319,313,2
308,289,323,315,2
307,296,327,315,2
306,302,328,314,2
305,304,327,314,2
304,304,325,312,2
304,305,322,310,2
303,308,318,308,2
303,313,316,306,2
303,318,314,305,2
302,320,310,303,2
302,317,304,301,2
301,312,299,300,2
301,308,296,300,2
303,303,296,301,2
305,295,297,305,2
307,291,300,310,2
310,293,302,315,2
310,298,304,318,2
310,303,305,319,2
309,307,307,316,2
307,309,308,312,2
306,311,309,309,2
305,311,310,308,2
304,313,312,307,2
303,315,313,307,2
301,319,315,306,2
301,324,312,304,2
301,328,307,302,2
300,329,302,300,2
300,327,299,300,2
301,323,297,300,2
302,319,297,300,2
303,315,297,301,2
304,311,298,301,2
306,309,300,303,2
309,309,301,305,2
311,310,302,307,2
312,314,303,308,2
311,319,303,309,2
310,326,304,310,2
309,332,304,311,2
308,335,305,310,2
307,332,306,308,2
306,324,307,306,2
307,310,308,304,2
308,297,312,304,2
309,288,316,305,2
310,283,319,305,2
311,284,319,304,2
311,289,317,302,2
312,299,314,301,2
313,312,309,300,2
313,327,302,300,2
312,341,296,303,2
309,348,294,305,2
306,343,294,305,2
304,326,296,305,2
304,309,300,305,2
304,297,306,305,2
305,291,312,306,2
306,288,317,308,2
306,291,318,310,2
306,296,316,312,2
305,302,311,313,2
304,310,306,314,2
303,318,302,315,2
302,323,299,316,2
302,323,298,317,2
303,318,300,317,2
304,312,304,318,2
305,306,308,317,2
305,299,310,316,2
305,293,308,314,2
306,290,305,312,2
307,288,303,313,2
307,287,302,317,2
309,286,303,321,2
309,286,304,323,2
311,287,304,324,2
312,290,305,325,2
312,293,306,325,2
312,292,307,326,2
311,288,307,324,2
309,286,309,323,2
309,290,310,320,2
307,297,310,318,2
305,307,309,315,2
304,317,308,311,2
303,325,306,307,2
302,330,303,302,2
302,331,300,297,2
303,330,300,291,2
304,326,301,288,2
305,321,304,289,2
308,317,308,292,2
310,315,311,297,2
311,313,313,301,2
312,310,312,305,2
311,310,310,308,2
311,313,308,310,2
309,318,308,312,2
308,322,308,313,2
307,323,309,313,2
306,324,310,312,2
305,324,310,309,2
305,323,309,304,2
305,319,307,299,2
305,315,305,295,2
305,314,303,292,2
304,314,300,293,2
303,313,297,295,2
302,312,297,299,2
304,313,300,304,2
305,315,309,305,2
306,316,320,304,2
307,315,330,303,2
309,314,333,301,2
310,310,324,298,2
310,304,307,295,2
310,295,292,293,2
309,288,286,292,2
309,284,285,292,2
308,280,289,292,2
308,276,293,294,2
307,273,295,295,2
306,269,298,296,2
305,265,300,299,2
306,268,303,304,2
306,277,306,309,2
306,288,308,312,2
306,296,308,314,2
305,300,305,315,2
304,302,301,313,2
303,305,298,311,2
304,309,296,309,2
305,312,297,307,2
306,316,299,305,2
308,318,301,303,2
309,317,304,300,2
310,313,308,298,2
311,310,311,299,2
312,307,315,300,2
312,307,318,304,2
311,310,319,308,2
310,315,319,312,2
308,319,316,314,2
306,323,312,313,2
305,324,309,311,2
304,323,306,307,2
304,323,305,303,2
304,323,304,297,2
304,322,303,290,2
305,318,304,285,2
307,313,305,285,2
309,309,307,291,2
311,305,309,299,2
311,301,311,308,2
312,296,312,313,2
313,293,312,315,2
314,293,311,313,2
314,298,312,308,2
313,307,312,301,2
312,318,312,294,2
311,328,310,286,2
309,337,306,280,2
307,343,303,278,2
306,339,300,280,2
304,326,299,285,2
303,309,300,291,2
303,291,301,297,2
304,275,303,303,2
306,264,306,308,2
308,258,309,311,2
309,255,311,313,2
310,253,314,314,2
311,254,319,317,2
312,259,324,321,2
313,268,330,324,2
313,276,335,325,2
313,282,337,322,2
313,288,336,318,2
312,296,333,312,2
311,301,329,306,2
309,305,325,300,2
308,309,317,295,2
307,314,309,292,2
305,317,303,292,2
304,320,301,294,2
304,323,303,297,2
304,327,306,301,2
305,331,307,306,2
306,335,307,311,2
307,337,305,316,2
308,335,305,320,2
310,333,306,323,2
310,333,307,326,2
311,329,309,327,2
311,322,310,323,2
311,315,312,317,2
310,308,313,310,2
311,303,314,303,2
310,298,316,296,2
308,297,314,291,2
307,298,312,288,2
305,301,309,287,2
304,302,310,287,2
304,300,312,286,2
304,295,316,285,2
304,285,319,283,2
306,269,319,281,2
308,251,315,281,2
310,240,309,284,2
310,241,305,291,2
311,254,302,301,2
310,271,301,313,2
308,287,303,322,2
305,299,306,330,2
303,307,311,335,2
303,312,315,336,2
303,314,319,334,2
304,317,321,332,2
304,319,321,331,2
304,322,322,332,2
305,323,324,334,2
305,324,327,335,2
305,322,326,335,2
305,319,324,335,2
305,316,318,332,2
303,311,310,326,2
302,308,302,317,2
300,305,295,308,2
298,304,291,299,2
298,305,289,292,2
298,308,289,290,2
299,311,290,293,2
299,313,292,301,2
300,315,295,309,2
302,317,299,318,2
304,317,301,323,2
305,312,303,325,2
305,304,306,323,2
305,294,311,319,2
306,286,318,315,2
307,283,326,312,2
308,288,331,309,2
307,300,330,307,2
306,311,326,306,2
304,316,320,304,2
302,315,316,301,2
303,312,313,300,2
304,310,311,299,2
306,310,311,299,2
308,314,310,299,2
310,324,309,298,2
311,336,307,296,2
311,340,305,294,2
310,334,304,291,2
309,322,304,292,2
308,309,304,294,2
308,299,306,297,2
308,294,307,300,2
307,293,308,302,2
307,295,308,303,2
306,299,310,305,2
305,303,312,305,2
304,304,314,305,2
304,304,317,303,2
304,301,321,301,2
304,298,326,301,2
305,294,330,303,2
306,292,336,308,2
308,293,338,315,2
309,297,335,321,2
309,301,328,327,2
308,307,317,330,2
307,314,304,330,2
306,319,294,325,2
306,320,288,316,2
306,317,286,306,2
306,308,287,297,2
307,298,289,290,2
308,287,290,286,2
309,278,292,285,2
308,272,295,286,2
306,271,297,289,2
304,280,298,292,2
301,299,298,295,2
299,321,297,298,2
297,335,297,301,2
297,338,298,303,2
298,333,300,305,2
299,325,301,306,2
301,321,303,308,2
303,319,305,311,2
305,322,309,314,2
307,329,315,316,2
307,337,320,315,2
306,337,319,312,2
304,326,311,307,2
304,306,303,305,2
304,283,299,306,2
304,267,298,313,2
304,263,298,323,2
303,268,298,331,2
301,278,298,335,2
300,288,299,335,2
300,297,301,331,2
300,303,304,324,2
299,306,307,314,2
300,308,309,305,2
300,311,309,297,2
302,313,307,291,2
303,315,303,287,2
304,318,300,284,2
305,321,299,284,2
307,324,300,285,2
308,325,303,285,2
308,321,309,285,2
308,313,314,288,2
308,302,319,293,2
309,292,321,299,2
308,287,319,304,2
305,287,316,308,2
303,290,315,314,2
302,293,316,318,2
301,297,317,320,2
299,303,318,321,2
298,311,319,321,2
297,318,320,319,2
298,321,320,316,2
299,320,317,312,2
300,316,313,308,2
301,314,310,305,2
302,318,308,306,2
303,325,309,308,2
305,330,313,313,2
308,333,317,319,2
311,336,322,324,2
312,340,324,327,2
313,342,323,327,2
313,338,319,326,2
311,328,316,322,2
310,318,317,317,2
310,310,320,312,2
310,303,324,308,2
311,294,325,306,2
311,283,325,305,2
309,271,323,306,2
305,263,325,307,2
302,261,333,308,2
299,265,342,310,2
297,274,346,308,2
297,285,344,305,2
299,295,339,301,2
301,303,331,296,2
302,311,319,293,2
303,317,306,291,2
304,321,296,290,2
304,320,289,288,2
304,314,286,288,2
303,307,287,287,2
304,301,290,288,2
304,298,293,289,2
304,294,297,290,2
304,289,302,293,2
305,283,307,296,2
305,281,313,301,2
305,286,318,306,2
305,294,323,310,2
305,302,326,314,2
305,308,331,315,2
304,311,337,315,2
304,312,342,314,2
305,312,344,313,2
305,311,342,313,2
306,310,337,313,2
306,310,331,313,2
305,310,323,313,2
304,312,315,313,2
304,317,307,314,2
304,321,304,313,2
304,321,306,313,2
303,318,311,312,2
303,311,314,312,2
303,306,312,312,2
303,303,308,313,2
304,304,303,315,2
305,305,300,318,2
305,307,297,318,2
303,309,295,315,2
303,311,294,311,2
303,313,295,307,2
304,311,297,303,2
305,306,300,302,2
306,301,305,305,2
307,297,312,311,2
307,296,319,318,2
308,300,322,325,2
307,310,323,329,2
306,324,322,331,2
305,336,320,331,2
304,343,318,328,2
304,343,317,325,2
305,336,316,322,2
305,326,314,319,2
306,318,311,318,2
307,313,308,322,2
307,310,306,329,2
308,310,305,333,2
308,313,304,334,2
309,317,302,332,2
309,321,301,326,2
309,323,298,318,2
308,324,297,308,2
309,325,297,299,2
309,327,298,292,2
309,326,300,288,2
308,321,304,287,2
308,309,307,288,2
308,292,310,292,2
308,280,313,297,2
308,277,316,302,2
308,282,317,308,2
306,288,318,314,2
306,294,316,319,2
307,298,315,321,2
309,300,315,321,2
310,302,314,317,2
309,303,313,310,2
307,300,314,302,2
306,297,317,295,2
306,294,322,288,2
306,295,323,284,2
308,297,322,281,2
309,299,318,279,2
310,300,309,279,2
312,300,302,279,2
312,299,298,280,2
313,299,298,282,2
312,301,300,284,2
310,305,305,286,2
307,311,311,290,2
305,317,318,294,2
304,321,327,298,2
304,326,334,301,2
304,333,334,302,2
304,341,331,304,2
306,347,329,306,2
308,352,325,308,2
309,352,320,309,2
310,347,317,310,2
310,334,315,311,2
312,318,313,313,2
313,305,310,314,2
314,296,304,314,2
315,292,297,312,2
314,290,290,307,2
314,289,285,303,2
315,290,285,300,2
314,296,286,299,2
313,301,287,298,2
310,304,289,298,2
309,305,290,299,2
307,307,290,300,2
306,310,291,303,2
305,311,292,307,2
304,309,293,311,2
304,304,294,314,2
303,298,296,316,2
302,295,298,316,2
302,294,300,317,2
304,296,302,317,2
306,297,301,317,2
307,295,300,315,2
309,293,298,311,2
310,293,298,308,2
311,294,298,306,2
312,297,298,303,2
312,302,298,302,2
311,307,298,302,2
310,311,298,302,2
308,313,297,299,2
306,314,297,297,2
306,314,297,296,2
306,313,298,296,2
306,311,299,297,2
306,312,300,300,2
306,314,301,305,2
306,318,302,309,2
307,324,303,314,2
308,329,305,317,2
308,333,307,318,2
308,334,309,316,2
308,333,311,313,2
307,331,313,308,2
306,326,313,303,2
306,319,311,302,2
307,310,310,303,2
307,301,311,305,2
309,292,313,308,2
310,287,315,311,2
311,285,318,313,2
311,286,323,313,2
309,290,326,313,2
308,296,322,316,2
307,301,312,318,2
307,304,300,319,2
306,306,291,317,2
306,307,287,313,2
305,309,285,308,2
306,311,285,304,2
305,315,288,299,2
305,321,292,296,2
306,327,299,295,2
307,332,305,297,2
309,337,308,301,2
309,337,310,305,2
311,327,309,309,2
312,312,307,312,2
313,298,307,312,2
312,286,309,312,2
311,278,313,312,2
311,275,319,312,2
311,276,322,312,2
311,281,324,311,2
311,286,323,308,2
309,292,317,306,2
308,298,307,304,2
307,304,300,306,2
307,309,296,310,2
308,312,295,315,2
309,313,295,320,2
310,313,296,323,2
311,312,297,324,2
312,309,298,323,2
313,303,300,320,2
315,296,301,316,2
317,289,302,312,2
318,284,303,309,2
318,280,303,306,2
318,278,303,303,2
315,279,302,301,2
314,282,301,299,2
313,289,301,298,2
312,299,302,297,2
310,311,303,296,2
308,324,303,295,2
307,336,303,293,2
305,347,303,291,2
303,353,304,291,2
303,353,308,294,2
303,347,314,296,2
304,337,320,300,2
305,325,323,303,2
307,314,323,307,2
309,306,322,310,2
310,301,321,311,2
311,298,320,312,2
312,297,319,311,2
313,298,320,309,2
314,299,322,308,2
314,301,322,307,2
313,304,318,307,2
311,306,314,308,2
310,306,313,308,2
310,303,314,308,2
310,301,315,308,2
312,301,314,307,2
313,302,312,303,2
312,305,309,299,2
309,309,305,297,2
307,311,302,296,2
306,312,300,297,2
307,308,297,298,2
308,302,295,300,2
309,300,293,303,2
310,304,292,307,2
310,313,292,310,2
310,325,293,313,2
310,337,295,316,2
311,346,296,318,2
311,348,297,317,2
310,344,297,314,2
310,338,298,309,2
309,331,300,303,2
309,323,303,299,2
309,313,308,297,2
311,303,314,300,2
312,298,318,309,2
313,298,321,320,2
313,301,321,327,2
312,301,316,332,2
311,300,310,333,2
311,296,306,332,2
312,293,305,328,2
313,290,305,323,2
315,288,305,317,2
316,288,306,312,2
317,291,307,308,2
317,296,307,307,2
318,303,306,308,2
318,310,306,309,2
318,313,305,311,2
317,312,305,311,2
316,306,305,310,2
314,300,304,310,2
312,297,305,311,2
311,296,306,312,2
309,296,308,312,2
309,299,308,311,2
309,302,307,309,2
311,306,306,306,2
312,310,304,302,2
312,313,304,298,2
313,315,304,298,2
315,314,306,299,2
316,310,310,301,2
317,305,314,303,2
316,302,317,305,2
315,301,321,304,2
315,303,323,303,2
314,305,320,301,2
313,309,313,301,2
312,314,308,300,2
310,317,304,300,2
307,318,304,300,2
307,317,306,297,2
307,315,308,294,2
307,313,309,290,2
307,311,308,287,2
307,311,307,285,2
307,310,305,286,2
307,308,301,288,2
308,306,296,293,2
308,304,293,298,2
308,300,292,303,2
308,295,293,307,2
308,291,295,311,2
307,290,297,313,2
307,292,300,314,2
306,298,302,311,2
306,306,304,307,2
305,316,307,305,2
304,327,308,306,2
304,337,308,308,2
304,343,308,310,2
304,345,309,312,2
304,340,311,315,2
305,326,313,317,2
305,311,316,319,2
305,299,317,321,2
306,292,318,322,2
307,288,318,322,2
308,286,315,322,2
310,285,311,320,2
312,285,307,317,2
313,284,305,315,2
313,285,305,313,2
313,288,308,314,2
314,291,311,316,2
314,295,314,318,2
313,299,314,320,2
310,303,311,322,2
307,307,308,322,2
304,311,305,322,2
302,313,303,321,2
299,313,303,322,2
298,313,305,323,2
298,314,308,325,2
297,317,309,327,2
298,322,310,329,2
299,327,309,330,2
299,330,307,327,2
300,331,305,322,2
301,330,304,316,2
303,326,303,312,2
304,319,304,311,2
304,311,305,312,2
305,304,307,314,2
306,297,309,318,2
307,289,311,320,2
308,282,313,322,2
307,282,314,322,2
305,289,316,320,2
303,301,319,317,2
302,317,323,312,2
300,331,327,306,2
300,338,330,299,2
299,336,331,292,2
298,327,329,285,2
297,316,322,280,2
296,309,314,275,2
295,306,305,273,2
294,304,297,272,2
294,302,293,272,2
296,300,293,275,2
297,299,296,279,2
298,298,300,283,2
299,298,304,288,2
300,299,307,293,2
300,302,309,297,2
300,306,308,301,2
299,310,306,304,2
300,314,304,307,2
301,317,301,309,2
302,318,298,310,2
303,318,296,311,2
304,317,295,311,2
305,318,295,311,2
307,324,295,311,2
308,335,295,313,2
310,347,295,314,2
310,355,296,313,2
310,355,295,309,2
309,345,295,305,2
308,324,296,303,2
309,297,300,304,2
311,273,307,305,2
313,263,315,308,2
314,271,323,310,2
314,287,329,311,2
311,302,328,310,2
310,311,320,310,2
308,315,309,309,2
307,315,300,307,2
305,313,296,305,2
302,311,293,303,2
300,309,292,303,2
300,307,292,303,2
299,304,293,303,2
298,301,294,302,2
297,299,296,301,2
297,298,297,301,2
298,298,297,301,2
299,298,298,304,2
301,298,300,310,2
302,298,302,317,2
304,300,305,326,2
306,303,308,335,2
309,306,312,342,2
310,308,314,348,2
310,310,315,351,2
308,312,315,353,2
306,314,315,352,2
303,317,314,349,2
302,322,313,345,2
302,329,312,338,2
301,335,311,331,2
301,338,311,322,2
299,336,311,314,2
298,333,312,308,2
298,328,314,302,2
299,320,318,297,2
301,313,320,291,2
303,303,322,286,2
305,293,320,282,2
304,285,314,278,2
303,278,306,276,2
302,276,299,277,2
302,277,296,280,2
303,284,296,283,2
303,292,297,286,2
302,299,298,288,2
302,304,300,291,2
301,307,302,294,2
300,309,304,297,2
300,310,305,302,2
301,308,306,308,2
302,304,309,316,2
303,305,312,324,2
304,307,315,331,2
304,310,317,334,2
305,312,319,335,2
307,316,319,334,2
308,321,317,333,2
309,327,315,331,2
309,331,314,328,2
310,333,312,323,2
310,331,309,318,2
310,327,307,315,2
308,322,306,311,2
307,313,307,307,2
306,302,308,302,2
305,293,310,299,2
304,287,313,297,2
303,284,315,295,2
301,285,315,294,2
301,288,314,292,2
301,292,310,290,2
301,296,306,289,2
301,298,303,290,2
301,300,300,292,2
301,300,298,295,2
302,299,296,298,2
303,298,297,300,2
304,297,299,300,2
305,296,302,301,2
306,297,305,303,2
307,301,308,308,2
308,306,309,314,2
307,312,310,319,2
305,317,311,322,2
304,320,309,321,2
302,318,307,320,2
301,315,305,319,2
299,312,303,317,2
298,311,301,314,2
298,314,301,312,2
299,320,302,309,2
300,322,303,305,2
301,321,303,300,2
302,316,303,296,2
303,312,304,294,2
305,308,306,294,2
307,306,309,296,2
309,305,314,296,2
309,302,317,297,2
310,299,321,297,2
311,294,324,297,2
312,290,326,298,2
312,288,327,299,2
311,290,323,302,2
308,300,317,305,2
305,316,310,308,2
303,332,303,310,2
300,345,298,311,2
298,353,295,313,2
296,358,294,314,2
297,358,295,317,2
298,354,297,320,2
299,348,299,323,2
299,341,301,325,2
301,334,302,325,2
303,324,302,324,2
304,316,302,322,2
305,313,303,320,2
306,310,306,318,2
307,307,310,316,2
307,303,312,315,2
307,300,312,313,2
306,298,311,310,2
305,295,309,308,2
304,293,310,305,2
303,292,312,307,2
302,291,316,312,2
303,289,320,318,2
303,288,323,323,2
305,286,324,326,2
306,286,320,325,2
307,286,315,323,2
308,288,308,319,2
308,289,302,314,2
308,288,297,309,2
307,288,294,303,2
306,290,292,296,2
305,292,290,290,2
304,294,290,286,2
304,295,290,284,2
305,297,292,285,2
305,299,294,287,2
304,302,298,291,2
304,306,301,295,2
302,310,304,301,2
302,314,306,307,2
302,317,307,313,2
302,318,307,316,2
303,316,305,316,2
304,313,302,312,2
304,311,298,307,2
305,310,295,300,2
306,308,294,292,2
305,306,295,284,2
303,301,297,277,2
302,295,299,275,2
301,293,300,279,2
301,298,300,286,2
302,306,301,294,2
303,314,303,301,2
304,318,308,307,2
306,319,314,310,2
307,318,318,310,2
307,312,320,309,2
306,304,320,310,2
305,300,316,311,2
304,304,311,313,2
303,316,307,315,2
302,332,304,315,2
301,345,302,315,2
301,352,300,313,2
301,349,299,310,2
301,333,298,306,2
301,311,297,302,2
303,290,297,299,2
304,280,298,298,2
305,277,299,299,2
306,277,300,300,2
307,278,302,302,2
307,280,303,305,2
306,281,305,307,2
306,282,306,309,2
306,281,307,309,2
305,281,308,310,2
304,285,308,311,2
304,292,309,312,2
304,299,311,314,2
303,305,314,316,2
302,314,316,321,2
300,323,316,325,2
299,326,315,330,2
297,322,312,334,2
294,316,311,338,2
290,308,312,341,2
288,300,315,342,2
286,294,316,339,2
284,291,314,334,2
284,291,310,326,2
288,293,306,318,2
294,294,304,311,2
301,292,304,304,2
307,289,305,296,2
311,285,307,289,2
312,282,310,284,2
313,285,313,281,2
312,295,315,279,2
311,310,314,281,2
309,326,309,284,2
308,333,303,289,2
307,326,300,298,2
306,311,300,308,2
306,299,302,320,2
307,292,305,329,2
307,287,308,336,2
306,281,309,340,2
304,278,309,341,2
302,279,308,340,2
301,283,306,334,2
301,288,303,325,2
300,293,301,315,2
300,298,301,306,2
299,304,301,297,2
298,310,302,291,2
298,316,301,286,2
299,320,301,283,2
302,321,302,281,2
305,321,306,281,2
307,322,311,283,2
308,323,315,288,2
309,322,317,292,2
308,321,318,296,2
307,318,315,299,2
306,316,310,299,2
306,310,304,297,2
306,298,300,294,2
306,284,298,294,2
307,272,297,295,2
307,266,297,298,2
309,262,297,303,2
310,264,300,310,2
311,272,306,317,2
312,282,312,324,2
311,293,319,327,2
310,304,324,328,2
308,316,325,328,2
307,329,320,325,2
306,340,312,321,2
304,347,303,316,2
304,347,297,309,2
303,342,295,303,2
303,334,295,297,2
304,319,296,293,2
304,302,297,291,2
305,286,299,291,2
306,277,301,294,2
307,277,304,298,2
308,283,306,303,2
308,292,310,309,2
308,301,312,314,2
306,308,312,319,2
307,314,310,324,2
308,319,308,329,2
309,323,308,334,2
309,326,309,338,2
308,324,309,342,2
308,319,307,345,2
306,314,305,346,2
305,311,304,346,2
305,309,304,344,2
305,307,306,340,2
305,304,308,333,2
305,300,309,325,2
304,296,307,316,2
304,294,301,305,2
303,295,295,296,2
304,300,293,287,2
306,307,292,282,2
308,312,293,280,2
311,314,295,279,2
312,312,298,280,2
313,306,302,281,2
311,298,308,284,2
309,289,314,287,2
307,282,318,289,2
305,281,319,290,2
303,283,317,290,2
302,288,311,292,2
301,295,303,293,2
301,305,298,297,2
300,316,297,305,2
301,324,297,315,2
302,328,299,324,2
303,329,301,329,2
303,327,303,328,2
303,320,304,325,2
305,310,303,321,2
306,301,304,317,2
307,292,304,312,2
309,286,305,306,2
310,282,306,302,2
311,281,306,297,2
311,281,305,294,2
310,285,303,290,2
309,290,301,286,2
309,296,299,281,2
309,301,297,276,2
309,304,296,273,2
309,305,295,272,2
308,302,296,274,2
307,302,297,279,2
307,309,299,286,2
308,319,301,291,2
309,324,302,295,2
308,323,303,299,2
308,318,304,303,2
309,311,304,307,2
310,304,303,309,2
312,299,303,311,2
313,297,305,311,2
313,298,311,311,2
313,303,318,310,2
312,309,323,310,2
310,317,323,311,2
307,327,316,313,2
304,335,308,316,2
301,340,302,319,2
298,340,299,321,2
296,337,297,323,2
295,331,297,323,2
295,322,299,320,2
296,311,299,317,2
298,304,300,314,2
300,300,300,311,2
303,297,300,306,2
307,293,299,303,2
310,289,299,301,2
313,287,299,303,2
314,287,300,307,2
315,291,302,313,2
314,299,305,319,2
315,310,310,325,2
317,321,315,328,2
317,329,320,328,2
317,331,325,325,2
314,328,326,317,2
311,321,321,308,2
307,313,314,299,2
304,306,308,293,2
303,303,305,288,2
304,303,301,286,2
306,305,297,287,2
308,306,295,291,2
308,307,294,296,2
306,309,295,299,2
305,310,295,300,2
304,307,295,297,2
304,300,295,293,2
305,294,294,288,2
308,287,292,283,2
311,282,291,281,2
313,278,292,281,2
314,276,294,284,2
315,277,296,290,2
315,282,299,296,2
316,289,303,300,2
315,296,307,300,2
314,300,311,301,2
313,303,316,303,2
312,306,318,305,2
311,308,318,307,2
311,310,314,309,2
311,311,306,312,2
312,313,299,315,2
313,319,294,320,2
313,325,291,323,2
312,330,290,325,2
312,332,291,324,2
313,331,293,322,2
313,330,296,321,2
315,330,299,320,2
316,331,300,320,2
315,330,301,318,2
314,325,302,316,2
312,317,302,313,2
310,307,303,311,2
309,298,302,309,2
307,290,302,305,2
305,282,301,302,2
304,279,301,298,2
303,284,302,296,2
303,296,301,293,2
303,310,300,291,2
304,321,300,290,2
305,329,300,292,2
306,332,301,298,2
306,330,302,308,2
306,321,304,320,2
307,308,306,331,2
307,297,310,340,2
308,288,314,347,2
308,283,318,351,2
308,283,320,352,2
308,289,319,349,2
307,295,314,341,2
306,301,309,329,2
304,304,305,316,2
302,305,304,304,2
301,304,307,294,2
300,305,312,288,2
301,307,317,284,2
302,313,319,282,2
303,319,316,282,2
302,324,310,282,2
301,329,302,282,2
300,330,294,282,2
299,327,290,283,2
298,319,291,287,2
298,313,295,292,2
299,308,301,300,2
301,304,305,308,2
303,298,305,317,2
305,289,303,325,2
306,282,302,330,2
307,283,303,332,2
308,289,307,332,2
309,296,312,329,2
309,302,318,326,2
308,306,322,321,2
307,308,323,318,2
306,310,321,316,2
305,313,318,315,2
305,319,313,314,2
304,324,308,314,2
304,326,304,315,2
303,326,301,316,2
304,323,300,319,2
305,318,301,318,2
306,311,303,317,2
307,304,306,315,2
309,299,309,313,2
310,297,310,310,2
310,297,310,306,2
308,296,308,303,2
305,294,306,299,2
303,292,305,297,2
301,291,306,295,2
299,292,306,294,2
298,296,306,295,2
298,303,305,296,2
298,310,304,298,2
299,316,303,301,2
300,320,303,304,2
300,320,304,308,2
301,319,304,313,2
301,318,305,318,2
301,318,307,322,2
302,319,309,327,2
303,319,312,331,2
304,318,315,333,2
305,315,317,333,2
305,311,316,330,2
306,306,313,326,2
306,303,312,321,2
305,300,313,316,2
304,296,316,310,2
304,292,320,305,2
303,289,322,301,2
303,288,323,300,2
303,289,323,302,2
303,291,324,307,2
303,293,322,311,2
303,295,321,315,2
304,296,318,316,2
304,298,313,317,2
303,302,308,318,2
302,308,305,320,2
303,316,305,323,2
303,322,307,325,2
303,326,309,327,2
303,326,311,327,2
302,322,312,325,2
302,316,311,321,2
301,310,309,317,2
301,305,308,315,2
302,304,307,314,2
303,308,307,313,2
304,314,308,310,2
304,317,306,306,2
303,316,304,302,2
302,313,303,298,2
301,307,302,296,2
302,302,302,295,2
304,301,303,295,2
305,302,304,295,2
306,305,306,296,2
306,308,309,298,2
307,310,311,300,2
308,312,314,303,2
310,313,315,305,2
311,311,313,306,2
311,307,307,306,2
309,305,302,304,2
307,308,299,302,2
305,312,298,301,2
304,316,299,300,2
304,318,299,301,2
303,318,298,302,2
302,318,298,302,2
301,316,297,304,2
301,315,299,305,2
303,315,302,304,2
304,315,305,304,2
303,313,308,303,2
303,310,310,301,2
303,307,309,300,2
303,304,308,299,2
305,301,307,300,2
305,299,307,301,2
306,300,307,302,2
306,304,307,305,2
306,312,308,311,2
307,318,309,317,2
307,323,311,323,2
307,325,311,328,2
306,327,312,330,2
305,328,311,329,2
305,329,311,326,2
304,332,311,322,2
304,336,312,318,2
305,341,312,316,2
306,344,312,314,2
305,342,311,313,2
304,338,313,311,2
303,333,318,309,2
303,325,325,309,2
306,316,332,309,2
309,308,337,310,2
312,300,334,309,2
313,293,323,308,2
314,285,312,306,2
314,277,304,305,2
314,273,299,305,2
313,272,295,304,2
312,275,293,304,2
311,278,292,302,2
310,278,291,299,2
310,276,292,296,2
310,277,295,294,2
309,284,298,293,2
308,292,299,296,2
308,300,299,304,2
308,307,298,315,2
307,312,297,324,2
306,315,296,331,2
305,317,296,334,2
305,317,296,335,2
305,317,296,334,2
305,317,296,330,2
305,317,296,326,2
305,319,297,322,2
305,321,297,320,2
305,323,298,318,2
305,325,301,315,2
305,324,303,313,2
304,320,304,310,2
304,315,305,307,2
305,309,305,302,2
305,303,306,298,2
306,297,308,293,2
305,294,309,289,2
305,295,310,286,2
306,299,309,285,2
305,305,305,285,2
305,311,299,285,2
304,314,294,287,2
303,316,292,291,2
303,320,291,297,2
304,326,292,302,2
305,333,293,307,2
306,338,295,310,2
308,335,297,311,2
311,324,300,313,2
314,307,302,313,2
316,292,304,313,2
319,283,304,312,2
318,280,305,312,2
315,285,304,311,2
311,293,303,309,2
309,298,303,307,2
307,301,303,304,2
305,303,305,301,2
303,305,309,299,2
303,308,314,297,2
303,311,319,296,2
304,315,322,295,2
304,318,322,294,2
303,320,318,293,2
303,318,311,293,2
303,311,304,295,2
304,302,299,298,2
305,295,294,302,2
306,291,292,306,2
307,289,292,308,2
307,288,296,310,2
307,288,300,314,2
308,288,303,318,2
307,291,304,322,2
307,294,304,325,2
306,301,304,326,2
305,313,303,327,2
306,324,303,329,2
307,333,303,333,2
308,336,304,337,2
309,335,304,341,2
309,331,305,344,2
309,328,304,344,2
310,328,303,339,2
310,330,301,328,2
309,334,300,316,2
308,337,299,304,2
307,341,299,296,2
306,345,299,290,2
304,341,299,288,2
302,331,300,286,2
300,319,301,285,2
300,306,302,284,2
299,294,302,283,2
298,283,302,282,2
297,276,301,281,2
297,274,301,281,2
297,277,302,282,2
298,283,302,283,2
299,288,303,285,2
300,291,302,289,2
301,289,302,293,2
302,285,303,299,2
304,277,304,306,2
306,268,306,312,2
307,265,308,317,2
308,268,312,322,2
308,278,318,326,2
308,292,327,329,2
308,305,336,329,2
308,317,342,327,2
307,328,341,321,2
306,336,333,314,2
304,339,321,307,2
303,337,308,301,2
302,334,298,298,2
301,329,293,297,2
301,326,291,298,2
301,323,292,301,2
301,319,293,303,2
302,312,295,304,2
302,305,298,304,2
302,299,301,304,2
304,296,307,304,2
307,299,312,305,2
309,304,317,305,2
310,307,318,304,2
310,308,317,302,2
309,305,315,300,2
308,302,314,298,2
308,301,312,299,2
309,301,311,301,2
310,306,307,302,2
309,315,304,304,2
308,325,300,306,2
307,331,298,308,2
307,330,296,310,2
307,326,296,312,2
308,321,296,314,2
308,316,296,316,2
308,311,296,317,2
308,305,298,317,2
308,299,301,316,2
308,294,306,317,2
308,291,310,319,2
309,291,311,321,2
310,292,309,323,2
311,295,307,325,2
312,299,306,326,2
312,304,306,326,2
311,308,306,323,2
311,311,306,318,2
310,313,305,310,2
308,308,305,302,2
307,300,304,293,2
305,291,303,286,2
305,283,302,280,2
305,276,301,278,2
306,274,300,279,2
306,279,300,284,2
307,291,299,290,2
308,307,298,295,2
308,323,299,298,2
308,335,300,298,2
308,341,302,295,2
308,340,301,293,2
308,334,300,292,2
307,324,299,294,2
307,317,300,296,2
308,313,301,299,2
308,316,302,301,2
307,321,303,302,2
306,328,303,303,2
304,333,303,303,2
303,334,304,303,2
302,332,304,303,2
302,328,305,303,2
302,323,307,304,2
303,314,309,303,2
304,302,312,302,2
305,294,313,300,2
306,290,314,300,2
307,286,314,300,2
308,280,313,300,2
309,271,308,301,2
310,262,304,303,2
311,255,301,307,2
313,256,301,311,2
313,265,303,317,2
312,278,306,323,2
310,291,311,325,2
308,301,316,325,2
306,308,320,322,2
305,313,321,318,2
304,318,319,316,2
303,323,316,318,2
303,328,311,322,2
303,332,304,327,2
302,339,298,331,2
302,345,294,335,2
301,345,291,337,2
300,340,290,336,2
300,336,290,332,2
300,332,291,327,2
302,327,292,320,2
304,323,293,312,2
306,319,294,304,2
307,316,295,295,2
308,311,295,285,2
308,303,295,278,2
307,291,296,274,2
307,277,298,272,2
307,267,300,272,2
307,259,302,275,2
307,256,305,279,2
307,257,308,284,2
306,268,309,290,2
304,284,308,294,2
303,302,307,299,2
302,318,304,305,2
301,329,303,309,2
300,329,304,314,2
300,320,305,319,2
301,308,305,325,2
302,301,304,329,2
304,300,301,330,2
306,303,299,325,2
307,310,298,316,2
307,318,298,308,2
307,323,300,300,2
307,323,302,295,2
307,321,305,293,2
307,316,306,292,2
307,307,305,292,2
306,294,304,293,2
305,277,304,294,2
304,263,303,296,2
303,255,302,296,2
303,255,300,297,2
304,264,300,297,2
305,280,300,297,2
305,294,299,297,2
306,302,298,296,2
306,307,298,296,2
307,312,299,297,2
307,316,301,300,2
307,320,304,304,2
306,323,306,308,2
306,323,308,311,2
305,320,310,315,2
305,314,311,319,2
304,306,311,323,2
305,300,309,324,2
305,295,307,324,2
304,291,305,321,2
303,289,304,316,2
302,290,302,311,2
301,293,301,306,2
301,298,301,303,2
301,300,303,300,2
301,301,306,297,2
302,303,309,297,2
303,307,312,297,2
303,309,315,300,2
304,311,316,303,2
305,314,312,305,2
305,315,306,307,2
306,311,302,309,2
307,306,300,312,2
307,302,303,316,2
306,304,309,324,2
306,312,315,335,2
305,322,320,346,2
305,332,324,356,2
305,339,325,363,2
305,341,322,368,2
306,338,318,370,2
306,332,315,368,2
306,326,312,363,2
306,321,309,355,2
307,317,306,343,2
306,313,303,330,2
305,309,301,315,2
304,305,300,301,2
305,304,299,291,2
306,306,298,284,2
307,306,298,282,2
308,305,301,283,2
309,301,306,286,2
310,292,311,291,2
311,283,314,297,2
311,279,315,301,2
310,280,315,305,2
309,284,314,308,2
308,288,314,309,2
308,289,315,307,2
307,286,317,303,2
305,279,318,298,2
304,272,317,293,2
302,273,316,288,2
302,279,314,283,2
303,286,311,280,2
303,293,305,279,2
302,299,300,280,2
304,306,296,281,2
305,311,295,282,2
307,316,295,282,2
309,320,295,283,2
310,321,297,284,2
310,321,297,286,2
308,322,298,288,2
306,324,300,289,2
305,326,301,288,2
304,327,301,287,2
304,325,301,287,2
305,320,302,288,2
305,315,301,290,2
304,312,302,293,2
304,311,303,296,2
304,309,305,300,2
304,308,306,303,2
304,305,308,305,2
305,304,310,308,2
306,305,311,311,2
308,309,312,315,2
311,316,313,320,2
313,325,315,325,2
315,331,316,328,2
315,328,315,328,2
314,316,315,325,2
312,302,315,322,2
311,292,316,318,2
311,288,319,313,2
311,290,321,309,2
312,295,321,305,2
313,299,320,302,2
312,303,317,298,2
309,307,311,295,2
306,310,306,294,2
303,312,304,294,2
302,314,304,295,2
301,314,306,296,2
302,313,309,298,2
303,312,312,301,2
304,311,312,303,2
304,312,309,307,2
304,315,304,311,2
305,317,300,315,2
306,319,299,319,2
307,321,299,320,2
306,321,300,320,2
306,317,301,318,2
307,307,302,315,2
307,295,302,311,2
306,287,303,309,2
305,286,302,311,2
304,292,303,315,2
304,301,304,318,2
304,309,305,321,2
304,316,307,321,2
304,317,311,321,2
303,310,316,320,2
303,301,320,322,2
304,291,321,324,2
305,284,317,326,2
305,283,310,328,2
306,291,304,330,2
305,304,300,330,2
306,317,299,329,2
306,330,299,325,2
305,338,298,320,2
303,339,297,317,2
302,332,295,315,2
301,321,294,314,2
300,312,295,315,2
301,309,297,317,2
302,310,300,318,2
303,312,303,317,2
304,312,305,314,2
305,308,305,310,2
305,301,304,307,2
305,293,302,305,2
306,287,300,306,2
307,288,299,306,2
308,293,298,307,2
308,298,298,305,2
307,302,296,302,2
306,304,295,298,2
305,308,294,294,2
304,313,294,290,2
303,316,294,288,2
302,316,295,286,2
301,311,294,286,2
299,304,294,287,2
298,300,294,289,2
298,298,296,292,2
300,299,300,297,2
303,304,306,303,2
304,312,313,308,2
306,321,317,312,2
308,329,318,315,2
311,332,315,315,2
313,327,309,313,2
313,316,302,307,2
311,304,297,299,2
309,294,294,292,2
308,288,293,288,2
310,286,294,287,2
311,287,298,289,2
312,291,300,291,2
311,298,301,294,2
308,305,301,296,2
306,310,302,300,2
305,313,304,304,2
305,312,308,309,2
304,311,312,313,2
305,312,317,317,2
306,317,319,319,2
306,323,316,319,2
307,328,313,317,2
307,330,310,315,2
306,328,308,312,2
305,324,303,309,2
304,319,300,308,2
303,311,297,307,2
303,303,294,306,2
304,296,292,307,2
305,294,292,308,2
306,297,292,308,2
307,305,293,307,2
307,313,296,304,2
306,319,299,301,2
306,320,304,296,2
305,316,309,293,2
305,310,311,292,2
305,304,312,293,2
306,300,309,295,2
307,299,307,296,2
308,298,305,297,2
309,297,304,297,2
308,295,303,297,2
307,292,301,295,2
306,288,299,292,2
304,286,298,289,2
303,289,297,286,2
302,297,296,284,2
303,304,296,283,2
303,311,297,286,2
304,319,299,291,2
304,321,301,298,2
303,321,302,305,2
302,319,303,312,2
301,317,307,318,2
301,315,313,323,2
301,311,320,326,2
301,309,325,326,2
301,309,327,324,2
300,309,325,322,2
299,309,318,319,2
299,310,309,316,2
298,312,300,315,2
298,317,294,313,2
298,321,291,312,2
298,325,289,309,2
299,328,289,307,2
300,329,290,305,2
304,324,293,303,2
306,315,298,302,2
308,305,303,302,2
308,297,307,303,2
307,290,310,306,2
306,283,313,308,2
305,282,315,308,2
305,289,315,306,2
305,300,311,301,2
304,308,308,296,2
303,312,306,292,2
303,312,305,290,2
302,312,305,290,2
301,313,305,291,2
300,316,304,291,2
300,319,302,291,2
300,321,302,291,2
302,319,302,292,2
303,314,303,294,2
304,308,304,297,2
304,302,306,301,2
303,296,307,306,2
303,293,309,312,2
304,292,309,319,2
305,290,310,327,2
306,290,310,334,2
306,291,312,338,2
306,297,314,339,2
305,307,316,336,2
303,320,317,329,2
302,333,317,320,2
302,344,315,313,2
302,346,310,307,2
302,334,308,303,2
302,314,307,299,2
302,292,306,295,2
302,274,302,292,2
301,266,298,291,2
302,268,296,291,2
303,275,296,293,2
303,282,298,296,2
302,290,301,301,2
302,296,304,307,2
303,301,306,313,2
303,305,308,318,2
304,309,310,322,2
304,315,311,324,2
305,320,313,323,2
306,325,316,320,2
307,328,319,315,2
308,330,320,310,2
308,329,319,307,2
308,319,316,304,2
307,306,312,300,2
305,295,307,297,2
303,289,306,296,2
302,287,307,296,2
302,288,310,297,2
302,290,312,300,2
303,291,311,302,2
304,290,309,304,2
305,290,306,306,2
306,292,304,308,2
306,297,303,310,2
306,304,303,314,2
305,311,305,317,2
305,316,307,320,2
304,318,310,322,2
304,318,311,321,2
303,317,313,319,2
303,314,315,316,2
303,311,316,313,2
303,309,317,309,2
304,309,316,306,2
304,308,313,301,2
305,305,308,296,2
305,300,303,291,2
306,294,299,288,2
307,288,296,288,2
309,282,296,291,2
310,276,297,297,2
312,273,300,304,2
314,277,301,311,2
314,284,303,318,2
312,291,304,324,2
310,297,304,328,2
307,303,305,327,2
306,309,305,325,2
305,312,305,323,2
304,313,304,321,2
303,313,305,319,2
302,312,307,318,2
303,310,309,317,2
303,309,311,315,2
305,306,311,313,2
306,304,312,310,2
308,304,312,309,2
309,305,313,311,2
311,309,314,315,2
313,315,317,320,2
314,321,320,323,2
315,322,323,323,2
315,319,324,317,2
313,313,320,307,2
310,310,313,296,2
308,308,306,287,2
306,304,301,281,2
304,303,298,279,2
304,305,298,279,2
303,306,301,282,2
303,306,306,286,2
304,306,312,290,2
303,313,317,294,2
303,321,321,297,2
303,324,322,299,2
305,317,322,301,2
306,305,320,305,2
307,294,315,308,2
307,286,309,311,2
308,281,305,314,2
309,280,303,318,2
310,280,304,323,2
311,284,306,327,2
310,289,309,331,2
309,295,311,332,2
308,300,312,329,2
307,305,313,323,2
306,308,313,315,2
305,308,312,304,2
305,308,309,294,2
304,308,306,288,2
304,308,302,284,2
304,308,300,283,2
303,309,298,282,2
302,309,297,282,2
300,304,296,282,2
299,298,294,284,2
302,294,294,287,2
307,293,296,292,2
312,293,299,296,2
315,292,302,298,2
314,292,304,300,2
311,292,305,301,2
307,295,306,303,2
305,299,307,304,2
304,303,306,303,2
304,306,306,301,2
303,311,306,300,2
302,316,305,299,2
303,323,304,301,2
303,329,303,302,2
304,334,302,303,2
305,338,301,304,2
306,340,300,304,2
307,336,299,302,2
306,323,299,300,2
306,304,299,299,2
308,291,302,302,2
309,290,305,307,2
312,295,309,316,2
314,300,312,330,2
315,301,314,346,2
316,300,317,359,2
316,300,321,366,2
317,301,325,368,2
316,302,330,362,2
316,301,333,348,2
315,298,334,330,2
313,293,332,312,2
309,288,326,297,2
307,283,316,287,2
306,279,307,281,2
307,277,303,279,2
308,276,300,279,2
309,277,298,281,2
308,279,295,283,2
308,282,292,285,2
308,287,291,286,2
308,292,291,285,2
309,299,292,284,2
311,304,294,283,2
311,308,297,282,2
312,311,299,283,2
313,313,303,285,2
312,315,307,287,2
312,317,309,290,2
311,319,310,294,2
311,319,310,297,2
310,318,308,300,2
309,317,305,301,2
308,318,302,300,2
306,322,298,297,2
303,327,296,295,2
302,334,295,295,2
302,338,294,295,2
303,341,293,296,2
306,339,293,298,2
307,330,294,301,2
309,318,296,303,2
312,309,301,308,2
314,301,306,311,2
315,293,312,314,2
314,287,317,317,2
314,285,317,319,2
313,285,316,320,2
311,287,314,317,2
309,288,312,312,2
307,291,310,307,2
305,293,309,304,2
304,296,309,304,2
304,299,309,306,2
304,302,310,309,2
305,304,312,311,2
305,306,313,311,2
306,308,313,309,2
307,309,313,307,2
307,310,312,306,2
308,311,311,306,2
308,314,309,307,2
307,317,306,308,2
306,316,303,309,2
306,313,301,311,2
306,306,300,312,2
306,297,301,314,2
308,284,303,314,2
310,270,306,312,2
310,261,310,309,2
311,260,313,306,2
311,263,316,303,2
311,268,317,299,2
311,275,318,296,2
311,285,319,294,2
310,298,321,295,2
310,310,325,298,2
311,317,329,302,2
313,319,332,305,2
313,319,332,307,2
315,318,328,309,2
317,318,320,311,2
317,316,311,313,2
315,313,305,316,2
312,312,302,319,2
310,312,301,322,2
309,313,301,327,2
308,315,300,332,2
308,317,300,336,2
307,319,300,340,2
306,322,300,343,2
305,323,301,347,2
303,322,301,351,2
302,318,302,352,2
301,313,302,349,2
301,310,302,340,2
300,308,301,327,2
300,306,300,312,2
300,303,299,298,2
300,300,298,286,2
302,298,298,278,2
304,295,298,274,2
306,296,299,271,2
307,299,300,270,2
309,307,301,269,2
310,316,303,271,2
310,325,304,276,2
310,334,306,283,2
310,338,308,291,2
309,336,311,299,2
308,328,313,304,2
306,318,314,308,2
305,307,314,312,2
305,295,314,316,2
304,285,315,318,2
304,278,314,320,2
303,274,314,320,2
303,272,313,319,2
303,272,312,317,2
303,273,311,314,2
304,275,311,311,2
305,278,312,309,2
307,281,313,307,2
308,285,313,306,2
309,289,313,304,2
308,291,311,303,2
308,292,310,302,2
309,293,310,301,2
309,294,311,301,2
309,295,312,302,2
308,298,311,302,2
307,301,308,300,2
306,305,304,296,2
305,308,302,293,2
305,309,300,292,2
305,307,300,294,2
306,308,301,298,2
307,313,303,303,2
309,317,305,308,2
309,317,308,312,2
309,314,314,315,2
308,307,321,314,2
308,299,327,312,2
307,293,328,311,2
306,292,325,312,2
305,296,320,315,2
305,300,312,319,2
304,305,305,322,2
303,308,299,324,2
302,309,296,326,2
302,309,295,329,2
302,308,296,332,2
303,307,299,334,2
304,306,303,336,2
305,306,307,335,2
304,305,308,333,2
303,304,305,329,2
301,304,303,322,2
298,306,301,315,2
297,310,299,307,2
296,316,297,300,2
296,322,295,295,2
298,328,295,290,2
300,328,294,286,2
302,322,295,284,2
304,311,296,282,2
305,299,298,282,2
307,293,300,283,2
308,288,302,285,2
307,283,303,287,2
306,275,303,289,2
307,267,304,293,2
306,265,306,297,2
305,271,310,302,2
305,281,314,309,2
305,292,319,318,2
306,300,322,329,2
307,305,322,341,2
308,307,321,349,2
309,308,319,355,2
310,308,317,357,2
310,307,312,355,2
311,306,309,350,2
310,307,307,343,2
310,307,309,335,2
309,308,314,327,2
308,312,318,321,2
308,315,320,315,2
306,319,319,308,2
305,323,313,300,2
303,325,304,291,2
301,324,295,284,2
301,321,289,279,2
302,318,287,276,2
303,314,287,275,2
303,310,288,275,2
304,308,290,276,2
304,310,291,278,2
304,314,292,281,2
305,315,294,284,2
306,312,296,288,2
309,307,298,295,2
311,303,302,303,2
312,304,305,313,2
313,311,310,323,2
314,321,317,334,2
315,329,324,340,2
314,332,330,345,2
313,333,333,347,2
313,333,331,348,2
311,333,325,346,2
309,332,315,339,2
307,332,305,328,2
306,332,298,315,2
304,331,295,305,2
302,324,294,299,2
300,313,294,296,2
299,302,294,294,2
300,293,295,292,2
301,287,296,291,2
303,282,297,291,2
304,281,297,289,2
305,279,297,287,2
305,280,297,285,2
307,279,298,284,2
309,278,299,285,2
309,280,301,286,2
308,282,301,286,2
305,283,301,286,2
303,284,301,284,2
301,284,302,282,2
300,284,302,280,2
300,287,303,279,2
301,294,303,279,2
303,298,303,282,2
306,300,303,287,2
309,298,305,294,2
310,299,307,302,2
310,299,310,311,2
308,297,314,320,2
306,297,317,329,2
305,297,318,336,2
305,299,317,341,2
305,300,314,342,2
306,302,311,339,2
305,304,309,334,2
304,306,308,329,2
303,309,307,326,2
302,311,306,326,2
301,313,305,324,2
301,314,303,320,2
301,316,302,315,2
302,317,301,309,2
302,320,300,304,2
303,322,301,298,2
304,323,303,294,2
305,320,308,291,2
306,315,312,290,2
307,312,316,289,2
309,314,319,291,2
311,317,320,294,2
313,321,318,297,2
313,323,314,302,2
314,322,310,305,2
314,315,307,308,2
314,305,306,310,2
314,295,306,314,2
315,289,308,318,2
317,287,312,320,2
317,295,314,322,2
315,313,314,322,2
313,327,311,319,2
309,329,308,313,2
306,319,306,304,2
303,306,305,296,2
301,300,304,289,2
300,299,305,284,2
299,299,307,281,2
297,298,306,279,2
296,296,304,281,2
296,294,301,284,2
296,293,299,289,2
298,292,298,295,2
300,292,298,301,2
301,293,299,303,2
301,295,299,304,2
301,299,300,305,2
300,302,301,305,2
300,305,301,304,2
300,307,302,302,2
301,306,303,301,2
302,303,304,300,2
303,300,306,300,2
303,298,306,301,2
304,300,307,304,2
305,306,307,307,2
305,313,307,308,2
304,322,308,307,2
302,328,307,306,2
302,333,306,306,2
303,335,305,310,2
305,335,305,315,2
307,335,306,322,2
310,334,308,328,2
312,331,311,334,2
313,326,314,336,2
314,321,317,335,2
313,312,318,328,2
310,299,316,318,2
309,287,312,309,2
308,278,308,301,2
308,270,305,296,2
308,265,303,294,2
308,265,302,295,2
308,269,302,297,2
306,274,304,299,2
305,281,306,299,2
304,292,307,299,2
306,305,307,299,2
310,315,307,300,2
315,326,308,303,2
320,337,310,310,2
325,345,314,319,2
331,348,319,328,2
333,345,323,337,2
327,342,327,344,2
318,341,328,349,2
307,338,324,350,2
295,332,319,348,2
285,327,314,344,2
281,323,311,339,2
284,318,309,331,2
289,310,309,322,2
297,300,308,313,2
305,289,308,308,2
314,281,306,306,2
318,281,305,308,2
315,288,303,310,2
307,297,302,311,2
301,303,301,310,2
298,305,301,305,2
297,305,302,299,2
297,304,304,291,2
297,304,309,285,2
299,303,315,282,2
304,303,323,281,2
308,304,329,282,2
310,303,332,286,2
310,299,326,289,2
309,294,316,292,2
307,292,308,296,2
305,295,304,299,2
302,301,302,299,2
299,310,304,298,2
297,317,306,297,2
297,318,309,298,2
298,316,311,300,2
299,312,312,303,2
301,308,311,306,2
304,306,307,307,2
307,308,303,306,2
310,310,300,305,2
311,314,300,303,2
311,323,302,301,2
310,335,304,300,2
308,345,304,298,2
307,348,303,298,2
306,341,301,298,2
304,324,300,299,2
303,307,300,301,2
303,295,301,302,2
303,290,301,302,2
304,292,302,301,2
305,301,302,301,2
305,312,303,300,2
307,320,304,301,2
308,322,305,300,2
309,316,305,300,2
310,307,306,300,2
311,296,306,301,2
312,283,306,303,2
313,271,307,307,2
314,263,310,311,2
314,258,314,315,2
313,261,316,318,2
312,269,318,320,2
311,279,318,320,2
308,288,317,317,2
306,296,316,314,2
304,301,314,311,2
304,306,313,308,2
306,308,313,305,2
308,310,313,304,2
310,311,312,305,2
311,313,312,309,2
311,315,313,316,2
310,317,315,324,2
310,319,317,332,2
309,318,319,338,2
308,316,322,342,2
309,314,324,343,2
311,315,324,340,2
313,318,321,334,2
314,322,317,326,2
314,327,310,319,2
313,332,304,314,2
312,332,300,312,2
310,329,298,315,2
308,329,299,321,2
305,330,300,327,2
303,331,300,330,2
302,330,300,329,2
303,324,301,324,2
304,315,302,317,2
306,304,303,308,2
307,295,304,299,2
308,286,305,291,2
309,278,305,286,2
310,271,304,283,2
311,265,303,281,2
311,264,300,280,2
309,270,297,279,2
309,281,295,280,2
309,293,294,280,2
310,305,295,282,2
311,315,297,283,2
311,322,301,285,2
311,327,305,287,2
311,329,311,286,2
310,328,316,285,2
309,327,318,284,2
310,323,318,285,2
311,318,315,287,2
311,313,308,290,2
310,307,301,293,2
310,301,297,297,2
310,292,294,299,2
309,284,294,300,2
308,276,295,299,2
308,270,296,296,2
308,264,298,294,2
309,257,301,293,2
310,254,303,293,2
312,255,305,296,2
314,264,308,301,2
317,280,310,309,2
319,298,311,315,2
322,313,310,320,2
323,323,310,324,2
320,328,310,326,2
315,328,309,326,2
311,326,309,326,2
308,324,308,324,2
305,324,307,322,2
304,326,307,321,2
302,327,307,320,2
302,330,310,320,2
303,332,313,318,2
306,333,315,313,2
309,330,314,306,2
311,319,310,299,2
312,305,304,293,2
312,290,300,291,2
314,279,297,292,2
315,276,297,294,2
316,284,296,297,2
316,298,296,301,2
315,312,296,303,2
313,322,297,304,2
310,326,298,304,2
308,328,299,305,2
307,326,300,304,2
307,323,301,303,2
307,320,301,302,2
308,320,300,301,2
310,321,300,304,2
312,322,301,310,2
315,324,303,318,2
316,325,305,326,2
317,325,306,334,2
315,325,308,341,2
312,323,310,347,2
311,319,312,349,2
311,313,314,345,2
311,304,315,337,2
310,295,314,329,2
309,289,313,323,2
307,285,312,321,2
305,284,314,319,2
304,284,319,317,2
304,283,325,313,2
304,281,330,308,2
305,278,329,301,2
304,276,319,294,2
303,274,309,287,2
302,272,301,281,2
302,271,297,277,2
303,274,295,276,2
305,281,295,276,2
306,288,294,277,2
306,295,294,279,2
306,299,294,282,2
306,302,295,285,2
307,305,296,288,2
307,310,298,292,2
308,317,298,294,2
309,327,298,295,2
308,338,298,296,2
308,347,297,297,2
306,352,296,297,2
304,352,297,296,2
302,345,298,295,2
299,332,299,293,2
299,321,301,292,2
299,312,303,291,2
300,304,305,291,2
299,294,307,291,2
299,285,308,292,2
300,279,308,296,2
302,280,308,301,2
304,288,306,305,2
304,299,304,310,2
306,308,303,313,2
307,313,303,315,2
308,312,305,316,2
309,305,307,319,2
310,298,311,321,2
311,299,315,323,2
311,310,319,325,2
310,327,320,325,2
309,343,318,323,2
308,352,315,320,2
305,352,311,315,2
302,345,306,310,2
301,333,303,306,2
299,323,302,303,2
299,316,303,303,2
300,310,304,304,2
300,304,304,306,2
302,299,304,309,2
303,292,305,313,2
305,284,307,316,2
306,277,311,318,2
307,273,314,319,2
307,271,317,320,2
307,271,318,321,2
308,273,318,323,2
308,280,318,325,2
306,291,317,328,2
304,301,316,329,2
302,309,314,330,2
301,314,311,330,2
300,316,309,327,2
301,314,307,321,2
302,309,305,313,2
303,305,304,305,2
304,301,303,298,2
305,300,303,294,2
305,299,306,293,2
305,300,309,296,2
305,303,312,302,2
305,308,312,310,2
303,309,311,317,2
301,309,309,322,2
301,310,309,324,2
302,312,309,323,2
303,313,311,319,2
303,315,313,314,2
303,316,313,308,2
302,318,313,302,2
301,320,311,298,2
299,322,309,294,2
298,325,306,291,2
298,328,305,289,2
298,334,306,288,2
299,342,309,289,2
301,349,314,291,2
303,352,319,292,2
305,352,320,293,2
307,347,316,293,2
309,336,308,294,2
310,320,300,299,2
311,302,295,307,2
311,287,294,317,2
309,274,295,325,2
305,264,299,332,2
303,263,303,337,2
301,266,306,339,2
299,272,308,340,2
297,277,309,337,2
297,282,309,332,2
297,287,308,325,2
298,294,305,316,2
298,301,303,308,2
299,307,303,303,2
299,311,305,301,2
300,313,308,300,2
302,314,311,299,2
302,314,312,297,2
303,314,312,295,2
303,315,307,293,2
304,315,301,293,2
306,313,298,295,2
310,311,296,300,2
312,308,296,307,2
310,307,298,314,2
308,308,301,322,2
305,310,305,327,2
303,313,308,330,2
302,317,310,329,2
301,319,310,322,2
301,318,310,312,2
301,313,308,302,2
302,306,305,295,2
302,302,301,290,2
302,304,298,288,2
302,309,298,288,2
300,314,298,291,2
300,317,298,296,2
301,318,297,300,2
300,318,295,303,2
299,318,295,304,2
298,319,296,306,2
298,320,298,308,2
302,324,300,309,2
305,326,302,311,2
309,326,302,314,2
311,327,302,317,2
312,328,302,319,2
311,331,301,320,2
308,333,301,319,2
306,335,302,316,2
304,334,303,312,2
303,330,305,308,2
301,320,306,304,2
300,306,307,300,2
300,290,307,298,2
300,276,306,297,2
300,265,304,294,2
300,256,305,290,2
301,252,309,289,2
303,253,315,290,2
305,260,321,293,2
308,270,326,296,2
309,282,328,298,2
309,295,328,299,2
309,306,325,299,2
307,315,320,298,2
304,323,311,297,2
301,329,303,298,2
298,334,298,302,2
298,338,296,308,2
300,340,297,315,2
302,339,299,320,2
304,336,302,322,2
305,331,303,323,2
304,325,303,323,2
304,313,302,320,2
303,297,302,317,2
304,281,303,313,2
305,275,305,309,2
307,279,308,305,2
308,286,310,299,2
307,293,311,295,2
306,296,310,292,2
305,297,309,291,2
304,297,308,292,2
303,299,307,293,2
302,302,307,298,2
302,306,308,304,2
302,309,310,311,2
302,311,312,316,2
303,312,315,319,2
304,311,317,320,2
304,310,316,319,2
304,306,313,315,2
303,302,309,311,2
303,299,306,307,2
303,298,304,305,2
304,300,306,303,2
304,304,310,301,2
305,309,315,302,2
305,318,319,305,2
307,334,321,309,2
309,354,320,314,2
310,374,316,319,2
311,391,311,325,2
313,396,308,329,2
313,384,306,330,2
312,356,305,330,2
313,321,306,327,2
313,289,307,322,2
312,267,308,316,2
312,257,308,308,2
310,256,309,301,2
309,260,309,295,2
308,269,309,292,2
308,279,306,291,2
309,289,304,292,2
313,298,303,294,2
314,304,304,297,2
312,310,306,300,2
308,311,308,302,2
305,308,310,303,2
304,301,312,306,2
304,296,312,310,2
305,294,312,315,2
305,298,311,319,2
304,304,310,321,2
304,312,310,322,2
303,316,309,322,2
301,313,308,322,2
300,299,307,320,2
300,285,305,320,2
301,274,305,320,2
302,268,306,320,2
303,267,308,319,2
303,271,309,319,2
302,280,310,317,2
302,291,309,314,2
301,301,306,311,2
301,306,305,308,2
302,308,305,305,2
303,308,308,301,2
303,309,312,297,2
303,310,315,294,2
303,312,316,292,2
301,315,313,292,2
301,318,310,292,2
302,317,309,291,2
303,315,313,291,2
303,310,319,291,2
302,307,324,292,2
300,306,327,293,2
299,309,324,294,2
298,314,316,295,2
298,320,308,295,2
299,327,302,295,2
301,333,298,295,2
302,336,297,296,2
305,335,297,297,2
306,330,297,299,2
305,319,297,300,2
303,304,298,301,2
302,287,298,300,2
301,272,300,300,2
301,265,302,301,2
301,266,305,304,2
300,276,307,311,2
299,288,309,320,2
299,300,310,329,2
299,310,311,335,2
300,316,312,337,2
300,317,312,335,2
298,317,311,330,2
298,317,309,323,2
298,319,307,316,2
300,323,308,308,2
301,325,311,299,2
302,324,317,292,2
303,317,323,289,2
304,308,327,289,2
306,300,328,293,2
308,296,325,296,2
309,292,320,299,2
309,289,314,300,2
306,286,310,300,2
303,286,305,299,2
300,289,302,298,2
299,293,300,297,2
299,297,301,297,2
299,298,301,298,2
300,299,302,300,2
301,299,303,304,2
302,302,305,308,2
303,304,305,313,2
302,307,305,318,2
301,309,305,323,2
300,310,305,327,2
301,308,304,331,2
302,304,304,332,2
302,303,306,333,2
302,310,307,332,2
302,319,308,330,2
302,326,309,327,2
302,329,310,322,2
302,331,311,315,2
302,334,312,308,2
301,336,311,303,2
302,335,311,303,2
304,332,310,304,2
305,330,310,307,2
305,328,310,309,2
303,325,309,308,2
302,321,309,306,2
301,317,310,304,2
301,314,310,303,2
302,309,310,301,2
302,303,309,300,2
303,296,310,301,2
305,290,311,303,2
307,284,312,307,2
308,279,312,311,2
310,275,312,316,2
311,273,313,319,2
312,274,315,319,2
312,276,318,317,2
311,281,322,314,2
310,290,325,311,2
308,301,327,310,2
306,313,325,309,2
304,323,323,306,2
301,331,316,302,2
298,333,305,297,2
296,328,296,292,2
296,317,291,288,2
296,307,289,287,2
296,301,289,288,2
296,299,290,290,2
297,300,291,291,2
298,298,291,291,2
299,296,293,291,2
300,294,294,291,2
301,291,297,293,2
302,289,300,296,2
302,286,304,300,2
303,285,308,304,2
303,288,312,307,2
304,292,316,311,2
305,298,320,314,2
304,302,323,315,2
304,306,322,313,2
303,307,319,310,2
302,304,315,307,2
301,299,309,303,2
299,292,302,301,2
299,289,298,300,2
300,292,296,300,2
301,298,295,300,2
302,303,294,302,2
304,305,292,307,2
307,304,291,315,2
307,304,292,321,2
305,303,295,325,2
304,305,299,326,2
304,306,304,324,2
304,308,309,320,2
305,311,312,314,2
305,313,312,308,2
302,314,309,303,2
300,313,305,300,2
297,312,303,300,2
296,310,302,302,2
295,310,302,304,2
296,311,303,309,2
297,312,305,314,2
299,313,306,319,2
301,313,308,323,2
303,312,309,327,2
306,313,311,330,2
307,317,310,329,2
307,318,307,326,2
306,317,304,320,2
305,313,302,315,2
304,306,301,310,2
304,299,302,305,2
304,295,302,299,2
303,293,302,292,2
303,295,302,286,2
301,301,302,281,2
299,306,301,278,2
297,308,301,277,2
296,306,302,280,2
295,303,304,282,2
294,302,305,283,2
293,304,305,286,2
291,307,305,291,2
292,309,304,298,2
294,311,305,307,2
297,309,307,313,2
300,306,309,318,2
303,303,310,321,2
304,302,310,323,2
306,303,310,323,2
308,305,312,319,2
309,307,317,312,2
308,308,323,306,2
307,310,328,301,2
304,312,329,297,2
302,315,323,293,2
300,318,315,289,2
299,321,308,287,2
299,324,303,285,2
299,326,298,284,2
299,325,294,284,2
298,317,291,285,2
297,303,290,286,2
297,290,291,287,2
296,283,291,288,2
295,280,291,288,2
297,278,292,289,2
300,276,294,291,2
303,274,297,293,2
306,277,301,295,2
308,283,304,298,2
309,289,308,302,2
310,292,312,304,2
311,293,315,307,2
310,292,317,308,2
309,294,316,309,2
308,301,314,311,2
307,310,313,314,2
307,318,312,316,2
307,325,310,317,2
306,332,309,318,2
306,339,308,317,2
304,345,308,317,2
302,349,307,319,2
301,349,307,326,2
300,343,307,334,2
301,332,308,340,2
301,323,310,341,2
303,318,315,339,2
303,317,319,333,2
306,318,323,325,2
308,316,323,316,2
310,313,320,307,2
309,308,315,299,2
306,301,310,293,2
303,296,306,288,2
301,294,304,286,2
300,293,303,286,2
299,290,302,288,2
298,287,302,291,2
298,284,300,296,2
299,283,298,298,2
300,284,297,300,2
301,289,297,300,2
301,296,297,300,2
301,302,298,300,2
300,306,298,299,2
300,305,298,300,2
300,299,300,301,2
300,291,302,303,2
299,286,303,306,2
300,285,304,309,2
302,287,304,310,2
303,289,305,308,2
303,291,305,304,2
303,294,304,302,2
302,298,304,300,2
302,303,304,300,2
302,308,304,301,2
300,310,303,303,2
299,309,302,305,2
298,305,301,307,2
299,298,302,309,2
301,291,304,312,2
303,285,307,314,2
306,281,310,315,2
307,282,311,315,2
308,287,310,316,2
308,296,308,317,2
309,305,305,319,2
309,314,304,320,2
310,319,305,318,2
308,318,308,313,2
306,316,311,307,2
304,316,314,301,2
303,315,312,297,2
302,313,306,295,2
301,311,301,296,2
302,312,299,301,2
304,316,299,305,2
305,321,300,310,2
307,323,300,314,2
307,322,302,317,2
305,319,305,319,2
304,317,307,321,2
307,315,310,322,2
313,313,311,322,2
317,309,309,320,2
316,304,307,318,2
312,297,307,315,2
309,291,307,314,2
306,286,309,313,2
304,284,310,315,2
302,285,308,319,2
300,288,304,324,2
301,290,301,327,2
303,294,299,327,2
305,300,299,322,2
306,307,299,315,2
305,314,299,308,2
304,320,298,300,2
304,327,298,294,2
305,330,298,288,2
307,327,298,284,2
308,320,301,282,2
308,309,305,281,2
306,297,309,282,2
303,286,311,284,2
302,274,311,287,2
302,261,309,290,2
305,250,305,292,2
307,245,301,294,2
307,247,300,298,2
307,258,300,304,2
306,273,302,311,2
305,289,303,317,2
304,306,304,322,2
304,320,305,326,2
303,329,305,327,2
303,334,307,326,2
303,336,308,324,2
303,339,310,323,2
304,343,311,322,2
305,348,312,323,2
306,350,311,322,2
307,347,307,321,2
308,335,303,319,2
309,320,299,318,2
307,312,296,316,2
305,310,295,315,2
303,309,295,315,2
303,306,297,315,2
304,303,300,315,2
305,299,302,312,2
305,295,303,307,2
304,292,304,301,2
305,288,305,296,2
306,287,306,292,2
309,288,309,290,2
312,291,312,291,2
315,295,315,292,2
313,299,318,292,2
309,302,321,293,2
304,305,322,294,2
300,307,318,295,2
298,308,309,295,2
298,309,300,296,2
300,310,295,296,2
303,311,292,297,2
306,314,291,298,2
309,317,292,299,2
311,319,293,301,2
313,316,295,303,2
312,312,298,306,2
311,306,299,308,2
309,301,301,311,2
309,298,302,312,2
307,298,303,312,2
307,302,304,310,2
306,307,305,305,2
306,310,305,301,2
306,311,305,299,2
306,313,304,298,2
307,316,303,300,2
306,320,303,303,2
305,324,302,306,2
304,324,302,309,2
303,321,302,310,2
303,315,303,311,2
303,311,304,311,2
304,310,306,312,2
305,310,306,313,2
306,309,308,313,2
306,307,313,311,2
307,302,318,308,2
309,295,322,306,2
312,290,325,304,2
314,287,325,302,2
313,287,325,301,2
309,288,325,300,2
305,290,323,299,2
303,293,319,300,2
301,297,313,301,2
300,303,306,302,2
298,308,300,303,2
298,313,297,303,2
299,318,295,304,2
302,323,295,305,2
304,330,296,307,2
305,341,297,312,2
305,355,298,321,2
304,366,300,332,2
304,369,302,339,2
305,365,305,342,2
307,355,309,341,2
309,339,311,336,2
310,318,312,328,2
310,295,312,319,2
309,275,311,312,2
307,262,308,306,2
307,254,305,300,2
306,251,303,295,2
305,255,301,291,2
304,262,299,288,2
302,270,297,288,2
301,277,296,289,2
301,282,295,292,2
301,285,296,296,2
302,287,297,301,2
304,288,298,307,2
306,290,302,314,2
308,294,306,321,2
310,303,310,328,2
311,314,314,332,2
311,325,316,335,2
310,333,314,333,2
309,340,311,330,2
308,345,307,327,2
307,345,306,325,2
307,339,306,324,2
307,331,307,325,2
307,323,307,325,2
307,313,306,323,2
308,305,306,319,2
308,298,306,314,2
308,292,309,309,2
309,284,309,306,2
310,278,305,304,2
310,276,299,304,2
311,277,294,303,2
312,281,291,302,2
314,285,290,300,2
315,288,290,300,2
312,291,292,300,2
307,297,294,301,2
303,303,296,302,2
301,310,297,302,2
300,316,298,300,2
300,320,298,296,2
301,320,298,291,2
302,316,298,287,2
303,311,298,284,2
304,308,298,283,2
304,310,299,282,2
304,317,299,282,2
304,325,299,283,2
303,330,299,286,2
303,329,298,290,2
302,324,299,296,2
303,318,299,303,2
305,310,300,309,2
309,303,302,312,2
313,298,307,313,2
314,292,315,312,2
312,287,322,309,2
308,283,326,305,2
305,283,327,299,2
302,286,323,295,2
301,289,317,294,2
301,294,311,294,2
304,300,307,296,2
308,308,304,299,2
309,319,301,302,2
308,329,297,302,2
306,338,294,302,2
303,342,292,300,2
302,337,292,299,2
303,324,294,299,2
305,309,296,301,2
306,296,298,304,2
305,286,301,307,2
305,280,303,311,2
305,280,306,314,2
306,284,309,316,2
306,289,311,316,2
304,292,311,316,2
301,291,309,317,2
299,286,307,320,2
298,281,305,326,2
297,277,305,330,2
297,273,304,331,2
298,271,304,330,2
300,274,303,325,2
302,279,302,319,2
303,284,301,312,2
303,291,300,306,2
304,302,300,303,2
303,313,300,303,2
303,324,300,304,2
304,333,301,307,2
305,339,302,307,2
306,340,303,308,2
306,336,305,310,2
305,327,307,313,2
305,313,308,316,2
303,300,308,319,2
302,291,309,323,2
300,287,308,325,2
299,289,306,326,2
298,295,304,325,2
297,300,304,323,2
297,304,305,319,2
297,307,308,313,2
299,309,310,308,2
301,310,313,305,2
302,310,314,304,2
303,310,312,304,2
303,310,307,305,2
303,309,302,307,2
304,308,300,310,2
306,309,301,313,2
308,312,303,316,2
310,315,306,316,2
310,317,308,313,2
309,318,307,308,2
308,318,304,302,2
308,316,302,297,2
308,312,300,293,2
309,309,298,289,2
310,310,297,285,2
311,316,296,282,2
312,322,296,282,2
310,328,296,283,2
310,331,297,285,2
312,332,298,288,2
311,327,298,290,2
308,314,299,293,2
304,298,301,299,2
303,282,304,304,2
303,271,307,310,2
305,268,308,313,2
308,272,309,314,2
309,278,309,314,2
310,284,308,312,2
308,290,307,310,2
307,295,306,309,2
305,299,307,307,2
303,302,308,307,2
302,306,309,307,2
302,309,309,307,2
303,313,310,308,2
304,315,311,308,2
304,318,309,308,2
305,319,306,306,2
306,319,303,303,2
307,318,300,300,2
309,316,298,297,2
311,312,298,296,2
313,305,299,296,2
314,298,301,297,2
313,292,305,300,2
311,291,311,303,2
309,295,316,307,2
309,297,318,310,2
309,297,319,313,2
308,294,318,316,2
305,289,316,318,2
303,283,314,318,2
301,280,312,316,2
300,284,309,313,2
299,294,304,310,2
298,304,300,308,2
299,312,297,307,2
299,315,295,309,2
299,313,295,311,2
300,308,295,312,2
301,304,297,313,2
301,299,299,316,2
302,295,301,320,2
304,292,303,323,2
306,290,304,324,2
309,292,306,325,2
311,300,308,325,2
313,311,310,324,2
314,325,311,323,2
313,338,312,321,2
311,349,313,318,2
309,356,313,316,2
307,356,313,313,2
306,349,312,308,2
305,335,310,303,2
304,317,308,299,2
303,300,307,296,2
303,288,305,294,2
301,281,303,294,2
301,277,301,296,2
301,278,299,298,2
302,282,299,300,2
302,289,298,301,2
303,298,299,302,2
303,308,300,302,2
305,318,301,302,2
305,328,302,302,2
305,334,302,302,2
304,334,302,302,2
304,330,303,303,2
304,322,305,303,2
304,315,307,304,2
305,310,310,305,2
306,306,313,307,2
307,303,315,312,2
307,298,316,316,2
305,293,315,321,2
304,289,313,324,2
304,290,310,326,2
308,293,308,325,2
314,296,307,321,2
318,298,305,314,2
317,297,302,305,2
312,294,298,297,2
307,289,296,293,2
305,282,297,294,2
303,278,301,298,2
302,278,308,306,2
299,285,315,314,2
297,298,320,320,2
296,311,319,325,2
296,320,313,328,2
299,323,307,329,2
301,323,303,329,2
301,318,300,326,2
302,311,297,320,2
301,302,296,315,2
302,295,295,310,2
302,295,294,305,2
302,300,293,300,2
303,307,293,295,2
304,312,293,291,2
305,312,294,289,2
306,309,296,289,2
306,305,299,292,2
306,302,301,295,2
307,300,304,297,2
307,301,306,300,2
308,303,307,303,2
309,306,308,307,2
309,309,308,310,2
308,313,308,311,2
309,318,307,312,2
309,325,306,310,2
310,333,305,309,2
311,340,303,309,2
311,345,302,312,2
311,343,300,312,2
311,334,298,309,2
312,320,297,303,2
314,300,299,297,2
315,278,305,291,2
315,265,313,289,2
314,263,321,289,2
312,268,326,292,2
310,273,326,295,2
308,278,325,299,2
306,286,321,303,2
306,296,318,305,2
306,307,315,306,2
305,318,313,306,2
303,328,310,306,2
301,338,308,307,2
299,342,305,309,2
297,337,302,311,2
297,328,300,314,2
299,319,300,317,2
300,312,300,320,2
300,308,302,325,2
301,307,303,330,2
301,307,303,334,2
302,306,303,335,2
304,305,302,333,2
305,304,301,329,2
307,307,300,322,2
308,311,299,312,2
308,314,298,302,2
309,317,296,293,2
308,321,295,283,2
308,324,294,274,2
308,325,294,267,2
309,322,294,262,2
310,312,295,260,2
312,295,297,260,2
312,270,299,263,2
312,246,301,269,2
312,235,303,280,2
310,241,305,292,2
308,260,306,302,2
306,280,305,308,2
304,295,304,309,2
303,303,302,307,2
305,307,301,305,2
308,309,301,302,2
310,310,303,302,2
311,312,306,303,2
312,315,308,305,2
310,318,311,308,2
307,321,312,310,2
303,324,310,312,2
300,326,308,314,2
299,327,305,317,2
298,325,304,319,2
298,322,304,322,2
298,317,304,325,2
298,313,305,326,2
298,312,306,326,2
297,313,307,325,2
297,315,308,324,2
297,316,308,322,2
297,315,308,319,2
299,312,309,316,2
303,310,309,313,2
306,313,310,311,2
309,317,312,308,2
311,321,315,302,2
310,322,318,297,2
309,321,319,292,2
308,317,317,290,2
308,312,315,289,2
308,309,315,289,2
307,306,316,290,2
305,304,316,292,2
304,302,314,295,2
303,300,312,297,2
304,296,309,297,2
307,294,305,298,2
310,294,300,298,2
311,297,296,300,2
310,302,293,303,2
308,310,292,306,2
305,321,292,309,2
303,330,292,313,2
303,333,292,317,2
303,327,294,322,2
305,315,297,330,2
307,302,300,337,2
308,289,303,342,2
308,279,306,343,2
309,271,308,342,2
309,265,309,339,2
309,262,310,334,2
310,266,310,329,2
310,277,310,324,2
311,290,309,318,2
310,302,307,310,2
308,311,304,303,2
307,315,302,297,2
307,316,301,294,2
307,315,301,291,2
307,312,301,291,2
307,309,301,290,2
307,305,302,291,2
307,302,303,292,2
308,300,303,293,2
308,300,304,292,2
309,300,306,289,2
308,302,309,286,2
307,307,310,285,2
305,316,308,285,2
304,328,304,286,2
304,343,301,288,2
302,357,299,290,2
301,368,298,292,2
301,371,297,295,2
301,363,297,298,2
302,346,299,303,2
304,327,302,309,2
307,310,305,316,2
310,296,309,322,2
311,285,310,327,2
312,279,310,329,2
312,275,307,329,2
313,271,305,326,2
313,270,304,323,2
314,274,304,320,2
315,280,306,316,2
317,284,309,312,2
317,282,311,308,2
315,281,312,306,2
310,283,312,304,2
304,287,312,304,2
301,291,312,304,2
300,295,311,305,2
301,298,311,307,2
302,300,312,308,2
304,300,313,309,2
306,300,315,311,2
309,300,317,311,2
311,300,320,311,2
313,300,322,310,2
313,300,321,309,2
312,300,319,309,2
310,302,317,309,2
307,304,316,311,2
304,305,315,311,2
302,305,310,310,2
302,303,307,308,2
303,303,307,304,2
304,305,306,302,2
305,307,303,301,2
307,310,297,301,2
307,313,294,300,2
305,314,291,300,2
302,312,289,300,2
299,308,288,301,2
298,306,288,302,2
298,306,288,303,2
299,309,290,304,2
300,316,290,306,2
301,327,291,308,2
302,336,292,309,2
303,338,292,311,2
304,335,294,314,2
306,326,295,317,2
308,315,297,321,2
311,304,301,324,2
313,296,306,330,2
315,293,312,338,2
316,295,316,344,2
317,300,319,348,2
317,307,319,346,2
314,310,316,338,2
311,308,312,326,2
307,299,308,312,2
304,287,306,300,2
304,275,305,292,2
305,265,304,288,2
307,258,303,287,2
308,255,302,290,2
309,257,303,296,2
309,265,304,303,2
307,276,305,310,2
306,289,306,314,2
306,302,305,314,2
306,313,305,314,2
306,322,305,313,2
306,326,306,312,2
305,327,306,312,2
304,324,306,311,2
304,320,307,310,2
305,315,307,309,2
307,313,308,309,2
312,314,308,311,2
314,316,309,312,2
313,317,309,312,2
309,319,308,311,2
306,321,306,307,2
304,320,304,303,2
304,316,301,299,2
305,310,300,295,2
305,306,299,294,2
304,306,300,293,2
303,309,303,294,2
303,314,305,297,2
302,319,308,300,2
302,324,311,303,2
304,329,314,306,2
304,332,318,309,2
305,331,318,312,2
304,326,318,315,2
303,319,315,319,2
303,308,314,320,2
304,298,312,319,2
306,290,310,316,2
309,284,307,313,2
311,278,306,309,2
311,272,305,305,2
309,264,304,302,2
307,255,303,299,2
306,252,302,299,2
305,258,299,299,2
305,269,296,300,2
306,282,295,303,2
307,294,296,304,2
308,303,298,304,2
309,311,302,301,2
311,319,308,299,2
311,326,313,297,2
311,329,317,296,2
309,327,318,298,2
307,322,318,302,2
305,317,314,307,2
303,313,310,310,2
301,309,308,312,2
300,307,305,312,2
299,304,303,311,2
302,300,301,308,2
308,299,300,306,2
315,298,298,304,2
320,298,297,302,2
325,297,296,299,2
324,296,296,298,2
318,296,296,298,2
311,296,297,301,2
308,298,299,305,2
306,301,302,308,2
306,304,307,309,2
305,308,310,308,2
305,314,312,306,2
305,318,312,303,2
304,322,309,301,2
303,326,304,303,2
302,332,299,308,2
301,336,297,314,2
302,338,297,318,2
305,336,298,321,2
309,334,298,321,2
314,329,298,320,2
316,320,297,317,2
316,309,298,313,2
315,302,298,308,2
312,297,299,303,2
310,292,301,300,2
309,286,303,300,2
308,280,306,303,2
307,281,308,306,2
306,286,307,308,2
304,294,306,307,2
303,298,304,302,2
301,298,303,297,2
299,297,304,292,2
298,295,305,289,2
298,297,307,289,2
299,302,310,291,2
300,308,311,295,2
300,313,311,299,2
301,316,309,303,2
302,316,307,306,2
303,314,306,308,2
303,311,307,310,2
306,309,311,313,2
310,309,315,315,2
314,309,319,317,2
317,309,321,319,2
319,309,318,319,2
318,313,313,317,2
316,318,307,314,2
313,322,303,311,2
311,325,301,308,2
309,326,299,306,2
307,325,299,304,2
306,322,299,302,2
305,317,300,300,2
306,313,300,298,2
306,311,300,299,2
308,311,300,302,2
310,315,301,306,2
312,321,303,309,2
313,327,304,310,2
313,327,306,310,2
312,320,307,311,2
312,312,308,315,2
313,307,310,321,2
314,305,312,327,2
314,307,313,331,2
312,310,312,332,2
311,312,310,328,2
310,308,308,318,2
309,298,306,306,2
309,287,304,295,2
309,278,303,286,2
309,272,302,280,2
309,273,302,277,2
308,278,303,277,2
308,285,304,280,2
307,291,304,284,2
306,294,303,287,2
305,294,302,289,2
303,294,301,291,2
302,296,300,293,2
303,299,300,295,2
304,302,301,296,2
305,308,303,300,2
307,315,306,303,2
308,317,312,308,2
308,315,318,314,2
307,312,324,320,2
309,309,328,327,2
311,307,329,332,2
313,306,328,333,2
314,307,325,331,2
313,309,320,327,2
312,309,318,322,2
311,308,318,317,2
310,306,318,313,2
310,304,314,311,2
310,301,309,310,2
309,298,304,309,2
309,300,302,310,2
309,310,300,312,2
309,321,300,313,2
309,329,299,314,2
313,334,302,316,2
317,336,306,318,2
318,334,311,322,2
315,329,314,327,2
312,323,318,333,2
310,317,321,336,2
307,313,322,335,2
306,310,322,331,2
306,307,321,324,2
308,303,319,315,2
311,299,314,306,2
312,298,308,299,2
314,302,304,294,2
315,309,303,290,2
314,316,303,289,2
312,321,303,289,2
308,323,304,291,2
307,317,304,296,2
307,304,304,302,2
309,289,304,308,2
311,278,307,313,2
314,273,310,318,2
315,272,314,321,2
316,277,317,322,2
315,286,317,321,2
314,296,314,317,2
312,304,310,311,2
310,308,306,304,2
308,313,305,297,2
305,318,304,292,2
303,324,303,290,2
300,332,301,292,2
299,340,301,297,2
298,346,300,301,2
299,345,299,303,2
302,336,298,302,2
306,322,298,300,2
310,310,298,298,2
313,300,298,295,2
314,293,298,292,2
314,289,298,291,2
314,290,298,290,2
313,294,299,290,2
312,298,301,292,2
310,297,304,294,2
310,292,307,295,2
311,287,310,296,2
312,284,312,297,2
312,282,314,298,2
311,282,312,298,2
309,285,309,296,2
307,290,304,295,2
304,295,301,293,2
303,298,299,294,2
302,300,299,297,2
302,300,299,300,2
301,300,299,303,2
302,298,300,306,2
303,295,300,311,2
305,295,301,318,2
306,297,300,326,2
306,301,300,335,2
306,306,300,341,2
307,311,299,344,2
308,314,299,342,2
309,315,300,337,2
310,315,302,330,2
309,313,304,321,2
309,312,305,312,2
308,312,305,304,2
309,312,305,298,2
309,313,303,293,2
308,314,302,292,2
308,317,302,293,2
308,317,301,296,2
307,313,302,298,2
307,306,303,299,2
308,297,304,299,2
311,288,304,298,2
314,283,305,298,2
317,283,306,300,2
316,284,307,303,2
311,286,309,308,2
307,288,310,313,2
305,293,311,317,2
305,300,311,320,2
305,305,310,321,2
306,308,308,321,2
305,308,306,322,2
304,307,304,324,2
303,307,303,325,2
303,306,302,323,2
307,305,302,319,2
308,305,300,312,2
309,305,299,304,2
308,305,298,296,2
308,304,299,290,2
310,304,300,285,2
312,304,301,283,2
314,307,303,284,2
316,312,303,286,2
316,320,302,289,2
313,332,300,292,2
309,344,299,294,2
307,354,300,297,2
306,358,301,299,2
306,356,301,301,2
306,344,301,302,2
306,323,302,303,2
306,301,302,304,2
306,284,303,305,2
305,272,303,305,2
304,265,304,306,2
305,264,305,308,2
305,265,307,311,2
306,270,308,313,2
308,277,309,313,2
310,285,309,313,2
311,291,309,313,2
311,296,308,313,2
311,300,307,313,2
311,300,307,314,2
312,300,307,316,2
312,298,308,318,2
312,298,311,320,2
312,301,313,322,2
312,307,315,323,2
311,313,318,324,2
310,319,321,324,2
310,322,322,325,2
309,323,320,328,2
310,322,318,332,2
311,319,316,337,2
313,316,312,344,2
314,312,309,348,2
314,311,306,346,2
313,312,304,339,2
312,314,302,328,2
311,314,301,316,2
310,311,301,304,2
309,309,301,295,2
307,308,301,288,2
307,311,301,284,2
308,317,302,283,2
310,324,303,284,2
313,331,303,285,2
314,336,303,287,2
313,335,304,289,2
310,330,304,293,2
307,322,305,297,2
305,312,306,300,2
304,303,307,302,2
304,296,307,302,2
305,292,308,301,2
307,289,308,299,2
309,287,308,297,2
310,287,308,295,2
310,290,308,295,2
309,296,309,297,2
310,302,311,299,2
311,306,312,302,2
313,306,314,304,2
314,305,316,307,2
311,304,319,309,2
307,304,320,310,2
304,304,316,311,2
302,305,312,312,2
299,306,307,313,2
298,307,304,315,2
297,307,301,318,2
297,308,300,323,2
297,310,301,329,2
298,312,301,332,2
299,312,302,331,2
298,307,302,327,2
297,297,301,320,2
297,284,299,311,2
298,274,298,302,2
301,268,297,295,2
304,265,300,291,2
305,268,305,290,2
307,281,311,293,2
310,298,316,297,2
310,312,317,299,2
308,322,315,301,2
304,326,313,302,2
300,326,314,303,2
299,323,316,306,2
300,321,320,308,2
304,319,322,309,2
305,318,322,310,2
305,317,321,310,2
304,317,319,310,2
302,316,315,308,2
301,315,309,306,2
299,313,304,302,2
297,311,300,297,2
296,309,298,292,2
296,306,297,289,2
296,307,298,288,2
298,309,299,290,2
300,314,300,294,2
303,319,301,299,2
304,322,303,305,2
305,322,304,310,2
305,320,305,316,2
306,316,307,319,2
307,313,307,320,2
308,311,307,319,2
308,314,307,314,2
307,318,307,309,2
305,324,307,304,2
303,329,308,300,2
303,330,311,298,2
302,327,315,298,2
303,324,317,301,2
304,323,317,305,2
306,322,316,308,2
307,324,313,310,2
308,326,310,310,2
309,326,307,308,2
310,320,305,303,2
311,309,304,296,2
311,295,304,289,2
311,281,304,285,2
310,269,304,282,2
310,260,303,282,2
309,256,302,284,2
307,259,303,288,2
305,269,303,294,2
303,279,303,299,2
301,289,303,304,2
301,299,303,309,2
303,310,304,314,2
306,319,304,318,2
308,325,304,321,2
308,329,303,322,2
306,330,303,322,2
306,329,303,320,2
306,325,303,317,2
306,323,303,316,2
305,322,302,316,2
304,322,303,318,2
304,322,304,321,2
302,321,305,324,2
301,321,306,327,2
300,320,307,329,2
299,319,307,328,2
299,316,307,323,2
299,312,306,317,2
300,308,305,312,2
301,303,306,310,2
302,299,306,312,2
302,297,307,317,2
303,299,308,323,2
302,305,309,328,2
301,315,309,329,2
300,325,310,329,2
300,335,311,327,2
300,341,310,323,2
301,345,309,319,2
302,349,307,313,2
304,351,305,309,2
306,352,304,305,2
307,352,304,303,2
307,349,304,299,2
307,342,304,296,2
306,330,304,293,2
304,319,304,290,2
302,308,303,287,2
301,298,302,285,2
300,289,301,283,2
301,280,300,284,2
304,273,300,286,2
305,268,301,289,2
305,266,301,291,2
305,268,301,293,2
304,272,299,294,2
304,276,298,296,2
304,277,297,297,2
305,278,298,297,2
306,280,299,297,2
306,283,301,299,2
305,289,303,302,2
304,298,304,305,2
302,306,304,307,2
300,311,304,308,2
300,311,303,308,2
301,308,302,310,2
303,306,300,313,2
305,304,301,317,2
307,302,301,321,2
308,302,303,325,2
309,306,306,329,2
310,312,309,332,2
311,319,310,335,2
312,321,311,336,2
311,315,311,336,2
310,303,310,333,2
310,293,309,328,2
311,288,307,323,2
313,289,305,317,2
314,296,303,313,2
313,306,303,312,2
312,317,304,313,2
310,327,305,314,2
310,333,306,315,2
309,338,306,315,2
309,340,305,314,2
309,338,304,312,2
309,331,303,309,2
309,324,303,305,2
309,319,303,302,2
309,317,303,299,2
309,317,302,299,2
309,319,301,300,2
309,323,299,301,2
310,328,298,304,2
313,333,297,308,2
318,336,298,311,2
322,335,299,313,2
323,328,301,314,2
323,317,303,315,2
321,306,305,314,2
317,297,306,313,2
311,292,306,310,2
305,291,306,308,2
300,292,305,307,2
297,294,305,305,2
295,297,306,304,2
294,300,308,305,2
294,302,311,305,2
294,304,314,307,2
296,305,315,307,2
297,307,316,307,2
298,308,314,307,2
298,309,310,307,2
299,311,306,310,2
301,312,302,314,2
303,311,300,319,2
305,310,300,324,2
307,308,300,329,2
308,308,301,332,2
309,311,301,332,2
309,316,302,329,2
309,325,302,324,2
308,332,302,320,2
308,337,302,317,2
308,338,302,315,2
307,333,302,314,2
305,325,302,314,2
304,316,304,314,2
304,306,308,311,2
304,300,311,306,2
304,298,313,301,2
305,297,311,296,2
306,294,309,293,2
308,289,306,290,2
309,285,304,289,2
310,280,302,290,2
308,277,302,293,2
307,278,303,297,2
305,286,304,303,2
305,299,305,308,2
306,312,307,313,2
308,321,309,316,2
309,325,312,317,2
309,324,313,316,2
308,320,314,314,2
307,314,313,311,2
306,309,312,308,2
306,304,311,306,2
307,300,310,306,2
308,296,309,306,2
308,291,308,308,2
308,287,307,310,2
308,283,306,312,2
307,282,304,311,2
306,284,301,311,2
304,290,300,310,2
304,301,301,311,2
305,316,302,315,2
306,329,302,319,2
308,337,304,323,2
308,343,305,328,2
308,348,307,331,2
308,351,309,334,2
308,350,310,336,2
307,345,310,336,2
305,336,310,335,2
303,327,309,333,2
301,318,309,330,2
300,310,309,325,2
299,304,308,320,2
300,300,305,314,2
302,297,303,307,2
304,293,301,300,2
306,289,301,293,2
310,283,301,290,2
311,279,302,289,2
310,278,304,292,2
308,279,305,295,2
306,280,304,297,2
305,283,303,299,2
305,287,302,299,2
306,291,301,298,2
308,295,301,297,2
309,301,301,297,2
306,306,304,299,2
303,308,308,301,2
300,306,314,303,2
299,303,318,305,2
298,301,322,307,2
299,297,323,309,2
301,294,319,311,2
306,295,312,313,2
309,298,305,315,2
310,297,301,317,2
309,296,299,320,2
308,298,298,321,2
305,303,299,322,2
304,308,300,321,2
303,310,301,320,2
303,313,301,320,2
303,314,302,320,2
303,314,305,319,2
303,314,308,316,2
303,314,315,313,2
303,313,322,311,2
302,313,329,310,2
301,312,329,309,2
299,310,322,307,2
298,307,313,304,2
297,304,306,299,2
298,301,301,294,2
298,300,298,290,2
297,301,298,287,2
296,301,298,285,2
297,302,297,285,2
299,303,295,287,2
302,303,295,290,2
305,304,296,293,2
307,304,298,295,2
307,306,302,297,2
308,311,307,300,2
308,319,310,305,2
307,325,313,313,2
307,331,315,321,2
307,338,315,327,2
307,343,314,331,2
307,341,311,330,2
307,334,309,326,2
307,324,308,321,2
307,311,308,318,2
306,298,307,316,2
305,287,306,314,2
304,279,305,312,2
302,273,303,309,2
302,270,301,306,2
302,268,300,303,2
303,270,300,299,2
304,278,300,296,2
305,288,300,294,2
305,295,301,292,2
306,299,301,291,2
306,299,302,290,2
305,298,304,288,2
305,295,305,287,2
305,292,306,286,2
304,291,307,287,2
304,294,306,291,2
303,299,306,296,2
302,303,305,302,2
303,306,305,309,2
303,308,306,316,2
305,310,306,323,2
306,309,307,330,2
309,306,308,337,2
311,302,309,341,2
313,297,308,345,2
315,292,308,345,2
316,288,307,345,2
316,284,306,341,2
316,282,304,335,2
313,284,302,326,2
309,293,298,316,2
306,306,293,306,2
306,316,291,297,2
308,322,290,291,2
310,326,292,290,2
311,329,295,291,2
309,330,297,295,2
305,328,300,299,2
303,324,302,303,2
302,320,304,305,2
302,319,305,305,2
302,320,306,304,2
303,322,306,301,2
302,326,306,297,2
302,330,305,296,2
302,330,306,297,2
302,329,307,300,2
302,326,307,303,2
303,322,307,307,2
304,318,307,309,2
304,314,307,311,2
305,310,306,313,2
305,305,307,317,2
305,298,307,321,2
306,289,307,323,2
306,282,307,324,2
308,279,308,321,2
310,279,310,315,2
311,280,311,308,2
312,278,314,301,2
313,277,315,297,2
312,278,316,294,2
311,281,318,294,2
311,289,322,295,2
311,298,323,297,2
311,306,319,298,2
310,311,312,301,2
310,314,306,307,2
310,315,302,313,2
310,316,299,318,2
309,317,298,320,2
309,316,300,319,2
309,314,302,316,2
308,312,302,310,2
307,309,300,304,2
304,307,298,299,2
303,305,296,296,2
302,304,295,293,2
303,303,295,292,2
303,301,296,290,2
304,297,297,290,2
304,293,298,290,2
305,288,298,290,2
306,285,298,290,2
307,285,298,291,2
306,290,298,292,2
305,296,299,294,2
304,301,299,297,2
304,306,301,303,2
303,312,302,308,2
303,317,303,314,2
303,321,304,318,2
303,323,305,320,2
303,323,306,320,2
303,321,306,319,2
303,318,306,318,2
302,315,307,316,2
301,316,308,313,2
299,318,308,309,2
297,320,309,304,2
297,322,310,300,2
301,323,310,295,2
307,321,311,290,2
311,316,309,287,2
312,311,308,285,2
312,306,305,284,2
310,304,304,284,2
309,304,303,284,2
308,306,303,285,2
307,310,303,288,2
306,315,304,290,2
305,316,305,293,2
305,314,306,296,2
305,310,308,299,2
305,306,309,301,2
306,303,311,304,2
308,302,313,307,2
309,303,313,312,2
311,306,312,316,2
314,310,311,321,2
317,315,309,323,2
316,320,307,324,2
312,328,305,322,2
308,336,303,318,2
304,340,302,314,2
302,339,302,310,2
302,332,303,308,2
302,320,305,309,2
304,307,307,311,2
305,296,309,314,2
306,288,311,318,2
306,284,313,321,2
305,280,314,324,2
305,278,315,326,2
304,278,315,327,2
303,280,315,325,2
302,282,314,322,2
302,285,311,319,2
302,291,308,316,2
302,297,305,313,2
303,302,303,312,2
304,305,302,310,2
304,308,302,309,2
305,311,302,308,2
306,313,302,307,2
306,313,302,306,2
308,311,303,306,2
309,309,305,305,2
310,309,306,304,2
310,310,308,305,2
309,312,309,306,2
307,314,311,309,2
305,316,312,312,2
304,316,311,315,2
304,315,309,316,2
305,314,309,316,2
305,313,308,314,2
305,314,308,310,2
304,316,307,305,2
303,318,306,300,2
303,321,304,296,2
304,326,302,293,2
304,330,300,294,2
306,331,300,299,2
308,331,301,306,2
310,332,305,312,2
311,331,309,315,2
311,323,313,317,2
311,312,317,316,2
311,300,318,313,2
311,293,317,307,2
310,291,314,300,2
311,291,311,292,2
310,294,309,284,2
307,297,307,280,2
303,299,306,278,2
299,298,306,279,2
297,294,306,281,2
297,289,307,283,2
297,285,309,285,2
298,284,309,288,2
299,287,307,290,2
300,291,305,293,2
302,294,303,294,2
303,295,303,296,2
305,291,305,299,2
306,286,307,302,2
307,282,310,305,2
307,284,312,308,2
307,292,313,309,2
307,303,312,308,2
307,313,312,306,2
306,320,311,303,2
307,321,311,300,2
306,318,311,299,2
305,313,311,299,2
305,308,312,301,2
305,306,313,303,2
307,305,314,305,2
310,305,314,306,2
312,305,314,307,2
313,304,311,308,2
312,303,308,310,2
311,302,306,313,2
310,301,305,318,2
311,299,307,323,2
314,297,311,329,2
320,296,317,334,2
325,296,320,337,2
326,296,319,340,2
321,297,314,340,2
315,299,310,339,2
311,300,307,336,2
310,300,306,333,2
309,300,305,330,2
308,300,305,326,2
306,304,303,319,2
304,309,300,312,2
302,314,298,303,2
301,316,296,297,2
301,317,296,294,2
302,317,296,296,2
304,314,297,300,2
307,310,298,305,2
309,307,300,309,2
311,305,302,311,2
311,304,303,310,2
310,302,304,308,2
309,300,305,307,2
308,299,306,306,2
307,301,307,305,2
306,304,307,302,2
306,307,307,297,2
306,309,307,291,2
306,310,306,287,2
306,311,304,282,2
305,311,302,279,2
304,311,301,278,2
303,311,301,278,2
304,309,302,278,2
306,309,304,277,2
307,316,304,277,2
309,322,302,277,2
311,325,299,280,2
312,325,296,283,2
313,323,295,290,2
314,318,296,300,2
316,311,298,312,2
316,301,300,321,2
314,293,303,328,2
311,289,305,331,2
309,287,307,331,2
308,288,308,329,2
306,290,309,327,2
305,293,309,323,2
304,296,308,318,2
304,299,306,313,2
305,302,304,306,2
304,303,302,300,2
304,302,300,294,2
303,300,298,288,2
304,296,296,283,2
304,292,296,280,2
304,289,296,280,2
305,291,296,282,2
307,292,297,285,2
307,293,298,289,2
308,296,299,294,2
309,301,300,298,2
310,303,302,301,2
311,302,304,304,2
312,300,307,308,2
313,299,311,311,2
313,301,315,315,2
311,306,319,320,2
310,313,321,325,2
309,322,321,331,2
309,329,321,335,2
311,331,318,337,2
312,327,313,336,2
313,320,308,333,2
313,313,303,326,2
313,307,299,316,2
313,302,294,303,2
312,299,291,293,2
311,298,288,288,2
309,297,286,288,2
309,296,285,291,2
310,293,285,294,2
312,289,287,295,2
312,284,290,295,2
308,279,293,296,2
304,280,297,300,2
301,287,301,305,2
300,294,303,310,2
301,299,305,314,2
302,302,306,317,2
304,305,306,319,2
305,308,305,320,2
306,309,305,320,2
306,307,305,318,2
306,304,304,317,2
306,299,304,316,2
307,293,303,315,2
308,286,302,314,2
310,279,301,311,2
312,272,301,308,2
313,268,303,306,2
311,270,306,304,2
306,279,308,302,2
301,291,310,299,2
299,301,310,296,2
300,308,309,293,2
301,312,308,290,2
302,316,307,289,2
301,320,305,288,2
299,323,302,288,2
297,326,299,287,2
295,329,296,286,2
295,329,293,285,2
296,326,290,284,2
297,318,288,282,2
299,307,287,282,2
301,294,288,283,2
303,281,290,286,2
305,271,292,291,2
307,270,295,296,2
308,279,298,299,2
307,291,301,302,2
306,303,302,304,2
305,309,304,306,2
305,311,307,312,2
306,311,313,320,2
306,311,320,326,2
305,311,327,330,2
306,310,332,332,2
307,310,331,332,2
307,312,325,331,2
308,314,319,330,2
307,319,314,328,2
306,323,308,324,2
305,328,301,319,2
303,331,295,314,2
304,333,290,308,2
306,329,287,304,2
310,318,287,301,2
313,298,289,301,2
315,278,292,304,2
317,267,295,309,2
316,265,298,313,2
313,270,299,315,2
309,279,300,315,2
306,289,301,311,2
305,294,301,305,2
304,296,300,299,2
304,296,300,295,2
304,296,300,292,2
304,298,299,292,2
305,301,300,292,2
306,302,301,294,2
307,302,302,294,2
307,300,302,294,2
307,299,301,295,2
309,296,300,298,2
309,292,301,303,2
308,288,303,310,2
306,285,304,317,2
305,286,307,324,2
305,294,309,329,2
306,304,312,333,2
307,314,313,335,2
307,324,313,335,2
307,330,312,333,2
305,330,310,329,2
304,324,307,323,2
304,316,306,316,2
307,310,305,312,2
310,307,303,308,2
311,306,303,305,2
311,305,304,302,2
309,303,304,300,2
307,301,304,298,2
305,296,304,298,2
304,291,304,300,2
305,287,303,303,2
306,284,302,305,2
308,283,302,305,2
309,282,302,304,2
308,284,303,301,2
307,290,304,299,2
306,298,305,297,2
304,305,306,296,2
303,306,306,297,2
301,303,306,298,2
299,303,305,301,2
299,311,306,305,2
300,323,306,309,2
301,332,307,311,2
301,338,306,313,2
301,341,305,313,2
300,335,304,313,2
300,316,303,313,2
301,294,303,312,2
303,278,302,310,2
304,269,303,308,2
305,266,302,307,2
306,266,302,307,2
306,273,303,307,2
306,286,303,308,2
306,299,304,309,2
303,311,306,310,2
301,321,307,311,2
298,330,308,310,2
299,338,308,307,2
303,345,308,306,2
307,351,309,305,2
308,355,311,306,2
308,355,312,310,2
306,348,314,314,2
303,337,315,318,2
300,323,315,318,2
297,307,312,315,2
294,291,308,311,2
296,281,304,306,2
301,274,300,302,2
306,269,297,300,2
309,266,295,300,2
308,264,295,304,2
304,266,295,310,2
301,270,297,315,2
299,276,299,320,2
298,285,300,324,2
298,293,301,327,2
300,301,303,327,2
301,306,304,325,2
302,307,305,322,2
302,304,309,319,2
302,299,314,316,2
302,295,317,314,2
303,291,317,310,2
303,285,313,305,2
304,282,306,299,2
306,285,300,294,2
308,290,295,288,2
308,292,294,285,2
308,294,294,285,2
308,299,297,288,2
308,306,300,292,2
307,311,302,297,2
306,314,303,299,2
306,313,304,300,2
305,311,304,299,2
304,308,305,300,2
303,307,307,301,2
303,311,309,305,2
302,319,309,309,2
302,329,306,312,2
301,338,304,316,2
303,346,303,321,2
305,351,304,326,2
308,354,307,328,2
310,355,310,327,2
310,355,309,324,2
310,350,304,320,2
309,337,298,318,2
308,318,294,316,2
308,302,293,316,2
306,293,294,317,2
304,290,295,318,2
303,292,298,317,2
302,296,300,315,2
301,303,304,311,2
300,311,307,308,2
299,316,310,306,2
298,318,311,305,2
298,321,309,306,2
299,322,307,308,2
299,320,305,310,2
300,314,305,313,2
302,307,305,315,2
303,298,306,318,2
303,289,306,319,2
303,282,307,319,2
303,276,306,318,2
304,270,304,316,2
304,263,302,313,2
304,262,300,309,2
304,266,297,304,2
304,275,296,298,2
304,285,296,292,2
305,294,296,288,2
308,304,297,287,2
311,314,298,286,2
311,323,298,286,2
308,330,298,288,2
302,331,298,290,2
297,330,299,294,2
295,327,300,299,2
296,326,301,303,2
301,323,302,307,2
304,319,303,309,2
305,316,304,312,2
305,316,306,315,2
303,319,308,318,2
302,326,309,321,2
303,335,307,324,2
307,339,304,327,2
309,335,302,329,2
310,324,302,330,2
310,311,302,330,2
310,301,303,328,2
310,296,304,324,2
310,297,304,318,2
309,302,305,312,2
309,310,305,307,2
310,319,305,303,2
309,326,304,298,2
307,329,303,292,2
305,327,302,287,2
304,317,302,282,2
303,306,301,279,2
305,297,302,279,2
308,291,302,280,2
310,286,301,282,2
311,284,300,284,2
309,284,301,287,2
307,286,302,291,2
306,288,303,296,2
306,291,305,299,2
305,294,305,301,2
305,296,306,302,2
304,296,308,303,2
304,296,311,303,2
305,295,317,304,2
306,293,322,305,2
306,289,326,308,2
306,283,328,310,2
305,278,327,312,2
303,278,323,314,2
301,283,315,316,2
299,292,307,317,2
298,303,302,317,2
298,312,299,317,2
299,317,298,317,2
301,319,299,318,2
304,317,300,319,2
305,315,302,321,2
307,312,304,325,2
308,310,306,329,2
309,309,308,333,2
308,309,310,334,2
308,309,311,332,2
307,308,310,326,2
307,307,310,318,2
305,306,309,311,2
305,306,309,306,2
306,306,310,306,2
307,309,311,309,2
308,317,311,315,2
308,327,310,324,2
308,340,308,332,2
307,350,305,338,2
306,357,303,340,2
307,355,301,336,2
308,345,301,328,2
309,331,302,318,2
309,318,303,310,2
309,307,304,302,2
308,299,304,297,2
306,297,305,293,2
305,299,305,291,2
304,299,306,291,2
303,296,308,292,2
303,292,311,296,2
305,291,312,299,2
307,292,312,301,2
310,294,312,300,2
311,296,310,297,2
312,296,309,293,2
307,295,308,291,2
301,295,307,290,2
295,297,306,292,2
295,301,306,294,2
296,306,305,295,2
297,311,305,297,2
300,317,306,301,2
304,323,308,307,2
309,327,309,315,2
312,328,310,323,2
313,324,310,329,2
312,320,310,332,2
311,316,310,333,2
308,313,310,331,2
307,311,310,326,2
306,309,309,320,2
307,310,307,311,2
308,308,305,301,2
311,303,303,292,2
313,297,301,285,2
314,293,300,281,2
312,292,298,280,2
307,294,297,281,2
304,297,296,282,2
303,298,296,282,2
303,296,298,281,2
304,296,302,283,2
306,300,306,285,2
307,309,309,288,2
308,322,310,291,2
307,333,309,294,2
307,339,307,296,2
306,340,308,297,2
305,337,311,299,2
304,334,315,301,2
304,330,317,304,2
303,327,318,307,2
303,323,317,310,2
303,319,316,313,2
302,316,315,315,2
303,314,314,315,2
303,313,311,314,2
304,310,309,311,2
305,304,306,309,2
307,299,303,309,2
309,298,301,311,2
309,301,300,314,2
308,305,300,317,2
308,308,301,321,2
308,309,302,324,2
307,309,304,327,2
306,309,305,329,2
306,308,306,329,2
305,307,308,327,2
304,305,309,325,2
302,304,308,322,2
300,306,307,320,2
300,311,308,316,2
301,317,309,314,2
303,323,312,314,2
305,329,315,316,2
306,329,316,317,2
305,326,313,316,2
303,320,307,314,2
302,314,302,310,2
301,307,298,306,2
301,298,296,304,2
302,291,297,305,2
304,288,300,308,2
305,291,305,311,2
306,294,311,314,2
306,294,315,317,2
306,294,316,319,2
306,294,316,321,2
307,297,314,322,2
309,304,311,323,2
311,314,309,323,2
312,326,308,325,2
308,336,308,325,2
303,342,308,324,2
299,344,306,321,2
296,342,305,316,2
295,338,303,310,2
294,331,301,305,2
294,326,300,302,2
295,323,300,299,2
295,326,299,297,2
297,331,297,294,2
301,337,296,292,2
305,341,296,291,2
308,340,297,292,2
308,337,298,298,2
308,334,298,307,2
307,333,298,316,2
307,335,298,323,2
307,335,299,325,2
306,333,302,323,2
305,328,304,317,2
303,321,307,311,2
302,313,309,305,2
302,306,312,301,2
302,300,312,300,2
303,295,312,300,2
305,290,310,300,2
306,287,308,300,2
307,285,307,302,2
308,284,307,304,2
309,285,306,307,2
309,286,305,309,2
309,290,303,310,2
309,294,301,309,2
309,299,299,306,2
309,303,297,301,2
307,307,295,296,2
305,309,295,292,2
302,313,295,292,2
300,315,295,294,2
300,313,294,297,2
300,307,294,300,2
301,300,292,303,2
302,294,292,305,2
304,291,292,307,2
305,288,292,307,2
304,288,293,305,2
303,290,295,305,2
302,295,300,305,2
303,300,306,310,2
305,307,313,318,2
307,313,318,328,2
308,318,320,339,2
309,321,319,348,2
310,324,318,352,2
310,328,317,352,2
309,329,315,349,2
309,328,312,343,2
308,326,309,334,2
307,323,306,323,2
305,321,303,313,2
303,317,300,303,2
301,311,298,295,2
300,308,297,289,2
301,308,297,285,2
302,308,296,283,2
303,305,297,281,2
305,300,297,280,2
307,296,298,279,2
308,293,299,278,2
310,292,301,278,2
311,293,303,281,2
311,297,304,283,2
310,304,305,286,2
309,313,305,289,2
308,323,305,291,2
307,331,304,293,2
305,338,305,294,2
302,341,305,297,2
300,342,306,298,2
298,339,306,299,2
299,333,305,300,2
298,325,304,303,2
299,318,304,305,2
299,311,304,308,2
300,305,303,308,2
302,301,302,308,2
303,297,302,309,2
305,294,304,315,2
307,293,306,324,2
309,293,310,333,2
308,294,314,340,2
307,297,318,342,2
305,302,320,340,2
304,307,321,336,2
304,313,318,329,2
305,318,315,320,2
308,322,312,309,2
309,325,310,296,2
308,326,310,284,2
306,325,311,277,2
303,322,313,274,2
302,319,316,275,2
301,312,317,277,2
299,302,313,278,2
298,290,307,279,2
298,281,303,280,2
299,281,301,283,2
300,289,300,286,2
300,299,301,289,2
300,306,302,292,2
301,307,304,293,2
303,306,306,295,2
308,305,309,297,2
312,304,312,299,2
314,303,315,301,2
313,303,316,304,2
311,303,316,308,2
308,304,316,313,2
306,306,316,320,2
305,310,317,330,2
304,315,318,339,2
305,318,319,347,2
307,319,320,352,2
309,315,320,354,2
310,309,320,354,2
312,304,319,349,2
312,300,316,341,2
312,299,313,331,2
311,302,311,321,2
309,309,310,311,2
306,316,310,303,2
302,322,310,298,2
299,327,310,296,2
298,332,310,294,2
298,336,310,292,2
298,336,311,290,2
298,336,312,287,2
298,334,314,286,2
298,329,314,285,2
299,321,315,286,2
299,312,316,287,2
300,305,316,288,2
301,301,317,290,2
301,299,316,292,2
302,300,315,294,2
302,302,314,296,2
302,306,312,299,2
303,311,311,302,2
304,314,310,305,2
305,315,311,309,2
306,315,313,313,2
307,312,315,317,2
308,310,316,322,2
308,309,318,325,2
309,309,318,328,2
310,310,319,328,2
310,310,318,326,2
310,308,317,322,2
310,304,314,317,2
309,299,312,309,2
307,295,309,302,2
305,290,304,294,2
304,284,302,288,2
305,280,301,283,2
307,279,303,280,2
309,280,306,281,2
312,283,308,286,2
313,290,310,292,2
315,297,310,299,2
314,302,308,305,2
311,304,307,312,2
307,307,307,317,2
305,310,308,322,2
305,311,310,326,2
304,313,312,328,2
304,313,313,329,2
304,313,313,327,2
304,313,313,323,2
305,317,311,317,2
307,322,309,312,2
308,325,306,308,2
307,326,304,307,2
304,326,302,307,2
302,323,302,309,2
300,318,302,316,2
300,313,304,326,2
302,309,307,335,2
303,307,309,342,2
304,305,311,344,2
305,303,312,342,2
307,303,311,337,2
309,305,310,331,2
311,310,309,326,2
311,318,307,320,2
311,328,305,315,2
311,340,302,309,2
311,351,298,302,2
310,357,297,295,2
310,355,299,289,2
309,343,303,285,2
308,321,309,281,2
307,295,314,279,2
307,273,315,278,2
307,257,313,277,2
307,247,307,278,2
307,242,300,279,2
307,241,297,284,2
307,244,295,290,2
307,250,296,298,2
307,259,298,307,2
307,271,301,316,2
307,283,304,323,2
306,293,306,326,2
305,302,307,325,2
303,309,308,320,2
302,314,307,315,2
301,317,306,309,2
299,318,306,304,2
299,319,306,300,2
301,319,308,298,2
304,319,310,298,2
307,318,312,301,2
307,318,313,306,2
307,318,312,313,2
307,317,310,319,2
307,315,309,323,2
307,313,308,325,2
308,311,307,325,2
309,309,306,320,2
310,308,304,313,2
309,307,304,306,2
309,308,304,301,2
309,310,305,298,2
309,314,307,297,2
311,318,309,297,2
312,325,310,298,2
312,331,312,298,2
312,337,313,299,2
311,342,313,301,2
310,345,313,304,2
309,344,313,304,2
309,341,312,304,2
310,333,309,303,2
311,321,305,301,2
313,311,302,298,2
314,303,301,293,2
313,295,302,290,2
312,285,303,289,2
