286,309,321,309,0
286,309,318,303,0
287,311,315,297,0
290,309,313,293,0
293,306,310,290,0
296,306,308,290,0
298,308,306,291,0
301,311,305,293,0
303,307,304,293,0
304,302,305,294,0
305,304,306,295,0
310,313,308,298,0
315,322,311,301,0
320,330,314,302,0
323,334,315,303,0
325,332,315,306,0
325,326,315,312,0
324,322,314,320,0
319,321,314,328,0
313,322,315,334,0
307,329,315,337,0
304,337,315,335,0
302,343,314,330,0
301,343,314,325,0
299,335,314,320,0
296,319,314,314,0
294,303,312,308,0
293,294,311,300,0
294,288,310,293,0
297,288,310,287,0
300,291,310,285,0
303,299,310,284,0
305,309,310,284,0
307,318,310,284,0
308,324,309,282,0
308,325,308,282,0
308,322,308,282,0
307,315,308,284,0
305,306,307,286,0
302,295,307,288,0
300,283,307,291,0
299,276,307,295,0
298,273,307,298,0
297,272,306,302,0
297,277,305,305,0
299,290,304,308,0
301,302,302,311,0
303,311,301,313,0
304,319,301,315,0
306,327,301,315,0
308,331,302,315,0
310,330,303,313,0
310,326,303,310,0
308,320,303,305,0
303,313,303,300,0
298,308,304,295,0
297,305,305,292,0
299,303,304,291,0
300,307,303,291,0
300,316,302,294,0
299,324,301,296,0
299,329,300,298,0
300,331,300,299,0
300,333,300,300,0
300,335,301,300,0
298,332,304,301,0
296,327,307,303,0
294,320,310,307,0
294,314,313,312,0
298,309,315,317,0
303,307,317,321,0
305,308,317,325,0
304,314,317,326,0
303,322,316,322,0
302,330,315,316,0
302,337,313,310,0
302,339,312,304,0
302,337,311,299,0
301,332,310,296,0
301,325,309,293,0
302,314,307,291,0
303,299,305,289,0
303,283,304,287,0
304,269,302,285,0
302,257,301,286,0
297,250,302,289,0
292,254,304,294,0
291,269,306,300,0
291,288,309,307,0
291,302,311,314,0
292,310,314,320,0
293,314,316,324,0
296,316,317,327,0
301,319,319,330,0
308,321,319,330,0
311,322,318,330,0
313,325,316,328,0
312,329,314,327,0
310,330,313,326,0
308,326,311,324,0
305,318,308,321,0
301,307,306,316,0
299,293,303,309,0
297,277,302,302,0
297,267,300,298,0
298,265,300,295,0
301,269,300,293,0
304,275,301,292,0
307,282,302,292,0
309,290,303,294,0
312,302,304,298,0
313,318,307,304,0
313,335,309,310,0
312,348,310,316,0
310,356,311,319,0
306,359,311,319,0
303,357,311,314,0
299,353,311,307,0
298,349,311,298,0
299,344,312,291,0
301,337,312,286,0
302,326,313,282,0
302,315,313,281,0
300,301,313,281,0
300,290,313,281,0
301,287,311,284,0
302,290,308,287,0
304,294,306,291,0
306,299,305,296,0
309,303,306,300,0
312,307,307,304,0
314,308,308,308,0
317,304,309,313,0
318,301,310,316,0
319,302,309,318,0
317,302,309,316,0
310,302,308,312,0
302,302,307,306,0
295,298,306,299,0
289,295,305,293,0
285,297,304,290,0
285,305,303,289,0
289,313,303,290,0
294,319,303,290,0
299,326,303,290,0
303,330,303,291,0
306,327,303,292,0
309,322,304,294,0
311,319,305,296,0
312,318,306,298,0
312,317,307,299,0
312,316,307,300,0
311,314,309,301,0
309,310,310,302,0
307,302,312,302,0
306,289,313,303,0
304,275,313,303,0
302,266,313,302,0
300,265,312,301,0
299,274,311,299,0
300,290,311,299,0
302,305,311,300,0
305,318,313,303,0
308,330,316,308,0
311,338,318,312,0
314,340,318,317,0
316,337,316,320,0
315,333,315,321,0
309,327,314,320,0
303,321,314,318,0
301,320,314,315,0
300,323,315,313,0
302,328,316,309,0
303,332,316,303,0
302,334,316,296,0
300,334,315,291,0
296,331,314,286,0
292,335,314,284,0
291,343,315,284,0
292,349,317,285,0
294,350,318,285,0
296,343,318,285,0
295,328,317,284,0
294,307,316,285,0
295,289,317,290,0
299,282,318,297,0
304,280,319,306,0
308,281,320,316,0
311,285,321,325,0
311,290,321,332,0
311,296,322,336,0
311,303,323,337,0
311,312,324,334,0
311,321,323,329,0
310,327,322,321,0
308,327,319,313,0
306,322,317,304,0
303,313,314,296,0
300,303,312,288,0
298,296,310,283,0
298,289,310,281,0
301,284,311,281,0
304,282,312,281,0
308,282,313,281,0
308,283,314,280,0
307,286,313,280,0
305,287,313,281,0
306,286,313,284,0
309,281,314,289,0
311,271,315,294,0
311,261,317,299,0
308,253,318,304,0
305,251,319,309,0
303,261,320,313,0
302,284,321,315,0
302,310,322,316,0
300,330,323,315,0
297,341,322,313,0
293,344,320,312,0
292,347,319,309,0
292,352,317,306,0
292,356,315,303,0
292,356,313,299,0
294,352,312,297,0
296,345,311,297,0
300,338,311,299,0
305,335,311,305,0
310,332,312,315,0
312,330,314,324,0
314,330,316,332,0
315,329,318,338,0
316,328,321,341,0
316,330,322,342,0
317,331,323,339,0
315,329,323,336,0
313,325,322,333,0
310,319,321,329,0
308,308,319,324,0
306,295,318,317,0
306,289,316,309,0
306,288,314,301,0
305,291,312,294,0
303,295,309,288,0
302,300,307,284,0
301,304,305,280,0
300,305,304,277,0
301,306,304,276,0
303,310,304,278,0
308,314,305,282,0
315,315,306,286,0
322,312,308,290,0
326,306,309,294,0
327,303,310,298,0
322,306,313,304,0
313,315,315,311,0
306,325,317,319,0
303,333,318,326,0
301,336,317,330,0
301,335,316,331,0
300,330,314,326,0
299,321,311,317,0
297,314,307,306,0
297,312,303,296,0
297,309,301,289,0
299,301,299,285,0
302,289,300,283,0
305,275,301,284,0
306,265,301,287,0
304,263,302,292,0
302,271,303,298,0
301,286,305,304,0
301,298,308,309,0
300,302,310,313,0
300,302,311,313,0
302,300,311,310,0
303,299,310,304,0
304,305,307,298,0
305,326,305,293,0
306,347,304,291,0
307,354,304,290,0
309,346,304,291,0
310,329,304,291,0
309,313,304,292,0
307,300,303,291,0
303,292,301,289,0
299,287,300,289,0
297,287,299,290,0
296,289,300,292,0
297,292,300,294,0
298,298,301,297,0
301,306,303,301,0
304,311,305,307,0
306,309,307,313,0
308,301,309,318,0
308,296,309,321,0
306,298,308,322,0
303,309,306,322,0
298,323,306,322,0
294,331,306,320,0
296,334,307,320,0
303,333,309,319,0
310,330,309,318,0
313,327,307,315,0
312,322,305,311,0
311,315,302,308,0
310,307,301,306,0
312,300,302,305,0
313,298,303,305,0
313,299,303,305,0
313,303,303,306,0
312,310,302,307,0
310,319,303,313,0
310,331,304,321,0
310,345,306,329,0
312,356,308,335,0
314,363,308,338,0
317,366,308,339,0
319,364,307,338,0
317,355,305,337,0
312,337,303,335,0
305,311,301,334,0
300,285,300,332,0
298,270,298,329,0
301,270,297,322,0
308,280,296,312,0
315,289,295,300,0
320,286,295,290,0
319,275,296,283,0
315,261,299,281,0
313,247,301,281,0
312,238,302,281,0
309,241,301,281,0
304,266,299,284,0
300,306,298,287,0
298,340,298,292,0
298,358,299,296,0
298,364,300,299,0
299,361,301,300,0
299,350,301,301,0
300,333,300,300,0
301,315,300,300,0
302,302,299,300,0
305,297,299,299,0
307,299,298,299,0
308,302,298,302,0
308,303,298,305,0
308,302,299,310,0
309,300,299,315,0
310,305,300,320,0
313,315,301,326,0
313,322,303,329,0
313,321,305,330,0
312,313,307,329,0
310,303,308,325,0
306,295,307,321,0
303,287,306,314,0
301,286,304,307,0
299,293,302,301,0
299,307,301,297,0
301,323,300,294,0
302,337,299,293,0
303,345,299,292,0
302,347,298,293,0
300,345,297,292,0
298,339,296,290,0
298,333,296,288,0
303,326,297,287,0
310,321,299,288,0
316,319,299,290,0
320,317,297,293,0
320,317,297,297,0
319,317,297,300,0
316,318,297,303,0
313,320,298,306,0
311,322,300,305,0
309,322,301,303,0
308,319,302,301,0
307,318,303,300,0
305,322,305,300,0
303,326,306,301,0
301,325,307,301,0
300,316,307,302,0
300,300,306,303,0
300,282,306,303,0
300,267,305,303,0
302,259,305,304,0
304,263,305,306,0
306,275,305,309,0
308,287,306,311,0
308,294,306,312,0
309,295,307,313,0
308,294,307,313,0
307,290,307,313,0
304,287,306,312,0
301,288,306,311,0
300,294,306,313,0
300,302,306,315,0
301,309,306,318,0
301,314,307,320,0
301,316,307,322,0
301,318,307,321,0
301,320,307,319,0
302,324,306,316,0
305,330,306,314,0
308,337,306,313,0
311,342,305,311,0
311,340,305,311,0
310,330,305,311,0
308,316,306,311,0
307,304,306,313,0
308,297,308,315,0
310,295,310,317,0
313,298,311,318,0
316,302,312,318,0
320,305,311,316,0
319,308,311,315,0
311,311,310,313,0
302,316,310,312,0
297,322,310,310,0
296,325,310,306,0
297,324,308,301,0
299,320,308,297,0
300,318,308,294,0
300,317,307,293,0
300,317,306,293,0
301,319,304,295,0
301,318,303,300,0
303,314,302,305,0
304,308,302,310,0
306,304,302,312,0
309,302,302,313,0
310,301,304,313,0
309,300,307,312,0
306,300,308,313,0
301,303,310,313,0
298,305,310,315,0
299,304,310,316,0
305,302,309,316,0
310,299,308,316,0
312,296,307,315,0
308,292,306,315,0
303,292,306,313,0
300,292,306,311,0
299,291,306,307,0
300,290,305,303,0
302,294,304,298,0
304,299,303,295,0
305,301,302,293,0
307,298,301,293,0
307,291,300,294,0
305,285,300,297,0
302,281,301,301,0
301,280,304,305,0
301,283,308,307,0
304,294,311,308,0
306,311,312,308,0
307,323,311,307,0
307,326,309,305,0
306,322,307,302,0
304,316,305,299,0
302,312,304,296,0
300,309,302,294,0
300,314,302,296,0
303,324,302,300,0
308,332,302,305,0
312,333,302,309,0
315,328,302,312,0
318,321,301,312,0
320,316,302,311,0
322,311,302,308,0
322,306,302,306,0
322,305,303,304,0
321,306,304,303,0
320,309,304,302,0
319,311,305,302,0
320,314,307,303,0
321,316,308,305,0
321,316,308,307,0
318,314,308,307,0
314,312,308,307,0
311,311,308,307,0
309,308,308,307,0
310,302,309,308,0
312,294,309,309,0
314,287,309,311,0
316,281,308,313,0
319,277,307,316,0
322,278,307,318,0
322,283,307,320,0
317,289,308,320,0
311,298,309,320,0
309,307,309,318,0
307,313,309,315,0
302,317,309,314,0
298,320,309,314,0
296,322,310,316,0
295,324,310,317,0
295,326,309,317,0
296,325,309,317,0
296,321,308,316,0
296,318,307,315,0
296,316,307,315,0
296,312,307,315,0
296,301,306,313,0
295,285,305,309,0
297,268,303,305,0
299,253,302,304,0
301,246,301,304,0
305,250,302,306,0
309,266,304,310,0
314,287,307,315,0
318,306,308,318,0
319,320,310,318,0
318,328,310,315,0
316,335,310,311,0
313,343,310,306,0
311,349,310,302,0
308,352,310,298,0
307,352,310,294,0
306,351,310,292,0
305,349,309,291,0
304,346,308,290,0
302,342,307,291,0
299,336,305,293,0
298,331,304,294,0
299,327,304,297,0
302,326,304,300,0
304,328,305,304,0
305,331,306,307,0
307,333,306,311,0
308,332,307,315,0
309,329,309,319,0
309,323,310,323,0
309,317,311,326,0
310,314,311,329,0
311,311,312,332,0
312,305,312,332,0
313,296,312,331,0
311,287,312,328,0
309,279,311,324,0
307,271,311,319,0
307,266,311,313,0
308,262,311,308,0
309,263,311,303,0
309,273,311,299,0
309,287,311,298,0
310,296,312,299,0
311,299,312,300,0
312,297,313,302,0
312,289,314,303,0
312,277,314,303,0
310,267,315,301,0
308,263,315,300,0
305,264,315,298,0
305,278,316,298,0
308,295,317,299,0
311,307,317,300,0
312,314,317,301,0
311,319,317,304,0
309,325,318,307,0
307,328,319,309,0
305,328,318,311,0
305,324,317,311,0
304,318,316,312,0
301,312,313,313,0
297,305,311,315,0
296,300,309,316,0
298,303,309,318,0
304,315,311,321,0
312,325,314,326,0
318,331,316,330,0
320,333,318,331,0
318,333,320,331,0
313,332,321,329,0
310,334,321,325,0
307,334,320,320,0
304,333,319,313,0
303,329,318,307,0
302,322,318,303,0
302,316,318,302,0
304,312,318,301,0
306,312,317,300,0
307,316,315,298,0
308,323,312,296,0
308,332,310,294,0
307,335,308,292,0
307,331,308,293,0
309,322,309,297,0
313,312,311,302,0
314,301,313,308,0
309,289,316,315,0
304,280,318,319,0
300,274,320,321,0
299,270,320,321,0
299,269,321,320,0
300,273,321,320,0
299,280,320,319,0
299,290,320,317,0
297,302,320,315,0
296,313,320,313,0
296,322,319,310,0
296,330,318,305,0
296,336,316,298,0
297,335,313,292,0
298,326,311,287,0
299,310,309,285,0
299,290,307,285,0
299,271,307,287,0
300,258,308,292,0
300,262,310,298,0
302,281,312,304,0
304,307,315,309,0
307,328,317,311,0
309,340,318,309,0
309,341,318,304,0
305,333,318,299,0
300,323,316,295,0
296,315,315,293,0
294,315,314,292,0
294,318,313,292,0
295,316,313,293,0
296,312,313,295,0
297,310,314,298,0
299,313,315,302,0
300,319,316,304,0
300,322,316,305,0
299,322,315,305,0
300,320,315,304,0
304,316,316,304,0
309,311,317,304,0
314,306,318,306,0
321,304,319,308,0
326,307,319,310,0
329,310,319,310,0
327,312,319,309,0
320,313,320,307,0
312,311,320,306,0
305,309,319,306,0
302,306,319,307,0
301,302,318,309,0
301,301,317,312,0
301,302,317,314,0
302,303,317,315,0
303,304,317,317,0
304,306,318,318,0
305,309,317,321,0
306,314,317,323,0
306,317,317,325,0
306,317,317,327,0
307,314,317,329,0
309,312,317,329,0
311,309,317,328,0
311,308,317,327,0
310,307,318,325,0
307,306,318,322,0
304,306,317,318,0
302,307,316,315,0
301,307,315,310,0
301,307,313,305,0
302,309,312,301,0
304,314,310,297,0
306,318,309,296,0
308,320,309,297,0
308,318,308,299,0
306,312,307,301,0
305,303,306,305,0
305,296,307,310,0
306,294,308,314,0
306,298,309,319,0
306,307,310,323,0
306,319,311,326,0
307,332,313,327,0
307,343,314,328,0
308,348,315,329,0
309,347,315,331,0
309,341,315,332,0
309,332,314,331,0
307,323,313,330,0
305,314,312,328,0
303,305,312,324,0
301,296,311,319,0
300,289,310,315,0
299,284,309,312,0
300,279,308,310,0
304,277,307,308,0
310,279,307,305,0
317,284,307,302,0
321,290,307,298,0
317,294,307,294,0
312,295,307,290,0
308,295,307,286,0
307,296,306,283,0
307,302,306,280,0
307,311,306,277,0
306,319,307,276,0
305,324,307,277,0
304,327,307,279,0
303,328,306,281,0
302,329,306,284,0
302,328,306,287,0
302,323,306,289,0
300,318,305,292,0
299,314,305,294,0
298,312,305,296,0
297,310,304,297,0
298,313,302,296,0
302,317,301,294,0
306,315,302,292,0
310,310,304,291,0
314,300,306,292,0
315,289,307,292,0
311,277,307,294,0
303,270,306,296,0
296,267,305,298,0
291,266,304,302,0
289,265,304,304,0
289,267,304,305,0
289,277,304,307,0
291,294,305,309,0
294,309,305,311,0
297,320,305,313,0
300,326,306,315,0
302,328,306,316,0
304,328,306,318,0
306,325,306,318,0
307,320,305,317,0
308,316,304,314,0
309,315,304,312,0
311,318,304,310,0
313,321,305,309,0
315,322,306,308,0
316,320,307,307,0
315,316,307,306,0
314,312,307,305,0
311,309,307,306,0
309,309,308,308,0
307,313,308,311,0
307,319,309,315,0
308,323,310,318,0
307,325,310,319,0
307,326,310,320,0
306,325,309,320,0
304,325,309,321,0
303,327,308,321,0
302,334,306,320,0
302,341,305,317,0
303,341,303,310,0
305,334,301,304,0
307,324,299,300,0
308,315,298,298,0
307,308,298,297,0
307,304,299,297,0
306,305,299,297,0
306,310,299,298,0
308,311,300,302,0
311,308,303,308,0
316,301,306,315,0
323,298,310,321,0
330,304,312,325,0
335,313,313,325,0
331,319,312,320,0
319,319,310,312,0
308,314,308,303,0
300,303,307,295,0
296,287,305,288,0
295,269,304,284,0
297,255,303,284,0
298,253,302,287,0
297,262,302,292,0
296,276,302,297,0
297,289,304,304,0
300,299,305,309,0
304,305,307,313,0
305,307,308,314,0
304,304,309,315,0
301,300,310,314,0
297,298,311,314,0
295,297,311,314,0
294,297,311,316,0
293,299,311,320,0
295,304,310,327,0
299,316,311,334,0
303,327,310,337,0
307,332,309,336,0
309,333,308,331,0
310,333,307,325,0
310,330,305,317,0
311,324,303,308,0
311,318,300,300,0
312,316,299,293,0
312,316,299,290,0
312,317,299,288,0
312,315,300,288,0
309,309,301,288,0
305,305,301,287,0
299,307,301,286,0
294,312,301,285,0
292,319,302,284,0
293,326,303,284,0
296,333,304,285,0
300,337,304,287,0
305,334,304,290,0
309,328,305,293,0
313,322,305,296,0
316,317,305,297,0
317,312,304,297,0
319,304,303,295,0
319,295,301,294,0
318,287,301,292,0
317,281,301,292,0
316,280,301,294,0
313,283,302,297,0
311,294,303,301,0
310,310,305,306,0
309,326,306,310,0
308,335,307,313,0
309,338,309,315,0
311,338,309,317,0
310,333,309,320,0
307,323,309,322,0
304,312,308,324,0
303,303,308,325,0
303,295,308,324,0
302,293,308,319,0
300,302,307,314,0
299,314,306,308,0
298,319,306,305,0
298,316,306,302,0
300,309,307,302,0
304,304,308,303,0
307,304,309,304,0
310,308,309,304,0
313,316,311,304,0
313,326,312,303,0
312,337,313,302,0
310,347,312,302,0
307,352,311,303,0
305,350,310,305,0
305,341,309,306,0
305,329,308,306,0
306,316,306,303,0
303,306,305,300,0
297,308,304,298,0
292,321,304,295,0
292,330,304,293,0
295,327,305,292,0
302,317,307,291,0
309,310,309,293,0
313,308,311,295,0
314,309,313,297,0
313,308,316,299,0
311,305,317,301,0
310,302,317,304,0
309,299,316,308,0
307,298,316,311,0
304,296,315,312,0
300,293,313,313,0
297,293,312,312,0
295,296,311,311,0
297,303,312,309,0
299,314,312,307,0
302,324,312,304,0
304,327,311,302,0
307,321,310,300,0
310,312,309,300,0
313,303,308,302,0
315,294,307,304,0
315,287,307,307,0
314,291,307,313,0
314,308,308,320,0
314,328,310,327,0
314,343,312,335,0
313,351,313,345,0
311,352,314,353,0
308,344,314,357,0
305,333,312,358,0
302,324,312,354,0
302,320,311,348,0
305,321,312,339,0
309,321,313,329,0
312,319,313,317,0
313,316,312,306,0
313,312,311,297,0
311,311,309,290,0
310,311,307,285,0
310,313,304,281,0
312,311,303,278,0
315,309,303,275,0
315,305,303,276,0
312,302,306,280,0
309,302,308,284,0
307,308,309,289,0
306,316,309,292,0
305,319,309,294,0
305,314,308,297,0
305,300,308,298,0
305,283,307,297,0
304,274,307,295,0
302,276,307,293,0
299,282,305,291,0
297,288,304,290,0
296,291,304,290,0
299,292,304,290,0
303,298,305,291,0
309,309,305,292,0
313,316,305,292,0
315,318,305,294,0
316,318,306,296,0
315,316,307,299,0
314,311,307,303,0
312,307,308,307,0
309,304,308,310,0
307,304,308,311,0
304,306,307,311,0
300,311,307,308,0
298,321,306,306,0
299,333,305,304,0
301,341,304,300,0
303,343,302,297,0
304,340,301,295,0
305,334,300,295,0
308,328,301,297,0
312,321,303,301,0
317,316,303,303,0
320,313,303,304,0
323,313,303,304,0
320,314,303,305,0
312,314,305,308,0
304,312,308,312,0
300,312,311,318,0
301,317,314,324,0
303,325,315,329,0
305,335,316,333,0
306,342,316,336,0
307,346,316,337,0
306,344,316,337,0
305,338,315,334,0
303,330,314,329,0
302,320,312,322,0
301,310,311,315,0
301,302,310,308,0
300,299,310,303,0
299,298,309,300,0
299,301,309,299,0
300,307,309,298,0
301,310,309,298,0
303,309,309,299,0
304,304,309,300,0
304,302,309,302,0
306,306,310,308,0
310,313,312,315,0
315,318,313,323,0
317,319,314,329,0
314,315,313,331,0
307,305,313,329,0
301,294,313,327,0
297,288,312,324,0
296,288,312,321,0
297,292,311,319,0
300,300,310,316,0
302,313,309,313,0
304,325,308,310,0
305,330,308,308,0
307,327,307,307,0
308,321,307,306,0
310,315,308,307,0
312,310,308,309,0
312,303,309,313,0
309,297,310,320,0
306,294,311,327,0
304,296,313,332,0
305,298,314,334,0
306,297,315,331,0
307,298,316,325,0
307,307,315,317,0
307,318,314,307,0
306,326,312,297,0
304,331,311,288,0
302,336,310,280,0
302,337,309,276,0
303,331,308,275,0
305,324,307,275,0
306,317,306,276,0
305,306,304,277,0
302,291,301,276,0
298,280,300,276,0
299,279,299,278,0
302,285,300,282,0
307,295,301,286,0
312,306,302,291,0
314,319,304,295,0
316,330,305,299,0
316,338,306,304,0
315,342,308,309,0
314,341,310,313,0
313,334,311,316,0
312,325,313,319,0
311,319,314,323,0
310,314,314,325,0
308,308,314,325,0
307,302,313,324,0
305,297,311,322,0
304,296,310,319,0
305,297,308,314,0
305,299,306,309,0
305,300,304,304,0
305,296,303,300,0
304,287,302,298,0
303,279,302,297,0
303,277,303,297,0
306,286,305,300,0
312,299,307,304,0
318,307,308,307,0
323,310,308,308,0
327,311,307,308,0
321,311,307,309,0
309,313,306,312,0
300,320,305,315,0
296,327,304,317,0
294,334,303,318,0
293,339,304,317,0
293,342,305,317,0
294,340,307,315,0
294,335,307,314,0
295,330,307,313,0
298,326,306,311,0
304,320,305,310,0
309,314,304,307,0
310,307,304,304,0
308,300,304,301,0
305,294,305,301,0
302,292,306,302,0
300,296,308,305,0
298,302,309,308,0
296,308,310,311,0
295,317,310,314,0
295,324,310,320,0
296,326,310,325,0
298,322,311,331,0
299,315,312,336,0
301,308,312,338,0
303,305,312,339,0
303,306,311,338,0
303,309,310,334,0
303,310,309,329,0
303,307,307,323,0
304,304,305,317,0
304,299,303,312,0
304,292,301,308,0
305,284,300,305,0
308,282,300,304,0
312,288,301,303,0
315,298,303,299,0
315,310,304,295,0
315,322,304,290,0
314,332,303,286,0
312,338,302,281,0
311,339,300,277,0
309,336,299,275,0
309,329,298,277,0
308,323,297,283,0
308,318,297,288,0
308,315,296,291,0
307,311,296,293,0
308,308,295,294,0
310,301,296,294,0
311,294,297,296,0
313,295,299,296,0
314,300,301,297,0
314,306,302,296,0
313,308,302,296,0
312,308,304,296,0
311,308,307,298,0
311,311,309,299,0
312,318,310,300,0
313,325,310,301,0
314,329,310,299,0
314,329,310,298,0
313,327,309,296,0
310,321,308,295,0
308,314,308,294,0
308,307,307,293,0
309,305,307,292,0
313,308,306,292,0
315,312,304,293,0
311,315,303,296,0
304,317,301,298,0
297,318,299,298,0
290,319,298,300,0
287,314,298,301,0
287,301,299,303,0
290,292,299,305,0
295,290,301,308,0
304,296,303,312,0
313,306,305,315,0
319,319,307,317,0
320,332,309,319,0
318,340,311,320,0
315,343,311,320,0
311,340,310,320,0
307,335,309,320,0
305,328,308,321,0
303,321,308,322,0
303,315,308,323,0
303,312,307,321,0
302,312,306,319,0
301,311,305,316,0
300,310,304,315,0
299,310,304,315,0
299,309,304,317,0
301,310,306,317,0
304,310,307,317,0
309,309,309,317,0
313,307,309,315,0
317,302,308,312,0
321,297,307,308,0
321,295,308,304,0
315,295,307,301,0
306,295,307,299,0
300,297,307,298,0
296,300,306,297,0
295,300,304,296,0
297,298,304,297,0
299,302,304,299,0
301,308,304,302,0
303,314,305,307,0
306,319,305,312,0
309,325,306,317,0
311,329,305,321,0
314,332,305,323,0
315,333,305,323,0
317,331,307,321,0
318,328,308,317,0
318,326,309,311,0
315,325,309,303,0
310,321,308,293,0
304,318,307,285,0
300,318,307,280,0
300,318,307,278,0
301,315,307,277,0
303,310,308,280,0
305,305,309,284,0
306,302,309,290,0
305,302,309,295,0
304,304,308,300,0
304,310,306,303,0
305,316,306,305,0
306,321,306,308,0
307,325,306,309,0
307,325,306,309,0
308,323,306,307,0
308,319,305,305,0
310,313,305,304,0
311,309,305,305,0
309,307,306,310,0
307,307,307,315,0
305,310,308,319,0
304,311,309,320,0
303,310,310,318,0
302,307,310,315,0
300,302,310,309,0
298,295,310,304,0
296,287,310,301,0
297,285,308,299,0
298,288,307,297,0
300,285,307,297,0
300,277,307,298,0
301,277,308,303,0
301,288,308,311,0
302,301,309,319,0
303,303,310,325,0
304,298,310,326,0
305,294,310,326,0
306,297,310,325,0
307,303,310,323,0
307,313,310,321,0
306,325,309,316,0
304,336,308,309,0
305,342,307,301,0
306,343,305,293,0
307,340,303,287,0
305,336,302,283,0
303,332,300,282,0
300,329,299,282,0
300,330,300,285,0
301,330,301,289,0
304,324,302,294,0
308,312,303,299,0
310,304,305,303,0
312,304,307,307,0
313,310,309,310,0
313,317,311,312,0
313,322,311,313,0
312,324,311,313,0
311,323,311,311,0
310,325,310,310,0
310,327,309,307,0
309,328,308,304,0
307,324,307,302,0
303,318,308,300,0
301,308,307,298,0
299,294,307,296,0
299,281,306,294,0
300,280,305,293,0
302,289,305,293,0
305,300,304,295,0
307,304,304,297,0
308,304,304,299,0
312,305,304,302,0
317,312,304,306,0
324,319,305,309,0
327,322,306,310,0
322,321,307,309,0
315,318,307,308,0
309,315,308,307,0
307,313,309,305,0
309,312,309,303,0
312,310,308,301,0
312,307,307,298,0
309,303,305,295,0
305,299,304,294,0
303,297,304,293,0
300,297,304,293,0
298,296,304,292,0
296,295,303,292,0
296,296,303,293,0
295,298,303,295,0
296,301,304,299,0
298,306,305,304,0
301,314,306,307,0
303,322,306,310,0
305,329,306,312,0
307,337,306,314,0
310,349,308,316,0
312,356,309,317,0
312,355,309,317,0
312,348,308,317,0
312,339,309,316,0
312,331,309,315,0
311,325,309,313,0
308,322,310,311,0
305,320,309,310,0
303,317,309,311,0
303,314,308,315,0
304,310,307,322,0
306,307,307,329,0
307,304,306,336,0
306,302,307,340,0
305,302,307,341,0
305,304,308,338,0
306,307,309,330,0
310,314,311,319,0
313,321,312,308,0
315,325,312,299,0
315,321,312,294,0
313,312,311,291,0
311,298,310,289,0
309,282,309,288,0
307,272,308,289,0
306,273,307,291,0
305,282,307,293,0
302,294,306,296,0
299,308,306,298,0
296,319,306,300,0
294,324,305,301,0
293,326,304,302,0
296,323,304,304,0
301,315,303,305,0
306,307,303,306,0
311,302,302,307,0
315,303,303,310,0
318,305,305,312,0
318,304,307,313,0
316,300,308,312,0
313,295,308,308,0
309,295,307,303,0
307,301,306,299,0
305,309,304,296,0
304,312,302,293,0
303,313,300,292,0
304,315,299,292,0
305,318,298,293,0
308,318,298,294,0
310,318,297,296,0
312,319,297,297,0
313,321,296,298,0
310,325,296,300,0
306,330,297,301,0
304,335,298,304,0
303,337,300,306,0
302,335,301,306,0
303,327,302,307,0
304,318,304,306,0
305,312,305,305,0
307,309,306,303,0
310,305,306,301,0
313,299,306,301,0
316,291,307,304,0
317,287,308,309,0
317,287,308,314,0
314,292,307,317,0
309,304,305,317,0
304,314,304,314,0
302,319,303,309,0
302,319,302,303,0
304,318,301,299,0
308,316,301,296,0
313,315,301,295,0
317,315,302,296,0
320,315,302,296,0
316,316,302,297,0
309,315,302,298,0
304,312,303,301,0
301,307,305,305,0
300,302,306,310,0
299,295,306,314,0
298,291,306,317,0
299,289,305,318,0
301,292,305,318,0
303,298,304,317,0
304,306,303,315,0
303,311,303,311,0
302,315,302,306,0
299,316,301,300,0
295,311,299,293,0
291,301,297,285,0
289,290,296,279,0
291,287,297,277,0
297,297,298,279,0
303,310,300,283,0
307,317,303,288,0
311,316,305,292,0
316,310,307,295,0
320,304,308,296,0
321,300,308,298,0
320,299,307,302,0
318,301,307,307,0
315,309,307,312,0
313,320,306,317,0
311,329,306,321,0
311,336,306,323,0
310,340,306,325,0
309,340,305,325,0
309,337,305,323,0
307,331,304,318,0
306,324,302,310,0
304,317,301,302,0
303,312,300,296,0
303,310,300,292,0
304,310,301,292,0
305,309,302,293,0
306,306,303,298,0
306,303,304,305,0
307,300,305,312,0
308,300,305,314,0
310,300,306,314,0
312,301,305,312,0
314,302,304,308,0
314,300,303,305,0
311,296,302,303,0
307,293,301,300,0
304,289,300,300,0
304,287,300,300,0
306,285,300,301,0
308,286,301,302,0
311,289,303,305,0
314,295,305,306,0
316,303,307,307,0
318,312,307,307,0
319,319,307,308,0
321,323,307,308,0
322,324,307,308,0
322,324,306,309,0
319,322,307,311,0
314,319,307,311,0
311,320,308,311,0
308,322,308,309,0
303,323,308,307,0
299,322,307,307,0
297,318,307,308,0
298,317,307,309,0
299,319,307,310,0
300,323,306,310,0
300,325,305,310,0
300,330,305,310,0
302,334,304,311,0
305,330,306,312,0
307,318,306,310,0
307,306,307,306,0
306,296,307,301,0
303,290,307,296,0
301,290,308,294,0
300,294,308,294,0
300,304,309,296,0
301,316,310,299,0
306,325,311,301,0
311,331,311,303,0
316,331,310,303,0
321,328,308,302,0
323,322,307,301,0
319,317,305,299,0
312,316,305,297,0
306,318,304,296,0
303,320,303,293,0
301,318,302,290,0
301,311,301,287,0
301,304,302,285,0
302,301,304,285,0
306,303,307,288,0
313,306,311,294,0
319,311,313,298,0
321,315,313,302,0
321,320,313,306,0
321,323,312,310,0
319,323,311,312,0
314,320,310,312,0
308,317,309,312,0
300,313,308,311,0
292,308,307,311,0
288,304,306,311,0
289,307,305,313,0
292,317,305,314,0
297,329,304,313,0
301,338,305,313,0
304,341,306,311,0
307,336,307,311,0
308,326,308,312,0
309,315,309,313,0
309,306,310,313,0
308,297,311,314,0
306,289,311,313,0
305,280,310,309,0
303,274,310,303,0
302,274,309,298,0
301,277,307,294,0
300,281,304,292,0
300,280,301,291,0
301,277,300,291,0
302,275,299,296,0
304,281,298,304,0
307,301,299,314,0
311,324,301,322,0
311,338,303,325,0
310,341,303,322,0
306,332,302,316,0
302,315,302,308,0
299,295,301,302,0
297,283,301,298,0
299,284,302,299,0
305,296,305,303,0
312,311,309,308,0
318,324,310,313,0
320,331,312,317,0
321,333,313,318,0
321,334,314,317,0
320,333,314,315,0
318,330,313,311,0
316,326,312,308,0
315,320,311,305,0
312,313,309,304,0
310,306,307,302,0
308,300,305,300,0
306,295,302,299,0
305,290,300,299,0
303,286,299,301,0
302,282,298,304,0
301,278,299,306,0
301,275,301,308,0
300,274,302,308,0
300,276,303,307,0
299,280,305,306,0
298,289,306,306,0
299,296,308,309,0
300,293,309,314,0
300,279,310,317,0
298,260,309,319,0
296,243,308,319,0
293,233,307,319,0
294,239,308,318,0
298,263,309,317,0
302,292,310,315,0
304,315,310,313,0
306,331,311,310,0
309,343,312,308,0
313,350,314,306,0
315,345,314,304,0
317,331,314,301,0
317,312,313,299,0
316,295,313,298,0
315,283,313,299,0
314,280,313,301,0
315,288,313,304,0
318,304,312,306,0
319,317,312,307,0
315,322,311,305,0
309,319,311,301,0
303,311,310,297,0
299,305,308,293,0
300,307,307,291,0
302,316,305,292,0
300,325,305,294,0
297,329,305,297,0
296,330,306,299,0
297,327,305,298,0
299,321,305,297,0
302,311,305,297,0
305,299,305,298,0
307,285,305,298,0
306,272,304,298,0
304,261,303,300,0
301,257,303,304,0
302,269,304,311,0
307,291,307,318,0
312,310,309,323,0
315,319,311,324,0
314,320,310,320,0
310,316,307,315,0
306,310,305,308,0
302,298,303,300,0
297,280,301,293,0
294,265,299,287,0
293,253,298,283,0
291,248,296,280,0
291,261,297,282,0
295,295,299,286,0
304,329,303,292,0
313,347,305,297,0
318,349,306,301,0
320,343,308,305,0
321,338,311,308,0
321,333,312,312,0
320,330,313,313,0
318,330,314,313,0
315,331,313,314,0
313,330,313,314,0
311,330,313,315,0
309,332,312,317,0
308,335,312,320,0
306,338,312,323,0
304,339,312,325,0
302,336,310,326,0
300,331,309,325,0
298,324,308,322,0
297,315,306,316,0
298,304,304,309,0
301,292,302,300,0
306,279,301,292,0
311,265,301,285,0
310,252,301,280,0
307,247,301,279,0
303,256,302,279,0
303,271,305,283,0
304,287,308,288,0
306,301,310,293,0
307,312,312,299,0
307,320,313,304,0
306,326,313,309,0
303,334,314,315,0
301,343,314,319,0
300,352,313,321,0
300,358,313,320,0
301,356,312,317,0
300,347,312,312,0
300,337,310,307,0
301,331,309,304,0
305,326,309,303,0
309,318,310,303,0
311,308,310,302,0
309,297,310,301,0
306,282,309,299,0
304,268,309,297,0
305,265,309,296,0
307,274,309,294,0
308,288,309,292,0
310,304,310,290,0
313,321,311,290,0
317,335,311,291,0
321,343,311,292,0
325,344,311,293,0
328,335,311,295,0
326,324,312,298,0
320,317,314,303,0
313,312,315,309,0
308,309,317,314,0
306,307,317,317,0
304,305,317,316,0
302,304,315,314,0
301,305,312,312,0
300,306,310,310,0
299,306,308,310,0
299,305,307,308,0
300,302,307,309,0
301,300,308,311,0
302,303,311,315,0
304,311,313,317,0
308,322,314,317,0
310,332,314,316,0
310,340,314,313,0
308,343,313,309,0
304,340,312,305,0
300,334,311,303,0
297,325,311,301,0
297,316,311,299,0
299,311,311,295,0
301,311,310,292,0
304,314,309,290,0
305,318,308,291,0
306,324,309,294,0
308,332,310,298,0
309,334,313,303,0
311,333,315,307,0
312,330,315,309,0
313,323,316,309,0
312,316,315,307,0
311,309,315,304,0
309,306,314,302,0
307,308,314,302,0
306,317,314,306,0
307,331,314,311,0
309,340,315,313,0
311,340,315,312,0
313,332,314,311,0
315,319,313,308,0
316,305,312,306,0
316,294,311,305,0
315,288,311,306,0
313,287,311,306,0
311,288,311,306,0
308,289,311,306,0
305,286,313,307,0
303,282,314,309,0
304,280,315,312,0
305,290,316,312,0
306,311,315,311,0
306,331,314,309,0
305,343,312,306,0
305,340,311,306,0
307,330,310,308,0
309,318,309,309,0
310,308,309,310,0
307,299,309,309,0
302,292,309,305,0
298,287,309,300,0
297,285,308,295,0
299,280,307,289,0
304,279,306,286,0
310,286,306,286,0
315,301,306,287,0
316,317,306,289,0
316,330,307,289,0
315,339,307,290,0
314,345,308,291,0
312,348,309,293,0
310,345,309,294,0
310,336,310,295,0
311,326,310,296,0
313,315,311,297,0
316,306,311,300,0
319,303,311,302,0
316,306,311,304,0
309,311,312,306,0
303,319,312,308,0
300,324,312,309,0
299,322,312,309,0
298,314,311,309,0
297,304,312,310,0
296,294,312,311,0
294,284,312,312,0
292,272,312,314,0
292,269,313,315,0
294,275,313,315,0
298,283,313,310,0
302,292,311,305,0
305,306,310,300,0
307,320,308,298,0
307,328,306,299,0
307,327,306,300,0
308,322,307,302,0
307,317,308,303,0
304,312,309,302,0
300,307,309,300,0
297,302,307,296,0
294,297,305,293,0
292,296,304,290,0
293,301,303,290,0
297,307,303,292,0
300,307,303,293,0
303,302,302,293,0
303,293,302,292,0
302,288,301,292,0
303,294,302,292,0
307,309,304,294,0
312,321,306,295,0
317,325,307,296,0
321,325,308,297,0
321,321,308,298,0
317,317,307,300,0
313,317,306,301,0
309,320,305,303,0
306,325,304,305,0
305,328,302,309,0
303,330,301,315,0
302,331,301,319,0
300,330,301,320,0
299,327,300,319,0
299,321,300,316,0
300,314,300,313,0
301,307,300,311,0
301,306,301,312,0
302,312,303,317,0
304,319,306,323,0
306,325,309,328,0
308,331,310,332,0
308,334,311,333,0
309,330,310,332,0
308,318,309,328,0
307,306,306,322,0
305,299,304,314,0
304,300,302,308,0
305,306,301,301,0
308,312,300,295,0
310,317,299,291,0
310,319,297,289,0
309,318,296,287,0
308,316,295,286,0
307,313,295,286,0
307,309,294,287,0
307,305,294,289,0
307,302,294,291,0
307,297,294,292,0
305,288,293,292,0
303,283,293,293,0
302,286,294,295,0
302,294,295,299,0
304,304,297,303,0
307,314,299,307,0
310,321,299,311,0
311,324,299,315,0
310,324,299,319,0
309,323,300,323,0
307,323,300,325,0
306,319,300,325,0
303,312,299,322,0
301,306,297,318,0
300,303,295,313,0
301,299,294,308,0
304,297,294,304,0
307,298,295,301,0
310,299,296,301,0
312,295,298,301,0
314,292,300,302,0
315,292,302,306,0
310,293,304,310,0
303,295,307,314,0
299,301,308,317,0
297,309,307,316,0
297,317,305,310,0
299,322,303,304,0
301,324,300,297,0
303,324,298,292,0
304,323,296,290,0
304,318,294,289,0
304,310,292,288,0
304,297,290,287,0
303,288,289,288,0
302,287,290,293,0
303,289,292,297,0
306,292,294,302,0
307,295,296,305,0
308,301,298,308,0
309,309,300,310,0
308,314,301,312,0
306,316,302,314,0
305,316,303,316,0
305,312,304,318,0
305,301,306,320,0
304,284,309,321,0
302,269,312,323,0
300,262,313,325,0
301,259,312,328,0
304,262,310,332,0
309,272,308,334,0
314,291,305,333,0
317,316,303,330,0
320,336,302,324,0
321,348,300,317,0
320,353,299,312,0
319,353,298,308,0
320,349,298,304,0
320,344,298,301,0
320,340,298,299,0
320,336,299,298,0
318,333,299,298,0
316,332,300,298,0
312,334,300,297,0
308,336,299,296,0
303,334,298,295,0
300,330,297,296,0
299,322,297,298,0
299,307,297,301,0
300,285,298,304,0
302,269,299,305,0
306,273,300,306,0
310,293,300,304,0
312,313,300,301,0
311,323,300,300,0
311,318,301,302,0
313,304,303,308,0
319,294,306,316,0
323,291,307,323,0
325,292,307,329,0
322,292,306,331,0
317,291,305,330,0
311,288,304,325,0
305,282,303,318,0
300,274,302,309,0
296,268,301,303,0
295,271,302,301,0
298,281,303,302,0
304,289,305,305,0
308,291,306,307,0
311,288,307,308,0
313,286,307,307,0
314,290,308,305,0
314,302,309,304,0
313,312,310,303,0
314,319,309,303,0
315,321,309,303,0
316,323,308,303,0
318,323,307,304,0
319,324,307,305,0
319,324,307,308,0
318,325,308,311,0
317,327,308,314,0
314,326,308,315,0
310,322,307,312,0
305,315,306,308,0
302,306,305,306,0
301,295,305,306,0
300,283,305,308,0
301,275,306,310,0
304,274,305,311,0
308,282,305,312,0
314,300,304,312,0
321,322,304,311,0
325,338,304,310,0
326,340,304,310,0
324,336,305,309,0
321,331,305,308,0
319,326,307,307,0
317,321,308,305,0
315,316,308,302,0
314,313,308,298,0
314,310,307,293,0
315,306,306,288,0
318,299,306,284,0
322,293,305,286,0
326,290,304,293,0
327,295,304,302,0
321,303,304,310,0
312,313,305,316,0
304,321,306,319,0
298,327,307,318,0
294,331,307,316,0
292,332,306,313,0
293,331,307,310,0
296,324,307,309,0
301,313,307,308,0
303,298,308,310,0
303,283,308,311,0
300,266,308,311,0
295,249,307,309,0
291,236,307,309,0
291,233,308,310,0
297,244,309,314,0
305,263,310,320,0
313,283,311,325,0
317,302,311,330,0
319,321,311,332,0
319,334,310,331,0
317,343,310,327,0
315,347,309,321,0
312,347,309,314,0
309,344,310,309,0
307,338,310,304,0
305,331,309,300,0
304,323,309,298,0
303,315,309,298,0
305,310,310,299,0
307,307,310,302,0
310,307,311,304,0
314,307,311,306,0
316,306,310,306,0
316,305,310,306,0
313,303,311,305,0
309,303,312,303,0
306,304,311,299,0
304,306,310,296,0
303,308,308,292,0
302,307,306,289,0
301,302,304,286,0
301,296,303,283,0
301,288,303,280,0
300,283,303,277,0
298,285,304,275,0
296,292,305,274,0
295,299,306,275,0
294,305,307,278,0
296,311,309,287,0
302,316,313,299,0
311,317,317,312,0
318,316,319,323,0
320,313,320,330,0
317,308,321,333,0
311,307,319,334,0
306,310,318,331,0
302,314,316,327,0
301,320,315,323,0
301,323,313,318,0
301,322,312,312,0
301,317,310,305,0
300,308,310,298,0
298,298,308,290,0
295,291,307,284,0
294,290,307,281,0
295,292,307,280,0
298,295,307,282,0
301,298,307,285,0
303,301,308,287,0
305,306,308,290,0
307,313,309,294,0
308,320,310,303,0
308,323,312,313,0
308,325,313,321,0
307,325,314,325,0
306,324,314,327,0
305,319,315,325,0
304,312,315,322,0
304,306,316,318,0
302,299,317,314,0
300,291,317,310,0
298,282,317,309,0
295,274,316,311,0
292,269,315,313,0
290,274,315,316,0
290,286,314,320,0
292,297,314,324,0
296,299,314,326,0
300,293,314,326,0
305,285,313,326,0
309,280,313,328,0
312,280,312,330,0
315,288,313,330,0
317,300,313,327,0
316,310,313,319,0
315,313,313,310,0
318,311,312,301,0
318,307,312,293,0
312,308,311,288,0
306,314,310,285,0
302,320,309,285,0
301,325,308,285,0
300,326,307,286,0
299,323,306,286,0
298,317,305,286,0
297,310,304,286,0
296,304,304,287,0
296,300,305,289,0
299,303,307,293,0
304,309,309,298,0
306,314,310,303,0
307,314,312,309,0
305,312,313,316,0
303,314,314,322,0
301,317,316,329,0
300,321,317,333,0
299,325,317,336,0
299,327,317,334,0
299,324,315,330,0
299,318,314,324,0
299,308,312,320,0
298,298,310,315,0
299,293,309,312,0
300,294,309,306,0
303,294,309,300,0
306,295,308,292,0
307,296,307,286,0
304,294,306,282,0
298,291,305,281,0
297,290,306,283,0
300,294,309,288,0
308,299,312,295,0
315,302,313,300,0
318,304,314,304,0
316,304,314,305,0
311,307,314,306,0
304,308,313,308,0
301,309,313,310,0
301,311,312,313,0
302,315,311,316,0
304,318,310,317,0
304,318,309,316,0
304,316,308,314,0
303,311,307,311,0
301,303,305,308,0
300,296,305,306,0
299,292,305,305,0
298,293,305,305,0
299,300,305,307,0
301,308,307,311,0
304,314,308,316,0
307,316,309,320,0
309,317,310,323,0
310,317,310,324,0
310,318,310,325,0
309,319,309,329,0
307,320,307,330,0
305,319,306,329,0
302,315,304,325,0
299,303,303,321,0
295,284,302,314,0
291,262,300,307,0
289,253,299,302,0
290,259,299,300,0
294,269,300,303,0
299,282,302,308,0
304,297,303,315,0
308,310,304,321,0
311,316,306,326,0
313,315,307,329,0
316,308,309,329,0
317,303,310,330,0
319,302,311,329,0
318,302,311,327,0
317,299,310,323,0
315,298,309,319,0
314,304,308,313,0
313,313,307,308,0
311,320,305,303,0
311,323,304,301,0
311,323,303,299,0
311,322,302,299,0
311,319,301,301,0
310,314,300,303,0
309,307,300,306,0
308,299,301,309,0
307,295,302,312,0
307,296,303,315,0
308,300,305,317,0
310,305,306,320,0
313,311,307,321,0
317,314,309,323,0
321,315,309,324,0
322,313,309,325,0
316,310,307,326,0
306,308,306,325,0
297,308,304,322,0
289,308,302,318,0
285,312,301,315,0
286,321,302,316,0
290,330,304,318,0
296,332,306,319,0
302,329,307,318,0
305,325,307,315,0
307,322,306,312,0
308,319,306,310,0
309,315,305,311,0
311,309,305,310,0
312,299,305,310,0
314,289,305,308,0
316,281,305,306,0
318,279,306,305,0
319,280,307,306,0
318,283,307,307,0
313,284,307,309,0
307,285,306,311,0
302,285,306,312,0
299,287,306,314,0
298,290,307,316,0
299,296,307,319,0
301,305,308,324,0
304,312,308,329,0
307,314,307,330,0
308,312,306,328,0
308,308,304,324,0
304,305,302,318,0
300,302,301,310,0
296,295,300,302,0
293,285,299,297,0
293,280,299,297,0
296,285,301,300,0
300,293,304,304,0
305,295,306,307,0
309,292,307,308,0
310,289,306,309,0
309,288,305,311,0
307,294,304,315,0
305,306,304,320,0
305,320,304,324,0
306,333,304,327,0
307,341,304,326,0
307,341,304,323,0
307,335,303,317,0
305,325,303,312,0
304,315,302,308,0
306,309,302,306,0
309,306,302,305,0
311,306,301,305,0
312,307,300,307,0
312,307,300,308,0
312,306,300,310,0
311,305,301,311,0
312,305,301,311,0
313,305,302,309,0
313,305,302,306,0
312,306,302,304,0
311,310,301,303,0
310,314,301,304,0
309,317,302,306,0
308,319,302,310,0
308,316,303,314,0
308,309,303,318,0
308,298,303,320,0
309,281,303,320,0
309,261,302,319,0
309,244,301,317,0
310,234,300,317,0
311,236,301,317,0
312,246,302,317,0
312,259,302,315,0
311,275,302,312,0
311,292,302,307,0
310,307,303,303,0
309,318,303,298,0
309,323,303,294,0
310,324,303,288,0
310,323,301,284,0
312,325,300,281,0
314,330,298,281,0
316,332,298,284,0
314,329,298,288,0
312,324,299,295,0
311,319,301,300,0
310,313,302,304,0
310,307,303,305,0
309,301,303,304,0
309,296,304,304,0
308,290,305,306,0
307,287,305,307,0
305,287,306,309,0
304,288,307,311,0
301,291,308,313,0
299,294,309,314,0
297,301,310,316,0
298,310,310,317,0
300,314,311,318,0
302,316,311,319,0
304,318,311,319,0
306,321,312,317,0
307,324,311,315,0
308,328,311,311,0
309,329,311,308,0
309,325,311,305,0
308,316,310,303,0
306,301,310,301,0
305,281,309,299,0
303,259,308,298,0
302,243,307,297,0
302,239,306,295,0
303,240,304,296,0
305,250,305,300,0
307,266,307,306,0
309,285,310,312,0
312,302,311,315,0
313,316,311,313,0
313,326,310,309,0
311,332,308,303,0
309,335,307,299,0
308,334,306,296,0
309,331,305,293,0
311,323,305,292,0
312,311,304,291,0
312,299,303,290,0
310,287,301,288,0
308,282,299,288,0
309,285,299,290,0
311,290,299,293,0
312,295,301,298,0
315,300,303,303,0
317,304,304,308,0
318,307,306,315,0
318,311,307,323,0
317,316,309,332,0
315,320,310,337,0
312,321,310,338,0
307,318,309,334,0
302,309,308,327,0
298,297,306,317,0
295,286,304,309,0
296,282,304,302,0
298,284,305,298,0
303,293,307,297,0
309,300,308,295,0
315,301,309,294,0
320,297,309,295,0
324,296,308,297,0
324,298,308,302,0
322,302,309,305,0
318,305,309,305,0
314,307,309,304,0
311,308,309,301,0
308,309,308,299,0
306,309,307,298,0
305,308,307,298,0
305,308,306,298,0
306,311,306,298,0
308,316,305,296,0
308,322,304,293,0
306,327,304,290,0
303,328,303,287,0
299,321,302,286,0
295,313,302,286,0
292,306,302,286,0
290,303,302,287,0
289,303,302,289,0
290,303,303,293,0
292,304,303,297,0
296,303,304,302,0
299,302,306,306,0
302,299,307,310,0
305,298,309,314,0
307,300,311,317,0
309,305,312,317,0
310,310,312,317,0
310,314,312,316,0
307,315,311,314,0
303,309,310,312,0
299,299,309,308,0
296,286,308,302,0
295,275,306,296,0
294,271,304,291,0
294,273,303,290,0
295,282,304,291,0
297,293,304,292,0
299,302,303,292,0
302,307,303,292,0
305,308,304,293,0
310,308,306,294,0
316,305,308,295,0
322,302,309,297,0
322,296,310,298,0
317,290,310,301,0
312,287,311,305,0
310,289,311,309,0
310,296,311,313,0
308,302,311,316,0
305,301,311,318,0
299,297,310,317,0
295,292,310,316,0
294,290,310,316,0
296,294,311,317,0
299,303,310,318,0
302,312,310,319,0
303,318,309,319,0
305,320,309,320,0
307,322,309,321,0
309,325,309,320,0
311,325,308,319,0
314,319,307,316,0
317,310,306,314,0
317,301,306,314,0
313,296,307,316,0
310,298,307,319,0
307,310,309,321,0
306,327,310,325,0
304,338,311,328,0
303,340,312,329,0
301,334,312,327,0
299,321,310,320,0
298,306,308,311,0
296,291,307,301,0
297,281,305,293,0
298,280,304,288,0
299,282,304,286,0
299,283,304,285,0
297,282,304,285,0
296,281,303,286,0
297,282,304,289,0
299,285,305,292,0
302,292,305,297,0
304,298,306,299,0
305,302,306,301,0
305,305,306,302,0
306,308,306,303,0
307,308,307,305,0
306,308,307,307,0
305,308,309,309,0
304,311,309,313,0
305,315,310,319,0
308,319,311,327,0
310,320,312,332,0
311,321,313,334,0
311,323,313,333,0
311,325,313,330,0
311,326,312,325,0
310,325,311,321,0
309,322,310,317,0
309,320,309,314,0
309,316,309,312,0
310,308,308,312,0
311,297,309,312,0
312,287,310,310,0
313,280,312,308,0
312,273,313,306,0
309,265,313,305,0
304,261,313,304,0
301,266,313,304,0
299,275,313,303,0
296,285,311,300,0
294,294,310,297,0
293,302,309,294,0
292,306,307,291,0
292,308,306,289,0
294,312,305,287,0
297,315,304,287,0
300,317,304,288,0
302,318,303,290,0
304,317,304,293,0
305,314,305,296,0
306,311,306,300,0
306,306,307,303,0
306,302,308,304,0
307,300,308,305,0
308,299,309,304,0
308,295,308,302,0
304,288,307,299,0
299,280,306,295,0
295,279,306,295,0
293,294,307,299,0
295,317,309,306,0
300,335,312,315,0
307,343,313,322,0
317,343,313,327,0
326,341,312,330,0
330,340,311,330,0
327,340,311,329,0
318,339,311,327,0
310,336,312,324,0
305,330,313,321,0
302,319,313,316,0
299,307,312,314,0
296,296,310,315,0
295,293,309,317,0
295,293,309,319,0
295,297,308,320,0
296,304,308,319,0
298,313,308,317,0
300,319,308,313,0
301,321,308,309,0
301,321,308,302,0
301,321,308,295,0
300,320,307,288,0
300,318,305,283,0
301,314,304,280,0
302,310,304,279,0
305,305,304,279,0
307,300,304,280,0
308,295,304,282,0
308,290,305,286,0
306,285,306,289,0
304,276,305,292,0
303,271,304,294,0
303,272,304,297,0
305,278,305,299,0
305,281,306,299,0
305,282,305,298,0
305,290,306,300,0
306,301,307,304,0
307,308,309,309,0
306,307,310,312,0
304,300,310,314,0
303,290,309,315,0
304,281,308,315,0
305,272,306,312,0
304,265,305,308,0
304,264,303,306,0
306,273,303,306,0
311,286,304,310,0
316,296,305,311,0
318,302,307,312,0
319,307,309,312,0
319,310,310,311,0
318,311,311,312,0
316,311,312,312,0
314,309,311,312,0
312,310,311,311,0
310,313,310,310,0
307,317,309,308,0
304,320,309,308,0
303,322,309,308,0
303,321,308,307,0
304,312,308,305,0
302,297,306,302,0
299,283,304,298,0
298,278,302,296,0
299,279,301,296,0
302,285,301,298,0
308,295,303,300,0
314,307,304,300,0
320,316,306,299,0
324,321,308,299,0
326,324,310,299,0
325,324,312,300,0
324,324,313,299,0
323,324,313,297,0
322,328,313,294,0
321,332,312,294,0
320,333,311,296,0
318,329,311,298,0
313,318,309,299,0
305,304,307,298,0
299,289,306,297,0
294,277,304,296,0
289,272,302,296,0
288,282,302,297,0
289,296,303,301,0
293,304,304,305,0
299,304,306,309,0
305,303,308,312,0
310,304,309,314,0
313,304,310,315,0
313,304,311,316,0
311,303,312,313,0
307,301,312,309,0
303,299,311,305,0
302,297,310,306,0
303,297,308,309,0
306,298,308,312,0
310,297,307,314,0
316,297,307,314,0
323,297,308,312,0
329,299,308,307,0
329,302,308,301,0
323,306,307,296,0
316,308,308,293,0
310,306,308,292,0
307,304,309,295,0
304,303,311,301,0
302,302,311,309,0
302,303,310,318,0
303,309,309,326,0
307,320,308,334,0
311,328,308,337,0
314,333,308,336,0
315,335,308,330,0
313,336,307,322,0
309,335,306,312,0
305,331,304,302,0
303,328,304,294,0
303,325,304,289,0
305,321,304,286,0
307,317,304,286,0
309,313,304,287,0
310,309,304,289,0
311,305,304,293,0
311,303,304,297,0
311,301,304,302,0
311,297,304,305,0
311,292,306,309,0
311,287,308,310,0
310,284,310,310,0
310,286,312,309,0
309,292,313,310,0
309,299,314,313,0
310,307,314,317,0
310,316,313,320,0
310,325,311,320,0
309,330,309,317,0
308,331,307,312,0
307,331,305,306,0
306,328,305,302,0
306,324,305,298,0
306,321,306,295,0
308,318,305,292,0
309,316,304,289,0
308,314,302,286,0
307,311,302,285,0
307,308,303,287,0
308,308,304,290,0
308,308,306,293,0
307,308,307,297,0
306,307,308,300,0
306,305,310,301,0
308,302,310,300,0
308,297,310,298,0
308,296,308,297,0
308,299,307,296,0
308,301,307,295,0
309,300,306,295,0
308,295,307,296,0
306,291,307,297,0
303,286,307,298,0
300,284,306,298,0
297,287,305,299,0
296,296,304,301,0
296,308,305,306,0
297,317,305,312,0
299,321,307,318,0
302,323,308,325,0
304,325,311,332,0
307,329,312,338,0
309,327,313,342,0
311,322,314,344,0
312,316,313,342,0
312,311,312,341,0
312,306,310,340,0
311,304,309,340,0
311,307,308,338,0
311,312,307,334,0
311,316,307,329,0
311,315,306,321,0
310,310,305,310,0
309,303,304,297,0
307,295,303,285,0
306,287,302,277,0
306,281,301,272,0
306,281,302,272,0
308,284,303,274,0
307,288,304,279,0
308,292,305,283,0
309,293,305,288,0
312,291,306,292,0
313,290,307,295,0
313,291,308,298,0
312,295,308,299,0
311,304,309,302,0
310,315,309,304,0
310,324,308,306,0
313,327,307,307,0
315,322,305,305,0
314,314,302,303,0
308,310,300,303,0
304,312,300,303,0
304,313,301,303,0
305,309,302,303,0
305,300,302,303,0
305,290,302,305,0
306,287,302,307,0
309,294,303,309,0
312,305,304,309,0
314,317,306,310,0
312,329,307,312,0
309,336,309,312,0
305,338,309,311,0
303,337,309,307,0
301,337,308,304,0
301,338,306,300,0
301,338,305,296,0
302,334,304,293,0
303,329,303,292,0
302,323,302,292,0
300,318,302,294,0
298,313,302,296,0
295,309,301,298,0
293,303,300,298,0
292,296,299,297,0
294,289,299,295,0
297,284,299,291,0
301,279,299,288,0
305,277,299,285,0
309,281,301,284,0
313,290,303,286,0
316,297,306,288,0
317,297,307,291,0
315,292,308,294,0
312,286,308,296,0
308,280,308,299,0
304,278,308,303,0
301,281,308,308,0
299,289,308,311,0
298,299,308,313,0
298,308,308,314,0
299,314,308,313,0
303,315,307,312,0
308,311,307,310,0
310,306,306,307,0
310,302,305,304,0
309,299,304,301,0
308,296,304,300,0
308,296,304,300,0
308,298,304,303,0
308,300,305,307,0
310,304,307,314,0
312,309,308,322,0
312,309,309,328,0
311,312,309,331,0
311,317,309,329,0
310,321,308,324,0
309,323,306,319,0
307,324,305,315,0
305,328,304,311,0
302,333,304,309,0
300,336,303,310,0
301,332,303,312,0
303,324,303,312,0
308,320,303,311,0
313,314,304,309,0
316,306,305,305,0
317,300,306,302,0
317,299,306,299,0
318,302,307,296,0
317,304,308,294,0
315,302,309,294,0
313,298,309,294,0
311,289,309,295,0
308,278,308,297,0
306,272,307,299,0
306,275,306,304,0
305,284,307,309,0
301,296,308,314,0
298,306,308,317,0
296,315,308,318,0
297,323,309,317,0
299,329,309,316,0
302,333,310,313,0
304,335,310,309,0
305,336,310,305,0
306,337,309,303,0
307,337,308,300,0
307,334,307,298,0
306,327,307,297,0
306,319,306,296,0
307,312,307,296,0
309,304,306,297,0
311,297,306,298,0
312,295,305,299,0
313,299,305,300,0
312,301,304,301,0
309,299,304,302,0
306,294,303,302,0
303,289,303,302,0
300,282,303,301,0
299,275,303,301,0
301,272,304,301,0
305,272,305,301,0
310,271,304,302,0
316,271,304,303,0
318,281,303,305,0
316,299,304,309,0
311,314,306,314,0
309,324,308,318,0
308,332,310,322,0
306,338,311,324,0
304,339,312,324,0
301,338,311,323,0
300,336,311,322,0
301,333,311,322,0
303,326,311,322,0
305,318,311,321,0
306,313,310,319,0
308,311,310,317,0
308,310,309,316,0
309,310,309,317,0
308,308,309,317,0
307,307,309,319,0
305,304,308,320,0
304,299,309,323,0
303,293,309,324,0
305,286,310,324,0
306,277,309,322,0
306,264,306,317,0
303,253,304,313,0
302,257,301,311,0
304,277,301,313,0
307,301,301,315,0
311,320,302,317,0
314,328,304,318,0
315,327,307,318,0
315,321,309,316,0
314,312,311,314,0
311,305,311,313,0
309,300,311,313,0
306,296,309,312,0
304,291,306,310,0
300,287,303,309,0
297,283,300,308,0
295,282,298,308,0
295,286,298,308,0
299,292,300,307,0
307,295,303,306,0
315,291,305,304,0
319,285,306,301,0
317,284,307,298,0
313,289,308,295,0
308,300,308,292,0
305,312,309,289,0
304,322,309,287,0
303,328,308,285,0
301,330,307,286,0
298,328,305,286,0
294,325,304,288,0
290,323,303,289,0
287,319,302,290,0
287,314,303,291,0
291,310,303,293,0
297,313,303,296,0
303,320,302,298,0
308,324,302,300,0
312,321,302,302,0
314,315,303,303,0
313,310,304,304,0
313,308,305,304,0
310,305,305,304,0
308,304,305,303,0
306,306,304,301,0
305,311,304,299,0
305,315,303,299,0
305,317,303,299,0
305,315,302,300,0
305,313,303,302,0
305,313,303,304,0
304,314,303,305,0
303,314,302,304,0
301,316,301,303,0
301,317,300,304,0
303,315,300,306,0
307,313,301,309,0
311,314,302,312,0
313,317,304,314,0
314,318,305,316,0
314,315,306,315,0
313,309,306,315,0
311,305,307,314,0
310,303,307,313,0
308,302,307,311,0
305,298,307,311,0
303,291,306,311,0
301,280,305,312,0
298,260,303,313,0
295,236,302,313,0
293,217,300,312,0
292,215,299,312,0
296,228,299,311,0
302,252,300,310,0
309,280,300,308,0
316,304,301,306,0
321,318,301,305,0
326,324,302,305,0
328,324,303,306,0
324,322,303,308,0
317,320,304,311,0
310,320,304,314,0
304,325,304,316,0
299,331,304,316,0
296,337,304,315,0
294,341,304,312,0
294,342,303,309,0
296,339,304,306,0
299,335,304,304,0
299,329,304,303,0
299,325,304,303,0
301,321,304,304,0
303,319,303,305,0
303,314,302,308,0
303,308,300,311,0
303,304,299,317,0
305,303,300,322,0
308,306,301,328,0
310,312,302,331,0
312,317,304,334,0
311,321,305,336,0
309,324,305,335,0
306,327,306,331,0
304,328,306,325,0
303,326,305,322,0
302,322,304,320,0
300,313,304,318,0
298,304,303,314,0
296,296,303,309,0
294,291,302,302,0
292,289,300,294,0
292,292,299,287,0
294,298,299,282,0
298,299,299,281,0
302,297,299,282,0
304,297,299,284,0
305,299,300,286,0
305,301,299,287,0
306,303,299,290,0
307,305,300,294,0
308,300,301,297,0
308,285,303,299,0
307,267,305,299,0
306,254,305,298,0
304,248,305,296,0
302,249,304,294,0
301,260,304,294,0
301,277,304,295,0
302,296,304,297,0
303,312,304,300,0
303,322,304,304,0
302,326,303,305,0
301,328,302,307,0
300,327,301,307,0
300,321,300,307,0
300,315,301,306,0
302,309,302,307,0
304,304,303,308,0
305,300,304,311,0
306,299,304,315,0
306,303,305,320,0
306,311,306,324,0
306,319,307,326,0
305,324,307,325,0
305,326,307,323,0
306,325,306,320,0
305,322,305,317,0
304,319,302,314,0
302,315,300,312,0
300,312,298,309,0
298,313,297,305,0
296,319,296,301,0
293,329,297,297,0
291,337,298,294,0
290,340,299,292,0
291,338,301,291,0
295,331,303,293,0
303,325,304,295,0
312,319,304,298,0
318,311,304,301,0
324,305,304,303,0
326,302,305,303,0
326,301,305,303,0
325,300,305,303,0
319,298,306,303,0
309,296,306,304,0
301,295,305,305,0
296,295,305,306,0
295,297,304,308,0
294,297,304,308,0
295,294,303,308,0
295,291,303,308,0
296,289,303,309,0
295,287,303,309,0
296,283,302,309,0
295,277,302,307,0
295,265,300,304,0
295,251,300,300,0
295,239,300,297,0
295,232,300,295,0
295,232,300,294,0
296,238,302,295,0
297,251,303,297,0
298,268,305,299,0
301,290,305,301,0
304,313,306,302,0
307,330,306,302,0
310,340,306,302,0
312,345,305,305,0
312,346,306,312,0
312,343,306,320,0
312,337,307,327,0
311,327,306,330,0
310,317,306,330,0
310,309,305,326,0
312,304,305,321,0
311,301,304,317,0
307,298,304,312,0
304,297,304,307,0
303,299,304,304,0
303,305,304,302,0
304,312,305,301,0
305,316,306,300,0
305,319,307,298,0
304,319,306,294,0
303,317,306,291,0
301,316,305,288,0
300,317,305,287,0
301,318,305,287,0
303,317,306,288,0
304,314,307,289,0
304,309,306,289,0
303,305,305,288,0
303,301,304,287,0
303,295,303,287,0
304,291,303,287,0
305,288,303,288,0
306,283,303,290,0
307,275,304,294,0
308,269,305,300,0
308,268,307,305,0
309,273,308,310,0
310,283,308,314,0
311,291,308,317,0
312,296,308,317,0
312,304,309,317,0
310,317,310,316,0
306,328,311,314,0
304,335,310,312,0
302,339,308,309,0
300,338,307,308,0
300,333,307,310,0
301,323,307,311,0
299,313,308,312,0
298,302,308,312,0
297,293,307,312,0
297,286,307,310,0
299,283,307,308,0
303,283,308,306,0
305,285,308,303,0
306,290,309,304,0
307,295,310,307,0
308,297,312,312,0
309,298,313,316,0
311,297,313,319,0
311,299,312,320,0
310,304,310,320,0
307,309,308,319,0
304,313,306,317,0
301,316,304,315,0
300,316,303,312,0
297,311,303,308,0
295,304,302,304,0
293,301,302,299,0
295,300,302,297,0
300,296,302,297,0
307,289,301,298,0
313,282,302,299,0
320,278,303,300,0
327,279,304,301,0
333,286,306,302,0
333,297,309,304,0
327,305,311,304,0
320,310,313,304,0
314,311,314,303,0
311,308,314,302,0
307,300,314,301,0
304,289,312,302,0
301,277,311,305,0
298,270,309,311,0
298,274,308,319,0
300,287,308,326,0
303,302,308,332,0
306,313,308,335,0
309,316,308,335,0
311,308,308,333,0
313,297,308,330,0
314,285,308,326,0
315,279,307,320,0
316,280,307,313,0
317,283,306,306,0
315,285,307,299,0
312,286,308,294,0
309,286,309,291,0
307,287,309,289,0
305,292,310,288,0
305,300,311,289,0
305,306,312,290,0
305,311,312,291,0
303,311,311,293,0
300,305,310,293,0
297,297,310,295,0
296,295,311,300,0
298,297,312,304,0
302,297,311,307,0
306,298,310,308,0
310,303,310,309,0
313,314,309,309,0
315,328,309,308,0
315,344,309,307,0
312,352,309,305,0
307,351,310,305,0
304,343,310,304,0
301,331,310,303,0
299,318,309,301,0
298,309,309,300,0
299,306,309,301,0
300,309,310,304,0
302,312,310,307,0
302,308,311,310,0
300,298,312,313,0
296,285,313,316,0
292,272,313,319,0
288,262,311,319,0
287,256,309,319,0
290,257,307,319,0
295,265,306,319,0
300,275,305,317,0
305,283,303,311,0
307,289,303,304,0
308,294,303,298,0
307,295,303,294,0
305,297,303,291,0
305,301,302,289,0
306,309,303,288,0
308,317,304,290,0
312,322,304,294,0
318,325,305,299,0
323,325,305,304,0
328,322,305,308,0
329,319,304,310,0
323,317,303,311,0
312,316,303,310,0
303,314,304,308,0
298,312,304,307,0
298,311,304,306,0
301,309,305,306,0
304,308,305,307,0
305,307,305,310,0
304,307,306,314,0
304,309,306,320,0
304,309,307,324,0
302,303,306,325,0
300,296,306,322,0
298,294,305,316,0
299,295,305,310,0
301,302,305,303,0
305,314,305,299,0
309,326,304,297,0
312,332,303,297,0
313,333,302,298,0
312,329,301,300,0
311,322,300,301,0
310,319,299,301,0
309,323,298,302,0
309,329,299,302,0
308,333,300,303,0
308,332,302,304,0
309,328,303,306,0
308,323,305,311,0
307,318,307,314,0
306,314,308,317,0
304,313,309,319,0
303,313,310,319,0
301,309,309,317,0
299,307,307,314,0
298,312,304,311,0
298,320,302,310,0
297,324,301,311,0
297,320,302,313,0
300,311,303,317,0
305,298,305,323,0
308,284,306,329,0
308,270,306,332,0
306,261,305,332,0
302,259,304,330,0
300,263,304,328,0
299,269,304,325,0
300,276,305,323,0
302,285,306,319,0
305,293,307,315,0
307,294,308,311,0
308,288,308,306,0
308,278,307,300,0
307,267,307,294,0
305,261,306,290,0
302,263,305,289,0
300,276,305,290,0
298,294,305,294,0
299,313,306,297,0
302,327,308,299,0
306,331,309,301,0
312,325,307,301,0
317,315,306,302,0
322,306,305,302,0
326,301,305,304,0
325,300,305,307,0
319,304,306,311,0
312,307,308,316,0
307,306,311,322,0
304,299,313,329,0
301,292,314,335,0
298,283,314,341,0
295,276,314,343,0
292,276,313,344,0
291,287,312,344,0
294,297,311,344,0
298,300,310,341,0
302,302,309,336,0
306,305,308,329,0
308,309,308,321,0
310,313,308,312,0
312,318,307,302,0
313,323,306,292,0
313,320,305,285,0
313,310,304,280,0
310,296,304,276,0
304,282,304,273,0
299,270,304,272,0
296,267,305,272,0
296,273,307,276,0
299,281,310,281,0
303,283,313,287,0
306,283,315,290,0
310,282,315,293,0
312,280,315,293,0
311,278,314,293,0
310,277,313,291,0
307,279,310,289,0
305,282,308,289,0
304,287,307,291,0
306,293,307,294,0
307,297,306,297,0
308,305,307,303,0
308,315,307,310,0
305,323,307,316,0
302,327,307,321,0
303,326,307,322,0
306,320,305,321,0
310,312,304,318,0
313,308,304,314,0
314,308,304,310,0
313,315,305,306,0
310,323,306,304,0
308,322,307,304,0
307,313,307,305,0
306,298,307,305,0
307,284,307,306,0
308,281,307,306,0
309,291,307,307,0
310,306,306,310,0
311,322,305,317,0
312,336,305,323,0
312,344,304,327,0
311,341,302,328,0
310,331,301,327,0
308,316,300,322,0
308,301,300,317,0
310,284,301,311,0
314,267,302,305,0
318,257,303,300,0
322,249,304,296,0
324,245,304,293,0
319,244,306,292,0
311,246,308,294,0
304,249,309,297,0
302,248,310,300,0
301,242,310,301,0
302,234,309,302,0
303,230,308,300,0
303,236,307,298,0
304,254,307,296,0
306,274,306,297,0
305,288,305,298,0
304,296,305,299,0
303,301,304,300,0
304,306,304,302,0
306,312,304,306,0
309,319,304,310,0
311,326,304,313,0
314,332,304,314,0
315,337,305,314,0
315,344,306,313,0
312,349,308,312,0
311,346,311,312,0
314,334,314,312,0
317,314,314,314,0
317,292,313,317,0
313,278,311,320,0
306,278,309,322,0
300,286,309,321,0
298,295,309,317,0
299,297,308,312,0
300,292,305,307,0
299,283,303,303,0
298,276,301,301,0
299,273,300,301,0
300,277,300,302,0
303,292,300,303,0
306,307,300,303,0
310,313,300,301,0
312,307,299,300,0
313,291,299,298,0
313,262,299,296,0
311,225,300,297,0
309,197,302,300,0
307,198,308,305,0
306,225,315,310,0
308,253,321,313,0
315,278,325,315,0
317,298,327,315,0
314,309,327,313,0
310,316,326,310,0
308,323,320,309,0
310,326,313,310,0
310,325,304,309,0
306,320,298,310,0
299,312,297,310,0
294,303,297,313,0
292,302,299,315,0
295,309,301,318,0
298,319,303,320,0
301,325,304,319,0
302,325,305,316,0
301,320,304,313,0
299,313,303,309,0
298,308,303,307,0
299,306,303,307,0
302,302,304,309,0
304,298,305,312,0
305,296,304,313,0
305,291,305,317,0
305,289,306,322,0
306,293,306,328,0
306,298,304,330,0
304,298,300,327,0
302,292,297,321,0
303,283,297,315,0
308,275,300,312,0
314,269,304,310,0
317,265,307,308,0
316,267,310,305,0
312,273,312,302,0
305,277,313,299,0
299,277,314,298,0
295,277,314,298,0
293,278,314,301,0
293,280,312,306,0
294,288,311,315,0
297,301,310,322,0
301,316,308,325,0
303,327,307,325,0
305,331,306,321,0
306,328,304,316,0
307,319,303,309,0
308,308,302,303,0
308,300,303,301,0
310,300,303,302,0
312,304,303,303,0
312,301,302,304,0
311,295,301,303,0
311,289,300,301,0
312,282,299,297,0
313,273,298,292,0
315,270,297,289,0
321,269,297,289,0
323,263,298,290,0
316,255,299,291,0
305,257,299,293,0
298,273,299,295,0
296,298,299,300,0
299,324,301,306,0
306,341,301,309,0
312,349,300,309,0
313,347,299,306,0
307,334,298,303,0
297,316,298,299,0
290,298,297,297,0
285,276,298,297,0
283,258,300,298,0
286,255,302,299,0
290,262,304,301,0
295,270,306,303,0
300,286,308,304,0
304,306,309,305,0
307,326,309,306,0
309,339,307,306,0
311,347,306,305,0
311,350,304,304,0
311,352,302,303,0
311,352,301,302,0
311,348,299,303,0
309,340,298,303,0
305,324,296,304,0
303,304,294,304,0
303,283,294,304,0
309,267,295,305,0
316,265,297,306,0
320,277,298,307,0
318,296,299,306,0
312,312,299,303,0
307,323,300,303,0
303,329,301,303,0
301,325,302,305,0
300,315,304,307,0
300,306,305,307,0
301,303,305,306,0
301,306,305,302,0
300,307,304,298,0
298,303,304,296,0
299,301,305,296,0
303,303,306,298,0
309,308,307,301,0
314,316,307,303,0
317,324,305,304,0
317,328,305,305,0
316,326,305,305,0
316,319,307,306,0
317,308,308,307,0
318,294,311,309,0
319,278,313,311,0
319,260,314,312,0
318,249,315,313,0
317,253,317,314,0
316,267,318,315,0
315,282,320,316,0
314,298,322,320,0
317,316,323,324,0
322,335,322,329,0
323,347,320,333,0
320,347,318,335,0
316,337,315,334,0
308,322,311,328,0
298,305,307,321,0
293,297,305,312,0
295,301,304,305,0
300,313,305,299,0
304,323,305,294,0
304,329,304,290,0
303,333,301,291,0
301,337,298,298,0
300,339,297,307,0
298,333,297,315,0
296,322,296,318,0
295,311,296,319,0
297,309,297,320,0
301,314,298,320,0
304,323,300,319,0
305,337,300,317,0
307,356,300,315,0
310,369,299,313,0
312,370,298,311,0
313,361,297,307,0
313,345,296,303,0
313,325,296,298,0
313,307,295,293,0
313,293,296,289,0
314,283,296,287,0
313,278,296,286,0
312,277,296,287,0
310,277,298,288,0
308,281,300,290,0
305,293,301,291,0
302,312,301,292,0
297,329,300,292,0
292,336,298,293,0
289,331,298,294,0
291,318,300,296,0
296,295,301,297,0
301,266,302,298,0
304,246,303,297,0
307,239,303,295,0
311,242,302,294,0
313,254,301,294,0
313,272,300,297,0
313,287,299,300,0
312,298,299,303,0
314,312,299,305,0
316,327,301,308,0
318,338,302,310,0
319,342,304,312,0
319,342,305,313,0
319,340,306,313,0
317,335,308,312,0
316,328,309,311,0
316,321,309,309,0
315,316,309,306,0
315,315,308,303,0
314,318,308,300,0
314,322,307,298,0
315,322,305,296,0
317,319,304,293,0
318,312,302,292,0
316,301,301,295,0
313,293,301,300,0
312,296,302,306,0
313,308,301,311,0
317,320,300,313,0
320,324,301,313,0
320,320,303,313,0
313,308,306,312,0
304,291,309,311,0
296,276,311,310,0
289,267,311,307,0
286,270,311,304,0
287,289,312,303,0
291,319,312,304,0
297,344,311,307,0
301,354,311,312,0
306,352,311,316,0
309,347,311,319,0
311,343,312,320,0
311,343,313,319,0
312,344,314,315,0
312,342,314,309,0
312,334,311,304,0
311,322,308,299,0
309,305,304,295,0
307,288,302,292,0
305,280,302,292,0
304,285,304,293,0
305,296,306,296,0
306,306,308,297,0
307,316,310,299,0
310,323,312,300,0
313,322,312,299,0
312,315,313,301,0
308,308,314,307,0
306,303,315,317,0
306,300,315,325,0
308,298,314,331,0
309,297,313,334,0
309,296,312,333,0
309,299,311,329,0
311,305,310,324,0
314,312,309,320,0
316,319,309,316,0
318,321,309,311,0
318,321,310,307,0
317,320,311,301,0
315,320,311,294,0
314,322,312,288,0
313,327,312,283,0
311,330,312,278,0
309,331,311,275,0
308,331,311,273,0
308,329,311,273,0
307,323,311,275,0
305,317,310,278,0
303,312,310,281,0
301,306,309,283,0
298,295,307,283,0
297,286,306,284,0
299,291,305,287,0
302,308,307,293,0
305,325,309,298,0
308,332,310,302,0
310,329,310,306,0
310,319,309,310,0
311,310,309,313,0
311,305,310,316,0
311,309,311,317,0
312,316,312,317,0
314,322,314,317,0
315,323,315,317,0
316,320,316,315,0
316,313,318,314,0
314,308,319,313,0
312,306,319,312,0
311,308,318,312,0
311,313,316,313,0
311,318,315,315,0
313,321,313,319,0
315,318,311,322,0
317,312,309,322,0
315,303,307,322,0
306,299,307,321,0
297,303,307,321,0
293,320,309,320,0
294,343,309,318,0
297,356,310,315,0
301,357,311,311,0
302,349,310,307,0
301,335,310,303,0
300,319,310,302,0
299,304,312,303,0
300,296,313,306,0
301,294,315,309,0
304,301,317,314,0
306,314,319,319,0
307,329,320,322,0
307,339,320,325,0
306,344,319,326,0
306,345,318,327,0
307,343,316,327,0
306,342,314,327,0
305,340,312,325,0
306,337,310,322,0
309,332,309,318,0
311,330,310,314,0
311,330,310,311,0
311,328,312,310,0
310,322,312,312,0
308,318,313,316,0
307,317,312,318,0
306,317,312,318,0
305,318,310,315,0
305,319,309,310,0
306,318,308,304,0
307,311,308,297,0
308,297,309,290,0
309,280,310,285,0
310,267,311,282,0
309,261,312,281,0
308,267,313,283,0
305,284,313,286,0
304,303,313,289,0
302,318,310,291,0
300,327,306,291,0
299,331,304,292,0
300,331,303,293,0
304,330,303,295,0
309,331,304,298,0
310,332,305,301,0
308,330,306,303,0
306,329,306,304,0
304,334,305,304,0
304,342,305,304,0
304,347,304,303,0
304,343,303,301,0
305,329,303,300,0
305,309,304,300,0
306,294,305,304,0
306,289,306,309,0
307,292,305,317,0
307,297,304,325,0
307,302,303,333,0
308,303,302,337,0
310,301,302,337,0
311,297,303,331,0
311,296,304,322,0
311,300,305,315,0
311,313,306,309,0
311,329,307,305,0
310,345,307,302,0
307,357,307,300,0
305,367,307,299,0
303,371,306,299,0
301,368,306,298,0
299,356,305,298,0
299,342,304,299,0
301,329,304,301,0
303,319,303,304,0
305,311,303,308,0
307,311,304,313,0
308,311,304,318,0
309,307,306,321,0
311,301,307,324,0
313,300,308,325,0
316,302,310,326,0
319,304,312,325,0
323,304,313,323,0
325,304,313,318,0
319,307,313,313,0
310,314,312,309,0
304,323,312,306,0
303,331,311,303,0
303,339,309,301,0
302,345,307,298,0
301,351,306,296,0
302,352,306,294,0
303,346,307,293,0
304,337,308,294,0
303,326,308,295,0
301,315,308,298,0
300,304,307,302,0
299,291,305,306,0
302,282,304,309,0
306,279,303,312,0
308,278,304,315,0
309,278,306,317,0
309,283,308,321,0
311,295,309,325,0
312,310,308,326,0
313,323,307,324,0
313,332,306,320,0
312,335,307,314,0
311,333,307,308,0
307,328,306,302,0
303,324,305,296,0
300,319,304,293,0
298,314,304,292,0
298,311,304,292,0
298,311,305,292,0
298,315,305,293,0
299,323,306,295,0
301,334,306,297,0
304,345,306,300,0
307,352,306,303,0
309,350,307,305,0
311,333,308,307,0
312,308,310,308,0
311,279,312,310,0
309,253,313,312,0
308,236,314,312,0
308,233,315,310,0
308,247,314,308,0
307,268,311,307,0
307,292,307,305,0
307,317,304,302,0
309,336,304,299,0
309,347,305,297,0
309,352,306,296,0
309,350,307,296,0
310,338,306,295,0
309,323,305,296,0
309,309,305,298,0
309,294,305,300,0
308,279,305,302,0
307,272,305,303,0
305,271,306,304,0
305,273,306,302,0
303,282,307,301,0
303,297,308,300,0
302,312,308,300,0
302,323,308,301,0
303,330,308,304,0
303,336,308,308,0
305,345,307,311,0
306,353,307,313,0
308,356,307,312,0
311,356,307,312,0
309,351,307,313,0
301,341,305,314,0
292,329,305,317,0
286,317,305,318,0
284,306,306,319,0
288,298,308,317,0
291,295,308,312,0
291,292,306,305,0
290,289,304,301,0
290,290,303,300,0
293,297,304,303,0
297,302,306,308,0
301,300,309,314,0
303,297,311,319,0
302,296,312,321,0
302,296,313,322,0
301,298,313,322,0
301,301,311,320,0
301,306,310,319,0
301,310,309,316,0
300,309,307,313,0
299,306,306,309,0
301,307,304,305,0
303,311,304,303,0
306,316,303,302,0
308,321,303,300,0
309,319,303,298,0
309,311,303,298,0
309,300,303,297,0
309,296,304,298,0
309,303,304,298,0
309,311,303,300,0
308,312,301,302,0
306,305,300,306,0
305,297,301,310,0
306,292,301,314,0
307,293,302,315,0
308,297,301,314,0
308,301,301,311,0
306,303,301,307,0
304,304,301,306,0
303,305,302,305,0
303,304,303,306,0
303,302,303,309,0
303,298,303,314,0
302,292,304,319,0
301,285,305,322,0
300,280,305,324,0
299,276,306,324,0
300,277,308,326,0
302,288,310,330,0
304,306,312,334,0
307,321,313,335,0
310,326,313,333,0
314,320,313,328,0
318,310,313,324,0
320,301,311,318,0
318,302,310,312,0
314,311,308,307,0
311,319,306,303,0
306,321,304,299,0
299,313,303,295,0
292,297,302,292,0
289,284,302,292,0
290,278,303,293,0
292,279,304,294,0
294,280,304,295,0
297,279,305,296,0
305,281,307,298,0
314,283,309,299,0
322,285,310,299,0
327,289,310,300,0
325,294,310,301,0
316,298,310,301,0
307,300,310,301,0
302,302,312,303,0
302,304,313,306,0
304,310,313,310,0
308,314,311,314,0
312,317,311,318,0
315,319,311,323,0
317,320,312,327,0
317,317,312,328,0
316,309,311,326,0
314,303,310,323,0
313,302,309,318,0
311,299,307,313,0
309,294,305,308,0
307,294,304,306,0
305,301,304,305,0
303,315,304,304,0
302,327,304,304,0
301,329,304,303,0
301,324,304,302,0
301,317,305,302,0
303,310,307,302,0
305,305,308,304,0
307,304,309,304,0
308,305,310,304,0
309,309,310,304,0
307,311,309,304,0
303,311,308,303,0
298,305,308,302,0
292,296,308,300,0
289,285,307,300,0
291,279,307,301,0
300,277,308,304,0
310,278,308,306,0
318,281,308,308,0
323,286,309,310,0
325,289,309,312,0
325,293,310,313,0
322,297,311,316,0
318,303,311,319,0
313,306,311,321,0
308,306,312,324,0
305,303,312,326,0
302,303,311,326,0
300,304,310,325,0
297,302,309,324,0
295,299,309,322,0
295,293,309,322,0
299,289,309,323,0
307,289,310,325,0
314,291,308,329,0
316,297,307,333,0
313,306,303,336,0
308,319,300,337,0
303,333,298,337,0
299,341,298,336,0
298,346,299,335,0
300,348,300,333,0
304,349,303,331,0
307,345,306,328,0
305,333,309,324,0
301,316,309,319,0
298,302,309,314,0
295,296,309,313,0
294,300,309,317,0
295,305,309,320,0
297,307,307,322,0
298,306,305,320,0
299,301,302,314,0
300,294,300,306,0
299,284,299,297,0
297,274,297,290,0
294,266,299,286,0
292,264,301,286,0
293,268,304,290,0
297,273,308,297,0
302,284,310,303,0
306,299,309,308,0
309,314,307,310,0
309,324,304,310,0
308,325,301,310,0
307,316,300,309,0
305,300,299,309,0
305,287,300,312,0
305,279,300,316,0
306,275,301,318,0
306,272,302,317,0
306,272,302,314,0
305,279,301,311,0
305,287,301,308,0
304,292,301,305,0
304,293,301,304,0
305,292,301,303,0
307,296,303,304,0
310,308,304,303,0
312,326,304,302,0
312,340,305,298,0
309,346,304,294,0
308,346,304,290,0
308,341,305,289,0
309,332,304,289,0
306,322,303,291,0
303,313,302,293,0
298,304,302,294,0
294,295,302,293,0
291,289,302,292,0
292,291,302,291,0
295,298,302,292,0
299,312,303,294,0
303,328,303,299,0
306,337,304,304,0
307,331,304,307,0
304,317,302,311,0
299,306,300,314,0
292,303,299,315,0
286,304,298,316,0
284,305,298,315,0
286,305,298,313,0
287,299,298,312,0
291,298,299,313,0
299,305,302,319,0
307,314,305,326,0
313,317,307,330,0
316,314,307,331,0
317,310,306,330,0
316,306,306,327,0
315,304,306,324,0
315,303,305,322,0
315,302,305,322,0
316,301,305,322,0
317,301,305,323,0
316,299,306,324,0
317,296,306,324,0
319,294,306,323,0
322,291,306,323,0
326,287,305,323,0
328,283,305,324,0
322,283,305,326,0
312,287,305,328,0
302,294,305,331,0
297,300,306,334,0
296,305,307,335,0
298,309,307,333,0
300,316,307,330,0
298,323,307,328,0
297,328,307,325,0
295,328,307,323,0
295,321,306,319,0
296,311,306,315,0
298,303,305,312,0
301,301,304,311,0
305,304,301,311,0
307,309,299,312,0
310,314,298,313,0
310,316,298,313,0
307,313,299,312,0
302,307,300,310,0
298,301,301,307,0
296,296,302,304,0
293,287,302,300,0
290,277,301,296,0
291,273,301,291,0
293,276,300,288,0
297,286,301,287,0
303,299,302,288,0
308,310,304,289,0
312,316,306,292,0
312,319,307,294,0
310,324,307,297,0
307,329,307,298,0
307,331,305,299,0
309,330,302,301,0
313,326,296,302,0
314,321,289,303,0
313,318,280,304,0
310,315,268,305,0
305,312,254,307,0
303,310,240,308,0
303,307,231,310,0
304,302,226,312,0
303,295,227,315,0
302,300,235,318,0
302,315,249,321,0
304,330,264,323,0
306,341,281,323,0
311,348,299,319,0
315,346,315,314,0
318,328,327,308,0
319,302,335,303,0
319,278,341,301,0
319,263,345,300,0
318,259,346,300,0
317,265,346,301,0
314,276,345,303,0
311,286,344,305,0
307,294,342,307,0
303,300,339,308,0
301,306,338,309,0
302,309,337,310,0
303,307,336,309,0
304,302,335,307,0
302,296,332,305,0
300,290,330,304,0
299,288,329,305,0
301,296,329,307,0
302,311,328,309,0
303,324,325,311,0
303,330,322,314,0
305,329,319,316,0
309,324,317,322,0
314,317,315,329,0
315,310,315,337,0
310,305,316,343,0
305,302,317,345,0
302,300,319,344,0
300,301,321,339,0
299,300,322,331,0
296,293,321,321,0
293,285,320,310,0
289,282,318,300,0
288,282,316,290,0
287,286,315,283,0
290,296,314,279,0
293,310,313,278,0
298,317,313,277,0
301,310,313,276,0
304,293,313,276,0
307,279,314,276,0
311,279,315,281,0
312,290,316,287,0
311,304,317,294,0
311,317,318,302,0
311,325,319,310,0
312,329,319,318,0
312,332,319,324,0
310,332,319,328,0
306,327,318,328,0
302,320,317,325,0
300,313,315,319,0
300,307,313,312,0
301,301,313,305,0
302,297,312,299,0
302,300,311,296,0
301,308,311,296,0
298,316,312,299,0
297,323,313,302,0
297,327,313,305,0
299,327,313,306,0
301,321,312,307,0
302,307,311,307,0
301,291,310,309,0
302,280,309,312,0
304,278,310,315,0
306,284,311,317,0
309,296,312,319,0
310,310,313,318,0
311,323,314,314,0
310,334,312,309,0
308,345,310,304,0
306,354,308,299,0
303,354,308,295,0
300,348,308,293,0
299,337,307,291,0
297,324,307,291,0
295,308,307,293,0
295,295,308,299,0
300,287,309,306,0
303,285,309,311,0
303,285,308,315,0
301,285,306,320,0
298,286,306,329,0
298,288,309,340,0
301,292,312,347,0
305,296,314,350,0
308,297,314,347,0
310,294,314,341,0
310,290,314,332,0
308,289,313,320,0
309,291,312,309,0
311,297,311,298,0
312,304,310,290,0
313,312,309,284,0
311,317,308,281,0
305,314,308,280,0
300,306,308,280,0
297,302,309,281,0
297,304,309,285,0
299,306,310,289,0
302,305,310,294,0
306,298,310,299,0
309,290,312,302,0
312,286,312,304,0
314,292,313,305,0
319,302,313,305,0
324,309,313,306,0
329,314,313,304,0
333,318,313,301,0
332,322,312,298,0
325,326,311,295,0
316,326,311,292,0
311,322,310,292,0
307,317,311,294,0
304,314,311,297,0
301,313,312,303,0
297,313,312,308,0
295,313,313,313,0
294,313,314,317,0
294,313,315,320,0
294,315,315,321,0
295,315,315,321,0
298,316,315,321,0
302,319,316,320,0
308,322,314,318,0
315,320,313,314,0
324,313,311,308,0
331,306,310,304,0
336,300,310,301,0
337,294,310,302,0
332,291,312,304,0
323,290,312,307,0
314,288,312,309,0
307,287,312,312,0
302,288,311,313,0
299,291,311,313,0
297,298,310,313,0
298,309,310,312,0
300,320,309,310,0
302,329,308,307,0
304,333,307,303,0
305,334,306,300,0
307,329,304,299,0
309,321,304,298,0
310,314,305,300,0
311,311,307,304,0
312,309,310,309,0
312,308,313,315,0
312,306,317,324,0
313,307,320,333,0
312,310,323,341,0
312,315,324,347,0
311,321,322,349,0
309,325,320,347,0
306,327,317,343,0
300,323,314,335,0
294,316,312,323,0
289,306,310,310,0
283,295,310,296,0
282,283,309,285,0
286,273,307,278,0
295,265,307,273,0
307,264,308,271,0
317,275,309,271,0
325,291,311,274,0
329,304,313,278,0
328,316,314,283,0
324,325,315,288,0
318,333,316,292,0
313,340,317,295,0
308,344,317,297,0
304,348,316,300,0
301,354,315,301,0
300,357,314,302,0
300,353,313,301,0
300,342,313,299,0
301,328,314,298,0
303,315,314,298,0
305,307,314,299,0
307,302,314,300,0
308,297,313,301,0
308,294,313,301,0
309,292,312,301,0
312,291,312,302,0
316,292,312,305,0
322,295,313,309,0
329,299,314,312,0
329,303,314,315,0
323,305,313,317,0
315,306,313,316,0
310,304,311,314,0
304,301,310,309,0
301,296,309,305,0
299,291,307,303,0
298,284,306,302,0
299,277,305,302,0
300,269,304,302,0
302,261,304,302,0
304,259,303,304,0
305,269,302,305,0
306,288,301,306,0
307,310,300,306,0
308,327,300,307,0
310,332,302,307,0
309,331,303,306,0
307,324,303,304,0
304,316,304,300,0
302,310,304,297,0
303,305,306,295,0
308,300,308,296,0
313,295,309,300,0
314,290,308,303,0
309,289,308,306,0
302,293,308,309,0
298,302,308,311,0
297,314,310,313,0
297,323,311,316,0
296,329,312,318,0
295,329,313,320,0
295,326,314,322,0
297,323,314,324,0
301,320,313,326,0
306,319,311,329,0
310,319,309,330,0
310,317,307,331,0
309,313,306,331,0
305,306,305,330,0
302,298,305,327,0
302,292,306,324,0
304,289,306,322,0
306,289,306,319,0
307,292,306,316,0
307,293,305,313,0
307,293,306,312,0
305,297,307,312,0
303,302,307,313,0
300,308,306,315,0
299,313,304,317,0
299,317,304,320,0
300,320,304,322,0
302,320,305,322,0
304,319,307,320,0
304,318,308,320,0
303,319,309,323,0
304,322,311,331,0
307,326,312,338,0
310,330,311,345,0
311,331,309,348,0
309,328,308,347,0
306,323,307,341,0
302,318,306,332,0
299,312,305,321,0
298,307,304,311,0
297,306,303,304,0
298,304,302,300,0
298,300,301,297,0
296,292,301,296,0
294,282,301,295,0
293,277,301,295,0
295,279,302,295,0
302,287,301,295,0
311,300,301,294,0
316,313,301,295,0
313,320,301,296,0
308,319,302,297,0
303,314,304,298,0
301,307,306,299,0
300,303,307,299,0
300,310,308,298,0
302,323,309,296,0
303,337,309,293,0
303,342,308,289,0
304,337,307,289,0
304,328,307,291,0
306,319,307,296,0
305,312,307,302,0
302,306,307,307,0
296,301,306,313,0
291,293,307,317,0
285,283,307,317,0
281,271,306,315,0
281,266,306,315,0
285,280,307,317,0
291,302,308,319,0
297,319,310,321,0
301,327,311,322,0
303,324,312,322,0
302,316,313,322,0
300,308,314,320,0
298,302,314,317,0
298,299,314,313,0
302,299,313,308,0
305,301,311,303,0
306,304,308,298,0
306,308,306,293,0
305,311,305,290,0
304,311,304,289,0
304,308,304,288,0
303,305,303,287,0
301,301,303,288,0
299,297,303,289,0
297,293,303,292,0
297,290,303,294,0
297,287,303,298,0
298,287,304,302,0
300,290,305,307,0
301,292,308,311,0
301,294,309,316,0
300,296,310,319,0
300,302,311,321,0
298,314,312,322,0
298,324,314,323,0
299,328,317,324,0
298,325,318,326,0
298,316,319,328,0
297,305,319,329,0
299,296,317,328,0
301,293,314,325,0
302,294,310,321,0
303,299,306,319,0
304,304,304,320,0
304,312,302,323,0
305,322,300,328,0
306,333,300,333,0
307,341,300,337,0
306,346,299,338,0
304,347,299,337,0
302,343,300,333,0
300,330,302,327,0
299,310,303,319,0
298,288,303,308,0
297,270,304,296,0
297,266,306,286,0
300,277,308,281,0
306,295,311,281,0
314,311,314,282,0
320,320,313,283,0
321,322,309,284,0
319,320,306,285,0
313,317,304,287,0
303,315,301,290,0
293,316,298,293,0
288,321,295,296,0
289,327,294,296,0
291,329,295,296,0
294,327,296,296,0
296,323,297,296,0
297,318,298,296,0
299,314,299,296,0
301,310,299,294,0
303,308,298,293,0
305,310,298,293,0
305,311,299,293,0
304,308,300,294,0
304,303,302,296,0
304,296,304,299,0
304,288,307,302,0
305,287,309,306,0
306,295,309,308,0
306,307,309,310,0
306,317,308,310,0
304,325,307,310,0
300,327,305,310,0
296,324,304,310,0
295,315,304,313,0
298,302,305,315,0
305,289,306,315,0
313,281,308,313,0
317,276,309,311,0
316,275,309,307,0
314,278,308,302,0
309,288,307,297,0
305,300,306,293,0
304,307,306,290,0
304,312,305,287,0
305,314,303,284,0
306,315,301,284,0
308,312,300,285,0
309,305,300,287,0
309,298,300,288,0
309,293,300,290,0
308,290,300,292,0
308,291,300,293,0
308,294,302,295,0
310,297,303,297,0
311,298,304,298,0
312,295,306,300,0
310,291,307,302,0
308,289,307,303,0
306,287,306,302,0
305,287,304,300,0
304,294,302,300,0
305,313,300,301,0
310,334,299,305,0
312,346,300,308,0
311,345,300,310,0
308,338,301,311,0
305,331,302,312,0
304,331,302,313,0
305,332,302,316,0
307,327,303,320,0
310,319,303,325,0
313,312,303,330,0
315,306,304,334,0
315,301,303,336,0
313,301,302,336,0
312,304,299,335,0
313,313,297,332,0
315,324,295,327,0
317,333,293,320,0
317,336,291,312,0
312,331,291,304,0
307,325,290,299,0
304,321,290,296,0
302,319,290,294,0
303,315,290,294,0
303,308,291,294,0
302,300,290,297,0
301,293,289,301,0
299,285,287,303,0
296,278,285,304,0
294,275,284,305,0
294,277,284,305,0
298,285,286,305,0
304,297,289,306,0
309,312,291,306,0
312,324,294,306,0
312,331,296,306,0
311,333,297,305,0
310,331,296,304,0
308,328,295,302,0
306,325,294,299,0
305,320,293,298,0
304,314,292,298,0
305,311,292,300,0
306,311,292,302,0
308,311,293,305,0
308,311,294,307,0
309,311,293,306,0
310,310,293,306,0
310,309,292,305,0
310,307,291,304,0
310,303,292,302,0
310,296,293,301,0
310,290,294,301,0
309,289,295,303,0
309,295,296,306,0
309,304,298,311,0
310,310,300,316,0
310,307,300,320,0
310,297,299,321,0
310,285,298,321,0
311,276,296,319,0
311,273,295,316,0
311,273,294,311,0
310,277,293,304,0
309,288,294,297,0
311,305,296,292,0
315,318,297,289,0
318,321,298,287,0
316,315,298,287,0
310,308,299,287,0
303,305,301,289,0
298,306,303,293,0
299,305,305,299,0
304,298,305,303,0
308,289,303,307,0
310,284,301,309,0
309,289,299,310,0
308,303,298,310,0
306,319,298,309,0
305,330,298,307,0
304,333,298,307,0
303,326,298,308,0
303,315,299,310,0
303,307,300,314,0
302,304,300,316,0
301,303,300,317,0
299,303,298,317,0
299,301,298,317,0
299,298,298,319,0
302,293,300,321,0
306,287,302,321,0
309,280,304,319,0
311,279,306,316,0
311,286,307,312,0
312,297,309,309,0
315,308,309,307,0
318,318,309,306,0
320,322,308,307,0
322,319,307,309,0
322,311,304,311,0
318,306,302,312,0
310,305,301,312,0
304,306,301,310,0
302,308,302,307,0
300,311,303,303,0
299,314,303,299,0
296,316,303,294,0
293,316,302,292,0
293,315,302,291,0
296,312,302,292,0
300,304,303,293,0
306,289,303,296,0
310,271,305,298,0
314,258,306,300,0
316,256,308,304,0
317,262,309,310,0
317,274,309,315,0
316,289,310,320,0
313,304,310,323,0
311,317,310,324,0
310,329,310,324,0
310,338,310,324,0
311,341,310,323,0
311,340,310,321,0
311,339,310,317,0
311,335,310,312,0
311,329,308,306,0
311,322,306,301,0
312,316,303,297,0
313,311,302,295,0
316,308,301,294,0
321,307,301,294,0
327,307,301,293,0
333,307,302,291,0
335,305,302,288,0
328,301,304,285,0
319,295,307,285,0
313,286,311,285,0
310,279,313,287,0
308,279,313,291,0
305,281,313,295,0
302,283,312,299,0
300,287,311,301,0
299,293,310,302,0
298,297,310,301,0
298,300,309,300,0
299,305,309,300,0
300,312,310,302,0
303,320,312,305,0
307,325,315,311,0
310,326,317,316,0
313,323,318,321,0
314,318,319,325,0
313,313,317,328,0
312,307,315,329,0
310,303,312,328,0
307,301,311,325,0
303,298,309,321,0
298,294,307,314,0
295,292,305,307,0
297,294,304,303,0
302,299,304,299,0
307,304,303,296,0
309,309,303,293,0
309,313,303,291,0
308,316,302,290,0
306,314,302,289,0
307,312,302,290,0
310,313,302,292,0
313,318,303,293,0
317,322,303,294,0
318,324,303,294,0
320,327,303,295,0
320,327,303,296,0
321,327,302,298,0
321,327,303,301,0
321,330,304,304,0
321,328,305,307,0
321,322,305,308,0
320,309,305,310,0
314,289,305,313,0
305,264,306,318,0
300,246,307,324,0
300,243,309,328,0
297,256,310,328,0
292,281,310,326,0
287,308,309,321,0
286,328,308,316,0
290,340,307,312,0
298,344,307,309,0
303,341,307,310,0
307,336,307,312,0
309,331,307,314,0
311,328,308,316,0
312,326,308,316,0
312,326,309,316,0
311,326,309,316,0
310,324,308,316,0
308,320,307,315,0
307,314,306,313,0
305,310,305,309,0
303,305,304,304,0
301,300,303,297,0
299,298,302,291,0
299,299,301,288,0
300,302,301,287,0
302,306,302,288,0
303,311,303,289,0
304,315,302,290,0
304,316,302,292,0
304,314,301,294,0
305,307,301,297,0
306,297,303,300,0
308,287,306,304,0
309,284,309,309,0
309,286,310,314,0
308,292,311,319,0
307,300,311,323,0
307,305,311,326,0
308,306,309,328,0
309,304,306,327,0
309,301,304,323,0
307,296,302,316,0
306,289,301,309,0
307,281,301,301,0
307,274,301,296,0
306,269,300,294,0
304,267,299,292,0
301,266,297,292,0
300,268,297,291,0
300,270,297,292,0
301,275,297,293,0
302,285,298,296,0
304,302,301,301,0
306,316,304,306,0
308,324,307,310,0
308,328,308,314,0
308,328,309,319,0
309,323,308,322,0
307,311,308,325,0
304,299,307,327,0
301,288,305,328,0
298,280,304,328,0
298,279,303,327,0
299,289,303,326,0
300,307,302,323,0
302,326,301,316,0
305,339,300,307,0
308,345,299,301,0
312,344,298,296,0
314,340,298,293,0
313,336,298,293,0
313,331,299,294,0
312,325,301,298,0
311,319,301,306,0
310,315,303,318,0
310,315,303,330,0
310,317,303,337,0
311,316,301,339,0
312,310,300,335,0
309,302,300,328,0
302,297,300,319,0
296,298,301,310,0
293,304,302,303,0
294,313,303,297,0
297,319,303,292,0
299,320,301,287,0
301,316,300,284,0
301,308,299,281,0
301,301,299,279,0
301,295,299,279,0
301,291,301,281,0
303,288,303,284,0
305,287,305,288,0
308,290,304,294,0
310,294,302,301,0
310,297,300,305,0
308,298,298,308,0
305,301,298,309,0
303,304,298,310,0
302,305,299,310,0
302,304,300,308,0
301,303,300,306,0
301,301,300,305,0
303,299,300,303,0
305,298,301,301,0
306,299,300,298,0
307,300,299,296,0
307,301,298,295,0
306,298,297,296,0
305,293,298,298,0
304,290,299,302,0
303,292,301,309,0
306,296,304,317,0
310,301,305,324,0
313,304,304,327,0
313,302,302,325,0
312,294,299,320,0
308,283,295,312,0
305,273,293,305,0
304,263,292,298,0
304,251,292,295,0
304,255,294,295,0
303,275,296,299,0
301,300,299,304,0
297,321,301,310,0
294,333,302,315,0
296,337,302,318,0
299,336,301,319,0
303,334,299,319,0
308,330,299,318,0
314,326,298,314,0
318,322,297,310,0
317,317,297,305,0
313,309,297,302,0
308,303,298,301,0
304,299,298,300,0
300,300,299,300,0
298,303,299,301,0
296,305,299,303,0
294,309,301,304,0
293,313,304,306,0
295,314,307,307,0
299,314,309,307,0
302,312,310,306,0
305,309,309,306,0
307,304,307,307,0
307,298,305,308,0
306,290,303,309,0
306,281,299,310,0
308,273,297,311,0
311,268,297,315,0
315,264,297,319,0
319,262,298,322,0
318,265,301,325,0
315,270,304,326,0
313,277,308,324,0
311,287,310,319,0
309,298,312,313,0
307,310,312,306,0
307,322,312,299,0
307,331,310,293,0
308,334,308,288,0
308,331,307,285,0
307,323,306,286,0
304,314,306,287,0
301,304,306,289,0
298,296,307,292,0
299,288,308,296,0
302,288,309,299,0
309,293,311,304,0
316,295,313,310,0
320,295,315,316,0
319,297,317,322,0
314,297,319,327,0
309,295,320,329,0
305,292,321,327,0
305,296,321,321,0
306,303,321,315,0
309,312,321,308,0
313,317,320,303,0
315,319,320,299,0
317,319,318,297,0
317,319,318,296,0
316,318,317,296,0
316,316,317,297,0
316,316,318,300,0
316,315,319,304,0
317,315,321,310,0
318,313,322,317,0
320,309,323,321,0
320,304,322,323,0
317,296,321,324,0
311,290,319,324,0
303,286,318,323,0
299,279,317,323,0
297,273,316,320,0
299,270,315,318,0
303,270,315,315,0
308,274,316,312,0
310,277,316,307,0
310,277,316,301,0
308,273,316,297,0
307,270,316,295,0
307,267,316,295,0
308,263,315,297,0
308,259,313,300,0
307,260,310,304,0
309,275,306,308,0
311,300,302,313,0
315,324,299,318,0
318,341,297,322,0
319,351,296,324,0
319,352,295,326,0
317,348,296,326,0
314,340,296,326,0
310,331,296,325,0
307,323,297,323,0
308,315,298,320,0
311,309,299,315,0
311,302,299,311,0
310,294,297,308,0
308,285,297,307,0
307,277,296,307,0
307,274,296,308,0
308,277,296,307,0
309,283,296,305,0
310,290,296,305,0
313,294,297,310,0
316,297,299,315,0
314,298,302,318,0
306,299,304,319,0
299,305,306,316,0
296,315,307,310,0
297,323,307,303,0
299,326,308,297,0
299,325,308,292,0
298,325,309,290,0
297,326,310,290,0
295,323,311,292,0
293,317,311,294,0
291,306,311,298,0
291,295,309,302,0
292,283,308,306,0
296,270,307,308,0
301,264,306,309,0
306,266,306,307,0
309,272,306,304,0
307,276,306,302,0
302,276,306,300,0
297,274,305,301,0
294,273,305,305,0
295,279,306,311,0
300,288,309,317,0
305,294,311,322,0
308,298,313,324,0
309,302,314,324,0
306,309,314,321,0
303,315,313,317,0
302,320,312,314,0
302,322,311,310,0
303,322,310,306,0
304,319,309,301,0
305,314,307,296,0
305,310,305,291,0
306,306,305,289,0
306,299,304,289,0
306,292,304,290,0
306,284,303,293,0
305,276,303,299,0
304,271,302,305,0
303,271,303,311,0
303,274,304,316,0
304,278,305,318,0
306,280,306,320,0
308,282,307,319,0
309,284,308,316,0
308,288,308,313,0
307,291,308,311,0
305,295,308,309,0
304,300,307,308,0
302,303,305,305,0
302,303,304,304,0
302,304,304,304,0
302,304,304,305,0
304,300,304,307,0
303,296,304,309,0
301,301,305,313,0
298,314,305,316,0
298,326,305,319,0
300,329,305,320,0
303,325,306,321,0
305,319,307,322,0
307,314,308,323,0
308,311,310,323,0
308,309,312,324,0
307,309,313,323,0
304,309,313,323,0
302,309,313,323,0
299,308,312,322,0
298,308,311,320,0
297,308,310,318,0
297,308,307,313,0
297,306,304,309,0
298,306,303,305,0
301,307,302,304,0
304,310,302,307,0
305,312,301,312,0
302,311,301,319,0
296,305,304,325,0
292,295,307,328,0
293,284,311,328,0
297,278,313,327,0
304,276,315,324,0
310,279,316,321,0
314,284,316,319,0
310,288,315,316,0
304,291,312,313,0
297,296,309,308,0
293,301,307,301,0
290,305,305,294,0
290,310,303,288,0
294,315,301,284,0
298,321,299,281,0
300,323,297,279,0
299,320,296,279,0
295,310,295,281,0
291,300,295,285,0
291,292,297,291,0
296,288,299,297,0
303,289,300,303,0
310,294,302,308,0
315,299,303,313,0
315,303,305,316,0
314,306,307,318,0
311,312,308,318,0
308,318,308,316,0
307,323,307,312,0
306,327,307,307,0
306,329,306,304,0
306,329,306,303,0
306,326,306,303,0
305,319,306,304,0
303,310,305,306,0
300,298,305,307,0
298,283,305,308,0
297,271,305,308,0
296,264,304,309,0
298,264,304,312,0
299,270,304,316,0
302,280,304,321,0
305,290,305,326,0
308,300,307,331,0
311,307,310,335,0
312,310,313,337,0
312,309,315,335,0
310,306,316,328,0
308,303,315,318,0
305,302,314,309,0
303,301,313,303,0
299,300,313,299,0
297,299,312,297,0
297,299,312,297,0
300,301,312,299,0
302,305,313,301,0
304,313,312,304,0
306,319,310,305,0
304,321,306,304,0
301,317,303,303,0
300,311,301,303,0
302,304,301,304,0
304,297,301,304,0
306,293,302,305,0
306,294,302,305,0
306,299,303,308,0
307,306,304,311,0
308,305,306,315,0
309,300,307,316,0
310,294,308,316,0
309,289,308,314,0
306,284,309,311,0
302,280,308,308,0
299,278,309,305,0
299,280,308,300,0
300,286,306,294,0
300,296,302,289,0
301,309,300,288,0
302,318,298,288,0
303,320,297,292,0
304,316,297,296,0
306,307,299,304,0
309,296,302,313,0
313,290,305,321,0
316,292,308,328,0
319,304,310,332,0
322,324,312,332,0
325,344,313,329,0
324,356,314,324,0
318,361,314,318,0
309,360,315,312,0
302,352,315,307,0
298,336,315,303,0
296,316,315,300,0
295,295,315,299,0
295,278,314,300,0
294,268,312,302,0
293,267,308,305,0
294,274,307,309,0
296,285,306,313,0
299,290,306,316,0
302,293,307,317,0
305,300,309,317,0
307,310,312,316,0
308,321,313,314,0
309,327,315,314,0
311,326,316,313,0
312,321,318,311,0
311,318,317,308,0
310,316,316,305,0
307,317,314,301,0
304,317,312,298,0
302,314,310,296,0
301,310,309,295,0
301,307,309,297,0
300,306,309,300,0
299,307,310,305,0
299,307,311,311,0
300,305,311,317,0
306,300,312,325,0
313,295,312,334,0
317,287,313,341,0
316,273,313,342,0
310,258,313,336,0
305,247,313,328,0
302,249,313,320,0
302,259,314,314,0
304,270,314,309,0
306,281,313,305,0
306,291,313,303,0
307,301,313,303,0
306,311,313,305,0
306,319,313,308,0
306,323,314,311,0
307,323,314,312,0
307,321,313,310,0
306,317,313,307,0
305,315,311,301,0
305,314,309,295,0
305,316,306,289,0
302,320,304,285,0
300,326,302,283,0
298,332,302,283,0
297,333,302,284,0
298,325,303,287,0
298,313,304,290,0
299,299,306,292,0
299,288,306,295,0
299,283,307,298,0
300,287,307,302,0
301,296,307,305,0
301,304,308,308,0
301,312,308,311,0
300,317,309,315,0
299,317,310,317,0
296,315,311,318,0
294,312,312,317,0
293,309,313,315,0
296,307,313,313,0
301,307,313,312,0
307,314,313,312,0
314,321,313,312,0
321,325,313,312,0
326,324,312,311,0
322,319,311,309,0
313,311,311,306,0
304,302,311,304,0
299,294,311,301,0
299,289,311,301,0
304,287,310,301,0
308,288,310,299,0
311,290,309,298,0
310,292,308,297,0
304,295,308,297,0
298,300,308,297,0
294,307,308,299,0
292,312,308,302,0
293,318,308,305,0
294,320,308,307,0
297,317,307,309,0
299,311,305,309,0
301,305,304,309,0
304,297,304,309,0
308,288,304,309,0
310,286,306,308,0
310,291,308,308,0
309,300,312,307,0
308,309,316,307,0
307,317,319,305,0
308,324,320,302,0
309,328,320,301,0
310,326,318,301,0
310,315,313,301,0
309,303,308,300,0
309,292,304,300,0
309,286,302,301,0
309,285,301,302,0
309,289,300,305,0
308,292,300,309,0
309,290,301,313,0
308,284,302,317,0
308,275,302,321,0
305,261,302,324,0
303,245,302,326,0
300,236,303,328,0
299,241,306,332,0
299,261,308,335,0
302,291,311,338,0
307,320,312,340,0
311,341,311,340,0
311,354,310,339,0
311,362,308,335,0
311,364,307,328,0
313,365,306,320,0
315,362,306,310,0
314,357,305,302,0
312,351,305,297,0
307,345,304,295,0
303,337,304,294,0
301,329,304,294,0
300,320,304,293,0
300,312,304,292,0
301,305,304,291,0
303,298,304,292,0
303,290,303,291,0
300,283,302,289,0
295,278,301,287,0
290,274,301,288,0
288,272,302,291,0
289,274,304,296,0
293,278,306,299,0
296,283,306,302,0
300,292,306,304,0
304,303,306,306,0
307,316,306,306,0
310,327,305,306,0
312,332,305,306,0
313,333,305,306,0
314,329,304,307,0
316,324,304,309,0
319,319,304,311,0
323,315,304,313,0
325,313,304,314,0
320,315,304,315,0
314,318,304,316,0
308,323,305,316,0
306,327,306,315,0
306,325,308,315,0
306,310,308,313,0
306,284,308,310,0
304,255,308,308,0
298,234,308,307,0
292,227,309,307,0
288,232,310,307,0
288,250,310,310,0
290,275,309,313,0
290,300,308,315,0
291,317,306,316,0
291,324,304,315,0
293,329,304,313,0
296,336,304,311,0
302,342,304,308,0
308,346,304,305,0
312,346,305,304,0
314,344,305,303,0
314,338,305,304,0
312,331,306,306,0
310,326,306,308,0
308,321,306,311,0
307,317,306,314,0
306,312,306,315,0
304,306,305,315,0
303,301,304,313,0
302,300,303,311,0
301,304,303,308,0
302,310,302,305,0
303,318,302,302,0
304,323,301,300,0
303,325,301,299,0
303,323,302,299,0
302,316,303,300,0
302,306,305,301,0
303,295,307,303,0
305,283,311,308,0
308,275,315,314,0
311,273,318,319,0
313,275,318,322,0
312,281,316,322,0
309,290,313,318,0
305,301,311,313,0
301,311,309,309,0
301,316,308,307,0
302,318,308,306,0
304,315,307,307,0
305,309,307,311,0
305,305,306,317,0
304,306,306,324,0
301,310,306,330,0
297,313,307,334,0
296,317,307,336,0
299,321,309,334,0
309,322,312,329,0
317,322,315,322,0
320,322,317,314,0
318,316,316,305,0
315,308,314,296,0
311,300,312,288,0
309,294,310,283,0
306,290,309,280,0
305,290,309,280,0
305,293,309,283,0
305,296,309,287,0
305,299,309,290,0
304,301,307,292,0
303,299,306,292,0
303,295,305,290,0
303,291,304,289,0
303,290,303,288,0
303,292,302,288,0
303,297,300,290,0
302,300,299,294,0
302,299,298,298,0
302,297,298,303,0
303,295,299,306,0
305,293,301,310,0
307,295,303,311,0
311,304,305,311,0
315,319,308,312,0
315,336,309,312,0
315,347,311,314,0
315,349,312,316,0
316,344,312,318,0
314,334,312,318,0
310,323,311,318,0
306,315,310,317,0
303,311,308,315,0
301,309,306,312,0
300,306,304,308,0
300,306,302,306,0
301,306,301,304,0
302,304,300,303,0
303,300,300,302,0
304,291,299,301,0
303,279,299,300,0
303,268,301,300,0
303,265,302,302,0
304,272,305,305,0
306,282,307,308,0
307,292,308,313,0
309,301,308,320,0
310,308,308,327,0
311,314,307,331,0
312,318,306,332,0
312,318,305,329,0
311,314,304,326,0
309,304,303,321,0
307,291,302,315,0
303,274,301,308,0
297,260,299,301,0
291,259,298,298,0
289,273,298,299,0
293,294,300,301,0
302,311,303,303,0
313,323,306,304,0
321,329,309,305,0
324,330,310,306,0
322,327,310,305,0
318,322,309,304,0
314,316,309,302,0
311,311,308,299,0
309,307,307,298,0
308,306,305,299,0
306,306,304,302,0
305,308,304,305,0
304,308,303,309,0
304,308,304,311,0
305,309,304,313,0
305,313,305,316,0
305,315,305,320,0
304,316,305,322,0
303,318,305,321,0
301,323,306,320,0
300,328,308,318,0
301,330,311,320,0
304,331,314,323,0
308,328,317,326,0
309,323,318,327,0
308,319,317,326,0
304,314,315,322,0
300,308,312,318,0
298,302,310,314,0
298,297,308,311,0
298,295,307,310,0
301,295,307,309,0
306,299,308,309,0
309,305,308,308,0
311,309,308,307,0
313,310,308,304,0
314,306,308,300,0
315,299,308,295,0
314,286,306,291,0
307,271,304,289,0
299,260,304,291,0
295,252,304,295,0
294,249,305,298,0
296,251,306,301,0
298,262,306,301,0
300,284,306,299,0
303,310,305,298,0
305,333,305,296,0
307,344,304,295,0
307,345,303,295,0
306,338,302,294,0
306,328,303,295,0
306,322,304,295,0
308,322,306,296,0
309,328,307,296,0
309,334,308,297,0
309,336,309,298,0
309,334,310,300,0
311,329,311,302,0
313,321,311,305,0
316,313,312,308,0
318,307,312,310,0
320,302,313,311,0
321,297,314,313,0
321,291,315,314,0
318,286,316,316,0
315,284,316,318,0
312,288,316,321,0
309,295,316,324,0
307,302,315,326,0
305,303,313,325,0
302,301,312,321,0
301,298,311,316,0
301,297,311,313,0
302,299,311,314,0
304,307,311,317,0
306,319,311,322,0
309,329,311,326,0
312,331,311,326,0
313,322,310,324,0
315,310,310,320,0
315,298,310,316,0
313,290,311,313,0
310,286,312,312,0
307,287,314,315,0
305,291,317,321,0
304,300,319,329,0
307,311,321,336,0
312,318,322,341,0
315,320,322,343,0
314,318,321,344,0
313,313,320,344,0
311,307,319,343,0
309,300,318,339,0
307,294,316,332,0
306,288,314,323,0
305,278,311,311,0
304,266,308,297,0
304,256,305,284,0
305,252,303,275,0
305,260,303,271,0
305,276,305,271,0
305,296,308,273,0
305,317,310,275,0
304,335,311,278,0
302,348,312,281,0
301,354,314,285,0
300,354,314,288,0
299,349,314,290,0
298,339,313,291,0
298,326,310,292,0
298,316,308,293,0
297,314,307,293,0
297,319,307,294,0
299,324,307,293,0
300,324,308,292,0
302,316,310,293,0
304,304,311,294,0
307,295,312,297,0
308,293,313,300,0
304,294,314,304,0
296,297,316,309,0
292,302,319,316,0
293,303,323,324,0
295,300,326,330,0
298,295,328,333,0
300,290,328,333,0
303,289,329,331,0
306,290,327,326,0
308,297,323,319,0
308,305,318,311,0
305,309,313,303,0
300,309,308,297,0
296,304,305,295,0
292,292,303,294,0
290,278,303,293,0
292,265,302,291,0
296,255,301,288,0
301,254,302,288,0
307,264,305,290,0
314,281,308,293,0
317,298,311,297,0
318,311,313,302,0
318,319,314,306,0
318,324,315,309,0
314,328,315,312,0
310,331,315,313,0
305,332,315,315,0
302,329,316,319,0
300,325,316,326,0
298,319,317,334,0
297,312,316,339,0
297,308,316,341,0
297,311,315,338,0
297,319,314,334,0
299,326,313,327,0
300,329,313,319,0
301,327,313,311,0
302,324,312,303,0
302,321,313,299,0
301,316,313,297,0
299,308,313,297,0
300,302,314,300,0
303,300,317,304,0
306,301,319,308,0
308,303,321,311,0
309,304,322,313,0
309,303,322,311,0
310,302,321,309,0
310,302,320,307,0
309,305,319,306,0
306,306,319,305,0
304,305,317,305,0
302,302,316,305,0
302,298,315,307,0
302,295,314,310,0
302,295,313,312,0
303,297,312,313,0
304,303,312,312,0
306,309,314,311,0
308,310,316,310,0
310,305,318,309,0
311,297,319,307,0
312,287,320,305,0
313,280,320,303,0
313,281,319,302,0
310,289,319,303,0
304,296,318,304,0
299,302,317,304,0
297,307,316,303,0
297,312,315,301,0
297,313,314,298,0
295,310,312,295,0
293,304,311,294,0
292,298,309,292,0
293,296,308,291,0
295,299,306,289,0
299,303,304,289,0
305,311,303,290,0
313,321,304,293,0
318,324,307,298,0
320,321,312,303,0
321,316,317,309,0
320,312,320,313,0
316,311,321,317,0
311,313,320,319,0
308,316,316,320,0
308,317,311,320,0
308,317,306,318,0
307,315,301,315,0
305,310,298,311,0
304,306,297,308,0
303,304,297,307,0
302,303,298,307,0
302,304,298,308,0
302,306,298,308,0
302,307,297,308,0
301,304,296,308,0
300,298,296,309,0
299,288,296,308,0
298,277,297,308,0
297,273,298,308,0
300,276,298,308,0
305,286,299,307,0
307,295,299,305,0
306,305,298,303,0
305,313,297,302,0
305,313,296,304,0
307,306,296,307,0
310,298,298,311,0
312,293,298,313,0
312,292,299,312,0
310,296,299,310,0
308,303,298,308,0
308,306,297,307,0
308,306,297,307,0
308,306,296,306,0
308,311,295,306,0
309,318,294,306,0
309,323,294,308,0
310,324,295,310,0
312,320,296,313,0
315,314,298,316,0
317,309,300,318,0
317,307,301,319,0
316,305,301,318,0
314,300,301,316,0
312,293,299,313,0
310,284,298,310,0
308,277,296,308,0
305,274,295,305,0
304,279,294,303,0
304,295,293,303,0
306,313,293,306,0
309,325,292,310,0
312,330,291,314,0
314,322,290,316,0
312,308,289,319,0
309,294,289,322,0
307,284,290,324,0
308,282,292,326,0
310,286,295,328,0
313,292,298,329,0
318,297,300,331,0
324,300,303,332,0
329,302,305,331,0
328,304,305,327,0
322,306,304,323,0
313,306,304,319,0
305,306,303,314,0
299,305,302,308,0
295,306,300,302,0
292,309,297,295,0
290,314,295,290,0
291,318,294,288,0
295,315,294,288,0
300,305,294,289,0
303,291,294,291,0
304,280,294,293,0
304,275,294,295,0
304,277,296,298,0
303,280,296,301,0
302,284,298,305,0
301,287,299,309,0
301,293,301,310,0
303,305,302,311,0
306,320,303,312,0
308,332,303,312,0
310,339,302,310,0
311,342,302,307,0
312,339,302,303,0
313,332,302,298,0
314,323,302,294,0
314,314,303,290,0
312,309,301,287,0
310,308,300,285,0
309,310,298,285,0
309,315,297,286,0
309,317,297,287,0
309,315,296,288,0
308,310,294,288,0
308,300,291,290,0
308,291,290,293,0
309,287,290,297,0
308,292,291,300,0
307,299,292,304,0
306,306,294,307,0
305,313,296,308,0
306,316,297,309,0
311,315,298,309,0
317,309,299,309,0
321,301,299,310,0
322,295,299,310,0
322,292,298,311,0
322,293,298,312,0
321,293,298,313,0
320,291,297,314,0
319,287,295,314,0
318,283,295,315,0
314,281,295,316,0
309,280,295,316,0
306,280,296,316,0
304,282,297,316,0
304,287,298,316,0
304,292,299,314,0
305,296,300,312,0
305,300,301,310,0
305,302,301,307,0
305,304,301,305,0
305,306,301,304,0
307,308,301,304,0
308,312,300,304,0
310,318,300,305,0
311,324,300,306,0
311,330,301,308,0
311,332,302,310,0
311,329,302,311,0
310,323,301,312,0
308,318,301,311,0
307,312,302,310,0
306,305,303,308,0
306,298,305,306,0
307,293,306,304,0
309,291,307,303,0
310,293,308,301,0
311,298,308,300,0
311,308,308,299,0
312,322,307,299,0
316,332,307,300,0
321,334,306,304,0
324,328,305,307,0
323,318,304,310,0
315,310,304,312,0
305,306,303,314,0
297,302,303,313,0
294,295,304,311,0
294,287,305,310,0
297,281,307,311,0
303,278,308,313,0
308,275,309,316,0
312,275,309,319,0
314,280,309,324,0
316,290,310,332,0
318,303,312,340,0
320,316,313,347,0
319,326,314,348,0
317,332,313,345,0
313,334,312,339,0
308,332,311,333,0
305,324,310,326,0
302,310,308,320,0
301,294,306,314,0
303,278,305,310,0
307,267,304,305,0
311,266,302,301,0
314,276,300,298,0
315,293,298,295,0
315,309,297,292,0
315,320,296,290,0
315,321,296,290,0
317,315,296,291,0
318,306,296,293,0
320,298,296,294,0
318,292,296,294,0
312,290,297,295,0
306,287,297,295,0
301,282,297,294,0
299,277,297,293,0
299,273,297,292,0
299,276,297,292,0
299,285,298,294,0
298,300,300,298,0
298,315,303,304,0
300,327,306,312,0
302,336,307,320,0
304,338,307,328,0
305,334,305,333,0
304,327,302,334,0
304,319,299,330,0
305,311,297,322,0
306,306,296,312,0
306,306,296,304,0
305,312,297,300,0
304,319,298,298,0
302,325,300,299,0
304,328,301,298,0
307,329,302,297,0
310,329,302,296,0
311,326,301,295,0
311,320,300,295,0
309,311,300,297,0
306,302,298,301,0
301,293,297,307,0
298,282,297,313,0
295,275,298,319,0
295,275,300,322,0
297,279,303,322,0
300,283,305,320,0
304,292,306,317,0
307,304,307,314,0
310,311,307,311,0
311,310,307,307,0
311,302,306,304,0
310,293,305,300,0
309,287,303,297,0
309,290,302,294,0
311,300,302,294,0
312,313,301,295,0
307,325,301,298,0
297,331,300,301,0
288,333,301,304,0
281,334,302,307,0
281,334,304,308,0
287,332,306,308,0
293,329,307,305,0
299,324,306,301,0
302,318,305,297,0
303,308,303,294,0
305,293,303,293,0
305,275,303,293,0
307,260,303,293,0
309,252,304,294,0
311,253,306,297,0
313,260,307,301,0
313,267,307,306,0
309,272,305,311,0
302,280,305,314,0
297,292,306,317,0
294,307,308,318,0
294,320,311,318,0
294,329,312,319,0
295,333,314,318,0
295,334,314,317,0
295,332,313,316,0
295,329,313,314,0
296,324,313,312,0
297,320,312,311,0
298,316,312,310,0
298,311,311,311,0
298,307,311,313,0
297,305,312,314,0
297,301,313,312,0
297,297,314,307,0
298,294,315,302,0
300,297,316,299,0
303,300,317,298,0
306,299,319,297,0
308,292,319,296,0
309,284,319,297,0
308,282,320,296,0
306,287,320,296,0
305,295,320,296,0
304,300,320,297,0
303,301,319,298,0
303,300,317,300,0
302,297,315,302,0
303,294,313,303,0
303,291,312,305,0
304,292,310,307,0
305,296,310,310,0
306,300,310,314,0
307,302,310,317,0
308,302,310,320,0
308,297,310,323,0
309,289,311,325,0
309,282,310,325,0
309,280,309,325,0
309,285,308,322,0
308,295,307,319,0
308,303,307,315,0
308,306,306,309,0
307,306,305,303,0
303,307,303,297,0
299,313,301,294,0
295,322,299,292,0
291,327,296,292,0
288,328,294,295,0
287,322,294,300,0
290,312,295,306,0
294,301,297,311,0
298,294,299,314,0
302,294,301,317,0
307,298,304,319,0
311,301,307,320,0
315,300,309,321,0
317,300,309,324,0
319,302,308,329,0
316,304,308,337,0
308,305,309,344,0
300,306,310,348,0
298,305,310,347,0
298,302,310,340,0
295,294,311,328,0
293,287,312,316,0
295,287,312,305,0
299,291,311,297,0
301,296,308,290,0
302,302,304,283,0
303,307,299,279,0
304,309,295,277,0
305,308,293,277,0
307,304,292,279,0
309,300,292,282,0
309,296,293,284,0
308,295,294,286,0
306,298,294,288,0
304,304,294,288,0
303,310,294,289,0
301,316,293,289,0
301,318,292,291,0
303,317,293,295,0
305,315,294,301,0
307,314,295,307,0
307,311,296,311,0
306,306,295,313,0
304,296,293,313,0
303,286,293,314,0
304,279,293,318,0
306,278,294,323,0
309,279,296,328,0
311,280,298,331,0
313,277,301,334,0
314,271,303,336,0
313,263,305,335,0
311,259,306,333,0
309,258,307,328,0
307,260,307,322,0
305,265,307,316,0
302,272,307,310,0
301,285,307,305,0
301,302,306,301,0
303,320,307,296,0
306,332,308,292,0
308,338,309,289,0
309,338,309,288,0
308,335,309,288,0
307,328,308,288,0
307,321,309,288,0
310,319,310,288,0
314,322,311,289,0
319,326,312,292,0
322,332,313,295,0
323,337,315,298,0
324,340,314,302,0
323,337,311,305,0
319,332,307,307,0
311,329,303,310,0
302,327,301,313,0
295,327,301,317,0
293,326,304,320,0
293,319,305,320,0
295,312,306,319,0
297,308,305,313,0
300,301,304,307,0
302,293,303,301,0
306,290,301,295,0
311,294,299,292,0
319,304,300,292,0
326,317,301,294,0
327,324,302,296,0
320,325,302,298,0
310,316,301,300,0
302,301,301,302,0
301,281,302,306,0
305,261,304,310,0
310,251,306,312,0
313,260,307,311,0
315,283,307,309,0
316,310,307,305,0
316,327,307,301,0
315,334,307,298,0
314,337,306,295,0
313,340,306,294,0
312,345,305,294,0
311,347,304,295,0
309,347,303,297,0
307,343,303,300,0
306,336,303,305,0
306,327,303,311,0
308,317,303,316,0
311,307,305,318,0
313,302,307,318,0
315,301,310,317,0
316,304,313,314,0
315,306,315,312,0
313,305,316,308,0
309,300,315,303,0
304,293,313,297,0
302,288,311,292,0
306,284,308,290,0
313,276,306,290,0
323,264,303,291,0
332,252,298,292,0
339,247,292,293,0
336,254,286,295,0
325,277,282,301,0
311,312,282,308,0
301,342,284,316,0
296,357,287,323,0
297,358,290,326,0
300,350,292,328,0
305,341,294,326,0
309,333,295,322,0
311,327,295,317,0
312,320,294,311,0
311,314,294,303,0
309,310,292,296,0
306,307,291,289,0
302,303,290,283,0
298,298,289,277,0
295,298,288,273,0
294,310,289,272,0
298,326,290,275,0
303,334,291,278,0
308,335,292,282,0
310,331,293,285,0
309,326,293,289,0
310,321,292,292,0
313,318,293,297,0
318,316,294,303,0
323,315,296,307,0
327,316,296,308,0
327,317,296,306,0
319,321,297,304,0
309,322,298,305,0
302,322,300,307,0
299,320,303,312,0
299,316,305,316,0
300,314,308,319,0
300,311,309,320,0
299,305,309,317,0
297,293,307,310,0
296,285,303,304,0
295,284,299,299,0
296,287,295,297,0
297,289,292,295,0
298,293,290,294,0
298,296,290,293,0
296,297,290,291,0
293,295,290,290,0
291,291,291,291,0
293,291,293,294,0
299,299,294,300,0
308,307,296,307,0
315,312,297,313,0
317,315,296,316,0
315,315,294,315,0
313,314,292,311,0
315,314,291,307,0
316,315,290,303,0
315,312,290,299,0
312,300,290,297,0
307,287,289,296,0
304,282,289,296,0
301,286,289,297,0
298,291,289,298,0
296,294,287,297,0
295,294,285,295,0
294,286,285,293,0
294,278,285,291,0
295,280,287,292,0
298,291,290,295,0
303,304,293,300,0
306,316,296,306,0
308,324,297,313,0
309,325,299,322,0
309,324,299,329,0
308,323,299,333,0
309,326,298,334,0
310,332,298,331,0
311,338,297,325,0
310,340,295,318,0
308,342,293,309,0
306,344,291,300,0
306,346,291,293,0
308,348,291,289,0
312,350,291,289,0
314,352,292,290,0
314,351,294,293,0
314,344,296,297,0
313,332,297,302,0
313,319,298,307,0
314,311,300,311,0
315,312,301,313,0
315,319,302,313,0
314,325,303,312,0
313,324,304,310,0
311,318,305,309,0
310,308,306,309,0
311,298,308,309,0
312,294,309,310,0
313,298,309,312,0
311,304,308,313,0
308,311,307,312,0
304,314,304,310,0
301,311,301,306,0
303,303,301,306,0
309,296,301,310,0
316,295,304,318,0
322,297,306,327,0
322,297,307,335,0
315,294,310,341,0
311,291,311,344,0
312,295,311,344,0
316,305,310,339,0
319,316,309,333,0
321,323,307,326,0
320,322,305,319,0
311,314,304,312,0
300,303,302,303,0
291,293,301,293,0
284,290,298,282,0
279,294,296,275,0
277,304,295,270,0
278,315,295,267,0
284,323,296,268,0
290,328,298,272,0
295,333,299,278,0
300,340,301,285,0
305,344,304,292,0
310,345,306,297,0
314,348,307,303,0
316,349,309,308,0
317,348,310,313,0
315,341,312,317,0
311,329,313,319,0
308,316,313,321,0
306,308,312,322,0
305,304,312,323,0
304,307,312,323,0
301,312,312,321,0
299,321,312,318,0
298,333,312,314,0
300,343,313,310,0
305,349,313,306,0
309,350,312,304,0
310,346,312,303,0
311,336,310,304,0
311,321,309,306,0
310,300,308,307,0
308,276,307,306,0
306,252,306,304,0
302,229,305,301,0
299,214,306,298,0
300,218,308,299,0
303,242,311,304,0
308,274,313,312,0
313,308,315,321,0
318,337,316,329,0
319,356,317,334,0
319,364,318,335,0
317,363,317,334,0
316,354,317,330,0
314,338,316,323,0
310,320,315,316,0
305,300,312,310,0
301,278,310,305,0
300,261,309,303,0
304,258,310,302,0
311,268,314,302,0
319,282,317,302,0
324,293,319,302,0
322,300,320,303,0
314,306,321,304,0
306,312,320,304,0
302,322,318,304,0
303,335,315,302,0
304,350,311,299,0
303,361,309,296,0
300,367,308,295,0
298,366,309,297,0
296,359,309,300,0
296,353,309,305,0
299,347,308,309,0
303,339,307,312,0
306,330,305,314,0
305,322,305,315,0
297,314,305,316,0
287,302,308,316,0
282,290,311,317,0
281,281,313,319,0
284,280,316,321,0
291,288,320,323,0
299,302,323,322,0
304,316,324,320,0
307,326,325,317,0
308,333,325,314,0
308,336,324,311,0
307,336,323,308,0
306,329,322,306,0
306,319,321,304,0
306,306,321,302,0
305,295,320,300,0
304,287,320,300,0
302,288,321,302,0
302,297,322,305,0
302,307,323,307,0
302,310,323,309,0
302,308,322,310,0
303,304,322,310,0
304,305,323,312,0
305,308,324,313,0
305,313,326,313,0
306,320,328,312,0
305,328,329,311,0
304,333,329,311,0
301,334,329,312,0
299,331,328,315,0
295,327,327,317,0
292,322,327,319,0
288,319,326,318,0
284,319,325,314,0
280,320,323,310,0
276,319,322,304,0
275,315,322,299,0
277,305,322,297,0
285,295,322,297,0
293,288,322,299,0
301,282,321,302,0
307,278,322,308,0
312,275,324,315,0
315,280,328,325,0
316,296,331,333,0
313,314,332,337,0
309,326,333,336,0
305,333,332,332,0
303,340,331,326,0
304,343,330,319,0
304,339,329,313,0
305,329,329,307,0
307,314,328,304,0
307,300,325,302,0
305,295,323,301,0
302,297,320,300,0
299,301,318,299,0
297,303,315,296,0
294,301,312,292,0
292,292,310,289,0
291,280,309,288,0
292,274,309,290,0
295,278,310,293,0
301,285,311,297,0
308,289,312,300,0
315,291,314,302,0
321,288,316,305,0
323,285,319,309,0
318,281,321,314,0
307,281,321,319,0
295,289,321,322,0
288,302,321,325,0
285,314,321,328,0
284,321,320,328,0
285,323,319,327,0
287,319,318,326,0
290,311,316,324,0
294,303,313,320,0
297,296,311,315,0
299,289,308,309,0
300,289,307,304,0
303,295,305,301,0
305,301,305,299,0
307,302,306,298,0
308,302,307,297,0
306,303,309,295,0
301,304,310,293,0
294,306,312,291,0
288,312,312,290,0
285,321,311,290,0
285,334,310,290,0
287,346,308,290,0
290,351,305,292,0
294,347,304,295,0
297,339,304,300,0
300,332,305,305,0
302,320,307,309,0
302,307,308,311,0
303,297,308,312,0
305,294,309,312,0
307,292,309,312,0
310,289,310,312,0
314,283,310,311,0
317,278,311,311,0
319,276,312,312,0
320,277,313,314,0
318,280,314,316,0
313,283,314,318,0
305,285,313,320,0
297,287,312,320,0
291,294,311,320,0
288,307,310,318,0
287,320,311,317,0
288,328,312,316,0
288,328,313,314,0
291,323,315,311,0
296,315,317,309,0
302,307,318,307,0
306,300,318,305,0
306,298,317,304,0
305,299,315,304,0
307,300,314,307,0
314,302,314,314,0
323,305,315,322,0
330,308,318,331,0
330,307,321,338,0
324,304,322,345,0
316,302,322,349,0
309,301,322,351,0
302,300,321,350,0
296,300,320,348,0
295,301,319,345,0
296,302,318,340,0
297,307,318,335,0
297,313,317,328,0
297,318,316,320,0
296,318,314,311,0
293,314,311,304,0
291,310,309,299,0
288,307,307,297,0
288,306,307,295,0
290,304,307,296,0
293,304,307,298,0
295,306,307,303,0
300,305,308,313,0
305,300,309,322,0
311,291,309,328,0
316,285,308,329,0
319,282,307,328,0
317,283,306,325,0
311,288,306,322,0
307,298,304,319,0
304,308,302,316,0
304,314,299,313,0
304,315,297,312,0
304,312,296,311,0
303,307,295,309,0
301,300,294,304,0
296,292,292,298,0
289,285,290,292,0
285,285,289,288,0
284,291,289,288,0
288,297,291,290,0
295,298,293,293,0
303,297,294,297,0
310,298,296,302,0
314,300,298,307,0
317,299,299,311,0
317,296,299,314,0
315,293,298,316,0
310,294,296,317,0
305,297,295,316,0
302,299,293,315,0
299,298,291,313,0
297,293,290,311,0
297,290,288,310,0
297,290,288,310,0
297,295,287,312,0
298,302,287,314,0
299,310,286,317,0
300,315,287,319,0
300,311,287,322,0
299,303,288,325,0
299,294,290,328,0
299,290,292,329,0
298,290,294,327,0
297,293,295,324,0
296,296,296,319,0
295,300,297,316,0
294,303,296,313,0
292,307,295,313,0
291,313,293,311,0
288,317,290,308,0
283,316,288,304,0
278,313,285,301,0
277,313,284,300,0
279,312,284,299,0
283,308,283,296,0
286,305,282,293,0
287,304,281,289,0
288,305,280,288,0
291,306,281,291,0
295,306,283,295,0
300,307,284,298,0
303,309,287,301,0
304,314,289,303,0
304,319,290,304,0
303,320,291,306,0
301,318,291,306,0
299,316,291,306,0
296,312,291,307,0
294,309,292,308,0
292,305,293,308,0
291,300,294,308,0
289,296,294,307,0
288,290,293,304,0
288,284,292,300,0
286,277,291,295,0
284,264,289,289,0
281,250,288,283,0
280,243,288,281,0
284,253,288,282,0
291,277,290,288,0
301,302,292,295,0
307,317,294,301,0
306,321,298,307,0
301,322,301,313,0
297,321,303,319,0
295,318,305,323,0
293,313,305,327,0
292,308,304,330,0
289,303,303,330,0
286,300,301,329,0
284,301,301,326,0
285,308,301,323,0
288,314,301,320,0
292,314,301,317,0
297,310,299,314,0
300,310,298,312,0
303,315,297,311,0
305,322,295,309,0
307,323,295,308,0
307,318,294,306,0
307,309,293,302,0
307,298,293,300,0
306,290,294,299,0
306,288,295,299,0
306,294,297,299,0
306,303,299,299,0
305,311,299,298,0
304,314,300,296,0
304,311,300,297,0
305,300,300,299,0
306,284,300,304,0
307,267,300,309,0
309,256,299,312,0
312,254,297,311,0
316,255,295,309,0
318,262,294,307,0
317,274,294,304,0
316,290,295,301,0
316,304,295,300,0
317,314,295,301,0
321,316,295,302,0
324,309,295,303,0
328,304,297,305,0
332,312,301,306,0
329,328,304,306,0
319,340,306,304,0
313,342,307,300,0
311,334,306,297,0
312,323,305,296,0
315,314,304,297,0
318,307,302,300,0
321,304,300,305,0
323,307,299,310,0
326,313,298,314,0
328,319,297,316,0
330,324,296,316,0
331,326,295,313,0
332,324,294,310,0
332,321,294,307,0
332,316,294,304,0
333,312,295,302,0
333,307,295,301,0
332,302,296,301,0
330,302,296,300,0
328,305,296,298,0
326,311,296,296,0
324,316,296,293,0
321,317,294,290,0
318,314,293,288,0
318,309,292,287,0
320,297,291,288,0
327,286,290,290,0
332,277,289,291,0
332,270,289,292,0
327,268,289,293,0
323,277,290,294,0
324,293,292,294,0
326,305,293,295,0
327,308,296,297,0
330,304,298,298,0
335,297,299,300,0
341,288,301,300,0
346,284,303,299,0
350,287,303,298,0
347,291,303,297,0
336,296,302,296,0
325,301,302,297,0
317,305,301,297,0
314,307,299,298,0
312,307,298,299,0
308,301,297,299,0
306,293,296,299,0
304,288,297,299,0
305,284,298,299,0
306,276,298,300,0
307,265,298,301,0
308,261,298,302,0
309,264,298,302,0
309,270,299,303,0
310,278,300,305,0
312,285,302,308,0
312,291,304,311,0
313,300,306,315,0
314,312,307,318,0
317,326,306,320,0
321,339,305,319,0
325,347,304,318,0
328,353,302,315,0
328,358,298,312,0
324,361,295,308,0
318,364,293,304,0
313,366,292,303,0
309,361,291,301,0
306,351,290,299,0
304,337,290,296,0
304,326,289,294,0
305,317,289,293,0
308,306,289,294,0
312,298,291,298,0
317,297,293,304,0
321,300,296,311,0
325,305,298,318,0
325,309,299,323,0
323,312,299,326,0
320,312,298,328,0
317,311,297,326,0
316,308,295,324,0
319,304,293,320,0
321,300,290,318,0
322,294,287,316,0
323,289,284,318,0
326,285,284,321,0
330,281,284,327,0
333,280,284,331,0
336,285,283,334,0
337,293,280,335,0
331,299,277,335,0
322,302,274,334,0
314,301,272,330,0
309,299,270,325,0
307,302,268,318,0
307,311,266,312,0
309,321,265,306,0
310,332,264,300,0
311,341,263,294,0
311,344,261,288,0
310,339,260,284,0
310,329,260,282,0
309,313,260,284,0
308,296,261,291,0
306,282,262,299,0
304,276,263,306,0
303,273,265,310,0
301,269,266,310,0
300,268,268,310,0
301,277,270,311,0
302,293,274,313,0
302,306,277,316,0
303,313,281,318,0
304,317,282,319,0
307,320,284,321,0
312,322,286,322,0
317,323,288,322,0
321,321,292,320,0
324,319,294,318,0
323,320,296,315,0
322,329,296,312,0
320,341,295,307,0
318,350,294,301,0
316,355,292,295,0
314,356,291,290,0
313,350,291,285,0
311,336,290,281,0
309,315,290,281,0
305,287,289,282,0
299,261,289,284,0
296,248,289,289,0
295,245,290,295,0
297,250,290,300,0
302,259,291,304,0
309,270,292,306,0
313,281,292,305,0
316,289,291,304,0
317,295,291,302,0
317,298,290,302,0
318,298,289,301,0
322,295,287,299,0
326,296,285,298,0
329,303,282,297,0
326,311,281,295,0
317,315,280,294,0
309,315,280,292,0
303,310,280,291,0
300,300,281,290,0
299,291,282,289,0
301,289,285,289,0
304,296,289,291,0
308,304,293,293,0
313,305,297,297,0
317,303,301,301,0
320,301,306,305,0
324,297,310,308,0
327,293,314,309,0
329,289,317,308,0
329,293,319,308,0
325,306,321,309,0
320,322,323,310,0
316,337,326,311,0
314,346,328,314,0
313,348,330,317,0
311,344,330,318,0
311,335,331,319,0
313,324,331,318,0
317,312,332,317,0
318,300,332,315,0
315,289,332,313,0
309,282,331,311,0
305,278,331,308,0
304,277,331,306,0
305,281,330,303,0
307,293,330,300,0
309,308,329,298,0
310,319,327,297,0
311,326,327,299,0
313,331,328,301,0
314,336,328,303,0
316,338,327,305,0
318,335,327,308,0
318,327,326,311,0
318,316,325,312,0
317,304,324,312,0
315,293,321,310,0
313,283,319,308,0
312,276,317,308,0
314,277,316,309,0
319,286,316,312,0
323,303,318,317,0
322,319,320,322,0
317,328,322,327,0
312,330,323,332,0
309,330,325,337,0
309,330,326,341,0
312,331,329,344,0
316,331,332,346,0
318,329,334,346,0
319,323,334,343,0
316,315,333,339,0
312,305,332,333,0
305,298,330,325,0
297,295,327,317,0
291,295,324,310,0
287,302,323,304,0
287,311,322,299,0
292,319,322,295,0
300,322,323,292,0
311,320,322,289,0
322,313,320,287,0
328,301,319,287,0
326,288,318,287,0
317,281,319,290,0
306,282,321,293,0
298,283,322,295,0
293,276,324,296,0
291,266,326,298,0
290,258,328,299,0
294,256,329,299,0
301,268,331,300,0
311,291,332,299,0
319,317,332,299,0
317,340,332,300,0
309,352,333,304,0
301,351,333,308,0
297,348,334,312,0
296,345,334,315,0
295,344,334,314,0
295,341,334,312,0
295,334,335,308,0
294,322,336,303,0
293,305,338,299,0
293,288,340,295,0
295,271,342,294,0
296,256,344,293,0
298,252,345,293,0
298,264,345,293,0
300,289,343,291,0
302,311,343,290,0
305,325,343,287,0
307,331,342,285,0
309,333,341,285,0
309,330,340,286,0
308,325,339,287,0
308,323,338,287,0
309,321,338,287,0
310,317,338,289,0
309,311,339,290,0
306,304,339,289,0
301,297,339,287,0
298,293,338,286,0
298,298,338,288,0
302,311,340,293,0
310,323,343,299,0
315,326,346,304,0
312,323,348,309,0
304,320,349,311,0
299,314,350,312,0
297,309,350,311,0
297,308,348,308,0
299,312,346,304,0
302,317,344,298,0
305,317,343,293,0
309,311,342,287,0
312,305,342,281,0
312,302,343,275,0
311,302,343,272,0
309,302,343,271,0
307,304,342,273,0
306,305,340,276,0
305,305,339,280,0
305,303,339,284,0
306,300,339,289,0
308,296,340,293,0
309,296,341,294,0
309,300,341,295,0
309,306,341,295,0
309,310,339,294,0
310,310,337,293,0
312,311,336,291,0
315,313,334,291,0
315,315,333,293,0
313,317,333,295,0
312,321,333,297,0
310,324,332,297,0
309,326,331,296,0
307,326,331,295,0
307,326,331,295,0
309,326,331,296,0
314,322,331,296,0
320,317,331,296,0
328,315,331,298,0
332,316,331,300,0
328,316,332,302,0
319,314,336,305,0
312,309,341,308,0
306,303,343,310,0
301,297,341,309,0
298,292,339,307,0
297,290,336,305,0
298,292,334,304,0
299,301,332,304,0
301,315,331,305,0
303,327,330,306,0
305,335,329,307,0
307,335,329,308,0
306,326,330,309,0
303,309,330,309,0
299,291,329,308,0
295,276,327,306,0
295,268,325,304,0
298,266,325,304,0
302,272,325,305,0
305,279,325,307,0
307,282,325,310,0
308,283,325,312,0
309,287,324,313,0
309,295,322,313,0
307,307,320,312,0
306,319,320,310,0
303,330,321,308,0
302,340,323,308,0
300,347,325,309,0
300,352,326,310,0
303,356,327,311,0
309,359,326,312,0
316,360,326,313,0
322,358,324,312,0
324,356,321,310,0
324,353,318,308,0
323,347,315,306,0
322,338,313,306,0
322,331,312,308,0
322,321,311,310,0
320,306,311,311,0
320,290,312,312,0
324,280,313,311,0
331,277,313,311,0
339,281,313,310,0
346,288,313,312,0
345,295,312,314,0
337,303,311,316,0
327,310,310,319,0
322,314,308,320,0
318,313,306,322,0
310,308,305,323,0
301,300,303,323,0
293,289,303,324,0
289,281,303,325,0
289,282,305,327,0
295,291,305,328,0
300,303,306,328,0
304,314,305,327,0
306,323,305,325,0
309,332,304,324,0
311,336,303,325,0
315,336,304,327,0
319,335,305,329,0
322,334,308,331,0
320,333,310,332,0
312,329,310,332,0
302,324,309,332,0
293,320,308,333,0
284,318,308,334,0
279,317,308,336,0
278,314,309,336,0
283,307,310,335,0
289,300,310,335,0
296,297,310,336,0
299,300,310,337,0
301,305,309,338,0
302,307,308,338,0
302,305,308,336,0
302,303,307,330,0
302,301,305,322,0
300,303,304,313,0
297,305,303,308,0
293,306,302,306,0
288,304,302,306,0
286,297,302,306,0
287,291,302,306,0
290,288,302,306,0
293,286,302,305,0
295,286,303,304,0
297,290,303,302,0
298,299,303,302,0
299,310,303,301,0
299,318,303,301,0
299,324,302,303,0
299,328,300,307,0
299,330,298,313,0
299,330,297,318,0
302,331,297,323,0
309,337,298,325,0
314,346,300,323,0
313,355,302,317,0
309,360,304,308,0
301,356,305,297,0
293,343,306,289,0
286,324,309,285,0
283,308,312,284,0
284,294,313,285,0
287,279,313,286,0
290,265,311,287,0
293,257,307,288,0
294,257,304,291,0
296,266,302,295,0
297,278,300,297,0
298,288,297,297,0
298,292,293,296,0
297,290,290,294,0
295,283,289,293,0
295,273,289,295,0
296,263,291,299,0
298,257,293,305,0
300,261,294,311,0
303,276,295,317,0
305,294,296,320,0
306,310,297,323,0
306,320,297,326,0
305,325,298,329,0
304,323,298,331,0
301,314,298,332,0
297,301,298,330,0
292,287,297,324,0
289,274,296,316,0
289,266,295,306,0
292,262,294,296,0
303,263,293,288,0
316,267,292,285,0
320,271,291,285,0
317,277,290,288,0
309,285,290,293,0
297,293,292,299,0
287,293,297,308,0
282,290,302,315,0
279,292,305,319,0
275,298,305,321,0
269,298,303,321,0
262,288,301,318,0
257,276,298,315,0
258,271,297,311,0
263,271,296,306,0
273,270,294,301,0
281,276,292,296,0
284,286,290,290,0
282,293,287,284,0
277,293,283,275,0
271,286,279,267,0
267,281,277,260,0
265,281,276,258,0
267,278,277,260,0
271,272,281,267,0
278,280,286,276,0
282,295,291,285,0
286,304,297,293,0
290,305,302,299,0
292,303,305,302,0
291,302,306,303,0
287,310,305,304,0
284,329,303,304,0
284,352,300,304,0
288,364,299,304,0
295,362,297,303,0
303,349,297,301,0
306,328,297,299,0
304,301,295,296,0
301,276,293,294,0
301,261,293,292,0
305,255,294,293,0
310,253,296,297,0
311,253,297,301,0
303,258,299,304,0
290,273,302,307,0
281,296,304,308,0
276,317,304,307,0
273,329,305,305,0
273,337,307,305,0
276,343,310,307,0
279,346,311,307,0
281,342,311,308,0
285,335,311,309,0
291,324,312,310,0
300,310,312,311,0
309,297,311,310,0
306,286,308,308,0
291,276,304,307,0
273,270,300,305,0
262,270,299,304,0
259,278,297,302,0
260,286,296,299,0
